time,I,II,III,aVR,aVL,aVF,V1,V2,V3,V4,V5,V6
0.0,-0.0011847395171770653,-0.001294437620619386,-0.00010969810344232086,0.001294437620619386,-0.0005265508965231401,-0.0007459471034077819,-0.0009653433102924235,-0.0009653433102924235,-0.0026766337239926287,0.003203184620515769,-0.001294437620619386,-0.000636248999965461
0.002,-0.008275790851308452,-0.008822671575100518,-0.0005468807237920669,0.008932369678542839,-0.0037878273706905222,-0.004991286921716977,-0.006743236989955035,-0.006743236989955035,-0.018697157108511688,0.022484984479202212,-0.00904206778198516,-0.00444440619792491
0.004,-0.025956420088419977,-0.02682723845747582,-0.0008708183690558402,0.027593515388152526,-0.012302463636641146,-0.014810377305429534,-0.02103997752415914,-0.021149675627601464,-0.05864228242198588,0.07094474605862702,-0.028359792318829236,-0.013939558936373692
0.006,-0.04877710177284235,-0.048486755624324064,0.0002903461485182972,0.05089012785473331,-0.0240820841294503,-0.025904764062822966,-0.03875863201068057,-0.03974430514824191,-0.11030981692356764,0.1341725048461333,-0.05329350008514257,-0.02619511021134126
0.008,-0.06257629802677202,-0.05944730117475947,0.003128996852012558,0.06385400138361737,-0.032328086324198896,-0.030476792829031676,-0.04727156480360288,-0.05098809468848091,-0.14236175386471298,0.17285013163791993,-0.06837039969591757,-0.03360578968104424
0.01,-0.06129962928278045,-0.05614343724362329,0.005156192039157172,0.06117126198209214,-0.0329896266377403,-0.027705067297894792,-0.042067873530658356,-0.04985846244242367,-0.14217984468211922,0.16821715145314617,-0.06685566554779536,-0.03286125933705197
0.012,-0.054083191349362666,-0.05009184617792097,0.003991345171441696,0.053354208315968946,-0.02936214077676212,-0.02464181257192669,-0.03342325791563146,-0.043443411748558924,-0.12977987534866853,0.14346753573843807,-0.05825366575374947,-0.028633157743368397
0.014,-0.05239439678014289,-0.05157020672354183,0.0008461296772895225,0.05207831822905898,-0.027225678801607964,-0.02606347057323453,-0.03244077941687265,-0.04066192049902055,-0.1275713142228485,0.1310661978528237,-0.0545239388509594,-0.026799902147081736
0.016,-0.05774309781938658,-0.05862191324356877,-0.0007474996587353173,0.05797374742019033,-0.02878299526505879,-0.02976114452459786,-0.038011620252406744,-0.043020731296420575,-0.13582366048165873,0.13759381381056907,-0.05733336262319758,-0.02846676414207048
0.018,-0.06469022448669984,-0.06447705184319998,0.0005405917034463566,0.06497231609931216,-0.03266135873336864,-0.0324028586425346,-0.04212103456333221,-0.0474728739691122,-0.1430125181870932,0.14663551741941122,-0.06140670292069514,-0.0319629338734828
0.02,-0.06986256632956847,-0.06787659039010475,0.0024085811558418957,0.06987337202139203,-0.03685513715179989,-0.034457361687781546,-0.041925943016632876,-0.05256700843911104,-0.14521518091991198,0.14380441912661884,-0.0643764401853526,-0.03660940826834967
0.022,-0.07431563853277098,-0.07174592488256427,0.0028252543215758017,0.07405791140395687,-0.04042210799469417,-0.037339126544304255,-0.04176081001082504,-0.058457788633626606,-0.1476279805841738,0.13098275331395257,-0.06923656111573906,-0.04272971403847528
0.024,-0.07999303177615566,-0.07692401242735569,0.00304334588866234,0.07925986099283604,-0.04378663038358689,-0.04001011371160492,-0.04570729580759948,-0.06478660410865933,-0.15430285536867727,0.11901729111910435,-0.07871521986091728,-0.05064557319383752
0.026,-0.08582777641975929,-0.0812816658222515,0.004400313990829055,0.08423478548752657,-0.047028749980863614,-0.04103544505780183,-0.05137150056160298,-0.07051535237118403,-0.16271178739494693,0.11419999020563543,-0.09005942540285786,-0.05930748293791952
0.028,-0.0870523210738816,-0.082044775335163,0.004944330028501819,0.08500212531907494,-0.04779266632437589,-0.04079814054106743,-0.05179709801360074,-0.0732045396435387,-0.1668010877694507,0.1154717807805255,-0.09634231685987298,-0.06443426484314957
0.03,-0.08007718348594337,-0.077331526229053,0.0027917871770511238,0.0788054228077942,-0.04370590568117517,-0.03953265972253255,-0.04332680294980034,-0.07001683794621273,-0.16344104764906064,0.11994188577117931,-0.09299531178701564,-0.06161587270474508
0.032,-0.06817836584499448,-0.06783035443965318,0.00042636934855222664,0.06816559018237185,-0.037001804722718024,-0.03581832240155491,-0.03014914239218932,-0.06210347116879463,-0.15604921631567037,0.12605241198907974,-0.08235547935751827,-0.052520317897677665
0.034,-0.05973469800317655,-0.05766183793192016,0.0022282765957564233,0.059679142821763856,-0.03358072120270045,-0.029046772581257416,-0.020495258701905664,-0.055251258014228616,-0.15210018391997052,0.13256129183050824,-0.07146798177817444,-0.04400932131330534
0.036,-0.05982044626043458,-0.051747566260695106,0.00850200902005849,0.05785128823868912,-0.03642765374672968,-0.021898823218018913,-0.0193533539780506,-0.05416959224339077,-0.15660174156221002,0.13740749176015482,-0.06638590652788094,-0.04052824935819995
0.038,-0.06453918219648618,-0.05114861279977907,0.014125275281814753,0.06046270873635286,-0.04142444208272717,-0.018310253672089043,-0.024801120523754338,-0.05811331111495321,-0.1672734113685034,0.13881914028678322,-0.06820355797789303,-0.040488441594921924
0.04,-0.06557321936969668,-0.051768952383561176,0.014491233747382726,0.061136201824421685,-0.041855903630423616,-0.018859596173867992,-0.031026821940666856,-0.06322348023747187,-0.17746753894233508,0.13671824396207236,-0.07352779247187376,-0.040543047126198245
0.042,-0.06059664061288401,-0.04950785412262911,0.011353159387591643,0.0570484222505365,-0.03695476696107124,-0.020208612143102628,-0.034621133084287735,-0.0674152008095333,-0.18447991853064094,0.13174862726219833,-0.0788731900901917,-0.04079253891031024
0.044,-0.05618517645533407,-0.045780650853496044,0.010365559836207747,0.052581768188314254,-0.03317120922970788,-0.01956682276086688,-0.03652644578953007,-0.07142656098750415,-0.1916219142162254,0.12458996116220553,-0.08350035737708408,-0.044003370109484206
0.046,-0.059544595850503985,-0.04454975119230732,0.015106962429273908,0.053558882454869464,-0.037018750629497034,-0.01670334845325661,-0.03833583659746603,-0.0763091158902959,-0.20121495545131168,0.11751283884045889,-0.08739421656091237,-0.05083762111674377
0.048,-0.07043179511256734,-0.0457979571022746,0.02503570517978893,0.05966006939349067,-0.04853287520234524,-0.011986706182119371,-0.039898746141554524,-0.0818197521852725,-0.2105421255754191,0.11353677344031776,-0.08953498797728766,-0.05848372128304305
0.05,-0.08234272666037025,-0.04693516873914122,0.0357673343461088,0.06576009905285508,-0.06103299321656618,-0.006774289448844206,-0.041290021365029246,-0.08714639370162068,-0.2165437302512949,0.11284801195587403,-0.08998338783059927,-0.0644149258800927
0.052,-0.08999148897898206,-0.04859635187820966,0.04143084222666917,0.0696188263753079,-0.06738920732372722,-0.0046633884424339325,-0.04386055630744306,-0.09200444064708493,-0.21965633427819156,0.11294998233237734,-0.09103614256171415,-0.06882901697419985
0.054,-0.09442877955603676,-0.05398101346684377,0.04027494090315471,0.07426410231460294,-0.06754141181654316,-0.008122919140592185,-0.047656600921721796,-0.09663598076653036,-0.22125143053923163,0.1123426251399924,-0.09436485791522198,-0.07237524988503258
0.056,-0.09993746524625352,-0.06280432007523631,0.037045616084268276,0.08192876261145986,-0.06792448405313038,-0.014478955763597255,-0.05015537995698758,-0.10084303279006883,-0.2211818784081128,0.11185074901747862,-0.09848543243833373,-0.07416439203568564
0.058,-0.10633005145541753,-0.06886801301613654,0.03763212483262436,0.0885810622484045,-0.0724211508169454,-0.01763189378367609,-0.04889921705725229,-0.10292178360736111,-0.21886211689959142,0.11312572432322099,-0.10023336726133052,-0.07316718949574447
0.06,-0.1077139770435715,-0.06552594180692115,0.04259357308559562,0.08746053475647317,-0.07706877573206462,-0.013867337222681242,-0.04423063852766849,-0.10075630254563046,-0.21470027611427958,0.11680121524657247,-0.09812964318888455,-0.06965526496387682
0.062,-0.1006023092150423,-0.053430623846055535,0.04761082637322923,0.07756170413478461,-0.07604572272729013,-0.005295449981302561,-0.03912261352211116,-0.0953281924361152,-0.21049551537863204,0.12136342067951417,-0.09405262808170564,-0.06477030162968195
0.064,-0.08965707658821236,-0.040376041204745354,0.049501994883176616,0.06549205959363692,-0.07023347777280607,0.0027734062864659785,-0.03627022423773212,-0.09115984794882248,-0.2084379263295357,0.12446520694617913,-0.09163684483639414,-0.05995879839632842
0.066,-0.08283211634808899,-0.03316984923832891,0.049611055394854386,0.05864307714961241,-0.06625442344993732,0.007181036772486302,-0.03548181156758994,-0.09155982659793173,-0.20904477295065998,0.12555803228689483,-0.09296829633369447,-0.05701604087900495
0.068,-0.082861797815581,-0.03235535145748533,0.05036730453427916,0.058729191801081944,-0.0675934808857406,0.008388812942888011,-0.0349170943793231,-0.09527720746967973,-0.21111666523929457,0.12553105571525147,-0.09684695585305705,-0.057184278122226845
0.07,-0.08490823330695998,-0.03472404827778493,0.05013807790460709,0.061689108135387236,-0.06972108056038373,0.007054678632227395,-0.03399317269261412,-0.09861605017343703,-0.21392598324467202,0.12451468129783554,-0.09996521248947554,-0.059321099849058895
0.072,-0.08265302356819107,-0.03780806075336612,0.044895633055069835,0.06257923796569463,-0.06610033328599026,0.0023948849636986,-0.03336830242353465,-0.09906188745881209,-0.21752749045429867,0.12246161413171296,-0.09977812451926306,-0.06027652185679826
0.074,-0.07656180693530402,-0.04030547857388832,0.03630557973523785,0.06044265002577805,-0.058042089655637535,-0.003791583558441683,-0.0328315067414222,-0.09605870012230323,-0.2204762233832823,0.12155089876009063,-0.09588389047313561,-0.05747840874484727
0.076,-0.07357639129304175,-0.03983177591035894,0.033740875750526936,0.05797893979928321,-0.054585594639861484,-0.004984054052245938,-0.03076512239591713,-0.09014601489896766,-0.21963929209509395,0.12554455443809362,-0.08898069770302083,-0.05041805928409114
0.078,-0.07788160104988284,-0.03302524039805859,0.04480590785872437,0.056682597142178784,-0.0620362688842285,0.0044800242560165526,-0.025706101913126028,-0.08313858152063072,-0.2139739822214357,0.13517087317066223,-0.08054985938236933,-0.04072514726266132
0.08,-0.08622034772599842,-0.018235946049247925,0.06786344918645758,0.05428071011891075,-0.0781525368029542,0.024136865733943386,-0.017868311754678227,-0.07730945078149856,-0.206445123181406,0.14589713605918284,-0.07293138761470494,-0.03151177632779283
0.082,-0.09434970652743353,0.001783621342989544,0.09594723656599506,0.048852141934794126,-0.09726584201484079,0.048504525830552134,-0.008863570347867843,-0.07207852375441341,-0.19958928093684616,0.15310042261328313,-0.06712055227107572,-0.02584700597591992
0.084,-0.10296697626818631,0.01854136966566425,0.12142425266446202,0.04405549883254567,-0.11518199664005362,0.06907021426308556,0.0009084090667459819,-0.06253111498926064,-0.19119246032543263,0.15806333489297575,-0.06167312582848466,-0.025258935819513596
0.086,-0.11294212286225469,0.021287682233706303,0.1343967044880451,0.04630534117057438,-0.12671158116983527,0.07573082935698233,0.013339804816731832,-0.04428231397545629,-0.17820200259901434,0.1652884001465705,-0.05623854378295152,-0.029170232426955947
0.088,-0.11993226305901934,0.006469780665065591,0.12669906585688578,0.05652616446576644,-0.12577471104864993,0.06356849795883962,0.027512929846423128,-0.02120272847281691,-0.1630595303035933,0.1755042533515727,-0.05351082939507401,-0.034977913808585455
0.09,-0.11841842715075342,-0.014112319509684567,0.1045547081958587,0.06655176527623788,-0.11331490371188345,0.042175566207591254,0.03651273499366611,-0.0037581433240799636,-0.15012745235062055,0.18773567280222855,-0.052421019917799294,-0.03699263662977148
0.092,-0.10696396891391756,-0.017576439097987704,0.08963435838221159,0.06353978468962762,-0.09977984023217339,0.03348058615477554,0.035703222039658804,0.005076324149243322,-0.13572658115116262,0.20826346813242527,-0.040969584359389674,-0.02597110250727621
0.094,-0.08929698682941671,0.009667323457134377,0.09928006951146172,0.04150895729124926,-0.09570946029361302,0.05251795387084852,0.030893649710769692,0.017786108115015527,-0.10826084220662525,0.2485848809927504,-0.003843043933410889,0.004991427613981263
0.096,-0.07185595573387324,0.05458521682049781,0.12668653256449086,0.009920123389739037,-0.10078267780363216,0.08938194232160929,0.032275559372399426,0.050197342052092676,-0.06043324092115858,0.31155217836410604,0.06048917535786842,0.05199201046663763
0.098,-0.05293199385078843,0.08950616552143063,0.1424873700695734,-0.017534515695137542,-0.09937448354065426,0.11539347845847196,0.04265231943803686,0.10446478872524005,0.0032285652150298378,0.3875488234091786,0.13683435743424285,0.10214143185919418
0.1,-0.015709727637904833,0.10201772858842732,0.11774405654155683,-0.04248881140719539,-0.06852895544459915,0.10945247556687523,0.05554654116311724,0.17110737534675616,0.07452108983718712,0.4698097424046053,0.21209815775501045,0.14703807595085774
0.102,0.05379918621044515,0.1044536782401371,0.0509047967390414,-0.07827820746943548,-0.00030166160248463634,0.07711006714039233,0.0638129051913354,0.2481167967766536,0.15636627825819238,0.569638883346794,0.29362631247241666,0.19330396005862882
0.104,0.145845513702822,0.11736283596312466,-0.028037521918477765,-0.13063485808968842,0.08549478585752095,0.04422781436842667,0.06748049737385868,0.34845532618627156,0.2649470031796462,0.7095037028706986,0.40370275197018274,0.2581544376705349
0.106,0.2421842355141324,0.15553964193931305,-0.08633632447319532,-0.19799658665520428,0.1632527868378823,0.034516173721973985,0.07257024897857811,0.4805375813597851,0.41163479905887307,0.8979679161744918,0.5553355025239766,0.3543708669494217
0.108,0.3446881157223624,0.22513153092225677,-0.11956899875552977,-0.2843330067561652,0.23150214788660436,0.05255749003478158,0.08282381915403197,0.6261387627249231,0.5819293388433716,1.1127568197399513,0.7348336520240353,0.4780575731786063
0.11,0.4651394842849546,0.3178320350067357,-0.1474755377042603,-0.39093490722957763,0.30578198695580777,0.08399901347474312,0.09245301480982605,0.745604727396743,0.7362293144195797,1.3089250385807336,0.9072959189693117,0.6077576868114838
0.112,0.5938697714655718,0.409657302546285,-0.1842935654969907,-0.5005590822470591,0.3884759969136425,0.11033165719062538,0.08803467178015373,0.8028345289463735,0.8335925020061542,1.442285375949663,1.0367237470251973,0.7154220154532582
0.114,0.7024716615288473,0.4774701821822872,-0.2249517436222287,-0.5879763313867837,0.463217109042519,0.12362784566276909,0.05828038529214761,0.78152518203784,0.8536458646569677,1.488230952801333,1.1010875423471471,0.7815283547020073
0.116,0.7732179901802028,0.5156464816497286,-0.25750361670799166,-0.6426148068260982,0.5152198190097415,0.1274581482404573,-0.0003847912362949686,0.6861438296429617,0.8004985192788998,1.449285366291014,1.0966787022220328,0.8041839090481039
0.118,0.8110406541620366,0.5360622493263113,-0.27497273107582704,-0.6727879012057125,0.5431229159560822,0.13016782899971277,-0.08531977728127112,0.5398609275070009,0.6979126450921733,1.354622548726421,1.040306527500681,0.7989068058897697
0.12,0.8313884024499397,0.5576035385945645,-0.27384099191894673,-0.6942124025627555,0.5525174364379266,0.14154441135011053,-0.18679327812100424,0.37544944154839355,0.5791076810064015,1.2444949855108818,0.9638947876351146,0.787554747640191
0.122,0.8428548769100939,0.5891320521627965,-0.2538735644312436,-0.7150202216583513,0.547424884366916,0.16623209600357605,-0.28692102425609967,0.21188961256744462,0.4614758360665445,1.13553817486993,0.8870010063271005,0.7773900839232811
0.124,0.8397642859635857,0.6129081346172797,-0.22717420971356897,-0.7246713505139021,0.531398980922049,0.1906047922089864,-0.3705191713185793,0.041474671600052054,0.3256166802847089,0.9995976821625671,0.7889978467079627,0.7470608826989933
0.126,0.8141000307786772,0.591118192351623,-0.22338937929231256,-0.7011582876958208,0.5160207624240669,0.18172682562445408,-0.4413344061435541,-0.14875251253439006,0.13762070523349615,0.7960517293500846,0.6280815734007913,0.6615081605422057
0.128,0.7727181072773814,0.5003667897300504,-0.272604770970871,-0.6355584054060078,0.5202935133191768,0.11257168956915606,-0.5177576462008341,-0.3474874620384074,-0.09949763475979514,0.5322134995889657,0.39993991184947236,0.511283514992206
0.13,0.7297516823378962,0.36132437547354657,-0.36840885647407906,-0.544400944229076,0.547825680742329,-0.004186188528961106,-0.6053807804295303,-0.5264769938772393,-0.335302736437586,0.27138153820721006,0.16139542512752866,0.3359719416805254
0.132,0.6825988761395074,0.22939575738329127,-0.4530399714080379,-0.4541763049997173,0.5675188736566759,-0.11259439447357276,-0.6846015624830376,-0.6791455770225849,-0.5261264609760479,0.06748376867887473,-0.019939486591880978,0.19776593691882344
0.134,0.6152491958809829,0.1516250171616496,-0.46342789735534995,-0.38103157790732184,0.5391571072690181,-0.15731629157371738,-0.7327678152898479,-0.8285520859984503,-0.6790029413063338,-0.08576723659009555,-0.1279921973364664,0.12815576535728623
0.136,0.5276253977247771,0.12986884897714446,-0.39747191955118266,-0.32637793955116523,0.4620703362844501,-0.13556910646505255,-0.7444820705739391,-0.9769750774251864,-0.8196179528240067,-0.22023509157494087,-0.1955030306042693,0.10618110211228256
0.138,0.4399402468230579,0.1265038983788152,-0.3130695211254683,-0.2815011772446871,0.376163070457834,-0.0948754167626392,-0.7234079561579467,-1.0714381804276578,-0.9354515030817416,-0.3312078609369495,-0.25078043833694674,0.08988602899101253
0.14,0.3672156665733859,0.10759449072135163,-0.25936931316301803,-0.23630058329520456,0.31342553428716763,-0.0773441975962597,-0.6721871010653333,-1.0557656390185197,-0.9824668483786985,-0.3809164462555985,-0.2886127711435194,0.060706476526740015
0.142,0.31034841713156547,0.0751089198753101,-0.2352585785524574,-0.19178120624293074,0.2728361705487504,-0.08186483738422075,-0.6002245575036051,-0.944997449620204,-0.9443469821764051,-0.35590061937475237,-0.2942714384224347,0.030179671912057133
0.144,0.2659949877773208,0.05137999721254052,-0.2148764697789117,-0.1578414794106328,0.2394456574482907,-0.0840089700812958,-0.5264403380605668,-0.8139334602822129,-0.8586935596964067,-0.292619163511524,-0.27585725096734043,0.010760459902774747
0.146,0.223758572892773,0.04186174177412886,-0.18229555029450653,-0.13226415820885112,0.20094091343087983,-0.07266468515947916,-0.4640295635457874,-0.7176435242800662,-0.7784058601473351,-0.23986535341480653,-0.25847307924489193,-0.003252074442754311
0.148,0.16596764013687318,0.02886936848511407,-0.13748713301170468,-0.09684937547172828,0.14948915572902424,-0.056821875830633924,-0.41042324230956095,-0.6510447746786124,-0.7238669324932109,-0.21290778532812832,-0.2551375012203668,-0.022875634859784316
0.15,0.0924496857656938,0.0014452847450946611,-0.091205027834198,-0.045828804264192065,0.09033647754402904,-0.04758280824230473,-0.35686324001655184,-0.5823353021975175,-0.6799071332260757,-0.19331174179379076,-0.257206793277188,-0.046605619174996116
0.152,0.0326907935363853,-0.02483836526277202,-0.05749528436479731,-0.002394974022321981,0.04444998009943662,-0.04383061562115222,-0.30071740395768737,-0.49766842357562,-0.6258290975074012,-0.16089176317988046,-0.24988034735378017,-0.06344924471343509
0.154,0.013318341522145498,-0.028872566567201878,-0.04207101162213868,0.009155002042727373,0.027331422910308222,-0.03729645778121232,-0.245148498727558,-0.4057237183480472,-0.557772112272808,-0.11426787805655157,-0.2282917981404508,-0.06809347241520937
0.156,0.02213827608967988,-0.015939223290039193,-0.03803112810120036,-0.0019255273033716616,0.029179587753252557,-0.02742024323679817,-0.19304021335277294,-0.31840175660943065,-0.48773856184007147,-0.06623224818924338,-0.20042983771403738,-0.0673601605245111
0.158,0.02052543416915415,-0.012004508509348564,-0.03257000286964484,-0.002820060416224186,0.024662123798753852,-0.02193733152445213,-0.14616582970874337,-0.2424792893183984,-0.43012632456706523,-0.028578245811129988,-0.1786163303202435,-0.07155885843610817
0.16,-0.011594952902413438,-0.028466190493922326,-0.016915571135903553,0.02186601623113521,0.0002159808612826196,-0.022866312803741202,-0.10782014541766194,-0.1838973305269086,-0.390660677968005,-0.002388485378968919,-0.16777984339449656,-0.08166733783658295
0.162,-0.05716716286504421,-0.05027980801953864,0.006909593337267589,0.0555877785154902,-0.0341337896950539,-0.023005761947251076,-0.08194494898300365,-0.14782252045319602,-0.36586058368843094,0.018567022323915487,-0.1623289731649802,-0.08833284262858371
0.164,-0.08862790887436325,-0.05908377603687074,0.02969963540908892,0.07546577424410678,-0.060357598874018065,-0.016537078035599364,-0.06882590227152315,-0.13280303636877472,-0.3504228558494835,0.0370458914828596,-0.15515814389650268,-0.0846184573124052
0.166,-0.09624140556603376,-0.0519604938746452,0.04461971855902634,0.07554190514865272,-0.07107910828537353,-0.004960999139478353,-0.06344715372385897,-0.12964303011385162,-0.34196436487963316,0.04963506883494907,-0.14682755084509813,-0.07526510210274527
0.168,-0.08694041621685007,-0.037985162845741986,0.04937011751621542,0.06411973707004587,-0.06934261206479576,0.00539070018464126,-0.05974646834668916,-0.1283777908914295,-0.339200541382935,0.05434800727769723,-0.14324878473661826,-0.07050692436717117
0.17,-0.07285403577658947,-0.028255091847145763,0.04484457927510206,0.05270028623720106,-0.06136574314498849,0.008357164113278593,-0.05542308659645489,-0.12536456970658325,-0.3398557774997362,0.05370161655362402,-0.14697473983102946,-0.07494941118141578
0.172,-0.06467677931968348,-0.028024675645956384,0.036625923305513515,0.04868714471460662,-0.05415640965402532,0.0037442608562186317,-0.05100371197241048,-0.12193689447834048,-0.34114233712506564,0.049875309748426286,-0.15428111260617766,-0.08489353580333894
0.174,-0.06539640385264678,-0.03364240291943811,0.03161336685433091,0.051436726937828955,-0.051937383967888426,-0.0024401458724136764,-0.04693997560304257,-0.11778657460835833,-0.3397372594738043,0.043963549394708305,-0.15939862343059183,-0.09358381447424596
0.176,-0.07106258398724993,-0.039200387565101705,0.03180172293933582,0.05622914197880415,-0.05389391027164007,-0.005341835051851766,-0.0437261484517299,-0.1102717758551356,-0.33218979838806073,0.039806866413036504,-0.15898151611469005,-0.09723521034463374
0.178,-0.07949017543443841,-0.04473626692723735,0.034798530964121346,0.06236144563739971,-0.05825849083104673,-0.006038522491666173,-0.04193203978429717,-0.10053023953542718,-0.31894536110786553,0.04208953227859169,-0.1536296095456935,-0.09687121999256652
0.18,-0.09153183078337272,-0.054104808728776994,0.03748122387677869,0.07277340886509243,-0.06467642282105072,-0.008572574465495671,-0.040959890511386696,-0.09455823256457747,-0.3070819679240414,0.05033819645682311,-0.1476657271878061,-0.09600476586897506
0.182,-0.10488550566317026,-0.06747299894034657,0.03741443181109062,0.08692035947894401,-0.07162025082683356,-0.014825664694395134,-0.04014159176188327,-0.09657954249980102,-0.30444844647474506,0.05889293246722439,-0.14701176374957467,-0.09737857751632716
0.184,-0.11336061068592766,-0.07957790581015721,0.03375419591530796,0.09859896204399421,-0.07541104601628479,-0.022704000420248626,-0.04110703118174952,-0.10569017149051554,-0.31152619056615305,0.06254114812337412,-0.15448981014583243,-0.10143103456192512
0.186,-0.11235459066648332,-0.08440553404061626,0.027934390963632098,0.10115028013442706,-0.07317181510920882,-0.028382986970273926,-0.04646034147953876,-0.1184102709708164,-0.32247583573294436,0.05937478264906905,-0.16650727618882305,-0.10646572157274174
0.188,-0.10415137557386188,-0.08076993449442395,0.023389975157741924,0.09447440148158508,-0.06687893477286468,-0.02956731904382122,-0.055612718246688723,-0.13042709836568017,-0.3322066260609608,0.04974079939348459,-0.17611100087193118,-0.10963881631691132
0.19,-0.09735031865299387,-0.07380801159585951,0.02353244030340042,0.08647213546191335,-0.062965870303145,-0.026769299584413334,-0.064368109927406,-0.1375837928482299,-0.33931242505747705,0.03651148655493157,-0.17972715580512755,-0.10935329441867161
0.192,-0.09767675898590622,-0.0698425328665982,0.027682080201239426,0.08462827057533882,-0.06479810414703406,-0.02273390496817579,-0.06879812220964625,-0.1381737508655354,-0.3435425829056596,0.02575315586223641,-0.17960690396396115,-0.10716292358218449
0.194,-0.10080389496338091,-0.06959378165563096,0.030723381272571546,0.08699553881940553,-0.06787959603023044,-0.020410309493699437,-0.06747885517760852,-0.13358111845242546,-0.3434127569077747,0.02284211526075761,-0.179522591166851,-0.1059946669452414
0.196,-0.09896608358701148,-0.06889493434106747,0.02918631061755115,0.08617008522622821,-0.06629752358907019,-0.020441223807648762,-0.061306581883621106,-0.1268725787660056,-0.33799044237513265,0.02714272776461956,-0.1800215199494058,-0.10711879749126299
0.198,-0.09182809242979278,-0.06600399284379285,0.024820169279404655,0.08052060737616024,-0.06039640749657742,-0.021412035030427712,-0.05340189006193125,-0.12156028490492826,-0.33008619713782494,0.03295647531163555,-0.17937737611962537,-0.10968233443463217
0.2,-0.08594666827557453,-0.06443143700007684,0.02086544885814211,0.07580006585241757,-0.054871428589794775,-0.022713477239219296,-0.048087759255662284,-0.11989300930269736,-0.3249660762816058,0.035625667228188634,-0.1777298364281741,-0.11188971167774878
0.202,-0.08593918436985878,-0.06793333853918172,0.017922168046468952,0.07692527976867036,-0.05270539479440686,-0.02571048615809811,-0.04827368643323924,-0.12123916764475409,-0.3253663713193615,0.0350064614537744,-0.17748304602658718,-0.11210770928313821
0.204,-0.08990902900232439,-0.07560296901681074,0.014539465394562944,0.08265105314083003,-0.053026641601774976,-0.03147131246248938,-0.053311616748072846,-0.12348901357624913,-0.32939144545532445,0.03353226996172841,-0.17952633388253397,-0.1100378900109476
0.206,-0.09265745912516224,-0.08252720134496433,0.010292314233960499,0.08785678906699163,-0.05296884102136828,-0.038002916305002514,-0.059702747406692444,-0.1262183247999141,-0.33386934955741576,0.032370199203640364,-0.1819666081763427,-0.10737938880958817
0.208,-0.09259658843597177,-0.08532861576464663,0.007228944350553494,0.08981977965651712,-0.05162976363727059,-0.04160783871393943,-0.06473899035705523,-0.13120160947340073,-0.3388359586980025,0.029886693164240054,-0.1836684390806902,-0.10675300939887886
0.21,-0.09560664216115186,-0.08719291888574869,0.008287670318117142,0.09255773211292563,-0.052972955900019235,-0.0416935774570315,-0.06863418569037154,-0.1395298540145713,-0.3468552207220055,0.0238224219955146,-0.18650960386863585,-0.10957121424540246
0.212,-0.10921287727375355,-0.09485537325929885,0.01419733328115486,0.10304641005938411,-0.06209994314918049,-0.04193946563383244,-0.07211174637250263,-0.14918736853102038,-0.35756969664866856,0.014598424880594407,-0.19264287091438034,-0.11501562757326073
0.214,-0.13149250688850606,-0.10954529222236235,0.021662290080612268,0.12151199055751857,-0.07728557108008033,-0.04546259771209889,-0.07391459379457228,-0.15640849904893175,-0.36584265453897424,0.005961210624880916,-0.2007164493083645,-0.12084709350636909
0.216,-0.14885491392569283,-0.12288036410013894,0.025609794491675702,0.13719173067098742,-0.08885391675941275,-0.05037509400240779,-0.07189536210622226,-0.15845862116542145,-0.3663759437969175,0.0027080734287787678,-0.20528015005900413,-0.12461342646515187
0.218,-0.14773907783879883,-0.12327011063727919,0.024338728103688482,0.13678332794315387,-0.08814573213765088,-0.05114268759091679,-0.06538762417510423,-0.15411397674577787,-0.35830945657381325,0.007738876050446315,-0.200696449318456,-0.12442866727702331
0.22,-0.1283259988920464,-0.10675863552678098,0.021898011731875777,0.1180054467822263,-0.07677149326678934,-0.04375472390062218,-0.05646893312566664,-0.1437230513226895,-0.34557508403763654,0.0199561320100842,-0.18729415978507227,-0.12017406068494675
0.222,-0.10453299834006143,-0.08096839915849181,0.02412556843841112,0.09237431561098833,-0.06518891746463658,-0.02944819079495437,-0.04932561753000545,-0.13079308774778498,-0.33425680153801896,0.03415371033447693,-0.1725762068953596,-0.11461668127143902
0.224,-0.09099529189022444,-0.059829264719671274,0.03151541999354071,0.07495941161707957,-0.061819086564972286,-0.015184205503233274,-0.04839589972341581,-0.12215645050230461,-0.32965893994312057,0.04286306924178892,-0.16540644372305463,-0.11220163206580563
0.226,-0.09222020232661536,-0.055342587041652465,0.036967276277846656,0.07386311039883449,-0.0653735075670836,-0.01042239391842551,-0.055750054969591956,-0.12439725815024578,-0.334239756363111,0.0401849370340595,-0.1695058612793238,-0.11518901232400777
0.228,-0.10186736641483439,-0.0690660859240453,0.03305697513273503,0.08609098339289634,-0.0683026501645907,-0.019202156680061002,-0.0678739634262707,-0.1386957180208836,-0.3459968264255404,0.02699558544358032,-0.18088655406108084,-0.12089245889860359
0.23,-0.10950410586291902,-0.08908431346583927,0.021099565870760294,0.10029418567272214,-0.06593935968488457,-0.034651569442051965,-0.07694166901463542,-0.15889724875422775,-0.35915025960290703,0.011072680475441795,-0.1913207073804613,-0.12433671925021797
0.232,-0.10921241882569997,-0.09969731156924291,0.010267111219974652,0.10590816146497933,-0.06062045343541086,-0.04474827372615772,-0.07800870774767336,-0.17467563661283564,-0.36786062803467406,-0.0005260640836137998,-0.19580528825565288,-0.12364590086148518
0.234,-0.10295200999920344,-0.09490627092637911,0.00832716635043639,0.10083193410625367,-0.057282722914440636,-0.04317087278191694,-0.07309838950234313,-0.1775700894303958,-0.36934835372869673,-0.006830434292767251,-0.19565653735729957,-0.12090681229942103
0.236,-0.09621696317017248,-0.0809839843205448,0.01492540004836436,0.09052975569928984,-0.057426643317823545,-0.03334460458805116,-0.06781398341179422,-0.1673479241927962,-0.3646224376761598,-0.009863405910459276,-0.1946132077661008,-0.11851403514398724
0.238,-0.091752936064555,-0.06799385201059648,0.02315847075733192,0.08153052070835526,-0.05853305803083892,-0.023531956491198977,-0.06616196236272881,-0.15364174406328532,-0.35770044967647147,-0.010340007592639651,-0.19476007731296996,-0.11703161326648917
0.24,-0.08889251692880266,-0.061581215726683666,0.02672273512443828,0.07689208841223039,-0.058209686083632174,-0.01922010429620664,-0.06864436892734006,-0.1483670152231462,-0.3537012653663455,-0.008194396570660685,-0.19646965143786943,-0.11586149263889617
0.242,-0.08805114769204385,-0.06305464066522944,0.02453074114459545,0.07738180087133369,-0.05707061017842845,-0.021020199430937213,-0.07340933192029167,-0.15483736539697496,-0.35614435434465813,-0.004572295171284814,-0.19932053133640967,-0.11442745918733657
0.244,-0.09170366852664565,-0.07325964878220684,0.018122238333124124,0.08394173293994033,-0.05663704276117981,-0.028752033285680278,-0.07788439869762061,-0.16562366135867476,-0.363824286388229,-0.0013653683165192436,-0.2017327377492084,-0.1132678956327348
0.246,-0.09993481502222329,-0.09157171387854722,0.008225835186111896,0.09626083032078704,-0.05641462839837453,-0.04272939175957515,-0.08027243045023592,-0.17173445114515967,-0.3700483177247757,0.0005409818215975871,-0.20185594705921747,-0.11342703397643847
0.248,-0.10870901850149113,-0.11154119413099715,-0.0027972897033789954,0.11007370004075107,-0.05534844236189458,-0.05894375633598438,-0.08047197953469554,-0.17106076587762603,-0.3680378525787634,0.002097304765623677,-0.19955400735595982,-0.11361421817153282
0.25,-0.11366320366790152,-0.12268578938937928,-0.008933710732693622,0.11861233611198825,-0.05446997056209957,-0.06841289492902242,-0.07891206896730871,-0.16662797433088627,-0.3583679598340396,0.004828790940835086,-0.1959353058235938,-0.11059945414084853
0.252,-0.1138396289875955,-0.11995733366825567,-0.006064677231523187,0.11824611750385156,-0.05557941339178338,-0.06585555861636405,-0.07535589513948314,-0.16129892669516996,-0.348449150837334,0.008070874860029045,-0.19159280276061275,-0.10443963027509551
0.254,-0.11159524270862942,-0.10891946205209035,0.0027982298446872296,0.11185590088763211,-0.05843042518412628,-0.05548949233912561,-0.07005181946250974,-0.1564753157436723,-0.34394638375881803,0.009250221828241225,-0.18667125585206767,-0.09961446490663242
0.256,-0.11013370187424171,-0.09926309935034297,0.011319561269078,0.10562436155656124,-0.061361857073157604,-0.04550122674183586,-0.06475088146497476,-0.15271050543680617,-0.3438837600841055,0.008487848175288958,-0.18161910322686622,-0.09879747370040884
0.258,-0.11104405857677475,-0.0957968045924872,0.016151808200887203,0.10356560050824735,-0.06352387423290472,-0.040517782911388134,-0.06130084414048857,-0.14993071661866955,-0.3443301916796511,0.00994606212633161,-0.17673187998873127,-0.09922273311892556
0.26,-0.11330131935284687,-0.09694027550609058,0.01751570974989054,0.10538331300288042,-0.06486465485696968,-0.04051379796004641,-0.05985646021002397,-0.14778174375457745,-0.3428784012360664,0.016529552308066558,-0.17153747552171883,-0.09724937099488783
0.262,-0.11531299391183075,-0.09936882826914373,0.016931861227500938,0.10846519702618547,-0.06578601044661617,-0.04317598067526993,-0.05939507861559029,-0.1462960491721004,-0.3394251613030887,0.0258145394626459,-0.16601717480254924,-0.09370386477531886
0.264,-0.11745069659020912,-0.10223262752387041,0.015718785451351,0.11131217642218062,-0.06722411735841699,-0.046406940125868996,-0.059763061774257546,-0.1463248210225767,-0.33611713331789345,0.03250430973745258,-0.16260895097585812,-0.09268395266357844
0.266,-0.12021727550134177,-0.10636955508047269,0.013861475827957914,0.11406130625339596,-0.06884438469135987,-0.049741517522910644,-0.06233723152145372,-0.1487721240305164,-0.3360700761147799,0.03352359867421434,-0.1646419419201856,-0.09617776707946075
0.268,-0.12109085221102904,-0.11009640841215615,0.010805748680808618,0.11564314584366171,-0.06817467185787122,-0.052718424504089686,-0.06796905102206513,-0.15287332801524833,-0.33928414253837613,0.03064365989201753,-0.17153501896674497,-0.10144244404095791
0.27,-0.11657221030862257,-0.10859268131485847,0.007898811476717636,0.11288900471650692,-0.06375049904786731,-0.05269840053188259,-0.07458920545789292,-0.15621888358817265,-0.3414546770533147,0.028242528099498714,-0.17832792843119843,-0.10430225069340791
0.272,-0.10870047466152431,-0.10005000156192519,0.008825176667761378,0.10544411119496519,-0.0590938870894319,-0.04700903152963701,-0.07863843556484232,-0.1578730635573607,-0.33991835447318197,0.028194652950710195,-0.1809462612059896,-0.10385518124820557
0.274,-0.10759273991281086,-0.09073065954423416,0.017285369856205452,0.1005797149417288,-0.062318614685435765,-0.037104636805527946,-0.07862358232077145,-0.15900571626596643,-0.3370617577461269,0.029225481847573394,-0.17865151348343197,-0.10160563187353962
0.276,-0.12093378141474918,-0.08869929358231782,0.03280047027142899,0.10610617416150554,-0.07756307001721724,-0.027955813188207102,-0.07520021125907567,-0.158278081454838,-0.334139745893966,0.032105097847498036,-0.1716628720088191,-0.09720224334673444
0.278,-0.13890339702168636,-0.09259423113142516,0.04685806216678334,0.11674204552455364,-0.09471045615737944,-0.02346241710165537,-0.07021044467729587,-0.15214222389780532,-0.3288559329622117,0.03996856754936388,-0.1610928582104169,-0.08957674634143871
0.28,-0.1401738908479834,-0.09310961223654175,0.04743848496136318,0.11735644845233328,-0.0956219649807751,-0.024201644484500084,-0.06802705271394766,-0.1427084966303124,-0.3229321303874758,0.05090541780639377,-0.15144628327107296,-0.08194413251060437
0.282,-0.11790377169736607,-0.08600819828104307,0.03201302852698432,0.10271476137334008,-0.07553686827784917,-0.028453606479623767,-0.07318933570897941,-0.13801292027433362,-0.322640822080888,0.05697399231552628,-0.14839327216513087,-0.08008621087348844
0.284,-0.08823519844946079,-0.07719486374367435,0.010945566208213027,0.08388963287948231,-0.0490751238232874,-0.03418616942217086,-0.08422992403985212,-0.1414152155470585,-0.32878724907509416,0.05426438557974477,-0.15232420180454637,-0.0846326439877563
0.286,-0.06882422588494361,-0.0739631552171645,-0.0053664541995946365,0.07279315986921421,-0.03121867357379642,-0.040522486962531336,-0.09414168730006506,-0.1470496024541814,-0.33427051079574877,0.048410300748997895,-0.15741747282742716,-0.08953875325167683
0.288,-0.06061374945649381,-0.07596838326771649,-0.015695961937080612,0.0692556219712263,-0.022620876163230236,-0.046751984421399564,-0.09775048034355376,-0.14766356808302566,-0.33263828917042143,0.047573334909084504,-0.158491310189554,-0.0890028033311539
0.29,-0.05435869677113679,-0.07617785794163204,-0.022198757968499173,0.06556241699582836,-0.016669035376227243,-0.05011539360647943,-0.09532090303086942,-0.1424274365129064,-0.32419108813098957,0.05414229801291895,-0.15568059261283482,-0.08272186434525497
0.292,-0.04482789817648277,-0.06870740702501817,-0.02410687902800407,0.05697560378128828,-0.010935069601799876,-0.047247003919846604,-0.0898789024019849,-0.13589295896754286,-0.3145014140904238,0.06447415612043558,-0.15162858961229195,-0.07458477928973786
0.294,-0.03427813718125106,-0.05548571514387853,-0.02119153031984732,0.04551337181649386,-0.007274546109597177,-0.03918252446241506,-0.084337762274273,-0.13222820204037486,-0.3091571544916421,0.07392929904358886,-0.14752378424896276,-0.06869160823287046
0.296,-0.02900684708295134,-0.0455836933900289,-0.016450888958621013,0.038000393919573834,-0.007794622251478026,-0.03207536373573581,-0.08119424691815505,-0.131877978157699,-0.30879334267375214,0.08090489251238685,-0.14309606840300407,-0.06663250143970154
0.298,-0.03583407648303593,-0.04726397439988105,-0.011370910024276018,0.04179707667309762,-0.014609221693312796,-0.030636557367403023,-0.08214006611778557,-0.13195948132132537,-0.30906117333592953,0.08651743782580328,-0.13819887449094367,-0.06723284406352258
0.3,-0.05709126139621263,-0.060649681017078697,-0.003595760979981273,0.0589704821816004,-0.029166147549209355,-0.03327145124436951,-0.08610582170962233,-0.12856082435556734,-0.30596382353943813,0.09186985059915793,-0.13311769182822442,-0.06827687737657372
0.302,-0.08590598580238341,-0.07766079798471133,0.008173329036847324,0.08266768397732238,-0.048846871350271576,-0.03516773530339199,-0.08941973892331304,-0.12039473140272276,-0.2998142424746812,0.09705835120508133,-0.1280917927207541,-0.06829139585577908
0.304,-0.10734217607600258,-0.08695870244551913,0.020248305323650663,0.09927627025983422,-0.06526250406796127,-0.033209399122113625,-0.08991422516539944,-0.11086068065214709,-0.29356403968439254,0.10240690797932965,-0.12302182079271269,-0.06647675772141175
0.306,-0.10724864328667168,-0.0799296127573214,0.027016863526360173,0.0964761051841127,-0.06876719812698685,-0.026581874547016347,-0.08966282767411987,-0.10524083492631006,-0.2893335591744075,0.1091928682437958,-0.11730550067044952,-0.06169710700412166
0.308,-0.08415767917785248,-0.05654660735936157,0.027202628710863624,0.07322598346942756,-0.05746972139406779,-0.015580980124386974,-0.09186798652409688,-0.10621189024708956,-0.2873584470419708,0.11839618307289383,-0.11002253918250972,-0.05316618800351345
0.31,-0.05242255295641763,-0.02662694092670464,0.025533074098806865,0.042057166450546864,-0.04063962727151364,-0.0018112415227566241,-0.09568871049816707,-0.11224088724636959,-0.28644970975434414,0.1291633050644451,-0.10092254163041507,-0.042054521373652703
0.312,-0.030817266333397944,-0.0035254637764868136,0.027306411976515583,0.01950118165682257,-0.03066287344581719,0.011153313718045933,-0.0966426115607314,-0.11877479972127676,-0.2847136567167397,0.1390385487964218,-0.09142334446126724,-0.031099337142870574
0.314,-0.027486536385415768,0.004698075870631981,0.032328942575684104,0.013682477728025326,-0.031885063487188926,0.018748629673264145,-0.0928823306527909,-0.1214406833594599,-0.2814405687745911,0.1454451379636042,-0.08419247250185488,-0.022943768676990342
0.316,-0.035352274048286586,0.00041810728149530095,0.0358389336541924,0.019680101752918504,-0.03814659256716074,0.018985418214696147,-0.08837949024112148,-0.12019159089703685,-0.2786300000402228,0.14710918823740662,-0.08104675430486888,-0.01943555626854283
0.318,-0.04093748767896277,-0.0064932359460460505,0.03440147074877669,0.025876205446421496,-0.04046658008922915,0.01476600258409868,-0.08820958139999042,-0.11965588588331057,-0.2791143954053014,0.1447930861807952,-0.0811514793830755,-0.021266433499370102
0.32,-0.03756355869449785,-0.008298640327614001,0.02920718737528284,0.025259019420010426,-0.035962161908698234,0.010929334475589506,-0.09288600619396623,-0.12389726957853218,-0.2833311885896198,0.14050236407726271,-0.08236819960434175,-0.02719301215311953
0.322,-0.029771907331921994,-0.005106003740328673,0.024661287902183922,0.019900734902741916,-0.02924151081737827,0.010102739872380678,-0.09887137718192864,-0.13173219144864198,-0.28912493723695315,0.13593935286275943,-0.08404350764951307,-0.03374895759728502
0.324,-0.025529296633293647,-0.0013165826472197571,0.024241863731282166,0.015457700118242945,-0.02612318020117769,0.011892433144564892,-0.10280129685834834,-0.13813572771026034,-0.29404200994785973,0.13233243630548355,-0.08646350664769792,-0.0366273384099962
0.326,-0.026881625942911123,-1.1174635214187103e-05,0.026886891364634843,0.014692398260118603,-0.02744843228932243,0.01399872384556228,-0.10395795053887907,-0.13970610758576502,-0.2967629349843486,0.13096301220522863,-0.0885170943062991,-0.03413842404613083
0.328,-0.02977338615801712,-0.00105890260380429,0.028706447330077635,0.016333363773683173,-0.029721312812565313,0.01439082671236333,-0.10325866176507466,-0.13789600834290613,-0.29664999318675617,0.1327795570591646,-0.08825822976672006,-0.029241884609936833
0.33,-0.030385034515428216,-0.0021640012785296395,0.028208229843228114,0.017457939284790825,-0.030052115724594184,0.013466098576935351,-0.10092281951255637,-0.13678251010362946,-0.2935466500454066,0.1377108672640672,-0.08501056272983103,-0.02599664201153321
0.332,-0.028441664161652426,-0.0015649965484186013,0.02687493751512456,0.016447642443584397,-0.028311339310496803,0.012778611181328638,-0.09685663278397502,-0.1385282307776435,-0.28908447655735886,0.14424128527380614,-0.07975376932987548,-0.024604607293907958
0.334,-0.0252048211139002,0.0003620757119036005,0.025551117012901383,0.013819352723614186,-0.025521640043044344,0.012500472344819713,-0.09257642455045938,-0.14151820900382067,-0.2862125731328426,0.15008759693162285,-0.07403517426751213,-0.02206821293456667
0.336,-0.021315058665680706,0.0032466068735878127,0.02441229625730878,0.010153300366521721,-0.022822432184323952,0.012716242647120778,-0.08977394617764879,-0.14244324122872926,-0.2856949192868578,0.15468669687195358,-0.0687188746931644,-0.016347701463745236
0.338,-0.017215564821994475,0.008481797622816917,0.02523712229479859,0.005203099523399691,-0.02164735771667152,0.015235271483072119,-0.08810648861432255,-0.1395753022750336,-0.284846210891133,0.15999590916281015,-0.06331792150539325,-0.00790286997862326
0.34,-0.01363295873872397,0.01623552457246604,0.029093679695185636,-0.0002857005957347471,-0.022369205465357683,0.020778636421511596,-0.08697742597316792,-0.13394505171750085,-0.28112312042827603,0.16683436025115217,-0.056465756540034995,0.0011718464039834967
0.342,-0.010429194619435972,0.0226460128908551,0.03226521095664077,-0.004312476359375933,-0.022507112214376655,0.025649208642091748,-0.08769167863791126,-0.12827319313130486,-0.2758271162612983,0.17234508786342487,-0.047792062553767896,0.007563016500597396
0.344,-0.0059534024758810845,0.02280607302952956,0.02820348343652204,-0.0058955850449470115,-0.018002983901546456,0.023911764810389126,-0.09218562452522601,-0.12578370481601678,-0.2732736628417597,0.1735987560523898,-0.03997058021135286,0.007897758141642737
0.346,0.0012453998619270537,0.015985918862322798,0.014490293938258016,-0.006132915247637736,-0.007337577936978564,0.013484795757880077,-0.10057203748667819,-0.1285440042795929,-0.27610103897326405,0.17168079668070177,-0.03730944134060851,0.002112243765367638
0.348,0.009911640796185174,0.006373877383761911,-0.0035626237156070094,-0.0063749156418739465,0.005955547779858838,-0.0009335993297039575,-0.11021684842558191,-0.13461345736541624,-0.2818160345610122,0.1699988166238089,-0.040421926834281134,-0.004881805250791299
0.35,0.016254260732645513,-0.0012750335378845633,-0.017355845627180563,-0.006169284198349122,0.015987164457487938,-0.012147833716650984,-0.11747539663428956,-0.13849826887028735,-0.28502185793484225,0.1703775131417125,-0.044274520658341324,-0.007276111786398398
0.352,0.017700412427523255,-0.004883768618203602,-0.02221366460964463,-0.004704780771650121,0.019506316785270688,-0.016447023985518047,-0.12026518160870403,-0.13692676797349057,-0.2825055920305414,0.1726673199637576,-0.04390552314372926,-0.004147043224598408
0.354,0.015547011654001413,-0.004273471792031039,-0.01939297227440464,-0.0034372717898439814,0.017315252422041502,-0.0145223536134794,-0.11824149202096974,-0.13250821348852276,-0.27547828285647286,0.17632617754710586,-0.040103367861098235,0.00030949551464474947
0.356,0.012488120610993149,-0.0010242999905421472,-0.0132753539597052,-0.0039496857179694145,0.012163149217830405,-0.00964102532472001,-0.1121761183085163,-0.13010342227409222,-0.2685681509504887,0.180097363679683,-0.03728037104299964,0.0017697526995312633
0.358,0.009745369204182844,0.001698499058584298,-0.008106023645359683,-0.004929310713846559,0.007201282018485921,-0.005637001531107019,-0.10451322912449026,-0.13128567645030467,-0.26679029685345,0.18162216258358183,-0.03733665688248758,-0.0005029841248573909
0.36,0.009210164009772691,0.003939959772656264,-0.005543117611635588,-0.006031662580936529,0.005546669339258063,-0.0032659383012361137,-0.097910187210091,-0.1334134969431164,-0.2711239089587969,0.1797377788623507,-0.037769432663821996,-0.004024113311317774
0.362,0.014376817603628288,0.010896572312640055,-0.0038627015530325833,-0.011422625401035641,0.008247784181664108,0.0010508561263048752,-0.09239160569998592,-0.1333546402311138,-0.27685382582094126,0.1763752236959385,-0.035823394725181694,-0.005724739767362586
0.364,0.02440077510007949,0.025480548838853347,0.0006829783071412424,-0.02342766957530997,0.011590395238840884,0.010712860799024917,-0.08668730076088957,-0.13135030918354462,-0.27839118940083735,0.17455973664371222,-0.03257051283238905,-0.004961578927030044
0.366,0.031525653843805186,0.04256128623957495,0.010701522471617524,-0.03625302822204231,0.009584697989964272,0.024563086116592615,-0.08149211727692782,-0.1303156920835039,-0.2760103389190901,0.17497104761476437,-0.030950873487160205,-0.004083573341289775
0.368,0.028812419856395818,0.0531429090628706,0.02402827274135044,-0.0408378109181159,0.0006981562543205036,0.037161051130237224,-0.07838154936637183,-0.13187979898073302,-0.27552476301826184,0.17541364960851208,-0.031504083050051306,-0.005678956237720287
0.37,0.016569194314212825,0.051273231816404786,0.0343764297164974,-0.033165034714837845,-0.010814555785641746,0.04210837786416382,-0.07695598224976057,-0.13500101442123807,-0.28044227200628785,0.17334517639166255,-0.03281028666881598,-0.00996539251544219
0.372,-0.0001287518922878277,0.03760059908516354,0.037392183796095754,-0.01659396513338048,-0.020324537907342972,0.03695600209652044,-0.07549984854003756,-0.13810886745103546,-0.28692824011325746,0.16823703609805707,-0.03469857998149917,-0.014593993568258754
0.374,-0.01614913358713044,0.018978839923119287,0.03478936729085833,0.0013246712824293645,-0.026592494176874273,0.026109851517960924,-0.07355816941570109,-0.1409125230362338,-0.28895358482147093,0.1614836346955719,-0.03882550511727691,-0.016563305977591754
0.376,-0.028556034521836658,0.0036827160014089658,0.03191732597148745,0.014377679969171171,-0.030939052568490555,0.01715836772108272,-0.07203164154022831,-0.14366533703673995,-0.28677932217301855,0.15501102840570694,-0.04597549828188572,-0.014587428780684813
0.378,-0.03732102537037535,-0.00446242972629204,0.032664688626643644,0.02162740254370632,-0.03523235899733177,0.013978984246846238,-0.07077258766232919,-0.14550608940637397,-0.2862638351113956,0.15061941199337814,-0.0534315803200832,-0.009968232839669033
0.38,-0.044686763702201385,-0.007434311192234125,0.03727737816733663,0.026382185622375744,-0.040870530959329944,0.014904673687061146,-0.06822028823965032,-0.1450827944838279,-0.2900744694025384,0.1494339250716522,-0.05696966682475455,-0.005990161654420419
0.382,-0.052642704711390646,-0.008727789857783916,0.04414766765309451,0.03141344336564068,-0.048271012207430936,0.017150711276093526,-0.06425951069823084,-0.1428701774655943,-0.294326342260629,0.1508447702425143,-0.05595847538012596,-0.0058580896603973595
0.384,-0.05988435768674956,-0.00854502705485891,0.05169885023546414,0.035376472319418685,-0.05592564968708168,0.02041050683824275,-0.060858321006253976,-0.14110021552016155,-0.2945410920079027,0.1524458182970867,-0.05419741943631274,-0.01003373444407872
0.386,-0.06238003088762096,-0.004448794318820057,0.058196077523929926,0.0345725321978331,-0.060643799756679675,0.02544605819678654,-0.05863604534015377,-0.14108606294708131,-0.2910201030157982,0.15205819422814326,-0.05516258596241073,-0.015973451799472377
0.388,-0.058275684822529636,0.003536146727366781,0.06169794066293271,0.02834640652983847,-0.06033846604349873,0.03114346644852066,-0.05509725579659773,-0.14200872364732142,-0.28756769489325773,0.15008629778883315,-0.058225567031390695,-0.020402378932560382
0.39,-0.05081378221101817,0.010557571794079424,0.06091707247841591,0.0212555759628953,-0.05610533138532123,0.0342119068788309,-0.047716223395771855,-0.14268644239426,-0.2874674956016529,0.14833296460074602,-0.0606311817083131,-0.02174982468355012
0.392,-0.04564489315643673,0.010589361659949729,0.05585283329731098,0.019198834122475607,-0.051093028665399824,0.03173763356396467,-0.03834046683694246,-0.14360933219404537,-0.2914788174456469,0.14634897474914507,-0.06233105674538861,-0.02136145643652423
0.394,-0.04656357289034382,0.0015001398050510746,0.0480389568110518,0.02454862988296969,-0.04807500683513681,0.02371142148569299,-0.0328281433672864,-0.1461713619988322,-0.297879761192031,0.14189051060004795,-0.06644929132591904,-0.022300247384004254
0.396,-0.05339484337827917,-0.013403948897486135,0.04017807791512149,0.03516349798298967,-0.04788559656209756,0.012897748275662283,-0.03437302502552745,-0.14993072004448235,-0.3033282136983421,0.13523727081600856,-0.07427818961574108,-0.02633138847343481
0.398,-0.062405365311163946,-0.027814362352723138,0.03470140018436742,0.04658897251815266,-0.049497755039123965,0.0027928101956856827,-0.03929925294063218,-0.15241878143639775,-0.30519188861461083,0.12990665096669685,-0.08257402906110763,-0.03232042700670834
0.4,-0.06846030447038215,-0.036310305134220046,0.03208226730309786,0.054091179601793105,-0.05105297928513635,-0.003900003062239913,-0.042245980824402785,-0.15219193982209625,-0.30405540146425714,0.12886580507886114,-0.08705431641105475,-0.03732772615566182
0.402,-0.06780136611527267,-0.036624160778075274,0.030964034248036242,0.05405925298574688,-0.050672749876807935,-0.0057226613608591295,-0.042553085709996816,-0.15017498215813324,-0.3031078173798204,0.13192148734154838,-0.08663424152848455,-0.038755431842241214
0.404,-0.06100394219747992,-0.03012778503886557,0.030534244717067227,0.04683510553790888,-0.04785770275113426,-0.0028059209316223656,-0.04286215142399293,-0.14810317920549776,-0.3052225450030758,0.13611159049855706,-0.08390935935610609,-0.0369427964275359
0.406,-0.053510490169484455,-0.021627535616116373,0.031475987738377585,0.03809540921268584,-0.04466709672054631,0.00256236325316185,-0.044880013532652585,-0.1480332060199692,-0.31137388533603017,0.13748962455858124,-0.08294737853651486,-0.03650670927008823
0.408,-0.050713805039043255,-0.017381873473514844,0.032970924652075254,0.03448520152867958,-0.04330492495302579,0.0059246721071221494,-0.049266000275660415,-0.1525468027721272,-0.32064165778682113,0.13337039846271675,-0.08671898937700089,-0.0423803684568803
0.41,-0.05257341794646953,-0.021001930874012302,0.03126160028446073,0.03772335667742296,-0.04272570816907865,0.003069908753619987,-0.05634831150434844,-0.16196841515193058,-0.33015548990868354,0.12419097959680764,-0.0951334803680989,-0.05371358082143167
0.412,-0.05509205097896286,-0.030335537669973642,0.024461717116829176,0.04415951656085471,-0.04047321451832493,-0.005566263694918238,-0.06408234369360724,-0.1720828741477393,-0.3361454904345552,0.11377390916834541,-0.10439503771816919,-0.06491381867247181
0.414,-0.05629430648886932,-0.03951642052115389,0.016581412247497634,0.04967330469629548,-0.03729815701502821,-0.014290184779119674,-0.06847346143008017,-0.17811231468518918,-0.33743645743053385,0.10660500707677797,-0.1097118205133672,-0.07269514682812471
0.416,-0.0587135639901247,-0.04495569963144278,0.013745241543574638,0.05390263597091542,-0.03724226769967918,-0.017866577476835288,-0.06839546616892131,-0.17975423860858614,-0.3378935579146054,0.10365101700494883,-0.1103756430400132,-0.07811216690327781
0.418,-0.0652686922663353,-0.048040560951438015,0.01734545471575336,0.05895485506182265,-0.0425295524994504,-0.01673177195660708,-0.06684101767416867,-0.17950856599383763,-0.34283573689232205,0.10203837107888608,-0.1109506949091251,-0.08183566332168972
0.42,-0.07374562538693953,-0.05151466862977775,0.022421920641487243,0.06488553298291476,-0.049553295557540365,-0.015472944938352677,-0.06619220198536786,-0.17853999187410918,-0.3524658138093248,0.0994170262510495,-0.1160490750761467,-0.08233751063892811
0.422,-0.07818934311946263,-0.0550942184932486,0.023424010098595592,0.06865783887210214,-0.05217942600689894,-0.017031711858589767,-0.06556050960099984,-0.1766962369665012,-0.3615204233570189,0.09640714618898429,-0.12510909626560274,-0.07957263896705441
0.424,-0.07634848334147203,-0.05658678473433913,0.020295340525577715,0.0683405708256842,-0.04906259403967575,-0.02004305191943591,-0.06349172071912437,-0.17396778531203627,-0.36543820250306186,0.09443406432164791,-0.1331188109622685,-0.07618670200931246
0.426,-0.07256140479937398,-0.05618058084038464,0.01708573817832013,0.06624136850565673,-0.044901141633881314,-0.021962099515394764,-0.0605636344481053,-0.17044284112354488,-0.3643152526783498,0.09409359645544013,-0.13530791318341354,-0.07417733067194279
0.428,-0.07245826854221823,-0.056016525663982276,0.017184518112901982,0.06588551718884667,-0.04500705697026606,-0.021847244599976966,-0.05851648067989003,-0.16682531988075955,-0.36143812060026126,0.09577724006118984,-0.13095928418792072,-0.07331578385653627
0.43,-0.07701922472162274,-0.05602954383619433,0.021535936947116245,0.06743316665561745,-0.050599169156860704,-0.019437069861419267,-0.05826347258590486,-0.16473656254320984,-0.35998328236059896,0.09897790333329007,-0.12383534858085346,-0.07288004181806033
0.432,-0.08194098886381336,-0.05405472760546954,0.028049518653570527,0.068132575454756,-0.05773617568302729,-0.01494366282900789,-0.05956010279627895,-0.16490263436038013,-0.3610230913908202,0.10098466639444151,-0.11935312582539684,-0.07274893067153124
0.434,-0.08227045503215887,-0.050010532556658924,0.032125378421529294,0.06641955661630711,-0.060449179891340306,-0.010555293178370498,-0.062131134681220064,-0.16606386537733253,-0.36372847437885697,0.09908505218704637,-0.12037016003509217,-0.07289645827192265
0.436,-0.07799722074353184,-0.047309361325707434,0.03055466095553456,0.0640062264365935,-0.0568478297238998,-0.009622660868019436,-0.06613130690948714,-0.16660175588394,-0.3668818072412912,0.0944178242119103,-0.12448025011298747,-0.07307429192182859
0.438,-0.07334539168451082,-0.04891696862635163,0.02454862089368144,0.06319324734724723,-0.05070998879910324,-0.013350827036603449,-0.07136595178282702,-0.16647589636085508,-0.3703864028734274,0.09112023357550746,-0.12655079456324267,-0.07320362341768545
0.44,-0.06959300626493051,-0.05332446542658433,0.016672108705000636,0.06292328441757826,-0.044889090621697644,-0.01989065356436509,-0.07696296101035639,-0.16744139991776721,-0.3756310967332037,0.09129779736526612,-0.1251799079817566,-0.07388272753300737
0.442,-0.06276029066819087,-0.05669210477352227,0.00653350631048193,0.06008214539931684,-0.03671705713976343,-0.027168649576366118,-0.08216471097263038,-0.17142611539968086,-0.3836903668912761,0.09311466935957605,-0.12444383689891761,-0.07623191691249055
0.444,-0.050904105952322684,-0.05788835497660841,-0.0067493426319940744,0.05451863448118139,-0.023836674801373085,-0.034402099683085594,-0.08684684772988063,-0.17815619367534044,-0.39304269178054124,0.09406504180570785,-0.1281505874581921,-0.08076929917960975
0.446,-0.038971470681694494,-0.05892668153645764,-0.020013904856334835,0.04967823347859312,-0.010475759647133744,-0.04093141611076313,-0.09087229920032343,-0.1848104146591981,-0.40035973988025453,0.09416320509723089,-0.1348777849242409,-0.08669074200426194
0.448,-0.03332564531881227,-0.06147893378208299,-0.02830361328724218,0.048504098911634035,-0.003216255648533898,-0.04582622892050625,-0.09348065769673092,-0.18843764063622173,-0.4035329790918144,0.09496677051045796,-0.13943324610347027,-0.09269182715051952
0.45,-0.034422850085006076,-0.06465579544172992,-0.03028032867315758,0.0505534023427505,-0.0032080220690801765,-0.048434207367991707,-0.09408251427642333,-0.1882480483649172,-0.402968644306135,0.09637865020582628,-0.1378818081717647,-0.09762874935515303
0.452,-0.03642622450485778,-0.06604543664364913,-0.02956305515391547,0.052322704158646274,-0.005240603064619922,-0.04913460713555377,-0.09333845392791934,-0.1859357771499862,-0.4007616665587562,0.09628181398383284,-0.1314627994005493,-0.10021409585965498
0.454,-0.03349117068925355,-0.06465653907696474,-0.031090860121373225,0.05044663586517041,-0.003483129826844582,-0.04973842297078492,-0.09252250582812004,-0.18383362327097136,-0.3989086562732687,0.09380531856204928,-0.1250700625863845,-0.09955540166986523
0.456,-0.026384078748238657,-0.061793119439847846,-0.03526093380524561,0.04554886617702717,0.0022074126252352535,-0.051065905359066965,-0.0917728624356735,-0.1817477373294972,-0.39687886627534275,0.09167540040681396,-0.12039414835723021,-0.09569913505689084
0.458,-0.02118256585299977,-0.058123430666741076,-0.0365131261302313,0.04112765822425102,0.006166371553019179,-0.05028593209361567,-0.08963896462778534,-0.176410590135201,-0.3915412867647097,0.09454561197890823,-0.11361306888671621,-0.08891199046301647
0.46,-0.021217446153142916,-0.05128756063435421,-0.02933208371040491,0.03792207589326733,0.0033462923365228793,-0.043056173542149336,-0.08453032639149614,-0.1654076922581555,-0.3813096135399157,0.10455117610684551,-0.10269066869371893,-0.07989898419861945
0.462,-0.024424881029482183,-0.03850138599782559,-0.013387191376527876,0.03321485164315641,-0.006441386717508461,-0.027931093723213257,-0.07601417725553127,-0.1497534827173838,-0.36827576313493193,0.11957862835834691,-0.09124291811016519,-0.07044828717123866
0.464,-0.030138067028300127,-0.022690900756805344,0.007688906042638361,0.027880865591640856,-0.021088469319714337,-0.00876643938532185,-0.06493676136995816,-0.13103576547318757,-0.3531624079098692,0.1383553310029644,-0.08074893880129817,-0.06200828597924383
0.466,-0.041931348918157835,-0.013240009716655583,0.028519445696942484,0.028601058377013096,-0.03851200729397272,0.006416092917484094,-0.0542078728278224,-0.10989557592362979,-0.3321357603164186,0.1638009847439266,-0.06623502712252718,-0.05431051115748311
0.468,-0.05903736292786875,-0.0151253239002287,0.04369634623672809,0.0377100792561957,-0.05471208809867458,0.012346491393345378,-0.0487159040123656,-0.08979347096827033,-0.3033092894503181,0.19657306919274506,-0.04441033199029003,-0.04565917679849036
0.47,-0.07156802776996711,-0.018504625625778585,0.05302141716586528,0.04544157685795316,-0.06489114641780269,0.014540151990664047,-0.05025246571404279,-0.07719163129338898,-0.271482506542984,0.23114987950708002,-0.017373535619563805,-0.0326879859395448
0.472,-0.07029210281242557,-0.0057839587521050125,0.06448160856634869,0.038512852663947834,-0.06916288441597963,0.026460121392729002,-0.053688285995121904,-0.07481889966510717,-0.24212249875046435,0.26385896613885035,0.015355799543433312,-0.010656678054197139
0.474,-0.05747728845511471,0.028295403582160223,0.08550653363816917,0.015381133349836163,-0.07277290075901584,0.05443993080873951,-0.053097267176364746,-0.07631762633230067,-0.2140898559472207,0.29995036064752945,0.05866415798679374,0.022589776482027882
0.476,-0.04229855393319882,0.06747483199771136,0.1093014590307796,-0.01162534333547698,-0.07693334265667373,0.08666641190817936,-0.04904559506178291,-0.06556087544162897,-0.1785048811543465,0.3507608131094425,0.11367159692060985,0.06271173915496062
0.478,-0.024570331519787998,0.09053422748125443,0.11464940545767453,-0.032174653160300756,-0.07089062633959761,0.10174325193423948,-0.045187952840282944,-0.021135955529757333,-0.12208906693871997,0.42696940056733146,0.17709126316417628,0.10230978443975808
0.48,0.00972589876154141,0.09403315103690982,0.08386697461265451,-0.05127097645939925,-0.03870736582731506,0.08869153178778749,-0.0408124707806758,0.07234316819544215,-0.034432056234574265,0.532604657055681,0.24936649866181526,0.1398475457870475
0.482,0.07048498587702161,0.09151870108006264,0.02045131332391263,-0.08048206613230074,0.023140107832625666,0.05559496173972975,-0.03059155126703866,0.2146333999512751,0.0857370301521746,0.6635871004624023,0.33543412739976536,0.18240137473594192
0.484,0.14905672631113848,0.0959246594272011,-0.05371070096525346,-0.12201733759547019,0.09976896473548182,0.020261763469519526,-0.010790622487626893,0.3892308981659011,0.23151625082333913,0.8124853992192521,0.4366322405762948,0.23689960206820057
0.486,0.23160859718442878,0.11341883750090022,-0.11836143310988424,-0.1719694515126706,0.17406063383892795,-0.0032673374510282026,0.01444385023712058,0.5656905683052397,0.38924210329005376,0.9704795138261834,0.5475197367918709,0.30209741396238937
0.488,0.31983099687949085,0.15152658084470347,-0.16798156813524687,-0.2350224305258971,0.24363745876274592,-0.008495770898174358,0.03265774855814028,0.7058157277357722,0.5373078526543698,1.1251730322433309,0.6634507880958951,0.3755630663178872
0.49,0.4246639547331567,0.21923328453051838,-0.20499945397944827,-0.3213708739402792,0.314759107477538,0.006957746574090531,0.030091976449333823,0.7793174915868497,0.6525557573282834,1.2639866828302135,0.7868310239108476,0.46397514459298084
0.492,0.5414916029586351,0.31023230020541276,-0.23106962511169488,-0.42528569144075634,0.38585524588349096,0.03854631117244747,-0.0022120354506571568,0.7769049774052936,0.7189709998745115,1.3759844733510804,0.9150977470305295,0.5717322611149707
0.494,0.6463889784600287,0.39487953062372844,-0.25156131322958053,-0.5195092067559987,0.44816863409222957,0.06938740136713331,-0.06708432058717068,0.7108936969949949,0.7282576323165666,1.4455628293616722,1.0233181124349071,0.6801010328475422
0.496,0.7224271790917666,0.44572561760249635,-0.27683054227765524,-0.5822756870187502,0.49902045600179407,0.08188204987207216,-0.1571920516143021,0.6097397359665914,0.6832883930748436,1.4583384929857885,1.0788483391947645,0.7575041371175634
0.498,0.7791902101810974,0.46925015741261655,-0.3099657081446972,-0.6225858878107149,0.5444839341637226,0.07816261172586215,-0.2547092391307314,0.5019991197419632,0.6014938138142253,1.4200252760622227,1.078001503091348,0.7941508418192217
0.5,0.8363479478671767,0.4938858627185774,-0.3422883249009409,-0.6642797564181351,0.5892895769812492,0.07562508099443477,-0.34751243739020987,0.38861029599164204,0.49692551660034306,1.3507906296424663,1.0458008888186898,0.807552968200658
0.502,0.8952982294555909,0.5270461490373617,-0.36801005768763184,-0.7104293067935075,0.6310298514118147,0.07944513751747588,-0.443234667777281,0.23897959108706907,0.35900353619257275,1.2532293442563152,0.9947000084325526,0.8112946007951587
0.504,0.9418448995298508,0.5436287293197195,-0.3981211340951595,-0.7411694923527735,0.6684745161274126,0.07159564545504087,-0.5566331364871994,0.029069332538844406,0.16425825537077715,1.1037307452025436,0.905265701964444,0.7956943603179268
0.506,0.9703829980516817,0.5163264406413449,-0.4541300770173432,-0.7413954941363627,0.7099994792393881,0.028845946026533353,-0.6877299520895502,-0.22563374820665263,-0.09265945963740828,0.8833667177461619,0.753518862931621,0.7410946744333498
0.508,0.9833101825792093,0.4392520221922186,-0.5441492497252325,-0.709995440721169,0.7611890051239275,-0.05488183643513378,-0.818746286837527,-0.4838250454205714,-0.38687079690350906,0.6059897283808642,0.5440952991963135,0.6397367639864519
0.51,0.9706986305596991,0.32665930156322115,-0.6440457137995154,-0.6481405497934788,0.8052586004712441,-0.1603369475199048,-0.9237831435277223,-0.7152982645287373,-0.6779567637351496,0.3093737271139488,0.3112231091850007,0.5048891649943837
0.512,0.9156252345007259,0.20749953477073713,-0.708057587261546,-0.560924926091914,0.8107648378869793,-0.25094045492385464,-0.9781486530822572,-0.9175746557928541,-0.9348021295252879,0.02619156832572673,0.09211239501490406,0.36347513572609064
0.514,0.8178920401663418,0.11576436574980054,-0.7019925349642644,-0.46542960017828894,0.7598081619389908,-0.2935918272131224,-0.9710056352750815,-1.0956103913729467,-1.1431796537222851,-0.22248616119580217,-0.09147306803586357,0.24176042203647516
0.516,0.6949285996662433,0.06936379676680697,-0.6253814488235898,-0.38000730122856846,0.6601387337191886,-0.27916878166918085,-0.9135064669540968,-1.2235169535038017,-1.2821194779915006,-0.4045987184410234,-0.22284349806420287,0.15741590580503662
0.518,0.5669210933189374,0.06075341961489994,-0.5060926162984462,-0.31157448348648953,0.5360169027026724,-0.2244786741006068,-0.826629232750158,-1.2419153544199333,-1.31056875166024,-0.47429921224351523,-0.2803943060983425,0.11690593864294599
0.52,0.452388370470153,0.0723686124551862,-0.38018949095171045,-0.2606703148374901,0.41559183722584225,-0.1557240737385444,-0.7244171246698763,-1.120895435954599,-1.211051501111076,-0.41776974235066877,-0.259238367152772,0.11125470761569535
0.522,0.36420738254243973,0.09104708025988119,-0.27340987328055266,-0.22642750698623615,0.3183321181642696,-0.0927170987510638,-0.6168998030134882,-0.9198505471691459,-1.0403302586094905,-0.29209419471456793,-0.19647023213702783,0.11652332851155361
0.524,0.2994024435742572,0.10652923653957382,-0.19283398450494568,-0.20170899439395193,0.24559007444852518,-0.044780125075278246,-0.5182820323054554,-0.7485906220475044,-0.8960357448357915,-0.18839419622410375,-0.1510813085846764,0.1078561574272518
0.526,0.24390075219806912,0.11049088349115896,-0.1328489991696351,-0.17587051293458844,0.18710523720183692,-0.013291944625687493,-0.4391494031423807,-0.6629337365740602,-0.825219712214749,-0.15052758751924003,-0.1508173926579307,0.07813511108937346
0.528,0.19077725178731197,0.10108665285228983,-0.08870437615794816,-0.14499149322986815,0.13760853805044584,0.0037026946882550145,-0.37788119474476467,-0.6271096041246192,-0.794744256952257,-0.14887000205785497,-0.17221400391783284,0.04052045513210139
0.53,0.14344377656631477,0.08124805594631988,-0.061158757349217,-0.11162540314703832,0.10000528899951198,0.0075372489527581335,-0.32773929274061736,-0.5808578706514191,-0.7535324417290705,-0.1350472605968783,-0.17828090522373866,0.010895837821080527
0.532,0.10362218312554147,0.05530169622337022,-0.04758891672612146,-0.07829474488384155,0.07387463922927127,0.0015219743502085305,-0.28507984706325223,-0.5091824499361183,-0.6913397119481928,-0.09783467012114161,-0.16063767374726956,-0.00789772700396733
0.534,0.06823462197778875,0.031027387122603806,-0.0368260853439536,-0.04792126405096088,0.05149456583319087,-0.004862817966250751,-0.24688742809025793,-0.43551428348719823,-0.6285317161293111,-0.05719696835402921,-0.13756075584576177,-0.023459881287942994
0.536,0.03483016700771729,0.015205566413100212,-0.019444764671318247,-0.02328287786015099,0.026359332890381473,-0.003264696538371357,-0.20897826214040807,-0.37801183971114405,-0.5786882856578521,-0.028066658612873493,-0.12593342469497307,-0.042658511223906945
0.538,0.002312390671082927,0.004689594504145078,0.0023617009588196335,-0.001956122040435954,-0.0012733055760407097,0.003394988673894463,-0.17069617896217154,-0.3348617610221859,-0.5406087588884948,-0.008571600999812457,-0.12640922257380224,-0.06529186590289969
0.54,-0.026831281915670656,-0.0061963230113454126,0.02030276954220828,0.018146847970300858,-0.02574315236452391,0.007281929304029901,-0.1363224919634614,-0.298828627383569,-0.5123541942747825,0.007788500794562141,-0.1283970427582123,-0.08410143208220026
0.542,-0.04326119518864264,-0.012253073753231002,0.030402160820828243,0.029605712369025164,-0.039566456173475685,0.008650141832975577,-0.11108178484195792,-0.26927386685820837,-0.49644562403442133,0.022808135395408612,-0.12173323943679418,-0.09153885711199834
0.544,-0.04226976047028257,-0.006555236939566833,0.03509017551438971,0.02626257874417743,-0.04097936236299943,0.01292435032946044,-0.09904819147073067,-0.2518485851787897,-0.4945897767243153,0.03270134729007402,-0.10696641708667422,-0.08917802049663513
0.546,-0.03656097825506528,0.002422417307810952,0.03861433324147895,0.01866770188193826,-0.038712531660559976,0.01899619053849709,-0.10168367857989286,-0.2517356843540852,-0.503641786503919,0.03153642758134459,-0.09630874099023301,-0.08698968810842829
0.548,-0.04338378719875156,-0.00035561625266395227,0.043075181395228694,0.02314741622557495,-0.04341001798531284,0.020549242526111792,-0.11358653673398957,-0.2652144856106304,-0.515036581178785,0.019231729410662163,-0.10035975392278926,-0.09154875511684236
0.55,-0.06324074386987293,-0.015226784588980379,0.048439545883387614,0.040494958493457356,-0.05600315994662107,0.016480880888685708,-0.12275542501045232,-0.2782849051821226,-0.5187305501553379,0.0058619768189865345,-0.11518534178680834,-0.09982623428411168
0.552,-0.08278607374299804,-0.02956318493429428,0.05373583517204036,0.05779047405605954,-0.06899308230058476,0.011551513958536508,-0.11972481475109224,-0.2782813714821423,-0.5113753370958636,0.0019742990399407214,-0.12768503139048684,-0.10578558627526828
0.554,-0.09276765910653471,-0.03593106749084143,0.057089408317599996,0.0660702801662436,-0.07599929044918945,0.008655095053872576,-0.10572700627100885,-0.2655051217730131,-0.49896957027927985,0.006343570364415543,-0.13053837819442668,-0.10765883017109854
0.556,-0.09498111661835659,-0.03796756975625486,0.056940106061905506,0.0676726932496932,-0.0769615955136419,0.006512191641849033,-0.09000457087011113,-0.24881308949418268,-0.48846688049455733,0.010185168488289936,-0.12655402873873756,-0.10768405760565314
0.558,-0.09714069758332136,-0.04194623160915279,0.05502729737717074,0.07016110935527102,-0.07717189600119032,0.003921796962589683,-0.07983574599199615,-0.2336328170679452,-0.4804059930328746,0.010328875959761005,-0.12208903225672484,-0.10927091321917054
0.56,-0.10582167162451446,-0.04961242546601611,0.056139561277330594,0.07829433559905884,-0.08254177688583274,0.0021811850179407504,-0.07491588310130315,-0.2208398606003315,-0.4733824189494504,0.01067357810503349,-0.12123020232104803,-0.11480385710657398
0.562,-0.1209917981531532,-0.058578031283167714,0.0623475026882013,0.09057964475849119,-0.09340071877306305,0.00231760243699515,-0.07135974030591695,-0.21281132642058828,-0.47045346703820995,0.013473476698168544,-0.12496905746728551,-0.12307650336292128
0.564,-0.13599659044311938,-0.06593619297241525,0.06976805732894917,0.10178377198495543,-0.10407985619528853,0.0028033947741755924,-0.06800463769850443,-0.21276687590678275,-0.475392356704516,0.016232476980915102,-0.13295640883572427,-0.12976182691171304
0.566,-0.1434028750747566,-0.06954276127801856,0.07332027300714988,0.10738517045398223,-0.10918294287103031,0.002192042456447986,-0.06644652546531994,-0.22008229258849538,-0.4860020218791569,0.016275084865585314,-0.14388700616355146,-0.13211917401095277
0.568,-0.13958238389349786,-0.06759991104641935,0.07151805468963623,0.10487637240550805,-0.10697333527156155,0.0013335949752765347,-0.06712737956124082,-0.23030961608451006,-0.49581193248155303,0.013358899088124368,-0.15396303657146176,-0.1311886197693856
0.57,-0.12645147081124378,-0.060683307837540945,0.06583961549056597,0.09493613441677379,-0.09861536485314672,0.0011263309152425309,-0.06846894060338791,-0.2388206742808371,-0.5008106648061482,0.007911663806494612,-0.15832047366389623,-0.12915314962649577
0.572,-0.11199435290718658,-0.05347484275162486,0.0593041601057167,0.08370556264638693,-0.08861194088745307,0.0010306485176573414,-0.0696265765282546,-0.2433665351769184,-0.5021131228156325,0.0008473623966406985,-0.15593741105665984,-0.12732727554208106
0.574,-0.10557633340749037,-0.050613140067039916,0.056070582648615266,0.0789894574743968,-0.0835975226952856,0.0012090736980871321,-0.07194347800913593,-0.24379186237620484,-0.502840268400981,-0.00465128615045534,-0.1511263680770924,-0.1264156691779094
0.576,-0.10997313741870848,-0.05110327577860348,0.059621055527558524,0.08202228356590872,-0.08724957737020116,0.0036804873550203548,-0.07604715765714098,-0.2404819828396045,-0.5036874256264403,-0.005079296993654414,-0.14873503238998814,-0.12663914542826601
0.578,-0.11989699095190165,-0.05025077724271209,0.06972957213097176,0.08699930024364778,-0.0970488805472097,0.009757711598808394,-0.07868859030923508,-0.2345506222255636,-0.5023362762930622,-0.0008767464041556293,-0.14911422153609402,-0.12780595092537514
0.58,-0.1287608784178178,-0.0469057768481331,0.08156905390841672,0.08947081719861265,-0.10694537430457791,0.017255640753113394,-0.0757947478513082,-0.2291614275123728,-0.49784934939097225,0.0037065271228444007,-0.14950397253883344,-0.12977252030640407
0.582,-0.1348844770900639,-0.04517351572467785,0.08952389779295725,0.09112983455612984,-0.11306816793031016,0.02174343751464664,-0.06839909861812563,-0.2282429990980519,-0.4941276408218751,0.004386510267598266,-0.14965128559229554,-0.13238652297428774
0.584,-0.14060532612611001,-0.04872147320118406,0.09193927535815406,0.09561999914317439,-0.11638508365159678,0.020719380734021752,-0.0623266337309411,-0.2327516855613371,-0.4961966956190028,-0.0007374839957001426,-0.15251747372453203,-0.13521788574441745
0.586,-0.1473667498862902,-0.05624453033906398,0.09126961827459923,0.10303294939629364,-0.11975697110817624,0.016053283732348232,-0.062070365809034675,-0.23948069094978222,-0.5035549616962083,-0.010744304057968378,-0.1584608814079516,-0.13793758985533558
0.588,-0.15282412285383037,-0.062418039291230056,0.090567508079938,0.10926075051503806,-0.12319959041980483,0.012324798567319403,-0.0667613827432704,-0.24464005586684962,-0.5107978069650719,-0.02305379572681386,-0.16329886541104757,-0.14096819038775865
0.59,-0.1524783187501277,-0.062371199985904735,0.0903810120944347,0.10942718893985888,-0.12325244121567838,0.01238502471836161,-0.07196333115561934,-0.24736738456658477,-0.5152220395652575,-0.03577822395052909,-0.16425083904642826,-0.14531246403017278
0.592,-0.1455334499714887,-0.05669944342419741,0.08923669372928783,0.10312349750645888,-0.11832216334544848,0.014766053421645912,-0.07430776287228875,-0.24876396557659014,-0.5193771243899981,-0.047954328541655156,-0.16366337166653475,-0.15102714881926066
0.594,-0.13847399357420906,-0.05184585472330651,0.08702418832875732,0.0965180323419687,-0.11286960067466037,0.01612013199106868,-0.07387286274787634,-0.24943834952122385,-0.5247863882714194,-0.05749209852625015,-0.16504369606451652,-0.15607020730652024
0.596,-0.13829740823022577,-0.05341531098863771,0.08518911049446828,0.09637172735667354,-0.11219350083661368,0.01486257280629595,-0.07264667036921531,-0.24918905820356368,-0.5280222579365849,-0.06154487125979904,-0.16851827682098652,-0.1580309365118435
0.598,-0.1429854057665092,-0.05998518013329803,0.08313175150985268,0.10194388082322788,-0.11452656039881969,0.011420865082978552,-0.07158416597893384,-0.24737450815572015,-0.5251853171950036,-0.05934919495599536,-0.17152601585385477,-0.157030224567
0.6,-0.14450085437596538,-0.06565954078647031,0.07854192593716541,0.10627578624195096,-0.11351247452947882,0.006880733485231962,-0.06962809984233671,-0.2432229284448107,-0.517077166538174,-0.052861558163012995,-0.17226371448650224,-0.15549682719761748
0.602,-0.14018016125583366,-0.06694382081121879,0.07236583482575157,0.10517595481655882,-0.10778814900031586,0.003065095966960538,-0.06559400934902088,-0.23745287538388,-0.5083779117369517,-0.04475246743787713,-0.1713535689805168,-0.15533147509182219
0.604,-0.1354085825378817,-0.06494857955247216,0.06936648779718,0.10139791094116236,-0.10306324620450774,0.0022230822665695133,-0.06017338918354216,-0.2330604904333713,-0.5034334881572943,-0.03739132726203923,-0.17083688627300417,-0.15666254674952354
0.606,-0.1359863309832387,-0.06365038731002132,0.07162834968595369,0.10056685596078735,-0.10420112979915391,0.0039429964655529805,-0.05547671902531836,-0.23283694130192895,-0.5040331653811668,-0.03395356212453947,-0.1727397026679737,-0.15877298387157004
0.608,-0.1425986569606645,-0.06743496118522724,0.07509820384132052,0.10587446881237472,-0.10960620572341122,0.003913628533250729,-0.05301954802152639,-0.2368611329990245,-0.5093828290828696,-0.03738260998350254,-0.1777895453008257,-0.16074847056247496
0.61,-0.15203186863324147,-0.07640523072932123,0.07590016718561814,0.11556131263338762,-0.11503661320676356,-0.0003752946314221628,-0.05231966565683932,-0.24334224817993827,-0.5159972471181838,-0.045713579386105055,-0.1838936337177797,-0.16170358819464792
0.612,-0.16041893523439665,-0.0844961426931162,0.07609445794183281,0.12421416702135502,-0.11920523730115203,-0.004954535840948868,-0.051778234915607735,-0.2507315925176152,-0.5194142552530779,-0.05206593446589068,-0.18752788047197377,-0.16160581125766244
0.614,-0.16564093868886617,-0.08694019693794795,0.07864455049953986,0.1281274896793723,-0.1228947139494202,-0.005282439409228655,-0.05143803005109128,-0.25786028002486583,-0.5179551023745281,-0.05227483169421496,-0.18830216460324084,-0.16167144950909085
0.616,-0.1686061573077616,-0.08711026342337459,0.0813564015430613,0.12922306559457314,-0.12573564739177973,-0.0036580415734876553,-0.0532254045498052,-0.2623751609901545,-0.5135118286732273,-0.04909324388427602,-0.1895382666849397,-0.16321120788621468
0.618,-0.17210930285134668,-0.0912376564454281,0.0806924649885198,0.13219632177068197,-0.12721636603242492,-0.00566368468911577,-0.05724306191830699,-0.2611837172917873,-0.5085671549191354,-0.04721200720117017,-0.19297859537229353,-0.1662979181792325
0.62,-0.1773532319375421,-0.09925582945614915,0.07771182839892107,0.13846985662392117,-0.12846770649399386,-0.011739914902318672,-0.060369274602113936,-0.2543277882285896,-0.5039717777422523,-0.04726696836298485,-0.196006152102041,-0.16986139194061603
0.622,-0.18262042389257474,-0.10455780014126093,0.07748239547926189,0.14447430429387972,-0.13127483775008636,-0.015600106659493313,-0.05982050943295396,-0.24612590946206458,-0.499561963472902,-0.046107397006348104,-0.195106013189719,-0.172050060691081
0.624,-0.18663833118649753,-0.10182157234704851,0.08445648391533257,0.1462078319690977,-0.13706912243044042,-0.010825441899489587,-0.05582989243212599,-0.24013131781042074,-0.4958677375584638,-0.04113987929022191,-0.1898384498760471,-0.17066148830422545
0.626,-0.1910869590698023,-0.0936193614353877,0.09763480130159402,0.14439353218979273,-0.14599011785973245,0.0010169661553328017,-0.05047114545401615,-0.23590712160912958,-0.493710612701384,-0.03309334812452711,-0.18325443867619973,-0.16547039067459854
0.628,-0.1974369287915205,-0.0878700253515696,0.10998693409549272,0.14345120370296968,-0.1553650763695581,0.010817279130411852,-0.04593025412598708,-0.23220075666774834,-0.4918498833245328,-0.025336737110059796,-0.17936447267841915,-0.15955922126626582
0.63,-0.20225217730260853,-0.08821969003525328,0.11422642541946042,0.1449329327882799,-0.1599616606408152,0.012024035605380588,-0.044132044349308626,-0.22942582343833173,-0.48827618700847963,-0.021546387848034376,-0.17993273399235582,-0.15629532651583944
0.632,-0.19819515533540047,-0.09004174375781472,0.10803357152976759,0.14418090260669522,-0.15477260154274497,0.006682914676312231,-0.04624639213863675,-0.2280363275335696,-0.4844491073457967,-0.02323454133281371,-0.18376055989403844,-0.15646082302274777
0.634,-0.18144213839089124,-0.08730406389637699,0.09397076316658128,0.1357109689663239,-0.13901535195717046,0.00046506138939143664,-0.0515977581187484,-0.22768147971094171,-0.4834183140496132,-0.02840543059907111,-0.18878122577848755,-0.1592867148445297
0.636,-0.1574532975743877,-0.08011333964378371,0.07732192836366471,0.12083428381253476,-0.11816579763310206,-0.003802065069557421,-0.05743530267714135,-0.22777986308938958,-0.48383449334715517,-0.03305043470792196,-0.19343045553871713,-0.16355124004697838
0.638,-0.13877584722151387,-0.07475878642282931,0.06409910295847712,0.10860520180466164,-0.10167164011660919,-0.007000507831379105,-0.059818984963910644,-0.22652618037694405,-0.48087708932414874,-0.03412631022036098,-0.1955909887340549,-0.1663486616373038
0.64,-0.1365818538480677,-0.0780593744598153,0.058549800535889145,0.10885838510098382,-0.09743433659261702,-0.01119209373285284,-0.05555258799501609,-0.2210126650628012,-0.4724986025582921,-0.03056544832186881,-0.19251885724065143,-0.16390440444363416
0.642,-0.15171741333834282,-0.09076430979966327,0.06080071225755067,0.12287215599612626,-0.10614111105150897,-0.016713359081716575,-0.045336555124335515,-0.21093906645846652,-0.46121231440330507,-0.022421210449471735,-0.18406171306182548,-0.1563773678412651
0.644,-0.17383632996173348,-0.10655683902103258,0.06691515032610304,0.14173597157209236,-0.12077925291779905,-0.02175520278375523,-0.03447012193308202,-0.200398421490396,-0.45057835857897627,-0.010910807222788473,-0.17479476326447943,-0.14956633930584876
0.646,-0.1897256208834714,-0.11811625379361941,0.07118061553377024,0.15465693507670905,-0.13181897298097595,-0.025290890902529017,-0.028376049671870313,-0.1935766283462985,-0.4425933551314809,0.0006340490316016202,-0.17109896793918755,-0.14919756336450843
0.648,-0.19114856514578907,-0.12170139738366974,0.06923077200210855,0.1562407632526466,-0.13241960962995136,-0.02809100389543366,-0.028191384329018184,-0.19011892932379354,-0.4381305433423701,0.008233790114309204,-0.17537944129793354,-0.1549464805270335
0.65,-0.17779424803567515,-0.11615819954693184,0.06180460893003548,0.14680487515173368,-0.12198586974596028,-0.02935862482697058,-0.03105281441393611,-0.18617211301667141,-0.43693763795953805,0.011329942579368068,-0.18293478462126864,-0.1613418458084585
0.652,-0.15654779906494526,-0.10216029338281325,0.054856859677645885,0.13019828801296682,-0.10683573932443759,-0.025874419672798358,-0.03268079306078169,-0.17828106326596568,-0.43599401016127665,0.013872317413895302,-0.1860468110969034,-0.1633425484373882
0.654,-0.13777798607236255,-0.08515853042132217,0.05311905733685646,0.11330764060161587,-0.09562200028089127,-0.01756453867941061,-0.03033650778794068,-0.16553546489548243,-0.43033315668190364,0.020081098972900564,-0.1812803547391504,-0.15975734549636295
0.656,-0.13044779286590688,-0.07578869264935871,0.055019976687113094,0.1052338348414584,-0.09315923560633187,-0.010991495193544507,-0.025414374187990446,-0.15022961335420312,-0.4180504343300901,0.03034740994457382,-0.17101838038015016,-0.15237430201327556
0.658,-0.13644144950480927,-0.0809946666036517,0.05582702355109873,0.11079151939162683,-0.09753680144967546,-0.012907131239608545,-0.0220592840223959,-0.13714507685209767,-0.40349967334618264,0.04191967305041264,-0.1596408816441755,-0.14432993049369675
0.66,-0.14745096245218442,-0.09532974775389852,0.05272597628963183,0.12364444060559515,-0.10172394961941357,-0.022357899603595008,-0.02249237292383794,-0.1296913378778055,-0.39281940271482235,0.05236437365775995,-0.150178471273114,-0.13832830646527797
0.662,-0.15048985862244843,-0.1062485232994188,0.04488519531385898,0.13076205143737543,-0.09863942925584061,-0.0328664332045034,-0.02566067761294341,-0.12602811784845536,-0.38641555708699693,0.06160204125053771,-0.14272101841501741,-0.1341973158438866
0.664,-0.13929725022985429,-0.10623740330159942,0.033349368804597816,0.1247342178266209,-0.08697685798755159,-0.03901437440675267,-0.02955978801161573,-0.12093650461193531,-0.3788367394052498,0.07128206638630229,-0.13502647419785646,-0.12960708365869486
0.666,-0.12017000905224005,-0.09660796987511054,0.023415739100213287,0.10953853191016354,-0.07301076979586772,-0.038202748941586845,-0.03189806046077444,-0.11163657080418192,-0.36653348477253395,0.08267456108032516,-0.12531155643498335,-0.12354066208656814
0.668,-0.10467194797979247,-0.0833201829799341,0.02100177780677034,0.09457972054671183,-0.0643262012601171,-0.031243714794617888,-0.030665449808161712,-0.1001155885686524,-0.3521132457002686,0.09499731431819776,-0.11372779145024228,-0.11675769231000671
0.67,-0.09747876497323557,-0.07295379926770638,0.024150288982162305,0.08584939028722362,-0.06152434505171318,-0.023967724645325757,-0.027455341592428125,-0.09003339868026457,-0.3401120578710437,0.10600572808578757,-0.1011874072549483,-0.10955407993359666
0.672,-0.09443600887344074,-0.06969224863604916,0.02441456415961721,0.08329345629578258,-0.05935715506967829,-0.023135708500294637,-0.02709535209074918,-0.08298500653902978,-0.3322039485597351,0.11387623914130746,-0.08879277190509619,-0.10180649897384778
0.674,-0.09028686498849488,-0.072400654162938,0.017701330658912388,0.08316631142060785,-0.054505837040037,-0.029066384538885912,-0.03147822638505505,-0.07768876278617182,-0.32731257435429983,0.11791493129869851,-0.07861870172189522,-0.09491163869901516
0.676,-0.08407255143111662,-0.07626730185484988,0.007814229499877624,0.08178396098643932,-0.04805147540885138,-0.03643800459347636,-0.03792262180482164,-0.07211733640256546,-0.3236432789439375,0.11886484440227005,-0.07243421185980319,-0.0911521059825482
0.678,-0.07869709032175407,-0.07773069741684058,0.0010438682110685323,0.07882444913963596,-0.04307210813412865,-0.0405288140056366,-0.044266898015619754,-0.06654288918864226,-0.31941921706724563,0.11979818945906168,-0.06844507805114339,-0.09026981908569431
0.68,-0.07799679481504451,-0.07549262143121391,0.002401073801087676,0.0767330498457634,-0.043334894042397515,-0.03858565595853192,-0.05043703850961796,-0.06334453281851656,-0.31329666480294066,0.12444165165246257,-0.0618096172082652,-0.0882160875577431
0.682,-0.08232285668981346,-0.06909116120103163,0.012745878819917681,0.07636947593239894,-0.050193908665425245,-0.02982049412582665,-0.0556277701740366,-0.06312294206980233,-0.3059169516304672,0.13261235515636002,-0.05073763020549696,-0.08123226984648459
0.684,-0.0854177925323257,-0.058569310310407796,0.026080197912919167,0.07387550865732352,-0.058287543240234316,-0.017322269598434803,-0.05849224329591879,-0.06352575848297823,-0.2998184430101054,0.1399300205312184,-0.039727125663948835,-0.07066798772875285
0.686,-0.07803918850420226,-0.04390836786009047,0.0335791822479096,0.06307218257822567,-0.05830024696453948,-0.0059487408095317655,-0.05930533468406971,-0.06302088442091888,-0.29642614836755543,0.1441751870832624,-0.03345582874057643,-0.06116636948411162
0.688,-0.05750841221114853,-0.026202393988485104,0.031423061765002126,0.04306743023016728,-0.04643556488540536,0.0018932502865517996,-0.05980494549190902,-0.06277706986676676,-0.2944130727924236,0.14903869669799097,-0.029806770602525103,-0.05445651269113053
0.69,-0.03266594427946717,-0.010330677470555312,0.02294127433663107,0.022289637842699273,-0.029201873501090672,0.005930686688054008,-0.06185974954548982,-0.06361153582963455,-0.291276168812683,0.15912739682080224,-0.02318724950730109,-0.0482849969322897
0.692,-0.015492091033276704,-0.002563243644666295,0.013388481548773326,0.01072793258064126,-0.01604695987280782,0.005594966407313502,-0.06674298052102486,-0.0641436438610076,-0.2858098699032098,0.17292930830910097,-0.012642013044040418,-0.04091955822930046
0.694,-0.00857753740283136,-0.0026674110814707405,0.005892684258012835,0.008516590681964776,-0.00966956173653414,0.0020099527002526785,-0.07451510382689883,-0.0629222362810801,-0.2791698707680066,0.18341499833395597,-0.0016084366538997095,-0.03288330910694334
0.696,-0.005605414055141795,-0.0014857868407920556,0.0038477976559518298,0.006647370843044104,-0.0076761262590388955,0.0012881504239435717,-0.083189321629519,-0.06000860417078475,-0.273413932894675,0.1861241939010471,0.008193041442093301,-0.024797680566733583
0.698,-0.0022561367149529,0.008324447333741073,0.01033156623187141,-0.0005792409071951352,-0.008973240983560586,0.008931274770136922,-0.08934158536034069,-0.056462704786485705,-0.2695707656209613,0.18396681167642742,0.017067001497686404,-0.017046382748385876
0.7,-0.0005668886191555949,0.02151220911001926,0.02182805123542576,-0.008534769866267954,-0.013168938342603666,0.02082122114788617,-0.09130416905548334,-0.053748854878937345,-0.2674437009263333,0.18246956505107548,0.0238187042326447,-0.01097828555202532
0.702,-0.003806934103363445,0.0264956330879738,0.029958467640884966,-0.009284323193663622,-0.018265757100709844,0.02707417108753245,-0.09110531581824818,-0.05310527828943956,-0.265897758458058,0.18368028982056744,0.0270315906760525,-0.007623461557791365
0.704,-0.011113340352858166,0.02011455106640996,0.030847738192742457,-0.002032406421983563,-0.022046681083670288,0.024078743695913094,-0.09179280699077431,-0.05493176349159827,-0.2634419084568022,0.1864995019807409,0.028608463506932583,-0.005517773203725739
0.706,-0.016488872163583714,0.010819927525002083,0.026955616971304486,0.005306825013172617,-0.02270176963656148,0.017150300112593275,-0.0943716859134702,-0.058645602305411375,-0.2600936304052635,0.18943561781895202,0.03280271922023401,-0.0016258814243110089
0.708,-0.014733735127165071,0.008094752877686056,0.022523461277181567,0.005221569233769973,-0.019953965459560838,0.013389687115304246,-0.09779461636755048,-0.062206723862113976,-0.2571365239703792,0.19207987779952373,0.04189227314976108,0.005781661715507297
0.71,-0.01010337334920335,0.01268730455625602,0.02261292509173065,0.00012761194712774206,-0.018405633428841023,0.01616105294382831,-0.09940449663324546,-0.06251642255465044,-0.253413588152927,0.19625216717685484,0.054112671798503285,0.01638123040455362
0.712,-0.011096354136892844,0.019234770893342145,0.03033302021463318,-0.0025682035672430744,-0.02311009052654735,0.024229715593499304,-0.0966004707343882,-0.05899850589554049,-0.24610211627182557,0.20410765373618645,0.06536514455671327,0.028487959771477465
0.714,-0.01440337729299778,0.02496159851978784,0.039479017475254834,-0.0036416408237872205,-0.028819673735510937,0.03238463307083576,-0.09109744784471588,-0.056543298989738464,-0.2374473394998559,0.21344808784706648,0.07200290737769233,0.03858107127080345
0.716,-0.00728521767320182,0.03102747038894558,0.03849416256907905,-0.010531834637164764,-0.023984061328767476,0.03496024122364388,-0.08878610628953944,-0.06115509310800991,-0.2345633764681927,0.21843677319858845,0.07298876458685576,0.04279398936402244
0.718,0.011965191448271847,0.037803619760627453,0.02614263276443165,-0.023882169502399492,-0.007917096185293317,0.03175290922244752,-0.09253084561198482,-0.0723532680189885,-0.24033865128703413,0.2161988813452796,0.07045571647300244,0.04122512538421022
0.72,0.029884677041666575,0.04381736556391302,0.014295004552899688,-0.03576451789143933,0.0068049113990941035,0.028479065513346218,-0.09832071197030855,-0.08349769876462772,-0.249775068302534,0.20972412661145634,0.06779289495426653,0.038249634303368946
0.722,0.035411124319419465,0.04843497255454672,0.013120116344868489,-0.040554728796644415,0.010066681071423575,0.030201646993519765,-0.10072414216825337,-0.08973494384666049,-0.2559567205573547,0.2043073679181719,0.06696692006127956,0.037487708776394665
0.724,0.031330961638105434,0.05187899585418883,0.020081536192103063,-0.04016949151103391,0.0046589880608556376,0.03565005076001823,-0.09951245674668806,-0.0927410238394894,-0.25673851000871184,0.20253547956695778,0.0673159134143753,0.038344768858438544
0.726,0.027538231337890972,0.05219473961460739,0.02377252363139866,-0.038528716527374,0.0012075050851806806,0.03769375770610953,-0.09941808458979351,-0.0978975010147724,-0.25597399911772695,0.2016960764550986,0.06597287982948104,0.037358033609052994
0.728,0.02945100692456974,0.046614009513859744,0.016417538470504568,-0.0365413208340098,0.006365971374525106,0.03067786879506287,-0.1045619680343548,-0.10847828945782974,-0.25937408483150304,0.19593078653722398,0.05987012149029383,0.032278909144460355
0.73,0.035234320557518205,0.037853300784751735,0.0024268305952421434,-0.03453647606977048,0.016692423736066508,0.01838582754278477,-0.1138788841244324,-0.12226432889250115,-0.2693330477909847,0.18204858480441588,0.04877960751108828,0.02523886436416011
0.732,0.040862930340667514,0.0331307156879733,-0.007506105657956477,-0.03472721749510236,0.02413193316690116,0.010457773506248672,-0.12234354254474568,-0.13427103140800348,-0.2835300023050976,0.16315555804834064,0.036426740234381194,0.020679080873989272
0.734,0.044085498470055544,0.035405075090762246,-0.008465509918870764,-0.03814265669125068,0.025038015854871167,0.011191714563925793,-0.12598634631739347,-0.14289426005764103,-0.29701609290679276,0.1465805120434343,0.028155946082330314,0.019992464620784627
0.736,0.044087522824525646,0.04145888551563319,-0.0026603397543815584,-0.042395554001281456,0.0211856377319965,0.017664002918479454,-0.12435916570610565,-0.1499398270758377,-0.3050735879218143,0.1383429561544544,0.02709836412275717,0.02071241497792633
0.738,0.04052995531324562,0.04778378770536701,0.0070039259789129085,-0.04430197999420648,0.014759602992148261,0.026377631820622114,-0.11930696980982665,-0.15478135953867134,-0.3062702934922909,0.13857213268771537,0.03137990845452994,0.02061535597799035
0.74,0.03399932981835681,0.053286765489635506,0.01890840757431742,-0.0429854463185068,0.006224280033507307,0.03582987472339659,-0.11330369582137637,-0.15473303384267376,-0.3039833250277121,0.14161411863354853,0.03533953471346815,0.019783450255395147
0.742,0.025688908664683926,0.05677635862943844,0.030704366729149057,-0.03936404059478719,-0.003751730402055584,0.04403348491053935,-0.10873756338397216,-0.1518473019953608,-0.3040934840066639,0.14042203265850906,0.03447780484923399,0.018703210035755678
0.744,0.015830284778054215,0.05555501045447208,0.039516074115405274,-0.03354071158278205,-0.013456610350717029,0.047958417300350636,-0.10769649898096882,-0.1530876035841109,-0.31053566698190976,0.13139827186927172,0.02870879810503479,0.01656853772123615
0.746,0.0039860575687253,0.048714710116597816,0.04475517211555028,-0.024952566202367847,-0.021964064713422927,0.04692196254321753,-0.11076740176826766,-0.16232481737292231,-0.32232236236102585,0.11684855217805754,0.021175872265708107,0.012362518127677698
0.748,-0.008967426650304946,0.03989116487157825,0.04897922977889241,-0.014787071214757442,-0.030126232764270313,0.0444050398746906,-0.11507944131632108,-0.17629397041538655,-0.33464228785896083,0.1027154164697985,0.014917021137647783,0.006570455581809324
0.75,-0.019824656970478804,0.034011108085196695,0.05388650882883587,-0.006226058533914284,-0.037995561375789536,0.043974441538839844,-0.11582686437793649,-0.18921169130531246,-0.34354599049189144,0.09272832656640916,0.01037741344251794,0.0007350490504195136
0.752,-0.023675557053374856,0.032587253642344625,0.05622445198514178,-0.0026970841906609785,-0.041766603102676,0.044598726782819474,-0.11174993605430542,-0.19842605965162918,-0.34931606310680907,0.08576685688904849,0.0055742166201991575,-0.004394057641846638
0.754,-0.017295054932435397,0.033589997484608836,0.050861090657836526,-0.005703367122442237,-0.03662552286898977,0.04240682565180551,-0.10722086256551433,-0.2052112533430667,-0.35489890048546247,0.07898449836688126,-0.0015391498743074854,-0.00970596544855824
0.756,-0.0031035811287118665,0.034486962759532586,0.037742420371998715,-0.013228563468314228,-0.02320533236608628,0.03601114703865418,-0.10679198035410768,-0.21184070151131398,-0.3621396738272663,0.07129839910952931,-0.010608139158777658,-0.01675881023824017
0.758,0.011457332857762252,0.034508092047179834,0.023533734174022287,-0.02091913173764955,-0.008642155472229287,0.028374883687058653,-0.10906066327010952,-0.21799562940317602,-0.3703495205959087,0.06354537912847924,-0.018535921245186236,-0.025747374610165314
0.76,0.01870428249383611,0.03468336044666936,0.016741430868530124,-0.02517079572049319,-0.0012056423811933972,0.024402834988998492,-0.108780037282735,-0.22055352909040388,-0.3776106172616834,0.057153974748196,-0.02219438006826757,-0.03400049060831492
0.762,0.015956269306937127,0.03604180497062881,0.020756360780010797,-0.024952573658706827,-0.003950329242180847,0.026692607462130247,-0.10461145542577079,-0.21822288181554667,-0.38252224650207783,0.053370151002643224,-0.021613788538449627,-0.037326348877447485
0.764,0.007239591350902904,0.03737071321187911,0.03032883149125915,-0.02131769192806401,-0.012556286863275104,0.03230808396041413,-0.10099232876195821,-0.21414367173218624,-0.3850241431240313,0.05244203272634094,-0.019723555891153613,-0.03430548714410279
0.766,-0.001500443323724543,0.035348406047720146,0.03652323832292099,-0.01563992692897364,-0.020007244510976737,0.03496317088551439,-0.10125207237932028,-0.21158800962452504,-0.3859968061622004,0.052772383487800535,-0.01906080615967002,-0.02838438708217062
0.768,-0.008460664954560106,0.02850838796008639,0.03630645802883856,-0.008727064769178243,-0.023543172349978273,0.031924797318412385,-0.1023816972303181,-0.21028143500264004,-0.3862501562564628,0.05206601445930597,-0.019706874915969827,-0.024205634163454344
0.77,-0.015382513236468495,0.02048252721035663,0.035100874358339,-0.001637038913890802,-0.025998141250401733,0.0272283706503252,-0.09912251037041654,-0.20909774791950336,-0.38616467340416866,0.04983167035462441,-0.020364325251175257,-0.023203897798103935
0.772,-0.022690037019372854,0.016764120698688885,0.03889909420232581,0.0038095297993299233,-0.0307660265957153,0.026645332802522896,-0.09098855765315898,-0.20875334865483566,-0.3859867166763159,0.04718982170972631,-0.020418240831366966,-0.02393316059309048
0.774,-0.02836586038784015,0.018754685625249377,0.047078296135341195,0.0062170312434980425,-0.03754739331583284,0.03132293160831994,-0.08223649945100082,-0.2102873664799591,-0.3859125574948606,0.044138908664568245,-0.020571896105293495,-0.02496605434391066
0.776,-0.03114464542876109,0.023509721091745994,0.05512548995769735,0.005868325654975222,-0.04382349090871664,0.03801469521641262,-0.07666386430763703,-0.2136363269451994,-0.38596255499428517,0.039523878474132225,-0.021723101575543077,-0.025832895481846647
0.778,-0.03222073274862185,0.02804833763502526,0.06085685348094155,0.004245125404055987,-0.04830342889494219,0.04349681689341771,-0.07528314202436034,-0.21816849823696222,-0.3861153986095785,0.033766787695852944,-0.023540384059922165,-0.026246574141178376
0.78,-0.03367890584042294,0.030649094907875513,0.06457288578806529,0.003258245279993697,-0.05124636843026307,0.046285119636856845,-0.07727445737817822,-0.22317165320644552,-0.3867559673972072,0.028738386956376323,-0.024819165657814654,-0.02677491267474092
0.782,-0.037532606732528465,0.02880802291190435,0.06610221671926023,0.005719557630905592,-0.05346063449353327,0.04531381161566361,-0.08073551286180224,-0.2279884674715131,-0.38879961905013827,0.024954814543182453,-0.02548367136419771,-0.02953429893976236
0.784,-0.04600419486451365,0.020443070526267752,0.06592871986101363,0.01413917294900267,-0.05695753424800132,0.04054517187915504,-0.08340066169371804,-0.23200075882686688,-0.3928748765271507,0.021196795552684493,-0.027224131942227354,-0.0356532034489663
0.786,-0.060046896908754435,0.008075458430537228,0.06768072024219036,0.027512378195179796,-0.06466076547057571,0.03525139260683352,-0.0840647207449875,-0.2343537605713273,-0.3984221252989076,0.01653285422115618,-0.03133939199982526,-0.04300242627368203
0.788,-0.07719626547607066,-0.001850172923785878,0.0753032093056611,0.04121113196160338,-0.07721287306531154,0.03427514938638129,-0.08311417081670061,-0.2339232947659543,-0.4036889817160056,0.011667573860181043,-0.03635742245708287,-0.0479296987422675
0.79,-0.0909584479972827,-0.003680838192741601,0.08769181618544243,0.04915124397104467,-0.09045712140419286,0.039595771952320065,-0.08079412350998708,-0.2296459948896172,-0.40584012365959315,0.00923070914104103,-0.038367876220562376,-0.04769091479067124
0.792,-0.09363937225430773,0.00513898237508902,0.09933197018808224,0.04591834047664609,-0.09793244769236428,0.0497478082608321,-0.07548396206244834,-0.22154128583835395,-0.4018013342899353,0.012225114009057753,-0.03412353496199706,-0.041556570727340446
0.794,-0.08397998267886513,0.022491982972996514,0.10675046551675614,0.03199024672446672,-0.09731041348845262,0.06207674129648309,-0.06562786276335711,-0.21207275861021324,-0.3914867564198789,0.02020394576781924,-0.02410927683797022,-0.03218340439619789
0.796,-0.07004520892341837,0.04124046250095384,0.11118077028433727,0.015760669927987036,-0.09256790451933553,0.07368282506265107,-0.053503195052089426,-0.205437700270324,-0.3800799149859857,0.028097044328788057,-0.012058718990443883,-0.02518325669151413
0.798,-0.059628752593395465,0.05432186792381017,0.11363370897950599,0.004883524248375133,-0.08775433880492482,0.08147803093102232,-0.04496246865278843,-0.2047143066618411,-0.37462203594928956,0.030705751393681473,-0.0015486943767871394,-0.025016186618822996
0.8,-0.05289551212768774,0.059241874059466744,0.11175861058509572,-0.00042419980468960303,-0.08264893416101396,0.08295515651390813,-0.04445268375045177,-0.2097418853470101,-0.37719192076318914,0.027302621774072274,0.005580153933702438,-0.03146895342265099
0.802,-0.049053772728317874,0.056764276348924676,0.10546880709656337,-0.0019041140850878508,-0.07788473197448248,0.07851137878190126,-0.05114220278602563,-0.21697917895338645,-0.38272053705063586,0.021082208588042366,0.008482658889387202,-0.04064596256376572
0.804,-0.05209350044597178,0.04918674232447202,0.1010876553450065,0.0019719317679777965,-0.07833660858052888,0.07279956416636052,-0.060028426329406574,-0.22175956676138336,-0.38525699468944413,0.015416000691844144,0.008221255417125081,-0.04850994080173309
0.806,-0.0643817597565242,0.040293462537357466,0.10469133560192115,0.01202197983965768,-0.08686705435061148,0.07100492213194376,-0.0655183123696498,-0.22202807774856695,-0.3846112074132806,0.011632324348840678,0.008811385915961542,-0.05315492870326697
0.808,-0.08090369852390508,0.033494415792520126,0.11450514698490602,0.024517786835718963,-0.09942859369423622,0.07344457107430356,-0.06448970909829116,-0.21942762145806965,-0.3841712181702565,0.009693366021284445,0.013714772863531144,-0.0547646918590227
0.81,-0.09374064898233088,0.029260966075981575,0.12302959481425817,0.0342398566062279,-0.10908152890913847,0.07579025957812312,-0.05848815484007576,-0.21660589298648902,-0.38476092592599836,0.009163682641176533,0.021050733743948512,-0.054576331189438644
0.812,-0.09894403756140198,0.025579013398437902,0.12436038887213656,0.038925014466759125,-0.11187726238765318,0.07421306243100184,-0.05292008302611685,-0.21491489635106004,-0.3840945890701879,0.008969802447954034,0.024780915785466727,-0.05395656287162243
0.814,-0.09749898417531148,0.020401108134488026,0.11753056532117998,0.039890204889019926,-0.10780319349130255,0.06805176046138807,-0.051844185694391,-0.21435775635439278,-0.3806001468617893,0.007805275495331472,0.021163582047169532,-0.05372348829315514
0.816,-0.09229466104620304,0.013078155511812583,0.10494681794024352,0.039965575022932034,-0.09888813571220723,0.05831768444835425,-0.05329609223024411,-0.2139992873603978,-0.37533291839255783,0.005717944680174133,0.012620583710310716,-0.05400769013818719
0.818,-0.08660097545574351,0.004940229209431841,0.0913068726449446,0.041176713739629264,-0.08895450424935379,0.04741180818620034,-0.051426612663894644,-0.2127227244535852,-0.3709144316604982,0.004318661599526983,0.004567172324330113,-0.05486281035723815
0.82,-0.08309235871853489,-0.0005256327972280816,0.08260437963305889,0.042916460914018885,-0.08267182655289175,0.03990795520075046,-0.04391839459109577,-0.21065794897265092,-0.369214207030137,0.004977114542373672,6.261737687284394e-05,-0.056502317480902994
0.822,-0.08086548736324832,0.001013120466923102,0.08201857159689278,0.041582879752319765,-0.0813522657537687,0.04004122487351281,-0.03522905217738597,-0.209222553407677,-0.3694199084751491,0.007516090442876473,-0.0005962159202742611,-0.05851071995421222
0.824,-0.07586524155264093,0.011935991998057137,0.0878331924775896,0.033560136167032587,-0.0819612934982358,0.04844781154352125,-0.030999029391091452,-0.20924966903345107,-0.3690204272107701,0.010700341923280936,0.0024745905906559296,-0.05973767030013577
0.826,-0.06695053917629182,0.029783277813833137,0.09653316434767216,0.01992303924237069,-0.08198413692110762,0.061935162095331044,-0.03121237855630144,-0.2100143762220629,-0.3672141586166842,0.013287495356767647,0.007833352223149572,-0.059642009133562025
0.828,-0.058420908577510006,0.04705652052176943,0.10496675428282283,0.0070221275956636,-0.08192903430482192,0.07482132706973896,-0.03080444068741303,-0.21018263407414095,-0.3658227448593412,0.014176185264323063,0.011594839046548181,-0.05895622421382927
0.83,-0.05521900602467594,0.05518084192842173,0.10967243256029452,0.0016973647408810902,-0.08260251095920021,0.08093298992569657,-0.026370247091068243,-0.20865351592265854,-0.3659047258554836,0.012390785807675083,0.010523541356174483,-0.05864290777668356
0.832,-0.05833476091602464,0.050176116959439035,0.10801450121424457,0.006158095485432063,-0.08335572520797575,0.0772576260653303,-0.020330119778017124,-0.20506528511333286,-0.3655924111979677,0.008465758586210341,0.005332490485012166,-0.05885131020365871
0.834,-0.0647071530095303,0.03624389986686611,0.10119317272780713,0.01634864672172072,-0.08342505259977222,0.06708986693148025,-0.01737091422651997,-0.20080518450769827,-0.363218081354263,0.005331678352309485,-4.089983753878361e-05,-0.059121273709466696
0.836,-0.07019521002072542,0.02277633509165327,0.09388382759832754,0.02554705665850465,-0.08302643027392866,0.05745306221612235,-0.018562181375934246,-0.19862353548082357,-0.36047116068972745,0.005416222698262394,-0.002368198493858086,-0.05933588473168016
0.838,-0.07314235639944217,0.015276291350577554,0.08929418068156511,0.03069589832802284,-0.08267196746234992,0.05184645754693256,-0.021211264102139714,-0.200176025797548,-0.3602604339259748,0.006475783214303714,-0.0026986867997020434,-0.0601818917095115
0.84,-0.07464617274562099,0.011220624549985818,0.08611322450188989,0.03359329662615592,-0.08211305449271,0.047868026079947806,-0.023017132964934822,-0.20421154315592255,-0.36294317099850687,0.0032421590493687947,-0.005121091733495847,-0.06206883076726836
0.842,-0.07591158513863577,0.006319870031939342,0.0819635289813894,0.036296687624484125,-0.08076702066733017,0.04273672208964878,-0.023925154103574743,-0.20758258449831374,-0.3663072639551718,-0.005663186827895276,-0.011583302706140268,-0.06436612879283422
0.844,-0.0777203640641489,0.000394731061605027,0.07785069990464732,0.03919488304550021,-0.07945438840110099,0.03749355194968668,-0.024708766014239866,-0.20864610716458365,-0.368632682581631,-0.015553376989399957,-0.019601892417417416,-0.06718242824075982
0.846,-0.08143763726445047,-0.004517602077092543,0.07692859631247473,0.04292067354016646,-0.08049750584704506,0.03454688573154942,-0.02521070433637776,-0.208431319933867,-0.3698835139903032,-0.02095397909171676,-0.024987129336901327,-0.07162658367336751
0.848,-0.08742354333581,-0.007198991229318923,0.08036942144954239,0.04773100923893738,-0.08497446575145905,0.03459762306413053,-0.024025086443918837,-0.20739709201362438,-0.36963112866278597,-0.02037120452304995,-0.02526408769370272,-0.07638551452608386
0.85,-0.09323849619209135,-0.006847269954119529,0.08643410130375402,0.05144941784864297,-0.09094598816624432,0.037333473182149766,-0.02006715344198137,-0.20447486462796693,-0.3665250559163817,-0.01641793570373825,-0.02116375425273674,-0.07779810084775333
0.852,-0.09614329009100912,-0.0034287220471666924,0.09253571595699465,0.05179587244066743,-0.0955487629486453,0.04221850613001181,-0.014586810023369031,-0.20068429279070935,-0.3611208545933367,-0.013058726122307053,-0.015900006392817915,-0.07532712113244423
0.854,-0.09657878703073065,-8.191555802081527e-05,0.09611153545081279,0.050322142890892145,-0.09751306258094039,0.046739919466954744,-0.011241839703956664,-0.19965082691619057,-0.3572940626907775,-0.012687131581890852,-0.013098609161490617,-0.07333188480645163
0.856,-0.09667974480603948,-0.001928702104928703,0.09432669743017304,0.050902582392417656,-0.0965679411921514,0.04624920060308895,-0.012878545783970522,-0.20284327397796642,-0.35872538022595096,-0.015287577015095343,-0.014897380242475972,-0.07537486124852627
0.858,-0.09624022003541531,-0.00981502473474205,0.0862004032229553,0.0542201517667661,-0.09225592401962752,0.03877778802601572,-0.017484064237133636,-0.2069409784186142,-0.36409146972303835,-0.019080012465606432,-0.02034619481746727,-0.0793697926344802
0.86,-0.09331601319828549,-0.01791972955790609,0.0754156471591713,0.05666491471470654,-0.08527103739676176,0.028762572316584148,-0.019810075363051426,-0.2078587612491551,-0.3684982611953466,-0.0220054531918619,-0.02605268788708289,-0.08116536406367789
0.862,-0.08932834860062745,-0.021137334612798594,0.06819618121370222,0.05634467107693068,-0.07922602675991355,0.022571321360947402,-0.018230241413118582,-0.2057490465374146,-0.3703970186577426,-0.02384834512338923,-0.030168358582967174,-0.0813437854617732
0.864,-0.0899356757531322,-0.02174195687560068,0.067916538638287,0.057042899674603166,-0.07895001729258772,0.02166597532018497,-0.016516650896515443,-0.20388346093858817,-0.37313831448006357,-0.025961791770408655,-0.0339187432928438,-0.08424610699737209
0.866,-0.09849349580112414,-0.024112431657208652,0.07391121350693894,0.06268387504851083,-0.0863938558400001,0.023649141941837565,-0.01775914767245239,-0.2040348296444876,-0.3784034211927481,-0.028632968240287868,-0.03796779178335297,-0.09049567517593694
0.868,-0.1111471375342115,-0.02697045793767967,0.08389320913338286,0.07071431033097296,-0.09853271212321156,0.0273159838544742,-0.02027390927526034,-0.2051298045047415,-0.3826518925141539,-0.03060163684189718,-0.04030952821483277,-0.09538690872097348
0.87,-0.11976548848747846,-0.02632634331413944,0.09361964969293521,0.07476077974777325,-0.10836019053790502,0.03198775280339072,-0.020533034710724252,-0.20558538077422395,-0.3817306934526977,-0.030694422152482997,-0.03885189935469231,-0.09557104249336157
0.872,-0.11866783659581863,-0.022367196470986457,0.09695492798180157,0.07203835422111458,-0.10917030414527736,0.034804411987099056,-0.017236930582838317,-0.2052100361893815,-0.3756940514402967,-0.02858952336266112,-0.03402532839861879,-0.09308308772466657
0.874,-0.1094298592370997,-0.018843955009673386,0.09154288458366788,0.06561691090770774,-0.1009444957394182,0.033426366584968586,-0.011698869049684597,-0.20478174799636517,-0.3684391735878627,-0.025267157617985963,-0.02844352447481508,-0.09168004903976744
0.876,-0.09891829242169896,-0.017371784325400347,0.08249671632155446,0.05971330739300434,-0.09085208761538553,0.0298676429438201,-0.006214998282117946,-0.20467157401199698,-0.3642066929605942,-0.022903208424864284,-0.024891544849230608,-0.09231829777461124
0.878,-0.09127165610648809,-0.015096263988278805,0.07676026547168462,0.05446043296223266,-0.0847654004960132,0.028752148218457684,-0.0031757180967882832,-0.20424828727095695,-0.3641515547003949,-0.022788655373296555,-0.024931763944527927,-0.09338691445795869
0.88,-0.08459045794195473,-0.008861818092845915,0.07581024400594163,0.04741620436872498,-0.0815118684165289,0.0319712482990948,-0.004189954778424381,-0.20272290817041158,-0.36596703664111585,-0.023929329628890706,-0.02843951295935997,-0.09355486274556653
0.882,-0.07703212220532182,-0.00032523137436930676,0.076507765710086,0.03916641213683381,-0.07796692333052677,0.03668488227692755,-0.00803496114359352,-0.20053596613923924,-0.36691281281942073,-0.024509354799869695,-0.033134683217961404,-0.09305421043309352
0.884,-0.07104200419899344,0.005512318726481059,0.076409769585092,0.03351224851389149,-0.07478430392224902,0.03902111222157768,-0.010757304040381662,-0.19938139579186884,-0.3664441844498591,-0.023800095288086034,-0.03589913297005604,-0.09283316058926117
0.886,-0.06858845316934324,0.0058910869226385335,0.07450824011835114,0.03234488816361429,-0.07300241546587698,0.037621536216051125,-0.010143791525313023,-0.20092697457216116,-0.36583096783102526,-0.02274380542374475,-0.03612927655052845,-0.09360469034656978
0.888,-0.06655950191216052,0.0018937769487669617,0.0685429138956067,0.03357930974430065,-0.06943013882118058,0.03269758120303189,-0.008884882981404012,-0.20574626051106987,-0.3665042818985639,-0.023696411928094317,-0.0362950924023069,-0.09556484314532543
0.89,-0.060025145482660074,-0.0044158004366342644,0.055636920738012234,0.033927473592703435,-0.05975269437303476,0.024029147413334163,-0.011159431149580805,-0.21269670774540628,-0.3692543204398684,-0.028738690654145384,-0.038575159138527916,-0.09836249104829647
0.892,-0.048723189475363,-0.01252164866627607,0.03616633551538747,0.032604496649552256,-0.044326298219347283,0.011220647286660555,-0.017004326023461795,-0.21897533958943588,-0.3735474816731199,-0.03719551062246125,-0.04246934738537803,-0.10130431914808023
0.894,-0.03983966444149886,-0.023673274070621694,0.01615659925793843,0.03345751057793004,-0.029763545990150686,-0.004441779832391755,-0.02180632877932499,-0.22127697049611728,-0.37651952804998795,-0.045461271785493196,-0.04536224483354847,-0.10324453199895832
0.896,-0.04329850319728631,-0.038607390863400946,0.004804521175543809,0.042262115017788364,-0.025210710028862666,-0.018687013516270078,-0.021309147214527712,-0.21795194172873947,-0.3747120349870437,-0.04961374920612073,-0.044736924800292274,-0.10261456648184171
0.898,-0.06176503134622625,-0.05406460684618251,0.00793768427639324,0.059224299926361475,-0.035247577518313526,-0.02576713670030976,-0.016049756756662502,-0.2109604545136573,-0.36887425473002733,-0.048482940618745224,-0.041020713357253456,-0.09906523869104758
0.9,-0.08684832446443533,-0.06303468355124457,0.02404711523196869,0.0764002190194459,-0.05594975343508048,-0.022059952405293324,-0.010257290436049416,-0.20426633983605672,-0.3643776896879716,-0.044867184511210585,-0.037910595741631775,-0.09496817715412557
0.902,-0.10696568878694508,-0.06045438092352345,0.04666450696344683,0.08503387882489928,-0.07845824030617717,-0.008617827119871774,-0.007278386640557635,-0.19910407700482738,-0.36399367562984375,-0.04274767015982945,-0.038604017160240076,-0.09420314783616733
0.904,-0.11537308412880806,-0.047712151915220435,0.06779510169424441,0.08239839008321569,-0.09434894600974693,0.00879343074551055,-0.006086977171704557,-0.19263636545183496,-0.36314300154092316,-0.04216838255746332,-0.04229874048725433,-0.0986828990869558
0.906,-0.11031698909814973,-0.030897223349783228,0.07955563897383769,0.07086810375185291,-0.09796759556672614,0.02257440274482973,-0.0018769254662525023,-0.1824235875641508,-0.35586579530343704,-0.03903654771031471,-0.04545569027676506,-0.1054986197279507
0.908,-0.09422201348253985,-0.016054491809718893,0.07822858770638633,0.055024824131787865,-0.08885821180579466,0.02839642404660793,0.007052543917574233,-0.1707482908073024,-0.34278886527787,-0.0312803498919895,-0.045342535091886155,-0.10865173988156104
0.91,-0.07361174704153715,-0.006468325509854862,0.06713064780605389,0.04010436587000965,-0.07244044901449276,0.027215468278660063,0.013700595081817812,-0.16247262965119574,-0.3289971887307785,-0.020844983888612313,-0.039303485411550876,-0.1042360872262088
0.912,-0.05424975955141598,-0.0031870270086084363,0.051161621153710236,0.029417470742409448,-0.05426950785193506,0.021157951161072927,0.00968218104255709,-0.15784000741016663,-0.3154609160054529,-0.007227388206928559,-0.022257140286547288,-0.09260071398367749
0.914,-0.037965793703418675,-0.005083008941986704,0.03333175649274705,0.02275653275040888,-0.03687320317713776,0.011965493317410529,-0.002473109364061735,-0.14783788359125022,-0.2948027280094692,0.01728773257123486,0.010467919688498426,-0.07499942142667892
0.916,-0.025594402796331836,-0.005314684568985368,0.021054398074322224,0.016785117729451043,-0.024481298856370726,0.006542418244806674,-0.00959351817830671,-0.11717962056062024,-0.2541205252337929,0.06477855487029391,0.06071432604649182,-0.0481835691776899
0.918,-0.012987896428460374,0.009266080028695745,0.022949465610341464,0.0030454764231327616,-0.01937311658100675,0.015466959984998238,-7.39606896000744e-05,-0.05235773676209478,-0.18180080110576458,0.1459462261749533,0.13144020291224026,-0.003844770975902336
0.92,0.018457468192381574,0.0475512529288649,0.02931861048377404,-0.03205377149787598,-0.007216964235826851,0.037993086921660646,0.02621646685487347,0.052475566638945925,-0.07321217822955602,0.266622144473918,0.22874349405482972,0.06353765890752042
0.922,0.09142764259155832,0.10061049850025776,0.009021467037060955,-0.09529158017952165,0.039352250503326136,0.054305020425253515,0.058628026869287295,0.1928549381969156,0.06830679605778381,0.4266693225881956,0.3563966576263499,0.14963130748151002
0.924,0.20380317393446898,0.14590502851338003,-0.0579787668425077,-0.17405925677816875,0.12954546686004964,0.04359010436921684,0.08421254596273417,0.3495815950463627,0.23085203021872686,0.6170314297491188,0.508890760608436,0.24411542943689418
0.926,0.32173132130749027,0.17256691062995175,-0.14884900907441687,-0.24613273152735465,0.2346822295649246,0.011720995342733688,0.09574029678169754,0.49058776315040004,0.3928767855716485,0.8167127922037786,0.6710980246265028,0.3403770565442415
0.928,0.41107605838122474,0.19698045267829892,-0.21356643571043576,-0.30316234085285426,0.31205046853715535,-0.008659957619726079,0.0924609414747873,0.5882661931685486,0.5304541238808985,0.9991355946489232,0.8259973239208903,0.43936222686156984
0.93,0.4690697496231004,0.2429312710856946,-0.22582520520548363,-0.3554613859501617,0.3469009705177158,0.007257189254280585,0.07363342258557011,0.6313638082066102,0.6270085631054858,1.1424814438348934,0.9601848550892903,0.5421911611475244
0.932,0.5194107420976687,0.31086253185108614,-0.20862586411021491,-0.41430246600456355,0.3631437165642541,0.048744242757167086,0.03365978747464226,0.6134151957057595,0.6691527224502523,1.2271347832522315,1.0579080340364486,0.6370369169582507
0.934,0.5831931481042288,0.3771701920215716,-0.20632383093882373,-0.47853532628123613,0.39409154594765616,0.0828549829788309,-0.03315864317643511,0.5253064826254589,0.6406780171830301,1.2306780398845862,1.0955506754238027,0.6976594166197152
0.936,0.6609716175927883,0.4210230665104541,-0.24021332244456953,-0.5390877177847496,0.45044555861929375,0.08890221521535406,-0.1239348712439351,0.3744516066291929,0.5385035173258297,1.1463881033571286,1.0574267280576295,0.7053013242723681
0.938,0.7388236272102326,0.4454901387499223,-0.2933602340219589,-0.5907727576713273,0.5161628999580171,0.07584732408267214,-0.2262203941354406,0.19633785216751234,0.3920731638620714,1.0063319140007994,0.9614952796634015,0.6727285970556872
0.94,0.8011518718483036,0.46917132755117125,-0.33174343597063743,-0.6340878615494641,0.5661759156488478,0.06862758009345465,-0.32604945382325523,0.026993590510256866,0.24456399929144004,0.8596758996421712,0.8497241332486987,0.6319365813851994
0.942,0.8345853775762265,0.49233208449054194,-0.3419755840401083,-0.662087520548737,0.5872381080329555,0.07405084398413801,-0.41781663668753216,-0.1292529025276941,0.1072126866709764,0.717978851961357,0.7380411011733862,0.5915442398901009
