time,I,II,III,aVR,aVL,aVF,V1,V2,V3,V4,V5,V6
0.0,-0.0010750414137347445,-0.000636248999965461,0.00043879241376928345,0.0008556452068501026,-0.0007459471034077819,-0.00010969810344232086,0.00043879241376928345,-0.001930686620584847,-0.001930686620584847,-0.0017112904137002052,-0.0017112904137002052,-0.00043879241376928345
0.002,-0.007509513920631745,-0.00444440619792491,0.0030651077227068346,0.005976960059278327,-0.005210683128601619,-0.0007662769306767086,0.0030651077227068346,-0.01348647397991007,-0.01348647397991007,-0.011953920118556654,-0.011953920118556654,-0.0030651077227068346
0.004,-0.023553047858010726,-0.013939558936373692,0.00961348892163703,0.01874630339719221,-0.01634293116678295,-0.0024033722304092576,0.00961348892163703,-0.04229935125520293,-0.04229935125520293,-0.03749260679438442,-0.03749260679438442,-0.00961348892163703
0.006,-0.044260703460542145,-0.02619511021134126,0.018065593249200873,0.0352279068359417,-0.030711508523641483,-0.004516398312300218,0.018065593249200873,-0.07948861029648382,-0.07948861029648382,-0.0704558136718834,-0.0704558136718834,-0.018065593249200873
0.008,-0.05689189446106879,-0.033715487784486554,0.02317640667658223,0.04530369112277767,-0.039509589453632116,-0.005903799772587879,0.02317640667658223,-0.10219558558384646,-0.10197618937696182,-0.09060738224555534,-0.0903879860386707,-0.02337386326277841
0.01,-0.05640017184499992,-0.033737234371170995,0.022662937473828935,0.045068703108085466,-0.03929327063618591,-0.006432011299133943,0.022662937473828935,-0.10124947874620076,-0.09971692488484735,-0.08991801000928629,-0.08838545614793288,-0.024042235949047013
0.012,-0.05163757072746226,-0.03191250500789668,0.01974700534025406,0.0417860076780237,-0.036082979412283486,-0.007449821668915093,0.01974700534025406,-0.09169356795793637,-0.08688682349711785,-0.08182006528780936,-0.07701332082699086,-0.02407307535499072
0.014,-0.05292508347369333,-0.034595647723910244,0.01848269113591844,0.04383699329186945,-0.03670325017403828,-0.009903348026956535,0.01848269113591844,-0.09035663762264157,-0.0813238409980411,-0.08111529205468235,-0.07208249543008192,-0.026612208098058827
0.016,-0.06054243406732688,-0.041617818974275265,0.019405289539133466,0.05132046374384199,-0.041186466116081705,-0.01304879628433818,0.019405289539133466,-0.09716893389667455,-0.08549297207562954,-0.08737853064435393,-0.07579032730606285,-0.030054068750480105
0.018,-0.06778378409232998,-0.04815340776520727,0.02053365598958276,0.05842023575999865,-0.04508934786304815,-0.015315546678153142,0.02053365598958276,-0.1030588535662967,-0.09122406138828316,-0.09228870213040626,-0.08095723339349181,-0.032264531714159196
0.02,-0.07016751830548607,-0.050749459882438175,0.020576878756877,0.06103789926087668,-0.045711546890899984,-0.015875072693428322,0.020576878756877,-0.10473783921512249,-0.09379567417409863,-0.09338073746578716,-0.08352917441634859,-0.03426977562080984
0.022,-0.06884678178865955,-0.04999516600696117,0.01998476265538983,0.05998754733465608,-0.04426050366659956,-0.015282597816284299,0.01998476265538983,-0.10530381821381485,-0.09557544587440843,-0.09482441011467273,-0.08573631993284882,-0.03733477029115356
0.024,-0.06729919794134068,-0.04860815337730455,0.019678394831048843,0.058447350792828964,-0.043241344932629905,-0.014707672427609087,0.019678394831048843,-0.10651950844444746,-0.09958441195306479,-0.09925040272091092,-0.0902258889836222,-0.03999897846195002
0.026,-0.067262316081994,-0.04833163833774187,0.01985481230104806,0.058259044488265896,-0.04350726769315699,-0.01471778985663731,0.01985481230104806,-0.1064470255074078,-0.10483750104246367,-0.10379762441151294,-0.09581337455439969,-0.040426426233274776
0.028,-0.06803939172141514,-0.04890352258898655,0.020106133609385263,0.05895658939367918,-0.044175969209957575,-0.015022075476348932,0.020106133609385263,-0.10331550964811134,-0.10822115323243257,-0.1041304557914418,-0.09932690676156906,-0.03923923172010695
0.03,-0.06841672952998298,-0.049313508005292175,0.020129904324169938,0.059378460167377155,-0.04435044201233207,-0.015162080742285635,0.020129904324169938,-0.09875165440306559,-0.10845569230930223,-0.10025360451277181,-0.09952388702090871,-0.038364393087054596
0.032,-0.06817468508788442,-0.04941880034791753,0.01978472867781073,0.05928922506613443,-0.043961132597521276,-0.015262306204351482,0.02000412488469537,-0.09594094798944747,-0.10710528009793066,-0.09660079054939927,-0.09809056792259567,-0.03878144353511873
0.034,-0.06785561938635398,-0.05045633163230034,0.018398525886823128,0.05950233918957654,-0.04307645238033287,-0.016321962151371685,0.019931079748176546,-0.09513342651323661,-0.10631477683640306,-0.09680104089759949,-0.09727337151911068,-0.040665127139792964
0.036,-0.06783593952124631,-0.05366177375889044,0.015158085503908323,0.06076014206476272,-0.04148297081973487,-0.019263409616026902,0.019964829964726837,-0.09346501722615252,-0.10662461622321932,-0.10060778846088066,-0.09761246571781257,-0.044107773928207215
0.038,-0.06800056119715686,-0.05800528596913778,0.010988015843071502,0.06259601422821348,-0.03951516203904657,-0.023130899235362882,0.020020812467671935,-0.08979966257900318,-0.10719003879352317,-0.10581983962497733,-0.09820631535916632,-0.04810444736584376
0.04,-0.06830921213218977,-0.06065419172939215,0.008660327083266889,0.0638255349371965,-0.03850238732620397,-0.02537647269889665,0.020226590800869537,-0.08633585271965433,-0.10729276966494358,-0.11108860972293177,-0.0985045030816469,-0.05045839116660182
0.042,-0.06957513686716936,-0.06037798876285006,0.010203643320527788,0.06434666354942252,-0.03988641444433384,-0.024601185885790487,0.021381856671306914,-0.08393131864465164,-0.10703573006611235,-0.11653885921481816,-0.09941298757605549,-0.050230418970206796
0.044,-0.07277806357463397,-0.058859705323031114,0.014918564495837632,0.0653316373039372,-0.04383728043685899,-0.02195202400742901,0.024311392719882814,-0.07974640517316135,-0.10685752601030861,-0.12232006407827659,-0.10217485441402463,-0.04889606566409289
0.046,-0.07699585788153182,-0.058209367555963704,0.01978304431297695,0.06717675515565624,-0.04838580543035368,-0.01968996372936918,0.02812111021847613,-0.07199078216396454,-0.10691258097923788,-0.12705996961443095,-0.10603904192826277,-0.04830725659683229
0.048,-0.07958621178571877,-0.058694900492025893,0.02188955279192921,0.06866941241103384,-0.050742162177806,-0.019096588557944875,0.030433377227666827,-0.06323188403899761,-0.10683855509526047,-0.12866632752995247,-0.10868810046167014,-0.04872181183172226
0.05,-0.0793506760839942,-0.0592805803490616,0.021071136358316186,0.06878946572874058,-0.05021493995298724,-0.019715024270534925,0.030204817479416113,-0.05615842239909311,-0.10568559766142982,-0.12644265446842826,-0.1097990192693363,-0.04924001467331273
0.052,-0.0778837640121493,-0.059299234510026735,0.019585986212856232,0.06806338367861099,-0.04873446617684776,-0.02031403933279064,0.02888707532428203,-0.04967539576919586,-0.10268526932460863,-0.12174332223395373,-0.11170398098692906,-0.049265172499285394
0.054,-0.07723576502075133,-0.058990032661909615,0.019245860268646144,0.06761372466346317,-0.04823841601546705,-0.02029436683794334,0.028314107039545146,-0.042012338897724016,-0.09884048334164855,-0.11724334951772448,-0.1153181139127706,-0.04899590055526381
0.056,-0.07769437932764012,-0.05861278818844526,0.020058917653763716,0.06766929708411891,-0.04888669671032747,-0.019751656219729696,0.02894979021301993,-0.03467237919198187,-0.09655009993562481,-0.1153045617447615,-0.1180799050055771,-0.0488535756368285
0.058,-0.07826592540086191,-0.05739278420758146,0.02171946546996191,0.06733640402057771,-0.05007019082414829,-0.018295088981952985,0.03077344420714214,-0.031111125936355385,-0.09680824988628015,-0.11600679187459748,-0.11704629986852183,-0.04893235342633183
0.06,-0.07829251889594635,-0.05424916168501454,0.02456288247601018,0.0657656334655913,-0.05166895530139157,-0.015127229170004499,0.034067779788940815,-0.032869274322906025,-0.09812818328716874,-0.11734555960003623,-0.1123414261071561,-0.04904758335931883
0.062,-0.07799482249586999,-0.050034640363306855,0.028057227250912715,0.06350839860378474,-0.053477629379472424,-0.011029625982132401,0.03802622094268824,-0.037548511462930444,-0.09868605011400777,-0.11767905477726867,-0.10720494061167855,-0.04905963312618706
0.064,-0.07783813716336262,-0.047413496498328815,0.03026586647726306,0.062125633659640134,-0.054630894471530723,-0.008477545177191344,0.040442829511887414,-0.040897602942214235,-0.09826135406567357,-0.11714004675017867,-0.10496304534897635,-0.048783118017776135
0.066,-0.07792556751355768,-0.047632541909355154,0.030159723531930176,0.062282423124757125,-0.054608991043513085,-0.008665848832337793,0.040265669664657486,-0.04151074119243988,-0.0977550823180851,-0.1167015160141905,-0.10586506427342693,-0.047436104530817216
0.068,-0.07805276717526655,-0.049108379751640695,0.028956937842289403,0.06308228230805539,-0.053998701197475615,-0.010089340896597677,0.038921396411196255,-0.04218084015242964,-0.09774154426659225,-0.11678226828367197,-0.10746396944245905,-0.044176913548362076
0.07,-0.0780658124297201,-0.049769640821041385,0.028372074309406584,0.06341670463075905,-0.05368121792654658,-0.01074237508856745,0.038300119883829975,-0.045889736398042266,-0.09801000564947662,-0.11705865573295915,-0.10781280764582678,-0.03997650149884383
0.072,-0.07800263686805703,-0.04909309387550652,0.028939350509970187,0.06306838427892476,-0.05395613022198264,-0.010090461208866683,0.03870457964314414,-0.05218762839914675,-0.0979262082149457,-0.11714659202234187,-0.10694184116200292,-0.037205759919218984
0.074,-0.07796534478316534,-0.04720185182362921,0.030736824216215125,0.06223673280780725,-0.05486431483395644,-0.008215473607194724,0.03923567826497643,-0.05841029627719012,-0.09653148354256841,-0.11703795494103952,-0.10524888111625373,-0.03613728438504252
0.076,-0.07798200831875028,-0.043897145987585345,0.03405598581830233,0.060920969176482966,-0.056533363642890924,-0.004905088986005635,0.039272505149664384,-0.06306476488529039,-0.09314439448749448,-0.11693814336119297,-0.10242158451030772,-0.034313086580070803
0.078,-0.07801031845468524,-0.039970485106833785,0.03804057198469554,0.05939409016520954,-0.05852509843761882,-0.0009668453499631548,0.039001769497648865,-0.0669104168255799,-0.08890892840247916,-0.11694975266742581,-0.09895262743343113,-0.030721960373188414
0.08,-0.07801474710502158,-0.03735531727233424,0.04067551677197717,0.0583436561517679,-0.05981519873133648,0.001650755940841302,0.03885237736922261,-0.0714230687935762,-0.086410628185636,-0.11679036195227635,-0.09674731735683315,-0.027710928214610922
0.082,-0.07800141297792694,-0.03621194789465433,0.04179674033671991,0.05773951046342226,-0.06024219517278702,0.0027889666940896906,0.038928578251796526,-0.0772290904032341,-0.08669977456323741,-0.11549952763636653,-0.09684119583505446,-0.027404678658136433
0.084,-0.0779926270720046,-0.03426714514786923,0.04372017917743936,0.05661719219777783,-0.060878358336137264,0.004729977413930813,0.03904643405228961,-0.08354287199534882,-0.08814205801197797,-0.11220325361281158,-0.09803630656794493,-0.028838509779916914
0.086,-0.07799570719251735,-0.030659282215670196,0.04732992297981396,0.054751781069058245,-0.06226276975826796,0.008338844250537925,0.03906114435483694,-0.08833038168833038,-0.08874903677222268,-0.1079544712768108,-0.09862419713248616,-0.029764865182710508
0.088,-0.07778257689305791,-0.027706063478274694,0.05007630178490338,0.05321468128412418,-0.06329266833200876,0.011184913801524962,0.03900386327376732,-0.09010990553514824,-0.0882842695129328,-0.10540025896744576,-0.09806255521039257,-0.029259782154877814
0.09,-0.07647073128457893,-0.027436559277447283,0.049037619147697865,0.052480291386955945,-0.06227257111087156,0.010798508823056167,0.038968478059182854,-0.0903621589999835,-0.08773217015427531,-0.10566996845739858,-0.09626612082147995,-0.02742679671512989
0.092,-0.07319374793808346,-0.028856391961172945,0.04433911795652891,0.05155384363202305,-0.058758879244580293,0.007740509696562996,0.038982835664723686,-0.09228490242106419,-0.08771822326796141,-0.10713348020584343,-0.09294438089689347,-0.02433308267090678
0.094,-0.06896564579129827,-0.029756008587447653,0.03920859762611864,0.04986005178881016,-0.054566782110722245,0.0047269899093341245,0.039009003738610645,-0.09635418334599853,-0.08801134784898387,-0.10776120552381013,-0.08895799600278159,-0.02081328453374494
0.096,-0.0662133273744628,-0.02924579307069437,0.03696607619454882,0.048191572219218375,-0.05226801304365615,0.0038719091932351997,0.038794271415733717,-0.09943213433255253,-0.08804924977749583,-0.10709730646595059,-0.08654299530225099,-0.018729062054160805
0.098,-0.0652895990763418,-0.02742494803869889,0.0378645218892085,0.04669678139750885,-0.05210696205466413,0.005296416209484068,0.037469060967870456,-0.09879812495769374,-0.08719369780852311,-0.10535124317321198,-0.08673617269707604,-0.018908517499295126
0.1,-0.06380115492915164,-0.024339833815784404,0.039462055149658795,0.0440951200117876,-0.05184940951853674,0.007801013260272268,0.03418656812514003,-0.0947820844431874,-0.08466720285296779,-0.10238564881657662,-0.08808721933561775,-0.02007842433291685
0.102,-0.06062928512604746,-0.02081751811438544,0.039812188106735626,0.04032660168441041,-0.05019378346734183,0.009948766356205825,0.02996312785197033,-0.08934874377818028,-0.08014071334372674,-0.09887961272688707,-0.08870299004718424,-0.02060757566599445
0.104,-0.0578676456787016,-0.018508003778894565,0.039359442457038554,0.03752920683962639,-0.048520577437680026,0.011005267116348066,0.027413499447468678,-0.084073935219147,-0.07432121489378331,-0.09662235688217845,-0.08818250591166531,-0.020141329411698553
0.106,-0.057534613585721345,-0.017372859379187835,0.040161429140324015,0.03681715023429675,-0.0488155517645513,0.011961037815263623,0.027671568715184076,-0.07986916156409603,-0.06827520680982518,-0.0959977758595948,-0.08688511323786229,-0.018916999472631833
0.108,-0.058825473430677115,-0.015271104137645895,0.04355432286418259,0.03655918525963507,-0.05121978356788914,0.014635295137592163,0.02912701893338499,-0.07744788160574481,-0.06277788106053143,-0.09478083786966891,-0.08444835833952732,-0.016485931280554034
0.11,-0.05969056790434353,-0.011576198105521084,0.048114525018076594,0.03521028795388153,-0.05393314500876989,0.01873113786114839,0.029757245969961082,-0.07701956015599663,-0.05884269705804057,-0.09082209110338621,-0.08020435016927224,-0.012204918103567332
0.112,-0.059318765141519035,-0.008444419984441075,0.0508744446356016,0.033467630452723426,-0.05509513661121175,0.021623305723222765,0.029296397820592113,-0.07752701937855362,-0.057262469455794156,-0.0845663369100884,-0.07447079283141853,-0.006648040726836531
0.114,-0.05795640573303506,-0.006928651332547456,0.05102771721011278,0.03224426204465664,-0.054474925108421134,0.022081356258830946,0.02873348332442868,-0.07681969980578383,-0.05672589163358806,-0.07788230980405884,-0.06831186941203186,-0.0016812108355941397
0.116,-0.055407935714571005,-0.005084346477174981,0.05032351718548597,0.03058996136459299,-0.0528584054895119,0.02180191593714141,0.02871223180554839,-0.07349092254235458,-0.05456474989526692,-0.0720381562612121,-0.06271377762856882,0.0009538812472722087
0.118,-0.05114616994985189,-0.001726358355722873,0.04941979747384489,0.027343348964652767,-0.050288826304641286,0.022211516486359627,0.029007769372383425,-0.06892225685251525,-0.050528905951385865,-0.06794625975124291,-0.05879208182334246,0.001069973154715003
0.12,-0.045662545832124826,0.001162362373252207,0.046824940781163185,0.023377026242303207,-0.046250516793468394,0.022350046519339424,0.029160508286336432,-0.06581401584870644,-0.04726456606263638,-0.06635776518272468,-0.05749267423180752,7.73395990071109e-05
0.122,-0.040720198832016316,0.0015372489693587558,0.04225747106712309,0.020572062193559615,-0.04148887913687834,0.02117152180225996,0.029072371036018573,-0.06347577239364724,-0.04586893412093791,-0.0663364601745614,-0.05829122949932228,-0.00048524014308157064
0.124,-0.03805682522760949,0.00020288904535262112,0.038259707608591674,0.019599347120747602,-0.03815459173584587,0.019631066635482627,0.028946987372752163,-0.05731083416310116,-0.04415371818202001,-0.06521039251108436,-0.059381254750697075,-0.0002650187730966916
0.126,-0.037913864079871164,-0.0007134098329278961,0.03720043836701377,0.01974358422923809,-0.037555372470765326,0.019178006042319132,0.028935195310528853,-0.045126021534601414,-0.040791944531867415,-0.06126416294661802,-0.05954847357403017,0.00013310349254190497
0.128,-0.038909097441237474,-0.0004552553783988187,0.03845383811461687,0.02006585128422205,-0.03868262362824212,0.01976564849625681,0.02921737463964006,-0.030835540941462115,-0.03761169598670862,-0.05552317940208189,-0.0588411240653679,0.0004246133699296363
0.13,-0.03948758215462003,0.0001667723715296935,0.03965436130631052,0.020134244938431863,-0.03957249449969179,0.020323284905258247,0.03056695303220948,-0.019465256461185514,-0.0358912915558366,-0.05051643654684068,-0.057202059808611184,0.001557557296651521
0.132,-0.039273539073964685,0.00032680550241800217,0.03960034996959554,0.02002005932460696,-0.03943704107740929,0.020283388575374928,0.033824278056485024,-0.011328619850244904,-0.033975361475265094,-0.04804107576236859,-0.05403436743822466,0.004706950783142962
0.134,-0.038869688177712476,6.529826620464826e-05,0.03893498531991916,0.019938464093944938,-0.03890155185322014,0.019961076406082454,0.0380223990934101,-0.0032372006682467804,-0.03069467827728903,-0.04802759278021841,-0.05003579946229388,0.008971623475719849
0.136,-0.03857207035662918,-0.0003663094619735848,0.03822769703525906,0.01996149034731578,-0.038388486285639206,0.019498271632881987,0.04035427224309802,0.006730063190364612,-0.027684501655928655,-0.048755195227354366,-0.0475310355122472,0.011613458623124507
0.138,-0.03743933518977316,-0.0016383052551762337,0.03595428427184494,0.02001555075369983,-0.0366204061297187,0.01763988605257479,0.03879764641785263,0.01740346041764297,-0.02612190450090525,-0.04792380289222167,-0.047688013633263186,0.011376902882944979
0.14,-0.0342933746659959,-0.004777094701605009,0.029996955808630217,0.02002833254672285,-0.031905168404363644,0.012854719405223494,0.03407408435646782,0.02604826245325462,-0.024465221593608047,-0.044415641677357814,-0.04907074910336391,0.009881415666373239
0.142,-0.030030227819283353,-0.008960934772156723,0.021972573949825533,0.020004960731496248,-0.025549801349965526,0.006515190812133934,0.02921274053769898,0.030505958071947392,-0.021560130206280025,-0.039829382230696216,-0.049721405073615284,0.009220330189898714
0.144,-0.027387248051594978,-0.011350665047738837,0.017173463546395668,0.019877194104942136,-0.021711748931437073,0.002832466613174682,0.02711244551578546,0.030595601431483654,-0.019017698069903277,-0.03700821942811687,-0.049309987596369974,0.009688289002367598
0.146,-0.027622424368755966,-0.009829465288877464,0.018772849809118905,0.019224760656151967,-0.022707589819565374,0.00449800987189677,0.027932118448361035,0.027818725589091063,-0.01864396906937757,-0.03612362000114202,-0.048759532877252924,0.010271439773970825
0.148,-0.02911787734331705,-0.005091250773917207,0.024533302121218587,0.01759950410434504,-0.026572294196551015,0.009981179353683542,0.029414477937886735,0.023902225233532748,-0.01979583208086795,-0.034414112159748024,-0.04871725772593941,0.010298476515027275
0.15,-0.029779699247237265,-0.00020357575191082104,0.0295969786749502,0.015489867241776022,-0.029677987159313385,0.015183842428291997,0.02975258521122347,0.020409361975506565,-0.02061674323220737,-0.030777532673577756,-0.04899595411374131,0.00999465882708983
0.152,-0.029312110879516996,0.00212069637496096,0.03124425168073539,0.014097623019911324,-0.030372472216054932,0.01724628831979351,0.028940086524385678,0.018652235885737483,-0.020606835608067243,-0.027682324267133677,-0.04915212195410608,0.0098348077607769
0.154,-0.028728735166988706,0.0026019996413420947,0.03122427071366858,0.01356524885586707,-0.03002969990907373,0.017310367386515348,0.02728090720886217,0.018263304827295275,-0.021242850794842075,-0.027360701300052165,-0.04907481315051891,0.009924066525748544
0.156,-0.028701388821489197,0.004385512339300684,0.03312839466734246,0.012657791255813771,-0.03089412105993813,0.018758873107256647,0.024437838979013603,0.016890692869778588,-0.02403865639600437,-0.02883312013652103,-0.04895273048002676,0.010053867155463653
0.158,-0.029005181380894033,0.008276131611211355,0.03735641650077051,0.010863428120518527,-0.03314325489884939,0.02237853609498353,0.020942913975999802,0.012730122580876689,-0.02806650762768545,-0.029786290901651146,-0.04893660581208879,0.010067156965187563
0.16,-0.029165189402806595,0.011342699303989711,0.04052154402889252,0.009465650442304336,-0.03489140485017783,0.025288067736160998,0.01893126385181416,0.006901498917152176,-0.03055591697200603,-0.029470413466562883,-0.04921491422378545,0.010002678807016635
0.162,-0.029076019321652415,0.010798344234260529,0.039840421435683365,0.009967513572296157,-0.03480348464127768,0.02485460917888783,0.020219342034198708,0.0029481338781649716,-0.030293095530587514,-0.028800695344847926,-0.05056500805914514,0.009964631071079706
0.164,-0.028946175397855795,0.006830758208222904,0.03575339634798887,0.012431532079828889,-0.033234943875927216,0.021296473461068166,0.024369198968425765,0.003708517667546765,-0.028862379321762683,-0.028649383644944678,-0.05382469173722533,0.00998164452366896
0.166,-0.028932816511680306,0.0013717456668343546,0.030333758847266606,0.015665330747189975,-0.031003486231904964,0.016317977632361275,0.028757601662072148,0.00803861591673588,-0.028254145822441415,-0.028941082119534434,-0.05802365810719102,0.010010534175553802
0.168,-0.02899728530174413,-0.003941653829458872,0.025225173344595966,0.018426632582604206,-0.028483859054695956,0.011246248981374428,0.030512011614626862,0.011625615740898449,-0.028715232689586596,-0.02938235120439391,-0.06057404406870296,0.010015048676585762
0.17,-0.02903536625959017,-0.008150825392676439,0.021369028696772624,0.020085316232419048,-0.02595228663207423,0.006973287895008166,0.02861468512513913,0.011830109850878881,-0.029266370147329236,-0.030642485722297788,-0.0603296926221004,0.01000143930111769
0.172,-0.029018373787998836,-0.010553152024940315,0.01936143625774899,0.020560199971901512,-0.024016158963236677,0.004414140643304941,0.024310787038542607,0.010082311576130439,-0.029281479271586124,-0.03377033716315611,-0.058880381348550934,0.009992475070768413
0.174,-0.028989476027817405,-0.010970025693803731,0.019172816075693877,0.020257624143630575,-0.023282238737803784,0.003949435926086494,0.020179929958204668,0.009074090519241188,-0.02898928444522822,-0.03795542562423237,-0.05824560046704086,0.009995620223222253
0.176,-0.02898494620399913,-0.010248046560235417,0.019871296976383963,0.019867333652224345,-0.02361175492297398,0.004730907321965898,0.018632571495251635,0.009292395919836063,-0.02906088824328089,-0.040571117531177876,-0.05870092328601061,0.009782618302377501
0.178,-0.028998552685351685,-0.009650784668998415,0.020338692201776788,0.019807624608728855,-0.024156167096000828,0.0053825931513881,0.020488414564122592,0.00873476864900188,-0.030462740454002935,-0.040365530156489596,-0.05926368372212541,0.008470798525110136
0.18,-0.029007523895314618,-0.009706806427589792,0.020225876663769536,0.019977866463338878,-0.02427484913127797,0.005320494621821631,0.024659567001630515,0.005585828260422131,-0.03385988834469648,-0.03889909584883817,-0.05928787695539598,0.005193757457812959
0.182,-0.029004383656092873,-0.010045425158410365,0.0199277620173111,0.020091950730499464,-0.02404870263728268,0.004949423537114658,0.02874965594201444,0.0010089157953429191,-0.03809626941096805,-0.03823498205206361,-0.05899382858660524,0.0009656136437168721
0.184,-0.02921738411482848,-0.010398111581249425,0.019844698333815983,0.02025293665096105,-0.023985434881040702,0.004694251865206618,0.030349975627193063,-0.00211138015635975,-0.04058951733230109,-0.038905034651202854,-0.0590376522192226,-0.0015892365899250857
0.186,-0.030529200512447126,-0.011592746103445505,0.01996549521624144,0.02135575768705956,-0.024680864837637168,0.004168067626193224,0.02854167504436944,-0.0038553961248469454,-0.04029745837593356,-0.04079473144838805,-0.06030639162616099,-0.0013310947208400033
0.188,-0.03380624076334601,-0.014738220988437287,0.020068037917529882,0.02428466485213592,-0.0264302494838617,0.0026720003779475013,0.024364329396317157,-0.007886865735447458,-0.03885654087575727,-0.04410224330268483,-0.06337844256311795,0.00012723984994625912
0.19,-0.03803438603183867,-0.018967356375531368,0.020051214536886755,0.028122608780396453,-0.02857573154166028,0.0005552936840743051,0.020245337587300002,-0.01582940813098711,-0.038251804029477005,-0.04803108777292871,-0.06719430832055333,0.0007588049910060255
0.192,-0.04058923740570767,-0.02159435557397708,0.01998732342201999,0.03044867176178828,-0.029807752419718486,-0.0008010057052039495,0.018437135629906176,-0.02449577580509038,-0.03893629292653491,-0.05064576729973852,-0.06965114371690913,7.76257282405496e-05
0.194,-0.04033109528755936,-0.021370106901910497,0.0199660075429449,0.030211299719516287,-0.029639882470854334,-0.0007081432913817823,0.019074387407976873,-0.030648117430480723,-0.04080048191854271,-0.05178771179920952,-0.07069664763491422,-0.001799623219777365
0.196,-0.03887275997555838,-0.019888594517685806,0.019990686522059396,0.028881824052646367,-0.028916958996964788,4.676602719173883e-05,0.020315806405807255,-0.034750015613606494,-0.04408793166371769,-0.05373210042701042,-0.07267525783657931,-0.005095117240727608
0.198,-0.038241194616373465,-0.019227467926139268,0.020014102188984306,0.028308061611873436,-0.02862532782655769,0.00039459834133966754,0.020630641337063126,-0.038141269692169424,-0.04802111358792286,-0.057340543142562705,-0.0763602614440092,-0.009025014423428079
0.2,-0.03848358176567931,-0.019885237294607543,0.019573025577175586,0.028730372376937294,-0.028557191961835034,-0.00016412804680559254,0.020132719842013515,-0.039978481803374634,-0.05064881328003259,-0.06049172139682606,-0.07955450361267347,-0.011646755194726455
0.202,-0.03773451566723999,-0.021646600230864593,0.016932841060725692,0.029244179185925617,-0.026991519072076964,-0.002432798548471559,0.019723927749824816,-0.038607069002999685,-0.05179460987192126,-0.06194299131261731,-0.08110550937587208,-0.012791498040590842
0.204,-0.03448162845074903,-0.024622847373508613,0.010379081941041432,0.029262618042581404,-0.02240942775644095,-0.00736349000317138,0.019796850429391617,-0.034196198977666736,-0.053733733061732104,-0.06346961932251409,-0.0829325574175401,-0.014733369825862324
0.206,-0.029959421144249054,-0.02812562239227056,0.0019319776125225757,0.02899238550043304,-0.016345711580810152,-0.01354945564160451,0.020053414134857582,-0.029370680687320728,-0.05733755853911145,-0.06637334273657661,-0.08626307346793285,-0.018339083236726714
0.208,-0.02736065032853361,-0.030485205218164307,-0.003283210804915548,0.029072662458400275,-0.012696853570517022,-0.017496309016634123,0.020136154633489785,-0.026921172477888482,-0.06007255202681198,-0.06898608628063779,-0.08914808961796267,-0.021292874739080547
0.21,-0.028471981714728596,-0.03165492576825864,-0.0033168083423885785,0.030466672123816235,-0.013212188768550414,-0.018248767595441792,0.02003583525148977,-0.026469235252041867,-0.059031661219715904,-0.06939414326014244,-0.08953619884577729,-0.021563825567746366
0.212,-0.03245896732449677,-0.03374587303206153,-0.001274688378212911,0.033965038961612556,-0.016058619859310754,-0.018549743946342095,0.019942825523476947,-0.0250453278547624,-0.054338318509190346,-0.06822030669605147,-0.08821017642874962,-0.02014437130151861
0.214,-0.03761934108337298,-0.037416748011245525,0.000278643485976338,0.03885822861071454,-0.019219588280059742,-0.019993579082116592,0.019953144747067865,-0.021648226555571533,-0.04921146715727898,-0.06737016663705792,-0.08729064409569254,-0.019244145969625384
0.216,-0.0427795309994803,-0.040323549684419153,0.002486041162980882,0.04299330884838376,-0.022621657070039915,-0.020605973879451293,0.01978942679881456,-0.018743700784960377,-0.04718727932034329,-0.06757556114200927,-0.08754270410371176,-0.01955640763778623
0.218,-0.04707830740275748,-0.0405366095506844,0.006515069025116593,0.044816413248629255,-0.02641990243244777,-0.01854208061924163,0.018497229886843977,-0.01846511952889194,-0.04939637286135277,-0.06813639789328554,-0.08816358538485794,-0.02019550544585117
0.22,-0.04960697555306827,-0.039114760005072684,0.01046322039873224,0.04465163488412911,-0.029405423740122304,-0.015260207531196624,0.015202666470713198,-0.019859901114110963,-0.054267477793850605,-0.06829560834600895,-0.08832639678130089,-0.02033416471416348
0.222,-0.050035297910120874,-0.03824483229362386,0.011791125802806446,0.043916617218838425,-0.030279550541044708,-0.013567416239115868,0.010955444771038832,-0.02074492483070009,-0.05884473694252101,-0.06806695075325843,-0.08806684225160216,-0.02005313302550763
0.224,-0.04924984891639248,-0.03857287057813262,0.010693092547927784,0.04365266650646281,-0.02946799349480136,-0.014136605864702723,0.00862044058208725,-0.02032593906927167,-0.060926309163404815,-0.06809027282188532,-0.08807344349244169,-0.020040716484261107
0.226,-0.048616025650619475,-0.039202988846338695,0.009420367895840484,0.04388863470887626,-0.02858664549345864,-0.015314321263020037,0.01020236621148281,-0.01893016946139514,-0.061340065735717486,-0.06943439242204906,-0.08942641868552009,-0.02127549212005889
0.228,-0.04868922057763786,-0.03932875619735148,0.009355173422850145,0.04413306141852272,-0.028557189542268605,-0.015608006944297722,0.01493972148553039,-0.01639148942350941,-0.06294702418800167,-0.0728303124623026,-0.0928356867152942,-0.024362011574440436
0.23,-0.04905599410727514,-0.03904646691618061,0.010003000353097678,0.044121976062955565,-0.02900937178889923,-0.0151215874126077,0.019793846993100078,-0.012152632125766661,-0.06645229933461715,-0.07709761264213709,-0.09710452997282003,-0.02820332266852547
0.232,-0.04919336065752553,-0.0390624238072676,0.0101307069212993,0.04409494745481612,-0.029133452879650256,-0.014926434940627878,0.021883166877557578,-0.006455211392764731,-0.06930850094145033,-0.07960629914992824,-0.09960667014313425,-0.030445019995916624
0.234,-0.049061419883807016,-0.040432274334591234,0.008632597505432726,0.044692833186966936,-0.02834431776000548,-0.016184087648183507,0.021062190820862435,-0.0001898797448637959,-0.06950494518240559,-0.07930474123315738,-0.09930114355596885,-0.030165514074065754
0.236,-0.048924070639460554,-0.04384449734231494,0.00508134756321653,0.04637645143463506,-0.026516996626833784,-0.01938058617707395,0.01958519827682171,0.005755434173676285,-0.06809730734658705,-0.07785086133334707,-0.09784894048091883,-0.028861948679472803
0.238,-0.04893035234216129,-0.04810554283427139,0.0008237731708277494,0.04854363611498898,-0.024385350119189117,-0.023261960226053202,0.01925036569576212,0.010122786348432552,-0.06725097153897831,-0.07724511674560242,-0.09724616258832876,-0.0283235540715577
0.24,-0.04878878790697609,-0.05038294957206967,-0.0015956249313953785,0.04960239850127272,-0.023114683779252316,-0.0253751100091412,0.019644646894538143,0.01156823894851189,-0.06758575556381345,-0.07793619817338818,-0.09771834976882493,-0.02874861858915958
0.242,-0.047509350921209316,-0.04876597140173167,-0.0012567538607707496,0.048131538759936636,-0.022773199548768795,-0.024529025036977375,0.018806387737548724,0.009965250133070981,-0.06820631352996305,-0.079804086066181,-0.09827170077664621,-0.02924443991353751
0.244,-0.044208798858828176,-0.044043305286908814,0.0001662284012047693,0.04411410926002602,-0.022167247249188615,-0.021918306681913795,0.015428073608198319,0.006319982960145127,-0.06832343944759003,-0.08308970491095602,-0.09828219629699646,-0.029252785211532406
0.246,-0.03995175871195136,-0.039215324673662615,0.0007368578215391964,0.03958117895900347,-0.02075060620067474,-0.019713239084394873,0.010894629760271654,0.001577061676835493,-0.06804208960592135,-0.08701999372047503,-0.09798674010108413,-0.02898754653034701
0.248,-0.037615333933225116,-0.03734987287169263,0.0002652624700292569,0.03748799224276951,-0.019579133982957513,-0.01921386430209441,0.008468629119696962,-0.0036777741565776696,-0.06784381355760323,-0.0894279144607456,-0.09783990985301887,-0.02865886431621758
0.25,-0.03920193883912065,-0.03947187472535926,-0.00027026201283799614,0.039340770078119376,-0.019945016596528062,-0.020329442647351356,0.010163096825228016,-0.008960842732748307,-0.06790247912185048,-0.08926194941836268,-0.09793082499878254,-0.027558919593847014
0.252,-0.04394230418384047,-0.04421482264371698,-0.0002725658597807201,0.044077467889675245,-0.02184013734692129,-0.02222129603477374,0.015003798661268145,-0.013982656996450626,-0.06803864291909735,-0.0879277576972628,-0.09805431104004245,-0.024722817679942333
0.254,-0.04879531382865386,-0.048778394437818604,1.7074724939560644e-05,0.048784222563916145,-0.02392676607635757,-0.023899347729612257,0.019845872269272143,-0.018730563196865738,-0.06807166705114436,-0.08730518744690516,-0.0980636807317752,-0.020927539872678494
0.256,-0.05088245806723943,-0.05072590138157542,0.0001566567489740514,0.05080352060098781,-0.02483163450992944,-0.0246108732965593,0.021653649943225703,-0.023209971958674823,-0.06823253771096419,-0.08770352843917484,-0.09819823271553905,-0.018768645668621717
0.258,-0.05006105176732331,-0.049995561611549215,6.54531820488812e-05,0.05002942796605935,-0.024457245227458877,-0.024366839633838705,0.01949641201347811,-0.02704476826344839,-0.06949972113978423,-0.088232410729854,-0.09934491778492849,-0.02015011321007141
0.26,-0.048585041018234985,-0.04863918384852613,-5.421509784905547e-05,0.04861300771532098,-0.023806779416175,-0.023884054329053255,0.01476810743226235,-0.029442138620830182,-0.07278389061893974,-0.08827151811732095,-0.10230922491090458,-0.024424863853205546
0.262,-0.048250912189101214,-0.04831250166798198,-6.160382040086763e-05,0.04828152265719043,-0.023669447694387502,-0.02375567861502519,0.010230758804752212,-0.02996548005625215,-0.07703979805798944,-0.08800308121776765,-0.10614023326946602,-0.028821958425993964
0.264,-0.048644993749380104,-0.048864258984644214,-0.0002192326474683018,0.04875404977263379,-0.02374839675588398,-0.024054565869164036,0.008287786129899652,-0.029095834100456772,-0.0796040194513063,-0.08785354256175579,-0.10844369443166624,-0.030709828418922152
0.266,-0.047806255180191555,-0.04930513631568897,-0.0014988577432793015,0.048555520896067544,-0.022773143548333503,-0.02487119087224976,0.009005981129885175,-0.027292414305181666,-0.07933520251024884,-0.08792841897273182,-0.10819930962009887,-0.0299590353241552
0.268,-0.04442782100474312,-0.049218553550494565,-0.004790739156266789,0.04682341841979484,-0.019775783923474153,-0.026483062773871115,0.010354083450542863,-0.024366686310625156,-0.07786665489891567,-0.08804572209869169,-0.10687881412579722,-0.0286199678122472
0.27,-0.039894581442666055,-0.048938105998484915,-0.009043540479041906,0.04441654954748539,-0.015836035936054073,-0.02849730209187765,0.010683440517077317,-0.020898418723275317,-0.07723603709172294,-0.08806089120927849,-0.10631316680778437,-0.02832045189001556
0.272,-0.037468743892160566,-0.04907080951932481,-0.011602069625455395,0.04326974888027336,-0.013608376056529588,-0.029851288185486026,0.010137476973771178,-0.01874878723580506,-0.07792324234693505,-0.08822352709426724,-0.10673445322980632,-0.028878971308246272
0.274,-0.0391631780148882,-0.050495413632180235,-0.011332228837420803,0.04482917020802172,-0.014552414015006869,-0.03041737249335273,0.009697907317551789,-0.01887112016547042,-0.07980285265592249,-0.08950129789490988,-0.1072433423599296,-0.02930834554377331
0.276,-0.04400377480788746,-0.0538700788032429,-0.009866298574956873,0.048936881989723326,-0.01754905031847037,-0.03136178299728959,0.00978195290237794,-0.02005000946594638,-0.08309618606737504,-0.09278956112647281,-0.10725999133128448,-0.029212184431940826
0.278,-0.048845816568500296,-0.05808330515235791,-0.009237489694712175,0.053464608005242324,-0.02022286771537367,-0.03315540088089612,0.010060474929466694,-0.020614532753795968,-0.08702376257492656,-0.0970416461397922,-0.10699158752667089,-0.028933289026034217
0.28,-0.050653636354832096,-0.0603583673034126,-0.009704734437223347,0.05550604880511723,-0.02094596271769894,-0.03453266022725297,0.010147632477873716,-0.020467328372610626,-0.0894261777528006,-0.09960180766359164,-0.10685431855481693,-0.02907195977198823
0.282,-0.04849643592012693,-0.05876636523462826,-0.010269930374649003,0.05363139728766199,-0.019643494704498717,-0.0340214043566919,0.010037458867069866,-0.021177466698630912,-0.0892590631196006,-0.0993331374951883,-0.10693505637207154,-0.030498586222158598
0.284,-0.043768126266890486,-0.05405690852887274,-0.010288780864533106,0.048912490190637564,-0.017269535949363677,-0.03167379474705313,0.009937338590964118,-0.02408353997585076,-0.08792732680498144,-0.09786687555837613,-0.10704847022287876,-0.033870967757395634
0.286,-0.039230754754786594,-0.04922160739991126,-0.009990851399079109,0.044226169876953436,-0.015117734377052971,-0.02910490600865024,0.009949639013958421,-0.028123615930160457,-0.08730655674973148,-0.09723726941786702,-0.10705858283924381,-0.038081999578862574
0.288,-0.037507170123803175,-0.047126054030364295,-0.009618884074002087,0.04231662157478879,-0.014404871693080752,-0.027871318467130115,0.010010143066558591,-0.03055869906749142,-0.08770441764117734,-0.09748491814074738,-0.10680407222809177,-0.04035725880990137
0.29,-0.039538531367810534,-0.0479337797409901,-0.00839524913315465,0.043736166203341434,-0.015911322850537653,-0.027664687062475976,0.01003232737446226,-0.03026325998849224,-0.0882320882009523,-0.0967372960657073,-0.1055894623320688,-0.03876654817173605
0.292,-0.044160832845522226,-0.049407844973948116,-0.005247012400055177,0.04678433881313363,-0.01948231926569299,-0.026828139043890264,0.0100099054634296,-0.028846610548796815,-0.08827087880158424,-0.09348222723022465,-0.10265817462013063,-0.034057600785153797
0.294,-0.048716241475892416,-0.04974851033998225,-0.0010322685790987458,0.049232370050419694,-0.02344546581131121,-0.024890634559009122,0.009987089484456025,-0.028262895824546386,-0.08800295185709578,-0.08895818982579665,-0.09888000546487503,-0.02922183821588863
0.296,-0.050725679689634005,-0.049139216493171704,0.0015864634808240906,0.049932445346249306,-0.025497159582670133,-0.023276105920666045,0.009988427623559844,-0.02861831940736669,-0.08807322586840176,-0.08625003731202652,-0.09636436726081836,-0.027125786503859706
0.298,-0.05002937339187843,-0.048663228735700115,0.0013661446364787954,0.04934630294913752,-0.025060879861514798,-0.023148279046637705,0.010001517994569213,-0.028413666357980295,-0.08946118056379143,-0.08659624162721011,-0.0952702071168732,-0.027933525996620103
0.3,-0.04865545464038081,-0.048764439764800306,-0.00010898528901191079,0.04870994960123044,-0.02378415174846481,-0.023936734567110478,0.010007040397497599,-0.026149046471470438,-0.09285240910556225,-0.08818023157272742,-0.093300446019937,-0.029407869767637995
0.302,-0.04830182150522861,-0.049071034713655766,-0.0007692132762950097,0.04868642822628549,-0.02334337874664179,-0.024420278049444327,0.010002534472617623,-0.02167045784696635,-0.09709354702778242,-0.0888237593826951,-0.08964622163070415,-0.02974866065684291
0.304,-0.0488502782375041,-0.049162233702645386,-0.00031195540773676876,0.049006254716891795,-0.023800420062478806,-0.024237156112190874,0.009997368492654368,-0.016046892922521896,-0.09959229832292858,-0.08851852262328823,-0.08690064441169441,-0.029139274762120845
0.306,-0.049304286784788445,-0.04903867046546217,0.00026561638378289445,0.04917147796277238,-0.024258336427316556,-0.02388647237271838,0.009997359926965984,-0.010179691977714669,-0.09930027246252318,-0.08923104324036671,-0.08796387269157785,-0.02866317453670733
0.308,-0.04922577739228761,-0.048929949083326436,0.0002958283084221998,0.049077863605322146,-0.024231160017238226,-0.02381700068187278,0.010000175031520554,-0.004467010287146925,-0.09785636744094012,-0.09250077273181687,-0.09267404752254094,-0.028764382077677907
0.31,-0.04894202010805203,-0.048945448184637814,-3.4281120187102613e-06,0.048943734683351704,-0.023969639355188536,-0.023974439463341667,0.010001524354107831,5.717901608789933e-07,-0.09725018548546503,-0.09705096811101299,-0.09779689900674886,-0.029071036736786154
0.312,-0.04884934068544735,-0.04901217392475435,-0.00016283325593756943,0.04893075736104313,-0.023859570045774006,-0.024087536801195124,0.009781236389357007,0.0017381201899455256,-0.09771621825838,-0.0997636143032198,-0.10022684560548545,-0.02938166235709639
0.314,-0.04895973374960592,-0.049035584457039226,-7.585069604040098e-05,0.04899765883698654,-0.02394954206363721,-0.024055732722226972,0.008466916425678397,0.0009370674104240184,-0.09826848726155088,-0.09940528140646418,-0.10050961651830534,-0.030571238721480633
0.316,-0.04906297226443221,-0.049010352937710486,5.261934123929232e-05,0.049036662443325656,-0.024052523244887658,-0.02397885590871065,0.005192657296732817,-0.0003872191683275706,-0.09828182456121051,-0.09781304590224511,-0.10186402365689895,-0.03373668271243165
0.318,-0.049052041522198275,-0.04898552575672238,6.651576619290904e-05,0.04901878370945812,-0.024052613552216804,-0.023959491528476557,0.0009672066987554372,-0.0006729429445117426,-0.09798831622988088,-0.09717219841791731,-0.10532014786503596,-0.03797823177991432
0.32,-0.04920988621541301,-0.04920683271127241,3.053496560506661e-06,0.049208359582862994,-0.024106163848323283,-0.024101889117547966,-0.0013684790691368763,-0.00011714207489458065,-0.09762146935647067,-0.09770261144762747,-0.10829067822337655,-0.04060037695064521
0.322,-0.05049961177046019,-0.05053445180580733,-3.4840039359098566e-05,0.05051703180702377,-0.024735876930832866,-0.02478465303776439,0.00020124001131523116,0.00030572665477102644,-0.0963978675067958,-0.09830454664268247,-0.10856854900903848,-0.040367060155140085
0.324,-0.05379619989131347,-0.05381450722003539,-1.8307326501612282e-05,0.05380535349947233,-0.0263907807470319,-0.026416410939168387,0.004933136741917786,0.0002089224407708484,-0.09324685222970922,-0.09830647350624447,-0.10713741325252224,-0.03888385910336553
0.326,-0.05804573733316545,-0.058035468789230694,1.0268547184712936e-05,0.05804060302404415,-0.028526974014511288,-0.028512597989137307,0.009791316354213386,-6.66882791831789e-05,-0.08903076316536651,-0.09798041136199981,-0.10623541801963172,-0.03822686919545552
0.328,-0.060380742704773935,-0.06036584718367523,1.4895521439395376e-05,0.060373294957148625,-0.02969632653513959,-0.029675472812245498,0.011666155348147208,-0.00014560686406871572,-0.08663230106669022,-0.09782363829430261,-0.10655643968658556,-0.038690078349328375
0.33,-0.058797553886702325,-0.05879604277966739,1.5111054240811619e-06,0.058796798359633855,-0.028899381070385075,-0.02889726555856256,0.009532157040901483,-3.311240714594434e-05,-0.0881669290491393,-0.09792650657725174,-0.10720079862838974,-0.03926872570425198
0.332,-0.05405959460130659,-0.054067001651578864,-7.4070512276191235e-06,0.05406329813202328,-0.026526835980898406,-0.02653720586581723,0.0047783561707274,6.362613782780524e-05,-0.09291632275762016,-0.09806112809904757,-0.10733680359507863,-0.03929620362144637
0.334,-0.049205869936978786,-0.049210232594472034,-4.362657070494691e-06,0.04920805125395716,-0.0241011907944719,-0.024107298501154534,0.00021614716320522784,4.844929388664076e-05,-0.09780200947367583,-0.09806929359415492,-0.10705148266183227,-0.03899505432930637
0.336,-0.0471170711402247,-0.0473345089900357,-0.00021743784908771397,0.047225790056463594,-0.02297156003603523,-0.023275973011241683,-0.001505389923809426,0.00020781412545313113,-0.0996804387169024,-0.09778034070371447,-0.10664355048021823,-0.038836237057841894
0.338,-0.04793807734734224,-0.04946731498598566,-0.0015292376385286465,0.04870269616894651,-0.022857342944807818,-0.02499827563950409,0.0005405037304963647,0.0015005826649892742,-0.09753314404968277,-0.09642950599049707,-0.10551671410273142,-0.03892453340205503
0.34,-0.04941479992313864,-0.05422102909555672,-0.004806229172757959,0.051817914515167526,-0.022284908186044866,-0.029013629035643387,0.0051686292693089815,0.004797794450976857,-0.09277103284822918,-0.09317527736929915,-0.10271101569664666,-0.03905331015897723
0.342,-0.04974948709879285,-0.05878384733353853,-0.00903436023497066,0.05426666721769992,-0.020760999772093905,-0.03340910410433597,0.009718889108800897,0.00904596911331927,-0.08821211051131955,-0.08897932094751942,-0.0989449352251921,-0.03906663612729698
0.344,-0.0491358875675166,-0.06092257556275545,-0.011808627615849313,0.05504020137303705,-0.01932255332607313,-0.035876571606296384,0.011503293445783413,0.011599379421470032,-0.086057886045431,-0.08642739575030042,-0.0965859386377838,-0.03900273399226977
0.346,-0.04866110561822984,-0.061371510594746714,-0.012863660362492195,0.05509293579755166,-0.018531833205153593,-0.03669421309571852,0.009493946449897312,0.011329618485464429,-0.08547858687605202,-0.08666936937469524,-0.09676836685484556,-0.038964941664030514
0.348,-0.048765242320048176,-0.06296408093915927,-0.014679513065159088,0.0561049988530206,-0.01753014133884806,-0.038562134076139745,0.004848969571866656,0.009866519836446909,-0.08355553571620358,-0.08811838486693604,-0.09808957541613228,-0.038981762764021335
0.35,-0.04907257669276328,-0.06644328627327324,-0.018273989243041164,0.058209571315521645,-0.015823412955264522,-0.04231027755964567,0.000270716687743631,0.009239019911883736,-0.07965174337800177,-0.08875432210011572,-0.09868937410743929,-0.039010421155807544
0.352,-0.04916253226322299,-0.06909743099075055,-0.021071779440720674,0.05969842198396016,-0.014515673708494261,-0.04515304563944546,-0.0017372585574636369,0.010012499294868993,-0.0767647218708909,-0.08851910923968233,-0.09848146757245003,-0.03923432637252859
0.354,-0.049037971580391276,-0.0681240628822436,-0.020065982789394646,0.059070962974593105,-0.015012701235713638,-0.04408496862789734,-0.0010277868331191025,0.012524660258384144,-0.07789650665950074,-0.08926921633685228,-0.09914338897663894,-0.040533998232663536
0.356,-0.04892945232606551,-0.06377790994531563,-0.01535513344014575,0.05660701904569605,-0.01731599695318059,-0.039319859589627304,0.0003516220496320413,0.017893605495497268,-0.08271616184737621,-0.09251868561436045,-0.10205955266762387,-0.04379928662757267
0.358,-0.04894559230403881,-0.05912550611094282,-0.010200768701230586,0.0540459766547132,-0.019871633744398466,-0.0341735648204149,0.0007006928856049895,0.025916127525923746,-0.08785374450149858,-0.09703869222874584,-0.10613075596859424,-0.048028446129618485
0.36,-0.04901251385609381,-0.05715466639199594,-0.007953596679044477,0.052989312195885645,-0.02101337410465754,-0.03195985359880275,0.00014706085731852386,0.03374814234019346,-0.09003353187050714,-0.09974797522585371,-0.10837774282282958,-0.0503707990114144
0.362,-0.04903566817754881,-0.05800496569093976,-0.008862833439190778,0.05346708489724072,-0.02057916480107736,-0.03288066754192496,-0.0003069299407393559,0.0385058816070151,-0.08910126999910678,-0.09940451058756389,-0.10688794620823718,-0.04880224047329462
0.364,-0.049010207418753886,-0.05943677276808797,-0.010468059020162958,0.054244236928734334,-0.0197763864417737,-0.03447316274073116,-0.00022558779025481695,0.039852786637039395,-0.08752181961987884,-0.09782121233067255,-0.10251343919513912,-0.04406725968148688
0.366,-0.0489854105606641,-0.05972628429379008,-0.01081597730909185,0.054393399215109085,-0.019591210778602985,-0.03480868258715128,5.951288815015507e-05,0.03939940268509582,-0.08719877787119612,-0.097176519803516,-0.09812781236113967,-0.03920697361766018
0.368,-0.04898746089352815,-0.05911238535646885,-0.010138579727534035,0.054056750757302076,-0.019924643283979755,-0.034132310167105245,0.00015128808726367406,0.03858920006786049,-0.08787399158160336,-0.09770021896647159,-0.09629985101992741,-0.03711341530436858
0.37,-0.04900197245921809,-0.05866202157483505,-0.009626106931193267,0.0538150259248731,-0.020184485639287583,-0.033627093158606826,3.9729994905864276e-05,0.037215146623687696,-0.08837184554264366,-0.09830104558156749,-0.09707299875220088,-0.03793572881542981
0.372,-0.0490077850418271,-0.058778378703701346,-0.00974705640450245,0.05388131324410243,-0.020128607219317987,-0.033750948928292626,-6.357154535698733e-05,0.034185004149672085,-0.08824510512384046,-0.09830610684053111,-0.09839005062365076,-0.039415673210621054
0.374,-0.049002642143581236,-0.05907837487034968,-0.010082989810207131,0.054044137048664447,-0.019960868066860198,-0.0340843108845699,-5.203512446974397e-05,0.030096030939016843,-0.08791438349098041,-0.09798214683310813,-0.09866685162638895,-0.039751185877406565
0.376,-0.04899701355243146,-0.05915815763229813,-0.010177430582547331,0.054085728843682235,-0.01991124804020744,-0.034175937358421817,0.00022923629583527323,0.027475067599787205,-0.08782559240019269,-0.09782466734839797,-0.09810949689345017,-0.039136222423897214
0.378,-0.048997131629518985,-0.059032723384040496,-0.010039405126877315,0.0540168341929578,-0.019978990390091274,-0.03403797094007012,0.0015656501334935715,0.027628117804896452,-0.08796347226623233,-0.09792605102280037,-0.09769307502830958,-0.03866033850087611
0.38,-0.04900025968331055,-0.05892933156711274,-0.009922006701569883,0.05396126303410805,-0.02003839234268224,-0.03392213654266305,0.004817182533841407,0.029072909420297142,-0.08807771798672628,-0.09806034892247405,-0.09779478728635767,-0.0387646931638457
0.382,-0.049001689375679086,-0.058948397516486895,-0.009941253547983541,0.053972316149676756,-0.02002979786204674,-0.033942098236409576,0.009019720907181132,0.02975524076699598,-0.08805704468750192,-0.09806917002343074,-0.09806926580754094,-0.039072733019507346
0.384,-0.04900066522312733,-0.0590139194372849,-0.010014504680656438,0.0540079175634515,-0.019993280273392616,-0.034014837292807,0.011356865188028678,0.029127525229609708,-0.08798483270740845,-0.0980001031012762,-0.09834230871921794,-0.03916290662078225
0.386,-0.048999395815300495,-0.059034808757843164,-0.01003898686493792,0.05401888924776429,-0.019980529239247306,-0.034038684772548435,0.009800346499233531,0.02736892022514994,-0.08796162532788637,-0.09796230220000071,-0.09941063747786706,-0.03903806508291736
0.388,-0.04899934838052118,-0.0590090299096547,-0.010010706166154341,0.05400470146359808,-0.01999436708644032,-0.03401038035607566,0.0050739590326295304,0.024377595312095275,-0.08798994785345504,-0.09798193775007798,-0.10226200145123783,-0.03892929269234497
0.39,-0.04900001846852278,-0.05898531713368786,-0.009983837704598406,0.053991937320824655,-0.020007935112845147,-0.03398384693871942,0.00021120717874882882,0.020866118663450353,-0.08801614060309224,-0.09801194515585152,-0.1060818224251743,-0.038945465027721685
0.392,-0.04878096821863608,-0.058768662651437265,-0.009986437433227892,0.05377418693525145,-0.0198971661357159,-0.033876921542664036,-0.0018882185083032798,0.018510608864424852,-0.08823259149847178,-0.09801556261757602,-0.108441567387247,-0.039012540177796665
0.394,-0.04746761012953263,-0.05746975520127961,-0.010002341942752176,0.05246878110090794,-0.019232671416793863,-0.03323614700765152,-0.0010673619361795405,0.017347582180873667,-0.08953004832585497,-0.09800091478263269,-0.10823016920626218,-0.039035750207889595
0.396,-0.044193134994707534,-0.05420087503745828,-0.01000852005355174,0.049197395021482265,-0.017592379465132747,-0.031605087550904604,0.0004150885081210607,0.015257609273319053,-0.09279834669704232,-0.09799194406242666,-0.1068947146386378,-0.03901023223657075
0.398,-0.03996705630310615,-0.04996958275416476,-0.010002791589660866,0.04496845209793647,-0.015482146377013858,-0.02948631974114092,0.0007525932867392158,0.011583546653064429,-0.09703015272361047,-0.0979956528265198,-0.10630392087123255,-0.038985377649143234
0.4,-0.037411792195855935,-0.04740877504436907,-0.009996683823029175,0.042410134107371086,-0.0142075215941652,-0.028202579920922757,0.00013721376547763328,0.008674690675524413,-0.09959152332307879,-0.09800231986601597,-0.10652390302782502,-0.03898743162952181
0.402,-0.03766860939072914,-0.0476657894905009,-0.009996892576485956,0.04266705567897244,-0.014335835188078858,-0.028331197271873946,-0.00033995603617813317,0.008462389143047169,-0.09933449738209926,-0.09800348044919502,-0.10586283540305216,-0.03900197644171007
0.404,-0.03912653708503495,-0.04912683667622785,-0.010000325439510922,0.04412669980479024,-0.01506311251842515,-0.029063593982058336,-0.00023598852140084534,0.009885721994246883,-0.0978731375237567,-0.09800039644810632,-0.10294048957508228,-0.039007802914133964
0.406,-0.03975863078520696,-0.049760312771723755,-0.01000185124125583,0.04475955640583461,-0.015378405641364001,-0.029381166633860825,7.256814503303239e-05,0.0107559443724085,-0.09723951835170351,-0.09799829000299913,-0.0988658674196054,-0.03900264850703519
0.408,-0.03951671844697607,-0.04929796215508746,-0.009781310447416345,0.04440737367068421,-0.01534576830520104,-0.02903966967088876,0.00016319987923573662,0.01053693546529638,-0.09748257505299605,-0.09799896686078743,-0.09662062126958226,-0.03899700683863107
0.41,-0.04026572301319636,-0.048732556911032336,-0.008466773409925724,0.044499109718159346,-0.016246212630529708,-0.028099634916515615,3.8295135062297214e-05,0.010672613900997947,-0.09673494958283965,-0.09800043970136127,-0.09811311508849076,-0.038997124949954984
0.412,-0.04351832172305502,-0.048710935605955345,-0.005192548569366241,0.04611459600773821,-0.01918220674731953,-0.026451709430898317,-7.075746012546503e-05,0.012928414716535837,-0.09348238509919224,-0.09800077383361307,-0.1024879604912266,-0.03900026015666234
0.414,-0.048040424802551544,-0.0490076558018505,-0.0009672328116405449,0.04852404120837178,-0.02313331746428468,-0.024487445212923026,-5.468447266449313e-05,0.01759611336489787,-0.08895954576313014,-0.09800012967003448,-0.10687227703136529,-0.03900169324697164
0.416,-0.050529605175094916,-0.04916116140516922,0.0013684072611336896,0.04984540154452802,-0.025312128983209725,-0.023396395326414483,1.2496137596060024e-05,0.023156619317227466,-0.08625059882919733,-0.09799963963846568,-0.10850197125114847,-0.03900066681394959
0.418,-0.048871501368655715,-0.04907274497943446,-0.00020126006034046153,0.04897213139882593,-0.02385523021062668,-0.024137010744664997,3.581075772397755e-05,0.0275766395424512,-0.08659576987194495,-0.09799975710763183,-0.10654730953174053,-0.038999394462509746
0.42,-0.044013690368818664,-0.0489468095664348,-0.004933107131128804,0.046480243934383075,-0.01953361439844316,-0.026439952315536152,1.0285192252442577e-05,0.029716334293877964,-0.08817969980355844,-0.09800008063899227,-0.10228408507264855,-0.03899934686620543
0.422,-0.039143600301069136,-0.048934906310851935,-0.009791291269258172,0.04403924593569822,-0.01515529838335677,-0.0288630914197936,-1.463009977901331e-05,0.02981131166999578,-0.08882376282846047,-0.09800017106962804,-0.09820394427102419,-0.03900001848345209
0.424,-0.037112381235433665,-0.04899793742373334,-0.011885555732381196,0.043055159101624246,-0.013301968780684308,-0.029941746350099524,0.00020679523594657105,0.028875547777103352,-0.08829941826112409,-0.09800003770564616,-0.09646115727963833,-0.03921976146593384
0.426,-0.03796981853600846,-0.049034537296562805,-0.011064726587030681,0.043502181829523784,-0.014059010806715861,-0.029549635855035148,0.001534518960065755,0.02727170891528586,-0.08769862689960267,-0.09799992465359729,-0.09710845013174903,-0.04053271824223105
0.428,-0.03943252009503126,-0.049017621951649125,-0.009585105843776996,0.04422507301691975,-0.015382213722845012,-0.02880136589129191,0.004814559747746523,0.02447675658370619,-0.08769393469189582,-0.09799994343358089,-0.09831896695181222,-0.04380662364774998
0.43,-0.039740629209537956,-0.048989569294047845,-0.009248937717904877,0.0443650980684904,-0.015670741884211588,-0.028619252322673375,0.009035457231698078,0.020962154962034657,-0.08801805173971558,-0.09800001409906861,-0.09861356207102152,-0.048032649211184046
0.432,-0.039121986277538615,-0.04876600484080379,-0.009644015256959296,0.04394399390601828,-0.015225329962980094,-0.028726948016417227,0.011365812997567927,0.018806906514376394,-0.0881754048356454,-0.0980000376041012,-0.09812283709825924,-0.05036880264919283
0.434,-0.03865929958328175,-0.0474661651847023,-0.008806865313659294,0.04306273224011141,-0.015460159340074072,-0.027789770491435842,0.009796032757725085,0.019544912928802817,-0.0880738750904328,-0.09800001026758796,-0.09772852778742712,-0.04879899318154865
0.436,-0.03877196592148875,-0.04420061067867427,-0.005428646424063184,0.041486289133520336,-0.017195197170323348,-0.02479530383088948,0.005067015520706104,0.02284149337341797,-0.08793957639264366,-0.09799998438292762,-0.09780444090697382,-0.04406679805858575
0.438,-0.039076773846698165,-0.039971415637553506,-0.0008946427440854297,0.03952409521874088,-0.019583808534944715,-0.020836309329894415,0.00021024468833444072,0.027530265978542898,-0.08793083462471013,-0.0979999869371687,-0.09805452941324193,-0.03920852524415309
0.44,-0.039160867826547374,-0.03740979479650627,0.0017510734843802214,0.038285331084357284,-0.020939684095193888,-0.01848818076272247,-0.0018848890088639424,0.03271593496178349,-0.08799993987621207,-0.09800000228307683,-0.098132545049832,-0.03711440836455721
0.442,-0.03903488606931303,-0.03766527633275327,0.001369610473776896,0.038350080832424596,-0.020698434835075878,-0.01878097943457109,-0.001065246331234968,0.03791508729510131,-0.08803771579180289,-0.09800000821921417,-0.09803350248304217,-0.03793535639661015
0.444,-0.03892888683896308,-0.039126035061469694,-0.0001971481183147875,0.03902746089812047,-0.019872934543360234,-0.020148941804809098,0.00041428205135200227,0.04295161239711991,-0.08801804738997551,-0.09800000268001864,-0.09794368109954098,-0.03941495338689295
0.446,-0.03894700603181782,-0.03976020991876115,-0.0008132042394921878,0.03935360815156389,-0.019572355524359125,-0.020710841812197033,0.000751053543811918,0.04788080230981006,-0.08798803792767737,-0.09799999679470689,-0.09795482646324202,-0.039751045287799734
0.448,-0.03901349772941982,-0.039298350486743544,-0.0002848529825802737,0.03915592422070995,-0.01986307192337789,-0.020261866324246827,0.0001369184021732606,0.05271856191320487,-0.08798443741161008,-0.0979999970064278,-0.09800915937765735,-0.039136548095192174
0.45,-0.03892566852168141,-0.03873279852876082,0.0001928700777198556,0.03888408253454266,-0.020055695365862786,-0.01982955641363266,-0.0004489549476924284,0.056963536550553154,-0.0879990944630209,-0.09800000031930914,-0.0980290266661381,-0.03866057078235109
0.452,-0.03824324952750583,-0.03871083909417748,-0.00046758940323913053,0.038860182694463764,-0.019386805410665973,-0.020347941184038917,-0.0010017702930713963,0.059593243993708765,-0.08800806033787636,-0.09800000178618169,-0.09800886574164981,-0.03865492828433977
0.454,-0.036581877630376534,-0.03900747784611122,-0.002425600183947299,0.03899636383755481,-0.017579599683125325,-0.021936788801027854,-0.002221251032208005,0.06008646544930458,-0.08800434422973721,-0.09800000067892378,-0.09798839414042118,-0.03830629743150846
0.456,-0.03447135743822498,-0.03916112907248837,-0.004689771708268932,0.03907444244850955,-0.015392049872121802,-0.02376428966262394,-0.0033678647992736815,0.05927901811216632,-0.08788797822310089,-0.0979999993495302,-0.0981870747817942,-0.036759495048200586
0.458,-0.03320809932759506,-0.039072826650171186,-0.005864727375272341,0.03903751384980402,-0.014171489109130214,-0.024699748154865947,-0.0018199634506006997,0.05860170368621488,-0.08723024240795521,-0.09799999931879548,-0.0993806731684187,-0.03452173456164059
0.46,-0.03334199892507031,-0.03883716811810749,-0.005495169177821235,0.038867601646488406,-0.014477483912311535,-0.02439313525205129,0.003586796570358111,0.05875446350987883,-0.08559623329794822,-0.09800000002959595,-0.10233239224028085,-0.0331352448738461
0.462,-0.0340657413724409,-0.03816861187213609,-0.004102870463669664,0.038202413806469146,-0.015864308777886284,-0.023276517152753015,0.009945275447883158,0.05966620501142512,-0.08348531274455584,-0.09800000038588584,-0.10613178659957678,-0.0332797193861408
0.464,-0.03426659952640776,-0.03628737122286991,-0.001998832066869616,0.03637466583662774,-0.017781019818409773,-0.021444365303862845,0.013412013382308971,0.060929559596069216,-0.0820972327942672,-0.09778060396128437,-0.1082295603344337,-0.03407575407051837
0.466,-0.03337959325945116,-0.03226285626680154,0.0012699923633780628,0.03296690816572486,-0.019733050458154447,-0.017891896166313048,0.014053462826126142,0.061411693841888035,-0.08145785004428549,-0.0963577479049441,-0.10681665462253123,-0.03430536886335972
0.468,-0.0314635261081039,-0.02561812004139123,0.006326080500576181,0.028320371056246532,-0.02126517620381917,-0.011401082469555299,0.01548611751850235,0.060084558417414696,-0.07978312747228862,-0.09220758224762701,-0.10234084595655561,-0.03328294879878918
0.47,-0.029231365161160663,-0.017288887446622242,0.012823817758881756,0.02357438121947934,-0.02245093324706338,-0.0027440285004219824,0.020696271865507525,0.058564207805388485,-0.07558345238885048,-0.08492157917772503,-0.09654681109214798,-0.030682326875498298
0.472,-0.027356304869384805,-0.009153441417534002,0.019186488786752352,0.019559689727288988,-0.023561546182211148,0.005253658792594501,0.029195566283323482,0.06038926957528711,-0.06958113060350815,-0.07643207514421381,-0.09062084451340849,-0.02672598309724968
0.474,-0.025397657814663036,-0.0018641831051836577,0.024032691753321837,0.01549786128146613,-0.024336445354119083,0.011005342440573163,0.03740541159623264,0.066099816281924,-0.06354510635114503,-0.06998514150364758,-0.08472920304002232,-0.02220628164029168
0.476,-0.0225501122391036,0.005185646788600982,0.027339155182997402,0.01021040949168393,-0.024415956633937794,0.015584148368330648,0.042128297358952634,0.07170875153116013,-0.05772118522102311,-0.0672269796542108,-0.07898895729379556,-0.01753601853939349
0.478,-0.019069628969483207,0.011823121535448847,0.029754785062628453,0.004391902760304142,-0.02396644398330892,0.019986148173760765,0.044030494008868666,0.0737180888116238,-0.051163142737614214,-0.06640598650780395,-0.0738643178697801,-0.01279387528545233
0.48,-0.0158652962482582,0.01679436564657405,0.031337959164660284,-1.2739178422903433e-06,-0.02328434505284653,0.023291643975296525,0.04644334593406677,0.07320926644437188,-0.04471170842712991,-0.06489875044989848,-0.06987008279384825,-0.008700993897344094
0.482,-0.014009156187218007,0.018550214599430136,0.031465556447144015,-0.0016165428834421824,-0.022568309280738073,0.02413969097558666,0.050916057933503574,0.07383969182663136,-0.04081304239632757,-0.0626935252824923,-0.06743062978518738,-0.006096857730906995
0.484,-0.014799057652615199,0.01631461958873495,0.030231036355993477,-8.732071828652988e-05,-0.02246295799984801,0.02266173228455727,0.056127914135386744,0.07747717302886216,-0.039873917884896054,-0.061247090134043954,-0.06630188832145999,-0.004946205827763542
0.486,-0.018037557268768246,0.012347753258236852,0.02949014962537333,0.0033084840778329952,-0.023831078346508456,0.020977586667017104,0.06097244506954332,0.08250391780742812,-0.03981917249807638,-0.06056972092807828,-0.06532051176541086,-0.004583526833016988
0.488,-0.021046442173413893,0.011365245417162856,0.03139866005505169,0.00540277249111117,-0.026523849623029856,0.021754526390087653,0.06621041596380679,0.08654096166827001,-0.0392683301784757,-0.05962991860061012,-0.06379957416315755,-0.004083985169141354
0.49,-0.021552185159746204,0.01523192159299751,0.03572132063052061,0.004002642578439938,-0.029060712855387357,0.02541891647009476,0.07302400239709306,0.08991487271113764,-0.038667074957061565,-0.05804560508565097,-0.06249827152375704,-0.0027565095730285307
0.492,-0.02026280636441554,0.02037981090720558,0.03961984188184991,0.0006103604746271682,-0.030018713679718475,0.02933185056769983,0.08111320266072594,0.09414360329107642,-0.03865041321186085,-0.056089274013672044,-0.06230636831133678,-0.00134495791829821
0.494,-0.01920152874870167,0.02216158167680007,0.04038644776754049,-0.0013585417607580004,-0.029291472730687208,0.030418638619524277,0.08794131252634205,0.09834823473125602,-0.03900221429328287,-0.05430346148466679,-0.06289330971409936,-0.0015200292921718009
0.496,-0.01876039008783081,0.019475108084087915,0.03725904405941785,-0.00029169658138513083,-0.027350877266799446,0.027563218857710688,0.09043209996936243,0.10060077316463208,-0.03908369892824089,-0.0533852690794603,-0.06331377541597602,-0.003263925819497169
0.498,-0.017632080716082996,0.0146663354495692,0.03129692285739382,0.0024230942766126,-0.024290869331892576,0.02193043471709973,0.08789578783866911,0.1015655642438738,-0.0383270920760995,-0.053519656722045075,-0.06320986202615625,-0.004956806911411492
0.5,-0.015043457226783973,0.011277967602405634,0.025329804051438514,0.0038791264044355732,-0.020722454541035,0.016795825120832292,0.08248298699909075,0.10348953714919847,-0.03653625404979924,-0.054055921275734345,-0.06284368893500401,-0.006342833487040124
0.502,-0.011879168890592807,0.01089583088395953,0.021922594323708324,0.0027143481834211577,-0.01799249018399939,0.014945118424619666,0.0769521607537153,0.10632230078717117,-0.03451342118350469,-0.05438487402494524,-0.0622403344346801,-0.008343786110708903
0.504,-0.009786419177760583,0.01096349132612957,0.02023528142909943,0.0011665108837726128,-0.016618224865414265,0.014871168188614108,0.07210545302742463,0.10760700261093971,-0.03407656177553341,-0.054869125930787604,-0.06113232791250968,-0.010415046505733444
0.506,-0.009926246917511374,0.008403524751463337,0.018238383755568043,0.0021454646608395486,-0.016313833864009763,0.013126558437301556,0.06621777268056056,0.10622713741315722,-0.03665464227149056,-0.05630481038460046,-0.0600641790409643,-0.011093637175752399
0.508,-0.012141837609239326,0.004564017937825361,0.01686465989449837,0.004913697925316645,-0.01720820022841766,0.009933555260609725,0.05742963087376296,0.10387161392397323,-0.04188149562232138,-0.05841381265373623,-0.0603359536325568,-0.010383247057981871
0.51,-0.014799774795274475,0.003194634520172065,0.01810269889714756,0.006345516814803841,-0.019193238386465403,0.008517963965687794,0.045967334729938955,0.10200057972768532,-0.04815499322177659,-0.0599962390479162,-0.06206864362813607,-0.009615859662043303
0.512,-0.01606056685023283,0.005680543183636784,0.0215738200053863,0.0050491607297027076,-0.021269867592567087,0.010642964893512618,0.03364474391903667,0.0996129399283302,-0.05454632421074519,-0.06110313426379425,-0.06365371976928935,-0.009606012884506947
0.514,-0.015531319224782115,0.010459426098448755,0.025435136169701868,0.002223738187984533,-0.022646321655247898,0.01526878350851199,0.022542250291993086,0.09537838420143821,-0.06074056770805795,-0.06328799207105926,-0.06382717616716752,-0.01001706134987006
0.516,-0.014015719009425654,0.014810151471111184,0.02789405564301269,-0.00013825584560730976,-0.02308312783259172,0.019739623758605728,0.01394201047878152,0.09020244087596081,-0.06512428132603945,-0.06673051118203288,-0.06308165532134226,-0.010221794909903784
0.518,-0.012047692280398018,0.016719224897756554,0.027634845071239325,-0.001001083080911019,-0.022216303152345764,0.02167939234439402,0.007428917899306591,0.08631322968017009,-0.06579071490862044,-0.06925757516830466,-0.06260100764351463,-0.010096724655706796
0.52,-0.00940494930160986,0.01668580439120158,0.02500776657135794,-0.0012502942445454513,-0.019702416922847407,0.020881516169941623,0.001971956248572858,0.0852304526439746,-0.06360256116994768,-0.06922172974158751,-0.06276376737377606,-0.009815674432108226
0.522,-0.005462568934910587,0.017068397843359208,0.021695776360821373,-0.00291414470731372,-0.01547596467572587,0.018894865443686473,-0.001702872095993224,0.08782122278697387,-0.06121641299115943,-0.06727657042605552,-0.06301499315819414,-0.009145353137881706
0.524,-0.00026289115674561336,0.01866327489850843,0.018466806732993474,-0.006497763218014782,-0.010013022697723346,0.016812249891146994,-0.0020240024897144665,0.09398577413614735,-0.05941007716010591,-0.06491615614118561,-0.06256436370202817,-0.007595137353975235
0.526,0.004034498832111923,0.019027842799568814,0.014919368337074463,-0.009422709781640847,-0.005133746296841834,0.014466185596823616,-0.00035257079436239625,0.10045439353129638,-0.05699961886747153,-0.06313169903954921,-0.06119378146599388,-0.005531105237443825
0.528,0.004566374970323924,0.014935379416732116,0.010506478143006929,-0.00823300455840395,-0.002856851371998872,0.010892936566007264,-0.0008152453052810175,0.10190226378394376,-0.054045067200873625,-0.0626239452555644,-0.06013631713592782,-0.004229399249949391
0.53,0.0016282967949758738,0.005636316796505175,0.004118685671298508,-0.0022334572189333874,-0.0023795421691352446,0.004566439672573238,-0.005747427071650187,0.09623685491410977,-0.05337504740513947,-0.06415258401851945,-0.06176468726214915,-0.004319567521842267
0.532,-0.0010967117157135585,-0.006264555996821298,-0.005157665651632734,0.005608443890497574,-0.00038776816476293884,-0.005115545936182285,-0.013356013397041918,0.08680945054852601,-0.057796623396833474,-0.06800797291519717,-0.06690615074102894,-0.005262799731508359
0.534,-0.0006953474026434385,-0.016440371294761773,-0.015676904936658267,0.011198895180248107,0.004909417089728949,-0.01589039609425933,-0.01927007146503196,0.07891050761590612,-0.06553194926380393,-0.07303618019490894,-0.07275785703204915,-0.006910423173938791
0.536,0.0021952901721028215,-0.022837632041923198,-0.02472967805476064,0.013175871110225447,0.012102632685136004,-0.02485612647436739,-0.020071537860582786,0.0750695431131106,-0.07086480065229941,-0.07694724001811556,-0.07565206158822119,-0.010075253740378346
0.538,0.0044809044181358774,-0.028545961223548997,-0.03258183391419416,0.014359475772094515,0.01872288222623795,-0.03252766645915873,-0.01684021111133831,0.07345802496867503,-0.07086241092035422,-0.07809568084166059,-0.07591500286109609,-0.01475905397334217
0.54,0.004013737107225159,-0.03767451891809028,-0.041386998235876035,0.01802772917971364,0.023362381287047918,-0.04120484809909772,-0.014458243414163534,0.07060313267398705,-0.06881437885336228,-0.07694980444114562,-0.07725716987484238,-0.01945753932837128
0.542,0.002588484085229879,-0.04861794690910239,-0.05107970794429312,0.023155486065343563,0.02655154684380432,-0.05042913850316694,-0.01642205306050675,0.06535647732474235,-0.06969449601240017,-0.07580756727979093,-0.08115284360324224,-0.022769942880993592
0.544,0.004399307404637947,-0.05538886815077427,-0.05948859912239027,0.025484652037429122,0.030174800369016003,-0.057456610189784124,-0.02138036248388792,0.05950119126020954,-0.07424351780065881,-0.07641206814873229,-0.08495612510516391,-0.02436055647120792
0.546,0.010350771948226317,-0.05480634408736927,-0.06447621547773345,0.022865304096641326,0.03460691723783536,-0.060411918445121414,-0.025227475711752843,0.055241400873536434,-0.07878321549544856,-0.07792282963445321,-0.08554141758297072,-0.024580805237042504
0.548,0.016172413467089062,-0.049380333332896605,-0.06480206274395935,0.017737966888722055,0.037443147724062376,-0.05927554250206227,-0.02572510099680703,0.05348264459704681,-0.08005210023466228,-0.07808294055599206,-0.0821277066303242,-0.02414678560840056
0.55,0.017733478865434964,-0.044567761178188954,-0.06185634168191005,0.01462062425695491,0.037238544289163636,-0.0562973686825321,-0.024227215006422817,0.05409918725724769,-0.07851802199220675,-0.07602008854223206,-0.07650313400882115,-0.023803891941234348
0.552,0.015355175918943904,-0.04425544715163485,-0.05932107704510582,0.015987305679529912,0.03586174187402835,-0.054912118078270185,-0.02291683549712477,0.0562430331180757,-0.07669982757148802,-0.07323823180763475,-0.07204849998815038,-0.023943983123712004
0.554,0.01037905649680829,-0.047863821078723355,-0.05773433765688149,0.02111954270219797,0.033812538853447094,-0.05556161599364411,-0.02125937810388211,0.05803156596283075,-0.07654880356760403,-0.07196803945525065,-0.07113739965748878,-0.02479018165466636
0.556,0.00046530246166518146,-0.052654597968272154,-0.05247559329685971,0.02911800390576793,0.026756394870535622,-0.05491411058382112,-0.016691614290691832,0.05754331434041619,-0.079243190531903,-0.07317630824199112,-0.07333928553531424,-0.026722160807807527
0.558,-0.017002114727363165,-0.05794399782396497,-0.04062170743844729,0.040474801913992275,0.011559035676188628,-0.05123269697996052,-0.009302309212938828,0.05485372892587936,-0.0850158671158537,-0.07651532097127184,-0.07712672311963387,-0.03019273286609408
0.56,-0.038244142769791,-0.06436253486372039,-0.026348829687817727,0.05389883893914847,-0.0070355514305693685,-0.04718118746466971,-0.003215727397297906,0.051712658396610205,-0.09248461939249289,-0.08127607319967554,-0.08219474927345526,-0.035219662593665456
0.562,-0.05512111706897473,-0.07126033854259888,-0.016701814167141265,0.0652708483703562,-0.020618456700394066,-0.046107209318078525,-0.0014151031479738255,0.04955724388126617,-0.09975697775151363,-0.08689005355832934,-0.08887751205214688,-0.04062819810727265
0.564,-0.06354588258901757,-0.077504495037416,-0.014450127683070316,0.07200554030034541,-0.026050115171947705,-0.048309696523920385,-0.0019958320208125877,0.04875978439281411,-0.10585649460719222,-0.09342444380419258,-0.09634230241761049,-0.045049686411577236
0.566,-0.06573743363569835,-0.08228605458775987,-0.01671210677319719,0.07498150989056468,-0.026491035554762062,-0.05145935630796837,-0.0016429781868852204,0.04805600739856734,-0.11045919917905023,-0.10125275920354324,-0.10302961074314822,-0.04922767706936527
0.568,-0.0654743760301913,-0.0849022238119632,-0.019298411451252218,0.07589836678330204,-0.025646031648161666,-0.05359662162081655,-7.896474898069837e-05,0.045102227924266595,-0.11359995528276423,-0.10899708646209406,-0.1081401466549118,-0.05464528467490384
0.57,-0.0654449992937756,-0.08651602840591857,-0.020782599653801356,0.07670903822724179,-0.024721375239363328,-0.055315097340365986,0.000652796166397234,0.0395920431776658,-0.11625792848678945,-0.11326198372509169,-0.1110554909154435,-0.060149861982393374
0.572,-0.06752768662193837,-0.09008029522928229,-0.022058291203129184,0.07999630339819125,-0.02391394170622334,-0.0583002967310025,-0.0010251110119896254,0.033979566815335344,-0.11985257570495403,-0.11259100762447029,-0.11086806174322918,-0.06314874213930124
0.574,-0.07144232068145435,-0.09586116661679432,-0.02357959311912724,0.08572637164634134,-0.023594827337737243,-0.06215284250418006,-0.004916782932617709,0.03033022394472838,-0.12431895887920733,-0.1099719567971932,-0.10828187411192469,-0.06296996426350085
0.576,-0.07419144674886907,-0.10000845740995236,-0.024696129562856193,0.08984193363485447,-0.023720609143998376,-0.064490835565807,-0.008649955003986486,0.02863650146129315,-0.1274845570952425,-0.10902952384161221,-0.10622064978612422,-0.061006106386392756
0.578,-0.07292758556259267,-0.09947294216005177,-0.025417723961545027,0.08873925701370808,-0.023388137334055936,-0.06422656871479869,-0.009250441080918473,0.027637952759574026,-0.12694404519592525,-0.10989567360884384,-0.10724688258871173,-0.0590630923775424
0.58,-0.0676528763065502,-0.09577460326395902,-0.027259231893696938,0.08330841798231751,-0.021358329096547155,-0.06297499120961199,-0.006637791379856241,0.025700211215098367,-0.12260034526325074,-0.11099703528564808,-0.11096533096432222,-0.058281862736562065
0.582,-0.06126527112696287,-0.09310341255432034,-0.03139008068261664,0.07782727816186158,-0.017234004946960382,-0.06305628591813565,-0.00395882965176852,0.021818665049145536,-0.11741984085026982,-0.11225518745319979,-0.11421580880669982,-0.058611444053358976
0.584,-0.05758125339289453,-0.09390902252108528,-0.036252126712885975,0.07590912146146014,-0.012675302468620775,-0.06493615168986817,-0.003614651992642677,0.016570981493591735,-0.1147186679255567,-0.11436799705242276,-0.1145035721316261,-0.05925034740110067
0.586,-0.05863449904716352,-0.09642030556068004,-0.03777353673631605,0.07775670508694811,-0.011256657452363778,-0.06639111594136093,-0.00485031209137091,0.011781161082426397,-0.11420331176278573,-0.11674984883377612,-0.1131403834429301,-0.05988974462996755
0.588,-0.06325100242891155,-0.09693476060019224,-0.033304364786829896,0.08101577111421976,-0.015340115144333996,-0.06473550990322244,-0.005665177680439537,0.009143352037047706,-0.1124976460512708,-0.11796109944742027,-0.11335828944800647,-0.06087968483209901
0.59,-0.0679759375701741,-0.09446561001686053,-0.025590173452527253,0.08322206778754844,-0.022381372706356296,-0.06041588194086646,-0.005290441213063364,0.008932811838380371,-0.10805978081753062,-0.11763355060559752,-0.11578924559952397,-0.061872621332287145
0.592,-0.06986755067202557,-0.09128531988183491,-0.020351073079618746,0.0830874671424092,-0.02679060809445389,-0.05659025841726219,-0.004284044268939619,0.0100929422305302,-0.10341634659260443,-0.11683078010447409,-0.11799875698169801,-0.06182532290127517
0.594,-0.06895252500805893,-0.08927827446056028,-0.019653580230096605,0.08085113011861175,-0.0262691954133722,-0.054952784413842576,-0.0038309441107088667,0.012080034594089689,-0.1023113386805554,-0.11647607166996295,-0.11815712532268474,-0.06132779293631548
0.596,-0.06753296565203662,-0.08831794888685762,-0.020724350813473236,0.07819264769439507,-0.023712027676541965,-0.05449945476698469,-0.00524010550744594,0.01580856242721972,-0.1058592286554398,-0.1161254855995571,-0.11706107675468627,-0.06270018293118275
0.598,-0.06728292835624569,-0.08782933406690899,-0.020802908397713697,0.07694198693989414,-0.022666961009755203,-0.054082423826807766,-0.008377317969517158,0.021609201297537912,-0.11119552646501692,-0.11476839470877909,-0.11641276471294114,-0.06630625754436381
0.6,-0.06779871334678919,-0.0875042944556924,-0.01986611605625307,0.07725503435657531,-0.023515237081553914,-0.053637559281992285,-0.010796664311540756,0.027730724243278257,-0.11391525890456719,-0.11262416154955894,-0.11646490643507476,-0.06913695700351577
0.602,-0.06757650535942177,-0.0863791424603594,-0.018750301699426274,0.07745291411593798,-0.02448844956733348,-0.053020648861721816,-0.009831221774400689,0.03274682373000855,-0.11187427266001028,-0.11117944354754873,-0.11563447667728702,-0.06820952339882899
0.604,-0.06580917403610842,-0.08328844689822469,-0.017369639260750188,0.07603318510650478,-0.024495910594482247,-0.051619868976419424,-0.005380237306437503,0.037504083267575844,-0.1061270455068297,-0.11124504462732834,-0.11244463817006467,-0.06379952552170738
0.606,-0.06339827673822981,-0.07906279147922163,-0.015640283754242562,0.0735746365001437,-0.023970607761398328,-0.049612818309142756,-0.00023296321577974822,0.04246951279693997,-0.0991098818167319,-0.11203509274843482,-0.1079962299716667,-0.05909111017249217
0.608,-0.062268774447375136,-0.07662735280247668,-0.014406292876014942,0.07223324009994506,-0.023825384088242876,-0.048366985002924946,0.0027562720163718125,0.04591693607543664,-0.09259331984878391,-0.11219516463525762,-0.10528860163540812,-0.05712680583399698
0.61,-0.06383867198190121,-0.07814769476757955,-0.014344902768343272,0.07372607454468068,-0.024646599015220753,-0.04905515826579169,0.00359044314778722,0.047253603747331084,-0.08720365212399743,-0.1106483128483463,-0.10559387627381557,-0.05801030684384467
0.612,-0.06794195327763239,-0.08290972921456485,-0.014958898646211064,0.07790745702963214,-0.026501348020822796,-0.051416798022764554,0.004103058168655128,0.04885343727690596,-0.08386227340445074,-0.10705598797845481,-0.10704836448300545,-0.05945443814533771
0.614,-0.0724618459323917,-0.08791893840233354,-0.015433297322404125,0.08250669824241746,-0.02862849105423188,-0.05400628123691288,0.004977137804851873,0.05226528271490762,-0.08390655927222587,-0.10280357706527249,-0.10704818979384055,-0.05973179190028987
0.616,-0.07450196217302882,-0.09067313721508287,-0.01614272001677147,0.08465188234419618,-0.029596715263136675,-0.055824388050755895,0.005496847844114123,0.055684268355803104,-0.08686421039403898,-0.10051813768604624,-0.10512281099227523,-0.05910538198133198
0.618,-0.07263095256485232,-0.09135878753200073,-0.018584451753887444,0.08339197059221673,-0.02822529867319285,-0.05747366372054547,0.005296701190202955,0.05645820116721979,-0.09061557568583942,-0.1015223771025281,-0.10372337493721384,-0.058655674977192054
0.62,-0.06791450789250397,-0.0913237911141552,-0.022936878656126668,0.08029342363589509,-0.024581441336611956,-0.05960963413280915,0.004883490208760036,0.05405931768249441,-0.09395339012687598,-0.1045735009910985,-0.10559696205601235,-0.058669471678471065
0.622,-0.06322737632856923,-0.09063399471801892,-0.026501901141286695,0.07773496398213088,-0.020510553375198602,-0.06109778515001302,0.004780656863384171,0.05091435378546446,-0.09633457916953084,-0.107248111155702,-0.10961418738482846,-0.05831593896646459
0.624,-0.061206398634460764,-0.08890658059187738,-0.02655810157633918,0.07689993991251827,-0.018534920091137615,-0.0605094595470204,0.005066180184862632,0.05096471357321376,-0.09655137601056028,-0.10816448133706083,-0.11131152046221508,-0.05675618817899034
0.626,-0.062078678298590685,-0.08672057391430923,-0.02366030506358491,0.07698730832659804,-0.01965927356485381,-0.058133694685008015,0.00608400048714194,0.05628395240865984,-0.09436467298852513,-0.10805267174105047,-0.1085034508657286,-0.054514898949869973
0.628,-0.0643664919111798,-0.08500671032855617,-0.020135568621373445,0.07689926563293477,-0.02304367396700228,-0.055098293036723055,0.009313894010571014,0.06558251147446868,-0.09127375189131838,-0.10830407674505349,-0.10376621443184025,-0.053243481295612446
0.63,-0.06743292712592874,-0.08463633067317435,-0.01718444360895061,0.07753190675351078,-0.027345010530743348,-0.052297229041288425,0.01666838970690751,0.0766858652634461,-0.08769130649621663,-0.10864207210140019,-0.10065930552781517,-0.05382963112307943
0.632,-0.07051236370207074,-0.08508265301336294,-0.014758644651206722,0.07934798948725878,-0.030870063626270847,-0.05001209230996778,0.028457707014584468,0.08988738491464407,-0.08077867356976634,-0.10635555583610287,-0.09878903213375155,-0.054400327132230836
0.634,-0.06945967916901356,-0.08096882274977428,-0.011592538134228874,0.0772869461244454,-0.03140263742729506,-0.045755534912654106,0.043264450609172535,0.11059531307326177,-0.06360707352888925,-0.09472255835339495,-0.09171547390955942,-0.04932741126202326
0.636,-0.05914564021302769,-0.06388822828823623,-0.004591287984429366,0.06356276940893626,-0.02825704260021685,-0.03415167159942677,0.060801918166849225,0.15046334813437778,-0.023788806859045872,-0.06108181856154443,-0.06857326788904924,-0.030995827829939888
0.638,-0.03916700861220021,-0.030679482375616456,0.00875832201712288,0.03648603432507648,-0.023498532166636825,-0.01212853224129317,0.08285974959481286,0.22241039927953088,0.05282934680235192,0.008100793309144932,-0.019275363492958907,0.005746084625017547
0.64,-0.011391325029910561,0.014980336754407663,0.02650201165574159,-0.00017560389869605971,-0.01800580473721142,0.018210122254811674,0.11041535248318565,0.3310120522493273,0.17213140569876034,0.11762134675824823,0.06013424914288885,0.06161171727558948
0.642,0.02672519494296273,0.06970375600071138,0.042908888484582755,-0.04585248401261949,-0.007787516175357754,0.053289946110684216,0.14324385079276114,0.46981854170607973,0.327854150051137,0.26190594709709386,0.16701925465252182,0.13558996952911645
0.644,0.07964461788699555,0.13348903677914029,0.05386733064736193,-0.10378184573843582,0.012214560584699042,0.09150913329811781,0.18234912054124583,0.6283968696035965,0.5091279259929417,0.43183693382161886,0.2958923173028123,0.22686800081089717
0.646,0.14862155820765766,0.20911874706503053,0.060807034562309153,-0.17663509547054884,0.042885572169583226,0.13407142885791454,0.2265697607990428,0.7974849518874129,0.7087370328914211,0.6209051564190249,0.44281996595194617,0.3347381473420506
0.648,0.23463782117855864,0.30268431561909676,0.0684008202035473,-0.2674224998625039,0.08240253371609257,0.18482622396187112,0.26636833801824306,0.967955861328129,0.9255093227828685,0.829217510721901,0.6094394169083647,0.46079153854579485
0.65,0.3380034904849991,0.41601340607241405,0.07809730366771346,-0.3764199643092273,0.12925686767171501,0.24513970603446025,0.2875617185567093,1.1310453567551557,1.160782829116219,1.062343789825594,0.8003773656339227,0.6078813254730797
0.652,0.449155903371985,0.5348445625799894,0.08554608418524683,-0.49149752942708635,0.1805344262463341,0.3071129504677897,0.2824647857823907,1.2785252038742463,1.4065695909857583,1.3159423316478753,1.0088390591866132,0.7690229881412017
0.654,0.5489416178111021,0.6332572564300881,0.08419276353769269,-0.5903672746154855,0.23092790288061513,0.3558594323110531,0.2542117908993461,1.3967124533642712,1.6354275531397064,1.5599331366273492,1.2065535066098125,0.9200580004378182
0.656,0.6241617330178553,0.6921129409006805,0.06796684725089365,-0.6572860098029252,0.277543948650323,0.3785493491919279,0.21085127300606443,1.4662316066288454,1.8131072295775341,1.7532013812023752,1.3591214172877844,1.0329884997091898
0.658,0.6774476645113509,0.7102871784453051,0.032935716997420594,-0.6930393876759958,0.3227526189036363,0.3712453366079289,0.15725329797230103,1.4781314752677919,1.9254985863349259,1.8782405833283025,1.4532194762025488,1.097290029053779
0.66,0.715542931094283,0.7007847840135026,-0.01459952816867336,-0.7069561346756785,0.36539987708739174,0.3426843546173789,0.09349057301781795,1.44360705546107,1.9807515229066335,1.9453823778970416,1.4997186812562933,1.1226713497144842
0.662,0.7257392059892185,0.6779751223884285,-0.04746398772262716,-0.6998600999952206,0.3854639146458792,0.3141608539723959,0.024872550757464994,1.3771385141035801,1.9793517767365043,1.9581200582330456,1.508153997988118,1.1221418466847604
0.664,0.6718429678392777,0.6460036437311251,-0.02544466063257769,-0.6565927545022904,0.34607963536251257,0.3088554310318061,-0.026358056623942642,1.2763544459426917,1.893853521109829,1.8895749162498043,1.466235754498264,1.0963692172413257
0.666,0.5312840256077925,0.5953537920244502,0.06432685354239485,-0.5614204443782592,0.23079815170811466,0.32854668058962333,-0.03459772024519508,1.1232491724943336,1.6857144438607474,1.7005261824896318,1.3470025901881597,1.0307735518714827
0.668,0.3354424401668256,0.5088725440138951,0.17344234966783711,-0.42085674087569785,0.07928859777730549,0.3397470604891856,-0.006643278361106566,0.8978859339213945,1.3408341313536503,1.376292521217633,1.1331802184959512,0.9051060535326013
0.67,0.1466404817951284,0.3810515985149731,0.23442536405261188,-0.2629532831039926,-0.044991750716002026,0.30570554884348,0.01367202013022388,0.5958652696734457,0.8945122557526279,0.9501967092526961,0.8395296049469044,0.7161987740015053
0.672,-0.008696613048477225,0.23920112317375275,0.24830971794859466,-0.11458296926833778,-0.1302187981591482,0.24135688576244071,-0.008140572444295746,0.2439915449705082,0.42351121989917345,0.4953750750481303,0.5151530984461892,0.4958436764904898
0.674,-0.1521834174456,0.12755805478806975,0.28066262174637724,0.013056747014726183,-0.21923410598964577,0.2022565237923832,-0.06219199882026872,-0.11126681052246216,-0.0019298241484670617,0.0835674139651431,0.21512172573431618,0.29151929979492
0.676,-0.29555262318926645,0.058309930363931985,0.35492450676751475,0.11957163781859048,-0.3282477686837462,0.20572627919908734,-0.11867331325869565,-0.43887738501032725,-0.36115534524138493,-0.2532909223896433,-0.033000316588949544,0.12640374758613582
0.678,-0.41047622272878814,0.00266781959378144,0.4138240503265517,0.2047835729500525,-0.4141551745955771,0.2079741472709027,-0.16876371747398577,-0.72644114828835,-0.6617873648205748,-0.5146859000202707,-0.22819315175900465,-0.006172725383783479
0.68,-0.46793926091224464,-0.05900645138409916,0.4091202471365398,0.264086774398165,-0.43938212950559385,0.1750855100193219,-0.222239749532674,-0.9431410494712035,-0.8842572637527379,-0.6945089616864388,-0.37017423213591005,-0.11334004748940504
0.682,-0.47594663979112833,-0.10869141459521431,0.3673315571225628,0.29280929995741817,-0.42216370575117446,0.12954651302561326,-0.2760843498209541,-1.0354345860570418,-0.9810343890488515,-0.7744852809718148,-0.45043100817271337,-0.1882362233673233
0.684,-0.4643188412634784,-0.12442469164687169,0.34016127174115,0.2948285686685943,-0.4031446347942092,0.10781730153005914,-0.3090417243227645,-0.985118350312219,-0.9391697425144213,-0.7564432222982511,-0.4680127530847473,-0.22425434867767435
0.686,-0.4496322230417951,-0.1154272294215069,0.33453428449118827,0.2829157892875416,-0.39353643033347935,0.10844738443214033,-0.31044616373936856,-0.8530814461932689,-0.8193790332898306,-0.6821103747590249,-0.44317402373089493,-0.22911127651570884
0.688,-0.4258584480173241,-0.11021830570949323,0.31585241627031896,0.2685328200074804,-0.37275452558348465,0.10065136589863088,-0.29765840022287016,-0.7361539380023412,-0.7122205575974683,-0.6071635424354851,-0.4081408405550295,-0.22047484300394288
0.69,-0.38262357712646927,-0.12461994202956628,0.2581864011218639,0.2544761918211225,-0.3223904306878704,0.06473858455903278,-0.2950117062186544,-0.6789367033724644,-0.6591549903733024,-0.5581705702631119,-0.38227461706355376,-0.21150934763454915
0.692,-0.3234951450522952,-0.1485636502305995,0.17511294317789358,0.2369873199344913,-0.25073336094975796,0.012434333200169567,-0.3050850847388335,-0.6462824164566633,-0.6307342674060584,-0.5219017244851195,-0.3605561497760252,-0.20324224397860582
0.694,-0.26437624576119517,-0.15905103856928088,0.10524278547461854,0.21214322636097235,-0.1852945344797728,-0.026828245312666046,-0.31003236557213226,-0.5821593498613463,-0.5790766800616208,-0.47377449402786254,-0.32932936347908487,-0.18984745457656804
0.696,-0.21804089509116795,-0.14456160082818814,0.07296494864992185,0.1810053369912734,-0.14552323341555135,-0.0360263549093935,-0.2921725921616831,-0.4721475233631372,-0.4925581536359935,-0.406864652927612,-0.28573236158815396,-0.16746372677922516
0.698,-0.18405208290216274,-0.11449908030027466,0.06884955465125164,0.1486708325654268,-0.1270754115294213,-0.02423238842152463,-0.24475104012282017,-0.3425808495339979,-0.39511812330880347,-0.3329139111997753,-0.2375687935957666,-0.13718052224810287
0.7,-0.15405116143763392,-0.083866547323907,0.06970109231768706,0.1185008666430111,-0.1137512571705917,-0.009574006382624319,-0.1735512413006038,-0.22290251839275627,-0.3115352166994369,-0.26660983485709533,-0.19327200313284962,-0.10363315580000106
0.702,-0.12477370175995234,-0.058277742005754,0.06640737299753051,0.09140239954376242,-0.09839054391547972,0.001284287726268487,-0.09684791634623692,-0.12593265182940713,-0.24751373559753778,-0.21469380427787538,-0.15715487693956415,-0.0725449574768606
0.704,-0.10249790968757919,-0.03778379569733142,0.06486023152664704,0.07053271105019258,-0.0864470364480806,0.01118217822624758,-0.03584543326637659,-0.054147867297430444,-0.19680542186646083,-0.1756530408094026,-0.1293549843891719,-0.04771250819996282
0.706,-0.0930692917853044,-0.02356413525933184,0.0696209927967492,0.059521631457678574,-0.08313086040325507,0.02116912008195803,-0.0008582068150559968,-0.008531795016683616,-0.1558620325085599,-0.14616206187435815,-0.10825409163705726,-0.029982399900933685
0.708,-0.0917377404261883,-0.01578039801328715,0.07594078311957789,0.05572394785237391,-0.08433207304456893,0.028478848253031205,0.01114009213556477,0.011719805999587357,-0.12743009769329983,-0.12593836000356554,-0.09355477528521382,-0.019077325878142894
0.71,-0.0883234599746447,-0.01305184176524088,0.07522528942438222,0.052816913471222554,-0.08162931083350795,0.029834682398272683,0.010197030434644545,0.012969607798944327,-0.11286183904039256,-0.11493072820031654,-0.08528713127890322,-0.014584955783500489
0.712,-0.07982328621961755,-0.015075869624292765,0.06485510535270347,0.04932717478469565,-0.0725359838523517,0.024190129016635153,0.007026423620618582,0.006619614323421601,-0.10739460051415203,-0.10958065394479286,-0.0813794808479086,-0.015351290761455192
0.714,-0.07156720964260734,-0.021273162969048822,0.05066897940847309,0.04815361011685295,-0.061860279086153776,0.014284833378131575,0.007658289691047414,0.003256207256418638,-0.10473654455350444,-0.10568791560576402,-0.07932315354319287,-0.018990433203745837
0.716,-0.06790981252881037,-0.030302894885018066,0.03818581610441762,0.050645778194937256,-0.0537161460650068,0.0033953376411757887,0.012368180773566505,0.006955778825757241,-0.10166050523878584,-0.10187341943963239,-0.0779881916743855,-0.021545559673532968
0.718,-0.06767154054813565,-0.04247764491225791,0.025774835044630094,0.05602849858034467,-0.046855371293339325,-0.009020291513392502,0.019906227834836657,0.014693566557960525,-0.0975529180648708,-0.09809221256753373,-0.07627365222619832,-0.01985353519666359
0.72,-0.06750850558499528,-0.05727474461178605,0.010616115984118452,0.0628658373723943,-0.038848817561924674,-0.02403515400183341,0.029585683715350926,0.020439131418872408,-0.09328516521407577,-0.09441524927688837,-0.07378564458388104,-0.016178424168576056
0.722,-0.06578220099717735,-0.06938085370258709,-0.003494762806462213,0.06848644482199641,-0.030993528627839984,-0.03758728695088745,0.0388711253533996,0.020845152350944543,-0.08993170100702592,-0.09194721048827999,-0.07278235315566695,-0.016441773416385384
0.724,-0.06327678143470647,-0.0728848827077918,-0.009691832250665158,0.07016464782875194,-0.026881412849371376,-0.043307184899281835,0.04338131374192268,0.017751510786626217,-0.08711718974465754,-0.09159863909133131,-0.07510561917320294,-0.022147881803525414
0.726,-0.06131461030301586,-0.0675652207558217,-0.006344619466600424,0.06740673362836135,-0.027837667041893003,-0.039411399819472906,0.041298715564917314,0.014283133749576576,-0.08429857952760944,-0.09228633648072405,-0.07879282600237876,-0.028614420487266392
0.728,-0.05963383199536701,-0.05736371148014888,0.0022632103284023985,0.0614555494361434,-0.03154957300794545,-0.029540626989713725,0.0354762598806478,0.009973380238166234,-0.0828462721838017,-0.0927160108148664,-0.08134942666100986,-0.0317633305875267
0.73,-0.05702639480887466,-0.0463046764736042,0.010766868016977163,0.05409985319359096,-0.03445734233480003,-0.019215637152269434,0.03039278229724428,0.0024439745030087443,-0.0841653746909294,-0.09344551926858304,-0.08345280306529501,-0.032347991187798006
0.732,-0.053510752127330315,-0.038207496303853575,0.015328629448383594,0.04772913531653304,-0.034445699214764966,-0.01304640885946687,0.028755708434197873,-0.007473745722789716,-0.08639465408289165,-0.0945710209606164,-0.08616514772577376,-0.03282153201760774
0.734,-0.050393244520026255,-0.0360648439472821,0.014316270360529846,0.04446942737337018,-0.03178701816338167,-0.01269733317006511,0.030564758133923346,-0.015286637554009223,-0.08507450378343745,-0.09351943569206128,-0.08706426685702408,-0.032973625341878435
0.736,-0.04869585310402791,-0.039956835405749784,0.008719508573219646,0.04503084920841149,-0.0282547965217162,-0.016763861047551974,0.03369825904415332,-0.01645371311667437,-0.07752506619528975,-0.08800900771594876,-0.0822587218023628,-0.03008795138925968
0.738,-0.048423492340499565,-0.047265035905828964,0.0011557530218189308,0.048693255838496305,-0.025344406015931385,-0.022944969866998975,0.035988039136950985,-0.009308668677774825,-0.06625634493340689,-0.07957419506656603,-0.0720060942871595,-0.023081410374150416
0.74,-0.04874570962609001,-0.054462932927513724,-0.0057078867665742595,0.05320537416117379,-0.02316825395339805,-0.02923955423090378,0.03722300244616511,0.002790899600224687,-0.0574837719183736,-0.0723765672315777,-0.06226543166066584,-0.01538056987697836
0.742,-0.048431103607842516,-0.05872155004285547,-0.010284517436081952,0.055579442910577335,-0.020924171548857173,-0.034034292408944684,0.038517427906132246,0.01255823049589237,-0.05531388909704409,-0.06897632851636654,-0.05886130476656368,-0.011844108503135034
0.744,-0.04675868833062351,-0.0590426811755207,-0.012286255631646167,0.05451132429869441,-0.01853475207670443,-0.03640374956941321,0.040792377155222756,0.015834096925489902,-0.05788246904650347,-0.06855118780908105,-0.061247136300231646,-0.013167320166520726
0.746,-0.044346163910956714,-0.05601755379723637,-0.011675705406865659,0.05128269857109238,-0.01736997684181598,-0.035750026383515335,0.04422521841952079,0.015918430500941272,-0.06030479466451123,-0.06953833481459737,-0.0642352882710297,-0.015686195512057466
0.748,-0.042340305427371806,-0.05101884640141913,-0.008679367179410433,0.04795307139119022,-0.0183520732417808,-0.03193650755654132,0.04742631477343065,0.01795319682026662,-0.0600903843289773,-0.07141340550941486,-0.06450827149932238,-0.01629029986750074
0.75,-0.040899092093870056,-0.04591910191507375,-0.005018049405978246,0.045435568115778376,-0.020194647428447614,-0.026548419061617236,0.047986323914887344,0.02238609940726258,-0.05810643994449337,-0.07330986948932396,-0.0630577223692693,-0.015447610270179279
0.752,-0.039476026931332064,-0.04230201365752081,-0.002824599488310455,0.043340469942624645,-0.02084409060071944,-0.022385026046340045,0.04563113310215623,0.026744795847488352,-0.05588933947220814,-0.07396221554031766,-0.06221354665636321,-0.015802520992162703
0.754,-0.037854760145804106,-0.040467534968567434,-0.0026131820582715143,0.04114276653444124,-0.019623130209963317,-0.021168614056957837,0.04320712788042303,0.03027867105500116,-0.05399727746482254,-0.07325834251684793,-0.06250678409294,-0.01882797939826786
0.756,-0.036075440192279824,-0.040185267503430315,-0.004110778875734492,0.03928175739658032,-0.017170545737352206,-0.022907899496855396,0.043450270658684974,0.033943321487565244,-0.0519312399227701,-0.07191641135815693,-0.0626219079333347,-0.022634821975659886
0.758,-0.03439192711300965,-0.04201344563770988,-0.0076217508040814196,0.03902118723348791,-0.014354663125097141,-0.026947678207019148,0.046211301679198256,0.03817903382791836,-0.04879598069182284,-0.07004754120902068,-0.06130066088516122,-0.023567364332558547
0.76,-0.033432991424618766,-0.046358321673947926,-0.01292492190717022,0.04091951241571738,-0.011799912319903363,-0.03226001989022139,0.04923329934622099,0.04289575220901872,-0.04501788250615485,-0.06699587056973025,-0.05865141194451274,-0.020012084188321108
0.762,-0.033494663468263484,-0.05165565091693303,-0.018160665641897677,0.04364241114459226,-0.010013687694945355,-0.03715079043794853,0.05095597655653978,0.048417617168450854,-0.04263864546589134,-0.06230456254853576,-0.05568463716906247,-0.013558050741416007
0.764,-0.033908689826666887,-0.05489680581869396,-0.02098818512142209,0.04499691176150349,-0.00936407902750706,-0.03968589142686942,0.05192949356537808,0.05483416516611563,-0.04275125478375874,-0.05678221855925198,-0.05308817119250791,-0.00725352220083191
0.766,-0.033504703946183524,-0.053855371214138144,-0.020350875905422235,0.04387278664604511,-0.009652173646647957,-0.038495397465888447,0.052952061670743296,0.06013369001526146,-0.04404479359325293,-0.05250978551145199,-0.051007842808794904,-0.004027507136776374
0.768,-0.03171793023691106,-0.04862432489164623,-0.016906456585890163,0.0406386564545253,-0.010130821096202874,-0.033565355903922914,0.05293350221053179,0.060324691422904766,-0.04467512555918446,-0.05143770106066356,-0.04996180669386142,-0.0057782429518699425
0.77,-0.0293961224633647,-0.04168621256168935,-0.012290005821701162,0.03648506879617324,-0.010350389412760714,-0.02687423526436911,0.05060227796650888,0.05365028428657854,-0.044301933468598995,-0.05388287565990148,-0.050802334402688484,-0.0119581009009494
0.772,-0.028098531818246536,-0.03595022544997686,-0.007851619579322575,0.03279381230208873,-0.01081249671173678,-0.021214498443322575,0.0475326163647753,0.04409376199248715,-0.04378082007140319,-0.05789205001578808,-0.05297826227770866,-0.01846651903683051
0.774,-0.02833061612249933,-0.032334165547537354,-0.004003560045270652,0.03044691221666992,-0.012296563274508539,-0.017777345917900842,0.0468877807457616,0.03790408721707266,-0.043731793280300454,-0.06033727609206814,-0.0543209768434104,-0.02015428482282321
0.776,-0.029119981094405577,-0.030600873907940578,-0.0014809382984655101,0.029813082280242004,-0.014330979889943422,-0.016403823606340247,0.04978076825283468,0.03714553978587367,-0.043991286335784516,-0.059528956648322785,-0.05405225257066016,-0.015770870510531908
0.778,-0.029408390244679696,-0.03145921696211282,-0.0020508426478187593,0.03102173117819283,-0.015049806077715094,-0.017447821256046814,0.05463588967232565,0.0387099267883503,-0.04414196573973496,-0.056519316655262074,-0.054202618687260874,-0.00891301230940685
0.78,-0.02913160525115582,-0.03512989318682923,-0.005998270722711041,0.03327399125545889,-0.013314067808934522,-0.020817037690939094,0.05894999107649729,0.03826943146110398,-0.04407251051134352,-0.05366093978884917,-0.0557764093718461,-0.004009403891693476
0.782,-0.02884257647596277,-0.039004580802446655,-0.010161987411047369,0.03472938000752543,-0.010542730365196403,-0.024136403231454245,0.06116323270238087,0.03385682871120496,-0.043957172768010436,-0.05213950092589119,-0.055745415872218346,-0.0024029320826915966
0.784,-0.028853630019232208,-0.03929250659013362,-0.01043887788467731,0.03404225095324918,-0.009570694638698954,-0.02420448323338063,0.061698882606124425,0.027485425779996717,-0.043939984023670595,-0.05117194165548723,-0.051213786331561414,-0.0021357422494318705
0.786,-0.028906186386368094,-0.034912133293074424,-0.006005956765385758,0.031469875099642955,-0.011571464685667679,-0.020322388277773294,0.061669753140443706,0.02438420974329154,-0.04399470732332371,-0.04982435824639419,-0.04462469008165616,-0.0011583857672727753
0.788,-0.028321065318470246,-0.028671824468032944,-0.00035076314164985464,0.028284479606421616,-0.014716794730434355,-0.015376079299405024,0.06111083048596173,0.02927374101500097,-0.04392052531107985,-0.04847664977917496,-0.04115350299702511,0.0002457266655499367
0.79,-0.026849046538083073,-0.024426511892419834,0.0024225381189349675,0.025822965130845515,-0.016438677482660525,-0.012990907814182715,0.05969846449925302,0.04204654430110996,-0.04325104722867251,-0.04756598394688864,-0.04220099249880531,0.0005476188467462734
0.792,-0.025984270305700642,-0.023871981821879783,0.002112292321420713,0.025488892372110997,-0.016580253936372025,-0.013790188090467797,0.05781797778208552,0.056702348602735764,-0.04158840901002574,-0.04645393904414821,-0.044571187262269496,-0.001253293402308297
0.794,-0.027979397286890376,-0.026197270715307863,0.0017821265091850322,0.02824985508209583,-0.017121736529028958,-0.015531511370402309,0.05605880502556746,0.06525430185926154,-0.03947022179345263,-0.0447662918380452,-0.04522681431616067,-0.004969188316032665
0.796,-0.03236858414267211,-0.029568392686579393,0.002800189332020549,0.032754006370705704,-0.018952529319006907,-0.01660199113308296,0.055124394950729676,0.06420339109681689,-0.03820399255448905,-0.04342068032880805,-0.04417126806888239,-0.008440949658303862
0.798,-0.03545092525501415,-0.03223902968357587,0.0032118945909168314,0.0354895649136231,-0.020566640971389525,-0.017466497466579193,0.05567013086247751,0.057579440707053536,-0.03823095894967585,-0.04328503868569607,-0.042704438801823404,-0.00840808995287733
0.8,-0.03409866589185308,-0.03252166763910317,0.0015769989435548597,0.033909399319411,-0.020038520685599023,-0.018271678984612443,0.056631298848821975,0.05290761538303081,-0.03808166844527458,-0.043813440636556504,-0.041082023043570226,-0.004252237813008887
0.802,-0.02859602502924455,-0.02915281701315478,-0.0005567911188505488,0.02848517227564136,-0.01694951749829486,-0.017355182103938948,0.05576327639092757,0.0539144931702194,-0.03544186817706787,-0.04357288640289676,-0.03881241247972063,0.0006172482316153719
0.804,-0.022144920059972005,-0.023169871958109687,-0.0010249518619261646,0.02219514114427524,-0.01276209397705171,-0.01370866951021312,0.053169884916326904,0.057329587075192506,-0.029822569021638913,-0.04169276768992695,-0.036068628988824465,0.002931556900380998
0.806,-0.018356999288788048,-0.017882713178897405,0.0004742856551040116,0.018441358764345703,-0.010184510120417626,-0.009041279100593777,0.05143094233746229,0.05676866673932371,-0.02403910763567104,-0.03863310499059408,-0.033783329601392104,0.003239320742949232
0.808,-0.01830793993645688,-0.015331845573425939,0.002976094126038473,0.018211101713024046,-0.0110448955070246,-0.005694803349960555,0.05213611879868295,0.04966510396492396,-0.021405727460539304,-0.035650616212576154,-0.03239357051059636,0.0038055088099966158
0.81,-0.019855044830275576,-0.01419050705431286,0.005664537910949805,0.01904887990177629,-0.01410971461864353,-0.003889698135389456,0.054836439202824515,0.040637195015801784,-0.021554704681133567,-0.03379116247989667,-0.031326707828565115,0.005011810162296686
0.812,-0.020070394737114767,-0.011940529637549113,0.008129865293375196,0.0176409577468375,-0.016274993652883277,-0.0023163345041199543,0.05806253148142925,0.037526068590058435,-0.021639179503819692,-0.03333917095241776,-0.030476931862784714,0.005675212219456946
0.814,-0.01800841965106499,-0.008175907256267427,0.009832512413706014,0.013611038517982782,-0.01599561025235586,-0.0006118187291222116,0.06003540572667479,0.04332924520741261,-0.020942071757154606,-0.033454430290029036,-0.030606120971179453,0.005364728751155701
0.816,-0.015120828511137857,-0.005343736415739194,0.009777091998663985,0.010111678883001927,-0.014012919148007409,-8.655708443961004e-05,0.060002306684840176,0.053650605574934215,-0.020458081041111912,-0.03205106663627415,-0.0307290385651095,0.004929035307816652
0.818,-0.01309735125215009,-0.0057772466179296525,0.00732010457769587,0.009838823455466984,-0.01130119110551241,-0.001661619903750814,0.05900259778557689,0.06304645550320777,-0.01946174658052921,-0.02748298571074126,-0.027866213629766167,0.005479180107803507
0.82,-0.011905796716397816,-0.008184069358490115,0.0037217273836988424,0.011477083689134467,-0.008600506164454139,-0.003769603741812042,0.058483816043773944,0.07099201972488597,-0.016677816953585792,-0.021241192371304115,-0.02154771823667347,0.0074721141164920965
0.822,-0.01072131179106672,-0.008774129763952813,0.0019471820702799435,0.011778956904939032,-0.0073211974210148365,-0.0036234115641914297,0.05875044996406579,0.0803062554886552,-0.012931604388151897,-0.01689525201266557,-0.015610406421828246,0.010419169453937876
0.824,-0.009572401795209231,-0.005806098531353976,0.0037663032703988924,0.009622192262343815,-0.008299077671333005,-0.0005384597389770433,0.059158043168277996,0.09217049882764107,-0.010318067013742735,-0.01567991133035693,-0.013939560488400846,0.01328511983209932
0.826,-0.008667721185863904,-0.0009628313472286502,0.007704889818204143,0.006071798102681051,-0.010182940839780193,0.0033708964953712006,0.05921031771540557,0.10439104285020698,-0.010420844738198685,-0.015588458279692421,-0.0165022064429081,0.015259321922117323
0.828,-0.007340535439548991,0.0032573020936349267,0.010597837519853886,0.002411348951908081,-0.010862256342701637,0.005698357872817655,0.05901431607754284,0.1143910390893193,-0.012905465069797045,-0.014548251479906505,-0.02001790469791843,0.016433798765127895
0.83,-0.004942738773649596,0.005748963769309622,0.010691702547741799,-0.0003413896449944799,-0.009747815874544844,0.006104323863468608,0.05867287992962851,0.12245342421790444,-0.014957957729074461,-0.012348943880984488,-0.02125877782967772,0.017677264365774242
0.832,-0.001882284997278878,0.007384100567901264,0.009266385574739074,-0.001933947419017711,-0.007934718440822674,0.006503833693224426,0.05740823952777637,0.1304851403651383,-0.013971144060427366,-0.010039054052464922,-0.019069657751546176,0.01942080850375614
0.834,0.00097847423498897,0.009997909748372244,0.009019435515339177,-0.0036214076325984702,-0.006749089267575628,0.008647000963003481,0.05422375609029965,0.1386710643799393,-0.01082209859049878,-0.00829276295030071,-0.014016406349156638,0.0211816889479945
0.836,0.0033610605846517753,0.013723042884175607,0.010361982295241547,-0.006623774450181034,-0.006203486234380391,0.011408787579771484,0.050014072321529025,0.14511497397731843,-0.00864973362421774,-0.006331299648208404,-0.007995705571282923,0.022578160713791866
0.838,0.005828127320628316,0.016654486653382296,0.010848298950329611,-0.010241896153983064,-0.004935171608188873,0.012397759726495282,0.04752723436466372,0.14866411039824576,-0.00877510786618886,-0.00324560871698418,-0.0037366804544641877,0.02357776372705027
0.84,0.009560990295743204,0.018526522522331123,0.009096847992884885,-0.013582963925085774,-0.001753765028905407,0.012129031799773106,0.0484119726472938,0.1513179737256715,-0.009272171724610668,8.248709159407922e-05,-0.0022823063606458977,0.02379101762829009
0.842,0.015312943066691204,0.021754934988783784,0.006769410984143888,-0.017523079269773523,0.0030973785717198525,0.013270202527184279,0.051515830306776825,0.15662238405110004,-0.0074940116644824474,0.0021531422352478093,-0.0014526983867028877,0.0230400736457964
0.844,0.021685810768668972,0.02715175659066659,0.005888551038917273,-0.02241605990100375,0.007854601306482701,0.01604998963900205,0.05428080883838941,0.16494800970263124,-0.0033183765830930526,0.003262526878976861,0.0011754915440781628,0.022343272131616604
0.846,0.025554932052586694,0.03261690536468762,0.007317513982579995,-0.026516576923350844,0.009899324892070417,0.018811377609930447,0.054992169748412756,0.17230918267530543,0.00044645717469419036,0.00494950434707336,0.004868641519441302,0.022813796232818054
0.848,0.02521559129123007,0.037416495056972685,0.012175230304884346,-0.028936156401486463,0.007280350469303195,0.022598003078477563,0.05363446102611623,0.1758595979014744,0.0010498468455478265,0.0077513249873123365,0.007361635786833954,0.024114148014382907
0.85,0.022188297974258794,0.04317804117390442,0.02084394659310838,-0.03112067250226284,0.0007521593319585269,0.02995919720371019,0.0511304349825026,0.17824677273366762,-0.001050773122097148,0.010860259458504306,0.00836773083115494,0.025390112833144494
0.852,0.0195972850179566,0.05011681282364088,0.030434372475239887,-0.03419550622756338,-0.005995188536017704,0.03956099598221121,0.04834232076219408,0.18328815000793205,-0.002697760712121391,0.013501963758308432,0.009172299232615692,0.02683847653577588
0.854,0.0195029900952136,0.05594143812339271,0.03633132256234744,-0.037277402838473604,-0.009117091897292703,0.04630953142285523,0.045925398181957226,0.1896495502960561,-0.00153566447902566,0.01573990403114443,0.01033540512353203,0.029439799964046928
0.856,0.021744547302511436,0.05799367462515731,0.03584681081959173,-0.03870875390944933,-0.007391532884315532,0.046391635433805464,0.04479245156559577,0.19282527132923125,0.0025709999398726775,0.01792655002242794,0.012057771893937691,0.0342371297049228
0.858,0.02480276311997797,0.05545062924007008,0.029878063361278143,-0.03809019323117357,-0.0024774507235754356,0.04075028391871506,0.045654499890906045,0.1916791923803697,0.009038809937710791,0.019814967033479396,0.01504322427989342,0.04136077513298796
0.86,0.027496130448501074,0.05106419487395152,0.02272899696720288,-0.03717969167260391,0.0023484089357400963,0.03465037798745169,0.047393949047979014,0.1893814958969439,0.016606223303067404,0.020898153771363507,0.019070225632855237,0.048625240775119864
0.862,0.029752300467557183,0.04922283947980058,0.018897934349948766,-0.03811726917919495,0.004571976844556043,0.032645906577645316,0.047519425583379044,0.1887005142526079,0.022932552546990434,0.022068590453668217,0.022869927608615944,0.053278515840446204
0.864,0.03203891695200665,0.0507326372830855,0.018451406055053538,-0.04077107195616192,0.004831839764138779,0.03362096685235746,0.045283896030654726,0.18899447676500583,0.026704132172316142,0.025750270872610254,0.02640971473869706,0.05556034414799352
0.866,0.03468556090380203,0.05306335669564959,0.018365773123442036,-0.043522354197778286,0.005576516516595555,0.03414688328965957,0.042425454093956136,0.1881257601376021,0.028594725879387137,0.03274952249280635,0.030621848040085307,0.05762763585400778
0.868,0.037867235402106514,0.055721371275870644,0.01805133904579466,-0.04629930694160522,0.0074224596932515405,0.034762306231543465,0.04033447535429445,0.18586594565458853,0.029557452633616883,0.040143460170638974,0.035011713967266454,0.06004872173358808
0.87,0.041720523155026626,0.06020985755511501,0.019006968238194373,-0.050426313520951484,0.009301271490396073,0.03769103409624874,0.03844463569130372,0.1842098948484168,0.030249996411987293,0.0441989292474421,0.038288089495070524,0.061876417466308724
0.872,0.04670096451531032,0.06637592174253351,0.020557281261520146,-0.05629668865501446,0.011481638354673042,0.0420242426527615,0.03557041072039341,0.1848416748159918,0.031474244194708054,0.044070311004921585,0.04082166415344162,0.06244353736456873
0.874,0.053753017078531896,0.0731215327341789,0.02035708286072629,-0.06324670092233141,0.015505214234654629,0.045716279104279334,0.03165013724926664,0.1875103934529137,0.03341704364850879,0.04178517132133123,0.04435689889845408,0.06206342847390971
0.876,0.0625011544850674,0.0796161932377945,0.01775881617924538,-0.07008257508758091,0.02116641619385395,0.048177853516359476,0.02777482755147552,0.19077176110070465,0.03541792428768131,0.040592273133558815,0.049686632854326125,0.06245254345781551
0.878,0.07017291927871734,0.0845189233216577,0.014456766734875372,-0.07540077121764964,0.02600357597291196,0.04924092924137974,0.0246562351292385,0.1931273878125347,0.037330377895897895,0.043177656126201204,0.05580143928845202,0.06621117260071378
0.88,0.07504713573009392,0.08795805880915637,0.012836382753392914,-0.07966100436324507,0.0284547805988329,0.04963682286756296,0.022056711385635912,0.192885464163101,0.04019219230501197,0.04979363568229324,0.06080688456245692,0.07474353756736643
0.882,0.07906763568910347,0.09289866582874981,0.014127584583823422,-0.08522153400913272,0.029547406443942503,0.05197248153580639,0.01990276819730234,0.18880051063610884,0.045011385346593775,0.058413162544664755,0.06367266238125183,0.08635897758187312
0.884,0.084302506037067,0.1010409876863732,0.01752443154839355,-0.09240042110998369,0.030728440467774457,0.05779673325741702,0.01828704855707848,0.18251717793483882,0.050911869204083186,0.06661509352151176,0.06584503537185503,0.09649396329092043
0.886,0.08941654471303273,0.11004570966474804,0.02141001543223528,-0.09848155864756852,0.03173996930853469,0.0650531778548442,0.016248409277005785,0.17779162398570755,0.05525187914416115,0.07294575655280341,0.06977786974493921,0.10121093170808312
0.888,0.09188155737522684,0.11682693159368454,0.02520511636540859,-0.10163032560449682,0.031351853847412056,0.07069249727581463,0.012382660003781108,0.17577698672750136,0.056751491442082067,0.07741804494286485,0.07536027308365846,0.10154484288188119
0.89,0.09172847321678679,0.12099479499163626,0.029053612351353945,-0.1032082009740559,0.029359523200799115,0.07413928232069383,0.006853941022830726,0.17411399858592944,0.05742425777247717,0.0807969515819609,0.07999930509708837,0.10263359760793314
0.892,0.09180102315707396,0.12463749707206963,0.03256965435431057,-0.10605303519447508,0.027497734323743736,0.07705628673178914,0.0015768702018519442,0.170850728977758,0.05967647274450403,0.08315732935263695,0.0823089741762844,0.10727936124436159
0.894,0.0947680901785239,0.12982768534284464,0.034894603622838485,-0.11142931261450478,0.028122289552796685,0.08075402340027575,-0.001937113149909814,0.1660788662829663,0.0626324757650141,0.08418664768646124,0.08367597666617503,0.1130385307123791
0.896,0.10041694708199102,0.13595024313253415,0.0351992129646654,-0.11768498418994286,0.03181013505983875,0.08431787239056651,-0.004403103561688616,0.16057284525255303,0.06316479657031256,0.08498849933241512,0.0862933657827017,0.11767517752219445
0.898,0.10645718749803924,0.14069139157344054,0.0335503917856359,-0.12253420375067586,0.03663708903584961,0.08613272986733005,-0.007840443809808443,0.15529544449455718,0.060284548905367,0.0875568539641573,0.09092054070250465,0.12335898417624662
0.9,0.11144485112528026,0.14389993797930486,0.03174108089331533,-0.12607041725059853,0.039982796359225976,0.08690988233521732,-0.013037844234049594,0.151018000104942,0.05694986709782268,0.09187140815965586,0.09654546388574888,0.1318472638587889
0.902,0.11592859519716152,0.14734534110597625,0.031155710429385863,-0.13008428456268928,0.04133918072740015,0.08833302541765524,-0.018833725790450864,0.14754474255233174,0.05648117915266121,0.09592768463581479,0.10186761186126918,0.1399600933288666
0.904,0.12139699390629012,0.15123852777623514,0.030138505945814895,-0.13543228704277002,0.04329280885637149,0.08954451146236869,-0.023867502124099754,0.14472314073229323,0.058479198247951183,0.09883143006190066,0.1068757440235031,0.1434075463215178
0.906,0.1287839529648047,0.15500195627345503,0.02678061419000979,-0.14163968083309583,0.04842418078563428,0.08916185087230637,-0.028127754228886866,0.1435392064759515,0.06005182544370313,0.10110740725681987,0.1122648769421697,0.1417133269904298
0.908,0.13702913690424853,0.15989579358291486,0.02332201827621478,-0.148038364129953,0.055075149492290074,0.08929557107807844,-0.03241452192254125,0.14452369477071925,0.05990053730327174,0.10284532892573338,0.11777893421250908,0.1381517185170123
0.91,0.14322813749852098,0.16670771837715992,0.023603833006195563,-0.1537973847184946,0.05867716998519201,0.09275135420924795,-0.0366788307614826,0.14615776219970242,0.059445248453768064,0.10435529261347759,0.12255176621032388,0.13701544738191557
0.912,0.14590687712996472,0.17300481375592208,0.026848629363421864,-0.1578319652430585,0.058188122924943,0.09784397790181683,-0.03972244820931465,0.146275191131331,0.060401765823900014,0.1069468213017798,0.12599310315464932,0.14019500415227062
0.914,0.14712938791044758,0.17606653815186057,0.028336199623007628,-0.15988422186675375,0.05775542779605741,0.10037219047859919,-0.041124317057616606,0.14448992804408595,0.06245444836870959,0.1106749623090426,0.12742062572266546,0.1453698381032353
0.916,0.149261497028515,0.17639749108363298,0.0262199426714274,-0.16087731603190988,0.060292564081744174,0.09941730007069258,-0.042625452286773474,0.1426862706754623,0.06384292414396238,0.11333744211620092,0.12687730588626087,0.1488459302265991
0.918,0.1517074713268526,0.1767671728993441,0.023979134892539247,-0.1620545906234298,0.0632478911767162,0.09825742954153892,-0.04612227283336079,0.1431806564553773,0.06382794181154781,0.11340257509258789,0.12603228786268827,0.1498405792186471
0.92,0.15303151419413694,0.17956272769436393,0.025585102023110328,-0.1644119046984033,0.06293669398697192,0.10046866524130287,-0.05055117301895907,0.14651699042646676,0.0636911127204255,0.11204321301946878,0.12628061557437645,0.15016550390827615
0.922,0.1538788231161186,0.18488723110423572,0.030487529121938393,-0.16809279311524827,0.05998502478877337,0.10614622635773073,-0.052736008664401965,0.1508003976049006,0.06487720142130488,0.11128379133281259,0.1271280749455318,0.1508690822179988
0.924,0.15579152581217642,0.19029412688346448,0.034456677234882806,-0.17209522402713687,0.05814686984786551,0.11157722263964172,-0.051885336548984966,0.15277951153509195,0.06659060958377568,0.11163051285878604,0.12747126245941134,0.151521464417031
0.926,0.15876014416430126,0.19367308911383135,0.03509727856111984,-0.17554902878722214,0.05914102287919225,0.11355667642603337,-0.05111441500456185,0.1504774927749071,0.06653975147641632,0.11209956051816154,0.12716787483550182,0.15208170510364052
0.928,0.1612369215787137,0.195769240713795,0.03465042803536905,-0.17842169473096195,0.060925915881085854,0.11335947854476695,-0.053548977391311814,0.14515814981438782,0.06410959363055804,0.11153401795721064,0.12693472307778095,0.15334229891741966
