time,I,II,III,aVR,aVL,aVF,V1,V2,V3,V4,V5,V6
0.0,-0.0010750414137347445,-0.0010750414137347445,0.0,0.0010750414137347445,-0.0005265508965231401,-0.0005265508965231401,-0.001294437620619386,-0.00278633182743495,-0.005792059861754541,-0.0053532674479852575,-0.0008556452068501026,0.00021939620688464173
0.002,-0.007509513920631745,-0.007509513920631745,0.0,0.007509513920631745,-0.0036781292672482015,-0.0036781292672482015,-0.00904206778198516,-0.019463434039188397,-0.04045942193973022,-0.037394314217023376,-0.005976960059278327,0.0015325538613534173
0.004,-0.023553047858010726,-0.023553047858010726,0.0,0.023553047858010726,-0.011536186705964437,-0.011536186705964437,-0.028359792318829236,-0.06104565465239514,-0.1268980537656088,-0.11728456484397176,-0.01874630339719221,0.004806744460818515
0.006,-0.044260703460542145,-0.044260703460542145,0.0,0.044260703460542145,-0.021678711899041046,-0.021678711899041046,-0.05329350008514257,-0.11471651713242553,-0.23846583088945153,-0.22040023764025063,-0.0352279068359417,0.009032796624600437
0.008,-0.05678219635762648,-0.05656280015074183,0.00021939620688464173,0.056672498254184155,-0.027921386115340997,-0.0276142314257025,-0.06856785628211375,-0.14717018239629717,-0.30612602471708167,-0.2829715576611879,-0.04519399301933535,0.011368807131406474
0.01,-0.0555241968108809,-0.053991642949527484,0.0015325538613534173,0.05475791988020419,-0.027961801899271437,-0.025816226493376657,-0.06823496402301342,-0.14390965295881378,-0.30053007312976016,-0.2780203910420666,-0.04419272807396644,0.009798914875561053
0.012,-0.04838016308362244,-0.043573418622803936,0.004806744460818515,0.045976790853213184,-0.02609977863871413,-0.019370336393568215,-0.06257973576848612,-0.12539348391061328,-0.26498654050609033,-0.2457202096119181,-0.03850666041349543,0.005066758209308516
0.014,-0.045282593283000175,-0.036249796658399745,0.009032796624600437,0.04076619497069996,-0.026695627675402345,-0.014049712400961737,-0.06265345581309978,-0.11736508871308207,-0.2521010399562638,-0.23452162848280528,-0.03604124771504096,0.00020854894335878282
0.016,-0.047323563163992347,-0.03573535982570124,0.011588203338291116,0.04152946149484678,-0.028970751012663398,-0.012747266339055832,-0.06789438335179036,-0.1232235885734975,-0.2667986011279083,-0.24855213192260392,-0.0380597108081949,-0.0018855585687243845
0.018,-0.04877490331312434,-0.03744343457620987,0.011331468736914468,0.043109168944667084,-0.029539844625279844,-0.013675788393599574,-0.07230516089384557,-0.13038871553385054,-0.2827751347870688,-0.26337462567117753,-0.0415731830410398,-0.0010646407421230919
0.02,-0.04560660849353013,-0.0357331058234031,0.00987350267012703,0.040669857158466605,-0.027225633612906662,-0.013402729874728812,-0.07439468919671997,-0.13066318010616898,-0.2853076964547092,-0.265718167964845,-0.04493165803672867,0.000414936708311469
0.022,-0.03992987188110465,-0.03068852631314543,0.00924134556795922,0.035309199097125044,-0.024085989658147188,-0.011148105863004281,-0.07630505746916372,-0.1269032428617254,-0.28114887468690947,-0.2620882465883156,-0.048003083802610605,0.0007510357597356964
0.024,-0.036843260204663206,-0.027140615435096466,0.009702644769566733,0.031991937819879836,-0.022780992616338737,-0.009197289938945316,-0.07837184838249525,-0.12473841097027549,-0.27985599919386117,-0.26136726504665364,-0.04996107325883636,0.00013655264595768997
0.026,-0.0388453752620067,-0.028578547267215315,0.01026682799479138,0.03371196126461101,-0.024059731320872833,-0.009686172128164904,-0.07914331022031847,-0.12454550425030177,-0.2811225824447076,-0.2638270068044921,-0.05004835272395819,-0.00033942184426734886
0.028,-0.04419326913368538,-0.03390482975524688,0.0102884393784385,0.03904904944446615,-0.026738200915827317,-0.012334385786013412,-0.0784461922584082,-0.12286720395877795,-0.2797273172937887,-0.2654567720830658,-0.04908046320842831,-0.00023537257374586665
0.03,-0.049109716650857574,-0.039117335323162666,0.009992381327694914,0.04411352598701013,-0.029047801381172005,-0.015058467522399118,-0.07761770651918598,-0.11879209583387874,-0.27491642921732745,-0.2648185596505275,-0.04849465900009061,7.257083439005671e-05
0.032,-0.05089566453622804,-0.04083707091381898,0.010058593622409063,0.04586636772502351,-0.029977025957201166,-0.015873055265140015,-0.07757009085339008,-0.11554768778296681,-0.27102416758322645,-0.2637896223645709,-0.0487106882947227,0.00016286502682326376
0.034,-0.049895786125155626,-0.03843582611327817,0.011459960011877447,0.044165806119216895,-0.030179596074812118,-0.01398239667204835,-0.07799817878738383,-0.11610686269812559,-0.27096027746927887,-0.2647327055482873,-0.04913243350373563,3.8133723564241274e-05
0.036,-0.04849889670526929,-0.033639085439758125,0.014859811265511147,0.0410689910725137,-0.031180233236272045,-0.009895823018474583,-0.07823244789860603,-0.12018251487041666,-0.2729984523669291,-0.2682385017675352,-0.04921985780965583,-7.065182232921527e-05
0.038,-0.04829995478606055,-0.029202205999375144,0.01909774878668541,0.038751080392717845,-0.03319833147468118,-0.005558203510861566,-0.0781122350532036,-0.1256865591785861,-0.2740842172788818,-0.2724407625575179,-0.0490329656396552,-5.4545928249003074e-05
0.04,-0.04893482617999205,-0.0275639566062379,0.02137086957375416,0.03824939139311498,-0.03465211952150627,-0.003596021405109802,-0.07792699954692377,-0.13096250663614087,-0.2735229804777591,-0.274428623695153,-0.04867661292725285,1.2504664988997604e-05
0.042,-0.04934568942468501,-0.029581234675035692,0.019764454749649326,0.03946346204986036,-0.03405500813226495,-0.005404879995199787,-0.07790393871566557,-0.13512902313068503,-0.27266333223078487,-0.27274317940490106,-0.04739984077154386,3.573922395615016e-05
0.044,-0.049199413201353924,-0.03415024000968199,0.015049173191671934,0.04167482660551797,-0.031624660128884284,-0.010049141839612715,-0.07799394226900086,-0.13753134548420606,-0.27255506061831036,-0.2684165011782167,-0.04421770161890911,1.02463702096553e-05
0.046,-0.0489068326436325,-0.03868787746643773,0.010218955177194754,0.043797355055035125,-0.029063104079005236,-0.014735711936596693,-0.07804951787872777,-0.13797149600668293,-0.2729709674284741,-0.2641604901722399,-0.04001576238733922,-1.4609605668102533e-05
0.048,-0.04873722271658625,-0.04071791228141626,0.00801931043516998,0.04478241655072242,-0.02787816672029799,-0.01690550682999785,-0.07802695579740494,-0.13726064677410996,-0.2733383972731724,-0.26245611484368536,-0.03742164783930598,-1.2569995734269107e-05
0.05,-0.048101805501989815,-0.04004114218018752,0.0080606633218023,0.044399763254705855,-0.02760301164217969,-0.01681849436220942,-0.07798585313009788,-0.13665600151352428,-0.27400100207967215,-0.26381060846976145,-0.03764673758875033,1.9687100521265763e-06
0.052,-0.0457935657146618,-0.038665314918305556,0.007128250796356253,0.043102837018071105,-0.02611414056861518,-0.017119232204101734,-0.07797853281712391,-0.13670242260010018,-0.2762142732189285,-0.26715845182910913,-0.03911071200851341,7.800108010778344e-06
0.054,-0.04125119562095602,-0.03830010880988096,0.002951086811075057,0.04116045466998115,-0.022081893261387847,-0.019405715329937526,-0.07799746648291349,-0.1370404843533855,-0.28069644418857087,-0.27153673250639276,-0.039763007921221345,2.6513860230548203e-06
0.056,-0.035612177894058385,-0.03862468296870307,-0.003012505074644675,0.038630678811390824,-0.01670316572932877,-0.022372356944612704,-0.07822990116956292,-0.13695935148987748,-0.28646823222649587,-0.2764365577140114,-0.03908865287225951,-2.9902548398001918e-06
0.058,-0.031462454848517986,-0.037769706569528626,-0.0063072517210106226,0.03593669951324181,-0.013214463648132417,-0.023109379825211177,-0.07953895418059034,-0.13553035010617492,-0.29142810481784487,-0.28095459778873433,-0.03720335028532878,-2.875232858306276e-06
0.06,-0.03135964293379485,-0.0344214480065766,-0.0030618050727817397,0.034038302333498964,-0.014628774420874468,-0.019711247664115344,-0.08280406879612362,-0.1321260096918367,-0.2939426538850667,-0.2837244895425769,-0.03390028529399499,2.584831799744481e-07
0.062,-0.03579378377759853,-0.029911482884234532,0.005882300893364001,0.034015212859593094,-0.02084471112833306,-0.013447141086220455,-0.08702802577886917,-0.1279008935400578,-0.29400496458949316,-0.28415611369574095,-0.029971166866039168,1.6925473902710387e-06
0.064,-0.04219724588317725,-0.027370596701379195,0.014826649181798044,0.03604700295599335,-0.028087667766054078,-0.008151593411786603,-0.08936798848798701,-0.125636232513696,-0.2928330210357923,-0.2832438505832498,-0.027792722138938956,6.673930495509537e-07
0.066,-0.046301785218749475,-0.02850289299941487,0.017798892219334592,0.0387059644440649,-0.03171202351166846,-0.007036397501018233,-0.08780112740857263,-0.12723966640892467,-0.2910057778456177,-0.28254775022199674,-0.029276020796940694,-6.048791025420075e-07
0.068,-0.04534913962203167,-0.03246830372622822,0.012880835895803447,0.040177206183756864,-0.02953517243200688,-0.010684036546574655,-0.08306826178897508,-0.13194891363553177,-0.2879530961943229,-0.282660009807305,-0.033880896999432135,-6.531353408963023e-07
0.07,-0.040857442967262646,-0.037606931546000026,0.0032505114212626213,0.04046179807892818,-0.023460939831488458,-0.017267220923192553,-0.0782080597044559,-0.13677788149425466,-0.2840993172860159,-0.2830792777567545,-0.03872556578023601,1.8123415946656416e-08
0.072,-0.03751543369238044,-0.04298790467477628,-0.0054724709823958445,0.04142700866344148,-0.017957261954828246,-0.02390883953128581,-0.07589399099860479,-0.138651128938249,-0.2813835785991712,-0.2828913041520768,-0.04066326019341042,0.00021976129480472055
0.074,-0.038722076462017266,-0.04861236849922952,-0.009890292037212263,0.04459059607305291,-0.01608070059184106,-0.028806519634324648,-0.07540256882962544,-0.1365323116187241,-0.28015481509376094,-0.2806750332979575,-0.0385666551297556,0.0015327183569705273
0.076,-0.04377632241706353,-0.05442045520892609,-0.010644132791862557,0.049486595806533785,-0.01743966235641354,-0.03203225406833463,-0.07360865456577892,-0.13178663028925877,-0.2782246755187374,-0.2749765772175182,-0.033796413752113126,0.004806623795944995
0.078,-0.04897264924886255,-0.059070489097611,-0.01009783984874845,0.05389140106406891,-0.019678994219821513,-0.03404958523843579,-0.06971858906374351,-0.127220014947369,-0.27467030222316197,-0.2665753741222538,-0.02920594593443718,0.009032649219354087
0.08,-0.05083534466207329,-0.060616124268001406,-0.009780779605928117,0.055459367350219356,-0.02070950571308516,-0.03467251652735806,-0.06676766036175312,-0.1254919421486214,-0.2719539128295163,-0.258101766801764,-0.027063030208366073,0.011368802572221816
0.082,-0.04851364449128602,-0.058412424440486464,-0.00989877994920044,0.05338791936499769,-0.019776989258620193,-0.03365958410158814,-0.06786143164233074,-0.12753711864144443,-0.2729766779167585,-0.24873655489091923,-0.026627184010639474,0.009798993140324501
0.084,-0.0436774445591757,-0.05375615861796347,-0.010078714058787765,0.04881914476751724,-0.017450589767586164,-0.03143388314388535,-0.0726978050438926,-0.13216846831718454,-0.27765121633626066,-0.23266172685272687,-0.025043150803780383,0.005066798080899711
0.086,-0.03917818829947543,-0.04926600203446194,-0.010087813734986503,0.04431201715449022,-0.015133997950790635,-0.029183058755236083,-0.07786411764863672,-0.1367206595519024,-0.2827789827721472,-0.20675518021165343,-0.021560880385771322,0.00020852527730843423
0.088,-0.03731216701473839,-0.04752779704830411,-0.010215630033565713,0.04240804062844219,-0.014009158812625641,-0.028365789470221597,-0.08026790056224087,-0.1387236231486128,-0.28481387072264286,-0.17677998677683412,-0.018703156115683885,-0.0018855916317832351
0.09,-0.03804630267918114,-0.049528822798586766,-0.011482520119405624,0.04373311691777625,-0.013715098780057906,-0.029999463864786663,-0.08063531464519086,-0.13802598002788982,-0.2826093884305791,-0.15296994654355503,-0.01849343035980261,-0.0010646436197355035
0.092,-0.03936003155423471,-0.05414518135373276,-0.014785149799498052,0.04673310776862506,-0.012776874466120004,-0.03396541121902563,-0.08232110532246642,-0.13665495608632364,-0.2777346465262448,-0.14170677511331922,-0.019895555191019793,0.00041495337708826277
0.094,-0.0396642766915607,-0.0587141906764758,-0.01904991398491511,0.04920958619449515,-0.010838536336610943,-0.0383855523206711,-0.0862271982301053,-0.1363034352064072,-0.2731531336481615,-0.14164497593298314,-0.020746505724356205,0.0007510452920366797
0.096,-0.039125077909691476,-0.06093071083685786,-0.02180563292716639,0.050059211597161486,-0.009169479811562941,-0.04089165039058644,-0.08946417499518602,-0.136851321102159,-0.2712689709967307,-0.1458454188030018,-0.02019753831295772,0.0001365481025666158
0.098,-0.03870244329044056,-0.06141339695985214,-0.022710953669411574,0.05013316081906454,-0.008411907049054758,-0.04171425678266742,-0.0897066483023895,-0.13730390427970776,-0.27203935522699985,-0.14800199366822173,-0.01826379425638899,-0.00033942921643867864
0.1,-0.03879088600976443,-0.06297964211461442,-0.02418875610484997,0.0511138369483526,-0.007545974852864852,-0.04356347323795594,-0.088119119732543,-0.1372250255713503,-0.27338029206137165,-0.14699631902080837,-0.014869619398857486,-0.00023537361566424984
0.102,-0.03906226645272918,-0.06642786018957303,-0.027365593736843857,0.05319184145228533,-0.005893585172978843,-0.04729997833039338,-0.08715415413479327,-0.13694186973913314,-0.27367774605373635,-0.14540809903124408,-0.010923567294987179,7.257435987854835e-05
0.104,-0.03936300939565676,-0.06908157118575643,-0.029718561790099695,0.054794828450976434,-0.004760348232404912,-0.05003769782216638,-0.0875272055228988,-0.13663028294034565,-0.2729229977828321,-0.14499067819322645,-0.00878674796987124,0.00016286727938882384
0.106,-0.040567115219143475,-0.06812490604214273,-0.02755779082299926,0.05484056674600914,-0.006519549982151818,-0.04832161388991323,-0.08823066696280801,-0.13542742361596377,-0.27131358554095086,-0.14455781655097502,-0.010299148386680827,3.813287557166429e-05
0.108,-0.043744892463988425,-0.06378696777149735,-0.020042075307508903,0.05401923389697043,-0.0120967968359166,-0.041920966360653435,-0.08836689551577023,-0.132256159514832,-0.2684627731207222,-0.14208571224647723,-0.014895202481516087,-7.065345665446305e-05
0.11,-0.04798440349716481,-0.05912937246151268,-0.011144968964347853,0.053564783139680855,-0.01890604360171068,-0.03465771118742371,-0.08804957847864359,-0.12801907927124062,-0.26493699045102265,-0.13810081356656748,-0.019719776331012323,-5.454624612293782e-05
0.112,-0.05059884464680921,-0.05734902667832262,-0.006772121652201881,0.053889436616918605,-0.022506784019550568,-0.03138296399696088,-0.08782370012182994,-0.1254022448247975,-0.262717370755997,-0.135455840748851,-0.021872083994882566,1.2505405044388264e-05
0.114,-0.05036296019262729,-0.059380675245377636,-0.009170970438885696,0.054896026452042106,-0.021150589863179275,-0.03374614652518072,-0.08788879064895067,-0.12563565957068307,-0.26283542521307784,-0.13562121983109587,-0.0210973185594756,3.573975091835744e-05
0.116,-0.0488827369506931,-0.06376281824225428,-0.015360755737643034,0.056584899941814516,-0.01724136160521361,-0.039343707502951186,-0.08804307971410272,-0.12711600922257518,-0.26404989276994095,-0.13709031835190624,-0.019608024906763784,1.0246218050187393e-05
0.118,-0.048228570639068206,-0.06785774809238848,-0.020532457115780313,0.05853240321226813,-0.014310295119038726,-0.04422180146751413,-0.08808125526571589,-0.1277715836919508,-0.2646338358063788,-0.13777003336307964,-0.01924209882009973,-1.4609965923361554e-05
0.12,-0.04869150343687987,-0.06954271166903869,-0.022010028565987945,0.059702803681381186,-0.013833199536889615,-0.045869365365236864,-0.08801529985054127,-0.12730925452255307,-0.2644765976525639,-0.13743182788346645,-0.020045093980243078,-1.2570084774943797e-05
0.122,-0.0492684778866703,-0.06885973157955631,-0.02072440056657749,0.059613419844450254,-0.014788785012760148,-0.04482468811044622,-0.08796296577545518,-0.12673179993423672,-0.26517137073107716,-0.1375923144694384,-0.021714915259582544,1.968864121117694e-06
0.124,-0.04929530754668944,-0.0676637240644248,-0.019355766784748075,0.05896158071441297,-0.015481819270632935,-0.04347991720004003,-0.08797396148506459,-0.1267044115196581,-0.2680755753658756,-0.13982644315331227,-0.024568252951477843,7.800230194139544e-06
0.126,-0.04899476155475347,-0.06739553429931282,-0.01932490730135527,0.05866107615950378,-0.015331555098559716,-0.04332956638320545,-0.08800777312796407,-0.12700495264259984,-0.27212313888409706,-0.14431457083455795,-0.028062275638516196,2.651360305479841e-06
0.128,-0.04861719001468209,-0.06769349712208088,-0.020024631963666994,0.058637673815949816,-0.014788105354153234,-0.04384950511036822,-0.08801792266354677,-0.12716343057547913,-0.274562817146436,-0.1495205395230486,-0.030265347068934207,-2.9903338022316068e-06
0.13,-0.04739230609432121,-0.06689379685465598,-0.02037491817367857,0.057581556769565126,-0.014006632758436631,-0.043574869017601554,-0.08800431884294127,-0.12707530403668246,-0.2742654870831184,-0.1527663438577604,-0.030156720411062068,-2.875256540408252e-06
0.132,-0.044356229234710554,-0.06386273839876092,-0.02005467865581238,0.054434816638839194,-0.012654250676311143,-0.04178057426695897,-0.08821167830276323,-0.12694679357310582,-0.27284542697766534,-0.15192142651072182,-0.029065484944028976,2.5851495974527453e-07
0.134,-0.040799921714409035,-0.05981184335913507,-0.019107880115035496,0.05073430308826474,-0.011348805095037736,-0.03938553197112794,-0.08952651047603023,-0.12693350213429874,-0.27215141703158036,-0.1480395151693217,-0.02913944033175408,-0.00021770363139073624
0.136,-0.039708130636460996,-0.057439792662210304,-0.017556761433472637,0.04963402536893733,-0.01157511781175518,-0.038058919254967155,-0.09289582813316109,-0.12721667164690972,-0.27218093214657146,-0.14532447412960398,-0.031014776768360282,-0.001531886472222993
0.138,-0.041383665155951335,-0.057858999112841016,-0.016334927698250637,0.051493803770836545,-0.013066457819201488,-0.038427332996605154,-0.097649749168749,-0.12856754125012712,-0.2723977574194343,-0.14678833742355885,-0.03295434590303758,-0.004807349357129856
0.14,-0.04249906383551343,-0.059893411110706035,-0.017412303688649156,0.05330598554159017,-0.013294496057848324,-0.040011476911955966,-0.10151205559640013,-0.13193464076454958,-0.2735660136525748,-0.15115091283600227,-0.03263932222866405,-0.00914314786946476
0.142,-0.04091840847215667,-0.06252521346714555,-0.02168916565440144,0.05345064666984325,-0.010748397146383972,-0.04270225058834761,-0.10294299358847132,-0.13678867247142487,-0.2761143016106988,-0.15493269717935287,-0.030156826637243995,-0.012354462139065304
0.144,-0.038674289205015595,-0.06604026248851835,-0.027395915050780845,0.053812300340932616,-0.007127838695850762,-0.04670640863513599,-0.102507392696818,-0.14086697818976546,-0.27780149819134575,-0.1556948892434674,-0.028010784805104084,-0.013515079666102063
0.146,-0.03933178839578311,-0.0702861947195999,-0.030946217132434953,0.05648334976082147,-0.005964797860366336,-0.05078150832891108,-0.10177413827040709,-0.1419704514448798,-0.275545012053672,-0.1527194347760899,-0.027778217547967353,-0.01285718262593151
0.148,-0.04419170941451721,-0.07357530359225913,-0.029506247124269767,0.06072265927647279,-0.009546410974557471,-0.052423197060808446,-0.10156514464285114,-0.13939569986612516,-0.26955189776421923,-0.14707618015497867,-0.02818823119585645,-0.010228823444888438
0.15,-0.0508424969378882,-0.07442785154429152,-0.024045891922410807,0.06386869130438322,-0.01616641435192259,-0.05089922788763729,-0.10135064217851653,-0.13411567559540555,-0.2642513833054191,-0.14181354506448676,-0.027165010559216485,-0.006335729920191784
0.152,-0.05479401677024588,-0.07345383093923283,-0.019427375414492867,0.06438200188624024,-0.02077123948806556,-0.04851970417891122,-0.10024647376270691,-0.128157258868103,-0.26396601990118884,-0.13950602391163522,-0.02458382304988709,-0.003505682445998247
0.154,-0.05388028146487397,-0.07250221704990091,-0.019329408388214713,0.06336650957026416,-0.02020225392526338,-0.047666193925554205,-0.09848567593159548,-0.12350457546207391,-0.2674812392545887,-0.13867349007918373,-0.02166129569733824,-0.0028112882286082355
0.156,-0.05127820180623872,-0.07252469881116458,-0.021623579057080653,0.06318884029003838,-0.017303648136333595,-0.04786862381401688,-0.09731931772752327,-0.12122627581731771,-0.268718706647566,-0.1353699665167514,-0.018877251383835062,-0.002676487043811749
0.158,-0.0519820293095997,-0.07303953437336351,-0.021359793889637532,0.06488634313102282,-0.017423542702571022,-0.04718054740763875,-0.09747971554845913,-0.12111010732830021,-0.26394240207445807,-0.12926466671320466,-0.016762951308253997,-0.0019811681301907936
0.16,-0.05602795277723065,-0.07305574108010081,-0.017722049115360138,0.06677872234699846,-0.02122116012226189,-0.045455137886347995,-0.09845498431510763,-0.12190996018618461,-0.256706535464581,-0.12511305843003748,-0.017195378443453466,-0.00219768090175716
0.162,-0.058469833118635,-0.0715768567920002,-0.014252529010539094,0.06605296042669108,-0.024390001457186818,-0.04402292836619614,-0.09888270992458435,-0.12238106744523986,-0.2545537144758872,-0.12784249897476568,-0.02122624166974961,-0.005165650156297639
0.164,-0.05671876653204049,-0.068095622239847,-0.01261435547200322,0.06238200112321005,-0.024483321734518507,-0.04267768860652516,-0.09742920773116476,-0.12222230167013512,-0.26104614428457806,-0.13838795855748512,-0.026759583879030595,-0.010360189617204528
0.166,-0.05407099323219103,-0.06377324758866965,-0.010725048641725547,0.05893708462274718,-0.023897839447854945,-0.039855432033010264,-0.09439055534393342,-0.12179366062845619,-0.2713479184153822,-0.1522884571232244,-0.030302490365938985,-0.015051232866677054
0.168,-0.054546538888694755,-0.06069164975500449,-0.006886989345203279,0.05842663933062985,-0.02548157937895155,-0.03538260720821782,-0.0919711087607368,-0.12106922541685147,-0.27698148767146774,-0.16069483821775407,-0.030526478672666044,-0.016936210796486703
0.17,-0.057239715254634484,-0.05892902884336756,-0.002133888771035864,0.05932595944912627,-0.02852355819570233,-0.030820849851724764,-0.09175076721301945,-0.11957117073813504,-0.2745957870684383,-0.15694909543976734,-0.0289037918719427,-0.016672496739318483
0.172,-0.05808094442107562,-0.05626088365629141,0.0017023492863631623,0.05813264473750704,-0.03043587477014378,-0.027443185079398053,-0.09266283065594813,-0.11745125832032537,-0.2677990725690771,-0.14425467725940236,-0.0268986230827558,-0.01683265118484292
0.174,-0.055758141487326725,-0.0511984641555186,0.0046678323955352645,0.05411922411752782,-0.030803610125629766,-0.024714668355566436,-0.09206575589445526,-0.11549032445231336,-0.2614583734880808,-0.1329375162748665,-0.024283587388828527,-0.01806107163986487
0.176,-0.05294984569200335,-0.0442749945271064,0.008773297970153372,0.04930078898962504,-0.03194175165299447,-0.02061785032680941,-0.08843516918858631,-0.11391288271969828,-0.2572165074145859,-0.129071622434951,-0.0210731636244293,-0.018308417084065557
0.178,-0.05159822311500465,-0.03637966246803548,0.015118063475101572,0.04482321708648106,-0.03509815473446921,-0.013673037674429896,-0.08293679488097244,-0.11229119422296353,-0.2545230588139971,-0.1300472459963388,-0.018767718668429637,-0.016371278979523427
0.18,-0.049737022300190746,-0.027849458293788938,0.021632835347661444,0.03965906367333069,-0.037721808488596645,-0.0049339235699823285,-0.0779777457072632,-0.11004518723010258,-0.25296260396948633,-0.1313310689213362,-0.018070916419151623,-0.013468846149472849
0.182,-0.0444529625726388,-0.0189576783939603,0.02536684949765203,0.03245613294439164,-0.03655650765623562,0.0028166901748420885,-0.07470664443950396,-0.10669241225982472,-0.25172111311011125,-0.1322546865317916,-0.01745056035820803,-0.010701128321003759
0.184,-0.0365445580717619,-0.010351722914806578,0.026375497401163357,0.02397075163845848,-0.032414609271856305,0.008040907279253039,-0.07283027469654048,-0.10290886629187714,-0.24896362251263834,-0.13391009260292353,-0.0151994233928933,-0.007954208844124249
0.186,-0.03044546800041407,-0.003976474378599613,0.026775674272781498,0.01769402600853208,-0.029156644179050697,0.010814133175548829,-0.07150498884671123,-0.10064370564031792,-0.24350626849668125,-0.13498575739500296,-0.01112300373201414,-0.0057233143999433815
0.188,-0.02951973141235506,-0.0022051710653416185,0.02743835773251578,0.016745740427620913,-0.0290543528500859,0.011218500880124556,-0.06940904904770726,-0.10081303544055858,-0.23554143589174692,-0.13213558457083316,-0.005600146646976984,-0.004773555540159939
0.19,-0.032496935759019366,-0.003687299213897424,0.02871493739563547,0.019629447815875962,-0.03145305774140531,0.010588338864286588,-0.0653651688246479,-0.10207141716840663,-0.22592009018038436,-0.12389465172443154,0.0010683982160209781,-0.004017298289527188
0.192,-0.03534365691297841,-0.0028527010631498604,0.03237382240523393,0.021282917411159983,-0.034859915979645835,0.012564998492827053,-0.05924203502552548,-0.10245664395052022,-0.2168737027133332,-0.11256141124978385,0.00754147864990079,-0.0019638526068726445
0.194,-0.03613870073345739,0.003654137824660052,0.03978544227355033,0.019001302736097177,-0.038899249481105395,0.0195307469212764,-0.05152688141119686,-0.10089807010525367,-0.21252448582450306,-0.10207470421424317,0.011435067691641883,0.000460152296508127
0.196,-0.036431254700093535,0.012504122162426995,0.048995264314417704,0.015107056785186436,-0.0438636116513016,0.029038840520787697,-0.043058736114421355,-0.09756419437304904,-0.21582298460386717,-0.09520675077760173,0.011744009758038354,0.0012799688225061457
0.198,-0.037800708521862715,0.017698377190213457,0.05553196343672422,0.013251000179228598,-0.04861233396605337,0.035753060014543675,-0.03592248420857908,-0.09438183881893787,-0.22430360259383758,-0.09294147286440425,0.010188169982051423,0.00044713054924808626
0.2,-0.03932820658148344,0.017567688520270765,0.05690100537479231,0.01385265311640122,-0.05087242965974258,0.036977866746625086,-0.03314650375376884,-0.09405951809395882,-0.2310777995443681,-0.09495199828746215,0.009214151177247817,-0.0005647825040679108
0.202,-0.039117568967931275,0.01662159413398731,0.055844519311391574,0.013704308646197684,-0.050420970599157525,0.035774179808003924,-0.036303924280575724,-0.09706891034679624,-0.231456875494167,-0.09930078006806381,0.009529024495812513,-0.001228868688634796
0.204,-0.036831019441064455,0.021081508571251687,0.05823671961277817,0.009371379379277477,-0.05020046447535227,0.038301907903503705,-0.043396956224529104,-0.10089763513001652,-0.2272166377243206,-0.10282401696815455,0.01030592618986355,-0.002380343424261951
0.206,-0.03401769497531464,0.032341292466571074,0.06679421085729162,0.0011437937858023524,-0.0529083440352828,0.04737134378912248,-0.049678894191377554,-0.10302814168149865,-0.22383264108876744,-0.10366992099633644,0.011113392727918656,-0.0043640235246527525
0.208,-0.03194221356716395,0.0447237582580033,0.07690736045395684,-0.006837667037111295,-0.05684512340323614,0.05860792927360379,-0.0516158804556851,-0.1036584478643123,-0.22477477940971374,-0.10324942443712976,0.012352112445275334,-0.006667074529456637
0.21,-0.02960017830755745,0.051164699555668616,0.08058278334575984,-0.011192512162957035,-0.05698053229328147,0.06460431737706251,-0.04987466005156813,-0.1050790289745904,-0.22925938073790106,-0.10466692912434784,0.013369585473534742,-0.009778397067293497
0.212,-0.02540703388991391,0.05028360226799598,0.07505840346664752,-0.012274365925052152,-0.05127421155766075,0.06266975688207295,-0.04739831125147338,-0.10860001606940871,-0.23532951359458354,-0.10930942983413439,0.011639784500756761,-0.014976857932304402
0.214,-0.020298869268850207,0.046396434533426865,0.06572778397042436,-0.012085151176134425,-0.04388510973041842,0.05685953797741919,-0.045906339227285396,-0.1131490723581117,-0.24268177486641274,-0.11557749854624524,0.005502645941662927,-0.021283607196444433
0.216,-0.016668760654858065,0.0443341139269805,0.05991477868150381,-0.012062189505935097,-0.04005155701885679,0.052959729910418585,-0.04644740688407226,-0.11755739265418594,-0.25054097102528383,-0.1205788753174568,-0.0026541944374374174,-0.02513692589796839
0.218,-0.015388991675099299,0.044622135135996194,0.059089480824503764,-0.012357308823572742,-0.03997837036129878,0.052303240628657016,-0.05142185039428898,-0.12197140824723282,-0.2555052189338357,-0.12213103365295813,-0.007127632227737447,-0.02469980405067759
0.22,-0.016019657333925828,0.04327932010716102,0.05879388668089292,-0.01142916098254362,-0.04021391506406502,0.05107862976018584,-0.06183810176854222,-0.12549402542592955,-0.2541913854850054,-0.11950474520140877,-0.003674997964317524,-0.022498120989084512
0.222,-0.017444260096308496,0.03801017535407723,0.055402702452359676,-0.008606108106697003,-0.038586606334193335,0.04633774818597049,-0.0735278422360317,-0.125464722063597,-0.24705897701439558,-0.11351200653806617,0.005872945634050057,-0.022149153847568357
0.224,-0.017207752796555606,0.032338540792705844,0.04971923771509508,-0.006513707269527686,-0.035115815734721056,0.04012130893052983,-0.08058656961027191,-0.1211876627818129,-0.23837900452614336,-0.106439700286873,0.014757443328195993,-0.02432274129246313
0.226,-0.013409349432235347,0.03001299967689611,0.04353818826474415,-0.007467767459899988,-0.03004572925479825,0.03533870361054512,-0.08180719146578022,-0.11550850760114334,-0.23187417679828332,-0.10132415771097195,0.017927228257261042,-0.02723037215210157
0.228,-0.007510741224860127,0.02861919823490814,0.03610143665670943,-0.00946130576722637,-0.0233864182560022,0.030589300339051745,-0.08086666838967768,-0.11078480293430061,-0.22719557618672503,-0.09995846325637173,0.01631123975218635,-0.029180566851747577
0.23,-0.002851469137326107,0.023172899051812846,0.02595035361357253,-0.009004149975302063,-0.015778203069155332,0.0227548919395209,-0.08216114599290011,-0.10610239186885333,-0.22206663226091397,-0.10127934426154156,0.014261555426843889,-0.029672812666370067
0.232,-0.0009342539012216082,0.014009802597711512,0.014923832894285744,-0.0059750269825421965,-0.008897212188405694,0.013075301093422755,-0.08746208587190485,-0.10050844288354074,-0.21632054927658234,-0.10234592960928761,0.014906201851072994,-0.02913646641504249
0.234,-0.0010650289639036225,0.006540535232023338,0.007635775000786954,-0.002869469191694304,-0.004976985231605683,0.0062836207326740605,-0.09438375095498037,-0.09677888091182299,-0.21216767375073114,-0.10053610987993183,0.018635395242239883,-0.02803485647050463
0.236,-0.0024222424769550274,0.0035180712253594848,0.0059656531348369814,-0.0006167360215270857,-0.004900830185269038,0.003854472777338778,-0.09885391812753823,-0.09906863830180872,-0.21150053363422466,-0.09513743829662104,0.02362856492070959,-0.0264905912984832
0.238,-0.004549637988627029,0.0019015634168808042,0.006446841396300493,0.0020889998226090276,-0.006646040226052396,0.0023005292338848598,-0.1000568594956952,-0.10679515482665687,-0.21362366989021758,-0.08821031077006397,0.02680157633031372,-0.025253324654695136
0.24,-0.006961339394951131,-0.0020769790799226276,0.004868474110550681,0.006062234285954147,-0.0073850238117953455,-0.0014630679541398834,-0.10063388845515184,-0.11415872228467755,-0.21619748482558718,-0.08331634983116866,0.02599462711639438,-0.025945535431798054
0.242,-0.009070500510261368,-0.008461645157908895,0.0005817125635184525,0.010424490888068629,-0.0063036593006714344,-0.006912531329078462,-0.10269378429061557,-0.1177368307626871,-0.21910874954670953,-0.08273132394636744,0.021196040128659416,-0.029655940720092724
0.244,-0.010130798137123965,-0.015199938433582569,-0.005216212792889259,0.014074755153247636,-0.003950409253666051,-0.012512089255617484,-0.10670843473666339,-0.12083890007507767,-0.22525487236422384,-0.08677690099576957,0.013688349842181508,-0.036377849890634834
0.246,-0.010578052302185276,-0.02173014685391622,-0.011583098150245908,0.017644799673500838,-0.0011299562740347208,-0.018199755537323566,-0.11274683981311415,-0.12746886551251443,-0.23580843526283252,-0.09519737418425095,0.005858057977941129,-0.045677084542502557
0.248,-0.01297028744499273,-0.029678534419315835,-0.017305623867420093,0.02337945200577518,0.0007152644042581498,-0.024772412240634423,-0.11970075487228997,-0.13610716324100053,-0.247753959278703,-0.10747334279689615,-0.00031137999201997786,-0.05687645786541088
0.25,-0.01926274159160673,-0.04032936918145953,-0.021289489614954464,0.032337394617067,0.00012857965401523715,-0.03224613540268885,-0.12430438628624998,-0.1426658341971252,-0.2578865096865507,-0.1217176863553181,-0.00649433098999715,-0.06894608057755501
0.252,-0.02825798102839142,-0.051708564423954315,-0.022931742842617526,0.042306162652687225,-0.003271046164450715,-0.038575520549065136,-0.12364919577171118,-0.1461540975163303,-0.26624611565929196,-0.1346907674981507,-0.01584387411305789,-0.08060802683623598
0.254,-0.03736470030671579,-0.05946697209262553,-0.02125140138827015,0.04974051307376842,-0.008914497251693698,-0.0406886795801095,-0.11904526065393817,-0.14847215931862426,-0.2741601485568506,-0.14434308447438582,-0.0271048608023294,-0.09049311060841604
0.256,-0.04499158062435546,-0.061616625514188075,-0.01620678734381908,0.05349037671631888,-0.015403865444424968,-0.03827941379431301,-0.11512359592892488,-0.1506530286542392,-0.2810204076312164,-0.1517063173462803,-0.03538437296509075,-0.09744522191789061
0.258,-0.050389918891534526,-0.0611266504924451,-0.01104442646889183,0.05560801933886111,-0.020381749266408393,-0.03553622779104017,-0.11428856411739674,-0.15189662424999947,-0.2847023009864526,-0.15861354884610654,-0.038181122035079264,-0.10081098920976879
0.26,-0.0532843343046506,-0.06248721360566943,-0.009995859742194985,0.058540579744453314,-0.021982673103190412,-0.03702204527700101,-0.11475323796784012,-0.15168953364125914,-0.2846596721634148,-0.16453571237151463,-0.03757127602396276,-0.10087142748446258
0.262,-0.054121461221642575,-0.06648548460608623,-0.013321354611106192,0.062186741450436525,-0.020740247028704573,-0.042257019269043426,-0.11501353848804824,-0.15089860591372017,-0.2833357622600919,-0.16751496017297055,-0.03750578427471926,-0.0994814111183334
0.264,-0.053687398925815505,-0.07040468813711633,-0.017614549752532637,0.06450555841921753,-0.018783622290235596,-0.04684545738290859,-0.1163050430010615,-0.1505851069338487,-0.2841382224180503,-0.16719053169022224,-0.0398579234196709,-0.09921838967188475
0.266,-0.053158250830237085,-0.07281993552523021,-0.02036361103419034,0.06492532756138106,-0.017655415657013944,-0.04843672420935585,-0.11864926595456342,-0.1508527634869435,-0.28729577806691936,-0.16502420332311246,-0.04222485800996458,-0.10083022515390583
0.268,-0.054219039559104065,-0.07496498202815141,-0.02133162945561108,0.06528431527619284,-0.01784730703214439,-0.048459672667266626,-0.11919237516503248,-0.15115324114319312,-0.28795355147681007,-0.16191126318301924,-0.040804646694500485,-0.10260749288096144
0.27,-0.05719688376421718,-0.07745700653179302,-0.020995187824054164,0.06684982380423474,-0.019083766319539563,-0.04868868961227304,-0.11704228868660842,-0.15115311981550125,-0.28150773264420204,-0.157185155204317,-0.03592515069733594,-0.10293033344902752
0.272,-0.059719108331514316,-0.07902420521701549,-0.020299426607555602,0.06842703188592272,-0.02010222558885647,-0.0492750858216255,-0.11494052067355055,-0.1508800341911133,-0.27058564561202386,-0.1502949605017243,-0.032055621157367174,-0.10226366874138855
0.274,-0.05889053919100173,-0.07885565594937208,-0.020957803939656804,0.06813588510052239,-0.019091847036768292,-0.05006199621051957,-0.11426905511893942,-0.15014539035375607,-0.26281007691460745,-0.1424258347441194,-0.031990041599861255,-0.10234539829944762
0.276,-0.0544505285498855,-0.07791492728229404,-0.024052021209271985,0.0657857328628816,-0.01535418280388244,-0.051467132769251196,-0.11325380515382227,-0.14847229760148808,-0.262598951532261,-0.13614814561485808,-0.03399307402378919,-0.10411745910393931
0.278,-0.049344011050084166,-0.07750478040909102,-0.028213728640030786,0.06309600082386663,-0.010719562534480961,-0.05338365626171377,-0.11124347631757339,-0.14579160744255812,-0.26789336294685223,-0.13369899103769836,-0.03495228776163496,-0.10660746389658438
0.28,-0.04675299232146556,-0.07813460764654395,-0.031164758412439614,0.06202545987848503,-0.007877145330059171,-0.05511042871223944,-0.11042074324060104,-0.1427490081688126,-0.27366898276028934,-0.13540081447436708,-0.033967533578173996,-0.10821241703720237
0.282,-0.04626168639061081,-0.08047301718544697,-0.034073962368652344,0.06317094819497962,-0.006404711910688542,-0.05760143076174744,-0.11265263723035379,-0.14069684516611053,-0.27760611164201976,-0.140576952273006,-0.033129785374832646,-0.10924366046512929
0.284,-0.044727887657308285,-0.08539891101313068,-0.04071317667655938,0.06565793036226379,-0.0031542239565089075,-0.06313591410553224,-0.11717555112969481,-0.1412186333693522,-0.28198888878102035,-0.14991363525035512,-0.03635043738731347,-0.11165671132756691
0.286,-0.041566176356978485,-0.0915445385403774,-0.05007062050982387,0.06794878412313453,0.001982171717367455,-0.07080177600253051,-0.12099820770411494,-0.14417320161422273,-0.28894041941020704,-0.16425592434066352,-0.046018226483174426,-0.11558728289692743
0.288,-0.040204638492658894,-0.09527719974615885,-0.05509404469020479,0.06897353938856411,0.004511913200681581,-0.07573200327428666,-0.12129125271502654,-0.14718841661650606,-0.2958611437635113,-0.18117051428269218,-0.05966378797108643,-0.11845526844024414
0.29,-0.04334951545214877,-0.09494956296037048,-0.05156048401431567,0.06923196577166964,0.0012617696670701912,-0.07487367253695151,-0.11846980565943066,-0.14897196963019613,-0.298767040223748,-0.1952358321146916,-0.07171207401275677,-0.11861821525245778
0.292,-0.049460048650218594,-0.09284484547575933,-0.04335430371945897,0.07020714972150094,-0.005506990223344599,-0.07050423705908021,-0.11585515338406324,-0.15093764655545933,-0.29842789719434315,-0.20179144041490504,-0.07892810005797941,-0.11779624909820344
0.294,-0.05453008800838928,-0.0919045325274062,-0.037381447045311766,0.07218260872428363,-0.010871917590211756,-0.06705282249629738,-0.11554636120119055,-0.15362542138959087,-0.2995179597206036,-0.20045487423402628,-0.08279492321529582,-0.11862294751270597
0.296,-0.056002753757367074,-0.09255539593861678,-0.036572602994252426,0.07373961867509159,-0.012142420862525746,-0.06656539774244442,-0.11616028328011345,-0.1545492073656326,-0.3042061272515063,-0.19548194571404068,-0.08666404771958992,-0.12112337787404792
0.298,-0.05473166253265626,-0.09337772405660595,-0.03865176880860238,0.07381926194029341,-0.010614407643873874,-0.06779937245571001,-0.11527568777761668,-0.1514625308963302,-0.3093843367858539,-0.19139790146880423,-0.09116516348196874,-0.12302714361950959
0.3,-0.0532503665895828,-0.09342112387123076,-0.04016259156769631,0.0730391804970957,-0.00911878234896915,-0.06863249591316503,-0.11284879636120988,-0.1452899917242989,-0.31052227046924585,-0.18882629971638795,-0.09331798809388528,-0.1229902363473821
0.302,-0.05244466611993447,-0.09299535075049083,-0.04054367081498011,0.07247623331166272,-0.008445692381622228,-0.06850752369345132,-0.11101256039568125,-0.13911301372904844,-0.30703645976872135,-0.1863768107511434,-0.09132451562920123,-0.1219647901542251
0.304,-0.05106957767116924,-0.09287802713004441,-0.04180955574370537,0.07223207282238148,-0.007032056068698134,-0.06861360238637723,-0.11073635124995321,-0.13524977266711585,-0.3025812492653217,-0.18380394629116473,-0.08762897002233992,-0.12123782452171479
0.306,-0.04898789651433038,-0.09354854214792373,-0.04456500159161431,0.07213731733468937,-0.004365204802493389,-0.0700063306723759,-0.10977454556038028,-0.13196094046121154,-0.2984532887720496,-0.18020655070193176,-0.08421971005080556,-0.12044484654846219
0.308,-0.04844404874120592,-0.09471190114018019,-0.04626932926215754,0.07259063587905759,-0.0027837574448954204,-0.0718065068100665,-0.10458738751335513,-0.12295890084399194,-0.28866546025462286,-0.17297611551227743,-0.07955144400996897,-0.11901353538276754
0.31,-0.04969642753694298,-0.09606334338172001,-0.04636524411699389,0.07341813386868701,-0.0031369817970117123,-0.07325356208031841,-0.09359403520688657,-0.10208976234417938,-0.2662747978192772,-0.16160565379407815,-0.07357950203054406,-0.11875666884415736
0.312,-0.04838620941613188,-0.10047845319658584,-0.052068699695844316,0.07432470672992379,-8.549269830180164e-05,-0.0786069826602884,-0.07694286186994646,-0.06671909190539946,-0.2321141087638318,-0.14744834086630573,-0.06903083167442357,-0.12163490896974073
0.314,-0.040747519130529236,-0.11244273615203176,-0.07156404717965029,0.0764599111175575,0.012700614053034461,-0.09387462515797844,-0.05369867416184672,-0.015818376961434455,-0.19073493031827807,-0.12782272211705334,-0.06516869456236479,-0.12479651726860327
0.316,-0.028106773248889022,-0.1272650819866318,-0.0988098953520369,0.07851959601998448,0.032356786656336255,-0.11397421434450054,-0.021850872055674358,0.04948599470871871,-0.14111010027411328,-0.09672470446949939,-0.05663836285356781,-0.1220881468597095
0.318,-0.013443659999670145,-0.1294835229411709,-0.11546437422953282,0.07357725578659183,0.04849483129852677,-0.12259337831635948,0.018907284509702325,0.12316500416952474,-0.07831653835317397,-0.05254028233990732,-0.03858397771088056,-0.11167299077706627
0.32,0.0024334673928409255,-0.11106995610696081,-0.1127888097687277,0.056816336666397384,0.05586216191791019,-0.11187367829148102,0.0659773135548236,0.1986181855736492,-0.001714978483995171,0.0007883300460704902,-0.009092182530040162,-0.09794813898747186
0.322,0.019475384250989825,-0.08075441121412011,-0.09950508014032869,0.03221217410040232,0.05813222554934073,-0.09064334215191752,0.11392426035611178,0.27311378895975136,0.08364645349271771,0.06114968655485524,0.03178335249048328,-0.08357056132551569
0.324,0.036735439475093695,-0.047032084897445973,-0.0832351855645605,0.005415393265821794,0.05837558969631553,-0.06664431476194559,0.15484870146869323,0.342403398784641,0.17142860056264211,0.13149547404191317,0.08370077782734468,-0.06297894714395723
0.326,0.05350830913654397,-0.004825699011970528,-0.05816756057086531,-0.02438743520266455,0.053839095989134056,-0.03396359159342708,0.18296284953099842,0.3962015441325353,0.2551860143319149,0.21232519119804713,0.14713989347909345,-0.026451431476143386
0.328,0.07115517595836546,0.05487385841763912,-0.016406749376942607,-0.062077784729175314,0.04213194367544245,0.01629089086136582,0.201213573830122,0.42463300355003875,0.32689540867483186,0.29468823574723196,0.2215428910316186,0.030974631770284568
0.33,0.09247560939172345,0.1340409776568221,0.0414128417605049,-0.11119302454801698,0.024978522956633054,0.08506943613783821,0.21934969653086517,0.42788827249485467,0.38069978801661275,0.36791106040720883,0.3032433403638671,0.10678681816817176
0.332,0.11750606263545563,0.2303226363581772,0.11280173134497674,-0.17177928973342355,0.002541421024113372,0.16991048942898906,0.24244659961268275,0.4162546212908798,0.4191905814298276,0.43398350086645776,0.3900527959787855,0.19777194869659176
0.334,0.14134146943172018,0.3438339910295035,0.2025874061238778,-0.2413134479202315,-0.03076992131142969,0.27278691394623794,0.2629872423332482,0.3966777918795243,0.45071526701955167,0.5064752944429789,0.48710578900608065,0.3055799453142121
0.336,0.15948712705055898,0.4772811883069996,0.31796859437150193,-0.3178782728312195,-0.08022598000038862,0.3979238787968721,0.26732284342809515,0.36298003412547875,0.480189765054104,0.5937838185713228,0.5997609101244226,0.42947204445685117
0.338,0.17457622730630534,0.6273427493358605,0.45307529506646427,-0.4006024827144744,-0.14066327533330295,0.5404197838213471,0.2511572261065401,0.3083681989129289,0.5056712050236929,0.6880180479875351,0.7193629923604921,0.5557859833005268
0.34,0.19388488244049773,0.7797288297043917,0.586234207590268,-0.48639525173200343,-0.19746010469674857,0.6826137176341103,0.22054149842434564,0.23651540037695612,0.5175368614111114,0.769065250189023,0.8252681572308241,0.6640796324571132
0.342,0.21986187280495129,0.922428115529046,0.7028384324900745,-0.5709544045560884,-0.24249719300198788,0.8117269700816641,0.16719993511866657,0.14184443623352277,0.49620957649962805,0.81711680526532,0.9028487341222058,0.7452336926508063
0.344,0.24532488616682874,1.058878816961639,0.8136527330360712,-0.652174971931084,-0.2849369135641228,0.935313640837488,0.05774870464039249,-0.003360523098003748,0.4229983069380087,0.8240022962277478,0.9506229649610176,0.8045097733949994
0.346,0.256720151142183,1.1906856377120925,0.9340478259102606,-0.7236819320280801,-0.33913359818227523,1.0618967040715792,-0.12425884272378523,-0.21114978171432935,0.3031130038379572,0.7944042466189755,0.9696397463681685,0.8445394598627396
0.348,0.24210602480477028,1.2892312775534123,1.0472851207192075,-0.7653254908069382,-0.4028805929346086,1.1680972832808676,-0.33227562976268654,-0.4344246656933017,0.17178081765738015,0.7408279838330796,0.9571443512482802,0.8548928161709494
0.35,0.20012575846734473,1.3034757448132304,1.1035712708409975,-0.7511329292062192,-0.45236733702664894,1.2027835450655069,-0.48500125344513323,-0.5879674812294222,0.06974197953539599,0.6790905985256559,0.9108363780843456,0.8214218905945202
0.352,0.14023743937340097,1.2013802277984786,1.061470369054831,-0.669786495534466,-0.46200751705325094,1.1295054104748363,-0.5454582098779848,-0.6234024167264849,0.0035876637795179654,0.6094984253051662,0.8242750649514672,0.736153087572738
0.354,0.07228510620931333,0.9970155748842797,0.9251986248112063,-0.533396048361211,-0.42846431616780234,0.958368609592251,-0.5510351887310181,-0.5774736792238603,-0.07315011905405765,0.4935248785215929,0.6764041673329763,0.5953257621310726
0.356,0.002081353077244261,0.7391551018120763,0.7375479466712518,-0.3694009213486042,-0.37005961789012787,0.7357796520834589,-0.5601155017648265,-0.5304724943594539,-0.2166117764814811,0.2831380868354618,0.4486676935392923,0.40159654556116603
0.358,-0.06198423256665568,0.48233169610133997,0.54462847567422,-0.20888388352697548,-0.3057470470887855,0.5119752024456844,-0.5876028370488625,-0.5159150104488333,-0.4164630642589288,-0.00576382577496159,0.16542068743011026,0.1773472108345806
0.36,-0.10888677772719918,0.2666531195769928,0.37568659027263696,-0.07710286737130463,-0.24457913607893156,0.3208889629132862,-0.6057406999253128,-0.4981212515389504,-0.594417254339831,-0.2824355912772874,-0.10181117840823706,-0.03492139561808239
0.362,-0.13465348730981494,0.10922867929808473,0.24396688845963885,0.014978936903410789,-0.19109010051371383,0.17661494832650834,-0.594335833761962,-0.44498909021255756,-0.6935322584775383,-0.4645755104844986,-0.2874543484304384,-0.19694625873471128
0.364,-0.1435758478965072,0.003158875841547869,0.14685835757543528,0.07230280826135187,-0.14637781361748384,0.0739415461769862,-0.5666832974601083,-0.38179919589838507,-0.7270611952385395,-0.5423587182026429,-0.3783625930666365,-0.2963170542253703
0.366,-0.13928384851165293,-0.07233915218078457,0.06714292027594751,0.10698290288085727,-0.1042954472074421,-0.005227069726958054,-0.545295138376475,-0.34715192700606406,-0.7234661333375093,-0.5483245056933663,-0.40032844374282794,-0.3419994244820026
0.368,-0.12252627283414483,-0.13233898717140424,-0.009630095261894747,0.1275467555587098,-0.05825935452111811,-0.07428098290657645,-0.5328826841528164,-0.3298162398883046,-0.6780429221286366,-0.5059211147284044,-0.37970241126840537,-0.3478495862347453
0.37,-0.09614526694410465,-0.17374849498506834,-0.07753244885632563,0.13453969252154743,-0.011937268071078635,-0.12845696624950964,-0.5167143990944997,-0.28753102992659696,-0.5883799086828875,-0.4318256822307435,-0.3337416260219288,-0.32615011450769277
0.372,-0.06528669300157026,-0.1871839267117907,-0.12180990315886843,0.12584758306710553,0.025709066615971585,-0.15649451433757075,-0.4875224140598472,-0.21015405858861458,-0.49020202993818923,-0.3550580574660824,-0.2809311727829734,-0.29115509696822794
0.374,-0.03405205574480503,-0.17899694229617802,-0.14454875821256719,0.10632288985414526,0.05366061716592598,-0.1631873798017034,-0.4432093940064615,-0.12870788657147894,-0.4229618624181151,-0.30122294169457436,-0.2384228420385577,-0.25921341588076235
0.376,-0.005774171282836178,-0.16868359815020084,-0.16213414831947603,0.08736070724121327,0.07729773861102528,-0.16649717588568777,-0.3835296994576072,-0.07133978416705793,-0.3858054197785148,-0.2684638961716128,-0.2096483456901076,-0.23993960104646153
0.378,0.014649480443908363,-0.16718749515647474,-0.180992121406457,0.0769856231320716,0.09651107878851153,-0.1751689791507606,-0.31190058255385733,-0.038836367386027415,-0.3481786612627756,-0.2359310319043929,-0.18415134643739978,-0.22984527812645897
0.38,0.02253200323452056,-0.1719178115447574,-0.1938771931788211,0.0758784691018055,0.10583430751689546,-0.1844089994990584,-0.23847708298925305,-0.019282983936386063,-0.28882672595910075,-0.19036055206597802,-0.15200008872549461,-0.22001318118400748
0.382,0.01895599922700033,-0.17719675316872274,-0.1959134762919121,0.08031783184255155,0.10449223678305967,-0.18852976787361678,-0.17503923598130555,-0.005116359950426434,-0.21439852307701768,-0.13728702800686612,-0.11580774795013048,-0.20873536917563792
0.384,0.011429152606825298,-0.1782678396728783,-0.18966448274051792,0.08441764656172616,0.09799420083941111,-0.18568419760172095,-0.12745890064274296,0.007078326445107072,-0.14825068827231522,-0.09177631503116468,-0.08712529686107898,-0.20168016408269962
0.386,0.006943379339669773,-0.17158436868064503,-0.17857074357035402,0.08313219040934054,0.09112065629001738,-0.17593794564693696,-0.09365643194895792,0.021052707997321025,-0.10813039477291157,-0.06379045317278088,-0.07228481990281593,-0.20011914649195667
0.388,0.006948041392937448,-0.15590902635767678,-0.16289278464279125,0.07498706836502972,0.08396236620968546,-0.15978595160558276,-0.06851354204525299,0.03714309110636213,-0.095077302504703,-0.052443718101085224,-0.06568359181884578,-0.19516278219817543
0.39,0.009886645937055653,-0.13063930385209024,-0.14052686020324448,0.06051548962828469,0.07445752142890835,-0.1361343677990223,-0.05135831038292697,0.04779144283158375,-0.10041747650803103,-0.052283826969711136,-0.05910267705636094,-0.17828130983717513
0.392,0.014583366500918207,-0.09828926767830319,-0.11285627877023487,0.04187740400169004,0.06309416654595693,-0.10617891251597873,-0.04543091538976049,0.04525926237166016,-0.11576770576326112,-0.05956757522065682,-0.05269337892831146,-0.15435197815123816
0.394,0.0193978384936599,-0.0692888402113145,-0.0886563908143286,0.025345719167593924,0.053484496220769576,-0.07914934182567711,-0.048839341204969404,0.03379424375901889,-0.13327135633240592,-0.06941483162463172,-0.051343790458307385,-0.13749468928152994
0.396,0.021858745540911346,-0.05471007978655779,-0.07642013748281756,0.017702318094252434,0.04817897298713445,-0.0652630150025666,-0.052330272905649206,0.026349245131483876,-0.14455537979272265,-0.07444443453553305,-0.05452111579216338,-0.13449166325249387
0.398,0.02130235997771191,-0.05433325329895143,-0.07518349099529621,0.018699671918883477,0.046503920280930554,-0.06430129952872404,-0.04838379786212173,0.029294879855816337,-0.1455511283623038,-0.07163699425893526,-0.05690570701586694,-0.13885728323226132
0.4,0.01972868289955309,-0.05927921289179176,-0.0782585419000093,0.022208873939999478,0.04691511538776528,-0.06840041769633479,-0.03774427514516704,0.03835934381784423,-0.13771982555669132,-0.06466207862139793,-0.056826494920814055,-0.1418428847117121
0.402,0.019276187299123074,-0.06383065205281165,-0.08242542289586254,0.024357306969094977,0.049026697653093136,-0.07298184222932752,-0.025864150536812416,0.048386338013853315,-0.12350285746084363,-0.05695652161844375,-0.05750873666007825,-0.14231568781035428
0.404,0.020367349523321494,-0.0689472410820764,-0.0890828009901333,0.026102082868445838,0.05317398145489882,-0.0793959295366934,-0.016502141165590036,0.05818629036898193,-0.10613689844287466,-0.0481515024059967,-0.06023708032120781,-0.14291134730395372
0.406,0.02224231452153605,-0.07672012183190155,-0.09913477264622579,0.02897211048620475,0.05921909178947481,-0.08926068288956235,-0.009729439374319599,0.06632427023058257,-0.09163433914274279,-0.038071792511649064,-0.061342900321750965,-0.1424655305259994
0.408,0.02389856657075021,-0.08551504776102208,-0.10962408864724305,0.03217560274737249,0.06539824798019932,-0.09987381521547842,-0.004333702770716994,0.06947579194542039,-0.08416047829951108,-0.0292378369657654,-0.057200659680991806,-0.1373750539243711
0.41,0.024597526219774235,-0.0904415368537517,-0.11505637422051307,0.033670102154906914,0.06861740162809825,-0.10548187790972507,-0.0009147460319022403,0.06598161900233675,-0.08155576658445038,-0.024127678895868483,-0.04939964659759186,-0.12817792737194178
0.412,0.02435905788539732,-0.08811940608561962,-0.1123971651683725,0.03230385962839035,0.06723127928835801,-0.10294436748473433,-0.001639313897437725,0.058126976311117885,-0.07969241499264622,-0.0223894387942176,-0.043596941331714795,-0.12046128749267823
0.414,0.023799414997971828,-0.08013683903345177,-0.10398659810589493,0.02870731835839241,0.06273743050057061,-0.09465813966879659,-0.006658908121821948,0.0508130992748835,-0.07815410101792375,-0.021396630369794084,-0.04334503003780394,-0.11836825845859227
0.416,0.023148475547823948,-0.07006116813493102,-0.09341141249127391,0.02411493909671952,0.05721278685349761,-0.0841389925349461,-0.012186075068568622,0.04855013948277642,-0.07822380910224196,-0.01826286294893735,-0.045329141527038964,-0.1195118967762295
0.418,0.022023333874374877,-0.05954073812306938,-0.0815512506104389,0.0192532877350147,0.05104352969788986,-0.07226377232175181,-0.013123638436961554,0.05228024748294877,-0.07798159237749934,-0.011331591256227255,-0.042619681769039415,-0.11846676216787663
0.42,0.020489195603376052,-0.05029269010107531,-0.07014071124923019,0.015191371811087045,0.04506935762943849,-0.060930011336397534,-0.007194170287789684,0.058449150699232455,-0.0733093746530242,-0.0010750924207216304,-0.03321210468581875,-0.11407483506057225
0.422,0.01985938062645448,-0.04565163205050067,-0.06432692695440465,0.01321732302342949,0.04222386340095288,-0.05506216547562489,0.003241217752515021,0.06271978785265545,-0.0631948547965034,0.009873034432859132,-0.022681146225784883,-0.11014608777603785
0.424,0.022360684566108152,-0.046523836301970295,-0.06774497252557266,0.012525165356524488,0.04517323037139725,-0.05715678589262816,0.012661727909818982,0.06439537095769789,-0.05107825514411196,0.01772999722092778,-0.017782715035105486,-0.10903222518964197
0.426,0.029132174116357698,-0.049385892398304945,-0.07795330387423732,0.010490994619802308,0.05333433753649223,-0.06373237153999954,0.0169665060934808,0.06580522821559007,-0.04117865534512969,0.019573064427853303,-0.019790898816491563,-0.10819642342393573
0.428,0.03745146294604948,-0.05036330319987835,-0.08785005364609046,0.0066008622718359816,0.06207946185008185,-0.06889555208145157,0.01737059892973698,0.06865313845177261,-0.03601542065127875,0.015369612933310154,-0.02482482328097466,-0.10489311912295343
0.43,0.0419382534356892,-0.04873940296369694,-0.09092461382726896,0.0036677813169568563,0.06556317332003399,-0.06926427308554217,0.017878150808486877,0.07217131148865501,-0.036739693180009206,0.007417922070171213,-0.029195328151711507,-0.10153156818116028
0.432,0.0399084001573293,-0.04604704313896264,-0.08605955183034089,0.004164032697301654,0.06171479967891493,-0.0655026884514457,0.01959581209248559,0.07425824934834548,-0.042412833639962705,-0.0019561691706008705,-0.03274110992232241,-0.10316748599850718
0.434,0.033834554986736265,-0.04372854597861109,-0.07748876182973465,0.007212015524831346,0.05385378126350969,-0.060530717493692376,0.020248590015182977,0.07407024424184877,-0.048899296760491935,-0.010674270688324739,-0.03693606681912884,-0.11027973372655175
0.436,0.028627316926793493,-0.04171673303319364,-0.07025454542397121,0.009447103353045204,0.04725004651708364,-0.056524130417388935,0.018321726658169113,0.07291119955762924,-0.05171475585277592,-0.016229979666145204,-0.04162015925639033,-0.11703523067474185
0.438,0.027893098013607315,-0.03905936309561585,-0.06694983288839837,0.008058100692774309,0.04519698585837096,-0.054095336474782235,0.015302210972750785,0.07272863250989058,-0.04989615262095086,-0.016767076095330128,-0.04462682484191989,-0.11784355640928539
0.44,0.03203510004012776,-0.0366884467379589,-0.06877060814934417,0.0036276828169801755,0.048263597601574414,-0.05434668417617195,0.013831668160049647,0.07505794898516324,-0.04441579027178069,-0.011471455903358256,-0.04386478925226439,-0.11371174491844072
0.442,0.03821426846374321,-0.03737761437372895,-0.07561566887253297,-6.141466377011361e-05,0.054744942864370774,-0.058357284201581615,0.015161832846670279,0.08052811840743639,-0.03496471499662546,0.00011694790415253242,-0.039265577180618,-0.11003302263640428
0.444,0.04214131817314769,-0.04096249342259612,-0.08308951480931664,-0.00024229437930205645,0.0606298530087146,-0.06338012787959947,0.019043769200081773,0.08774269160028635,-0.02181947526974845,0.016233780246546717,-0.03267575881892701,-0.10941530181676365
0.446,0.04150671867598496,-0.04296094786384541,-0.08446982165876929,0.0015302680909951708,0.06189399258402026,-0.06408732940496543,0.02461010602873839,0.09416119397529385,-0.007960205315078076,0.03219620791616977,-0.025588071218406047,-0.10926521487356282
0.448,0.03754965320488455,-0.039854572717200575,-0.07755583882008966,0.0019560279145728935,0.057661847260249886,-0.058512793744516935,0.030577753170954937,0.0987126840088134,0.00363581813784919,0.04486545777014425,-0.017768921339969414,-0.10558476656771923
0.45,0.03295169375941659,-0.03283837242232401,-0.06628075163874965,0.00039114863293967237,0.05003095539525511,-0.049550735247998266,0.03566337809913869,0.10167533305949503,0.012412094996128466,0.05478809151474935,-0.009109519302451425,-0.09751121327845788
0.452,0.030017193816872626,-0.02593100284793219,-0.05685715329294969,-0.0015601847355999705,0.04270130543373929,-0.041981805337557104,0.038988244285332256,0.1032178618040228,0.019032108180921367,0.06298607014608902,-0.0015269171031157547,-0.08883135935073314
0.454,0.0304088115923789,-0.022074656527351293,-0.053617596977244705,-0.003309890444898046,0.03966542287293342,-0.03921097579353938,0.04013925592369509,0.10449266842368339,0.023935248133205366,0.06996803927698524,0.002868376375956872,-0.08475450000997374
0.456,0.0343929902321513,-0.02035504944611793,-0.05572351874582025,-0.006069240308366737,0.04222610576699327,-0.040139322306067586,0.039619028709183234,0.10824849273798523,0.027539206738110934,0.07728305830960064,0.00478445846345146,-0.08661014727428785
0.458,0.04056106147337485,-0.017201485909505997,-0.05826861739809449,-0.010950247643183541,0.04764902140758808,-0.03989671057447466,0.038771986716437994,0.11563294441424639,0.030989900164698197,0.086216960963215,0.006750775855046695,-0.09089860695731054
0.46,0.04658499445182757,-0.011238000830641564,-0.057845968781783795,-0.017037554634186686,0.05180971564398653,-0.035681055788167076,0.03857637578813626,0.12410347258481734,0.03617443891020317,0.0958274045102751,0.009420508863887542,-0.0931643321745918
0.462,0.050280142806207684,-0.005048080865240471,-0.055141010375031635,-0.021808488381109912,0.0525306979275862,-0.029821911701849547,0.03913642849007875,0.13053423542317671,0.044000176941187234,0.10378505583722353,0.011021757730997997,-0.09174437949240452
0.464,0.05131562904867469,-0.001842926482984259,-0.05302963694239942,-0.02373778014023687,0.05118493585217487,-0.02671934014155157,0.04093867002548077,0.13414303533487215,0.05267408241893894,0.10827489738261861,0.010573858346368396,-0.08844648214507199
0.466,0.05163067653290552,-0.002849716346068274,-0.054367652554930625,-0.023381439310781578,0.051396995196620145,-0.028983580986654635,0.0454727255415204,0.13557581830863918,0.059208823827184585,0.10950679157859178,0.010504604952339031,-0.08590237684389608
0.468,0.0529668477470834,-0.0070638245472081015,-0.059624914977091756,-0.0220220246831922,0.05487789464529835,-0.03540005764357869,0.05280164152899748,0.1358671606964461,0.06242910390537833,0.10974940054466542,0.014946312736475491,-0.08453871193659904
0.47,0.054911337676662834,-0.010934600395378963,-0.06497869828725213,-0.020962151151991164,0.05886434898539449,-0.04069959689047801,0.059530310558548856,0.13630162280618618,0.06364281864062758,0.11117316928279553,0.024554207797651988,-0.08271696912258117
0.472,0.055683993724855455,-0.009784450526939817,-0.06442925142095574,-0.021382083825364044,0.05865479992094717,-0.038961520932163735,0.06198483992244939,0.1378555552342061,0.06587437203347167,0.11470991362539913,0.03500213350456844,-0.07876549492901137
0.474,0.053947569813267815,-0.002522321156919789,-0.05579378856998058,-0.023263659725281577,0.05269101203648574,-0.029563379898061296,0.06085667974229778,0.14115148165625713,0.07283797847673795,0.12129126633856664,0.041915119116541485,-0.07241578469954199
0.476,0.05044498643412939,0.006314215967950181,-0.04405374113765391,-0.025433570738142598,0.04477380048363954,-0.018638494860173323,0.060068342442256485,0.14610890070205265,0.08615750493448926,0.13274509548885535,0.044841035685630935,-0.06549929573051927
0.478,0.047794948707464084,0.011518504370448253,-0.03652736413214914,-0.027079060378116974,0.040211435921158965,-0.012656696145706855,0.06135324824579919,0.15141073900921775,0.10313642211915607,0.1510089913779377,0.046423770322913914,-0.06098344394667525
0.48,0.047640523532874894,0.012211056462566885,-0.03559625554102468,-0.02791376504404068,0.040202958410083305,-0.012400208157085282,0.06220559105154118,0.15686168186905494,0.1188947384816965,0.17416724778225776,0.04971339003430816,-0.0604670822760049
0.482,0.04902728439483403,0.01099346586195595,-0.03798749373961309,-0.02787738580075374,0.04180059926893661,-0.014338317960392864,0.059755791847276016,0.16486674028953868,0.1302919800159165,0.19302509475752389,0.05518398676523333,-0.06278396956630139
0.484,0.05043851517492095,0.010887694978356824,-0.039440640464524106,-0.028102575679896324,0.042433285921066224,-0.015185557953220633,0.055108682866463664,0.1756500119911971,0.13732296131039617,0.19798235518506366,0.06001653867602942,-0.06476366586781401
0.486,0.051770995177404806,0.012964478990562562,-0.038778745675637605,-0.03016937589877395,0.04235433799275651,-0.014466051184798292,0.05241296989716656,0.1842422612857819,0.14210980081743024,0.19010022214484504,0.061894993701794354,-0.0636075657964893
0.488,0.05343937625713696,0.0157000407149699,-0.03776371889787317,-0.033543706514679014,0.042885408920411136,-0.013641956464551871,0.05459394357140731,0.18637724776904832,0.1465518999758894,0.17924209552276588,0.0623412201651841,-0.05955537891127993
0.49,0.055271961752447904,0.01768195048278422,-0.037473902978956926,-0.03616289611142569,0.04399110956761326,-0.012871759641845459,0.060926165577709634,0.1841092476930291,0.1500881125939696,0.17309593737867263,0.06433183841115067,-0.05554455114410331
0.492,0.057033136185247746,0.01974573977819238,-0.03679920923519521,-0.03743731833982247,0.0445902604774641,-0.010480806713943762,0.06756056163432904,0.18321318100048004,0.15121059249170227,0.17368168516360452,0.06819311795641117,-0.05336238615693812
0.494,0.05859314647231978,0.02308736780739567,-0.03460060372240679,-0.03853519767299602,0.044105522112614204,-0.00601337326051146,0.07088579362508472,0.18736034141446026,0.15175969812671378,0.18073288028986612,0.07170072158483838,-0.051860483600162904
0.496,0.05958897061917469,0.02814610169434846,-0.03045196452201155,-0.04079115726754231,0.042424401105108984,-0.00043491789881619996,0.07182763960294417,0.19560263175196527,0.15671935495490452,0.19210660466573834,0.07279537825402033,-0.04985777286643883
0.498,0.06009497270870569,0.03572778085505452,-0.023877503911978647,-0.045145919959313226,0.039599396300956206,0.006275510839072409,0.07480192420643329,0.20420060557876926,0.16840217081123118,0.2034647103691128,0.07140457132336,-0.048026616813581405
0.5,0.060928934127790685,0.04549881429201834,-0.015835246442952103,-0.051391250913466545,0.03656610309489995,0.013947973578346966,0.08127332274383064,0.21046859276267618,0.18354784307561106,0.21218123495489144,0.07013591204922097,-0.04647342573520485
0.502,0.0626957301693753,0.05437347243071158,-0.009437153986843975,-0.057556364854898893,0.034861988749177265,0.020388220021084928,0.08756467198292256,0.21548244570192443,0.1974962645749693,0.2202368161502083,0.07292762197173137,-0.04324276476014121
0.504,0.06581107888103367,0.05962694176529734,-0.00734739391161258,-0.06184522250927211,0.03555590762279147,0.023698307575916056,0.09007919242348057,0.22335288314750706,0.20934452277709673,0.23142346739618838,0.08166952859247589,-0.03712118849946599
0.506,0.07081599284321417,0.061782765670171325,-0.009644504268404313,-0.06465424705229372,0.03877753400681762,0.02439524830886942,0.08981690862622842,0.23655966605351336,0.22222401995885882,0.2468167461373415,0.09437160399404013,-0.029977103539398343
0.508,0.07681952618449807,0.06286433043745171,-0.013936499809902997,-0.0672857359988872,0.04322674882682422,0.024117839592298535,0.0906096988027134,0.25158228301887353,0.23903855339273197,0.263541299798477,0.1068180134885474,-0.024841346854919837
0.51,0.0814006082802801,0.06408078427306169,-0.017058109150554206,-0.07015964256601866,0.046871230112037324,0.024012613488645113,0.0944924182305127,0.2621762800469679,0.25810872864804085,0.27743996221613787,0.1159078272536192,-0.02295957603773333
0.512,0.083101270040599,0.06597912223765276,-0.017001897044790937,-0.07305928773556344,0.048484407247424664,0.024920817944210197,0.10041735037177621,0.26775404511749473,0.2746300021394036,0.28696978021443587,0.1216249883263052,-0.023244871126798572
0.514,0.08233331625802605,0.06931571056141411,-0.013091917577750408,-0.0757352357330879,0.04745461424474972,0.02807445918652992,0.10656766583899244,0.27404920385626735,0.28683787554219076,0.2946997523037972,0.1260698753264104,-0.023441332403472324
0.516,0.08107937189540224,0.07518750609257165,-0.005990041483363191,-0.07870122321175375,0.04406353634684298,0.03435423004704563,0.1115577090734057,0.2845222997839978,0.29763579840974436,0.3046180016114696,0.13129985796155758,-0.021584711228155782
0.518,0.08190411319666345,0.08392879525628451,0.002017892681916563,-0.08324881881723278,0.04034785419810936,0.04287625160374076,0.11465515217219271,0.29608856583314624,0.3100099755897756,0.3178323415923088,0.13818005442323314,-0.017192821199247612
0.52,0.08438133232572503,0.09348801537976457,0.00915647103949335,-0.0887664042693416,0.03747838729276108,0.05140782038448786,0.1172197151920836,0.30468030347240094,0.3244352687140147,0.332272830320311,0.146644826722392,-0.01140550154933688
0.522,0.0845420985453194,0.10059156435335044,0.016076819419599448,-0.09208154312622073,0.03360362461523423,0.058427631346046345,0.12188061338205758,0.31088614273430526,0.34034956586855264,0.34656354836870085,0.15656761279417472,-0.005646107074488161
0.524,0.08087258723209519,0.10488316869708632,0.023996501124782476,-0.09220004633445204,0.027429170121798747,0.06438296070479096,0.1287457250908859,0.3183497839895906,0.35717469353908327,0.36140013063857107,0.16766579203234477,-6.014434913271101e-05
0.526,0.07751285525929379,0.10947931975084271,0.03194483732563659,-0.0925909274849063,0.02164252342028459,0.07033190024236385,0.13485504282592548,0.3294909003959988,0.37494810299301856,0.37696463449652906,0.17883014207693182,0.006211045209756951
0.528,0.07910777651295146,0.11621628844271872,0.03710587141855813,-0.09632181241426854,0.019965985389058475,0.07576402225855676,0.13771425919549038,0.344733502257269,0.39532785950873534,0.39176791928543797,0.18879423799279182,0.01307924999412938
0.53,0.08559306372661662,0.12402767639960181,0.03844515253501058,-0.10275733767634007,0.022510734928052674,0.07987959440368543,0.13751299255757063,0.3629089462307436,0.41900973165803734,0.4044979826016927,0.1972726526471673,0.01892069202091556
0.532,0.09392956532264986,0.13246603202943247,0.038542940883975155,-0.11068640243999765,0.026505875014985494,0.08408990088559457,0.13681620338536005,0.3801590442242423,0.4416924617404634,0.41535560478384576,0.2049066493666901,0.022816493594594412
0.534,0.10204190450785003,0.14222470715934266,0.04018014297000543,-0.12010340097660874,0.030062185549136426,0.09010096638905042,0.13869337761238723,0.3919571396397405,0.4572473389901772,0.4256893023022618,0.21269760668623855,0.026276747909845594
0.536,0.10870481608341928,0.15219612343136105,0.043486503899846034,-0.12952862334311602,0.0324254882382615,0.09703567531733287,0.14385663143765964,0.39783097162414405,0.4651159657604364,0.437828734586852,0.2215961547009981,0.03151514892787577
0.538,0.11273980266956729,0.1603606914563781,0.04762004590505314,-0.13629115284742283,0.03253258012466865,0.10319424014255159,0.1500826452065686,0.4017497376998506,0.47088289922920085,0.45419138784009033,0.23233361377101616,0.03948365212517077
0.54,0.11511830469811965,0.16749487945551458,0.052378793515523325,-0.14077360575119285,0.030417566492875716,0.10890742662872901,0.15473196437689837,0.40874762927600855,0.48011678895618926,0.4746723780054352,0.24560956053897895,0.05053125426264877
0.542,0.11869943409093647,0.17623735404341256,0.05753943972940474,-0.14622498542047105,0.028243551967700606,0.1156438519774355,0.15676142137574814,0.42197395383285896,0.49409491775408965,0.4964695462394299,0.26162041840814887,0.06444467239414789
0.544,0.12400259578025985,0.18664168733408731,0.06263860665175999,-0.15372892237443778,0.027760467388068456,0.12363742714385617,0.1569635827428085,0.44013313517699487,0.5124708832450795,0.5178994378388417,0.27899155842039075,0.07945234717738649
0.546,0.1283701713801373,0.1959351385199592,0.0675639061458606,-0.16095898566400443,0.028270105197084262,0.13160037447263762,0.1576651130656055,0.45757182926394907,0.5375094791401492,0.5402098954013044,0.2955212890399174,0.09378515499540456
0.548,0.13053867867354768,0.20266074101984816,0.0721437598007146,-0.16625485933936282,0.028419694079993073,0.13806484357213386,0.16123931110319326,0.46954233190955225,0.5703128276940019,0.5639975184652323,0.310648544047803,0.10738050771783889
0.55,0.13303952172442934,0.20926727501898926,0.07635953239740044,-0.17138303249810286,0.028101983768031167,0.1433618370592918,0.1674930849140239,0.477306793634841,0.6048531311715567,0.5865835541302147,0.32583640695841004,0.1208259294492593
0.552,0.13825985939354427,0.22020636131915589,0.08225233483598926,-0.17933258119480888,0.027123428049356586,0.15078034801881007,0.17373672544460234,0.48661448607026014,0.6326542406645824,0.6056046470096791,0.34200429478316063,0.13473302447468352
0.554,0.14467112139095759,0.2370718972929121,0.09269198133602483,-0.19029958118850432,0.02427037242855914,0.1636291989799906,0.17815332296877123,0.5011853265424289,0.6519751369435741,0.6225764485665014,0.35816313147377743,0.14989909861553494
0.556,0.14942128164564397,0.2565744234819978,0.10708103041928438,-0.2016173527722295,0.019316663730475036,0.1807942096291169,0.1811939620510003,0.5184358634869631,0.6676090842122027,0.6401189430649488,0.37291418747724303,0.16576282846869433
0.558,0.1525833134032528,0.2744303590204224,0.12139870148344138,-0.21164851514247934,0.014240272724408852,0.19772463578352112,0.18384017798123276,0.5326457526577827,0.6836015644805614,0.6578295289271554,0.38530472406168154,0.17987051548432
0.56,0.15659598911854658,0.2893541039735804,0.13235687348011788,-0.22138137059910484,0.011529673725799891,0.21119210742793604,0.1868728509785991,0.5417481424891575,0.6997576840981592,0.6733148966617035,0.39434686937421126,0.19088300167888117
0.562,0.163149413905416,0.30276478105657306,0.13957790643119386,-0.23223422458587029,0.011887574219192738,0.22135702829861917,0.19132907794481877,0.5489395911812346,0.7142686692690928,0.6862597796686837,0.40095716544636784,0.20058092239372408
0.564,0.17162057702951272,0.3166336703617782,0.1452269460864675,-0.24419844766285184,0.013327480425717192,0.23049474003040943,0.19742785654094347,0.5582474905429349,0.7272327656706928,0.6995489745657485,0.41019957426686804,0.2113876333093592
0.566,0.1790062309179356,0.33111250674536863,0.15237911435603635,-0.25540891709865665,0.012432897112001828,0.24046356267709115,0.2035195605302123,0.5705328769296355,0.7407173578761366,0.7164907831339303,0.42697663730265134,0.2241885766705507
0.568,0.18169114879128892,0.34360406543209876,0.16232766568547646,-0.26294211581047466,0.007350364701989069,0.2508972657099649,0.20795880217685575,0.583376470483665,0.7558566984764881,0.73839931828964,0.4493588923166994,0.23949014609899782
0.57,0.17949239859233385,0.35229800459065935,0.17344768617875206,-0.2660446426236786,-0.00013982627144513212,0.2604721081062193,0.2112574363041852,0.5936583201523805,0.7719699673881392,0.7641411761357598,0.4706275290454427,0.25705990038939946
0.572,0.17735502104446482,0.3601209271252307,0.18329527533725384,-0.26850896814111513,-0.006033990903840116,0.26960679736528054,0.21476246084900544,0.6002302107354479,0.7890803595198209,0.79023340050704,0.4875583797032688,0.27394282157479266
0.574,0.18055414413206233,0.3718183512422034,0.19120508013007298,-0.27530940095116274,-0.00793112206677812,0.28009742843578367,0.21808488980157792,0.6042334771001672,0.8077980446251267,0.812414153383299,0.5025914462418399,0.28674442782947435
0.576,0.18922064785378023,0.3878417313190954,0.19805488158897996,-0.28720612592555644,-0.006728446041029594,0.2921760595199333,0.21901417306284363,0.6070718735684382,0.825242322332196,0.8278593413760801,0.5176721296695913,0.29525658132714233
0.578,0.19913949487269517,0.4041763196418543,0.2045646351528758,-0.3004352735804956,-0.004758964604298789,0.30399076603819764,0.21619600248732115,0.6095950900467118,0.8352916403720948,0.8350644230270861,0.5305261286706482,0.3009651534518462
0.58,0.20595864216645252,0.41784855540930066,0.21187964985639654,-0.3110743446833876,-0.004371123236582663,0.31467177870931545,0.2119095969927307,0.6136496909902901,0.8358007883554456,0.8336300875549034,0.5399108446846168,0.30417832483718443
0.582,0.20807118089469898,0.4304615333405221,0.22263386074538938,-0.3185756615010454,-0.007798903127973299,0.32617922059062293,0.21024035040625222,0.6210470673939039,0.8326620851308993,0.8266481393453917,0.5503762299391013,0.3052669415049324
0.584,0.20674583402184293,0.4445478518405402,0.23793178932673498,-0.32451743784576753,-0.015555540947302698,0.3399999751475228,0.21139581737236063,0.6298087621204245,0.8345407648336806,0.8218239048978299,0.5668552591839766,0.3070272881106246
0.586,0.20402497936248085,0.4572508098194292,0.25315870486699865,-0.3288903458968692,-0.024632772961666563,0.35268859111929696,0.2111821160408059,0.635298405138274,0.8453064613193813,0.8268791556890597,0.5866761650912246,0.31334078787562397
0.588,0.20170763137372621,0.46252654559216383,0.26071629921651784,-0.3304838763997211,-0.030001032593091715,0.35852402165216357,0.20756186245783437,0.6357295592159864,0.8613314307327709,0.8422190383164622,0.6011793464896013,0.3251931656740552
0.59,0.20151360368297222,0.46009681645153183,0.2585704269818435,-0.3301449577479432,-0.029171770331363443,0.357063195215545,0.2039089654217507,0.6334167875252915,0.8747382351697112,0.8601704758926133,0.6054253663976391,0.33908513910316557
0.592,0.20357666113216577,0.45626841575366495,0.2527414704618039,-0.32992112675102103,-0.02502037420958274,0.3537656463018575,0.20448302749963215,0.631048848037111,0.8802286669200114,0.8732068382649659,0.6041496182434963,0.3500685439533174
0.594,0.20573909795960177,0.45617380386240025,0.25048736086795126,-0.3303368212060434,-0.02288984466333832,0.35348731531286043,0.20932836241871125,0.6288677958670545,0.8785853596855094,0.879935600303968,0.606292382443082,0.35575694186725243
0.596,0.2061223875801817,0.46007220447709135,0.25409063228455686,-0.33136374962142284,-0.025005791643115977,0.3571093838656573,0.21417772832448026,0.6247444746053935,0.8727256252602645,0.8815708801180235,0.6142855140313158,0.35709015399468697
0.598,0.20518670801946476,0.4654886828249522,0.2607380136214843,-0.33358540156834665,-0.028920911838093047,0.36275559143763436,0.2148243907137656,0.6161632457882842,0.8624526440591044,0.8772105220113748,0.6215767382319752,0.3563331328309473
0.6,0.20449544181975599,0.46969453950323853,0.2659670097719933,-0.33649182197946953,-0.03133424862679682,0.3675572287655786,0.21140909823389112,0.6025615015422321,0.8451172270037008,0.8654342856127444,0.6203708408393948,0.35467619072098583
0.602,0.20454677154700218,0.4712440903870115,0.2675172299019331,-0.33808855683282624,-0.03167490835203077,0.36949943328426454,0.20700042720299547,0.5854104196785437,0.8203562208154556,0.8472696631548444,0.6085552273969141,0.35082540240956606
0.604,0.20401319507474094,0.47033329635420557,0.266862649935702,-0.33692213046196046,-0.031791345712082975,0.3687321326109069,0.202785927478279,0.5663698754750605,0.7919747513626945,0.8248104208645753,0.5893114932439987,0.3421250279378346
0.606,0.2005362643938026,0.46778691323593996,0.2673462661885943,-0.33280169582281216,-0.03417960879584674,0.3671335682813965,0.19764073891161604,0.5464927453855472,0.764313647740906,0.7987939180736775,0.5669581244969298,0.3280075079289612
0.608,0.19313073554976548,0.46372426789527826,0.2701763149649722,-0.32613766502275704,-0.03983720989333992,0.3660374183686856,0.19121237593778181,0.5265485397500107,0.7377892349447445,0.7694396599273925,0.5442080223121896,0.31182386412934215
0.61,0.18384443396354438,0.45702918301739826,0.27239080671302296,-0.317745121301053,-0.0464112216866917,0.36399351939389635,0.18410498275984094,0.5068512565844455,0.7090558581079519,0.7380434975842246,0.5216509418028978,0.297920098893214
0.612,0.17502823026256148,0.4462835654611767,0.2705361220036608,-0.3081587004233528,-0.05059638506081515,0.3580390330878413,0.1763082061971205,0.4867609447570647,0.6748717198903607,0.7061490594414548,0.49840733032836243,0.2868059854260874
0.614,0.1661029028064301,0.43098017034867836,0.26462249864288856,-0.2966605243146957,-0.0519948791136664,0.3470188915398551,0.16799362094184056,0.4648820284895073,0.6351755023942385,0.6739979012120428,0.47377177116504565,0.27463131802925733
0.616,0.15587231232446366,0.41125783325650395,0.2554659095342111,-0.2821361577223192,-0.05167381659670377,0.3317296784540793,0.16017072529275977,0.4400934074882202,0.5932657009245195,0.6407873975478418,0.4469592076600246,0.25770408304792686
0.618,0.1456859176709193,0.38761008054763635,0.24194746582606283,-0.264987327722282,-0.04940966702830206,0.3131346052369702,0.15313125423413187,0.412749000276118,0.5534849830121956,0.6060120929907811,0.4156872611878379,0.23582172781300895
0.62,0.13722514803260746,0.3623994068323248,0.22509150968363878,-0.24750841007663157,-0.045556270844429037,0.2931825013735739,0.1465609617477447,0.38511923838999107,0.5176159001711522,0.5694531200745107,0.37957594616593476,0.21121396208901647
0.622,0.12971537262878657,0.3398707321457418,0.21019016853168038,-0.23234306473400718,-0.04241561869126689,0.27547427180543205,0.14146556291333298,0.3594037267830969,0.4822584166797502,0.5298827559528374,0.3428056799225249,0.1858966521431049
0.624,0.12195217567117773,0.321965801728463,0.20010376715765119,-0.2204180042967275,-0.04082428027329945,0.26157966045135433,0.13903477090419847,0.33472933755520135,0.4399949319134579,0.485367390318969,0.30814163028986435,0.16010511227239801
0.626,0.11458170674754746,0.3050197602397876,0.19026186082055552,-0.20967243399195598,-0.03822195605852768,0.24780205919185738,0.13758572424990867,0.30872144099467447,0.3850524796848051,0.4361033960059972,0.2728434616514874,0.13325760274753837
0.628,0.10819660760021105,0.2830706253338966,0.17441614046379877,-0.19627677969262528,-0.032469796565148666,0.22868590110919396,0.13295132978686028,0.28196193239750156,0.31943425505321227,0.38599332795003766,0.23466369385132313,0.10635295665776798
0.63,0.10122848664698714,0.25449083018817503,0.15290309757869533,-0.17818160024531077,-0.025494941547436086,0.20342970597611165,0.12221898744298083,0.25730696814873105,0.2532924292413475,0.33983335427651484,0.19652071924442818,0.08166752003803884
0.632,0.09096428755414632,0.22330292033559576,0.13233092096671953,-0.15657855007926752,-0.021495409266342125,0.17685937433528304,0.10703446873936065,0.23603297767622494,0.1987420766902504,0.30014212622387026,0.1623791595998032,0.06030912834934896
0.634,0.07657723810242599,0.19440985432191174,0.1180405063082148,-0.13420935206322313,-0.02219854622432145,0.1544767962551205,0.09318877003307506,0.21744618459099538,0.16219361292089945,0.2675111354362343,0.1326172480560047,0.04202261916337477
0.636,0.06179718168290305,0.17034147619545495,0.10877645992674183,-0.1144635277283174,-0.02467970688258174,0.1378948397018257,0.08542052294887634,0.1997544210981941,0.14050533857380682,0.24114079266741353,0.10507129613787575,0.026349302444709736
0.638,0.05205818376875082,0.15151483498254828,0.09973415058333689,-0.10021363907150733,-0.024881016785248455,0.12475418566833303,0.08303570821884187,0.18040419091072563,0.12449104541453432,0.21843982172812734,0.07794037663627609,0.012306588271974304
0.64,0.04786202050536941,0.13664778051947732,0.08912961982302753,-0.09108117450933959,-0.022401274993661482,0.11221309449351806,0.08260383358881028,0.15868579600930224,0.10723114697378751,0.1964075989125069,0.050615250472568464,-0.001985894186572708
0.642,0.04494819834103085,0.12351737093140902,0.07881394377437269,-0.08377307981293626,-0.019500296777897278,0.09979115784046563,0.08264814745808391,0.13710213506252156,0.08776918091862125,0.17323357419003252,0.02356968259505923,-0.018065013457627538
0.644,0.04048115880939663,0.1102613883377923,0.06979222760431587,-0.07545315367239644,-0.017133436421018496,0.08818315301952084,0.08267920381342089,0.11812506420327581,0.06686490379310749,0.1484701852023625,-0.0018851553880274842,-0.035901522110330375
0.646,0.0352503808528734,0.09557759929784233,0.06020528979280027,-0.06531654013042323,-0.014348328774774035,0.07638570289051869,0.08050537676486656,0.10215904612966563,0.043325993584791604,0.1227129571249357,-0.025000204557864867,-0.054021924982214656
0.648,0.03137391859793054,0.07864852897412769,0.04720225647253574,-0.05422212437150621,-0.009577770722086267,0.06189385808751268,0.07354475775187903,0.08902430140501857,0.01630182698357697,0.09650163186919683,-0.046259316031331627,-0.06968735968256756
0.65,0.02988273298023531,0.06004243685170913,0.030188450780170326,-0.04385584263424122,-0.0019234831844227877,0.044032945667530216,0.061675095753785734,0.07813846715115522,-0.012136597185494698,0.07000202665579451,-0.06576347038567912,-0.08020065568606735
0.652,0.02933689073868817,0.042154443877947416,0.012870655291314172,-0.035141333702489196,0.006754699920498237,0.026059956320834382,0.04834621769130739,0.06791550080102599,-0.03814041112949496,0.045085908594678606,-0.08215827744743553,-0.08651462358985881
0.654,0.027178507327672338,0.02824454499654298,0.0010761001942297278,-0.02780201437925056,0.012263752940924987,0.01312081945286534,0.038620618711237585,0.05747064605972707,-0.05814704650282872,0.025767348978249234,-0.09413468372394157,-0.09318682932134786
0.656,0.023404676072900824,0.021133636821816716,-0.0022950615365396106,-0.022331625944771435,0.012576644667518126,0.00817372669648338,0.03447362612033709,0.047407875363372966,-0.07065751412034074,0.0146282593197339,-0.10272977063258693,-0.10260900707080814
0.658,0.02104119012017814,0.0209064956777889,-0.00017359742198557625,-0.020235557462336226,0.010404777690435074,0.00924250392155509,0.0330979837686245,0.03777820691502572,-0.07768949078170778,0.010334249321163093,-0.1108520287618793,-0.1124369891671215
0.66,0.021838842976991915,0.022366916784620026,0.00040174617781423043,-0.020636380959184894,0.010307026743326696,0.009848645247940952,0.03172604928892642,0.02763031599109374,-0.08294755929603026,0.009435432065008709,-0.11976190563072688,-0.11976606518754024
0.662,0.023395056627228416,0.0181488753308323,-0.005561967304421495,-0.019285349196467856,0.01390657443692818,0.004341722897141488,0.03159119368601539,0.01714663670400099,-0.0875834034195106,0.00900030781272206,-0.12782943766876254,-0.12475232910241002
0.664,0.02174688643209469,0.0067321169593064605,-0.01541260057744386,-0.013088947323154517,0.01794332745201469,-0.005903662978050785,0.03458890316820462,0.008494899448978294,-0.08989851203395297,0.007601852575459934,-0.13303926161235294,-0.12886319666044493
0.666,0.016064244213403786,-0.006043060804116703,-0.022214583911307338,-0.0037987130138284406,0.018183823167146777,-0.014613022166937021,0.03889557867156293,0.004254224214193722,-0.0892751290198136,0.0055552931879732335,-0.13470754043210761,-0.1318776814716245
0.668,0.009923270412148414,-0.014550705129911247,-0.0239715593929941,0.003947863867761164,0.015537618507887117,-0.018910429095269157,0.04074344237427168,0.0047244977024160275,-0.08780181157700413,0.004016201778480567,-0.1337151232385939,-0.13327368807981385
0.67,0.00742092006469059,-0.018783984315219514,-0.025176920635265287,0.007295849435477205,0.015039164632552861,-0.02151288239864224,0.03854057611194234,0.006477607991379537,-0.0881414864306327,0.002564605205227193,-0.13285555652628955,-0.1351117946923833
0.672,0.008721497405124738,-0.022333262094884555,-0.029983428615060922,0.007831317644324948,0.018784315628384392,-0.025909882864406784,0.03370568996380938,0.004758318813848313,-0.09176863742364491,-0.0017147873056347863,-0.13576409822619828,-0.1403861062525771
0.674,0.010680435941718039,-0.028091242263800505,-0.038164579864199716,0.009432150558768794,0.02404054543324052,-0.03301314779791314,0.029052306688464598,-0.0019267850684829447,-0.09903553900334333,-0.011592214889309033,-0.14400296074390417,-0.14887025361558692
0.676,0.010995909402481862,-0.035420195825700475,-0.046389483636036295,0.013219005959401524,0.027760982669346436,-0.040831697292325914,0.026434432148548646,-0.010321004508769546,-0.10953338192719773,-0.026236154212891136,-0.1555576389866326,-0.15652187975425552
0.678,0.010220229009863238,-0.04066347322413273,-0.05112145393737976,0.016410261519185034,0.029426087185790477,-0.045928067484538294,0.02502920136568547,-0.016314302615626695,-0.12171649269237945,-0.04056337441836454,-0.16681903743837637,-0.15995175685284277
0.68,0.01028128476479751,-0.041316221001836524,-0.051730652062458554,0.016573235339342553,0.030127491938286354,-0.04693685600515556,0.02293422887095125,-0.019488457172576485,-0.1320268890607797,-0.04827382310969834,-0.17530485390124742,-0.16054469334990087
0.682,0.012002894482724616,-0.038645922678826564,-0.050593610237595,0.014478375987935105,0.03064082953033769,-0.045796881941495234,0.020263804468510872,-0.022370394458767394,-0.1360237750638829,-0.04694339198807229,-0.18022949192250373,-0.16205524000590082
0.684,0.013875577481056986,-0.035777462597740096,-0.04955695710064247,0.012646785963885881,0.03031372862157084,-0.04454201815992408,0.018907702853103177,-0.026209360303786768,-0.13277524343095562,-0.04071638745965148,-0.18195177250053923,-0.16518179315497944
0.686,0.013609070555906311,-0.03508404880473383,-0.04867692230277139,0.013071810951597106,0.028412633336014737,-0.043559129767472254,0.01984044468017045,-0.029704951092763367,-0.12711305167846526,-0.036440375052713296,-0.18155825089992822,-0.16738359943355036
0.688,0.011185111666445282,-0.03669755764354758,-0.04792682759266621,0.015579737855980722,0.026009815664211393,-0.04287874663513063,0.022143043595453184,-0.031972010383482505,-0.12512313797496838,-0.036971809145061894,-0.1800309649790435,-0.1671743301129722
0.69,0.009040601180169933,-0.03826831177293063,-0.04733871113739558,0.017712503200133303,0.024769606744661835,-0.04238000229786838,0.02393294978934726,-0.03430387708464267,-0.12808056094191095,-0.040146723543039296,-0.17736770552703077,-0.16587062889145576
0.692,0.008886683553368559,-0.03826558809067234,-0.047142430322486766,0.01782554818513047,0.025085525020466792,-0.04218837945825059,0.02338675663346076,-0.0375439630702887,-0.13224795490739008,-0.043537846724129886,-0.17320039630445558,-0.1653099926632868
0.694,0.009827963138426975,-0.03871776708652683,-0.048524793518039955,0.01741920723840102,0.026432378797369663,-0.04363390470801671,0.0200990330663583,-0.04042224025351064,-0.13384662439478692,-0.046920897163538706,-0.16874756387844422,-0.16573679435478222
0.696,0.009794740815632587,-0.041560225827609903,-0.051350342625792585,0.018446027762143637,0.027657134009347148,-0.0470912649375289,0.016411472758912825,-0.04265608120079188,-0.13277316810698492,-0.04971674048187276,-0.1674450876778427,-0.1663573758896133
0.698,0.007899983139134792,-0.04486010939102272,-0.052769308204726424,0.020236822667674424,0.027236652381410657,-0.05016089055997005,0.015793167698616273,-0.0463632201217138,-0.13141752939924942,-0.0497014144634714,-0.17188741414714087,-0.16702766235741734
0.7,0.005325027975757355,-0.045645836814815384,-0.05097778892091412,0.020965531133459933,0.02511360923770825,-0.05050239239359054,0.018924025117085724,-0.05201930023379815,-0.13142457105083677,-0.04661306009862511,-0.18008527516632314,-0.16861267271404828
0.702,0.004184768281047177,-0.04370585990135983,-0.047888906061703686,0.020273045998946835,0.023429141806011345,-0.048583662809968724,0.02288400159879648,-0.056646041431741706,-0.13253527990453168,-0.04410787110246794,-0.18709439578866058,-0.17190163356081853
0.704,0.0057286879973814635,-0.04100593477817473,-0.046730021605847195,0.01901544146943416,0.0244310684817274,-0.04662994651627755,0.024419379320834232,-0.057680977803701086,-0.1329073138049868,-0.04447812213562952,-0.18958330311235239,-0.1765360116358153
0.706,0.009221267279396792,-0.03965514439643157,-0.04887515376399373,0.01799621291528608,0.027944466913088575,-0.046403106184591536,0.022961596941879506,-0.05533511403006125,-0.12928394555143402,-0.04373118654928273,-0.18688137679411504,-0.18074794662730542
0.708,0.012080383113384618,-0.040592590228721866,-0.05267488347118918,0.017778578959149628,0.03110802696332817,-0.04777631075361433,0.020853907134893632,-0.05091271860389856,-0.11896323960107086,-0.036524982678711855,-0.1805485435537301,-0.182474234955458
0.71,0.012190552222253452,-0.04223251334108747,-0.05442466441382119,0.01804631903806217,0.03124438359709439,-0.04848348662518283,0.020626404904918225,-0.045717427207544334,-0.10376455699379976,-0.024505284785344958,-0.17436254318664687,-0.1811870676571189
0.712,0.010350571808629777,-0.04104636479362614,-0.051396657896137544,0.017053608338118142,0.02864739705114899,-0.04586665626475484,0.021677756020147657,-0.04174188623195991,-0.09148726810167128,-0.015570095552245023,-0.17178877445694823,-0.17828984215605942
0.714,0.009054386037644153,-0.03558127641728692,-0.044634656799163674,0.013745514977686422,0.025592035231378856,-0.039842358736690946,0.021312975426543895,-0.04144792719139847,-0.09126906651444013,-0.01566474316924248,-0.17304896807618114,-0.17595230415140675
0.716,0.009333158150353568,-0.02912323461633375,-0.03845606450702373,0.009923402264363428,0.02375418469504646,-0.033830428568741515,0.01926984614004003,-0.04568177481024919,-0.10559443624762041,-0.023592085399115115,-0.17562916920089783,-0.175828764889984
0.718,0.010179197360991762,-0.026684231483707407,-0.03686382085983079,0.008524415607508565,0.0236067840181384,-0.0319314185841703,0.018129385157767443,-0.05231274905190976,-0.12728298345255085,-0.03339196894467456,-0.17711469547800676,-0.1782113563350335
0.72,0.010446329419606985,-0.03069329918132989,-0.04111805536711916,0.010778427732182494,0.025348386633606362,-0.035970589595268394,0.019086024112281476,-0.05793304100133547,-0.1453335964726234,-0.04091753709972704,-0.17762465807251532,-0.18216800196296093
0.722,0.01022639454284644,-0.04016392230742928,-0.050237022538771076,0.015874380110824256,0.029221664929276636,-0.045251168282116096,0.020402277702742475,-0.06083092260188355,-0.15345201083262508,-0.04764243492041833,-0.17981191847630607,-0.18644884261808675
0.724,0.010579315112824879,-0.05142651236009214,-0.06154687410877137,0.02161914160971041,0.03474592755246275,-0.05691065844762171,0.02000149166998372,-0.0618366929873077,-0.15318035998143398,-0.057634523838213714,-0.18615969072305158,-0.18980588426695041
0.726,0.012447976919386584,-0.05956774677720743,-0.07126561627667195,0.025077338248133737,0.04048633923593557,-0.06665971231162295,0.01770114230731988,-0.0622774303054294,-0.14962122954247967,-0.07128514759781704,-0.19604950294150128,-0.19119447773920112
0.728,0.01583689124795278,-0.061014026122292286,-0.07617285103025462,0.024153994593265178,0.0448063678612379,-0.07068102169773924,0.015117228147724185,-0.06175327095908766,-0.14512043739571592,-0.08291007672414145,-0.20535393067147784,-0.1907318290422593
0.73,0.019604353811039907,-0.05511203425935962,-0.07448660422893376,0.01911956914228174,0.04618337111666271,-0.06702228916701547,0.01397254448087214,-0.05894083686534112,-0.1385209186421092,-0.08556290753971679,-0.20938745482508742,-0.1897893948769818
0.732,0.02179347934204534,-0.044513086501243256,-0.06647803232100595,0.01274155890914547,0.043444710912369774,-0.05689837682809986,0.01442192723725144,-0.0542481871992199,-0.129772678828283,-0.07848405938362805,-0.20700187214228952,-0.18952286868664167
0.734,0.02072892723887513,-0.03442020106422211,-0.05535809340881754,0.00870889034567105,0.03701001428614058,-0.04538302713059936,0.015342052165588344,-0.05003884619478134,-0.12173580832891315,-0.06762416784185572,-0.20109622582467285,-0.18968528933896825
0.736,0.01632242578853221,-0.02939824888607562,-0.04573773987267569,0.008945675221972219,0.02937245871935553,-0.038195905061965886,0.01626636414943377,-0.04814340184205342,-0.11653901825842325,-0.05810919166854007,-0.19474749847936876,-0.18882055455349775
0.738,0.010652239455769482,-0.03008846095639057,-0.04063816809785448,0.012178539744690199,0.02355025265035205,-0.036916414554269146,0.018307984143096753,-0.048320247213057485,-0.11284038820176233,-0.04971923856500047,-0.18858995575748067,-0.18583234984863842
0.74,0.007208543368535376,-0.033310251612434685,-0.040460234365876556,0.015214903742131424,0.02143970553143491,-0.03874155568785124,0.022893396272830407,-0.04909434510182686,-0.10755235949876181,-0.040647976712021916,-0.1824561883453676,-0.18183731710415138
0.742,0.008216598489634403,-0.035313711478127056,-0.043557754943767346,0.015526318386615421,0.023092814958253133,-0.04061400463801233,0.02952261293516658,-0.049367615980072395,-0.09957508845443562,-0.03197843733992896,-0.1775141563079969,-0.17966599203927058
0.744,0.012167018368385383,-0.03508087468956035,-0.04729280711738496,0.013175911700782342,0.02664243238661962,-0.04195344966656253,0.0343916575199667,-0.04900494213633947,-0.09208337332408739,-0.027440994661420852,-0.17575931562693245,-0.181150361144402
0.746,0.014986154031460183,-0.034560345695888534,-0.049552992234359806,0.010824643747838198,0.029460589398266197,-0.043313172622521226,0.0326210413814811,-0.04809104488973652,-0.08968283160319805,-0.029720991768823986,-0.17809540982120348,-0.18548099007124147
0.748,0.01407673225259927,-0.035685163671086234,-0.04974051212329763,0.011164509204076937,0.03002711818506404,-0.044293448414489435,0.02360187757643725,-0.046468287714359374,-0.0923187618851439,-0.0365834330358685,-0.18344203839240872,-0.18984862187796256
0.75,0.010823382944933343,-0.037572500907258534,-0.04838213348462822,0.013867937909244751,0.028565960368498573,-0.04382629344289311,0.012698872502752673,-0.044390883000037316,-0.09474773309140959,-0.041988459898237906,-0.18963813719455305,-0.19169193304864582
0.752,0.008726025086773797,-0.037635587406421436,-0.04636671323885696,0.015995869173421013,0.02630009223924698,-0.04182160038315632,0.00662664168249453,-0.04251760767150125,-0.09230528751363674,-0.04158973305768692,-0.19432092715765792,-0.19093593730995662
0.754,0.009646258503853459,-0.035362305332930354,-0.045018502903012785,0.01538726029247003,0.02488751834457122,-0.03999544456549971,0.008050401168147085,-0.04095876673397611,-0.08467528178969345,-0.035340054882147205,-0.19512597417653904,-0.18961870133646835
0.756,0.012568374643655135,-0.03311073891634708,-0.04568107710417677,0.012598540252791661,0.025655015239929798,-0.04042270230888939,0.014111485124299418,-0.03951758759740314,-0.07491063951456127,-0.025985067477546493,-0.19110047575112152,-0.18933245215811614
0.758,0.014970109113404377,-0.03304298565831153,-0.048008608741849465,0.010091297298409529,0.02795784427889241,-0.04300751758208194,0.019743203702424068,-0.03877544144642334,-0.066358037719544,-0.017129895350039108,-0.18423977924025645,-0.1898853944048094
0.76,0.014494451767292279,-0.03540184181810717,-0.04989307931827596,0.010443892257260383,0.0291691211594359,-0.045747337972727814,0.02279564094996776,-0.040017533568819645,-0.060842069565044045,-0.011914675326454027,-0.17860556477254944,-0.19030486471787814
0.762,0.01060564154341323,-0.03925983764795169,-0.04986639202573896,0.014331436814093585,0.027560764354280107,-0.04737220900275347,0.02495696973507284,-0.043753476962496186,-0.059687048070340316,-0.012124443361273569,-0.17770449817940384,-0.1902070165618636
0.764,0.00565661247126574,-0.04260803008227106,-0.048266832670798884,0.01934698028517048,0.024487912241654575,-0.04778414949286057,0.02782604420345886,-0.04816516561329142,-0.06370014278244406,-0.017503256806641457,-0.1819962203253831,-0.18993272013781431
0.766,0.003271893555671884,-0.04271441833655996,-0.04598685985443068,0.02165445725892905,0.02269859833916863,-0.04661580057124248,0.030705535324360614,-0.04996851584345127,-0.0709113694469571,-0.025521755283159562,-0.1886048187775091,-0.19007450826806135
0.768,0.005306521933858778,-0.038263133366815624,-0.043568721838798945,0.019052155721900235,0.023197925719971486,-0.043331489675352844,0.03249261970153127,-0.047978166901335224,-0.07755791880555794,-0.032694610859039304,-0.19399000996408064,-0.19150011397917896
0.77,0.010890949802425397,-0.030825425667041224,-0.041715630561355424,0.01245956951444855,0.024986156040777672,-0.03850010749368733,0.032900384350738214,-0.045015517268993194,-0.08265016800944892,-0.037240419751520634,-0.19683695610044036,-0.19487030672401398
0.772,0.017287948767717845,-0.024143464688860805,-0.04143156705970405,0.005584783636376593,0.026991017041525917,-0.03415549808816589,0.03183124080444556,-0.044721831992332116,-0.08834865267225081,-0.040176581189991616,-0.1981092725604576,-0.19908085010043705
0.774,0.02134208710529583,-0.021463397749146074,-0.042805964737457264,0.002380166085141903,0.028679185623984405,-0.032348305055972235,0.029796074755794055,-0.046836662660320036,-0.09421658298615859,-0.04277718132006269,-0.19864291672442846,-0.20179586291113713
0.776,0.021779448406266465,-0.022623202161175585,-0.04440279596103976,0.0033566700623593234,0.02955387211167851,-0.033064531615860794,0.0282747850608277,-0.04775490116137024,-0.09575872901169491,-0.044077987291403616,-0.19795692854463817,-0.20283219324324434
0.778,0.02013592474226038,-0.024571015720243252,-0.0447067480270932,0.005487086271519712,0.0293531297650967,-0.034351695232602654,0.02820979646277419,-0.04580630932668435,-0.09151903117940743,-0.04265939392189669,-0.19611947974776092,-0.20467144914055313
0.78,0.018460233102923565,-0.024984327121515458,-0.04344438896206944,0.006087118302438069,0.02820453860536014,-0.03465279752768228,0.028964411723925807,-0.04325995218423341,-0.08632405741812475,-0.03962741371988663,-0.19529324836161394,-0.20817761180313007
0.782,0.016883655514996355,-0.02427515667192323,-0.04115883539912192,0.005479118886287861,0.026256415363939297,-0.0341246555753587,0.02961707280763653,-0.04265526581663254,-0.08424486603488181,-0.037302633707827215,-0.1978233805501109,-0.2105356620353746
0.784,0.014130181869262914,-0.024315815877680513,-0.038446102296231105,0.006071135051026433,0.02376388472659431,-0.033708365979965176,0.030743336228558127,-0.043708115546349985,-0.0826597848915768,-0.03499760745972814,-0.2025776298973865,-0.20919303615063956
0.786,0.0097502234068689,-0.025990009124928107,-0.03574026980282333,0.009336827238198874,0.021257738053335033,-0.03368413194093497,0.0336930803839543,-0.044577542133478545,-0.07647047122322313,-0.029054900221478386,-0.20445605933869265,-0.20563858921259692
0.788,0.005370991462393986,-0.027850529848889662,-0.03322148205898334,0.013345922721503069,0.019052694879676493,-0.033294141546467,0.037864230898386184,-0.04432668529121283,-0.06560864889302587,-0.018175438966230115,-0.1994566813365578,-0.203437333883705
0.79,0.0033170239303928644,-0.02782343999061818,-0.031140424832294372,0.014528666983358867,0.017135162236689292,-0.031957155184664715,0.040569632001861235,-0.04312964242683726,-0.05522838197381972,-0.005775368980577521,-0.18972806883023077,-0.20409820479950735
0.792,0.003934617002189457,-0.02661920876349577,-0.030553828515668593,0.012649768083652412,0.01604377011164637,-0.030940847196277908,0.040414460546549666,-0.04130954056613225,-0.0499390829801233,0.0033766959582524295,-0.18194566030180653,-0.20679257714951027
0.794,0.005307336188043436,-0.02689172782852818,-0.03217714704104989,0.011278000910340594,0.016673159548932597,-0.031966391106189346,0.038923245289640036,-0.03951289452861996,-0.050212876153242936,0.006739507095596101,-0.18111636266364795,-0.21052731745485648
0.796,0.005812081249225578,-0.02833201242652356,-0.034012787226144196,0.012242998660130924,0.01846845507904899,-0.03360284078341877,0.03821981970720977,-0.039090312468311475,-0.05311190996851803,0.0055565056097439,-0.18656119039816413,-0.21423729694777477
0.798,0.005938700672266219,-0.028276586737490922,-0.033887860441571535,0.013278690619649975,0.019939622367290594,-0.033090540494420916,0.03866522322778845,-0.040728213131021575,-0.05501887487683834,0.0037251491773777966,-0.19329709833544825,-0.2160760734688693
0.8,0.006997769429951573,-0.0277163942037512,-0.03429154955604427,0.01261282544798456,0.021322064061566136,-0.032144434437916224,0.039260702070810956,-0.04279680039341445,-0.05421268328618648,0.0038233607726688586,-0.1968000861099244,-0.2145481888678898
0.802,0.008515849979072279,-0.030034664065350183,-0.03829497345613102,0.011891077295304225,0.023288964765752877,-0.03463127629957993,0.03930593483555879,-0.042707426632636956,-0.0516039916739628,0.00497579738763892,-0.1964582731145977,-0.2101066271826892
0.804,0.008440061624806428,-0.033278374630684227,-0.04174411459111802,0.012434889895551216,0.023598435452163967,-0.03831482396320777,0.03900408088600988,-0.04027714211931789,-0.04968778515100537,0.004929015942218118,-0.19480764538651307,-0.2052545876718096
0.806,0.0063005086486067775,-0.031236457072908015,-0.037682764611657066,0.012324789593324491,0.019614303730198835,-0.03646796211302777,0.0386158418141053,-0.038252840886114345,-0.05050755005630781,0.002891840897912676,-0.19428975347638658,-0.20262016091818955
0.808,0.004187885426950701,-0.023512607121147798,-0.027763706688354123,0.009957773527697233,0.01348702195781395,-0.0286108529231405,0.037276878255153155,-0.039366225940795266,-0.053820368360597594,0.00024684431538097434,-0.19548981744931088,-0.2031143811938253
0.81,0.0038940604206818496,-0.017673155065093177,-0.021521083569575546,0.007467061325710087,0.010500142433619781,-0.022596990400829384,0.03347825312310613,-0.043722877136236536,-0.05736259046346712,-0.0010690039275526786,-0.19771332283876708,-0.20641426961060078
0.812,0.004970515561124546,-0.018888312119961167,-0.02378046964122176,0.007535991363215298,0.012411393164760793,-0.023798436624990482,0.027632443582290327,-0.04861233933471172,-0.05878518542675897,-0.0006683074113831944,-0.19981204752144116,-0.21139840516206415
0.814,0.0060671710215564265,-0.022854289818042082,-0.02878798497890501,0.009133340513676444,0.01550182519560996,-0.027742841496512804,0.023009885336825634,-0.05069273199504206,-0.057356040652240994,0.00021196841266763562,-0.2009851329823118,-0.2154995186821522
0.816,0.006196655417389462,-0.0223810816407256,-0.028279924354239056,0.009500912548326553,0.015180609060187396,-0.02666286482837664,0.02260555119838657,-0.048749761033979856,-0.05458472071787977,0.00045180399819089677,-0.20191397198748667,-0.216096369683095
0.818,0.004584044100659161,-0.017109609222080973,-0.021286366191511072,0.008584360939720086,0.01066197199740005,-0.01973014565044412,0.02584473022555029,-0.04458115648913444,-0.05278082815501269,0.00021185665364015552,-0.2039094431447086,-0.21326770429195063
0.82,0.0015242552656127913,-0.012720472165153663,-0.013980365439011185,0.008453219868642965,0.0052764028601701134,-0.013189285158970917,0.029348217723023772,-0.04157821830385593,-0.052373664015780794,0.000571093572778087,-0.20631303447629412,-0.20986992969635468
0.822,-0.0007478347925260343,-0.012831592595391704,-0.012074925530469061,0.009510903537755926,0.0031563297638442884,-0.012105144893423554,0.030486110398702047,-0.04197146498175491,-0.05195578465759497,0.002035636625086543,-0.20709986089852736,-0.20855906065595478
0.824,0.00013599281487600048,-0.015912296085009534,-0.016061581427077396,0.009974698603892157,0.005953190053662585,-0.015879990361007432,0.029659191175118504,-0.04533827848527753,-0.05153558175858358,0.003019393947481378,-0.2064347243466904,-0.20935362198888072
0.826,0.0038635484321810428,-0.019260245124126142,-0.022865879309784235,0.00890853287291054,0.011934032512231468,-0.02140968553572124,0.02927372285778328,-0.049857690514350766,-0.05318597061500033,0.0010851674412706994,-0.20682736019083167,-0.21042152771094386
0.828,0.007216806487031676,-0.021807502196845713,-0.02855922574586204,0.0077095458274064905,0.016916331658307703,-0.026286349032694275,0.03077314456609156,-0.0537744707904136,-0.05725687050280075,-0.0033397711221201942,-0.20967642575895745,-0.21053936526319977
0.83,0.007450361615174433,-0.02282169027148583,-0.029958405282475887,0.007736273495895823,0.01736637578714629,-0.028506076765503822,0.032767924589674535,-0.05629872704231841,-0.06118579120537615,-0.006911183688750563,-0.21417535883690453,-0.2102493248533296
0.832,0.005402151125729495,-0.021853849210795667,-0.027276713517457713,0.008368979441566388,0.014165868716571559,-0.027407355660201447,0.032680542320246406,-0.058761210756624056,-0.06363712369727798,-0.00838720195173152,-0.2194688507516312,-0.21134302511334974
0.834,0.004047688976842754,-0.020449524649289823,-0.02465026037663178,0.008626878386866378,0.011755948049194014,-0.025387265964482306,0.030167693671948166,-0.06339815095690768,-0.06690187212057969,-0.010677260752717905,-0.22574091959093215,-0.21527165008692722
0.836,0.005015702050579397,-0.020154724585878102,-0.025097034183596233,0.008396434108221995,0.012734085866798738,-0.024844590930890482,0.027279509748801136,-0.06977975753716674,-0.07375191387866634,-0.016245459398135615,-0.23323789820459345,-0.22103594113789388
0.838,0.0074963017765069875,-0.019589129940380763,-0.02657260786161411,0.007488002344014878,0.015143416344995834,-0.02447607980188333,0.025347788223832202,-0.07424150773144539,-0.08323151439300755,-0.023037754301556242,-0.24146916459673068,-0.22523268870989108
0.84,0.009253303187907737,-0.017227957178005553,-0.025639998531389707,0.005969342751358152,0.015665498384233197,-0.02231877449713278,0.02378262320775816,-0.07361823067711469,-0.09011545132735292,-0.026055996331637528,-0.248530179857242,-0.2252570003603065
0.842,0.008521795491071798,-0.015044756498620658,-0.022731180988724134,0.005247068587034833,0.013894860647602076,-0.020006030342667538,0.021858041859384912,-0.06855261534528584,-0.08888093167403004,-0.02158618542787543,-0.25071774897219434,-0.2214389118750585
0.844,0.005938216834343689,-0.01597873549401796,-0.02126412000893227,0.0066791655326752155,0.012436760255330736,-0.02051313767350343,0.020132838573165585,-0.06304100336821289,-0.07898393729975553,-0.010218379078775095,-0.2451453039043617,-0.21549684237472533
0.846,0.003970418594483576,-0.01992758535507313,-0.023338699030053364,0.009511957206336403,0.013327476793145826,-0.024111902858667836,0.019884699211265854,-0.060584068303830105,-0.06553554979702104,0.0038128351995321543,-0.23349806551134422,-0.20858008265665962
0.848,0.003878119909403377,-0.024734902793282495,-0.02813358209024387,0.011885045260630828,0.015787680575938073,-0.02891948890700739,0.021431014322995604,-0.06059609392336926,-0.05431507138416571,0.016429893011513354,-0.22123894453301227,-0.2016452465389475
0.85,0.004148250719330341,-0.028835790466245008,-0.03275583868473511,0.013397459154625431,0.017532212987805204,-0.03286230919155354,0.02316485138992235,-0.06000119782613029,-0.04770084380059989,0.02585994146973612,-0.2133590645463344,-0.19627636779596905
0.852,0.002158124102329546,-0.031127918009670533,-0.03337516236060932,0.01523701345673805,0.01657366888544037,-0.03381218239595523,0.02300280686778141,-0.058219876557895324,-0.045039295198887115,0.03211831408195425,-0.21192229419539052,-0.1939297946261934
0.854,-0.0029834238507954105,-0.031128806288625077,-0.028434714097369272,0.018279058018721775,0.012351998252974662,-0.03116482605230195,0.020751002950336207,-0.05802761004857287,-0.04469978022005005,0.03616439839472295,-0.21588269775762406,-0.19475908331287056
0.856,-0.00865172905791738,-0.03075986427876333,-0.02248465670881711,0.021833954688809953,0.007561749733362604,-0.028331630817724808,0.017539769189626547,-0.061639650782465166,-0.047143051607389866,0.03744251955636521,-0.22233316882556234,-0.1974673885234201
0.858,-0.010139425163815736,-0.03307328878959844,-0.02329689038824556,0.02401855988997756,0.007403792832545525,-0.030185243219301106,0.013500436175897145,-0.0679452105249266,-0.05615326350085843,0.032214573553448186,-0.22885434934404927,-0.2000374294372304
0.86,-0.005763148514897974,-0.038246242756104706,-0.03268312445022287,0.02380672792885941,0.013589514100463558,-0.036977697657316136,0.008524237531116459,-0.07339044318129855,-0.07303175127642109,0.01792878415378728,-0.2344385694547651,-0.20100154768935757
0.862,0.0005508127567543759,-0.04316749551301412,-0.04369812146886028,0.022526540365481386,0.021166557191195236,-0.04381815348544469,0.004588012061667106,-0.07519668750343517,-0.09118597819188183,-0.002240514157553758,-0.23913627954348987,-0.20048613712299365
0.864,0.0043725693647713795,-0.0452300592892801,-0.04948959989094937,0.021954556349709997,0.024897240120822575,-0.046919251547814934,0.004655698848700409,-0.07392548609104427,-0.10130538457773731,-0.02183628620457575,-0.24432050092804947,-0.19974061142555333
0.866,0.006085391987886135,-0.04464586909642115,-0.05068071838233769,0.021716775716868888,0.025632039839030594,-0.04723538476678733,0.009130217873284054,-0.07246716291039138,-0.10056990920071969,-0.03518039969663432,-0.2512954334825006,-0.19973495929952612
0.868,0.008181426243543694,-0.04264610881051625,-0.05086186056683938,0.02014504126490028,0.026738075355506666,-0.046764628678176975,0.014544311383596352,-0.07308995165636778,-0.09446177662292221,-0.03901906381699274,-0.25833617091041533,-0.20072655068408396
0.87,0.010389922255336742,-0.03891993859178674,-0.04935373129888704,0.016772303106722782,0.02778104940727911,-0.04442287586247374,0.01669700142808816,-0.07591926991329048,-0.09023201557943525,-0.03452812028454898,-0.2616701657159549,-0.2024764935856037
0.872,0.010394031636828132,-0.03317631920250019,-0.04357295945774534,0.0133134561132764,0.02590901860715194,-0.03880835352912503,0.01544188584477146,-0.07879577079316626,-0.08940400291990593,-0.027046165035855486,-0.2600506469939099,-0.2038584728341554
0.874,0.007264325841016365,-0.028925493019118648,-0.036167273294537935,0.012690404301687311,0.021461855476481197,-0.03329038038861583,0.014800902263560517,-0.0787146526289304,-0.08791035787635612,-0.021086690425725817,-0.25611437200805987,-0.20334283953428445
0.876,0.0026221398416323167,-0.031300519363727866,-0.03391046868182724,0.016288419606719496,0.018291790031647923,-0.033569202307099595,0.017317343277196053,-0.0751954430776983,-0.08342936412152906,-0.01730819725341751,-0.25319034658959355,-0.20106745967879222
0.878,-0.0008795394501033895,-0.039792396669786935,-0.038919319247928345,0.021874626819297964,0.01871623608941407,-0.04004586796512522,0.020635420660205423,-0.07129434859932803,-0.07901442899060829,-0.014736887649358285,-0.25212856036151193,-0.1989103080734641
0.88,-0.0022004855933572343,-0.0469948804081989,-0.044804127271766706,0.025428737626111583,0.020503882453021573,-0.04626728150726523,0.02104119945065925,-0.07033905005357163,-0.07827602208576082,-0.012628421395629308,-0.25142001541007203,-0.197351178137959
0.882,-0.0027442008724515754,-0.0462697273939118,-0.04352664886016567,0.025020685526507387,0.01945497998768998,-0.04576070236091911,0.01814209573430603,-0.07297557678979946,-0.08071217682883249,-0.01041815423486131,-0.2499485205382229,-0.19436699391248988
0.884,-0.003962620791839604,-0.03909671978347172,-0.03512932476376222,0.022206666040247375,0.014623808809747669,-0.03919863502615962,0.01478839121772751,-0.07703228326559956,-0.08326542891753587,-0.008556134500060684,-0.2485106265518723,-0.1890677188698424
0.886,-0.005355537853763609,-0.033723067568917235,-0.02836463710571043,0.02029492463340522,0.010154469787469672,-0.0340354648065584,0.013574970248866489,-0.07947409780052532,-0.08422197466008334,-0.008521960644077634,-0.24844789216608357,-0.18417018157708845
0.888,-0.005753822596105285,-0.03651279003755711,-0.030760191169746664,0.021649129604164374,0.010755883288999638,-0.03660842533479829,0.014407838283730804,-0.07922974863298282,-0.08505571703968617,-0.011166920798171859,-0.25049133306898214,-0.1828430839309631
0.89,-0.005214952796872865,-0.04572453275949279,-0.040511743002687235,0.025839893040570446,0.01614313699302719,-0.045602302271258666,0.015441293641290158,-0.07787451447628015,-0.08883427433444137,-0.01605134908127117,-0.254908389935517,-0.18501047939044865
0.892,-0.004704964001463851,-0.054724583629778965,-0.050041924604345,0.03030423766844507,0.02174839063935456,-0.054614646496469965,0.015519838743185696,-0.0771895777670098,-0.0959393902662107,-0.02144098588275197,-0.26068059687042555,-0.18819872274610808
0.894,-0.004849696867111654,-0.05941928616287444,-0.05469989915437722,0.033059153714737124,0.024038104956133195,-0.05932366827775634,0.01490000137191774,-0.07718523728647728,-0.10180870212213065,-0.024315934792705485,-0.2648213908870149,-0.19051784773950256
0.896,-0.005800666973337024,-0.06011424783953569,-0.054640320069136744,0.03407977952293485,0.022799750656241118,-0.05941456965961075,0.013957308417362455,-0.0773790482535218,-0.10051475983297513,-0.02228604323535563,-0.26442976110711774,-0.19227329226834977
0.898,-0.007561066256385702,-0.058272923837375826,-0.051134687007865554,0.03422526583093259,0.01938749142940618,-0.055893650893156295,0.012459940999921829,-0.07866419221689581,-0.09068068999273722,-0.01662001614110551,-0.2596892342727034,-0.19502407286263285
0.9,-0.009573052771410014,-0.055272862988456836,-0.04595582899739484,0.03409968840892536,0.01566669343874059,-0.05073163743619798,0.010569037688963948,-0.08199489491343162,-0.07729922448766384,-0.012044810187109277,-0.25421361367577,-0.19878491425841777
0.902,-0.010515824721782703,-0.05294877093509531,-0.04240737876721316,0.03375323848289118,0.013863852392894114,-0.047239362764220756,0.009540571470975819,-0.08617709556980682,-0.06759450821688294,-0.011923696465312432,-0.2515719281745951,-0.20136503688202967
0.904,-0.009074165585065307,-0.0520986611528892,-0.04287848868401112,0.03241096801657564,0.015345892303512328,-0.04720081017466158,0.010875229706498709,-0.08884562821656061,-0.06495117247774476,-0.014657941465033205,-0.2511340042124937,-0.20135796181147195
0.906,-0.005353341459687598,-0.05137108605575787,-0.04595437059164772,0.02928832646589989,0.019157107267814125,-0.04874242145050306,0.014811107542906727,-0.08909681827293259,-0.06704797156804594,-0.0164190394904038,-0.24882998176256993,-0.19989565264454473
0.908,-0.002154511548026727,-0.04914172743977619,-0.04703338495506691,0.02564525362868156,0.021586547109606388,-0.04827718332995218,0.019379413140773228,-0.08811531372839121,-0.06975429193949446,-0.015889536175359445,-0.24268147214099006,-0.19852296322614293
0.91,-0.0029742941408432075,-0.04579458128101058,-0.042876810544445525,0.024286033354349933,0.019222774400536134,-0.044438690503910874,0.021533996778001153,-0.08761690037738819,-0.0716021296847341,-0.01486853971145552,-0.23585820464406884,-0.19714061780777734
0.912,-0.007056614822779658,-0.04443289408695612,-0.037400408854698364,0.026311004841868553,0.014476896588651733,-0.04120942844196364,0.019581540469568157,-0.08847764004237282,-0.07419530708427441,-0.01595996014514251,-0.23359335279827056,-0.19493475409686686
0.914,-0.009442177733135517,-0.04874202787387314,-0.039423456147722906,0.030199888728065012,0.014170049018612477,-0.045143850752137296,0.01415954404168522,-0.09053103218320621,-0.07977054801959234,-0.021060751879896925,-0.2380762080771437,-0.1920941141716811
0.916,-0.007569996033464492,-0.05797745990908907,-0.05085084376243091,0.03376921719062409,0.020223167324166545,-0.05645570717209498,0.007796508215391776,-0.09273241340246674,-0.08887960751788643,-0.030741436437145095,-0.2466693611170715,-0.18983870419226942
0.918,-0.00430368991670488,-0.06601467428900269,-0.062469835844485816,0.035817478347531684,0.02691737578934172,-0.06680521832100673,0.0036706930217833608,-0.09371749049698438,-0.09939560390947365,-0.04330133894000879,-0.2549729166524907,-0.18912021219970562
0.92,-0.0032759459169626804,-0.06770583994166487,-0.0651206289425253,0.03638966294094408,0.028856561386474442,-0.06891962221355316,0.0031806614832746707,-0.09279755028678713,-0.10716092968772448,-0.05442784791767294,-0.2607519091878955,-0.1896311376544422
0.922,-0.004501637100026365,-0.06382913844130854,-0.05955856460717072,0.03592829158797971,0.02656745651612123,-0.06403097846334378,0.004728383112645488,-0.09057646044526414,-0.10870677221828837,-0.059855430287562225,-0.264095772992765,-0.1902538065796843
0.924,-0.0057929374039405596,-0.059151189581583434,-0.05320242381863839,0.03491605811517902,0.023697227399697075,-0.058514335749852285,0.005892540303302307,-0.08889436262081128,-0.10488127104518231,-0.0596278076604554,-0.2657115478716461,-0.19031090393327135
0.926,-0.00636507231805933,-0.057742387981536844,-0.05131789810197767,0.03451126108295333,0.022294019154432992,-0.05675569971014282,0.006278501038623942,-0.08961801005613002,-0.1003555369569359,-0.057677999623714095,-0.26624350408442804,-0.1898151869851964
0.928,-0.007209573999990693,-0.05999474756532138,-0.053250450611603294,0.03575696259894571,0.02178247121519842,-0.05827831896531126,0.007228040244124146,-0.09276014831648216,-0.09760928095618947,-0.05610247506346286,-0.2651692818653166,-0.18845954045792632
0.93,-0.008384073930174344,-0.06310624090556474,-0.05573079899557969,0.03759373515855916,0.021373527003928028,-0.06036589802822255,0.009156968228306542,-0.09638357802224709,-0.09401858878866164,-0.05259197627596014,-0.26072917363126386,-0.18559057195889195
0.932,-0.008261738202307325,-0.06434946111122442,-0.057305540694512824,0.03759286852422843,0.02165869060569404,-0.0616963527742877,0.010718511111229602,-0.0985421017706563,-0.08702243416087714,-0.04495431992408444,-0.25338315674768663,-0.1818087791694432
0.934,-0.006397049548463844,-0.06351844320628353,-0.05820382562930958,0.03533087438590164,0.022966004663655237,-0.062376058079064836,0.010935118025424346,-0.09858396537909152,-0.07874648894710265,-0.03551649666765286,-0.2473802150635694,-0.1788726388814494
0.936,-0.005045203270829548,-0.06187631746955918,-0.05761942120356242,0.03312104064836421,0.023749792016012575,-0.0617094190245553,0.010820376135561676,-0.09670434739828628,-0.07311290761259845,-0.028941633877407124,-0.24617357496477518,-0.17740471507441552
0.938,-0.006348088665858106,-0.05969161252926739,-0.05378080006380843,0.03273659441819076,0.02206050650302699,-0.058144752833823095,0.011992937029417351,-0.09374232702477396,-0.07098307369788265,-0.027101343598491926,-0.24836420283101962,-0.1765632456888762
