time,I,II,III,aVR,aVL,aVF,V1,V2,V3,V4,V5,V6
0.0,-0.00021939620688464173,-0.000636248999965461,-0.00043879241376928345,0.00043879241376928345,0.00010969810344232086,-0.0005265508965231401,0.0,0.0,-0.0014918942068155637,0.01219842910278608,0.002150082827469489,-0.002150082827469489
0.002,-0.0015325538613534173,-0.00444440619792491,-0.0030651077227068346,0.0030651077227068346,0.0007662769306767086,-0.0036781292672482015,0.0,0.0,-0.010421366257203237,0.08520999469125,0.01501902784126349,-0.01501902784126349
0.004,-0.004806744460818515,-0.013939558936373692,-0.00961348892163703,0.00961348892163703,0.0024033722304092576,-0.011536186705964437,0.0,0.0,-0.0326858623335659,0.26725499202150943,0.04710609571602145,-0.04710609571602145
0.006,-0.009032796624600437,-0.02619511021134126,-0.018065593249200873,0.018065593249200873,0.004516398312300218,-0.021678711899041046,0.0,0.0,-0.061423017047282966,0.5022234923277843,0.08852140692108429,-0.08852140692108429
0.008,-0.011588203338291116,-0.03360578968104424,-0.02317640667658223,0.02317640667658223,0.005794101669145558,-0.027811688011898678,0.0,0.0,-0.07901917890726423,0.6445235018158707,0.113235298404926,-0.11376184930144913
0.01,-0.011331468736914468,-0.03286125933705197,-0.022662937473828935,0.022662937473828935,0.005665734368457234,-0.027195524968594734,0.0,0.0,-0.07858654127237182,0.6315622156337979,0.10842046851940472,-0.11242769209697988
0.012,-0.00987350267012703,-0.028633157743368397,-0.01974700534025406,0.01974700534025406,0.004936751335063515,-0.02369640640830488,0.0,0.0,-0.07194656261768233,0.5537734929198812,0.0869442239943485,-0.10108639618198156
0.014,-0.00924134556795922,-0.026799902147081736,-0.01848269113591844,0.01848269113591844,0.00462067278397961,-0.02217922936310213,0.0,0.0,-0.07187394648672313,0.5228516102031329,0.06733120522165018,-0.09869470352814076
0.016,-0.009702644769566733,-0.027940213245547338,-0.019185893332248825,0.019295591435691147,0.004741624281341046,-0.02308889086076398,0.0,0.0,-0.07756618777134489,0.551274648733086,0.05479705144991364,-0.10573469795310064
0.018,-0.01026682799479138,-0.028394502709676916,-0.019001102128229343,0.019767379058906055,0.004367137066718982,-0.02326108871228124,0.0,0.0,-0.08114589910149583,0.5836996591086684,0.04399278499569476,-0.11234579007353197
0.02,-0.0102884393784385,-0.025510404182734987,-0.015770134296058485,0.018173506526467743,0.002740847458809992,-0.02036618449351574,0.0,0.0,-0.07983489044350882,0.5867174765721259,0.03131373284841536,-0.11451960277263015
0.022,-0.009992381327694914,-0.02084838888817487,-0.010951966030789392,0.015468364343089609,0.0004797923515472381,-0.015852198224327405,0.0,0.0,-0.07718953859628465,0.5738505440123968,0.019658835659816777,-0.11527534464717391
0.024,-0.009839197415524421,-0.01810428950055882,-0.008090191492757727,0.01388429316190328,-0.000874502961383348,-0.013184690792796603,0.0,0.0,-0.07682858340201747,0.5685696206179003,0.012913271400495726,-0.11696411450992517
0.026,-0.00992740615052403,-0.018591155973296664,-0.00852334356413359,0.014189077932590822,-0.0007020312931952199,-0.013627452898034645,0.0,0.0,-0.07930574367970822,0.5750946325621953,0.010158003310748218,-0.11939274806871564
0.028,-0.010053066804692631,-0.02026774133049431,-0.010232630939258237,0.01516938227432175,8.9782067282802e-05,-0.015241207928147992,0.0,0.0,-0.08345603811116692,0.5839192008502945,0.007308743850880333,-0.12245989725752798
0.03,-0.010064952162084969,-0.020871150258883128,-0.010888558756210726,0.015509231540190333,0.0004118032970628767,-0.01583867417784064,0.0,0.0,-0.08746685265447315,0.5878778637321791,0.0022207727477536335,-0.12590381657591776
0.032,-0.010221458649232327,-0.02027360079019823,-0.010082083908243996,0.015262500603354323,-6.96873704941653e-05,-0.015162871465582066,0.0,0.0,-0.08922202915489515,0.5874421739041098,-0.0039740516328512585,-0.12816633771683714
0.034,-0.01149809373544169,-0.01965992043954374,-0.008131697892031746,0.015563942681457558,-0.0016831979217049712,-0.013910873571822899,0.0,0.0,-0.08749199216988532,0.5869890183567558,-0.009503913142926436,-0.12819525303324256
0.036,-0.014789159443181933,-0.01968940800825926,-0.004869646125469823,0.017223982505916842,-0.004959756658856056,-0.012294828286668294,0.0,0.0,-0.0830002468940724,0.5895633518874007,-0.014088269742083685,-0.1270373689999504
0.038,-0.019043202858436404,-0.02003703488319889,-0.000995634515376589,0.0195410201161247,-0.00902378417152991,-0.010515433453980684,0.0,0.0,-0.07834426349552837,0.5940067826211594,-0.018480646565030085,-0.1263941649331231
0.04,-0.021602770445627795,-0.0201869669373044,0.0013982665391421715,0.020903637176056714,-0.011500518492384985,-0.009385581714490502,0.0,0.0,-0.07621556020351275,0.5970026150067052,-0.022833048330622198,-0.12668645603510356
0.042,-0.021332747834958886,-0.020069043848857188,0.0012563166913496593,0.02070458948928406,-0.011294532263154272,-0.009402669931377748,0.0,0.0,-0.07690959699866724,0.5979617675952499,-0.025715789036695372,-0.12717575519283017
0.044,-0.019866164022700104,-0.019930957798238537,-5.8753230326481776e-05,0.019895540637863342,-0.009903705396186808,-0.009997875786888488,0.0,0.0,-0.07834744888817179,0.5996087892324901,-0.025238242922512533,-0.1272537609224743
0.046,-0.019237142196127092,-0.019929353275810337,-0.0006852955262915425,0.019579789959272856,-0.009275923334917772,-0.010310782177746794,0.0,0.0,-0.07873285906511315,0.6031840398855128,-0.021866974159587674,-0.12702550605627733
0.048,-0.019485245674284512,-0.019784539218649446,-0.0002992870112904114,0.01963488917992971,-0.009592979331497048,-0.01004191638150719,-0.00021939620688464173,0.0,-0.07816470011219079,0.6065068462080887,-0.018812060769493988,-0.1266545457412941
0.05,-0.018737521941534507,-0.018507878895447135,0.00022587225268655425,0.018624585815191233,-0.009481697097110532,-0.009139117924679873,-0.0015325538613534173,0.0,-0.0776839423488336,0.6081789710464047,-0.01843169247839542,-0.125393371870845
0.052,-0.015482156378203826,-0.015210420290747581,0.0002699314396342151,0.015347190658386727,-0.007876043908919024,-0.007469342101645659,-0.004806744460818515,0.0,-0.0777604267107974,0.6099936429196312,-0.01981497521315148,-0.12222665485727507
0.054,-0.010958032717285397,-0.01095333700610086,5.891533149041952e-06,0.010955086950710877,-0.00548196212521722,-0.005474320647458163,-0.009032796624600437,0.0,-0.07805781395905619,0.613252150000589,-0.020737478523241246,-0.11802356927574266
0.056,-0.008250000933995923,-0.008176409942832804,7.514701622051879e-05,0.00821242742588566,-0.004162573975108219,-0.004051409475834848,-0.011588203338291116,0.0,-0.0783775049712961,0.6163289298860025,-0.020454001144411357,-0.11542049080810907
0.058,-0.008596309988847806,-0.007135906681683034,0.0014604939594453851,0.007866063009125108,-0.005028401974146593,-0.002837751687259133,-0.011331468736914468,0.0,-0.07957646890463424,0.6180562980920065,-0.019818618998225276,-0.11564192449983988
0.06,-0.010180284078329431,-0.005328445488653785,0.004851032730556569,0.007754767713051142,-0.007515658404442999,-0.00023830344948906873,-0.00987350267012703,0.0,-0.08274144971666714,0.6200320133023965,-0.019666985088807064,-0.11710904442822041
0.062,-0.010823747155706945,-0.0017300484706747237,0.00909326429169089,0.0062771150098614985,-0.009958505723698916,0.0036818251071787504,-0.00924134556795922,0.0,-0.08697765452929443,0.6233374465662401,-0.01993985111612971,-0.11776483801031212
0.064,-0.010299091922593116,0.001293590183844743,0.011592914392616886,0.004502634726284677,-0.010946003157605001,0.006443136145141301,-0.009702644769566733,-0.00021939620688464173,-0.08937810355188079,0.6263268176729495,-0.020152800483408402,-0.11730983326861794
0.066,-0.00969847957543259,0.0016018934401992142,0.01130072102682789,0.00404811906201865,-0.01049960030113024,0.006451133227915509,-0.01026682799479138,-0.0015325538613534173,-0.08783344700847821,0.6278659706306515,-0.020105748284487655,-0.11673575765119387
0.068,-0.009694042412347847,0.0001621636186645008,0.00985624549622844,0.004765919664233629,-0.009775143954288142,0.005009184824838425,-0.0102884393784385,-0.004806744460818515,-0.08307817882055793,0.6295228096573575,-0.01996712911859108,-0.11670598610665059
0.07,-0.010018183591138194,-0.0007681300780657401,0.009249882445991831,0.0053932423681422766,-0.00963403301856501,0.004240961717503357,-0.009992381327694914,-0.009032796624600437,-0.07819515895725243,0.6324407697201129,-0.01992659952698582,-0.11700354493305892
0.072,-0.010394805236429147,-0.0005688638266883215,0.009825838161643863,0.005536735207328374,-0.010165170750757666,0.0046285387915262505,-0.009839197415524421,-0.011588203338291116,-0.07632120938881741,0.6352086596314785,-0.020180337700454232,-0.11716189888744755
0.074,-0.011606359000626617,-0.0006812089271723516,0.010925194111802811,0.006472051358342406,-0.011594065969831908,0.0051219705731409566,-0.00992740615052403,-0.011331468736914468,-0.07846918842933726,0.6368914188731468,-0.021411177610718694,-0.11707534063851044
0.076,-0.014746285152248365,-0.002937036948303,0.011809325583966806,0.009715019061852395,-0.01415120206969502,0.004436105627821183,-0.010053066804692631,-0.00987350267012703,-0.0832291818616997,0.6390084670408608,-0.02435063894337668,-0.1169476469340199
0.078,-0.01896365237043412,-0.007738318292902834,0.011225347005714325,0.01473578132213963,-0.016479302142636897,0.001743507892314227,-0.010064952162084969,-0.00924134556795922,-0.08778671915766173,0.6424133387396437,-0.028123855115939803,-0.11693388977174231
0.08,-0.021368776579208784,-0.013419887110732033,0.007948853415603207,0.018851749199696125,-0.01611621432569494,-0.002735498821127642,-0.010221458649232327,-0.009922040976451375,-0.08994143776814946,0.6453982583349892,-0.03041327077678771,-0.11699699489795243
0.082,-0.01983663326608559,-0.01695434609172156,0.0028822628983259657,0.019387831207523923,-0.012351777472807095,-0.007036029458678771,-0.01149809373544169,-0.011799381856144797,-0.09052172881720556,0.6470019697889541,-0.030193715604573606,-0.11703464184372252
0.084,-0.015084790702669559,-0.016070658753419075,-0.000985859971421291,0.01585208085010601,-0.007323825527349941,-0.008528263402084303,-0.014789159443181933,-0.015095183839257014,-0.09244498408688515,0.6489683563632485,-0.02889274502552306,-0.11701818624739574
0.086,-0.010196578337414178,-0.011908926399358394,-0.0017123309548145445,0.010830520888935331,-0.004019900765413699,-0.006810637230651303,-0.019043202858436404,-0.01902517795229535,-0.09634833262725374,0.6523366654724192,-0.02832287375048946,-0.11698978177878239
0.088,-0.008318279103074918,-0.008469617555266547,-0.0001513346899672723,0.00814477973176357,-0.003834305490258841,-0.0043104780037290825,-0.021383374238743154,-0.021427400753815537,-0.09965188355779779,0.6553830985683531,-0.028731487378257092,-0.11676579838580547
0.09,-0.010467014175327987,-0.008243955798418637,0.0022230508381942487,0.009338495286995072,-0.006328039037525328,-0.0030104487107546415,-0.01980019397360547,-0.0212588748874385,-0.10101518604444804,0.6570360499579333,-0.029236628401385956,-0.11546595061261297
0.092,-0.015229742444238133,-0.009901106104480379,0.005328630685720957,0.012686154747691315,-0.010399914211293203,-0.0022862348823613115,-0.015059419561881587,-0.019926569474819668,-0.10241671137141102,0.6589927805714357,-0.02925840291142423,-0.11220062085459781
0.094,-0.01978817346375088,-0.010877579876911122,0.008910595000214695,0.015399907257263796,-0.01441641552560305,-0.000983493145035682,-0.010204345571526649,-0.019306297730044192,-0.1053086842594716,0.6623297567438764,-0.028994492774166908,-0.10797153759512398
0.096,-0.021722430294556214,-0.010693570774993801,0.011028863280207406,0.01617510552232166,-0.016342753655250963,0.00016764437228430497,-0.00811643854287803,-0.01970470721191441,-0.10778662084201884,0.6653445548086221,-0.028856573097921716,-0.10562924370376785
0.098,-0.020988566987418786,-0.011284902285171665,0.009703665727225499,0.01608477179487004,-0.015294154028386145,-0.0007906187914622719,-0.008938607065973457,-0.020232367868879643,-0.10704917023757853,0.6668786393735292,-0.028934547804043347,-0.10719778881160358
0.1,-0.019637737086219256,-0.014431225466611691,0.005206510056921725,0.017027601243257924,-0.012415242757070014,-0.004612356923502064,-0.01041539816889532,-0.020270854360801914,-0.10291172812635561,0.6685191813743758,-0.029046996946189486,-0.11193273099591367
0.102,-0.01931562774464541,-0.018988495015950117,0.0003271314229163422,0.01917708555628523,-0.00984640310687886,-0.009330681143627412,-0.010749483773926618,-0.020002787561530885,-0.09823027224002119,0.6714321230250613,-0.029058156659030786,-0.11679300594790398
0.104,-0.019647145495138203,-0.02155234631492516,-0.0019052005907044059,0.020615438524098233,-0.008886665185824727,-0.011728773567356054,-0.010135559502720305,-0.02005122110905728,-0.09632913243710495,0.6742065095349338,-0.029221525455599542,-0.11888658002258552
0.106,-0.01877196683225671,-0.019910690302641375,-0.0011387226483682753,0.01933516885372407,-0.008810462789227449,-0.01052470688651302,-0.009660950730970893,-0.021307983723786523,-0.09831611065289926,0.6758951105723615,-0.03050183404548934,-0.11806428010401562
0.108,-0.015410269302750124,-0.015019992337438646,0.0003902772329358389,0.015203627033416663,-0.007888769614977444,-0.007314857686063585,-0.009765347370017958,-0.024371798172002364,-0.10274283651305566,0.6780114037564269,-0.03379090950745059,-0.11658433359998477
0.11,-0.010904909846631054,-0.01012522356590443,0.000779685959965169,0.010512934037451755,-0.005840165074101395,-0.004672768642588903,-0.01007271139597125,-0.028190265752393227,-0.10688343833787475,0.6814127268295159,-0.038041997599859344,-0.11624881250816252
0.112,-0.008483255642560968,-0.008100165003961397,0.0003830903393374818,0.008296969468336196,-0.004438431986393191,-0.0038585371826809086,-0.010162539276635432,-0.0304334425584121,-0.10878528336924403,0.6843963634190408,-0.040710937804088215,-0.1168637730882558
0.114,-0.010164473145001825,-0.008974012305681903,0.0011904608714229656,0.009572918519835416,-0.005681142818757468,-0.0038917757331809856,-0.010037901419699943,-0.030167109545407838,-0.10938933550791234,0.6860013986069307,-0.041208649441725066,-0.11733966023651499
0.116,-0.014996474027825746,-0.010441189972848725,0.004555284233625495,0.01271771769302034,-0.00977476491273296,-0.002942952958935851,-0.009929414986093715,-0.028869028846061594,-0.11145641205962585,0.6879691176352428,-0.042146311577989544,-0.1172353086821859
0.118,-0.01984162253512211,-0.010742481748787582,0.009099140854147442,0.015289513924624019,-0.014467843511210407,-0.00082167048122653,-0.009945612756748136,-0.02832606525919018,-0.11542322663687876,0.6913373408049687,-0.04603331010649946,-0.1169272685512936
0.12,-0.02187501346877222,-0.010337535990424234,0.01153747741324651,0.016105670446639762,-0.016705641125500163,0.0005999707439618731,-0.010012544002721242,-0.028965350463593994,-0.11848438990296824,0.6943830057002919,-0.052184556015884814,-0.11683709312209585
0.122,-0.021032224753185655,-0.011189005173843436,0.0098432195112391,0.016111711490588335,-0.01543881862523461,-0.0006728927972506089,-0.01003567141570896,-0.030774350729948323,-0.11860984909444751,0.6960356370543423,-0.05764933965331385,-0.11696193393704447
0.124,-0.019575334900128374,-0.014579449015169402,0.004995885887956587,0.01707824549013054,-0.012286463928022944,-0.004791781565105214,-0.010010192513759064,-0.03405972119775006,-0.11706197981038144,0.6979926340263307,-0.06020185106667639,-0.11707070697985256
0.126,-0.019262007694017112,-0.019111477651222307,0.00015053008139208606,0.019186551965846357,-0.009706078200229899,-0.00948047380421375,-0.009985401674082687,-0.03802187700927492,-0.11617966349205788,0.701329912077024,-0.0600082595978728,-0.1170545353505316
0.128,-0.020072443183000954,-0.021749579049277316,-0.0016551962287875935,0.020899484421159485,-0.009219036411215659,-0.011702387647432607,-0.010206860989697954,-0.04044515237367767,-0.11678994421110744,0.704344708977322,-0.05900054422596972,-0.1169874601817673
0.13,-0.02171711395097683,-0.021365556607027186,0.0005048127170463029,0.02146454566047436,-0.011187429095099913,-0.010430371938471095,-0.011534533027921796,-0.04026914977661835,-0.11876999687331283,0.7058786282440244,-0.05919261409921432,-0.11696424975743623
0.132,-0.024554378060571418,-0.019801731081023434,0.005233321410233525,0.02193794390822899,-0.015134413511217717,-0.007284204827696799,-0.014814530583969894,-0.03892179106335719,-0.12215322484396218,0.7075190919248607,-0.06160201213590188,-0.11698976755064455
0.134,-0.028054448356844727,-0.019188472694382015,0.009769255324684152,0.02317001727857591,-0.01936368825606771,-0.0047096086847296294,-0.01903543562432393,-0.03829840921302376,-0.1260689270444436,0.7104320863727037,-0.06608269336990016,-0.11701462226814167
0.136,-0.030071723598065384,-0.019716559659953864,0.011492044659540332,0.024325671532484362,-0.02135029474956232,-0.004112257504350842,-0.021585214798940044,-0.038922943369059146,-0.12841662119094396,0.7132065408424462,-0.07151652445687089,-0.11701256844709051
0.138,-0.028783524372151037,-0.02030232779469429,0.009461088069101946,0.02405285885363529,-0.019612130480439773,-0.005420619864840715,-0.021328601082960003,-0.04076867250981529,-0.1282298516847391,0.7148951455285903,-0.07623550311020796,-0.11699802364002374
0.14,-0.024630539863102527,-0.02029780179372377,0.004839413887739742,0.022210791119362208,-0.014988272986016116,-0.007729193951707079,-0.019873763837224404,-0.04408002341069733,-0.12691858956034738,0.7170114033681969,-0.07881413478681577,-0.11699219708309745
0.142,-0.020240709324726686,-0.019977480156025622,0.0002840840595779229,0.020098713625662165,-0.010272870470044684,-0.009846698046494337,-0.01924303526135092,-0.048034695404079716,-0.1263183248191236,0.7204127075676469,-0.07904598490219152,-0.11699735144703835
0.144,-0.018289867559676015,-0.01982697054671028,-0.0017256588441564799,0.019152741923009843,-0.008187871370579133,-0.01077631469530849,-0.01970330933471394,-0.050440220178778306,-0.12693420300893807,0.723286656326941,-0.07836195927666058,-0.1167835969340582
0.146,-0.01900662085636349,-0.01992969787115232,-0.0010295410872327739,0.01952138758262857,-0.008935304030107897,-0.010479619480076727,-0.020266223322421346,-0.05025980422833043,-0.12876318236128295,0.7243448259978722,-0.0790920610120083,-0.11547032120399814
0.148,-0.020363794159343918,-0.0200608339478864,0.00034445388326964014,0.02019154086884202,-0.01037484450785528,-0.00985819003279887,-0.020287787885096616,-0.04892001751569895,-0.13207125641786716,0.7254417283144138,-0.08252762713325118,-0.11219299540097741
0.15,-0.02069053426834732,-0.020067411527903263,0.0006982263159211623,0.02034141060794222,-0.010731921577676516,-0.009684592605742816,-0.019992400122600777,-0.048302660994092854,-0.13603350392253616,0.7291002901255447,-0.08713472343946882,-0.1079655101288915
0.152,-0.0201351377192596,-0.020196455044005957,-6.960168161153192e-05,0.020148008302025254,-0.010039605013770268,-0.010143998172766733,-0.019839561928107714,-0.04870654566557758,-0.13844443541202267,0.7352749473826529,-0.0900055951356125,-0.10541112983790765
0.154,-0.019692398271898302,-0.021342032689008607,-0.00183683198777043,0.0204575690831907,-0.00891082225339308,-0.011666060031408167,-0.019927570004881073,-0.04923523066682321,-0.13826246787145133,0.7420837727278887,-0.09090258511789008,-0.10566913679561715
0.156,-0.019780471225304998,-0.024308816947960988,-0.005032557425737705,0.02181607525644729,-0.007362188035451635,-0.01491102441007764,-0.02005294614749288,-0.049271218502794194,-0.13691898946594394,0.7480321182541363,-0.09259087223220132,-0.10712715046667531
0.158,-0.020062796997810335,-0.02814161286818668,-0.008974838449164886,0.023646930879064863,-0.005547602135174353,-0.01900986549002206,-0.02006480511045461,-0.04900139920005492,-0.13630071632919005,0.7521058284292284,-0.09621054724235506,-0.10775863595273144
0.16,-0.020149574885798792,-0.030444576038478385,-0.011437534983919827,0.024709519459032755,-0.004364160617383806,-0.021520465678066942,-0.02000205804788164,-0.04885290264459269,-0.13670617781794,0.753716545260448,-0.09930926106982806,-0.10729698997172149
0.162,-0.020037125028713992,-0.030198977844608153,-0.011291186317400705,0.024549573179216636,-0.0043748779073285934,-0.021311655517764393,-0.019965618024553863,-0.04892903122953164,-0.1372361162116454,0.7541539598742357,-0.0996417841773372,-0.10673300762223138
0.164,-0.01993611784299002,-0.028878174538255308,-0.009936472144541846,0.023917005949948708,-0.004996292559808092,-0.019900998474889457,-0.01998245470946891,-0.04904636376379278,-0.13727184223053104,0.7559802808848164,-0.09817265915593343,-0.10671168143344302
0.166,-0.019949236931546648,-0.028313042363362618,-0.009293394581357969,0.0236717997468045,-0.005325193960056675,-0.01926528575079766,-0.020010382561146338,-0.049060863580866275,-0.13700121386412373,0.7595648520114883,-0.09721511326440656,-0.10700776608630032
0.168,-0.020208073543887563,-0.028734742826168443,-0.00947374367199566,0.023996619306394636,-0.005378758762317078,-0.019589375487587653,-0.020014534119955768,-0.049003767518933,-0.13704993032142718,0.7625607668777261,-0.09730770715144989,-0.1071608070676135
0.17,-0.02141207169936558,-0.0292435485992368,-0.008701330390836372,0.024889308855619692,-0.006433784682709799,-0.019485780894767678,-0.02000127626020315,-0.04896858554635073,-0.1383082259762851,0.7639914515754849,-0.09666479840618936,-0.10707251554361398
0.172,-0.024335929882214818,-0.02925993180298706,-0.005471146775551144,0.026523334143569072,-0.009673241460223926,-0.017879961258172105,-0.019992677999047526,-0.04898293926211908,-0.14137261829797237,0.7658643622277757,-0.09354429445148932,-0.10694689334558577
0.174,-0.028116341367398923,-0.028991446543096943,-0.0009725246065831038,0.028506645716412468,-0.014022818247385964,-0.01548160464122036,-0.01999580612811199,-0.04900899456414173,-0.14519052528664098,0.7692900665501663,-0.0890273885552135,-0.10693507153683995
0.176,-0.030220252304720297,-0.02885428369931971,0.001517672577431814,0.02961437703470255,-0.016436774344969617,-0.01416026543172839,-0.020001992564926838,-0.04923300291175922,-0.14765251517120523,0.772308337707165,-0.08646861260338516,-0.10721736683136379
0.178,-0.02882063744465628,-0.028935116661200334,-0.0001271314730224577,0.028871353794563123,-0.014836796905989477,-0.015027494374643926,-0.02000324045201425,-0.050534144599648265,-0.1486993672066086,0.7734220968522827,-0.08809064066146215,-0.10856701684873694
0.18,-0.024567224190249454,-0.029048518041726385,-0.004979144700217183,0.026558165531346416,-0.010047767511408883,-0.017516484711204948,-0.0200004604281429,-0.05380007878386319,-0.15067580841830389,0.774466798080669,-0.09296919974141858,-0.1118243127999124
0.182,-0.02019022453478847,-0.029058572778961355,-0.009853723427451513,0.024131445996646336,-0.005178810640142301,-0.019959395711306525,-0.019998451535426197,-0.058028744630975834,-0.15435904029825914,0.7780700956192896,-0.09786888716317786,-0.11602238086260709
0.184,-0.0183003085378544,-0.02900149791308593,-0.011890250501825104,0.023056671802668852,-0.003110601691845551,-0.020945977329571715,-0.020196465688320727,-0.060589905500739664,-0.15711482744751573,0.784224904725018,-0.10010037727940069,-0.11879303698853888
0.186,-0.01903915809242486,-0.028968751537310926,-0.011032899029789633,0.02345258956242998,-0.0039497537492999835,-0.020499102277256397,-0.02137967020134397,-0.060334493050522416,-0.15604064593280836,0.790933571962063,-0.10040997425211991,-0.11986275087362458
0.188,-0.020373637286841828,-0.028984257070525446,-0.009567341762767887,0.024200560286049284,-0.005423907466840242,-0.019774920165766298,-0.024326788327571562,-0.05887401833813177,-0.15131966746098105,0.7965682393704998,-0.1018854354067672,-0.12168758681688971
0.19,-0.020677479451374645,-0.029009533425808903,-0.009257821767105715,0.024380453252224977,-0.005747465222198253,-0.019634197908148875,-0.028129657208081006,-0.0582399414407368,-0.146197633008164,0.8002089042366681,-0.10538474206045063,-0.1252783420366076
0.192,-0.020123530434723785,-0.028815688353166433,-0.009657953004588948,0.02398664512460117,-0.0052396497300501235,-0.019726579223899383,-0.030231601407346705,-0.058701692669435555,-0.14419082525965812,0.8015735345228541,-0.10852924100428796,-0.12828884874444943
0.194,-0.019693978341103577,-0.02762177763178314,-0.008808674486686275,0.02321750090183578,-0.005425650616525064,-0.01863866232106895,-0.0288187916095083,-0.05926713948458707,-0.14640561058144133,0.8021676720222282,-0.11007500787490652,-0.12859504977321753
0.196,-0.01978756032321076,-0.024667270488877742,-0.005421904425750416,0.02195638359459686,-0.007171026668336771,-0.01530388330190216,-0.02456014904430879,-0.059289107746269124,-0.15126995634930848,0.8044738951087769,-0.11192123415715444,-0.12716148222266416
0.198,-0.02006532085683419,-0.02086671484253263,-0.000890435090273904,0.02042149547356309,-0.009591072319680118,-0.01092672496658198,-0.020187852374476227,-0.05899253058953567,-0.15584088075597846,0.8085476263043834,-0.11527150584391752,-0.12623527919862607
0.2,-0.020344368318067376,-0.018572451342595636,0.0019688002303033564,0.019534875320016624,-0.011175715582016486,-0.008222515244811676,-0.01830303653736081,-0.05883890396724636,-0.15772565829210394,0.81175089794897,-0.11837812117864563,-0.1263234383808539
0.202,-0.021413774106842687,-0.01880461071362713,0.0028990706941504356,0.020100874227335443,-0.012234965006853053,-0.00788635896329725,-0.019041755677771714,-0.05892718452788661,-0.15696134584089777,0.8130966875261922,-0.12006975142830961,-0.12566130718189425
0.204,-0.02426237570584532,-0.020114247310176123,0.004609029713984936,0.021938099793189433,-0.014672501314211104,-0.007758956737618353,-0.02037338930286213,-0.05905312108714926,-0.15562297367601877,0.8148214223066494,-0.12201172080940531,-0.12253404193106342
0.206,-0.028080289458058523,-0.020681379538184837,0.008221010004361163,0.023888619619840592,-0.018599554897175817,-0.006268039889223491,-0.020675943437703723,-0.05906509903499997,-0.15532343124212242,0.8182149423814664,-0.125320388469819,-0.11802439666395075
0.208,-0.03044063091871458,-0.020464184929885398,0.011084940503830826,0.024869774922187983,-0.021342820881086976,-0.0047154101277313894,-0.020122932081094835,-0.059002102973694376,-0.1560977219932311,0.821295461858865,-0.12813226265104188,-0.11525338235866213
0.21,-0.030230558473498894,-0.021139496685866538,0.010101180566015732,0.025210187652930267,-0.020734233829127324,-0.005582462982015416,-0.019694530773114116,-0.058965479082105345,-0.15783844470528927,0.8224564225665556,-0.1284973615602094,-0.11556170943736971
0.212,-0.028895411626706197,-0.02406712504159473,0.005364762973689786,0.026242826720741158,-0.017624276746185812,-0.009577132285259622,-0.019788150730526054,-0.058982363825881706,-0.16101798182952545,0.8234681535665715,-0.12720026331234222,-0.11716191218634422
0.214,-0.02830404135870347,-0.028136497061459355,0.00018615994101947933,0.028208724505468512,-0.014706436265903738,-0.014427196353144255,-0.02006530139267832,-0.05901041497430078,-0.16496699625186537,0.826909258184058,-0.12630710356614167,-0.11783385416875981
0.216,-0.028721036802797018,-0.030573809247319214,-0.002058636290702695,0.029733050265520176,-0.013815702341959854,-0.016903656777639914,-0.020146580235686433,-0.05901459919954623,-0.16744174336594922,0.8306217171160921,-0.12677537203871092,-0.11731394552137321
0.218,-0.02924191393312598,-0.030263447617667683,-0.0011350373300711722,0.0298023933141129,-0.014566877992396244,-0.016269433987995754,-0.02003432791293326,-0.05900128965716605,-0.1672974761414453,0.8225808981437616,-0.12869349620763385,-0.11670005880924038
0.22,-0.0292666306975825,-0.02883845416701291,0.0004757518787064695,0.029034834768217856,-0.015386004095466333,-0.014672376277846087,-0.019936416037767676,-0.05899264888272092,-0.16593717989665285,0.7844533635122035,-0.132124636086146,-0.11668669078114054
0.222,-0.028995538375901818,-0.028258897524402544,0.0008184898670140099,0.028593037928764872,-0.015406766233817837,-0.014179031433237824,-0.01995090581706053,-0.0589957849095246,-0.16529030013879217,0.7097278257834885,-0.13609701871745325,-0.1170138102264575
0.224,-0.02865512585253108,-0.028730558844637415,-8.381451756058278e-05,0.028674996775868464,-0.014766495988273684,-0.014892217764346554,-0.020011251376987983,-0.059199454905421764,-0.16569127556677474,0.6153824060851685,-0.1386430971418525,-0.11739672823568773
0.226,-0.027552772561999513,-0.029271097618218892,-0.0019092501190508652,0.028350415480433152,-0.013241359705777195,-0.016105234884257677,-0.02003216550781211,-0.060382553255278464,-0.16623468246407946,0.5250348528613956,-0.13960768113531796,-0.1186096641776693
0.228,-0.024721921687809505,-0.02927537352578515,-0.005059390913424519,0.02676921543053884,-0.0100935943763488,-0.017682680746586063,-0.020009223371465226,-0.0633265341464842,-0.1662792899046772,0.44498461194889954,-0.14122812139112054,-0.12174681446021715
0.23,-0.02093046647646815,-0.028983788117223637,-0.00894813511708013,0.024502463122595443,-0.006042858260111892,-0.01946506093583237,-0.01998685202487302,-0.06712796244746218,-0.16600555370893838,0.36527415122002743,-0.1444407439336509,-0.1259621014846808
0.232,-0.018353679745622815,-0.028842198738140142,-0.011629532626223696,0.023033085317784814,-0.0032827999971900734,-0.020705159315830217,-0.020186143016006058,-0.0694283871955819,-0.16606987851906208,0.27990786255126154,-0.1473692209639771,-0.12858714314240308
0.234,-0.017237565030068774,-0.028933523626651594,-0.012825225806474546,0.022670352822050537,-0.002137842882359082,-0.021222426205877522,-0.021381069674456563,-0.06919869454526716,-0.1674581617949979,0.200726724606412,-0.14896806924424133,-0.12836954166773562
0.236,-0.01529068729571207,-0.029054352170390475,-0.014758878267147404,0.02216265282858801,-0.00027131739143478127,-0.021928960346050103,-0.024333090119599974,-0.06788687385259788,-0.17085279390291203,0.15030164026462556,-0.15095746950945935,-0.12689226641192417
0.238,-0.01165937397229766,-0.029062228832871375,-0.0183328613281936,0.020804532455826676,0.003298289754397271,-0.023297722575453327,-0.0281319035623753,-0.06731735223367225,-0.17509537824064525,0.1382682083871031,-0.1543471612375782,-0.1262295307654146
0.24,-0.008692856015146678,-0.029000060423554953,-0.02127598229645713,0.01951963906862833,0.0062759487323906845,-0.024479204378488634,-0.030426691939452796,-0.06773205403641117,-0.1775929630176154,0.1480983853978044,-0.15739448135259257,-0.12668676159539782
0.242,-0.008429685793314011,-0.028966069719538617,-0.02155915227813092,0.019316066479072955,0.00657800243611665,-0.024627579107388105,-0.03019573403961258,-0.06823991228906565,-0.17729959062155337,0.15402211596984933,-0.1590362796532438,-0.12726568895993312
0.244,-0.009860188377046112,-0.028983760559100197,-0.020151357686913625,0.019894407360863564,0.005160379597066183,-0.024079306666279065,-0.028886384893817743,-0.06825966223742883,-0.17585567901695542,0.14662046335685053,-0.16098680527217496,-0.1272965631360726
0.246,-0.010761595207010623,-0.029010759795294293,-0.019250033371351186,0.020311338663012823,0.004244055705415849,-0.02370685979480915,-0.028318734297189695,-0.0679933022031212,-0.1752502287529772,0.13549352498069883,-0.1643267538816463,-0.12699688327541891
0.248,-0.010663266974123245,-0.029014001678469358,-0.019336010941828023,0.02029557807229703,0.004328232231463775,-0.023727459325014067,-0.028732981021860952,-0.06785531717240585,-0.17571661461433336,0.1314819621913744,-0.16736829628401664,-0.127056310674061
0.25,-0.011334053935884984,-0.029000816074099114,-0.018659260803527505,0.02054441619926193,0.0036588074300061336,-0.023456656361946444,-0.029239600843801228,-0.0679345976276073,-0.17626865297077376,0.13366333265688535,-0.16903438858822034,-0.12845641273266928
0.252,-0.014470996270763327,-0.028992748755149306,-0.015526203324500224,0.021777036561641528,0.0005302317943854123,-0.022210903700603177,-0.029259007596536248,-0.06804770613249154,-0.1762816874123268,0.13411594023080187,-0.17100006496654768,-0.13185936274889795
0.254,-0.018980540242664698,-0.028996091059211377,-0.011021769274320529,0.02358089975633269,-0.003976059092191661,-0.020412754533360333,-0.028993159473716203,-0.06805846821537294,-0.17598816028867542,0.12984726866097837,-0.17433414281639364,-0.1360994703836118
0.256,-0.021526829859720792,-0.02900209005025062,-0.008475801291935807,0.024611527466076154,-0.00652535984751359,-0.019392022757004093,-0.028855606249822863,-0.0680018910455886,-0.1760383225088339,0.1252668853107429,-0.17714521798543104,-0.1385913328756094
0.258,-0.019902855543484557,-0.029003131522780858,-0.010097140946380832,0.02396769770274,-0.004904598788543851,-0.02003746108061959,-0.028934813597579555,-0.06796899638171555,-0.1773098051157319,0.12457855883795843,-0.1774960492119052,-0.13829657879842158
0.26,-0.015030180900415673,-0.02900035519756959,-0.01496838159694169,0.02201476940714004,-3.181573483369654e-05,-0.021985757270708967,-0.0290476515352932,-0.0679841594800512,-0.1803797072399476,0.1266859636961447,-0.17619256515917314,-0.13685513001185157
0.262,-0.010134366281403288,-0.028998460716768665,-0.01986494901483137,0.02005145727367609,0.004865804172306666,-0.02394597902806789,-0.02905832427691122,-0.06800935319395279,-0.1841930495785747,0.1281427278963303,-0.17530414151773716,-0.13625161014023107
0.264,-0.008098971324935218,-0.028999070914414768,-0.02190148609833792,0.019237023227440544,0.006902002256942517,-0.02476146478945659,-0.029001852087659416,-0.06823250831503809,-0.1864304561022695,0.12794036914616394,-0.17555876181524616,-0.13691503063163846
0.266,-0.008968452471366288,-0.029000396240588245,-0.021032139675269602,0.01958740495420605,0.006031919541515763,-0.02441327190976717,-0.028969056323849295,-0.06953371264309695,-0.18616416385133303,0.12825842765171788,-0.17616388961120144,-0.13864765586760372
0.268,-0.010439185692692393,-0.02900069628987663,-0.019560847521972076,0.020177085670437835,0.004560460694247471,-0.023824062761305595,-0.02898420937194777,-0.07280014237117452,-0.1848692516000676,0.13128365793895097,-0.1763177790795411,-0.14160709265870713
0.27,-0.0107445585558135,-0.029000116348455767,-0.019255134161280954,0.020298484502234815,0.004255069523293763,-0.02370169467121789,-0.029009344313235357,-0.0770290107323431,-0.18432777919269866,0.13593232934855629,-0.17606255995407388,-0.14511752102505507
0.272,-0.010339621782277084,-0.028999675592775,-0.019660213316680938,0.02013539425045023,0.004660393542946352,-0.023864064606625664,-0.02901308063906516,-0.0793706016972435,-0.18474665136318363,0.1386060361984334,-0.17605416129035661,-0.14727053708471113
0.274,-0.011188868100798543,-0.028999781551275403,-0.01881122082489703,0.020474969397408622,0.00381134218528968,-0.02352467434395992,-0.029001148596797865,-0.07780183810834881,-0.1852411945113482,0.136966998353925,-0.17727676957526248,-0.14712905139963559
0.276,-0.014578245274868609,-0.02900007269351041,-0.015421887191248637,0.021831270111296437,0.00042184680594435197,-0.02216885503437848,-0.02899341021888329,-0.07306717516890257,-0.18525230859085853,0.1320175942261494,-0.1803552846082688,-0.1459397388412881
0.278,-0.019110977482298258,-0.02900015393496449,-0.010889037261943815,0.023644692961587117,-0.004111048257485394,-0.0203555612334834,-0.02899622554513179,-0.06820715282975885,-0.1849890899619071,0.12709334998944155,-0.1841994123657071,-0.145380597729438
0.28,-0.021749997050339066,-0.02900003385722702,-0.008249937702469037,0.024700158336428933,-0.006750081107092368,-0.01929989478614718,-0.029001793311910214,-0.06633294323325607,-0.18507671443977258,0.1253056447591406,-0.18666621949149487,-0.1459528076240201
0.282,-0.02136602922114436,-0.0289999321661669,-0.008633931566946786,0.024546323090833412,-0.006366030747583551,-0.019453563563241967,-0.02900291639219371,-0.06846824779420549,-0.18647040602348708,0.1275173127884809,-0.18770106322848373,-0.14773860061606447
0.284,-0.019801728714513543,-0.02899994912216766,-0.010198288162645182,0.02392056211496644,-0.004801683571894141,-0.020079354754583292,-0.029000414376448753,-0.07322232912584142,-0.18985491311180955,0.13226066212259352,-0.18966913975954502,-0.1510494904586755
0.286,-0.01918821364746425,-0.029000012716464837,-0.010811815812844107,0.023675272014176216,-0.004188191251863135,-0.020324750133681208,-0.028998606385620056,-0.07778395924401535,-0.19408970968871317,0.1367754931620372,-0.19335492942465737,-0.15503650002411676
0.288,-0.019716437216413293,-0.02900003383929948,-0.010283567645184573,0.023886639065271106,-0.004716451154427476,-0.02011341687998365,-0.028999108198542782,-0.07972446297429503,-0.19658909915132028,0.13889695651881945,-0.19633589931978654,-0.1574577202440929
0.29,-0.020302410676894332,-0.029000009223831565,-0.00969757556809393,0.024121002263168916,-0.005302429556255039,-0.019879012372746876,-0.0290003345546414,-0.07899183770475927,-0.1963008384233541,0.1393638326280497,-0.19657624358349776,-0.1572671727336987
0.292,-0.020297908203097174,-0.028999985938912468,-0.00970208257366851,0.024119146404679312,-0.00529790961461462,-0.01988083005560582,-0.029000646478471725,-0.07763819007915149,-0.1948583835825762,0.14097439443602616,-0.19512695135254352,-0.1559139881349486
0.294,-0.019977485752221892,-0.02899998824999448,-0.010022517348686831,0.023990965506374938,-0.0049774761235326145,-0.020009015262607413,-0.029000126219259893,-0.07731405921211355,-0.19425083963644899,0.14445240260801084,-0.19422902622756896,-0.15529576102726433
0.296,-0.020024371735880318,-0.029000002061017084,-0.009953695157929088,0.02404045961941105,-0.005046305987081407,-0.01995954404097283,-0.028999707490856737,-0.07808494148304392,-0.1947154304646348,0.1472936137208313,-0.19455866766793223,-0.155925936691677
0.298,-0.021308966831741657,-0.029000007396706613,-0.008537779201565817,0.024738157816705818,-0.006462224907715961,-0.019261854426508733,-0.02899979140081844,-0.07983745459217215,-0.19526775398524715,0.1474977778973894,-0.19520483052333434,-0.15777154746155397
0.3,-0.02438692009626854,-0.02900000240832714,-0.005132402580539867,0.026427721211815924,-0.009867598757419263,-0.017572282638657125,-0.02900005999066473,-0.08302448352380237,-0.19528190422615596,0.1461020081667691,-0.1953373867469156,-0.16107976311908126
0.302,-0.028196952303177467,-0.0289999971137937,-0.0008997658854742472,0.028543369332189285,-0.01410023251107744,-0.015456625825599908,-0.029000142492264333,-0.08697064214339437,-0.1949887544480212,0.14525712826100937,-0.19504958429147667,-0.16503300214629488
0.304,-0.030230927446026127,-0.028999997307109518,0.0013678076154876363,0.029683997604618467,-0.016367806119437403,-0.014315997981183508,-0.029000035323805736,-0.0894399367161886,-0.19506042761208683,0.14580552720998013,-0.19483980673622564,-0.16743955343331118
0.306,-0.02878174583396227,-0.02900000028879808,-0.0002383641108709693,0.02888454507321779,-0.014761636049572625,-0.015115455460826785,-0.02899993911123349,-0.08929462353837536,-0.19646281529877657,0.14773568685472302,-0.19489648078752714,-0.16726040980443274
0.308,-0.024542822298158365,-0.029000001607518908,-0.004950502268400006,0.026526477904554188,-0.010049498624666132,-0.01747352475946554,-0.028999951639165664,-0.08793680326815945,-0.19986017425591807,0.15112845982404172,-0.19503796313091323,-0.16592067063056434
0.31,-0.020199793022268778,-0.02900000061023524,-0.009779351486793163,0.024109116148477546,-0.005220648852226326,-0.019890884832563627,-0.029000010128636185,-0.087291676972451,-0.20409636397410125,0.1550757984064262,-0.19507461460839298,-0.1653026424805277
0.312,-0.01851565220628008,-0.02899999941422123,-0.011650963533472114,0.023172997601294133,-0.00334903614109515,-0.020827001413487197,-0.029000031229626272,-0.08747274254601638,-0.20637001001907782,0.15721399726722957,-0.1952343163591145,-0.1654867841955902
0.314,-0.02042177864542662,-0.028999999387180377,-0.009531430131107061,0.024234217892687804,-0.005468569528437601,-0.019765781101340762,-0.029000009389547127,-0.08670178953746596,-0.20476479990377436,0.15570155373090544,-0.19649896223641589,-0.1647025124390894
0.316,-0.024691532705382973,-0.029000000026956914,-0.0047862994908702,0.02660764807652937,-0.010213700524105914,-0.017392351980620373,-0.028999987442226812,-0.08347191242692166,-0.20004980713521747,0.15110472619503884,-0.19978255753061097,-0.16146459486418102
0.318,-0.028801278845034813,-0.029000000347306053,-0.00022033801784400366,0.02889024866062175,-0.014779662175103825,-0.015109751915658167,-0.028999988877624908,-0.0789726397565941,-0.19521906962470198,0.14627980643906666,-0.20403957546374274,-0.15696874998532365
0.32,-0.03055464348425858,-0.02900000015118138,0.0017271192051931746,0.029863323714278477,-0.016727119289182812,-0.014136676529796423,-0.029000001540414065,-0.07648196459071589,-0.19312871724723668,0.14423745373956337,-0.20660464062194972,-0.15404530757495008
0.322,-0.029896246779240035,-0.028999999882679497,0.0009954515823106522,0.029497385185946575,-0.015995451517132577,-0.014502614616147574,-0.02900000680552554,-0.07812689532461048,-0.19393643676253222,0.14577880756572262,-0.20633562068763966,-0.15306493032402102
0.324,-0.028674653700648735,-0.02899999986145809,-0.0003615333022096239,0.028819199386955575,-0.014638466620822655,-0.015180800385316382,-0.02900000241005189,-0.08297922990860243,-0.1954076607333353,0.14967148204424008,-0.20486651565559105,-0.15136607678661618
0.326,-0.02838082759087119,-0.02899999999784933,-0.000687780836969423,0.028656279235642224,-0.014312219161835772,-0.015343720763584224,-0.028999997437238825,-0.08785389299933777,-0.1957469723379115,0.1545536405778114,-0.20423574237251463,-0.14778674508965228
0.328,-0.028768266353298846,-0.029219396281462917,-0.0004645788996437839,0.029042055378710515,-0.01464511924523091,-0.015374797538277318,-0.02899999746066338,-0.08989028499844345,-0.19535797861041643,0.15941302544557798,-0.20492317756134942,-0.14471295247715335
0.33,-0.028420881358207018,-0.03053255389814976,-0.0021031159271231816,0.029809240287246623,-0.013663161023995929,-0.016992914005489475,-0.02900000018563226,-0.08903282296793205,-0.19619631904470447,0.16251139627177863,-0.2068029825459407,-0.14437029167443802
0.332,-0.026070675097380574,-0.03380674443769536,-0.00784560634736825,0.030746292334740785,-0.009535826249506338,-0.0217299432744326,-0.029000001474443333,-0.08756728660584961,-0.1995717864999031,0.16186408850977355,-0.2100962834649575,-0.1458209805346176
0.334,-0.021629096630726846,-0.03803279659347493,-0.016737335515077032,0.030972291972216938,-0.0026258073937958926,-0.028443228160121185,-0.02900000060297104,-0.08725783692986955,-0.20410382626545243,0.15805174093645075,-0.21402373821332965,-0.14677525814105843
0.336,-0.016508700206480112,-0.04058820333604272,-0.024538877775537545,0.029546832188049127,0.004203510933034484,-0.03359145113903077,-0.028999999483373888,-0.08765799034757178,-0.20675010594276805,0.15465031421062755,-0.21642611296423514,-0.14627431248484946
0.338,-0.013278364013464636,-0.040331468752826435,-0.02746558624987741,0.02721601633606926,0.007549876148904903,-0.03463269870328649,-0.028999999424175714,-0.08680868404906653,-0.20636998382010324,0.15425227388033858,-0.216259045467725,-0.1444280654910337
0.34,-0.01408397110962097,-0.03887350267895446,-0.025238201223974986,0.026189680938474652,0.005979595771754607,-0.03218194313749447,-0.02900000000688969,-0.08342188861433059,-0.20480355822235913,0.1558064821073443,-0.2149273537301099,-0.14132575916332574
0.342,-0.018048362907476176,-0.03824134556349215,-0.02094543145476463,0.02743145651759114,0.0015546258844981245,-0.029061981418182104,-0.029000000317531634,-0.07889042231945989,-0.20418692940370742,0.15682785472475008,-0.21430657924368773,-0.13780909402656527
0.344,-0.02142843478556651,-0.03870264476261568,-0.018370865362873544,0.02935377693468818,-0.001651927084864536,-0.027731592298660842,-0.02900000014791064,-0.07625059850520147,-0.20471482538615726,0.15650206404167766,-0.21470441369185256,-0.135731057048459
0.346,-0.021730255334992586,-0.03926682799390896,-0.018719098598396718,0.029994798890582118,-0.0016233277154042618,-0.028344773362329052,-0.02899999989736581,-0.07663349134434146,-0.20530234162024436,0.15579280543944,-0.21523207403906208,-0.13591175727551041
0.348,-0.020141695461435363,-0.039288439381810356,-0.020191490999052555,0.029321969899386947,3.0185517904018563e-05,-0.029323300528672238,-0.028999999870258,-0.07819771727275583,-0.20529875483121268,0.15562858499827587,-0.21527087419232843,-0.13707888311249658
0.35,-0.01915680947007918,-0.03899238132978705,-0.02076056178980728,0.02862785612612641,0.0008669193674807336,-0.02949554032329363,-0.02899999999403799,-0.07881178336430297,-0.20497792783400665,0.15593558024244092,-0.21500295738393643,-0.13760602678277584
0.352,-0.01951891597023389,-0.038839197414683634,-0.02025978243060675,0.02864711964113153,0.00039876318419881625,-0.029061970474902308,-0.02900000006795546,-0.07850325990079211,-0.20504606049434093,0.155952293838874,-0.21505129140301346,-0.13744749390315328
0.354,-0.020225608633069714,-0.038927406148980694,-0.01971332153910555,0.02903250442682597,-0.0002778262020087024,-0.02876193952348942,-0.02900000003571286,-0.07923028854645847,-0.20646186113799903,0.15458454073771125,-0.21630792462398404,-0.13817264527077014
0.356,-0.02036876639071583,-0.03905306680441429,-0.01972267324241965,0.02920731302653979,-0.00034878435606343984,-0.02885321887059783,-0.02899999997997354,-0.08250874147679627,-0.20986755897218995,0.15115549675036488,-0.21937173158164883,-0.1410920667595804
0.358,-0.020053104331677715,-0.03906495216279425,-0.020023903111410245,0.029081274156307634,-1.5070487743376398e-05,-0.029059705917990928,-0.028999999970944917,-0.08705518627238504,-0.21410041202508884,0.14688527747610758,-0.22319026619733323,-0.1451303205274017
0.36,-0.019824349371541525,-0.03889236433939605,-0.020052856794000224,0.028925784012421,7.321251147059621e-05,-0.028998790771439735,-0.028999999997050604,-0.08954188419010138,-0.21636791357688906,0.14450297142880178,-0.22523602252465225,-0.14735979116595255
0.362,-0.019887188480143217,-0.03808956483981655,-0.019188563709711247,0.02881053498627962,-0.0006707535226496457,-0.028165168714874036,-0.029000000014447237,-0.08786931079445409,-0.21476158941215584,0.14558036706058955,-0.22378782828682142,-0.1458796091695556
0.364,-0.02004196607358169,-0.03570306771749442,-0.016662775235335756,0.028236123114404852,-0.0025672557612144544,-0.025823881745540424,-0.029000000008510347,-0.08300594308130539,-0.21004941770604457,0.14943308174833259,-0.21954294710741457,-0.14151925361129833
0.366,-0.020081598205768603,-0.031236600277616516,-0.012141398564657124,0.02655354155605233,-0.0053606754471648334,-0.02165055966888982,-0.028999999996180813,-0.07814109522144809,-0.20522063565218623,0.15454783977215564,-0.2151965333015508,-0.13713513935950458
0.368,-0.020016070808079385,-0.025358579040761324,-0.006192321021400653,0.023780908569505408,-0.008424553931929092,-0.016104921621218727,-0.02889030189008913,-0.07589601634196307,-0.2031296777883268,0.15997890312183655,-0.2135140270737831,-0.13530017773200445
0.37,-0.01996314660118552,-0.01869381806845559,0.0007530866112882791,0.020392412634692825,-0.011675790590725228,-0.009394640094298317,-0.028145964585563926,-0.07544007967652254,-0.20393604095185314,0.165640315974438,-0.2154227812987397,-0.1360691562937402
0.372,-0.019973627108384844,-0.01078716550125117,0.009070948879526176,0.016423795562625576,-0.015602584398015035,-0.0010298729720555314,-0.025764210021214488,-0.07351576787134893,-0.20529724937936183,0.1714387162639408,-0.21969289850022347,-0.1373880369607141
0.374,-0.02000751475962946,-0.0014328395697283023,0.018580060604328798,0.0116317057890237,-0.02005227305091276,0.008722932628262296,-0.020808953837139776,-0.06885211304899665,-0.20487087261938763,0.17606395988227863,-0.22360392746597366,-0.13755828860646072
0.376,-0.01990828363908508,0.008374795115116237,0.02795568753321752,0.006266471305273325,-0.024082622266072305,0.018352782179505398,-0.01314378325469361,-0.063297357516615,-0.20166210823415112,0.1781295910042498,-0.22417464991564162,-0.13612546483676982
0.378,-0.019018814923004588,0.017671404864678934,0.03592678241632342,0.0008388537654691771,-0.026994997336540493,0.026486461387542657,-0.004093166278698818,-0.05835679643198118,-0.1955986447518012,0.17908786716696048,-0.22067948543927918,-0.13264761526167737
0.38,-0.01594670648607246,0.02601436811992457,0.04120768273817317,-0.0046817714567484745,-0.028158474816514154,0.032314766392126076,0.0034937110234285335,-0.053685139263755,-0.1877250276169944,0.18240790052424052,-0.21631160698539792,-0.1267045505465528
0.382,-0.009575373461015549,0.0324077651988599,0.04174618802012861,-0.010567176415997605,-0.02634678213172703,0.034951441183295004,0.0070061442388973764,-0.049501586111325394,-0.18096512077436955,0.18871525464062916,-0.2153551216755333,-0.11983851528972973
0.384,-0.0005818624378125575,0.035822220374459576,0.036733553704947956,-0.016493640332050263,-0.02086498596949995,0.034143151046130034,0.006327537480801464,-0.04729061883741548,-0.17811650016260097,0.19355695803107212,-0.21808638292243174,-0.11559412892519719
0.386,0.008100537384525148,0.037652162562469775,0.030116512758965916,-0.021811680871626618,-0.013888772500471755,0.03234479526901457,0.0032625006505375364,-0.047100080997258945,-0.17775545541423646,0.18910642922243415,-0.2204164419020196,-0.11650193652870489
0.388,0.012330978009468987,0.04117813463805715,0.029285899331119997,-0.025743955042018516,-0.010547661869780539,0.03412605654221328,-0.0006750519007781001,-0.046925533408214794,-0.1742224791594558,0.16784592094783293,-0.21914182589505066,-0.12158282240655449
0.39,0.009857748585864232,0.04686367269152058,0.03714295881883531,-0.027124502350594954,-0.014142439205777211,0.04093219551896937,-0.0042213865575152715,-0.04594883075413711,-0.16330536810761254,0.12931405923547307,-0.21563217678140856,-0.12695551029650184
0.392,0.0035335518468734032,0.05107694115935094,0.04745203728256537,-0.02587615374048284,-0.02137686406292443,0.048290369033051915,-0.0054987854108936775,-0.04572027901083756,-0.1444182027131989,0.07798723591442347,-0.2135623651564601,-0.12903384492807854
0.394,-0.0001768865220488894,0.05132763369359666,0.05139148463823064,-0.024406216282482344,-0.025195139080890945,0.05088840017544332,-0.003724177865054923,-0.046813874905362374,-0.11176106756275007,-0.0012399834996284081,-0.21443948220911213,-0.12733470917837145
0.396,0.002423988900174887,0.049955043208632345,0.04751917516905139,-0.02531699281985765,-0.022804015491301746,0.04880358036153254,-0.001259785096930635,-0.04720540876587413,-0.04989498164822738,-0.1538296809059716,-0.2161313723522045,-0.12406072953088657
0.398,0.008015066886244824,0.05112720092853004,0.0431868624916185,-0.028261097283840936,-0.018846046261361996,0.04709349591873609,-0.0018003960270152088,-0.045557221932678055,0.048394081583992214,-0.4088284691662546,-0.21542337764700747,-0.12165547414873826
0.4,0.010561943207266288,0.05616353725975543,0.04578645859380728,-0.031177816898196854,-0.019324569218590194,0.04998299206544171,-0.005919899091368296,-0.04322096366774132,0.16331695324999485,-0.7239471343557199,-0.21174269590977743,-0.12098869702167896
0.402,0.009740563078981138,0.06309377788243249,0.053820573123182856,-0.03398950794910277,-0.023722057155661558,0.056555584986576035,-0.0098089827545014,-0.041344525002067006,0.25730934402242167,-0.9989259753153427,-0.20725409930559296,-0.12096324070948707
0.404,0.011022649070344946,0.06935569855938936,0.05921286854476252,-0.03823010775462414,-0.026039535735819457,0.06245086446332519,-0.009762957057523612,-0.03890882963672514,0.30211619931036154,-1.14653961243716,-0.20355070697218552,-0.11979634300718067
0.406,0.016746596389762416,0.07331922926415131,0.0577055755549786,-0.043332339347269815,-0.023190431310765678,0.06458992481302794,-0.0069951757574639745,-0.03531758600809802,0.2990390474053739,-1.1594249351959676,-0.20075462027691365,-0.1167793793026541
0.408,0.022794458658201157,0.07455175449920068,0.0527480902016804,-0.046890101864969023,-0.018191711617003187,0.06335283290668384,-0.0059120459735922904,-0.03224113666275887,0.27631624696374635,-1.1120595405688467,-0.19895671986648183,-0.11215005496661704
0.41,0.0255498142518888,0.07459926272030937,0.04956347435836566,-0.04876009378304373,-0.01471963659521895,0.06149872590668552,-0.008123788028704816,-0.03150960204521212,0.2627772228019075,-1.0862546358416412,-0.19761847544848493,-0.10612208220981147
0.412,0.02640930625449733,0.07622394343445804,0.0498330530271876,-0.0511925245416494,-0.013102484782151232,0.061911523524234985,-0.010995637812695485,-0.03264692609390593,0.2645017428920948,-1.1015613367331991,-0.19502793290614565,-0.09937641327631096
0.414,0.02782343373938662,0.07942041408110445,0.05140324928489693,-0.05426878640478119,-0.012095195287598457,0.06446182404805646,-0.01232801158212777,-0.0331146497328262,0.2690402150355919,-1.1258978019556556,-0.1906106817165852,-0.09340400123095385
0.416,0.029363062285784693,0.07970709007161542,0.05023642310692987,-0.05476705142087286,-0.010762695702731966,0.06483322414117987,-0.013521065102917836,-0.03149955115323808,0.2651439351692015,-1.1318592888877594,-0.18604096034949563,-0.08938803245173302
0.418,0.029158052265961312,0.07369549177393754,0.04455927295744291,-0.05084020988428312,-0.008819190033713618,0.059425251253214136,-0.016993024542173073,-0.030377534996969126,0.2525695829625788,-1.1228306484302135,-0.18286147269722258,-0.08752571321414016
0.42,0.026841551432161867,0.06437931185060752,0.03746131978407752,-0.04479220255115346,-0.006966063888164361,0.05048497681808748,-0.022653861910212753,-0.03407213096874765,0.23715605538737325,-1.1151882245439084,-0.18120935727452078,-0.08742767881586362
0.422,0.02410903917358279,0.057427321224462154,0.032850836285345235,-0.04012167859711156,-0.005953564407115537,0.04320899297381412,-0.028376886847236847,-0.043188109449590076,0.22325049415329315,-1.1158697847968684,-0.1812644482501021,-0.08861983426512857
0.424,0.022889628205060353,0.05480836366429214,0.030980376024859795,-0.038226169291779036,-0.005488294143337319,0.039901843437207714,-0.03246937475814706,-0.053040662228155816,0.21206784870429457,-1.1206555410685028,-0.18325444141988118,-0.09064658781004652
0.426,0.02329684648799651,0.05464408887955906,0.03018651384596909,-0.03813472563723572,-0.005062152627031188,0.03945408283058616,-0.03447625568377195,-0.05781836720273658,0.20428573605578276,-1.1242734505188057,-0.18605386768060345,-0.09270351289008036
0.428,0.023646297047016943,0.05391052258741573,0.02931400321794406,-0.03739778925808841,-0.004668895668100959,0.03947777193588632,-0.03485706047392449,-0.055920035210296766,0.2012062098534127,-1.1263828167951124,-0.18770157618912664,-0.0937555097194821
0.43,0.022610761100883614,0.04938368831969507,0.02641424882724942,-0.033736996122007167,-0.003840440971289367,0.03675673841663968,-0.03516418924999697,-0.05210000359889414,0.20225368636708968,-1.1297843982360498,-0.1869919658107432,-0.09354805247061666
0.432,0.021073424964852254,0.039665874040238476,0.018880817910244724,-0.02759166339747956,-0.0009791308625012555,0.028680347683836385,-0.037455426653293454,-0.054109594259184615,0.20274106410904078,-1.1364529563455172,-0.18478124417137934,-0.09301168394638684
0.434,0.020994148505497235,0.027841975494068555,0.007320358467864534,-0.0221729133589567,0.00487294212433051,0.01670244552705825,-0.04157803523694967,-0.06534784750078437,0.19681412925907896,-1.1457723216339513,-0.18430002888390776,-0.09343432766914997
0.436,0.022329857446576715,0.019378680054256237,-0.0029221273667008503,-0.019729659956719135,0.011424758308053232,0.006660425303255406,-0.0440562500513332,-0.08071255992459042,0.18326065228180108,-1.1546273577770179,-0.18818574273244665,-0.09529616408446442
0.438,0.022809466386307868,0.01633284482307949,-0.006965046474130954,-0.01897819299559593,0.014515589205885358,0.0030897657854494554,-0.042351397294083305,-0.09113323224884878,0.16641278550089103,-1.159548465178559,-0.19492956566229006,-0.09764374965003143
0.44,0.020990940701793,0.015182571165874698,-0.006281145909129596,-0.016971488037888557,0.013023126852756056,0.0037474045489036497,-0.03883182174228242,-0.09224685086501681,0.15069638354996925,-1.158605675739111,-0.20034328044777988,-0.09880310848595122
0.442,0.01715532741646139,0.011571744067958323,-0.005633765889258451,-0.012485019581777222,0.009468306139020307,0.0029297575368560733,-0.03787825607334702,-0.08713768096448461,0.13601014634161995,-1.1460641810440502,-0.20129813570977415,-0.09788677557735263
0.444,0.011804193867357593,0.005803104811614668,-0.005776735340508467,-0.007086699653600412,0.005756875601492592,-0.0006696528647005459,-0.04057546721862547,-0.08126970495657015,0.1186336155160173,-1.1080467329035903,-0.1970507213773995,-0.09546266441941187
0.446,0.005905989221476539,0.0011307048771923515,-0.004633390590661824,-0.002894399424434019,0.002192298028082357,-0.0038693578594995153,-0.04411632804516333,-0.07782405034995034,0.09544641916046663,-1.0363986128840883,-0.19003053031517095,-0.09327490233541207
0.448,0.0007402360768712626,-0.0016799042970179574,-0.0024711496892628744,0.0003501478770629792,-0.000852868773359189,-0.004823636466478748,-0.04531127517998183,-0.07772430995087887,0.06809445695044627,-0.9481614667421406,-0.18481104433426712,-0.09337453014829188
0.45,-0.003887332662392581,-0.004591519914369113,-0.0008056972642800057,0.004584298548391381,-0.003412131229791765,-0.004488726920599633,-0.043161583325462154,-0.08083072229170342,0.04528102187690471,-0.8839238283394717,-0.18315116594540548,-0.09629543071137643
0.452,-0.008434430763089772,-0.00878006795300854,-0.0003666658493499794,0.009957715060172881,-0.005508737734428627,-0.004732909432761863,-0.038743239101905455,-0.08599464177631642,0.03864865873215985,-0.8816453536600336,-0.18272378431212036,-0.10002611487605514
0.454,-0.011454146200270438,-0.013664994427779804,-0.0021656670660259655,0.014280837319712822,-0.005794614680557121,-0.007218070127524503,-0.03427798887217838,-0.09118815790626521,0.05110307374441525,-0.943947012866753,-0.1821963214025284,-0.10220890400422959
0.456,-0.011829931181494516,-0.018313939657016966,-0.00647290165708315,0.01625358821484855,-0.0035182635317709057,-0.011950041815321328,-0.03183149141648156,-0.09505985588586853,0.07169716868697704,-1.0322369786127135,-0.1828302302263861,-0.1031137667577116
0.458,-0.011657002166941556,-0.023083781720554076,-0.011566948334165862,0.01782319706799205,-0.000679170895363026,-0.01740626764056986,-0.032095351506778814,-0.09886634662547539,0.08643679988494463,-1.1009693976357986,-0.18504803366129183,-0.10532304085560609
0.46,-0.014027951614450942,-0.030305361877849046,-0.01662708436991388,0.022408672197328526,0.0006534144249002943,-0.02360106104211919,-0.034796004986910725,-0.10546983540657277,0.09012394149887493,-1.1342415950476756,-0.1885033085898956,-0.11122680002294764
0.462,-0.018587196943046343,-0.04184278634672666,-0.023705932856489583,0.030567144512004124,0.0019541108878831552,-0.032637708410901356,-0.03955360569205312,-0.11571834778942791,0.08600997264232992,-1.14706204005345,-0.19465412795317216,-0.12118448967023093
0.464,-0.02210015126790759,-0.055676917104776485,-0.033954247824863344,0.03907377719823021,0.00574046555662909,-0.04468813498955364,-0.04566470740314054,-0.12717601395737185,0.07949801157849644,-1.1599387027342696,-0.20460241051499964,-0.1326061322819428
0.466,-0.02381619344826446,-0.06716389933411492,-0.04364180965563102,0.045386105433051355,0.010074933893585209,-0.055920164862138785,-0.051549810530288474,-0.13653661901324615,0.07436354439863364,-1.179053089196112,-0.2149952068786518,-0.1407060544670466
0.468,-0.02665349449526202,-0.07376457281454288,-0.0473893526345206,0.050479265014851206,0.010167246615511973,-0.062175084559897814,-0.0551321081422993,-0.14225812828260034,0.07194790981574688,-1.1981262276214704,-0.22008770752322354,-0.14240350348492367
0.47,-0.0316169760319135,-0.07662613732418722,-0.04520635663496763,0.05562117545596566,0.005944312368512027,-0.06331486013837553,-0.05567082737783728,-0.14499386643495385,0.07134415826386989,-1.210215536735988,-0.21840260939571604,-0.1402185162314047
0.472,-0.03505564264013682,-0.07789074348008626,-0.042857083774832765,0.059067901699730196,0.003071543046280741,-0.06254532254835383,-0.05501921347218729,-0.1461116309815082,0.07028171871053907,-1.2140389516967613,-0.21443253259117911,-0.13992024996302152
0.474,-0.03398475055653591,-0.07865674131856597,-0.04458068372517305,0.058686851811345406,0.005156588890494392,-0.06252936237079547,-0.05574817749339583,-0.1465060198387445,0.06664450393484796,-1.2128264690441242,-0.21297631976627818,-0.1435031267325665
0.476,-0.031202427405820937,-0.07988785336919718,-0.048622617082832116,0.0564463363202001,0.009073871449815104,-0.06377085005525776,-0.05807420162473032,-0.14696871460229097,0.059575133934440645,-1.2095991434423636,-0.21430764190755364,-0.14736952944643736
0.478,-0.03184834487239158,-0.08268402977672974,-0.0508524236315709,0.0567655395429677,0.00971522189122561,-0.06575307768788537,-0.059933389149137165,-0.1483297099348948,0.04974763505841182,-1.2047668464405448,-0.21574837531378493,-0.1481439398510554
0.48,-0.03577062910665401,-0.08607332794745823,-0.05034485864976087,0.06010590381222482,0.006841785076718893,-0.06779609010130365,-0.059860240301111076,-0.15037605277730048,0.03929240634282524,-1.1990782003654399,-0.21573119060982188,-0.14730239272437112
0.482,-0.036992154574110675,-0.08709457531312866,-0.05011379188754491,0.06186314413439712,0.005183755710284304,-0.0694484751830219,-0.05823940662644382,-0.15165326737801174,0.03163679059423982,-1.196012932879552,-0.21494272706399398,-0.1490051622931772
0.484,-0.031960977944260484,-0.08498437741166866,-0.053005967200755025,0.05904227329664652,0.008268430730701954,-0.07092136311307687,-0.05608456343390026,-0.15095895388642983,0.030016629395861395,-1.1983270243364064,-0.2145748091917079,-0.15470317747743623
0.486,-0.025032347639490353,-0.0829231156097858,-0.05787623826147688,0.054794079532250024,0.013979127966340552,-0.0724434064126242,-0.05423407204528477,-0.14857856973772218,0.03416542759310758,-1.2037820530775607,-0.21482833360519588,-0.1610341128200496
0.488,-0.023038506718473503,-0.08376429685610771,-0.06072834525844224,0.05401755305836546,0.01727535192040292,-0.07327146502785828,-0.053363591029107725,-0.146093603348426,0.039241267178531186,-1.2071746958964262,-0.2150402460534069,-0.16358026433845235
0.49,-0.02666351290261341,-0.08570985322096265,-0.0590554834270333,0.05658073569967776,0.015976483925330295,-0.07202623423567951,-0.05343540409199892,-0.1450275645984213,0.039761130307725656,-1.2059371211670924,-0.21428927312859458,-0.161487582481773
0.492,-0.03062163597774496,-0.08461190218465772,-0.05399323910845989,0.058006087530653366,0.012234455752438686,-0.06824184170163593,-0.053311725034273096,-0.14545934591530105,0.03439429671033637,-1.2015841302162953,-0.21171774921524567,-0.15702263692726717
0.494,-0.03104437371420687,-0.08008148601523919,-0.049033543583042204,0.056067542555370505,0.009388700624166378,-0.06369900891838642,-0.05186806537618413,-0.14621966124191144,0.026900345618222885,-1.1965979078636029,-0.20711269256077286,-0.15206539195234003
0.496,-0.02915043957841544,-0.07644415915046542,-0.04729039287336522,0.05335934942799861,0.00898616092018143,-0.06147467472655457,-0.049572723239392116,-0.14629812655152885,0.022780714973764073,-1.1920586260286028,-0.20147770301126872,-0.14697654590247497
0.498,-0.027976435159107336,-0.07751873532808065,-0.04954265867899578,0.053274555915596065,0.010535414621100213,-0.0632702282146676,-0.04810290927068441,-0.1454535524703829,0.0242744829383251,-1.188193313819865,-0.19665022902494492,-0.14258378273391176
0.5,-0.028537921206730408,-0.08270732301504272,-0.05417138846734079,0.05613457160291853,0.012743101596700245,-0.06805106951547443,-0.04823707390210635,-0.1439011210977696,0.02845262886156853,-1.1855058686319753,-0.19412426625692125,-0.14111056845733908
0.502,-0.030048816860692443,-0.08805320278097115,-0.0580051391966713,0.0597561891938044,0.014076814963628306,-0.0728101037015216,-0.04896321815015515,-0.14226703375063848,0.030844207744869904,-1.1841668899835216,-0.19398425130529004,-0.1433491139248384
0.504,-0.03195913100482623,-0.09013319180154974,-0.05817333643739903,0.0622119691856727,0.013194072288784829,-0.07472058516858723,-0.048670585853258924,-0.14140350266596372,0.029555928071058203,-1.1818309048872755,-0.19479621371720093,-0.146504252693889
0.506,-0.034341606881006785,-0.08904019404133778,-0.05469783008817706,0.06317599227781025,0.010165873672106931,-0.07326180915950926,-0.0467674836763321,-0.14155121793258882,0.023651519784794277,-1.1705419124115846,-0.1945716741127427,-0.14705356086672744
0.508,-0.03709203608245132,-0.08732867761737907,-0.05023667521617999,0.06325345157974674,0.006464227733130344,-0.07008469173075385,-0.044329388869976366,-0.14206943568181413,0.01002098109124764,-1.137561059968861,-0.19199879620074875,-0.14451406229800634
0.51,-0.03981353024857578,-0.08642599250469223,-0.04661289149600168,0.06305714703182932,0.002997803777440087,-0.06699229782310945,-0.04303964656211616,-0.14226673099294665,-0.013273062887886383,-1.076901627613364,-0.1872407102040686,-0.14100438119932746
0.512,-0.042077502262740825,-0.08529364292683284,-0.04321632731183009,0.062840785877664,-0.0006121714311768824,-0.06447400890834021,-0.04333890286564675,-0.14209112366448276,-0.04217514465463768,-1.0006402074603193,-0.18180790625086257,-0.138479922827505
0.514,-0.043025734311006376,-0.08234670174846394,-0.03932082234439998,0.062220703415811845,-0.004090830314302126,-0.061876118775471466,-0.04415606849971675,-0.14190002726136622,-0.06955193478932997,-0.9304505574038118,-0.17749578975941954,-0.13776748468215147
0.516,-0.04132115840354169,-0.0777421790552662,-0.036420849489313734,0.06032075239941821,-0.005293857680295475,-0.05902396162194977,-0.04442110384008084,-0.14190303328666276,-0.0912675869382258,-0.8772008566423156,-0.1753373776478574,-0.13900493325422042
0.518,-0.03657885719318441,-0.07396351124457363,-0.03738465147551584,0.057017085619101154,-0.002058367446692334,-0.057639839791331554,-0.044227682579608206,-0.14189845400476775,-0.107349561403524,-0.8344082169282926,-0.1751746905132075,-0.14129151781478197
0.52,-0.03063993876087164,-0.0738112428022134,-0.04317139621828304,0.05396835757346252,0.004939499476450557,-0.05983077396249942,-0.04459540955159319,-0.14129043606438282,-0.12016161086301258,-0.790704545972244,-0.1756715887592066,-0.14263439514041445
0.522,-0.026912806824666256,-0.07730298885404434,-0.050390227463848,0.05342631931135076,0.011307489528534737,-0.06482155965530621,-0.04614831586336287,-0.13961924559032582,-0.1325595721380356,-0.74393937686493,-0.17480688916493783,-0.14127235374904784
0.524,-0.02783072227091995,-0.08155600286687392,-0.053725251994839164,0.05577634824941043,0.012221465023247433,-0.06900396936322538,-0.04777382573424016,-0.13746346045353205,-0.14526993708433256,-0.7016143221769708,-0.1714055252971836,-0.13716643058420214
0.526,-0.03211403873772509,-0.08386220771108342,-0.05174813051724972,0.058884687798311096,0.007824941892216861,-0.06986919967462049,-0.04748125475181908,-0.13618393934702916,-0.15581849828376929,-0.6696222012428663,-0.16688795420490266,-0.13253180384747346
0.528,-0.03581404249869799,-0.08397438797815492,-0.04816034271900829,0.06049706358926843,0.003224729170420493,-0.06842747419696801,-0.045179611539182055,-0.1363347693484016,-0.1617691421475903,-0.644607869316158,-0.1640415641706024,-0.12999760438651936
0.53,-0.03730689382345169,-0.08375052347962875,-0.046443649324030695,0.06108956955477706,0.0019297386161739134,-0.0672500858659102,-0.043107715195905186,-0.13707547253738492,-0.16494184149103636,-0.6189782930849632,-0.16310758148618065,-0.1292778295293728
0.532,-0.03887942159704699,-0.08497524381594018,-0.04609583311977852,0.06301131928656636,0.0023081841516166273,-0.06741956727635347,-0.04292173557852816,-0.13738489089736666,-0.17066977236793765,-0.5898720513159985,-0.1613882736338032,-0.12749305396029573
0.534,-0.042132732468817685,-0.08733186187170403,-0.045199123876539946,0.06660630870420048,0.0015669273555081315,-0.06812706663254744,-0.04391777735092589,-0.13703496613565913,-0.18140451167429114,-0.5597340523165969,-0.1575545541403913,-0.1237313109488197
0.536,-0.04489819294848374,-0.08871731241092375,-0.04381911087388696,0.06915156566652388,-9.264093522276998e-06,-0.0682645577129833,-0.04442269385250947,-0.13609535584668905,-0.19235219918249044,-0.5300809059882657,-0.15338155609844842,-0.1207270096124552
0.538,-0.0440605318818226,-0.0872994858607139,-0.04323895289238401,0.06806344359391668,-0.00016330397587161502,-0.06734266722254624,-0.04353425661635994,-0.13445223235196765,-0.1965871385261315,-0.5001874772274683,-0.15109438261758476,-0.12112117011137721
0.54,-0.039556702000526064,-0.08313111215040071,-0.043574414317872893,0.06372001915556841,0.0018641275344322664,-0.06535691542435455,-0.04145232800166198,-0.13249003017867872,-0.19406181965642413,-0.47248401173199595,-0.1516040664832903,-0.12437888361553827
0.542,-0.03501376431257033,-0.07827840133115174,-0.04326463960237804,0.05902112596190182,0.003928302697010414,-0.06251929803273233,-0.03914173525158348,-0.13128764657327635,-0.19186665627071436,-0.45272268042730623,-0.15433485273866682,-0.12808774499976133
0.544,-0.0341097373144901,-0.07437989928342784,-0.04024822130783823,0.05620300780313071,0.0029981447478799198,-0.05855119892708283,-0.037297692468014815,-0.1312600784956808,-0.1954455595343564,-0.441808768866652,-0.15749232627855173,-0.13054931678892956
0.546,-0.036136993837883956,-0.06976832374410488,-0.03350001223377869,0.05419205614280619,-0.0015592355603958664,-0.05224394157495702,-0.0349686378858109,-0.13126932785352763,-0.20307750853325096,-0.43163735908500445,-0.15966463559800484,-0.13120206563898826
0.548,-0.03775092119470502,-0.06134070976184865,-0.02326236916408825,0.05064831587147951,-0.008061907886403893,-0.04266704998012217,-0.02995886342786709,-0.1299433773944494,-0.20933490920572306,-0.41245471399909467,-0.16058038528545993,-0.12975539139759118
0.55,-0.03856890787442587,-0.048528010432943955,-0.009536498218944145,0.04542802253999157,-0.015752762408483938,-0.029927569990890135,-0.021436493902741282,-0.1275221075054766,-0.21098280440949804,-0.3833778829646439,-0.1596310927189429,-0.12618545018395677
0.552,-0.04050060600752672,-0.03164999325553707,0.009106152817306451,0.03874312467164548,-0.025850391567114234,-0.012979967828423183,-0.011492772215196392,-0.12479720827117378,-0.2088194391436676,-0.35250106366773015,-0.15549276481639326,-0.1210255236822327
0.554,-0.04342144777515027,-0.0073118421020663855,0.03608393240195499,0.027835403399467475,-0.04041854346260427,0.012653892568293305,-0.0022855970973957957,-0.11915184305008716,-0.20408170628998087,-0.32540737131296205,-0.1471342542627343,-0.11455784811330336
0.556,-0.04567468317122581,0.029703954534200903,0.07525478114045421,0.009468580310525238,-0.06114894348840975,0.05164119582953198,0.007960499168674251,-0.10286164966011364,-0.1922668717814796,-0.2953650669572619,-0.13175594036925584,-0.10521963222672898
0.558,-0.045504569059410964,0.0787109725501338,0.1242836417627295,-0.015713487385523174,-0.08584332298288572,0.10122335501791589,0.02268142154217738,-0.06678373370245677,-0.16239497726073465,-0.24786889847855584,-0.1022420442892859,-0.0887688225971861
0.56,-0.040664963133369696,0.12975463234956733,0.17079314428007353,-0.043172651475569326,-0.10664645936185965,0.14923378879621504,0.041142689053189,-0.004232689033123297,-0.10274640339486615,-0.1735993092120851,-0.05086830924153493,-0.05943772836329349
0.562,-0.030618204702590034,0.1691866525578611,0.2002838806584988,-0.06708776625071351,-0.11607150689486338,0.1822251069633596,0.05934312889703647,0.09013981921942738,-0.002853484908145012,-0.06833571623120774,0.027297415274164266,-0.011973709657676785
0.564,-0.016504412428435155,0.1903840078896542,0.20716806178108393,-0.08475336820131277,-0.11249957680396029,0.19568184018548745,0.07478839585892072,0.21988054827319262,0.14688919486886948,0.07878942112997366,0.1386460907313953,0.05826400799023189
0.566,0.004560156598488393,0.20197395365303109,0.19748983364720266,-0.10187134177899268,-0.09764842368303457,0.19770465441689683,0.08480510610854383,0.3774259796213624,0.346082592979674,0.28043099941280814,0.29097732427762435,0.15560072824850782
0.568,0.038369913369036786,0.2228065061404393,0.184602896859825,-0.12968175761257658,-0.0747175786380471,0.20340247802720193,0.08425235292266485,0.538662023372907,0.5737153041343367,0.5305886820841548,0.48244768806003585,0.28020565793697183
0.57,0.08359926973813461,0.26532221876221324,0.18209115936589806,-0.1733673745774464,-0.050790012260874796,0.22401619522323268,0.07215939558127182,0.6802566928592017,0.7996906574866725,0.804987934610302,0.6992905892316098,0.4258848003822478
0.572,0.13171594481240226,0.32814948298922536,0.19674777480130268,-0.22853962122156976,-0.03371331672361472,0.26164793154617866,0.05666807710059045,0.8073459014101321,1.017156061891763,1.0907306474405356,0.9341794802419638,0.5883525454071947
0.574,0.1786060700547973,0.4050580666876813,0.22648393003615114,-0.2902514067754245,-0.024690961117675835,0.3133392713321283,0.04687190973375265,0.9514745647112066,1.254328269219385,1.403526032439173,1.1980693775828883,0.7723020847404753
0.576,0.22597543008763843,0.491530070954939,0.2654047164471875,-0.3568981834124041,-0.019995703757881535,0.37539082998422046,0.04278361191842908,1.1271262850948334,1.5342364334454266,1.7578861670510162,1.4979178117860221,0.9795607741008565
0.578,0.2710739184363659,0.5811401007416079,0.3099697085399547,-0.42417443794296694,-0.019520875735545343,0.44299771658145654,0.03601321308297273,1.2924302980929616,1.8221021585131008,2.1211041459005417,1.8051810266834931,1.1916718868101968
0.58,0.3062858635686627,0.6642915874800239,0.3580162833226963,-0.4839545434955731,-0.02626606754014412,0.5094779565861042,0.014823467925172123,1.3645242250880323,2.031747285584526,2.4145808189875346,2.061350914611047,1.375883158674576
0.582,0.3297584187542408,0.7300481194659246,0.4002264232599786,-0.529431524965328,-0.03627651135565073,0.5642370879344656,-0.03049145718924894,1.281911191966959,2.0894428858206933,2.5668627112487665,2.214180492616998,1.5076117348827507
0.584,0.34793404695318025,0.7578160411473711,0.409569718426056,-0.5525478706166623,-0.032282830380497334,0.583457528966856,-0.09561056243673073,1.0565409173539047,1.9818361110529306,2.553977972492662,2.2357034266810407,1.5748103623471108
0.586,0.364943488228425,0.7089334972494808,0.3435376577387917,-0.5359312656109275,0.00935685221223501,0.5263178647910212,-0.15557307192406025,0.7662279016004888,1.7473303490297316,2.389663015576628,2.1114177195229202,1.5624682314953338
0.588,0.3728686292405607,0.552761950149065,0.1796153111011174,-0.4611642807538968,0.09581950135731587,0.365935646613235,-0.18322976254498685,0.49650772400137366,1.44307513957824,2.1031003555755174,1.8418672936790985,1.4531251990199772
0.59,0.35665817368121727,0.3193135376494959,-0.03729154080822961,-0.33626368713335975,0.19670667661447797,0.1400136639449109,-0.17613248757787428,0.28899871926712517,1.12401114768925,1.7394949695215096,1.4683719033027014,1.2536206531321328
0.592,0.30941539982665567,0.10340552911610047,-0.20571788471552924,-0.20486632882245723,0.25747816313456884,-0.05283197574011254,-0.1581616662881307,0.12857522657801435,0.8225164057308091,1.3515353201674165,1.068971997438159,1.0054261410374965
0.594,0.23924250563420518,-0.015059689573788662,-0.2539293873279335,-0.11057660858198187,0.2461314529330541,-0.13663331789806576,-0.15606852152897224,-0.03885494679907288,0.5232638446550254,0.9579738955620837,0.6978467549440178,0.7487643010380083
0.596,0.16095296009055413,-0.04815633454075591,-0.2088702866189698,-0.0549070920363763,0.18351169419525942,-0.13077108178815047,-0.17722596350802572,-0.2601432792937994,0.17915168497952808,0.5313141666721488,0.34366725610876897,0.4872509007040893
0.598,0.0861394852936248,-0.07541573520628289,-0.16168869961297797,-0.00413221785068119,0.12141710796194186,-0.12036333537867237,-0.20600635693475494,-0.5211920259570472,-0.2201295193689995,0.06200165519539071,-0.019904311343649148,0.21247631694573857
0.6,0.022239592905285672,-0.15130956180155358,-0.17402065252218366,0.06533071028461306,0.09521884785889335,-0.1637249310223968,-0.21895007874988923,-0.7472482477174804,-0.6057117916879862,-0.37885984567692654,-0.3570206848074021,-0.04674120983725337
0.602,-0.024894933260551512,-0.2575171483731707,-0.23312201312686615,0.14154682742110247,0.10174828371366806,-0.24603237760712326,-0.2058253362396088,-0.8694500410650725,-0.8748223533134049,-0.677332444536723,-0.585165846360252,-0.23332142576311954
0.604,-0.05278657518942404,-0.3369007047878578,-0.2844627016447074,0.19484058491968095,0.11414623951911207,-0.3118559383200951,-0.17836928078107162,-0.8830714293501344,-0.9775935208899188,-0.7807698931882916,-0.6661409879646397,-0.3209021515311621
0.606,-0.06506937922304375,-0.35257061596337946,-0.2877419979726699,0.20874943808523386,0.10949716997495955,-0.3222787985588587,-0.16041127695240887,-0.8379034855809586,-0.9527362695266147,-0.7432232111676519,-0.6449937668115934,-0.3371001103244755
0.608,-0.06851966415389983,-0.31676217492241965,-0.24837023089225055,0.19280694707517954,0.08726654814385758,-0.2853923191738889,-0.16952211983443602,-0.7856972594988177,-0.8820295954889399,-0.6635314377450948,-0.5957205651983741,-0.3265755028691998
0.61,-0.06774969099809562,-0.27569202430481143,-0.2078084402504871,0.1722411867779724,0.06685747616844166,-0.2446533113799337,-0.20258368507129057,-0.7467112835617961,-0.8242425218452579,-0.6010507765011213,-0.5596705703704226,-0.3141873035064099
0.612,-0.06490733507406302,-0.2670963817779956,-0.20166354458373978,0.1668234244452962,0.06564735407778245,-0.23699578222008674,-0.23532960273814454,-0.7181181852555714,-0.7947105828124215,-0.5617616884145158,-0.5427228716416027,-0.30701477268844285
0.614,-0.06226073745796622,-0.29120241555135645,-0.228120054929769,0.17772062852919324,0.08120263468470218,-0.26202487621196885,-0.24168010305133808,-0.6927967671991209,-0.7829794137477357,-0.5353648905690361,-0.5408813033200595,-0.3089961926437277
0.616,-0.061571166169935174,-0.32225565582768145,-0.259884674589548,0.19276329043223986,0.09794612087403896,-0.2932846674248483,-0.21828196854208476,-0.6608694651457242,-0.7698126765196794,-0.5137691681031971,-0.5472552926069372,-0.32022588070191516
0.618,-0.06183720552215417,-0.3388849065099049,-0.2765220177050394,0.20071611791484562,0.10578263277026179,-0.3096417071301565,-0.1853967551565075,-0.6081987557689122,-0.737930682818122,-0.4864016175879502,-0.5478677826885371,-0.3319074225509189
0.62,-0.05975198342784325,-0.33823604556343134,-0.27824312590125366,0.19903226667067284,0.10728156948907139,-0.30961326184832944,-0.16278967741205083,-0.5290548287073866,-0.683234683574179,-0.4465292712254193,-0.5312707624421975,-0.33344411035149574
0.622,-0.05260733332628113,-0.3293947896977184,-0.27672869601826966,0.19164464642599602,0.1103506907823735,-0.30387400882569915,-0.15311411525097207,-0.4384858140291007,-0.6182526238027823,-0.4019558910708064,-0.5022293760600958,-0.32336351297887467
0.624,-0.041495060958558726,-0.3212685680688669,-0.27980485998934446,0.1834695931043709,0.11795173839576299,-0.30124164829773453,-0.14757754283479477,-0.36333673136893707,-0.5618828146210157,-0.36614920724260247,-0.4760329711591666,-0.3089687744803655
0.626,-0.03218500845275788,-0.3158658670064153,-0.28372531601866596,0.17729460344066575,0.1245429205406861,-0.3006975540796485,-0.13613218082397205,-0.31833647649408825,-0.523430929474331,-0.3409149490493977,-0.4597203200191816,-0.2964766589098335
0.628,-0.030320390237324347,-0.30926632556019445,-0.278957367314022,0.17297396768247178,0.12254855568422751,-0.2949029087537911,-0.11320554082168018,-0.2950090852602603,-0.49564780591148855,-0.31469984311741894,-0.4459899403290829,-0.2845987816764486
0.63,-0.034136861872706176,-0.29655854893431477,-0.2624055880471354,0.16737179695287738,0.11197228497647775,-0.2797781368916751,-0.08322064616435476,-0.27530064368270923,-0.46525109382010416,-0.2764057604587205,-0.4252733900619949,-0.26826310657515046
0.632,-0.035428065936995094,-0.2754902810281259,-0.2400482485676682,0.15638163734510757,0.10018347052696859,-0.25785509294696,-0.05872613186909178,-0.24950278418614463,-0.42848480719578624,-0.22715084438457356,-0.3972042957808901,-0.24637521948408808
0.634,-0.029662684725742204,-0.2467682801135636,-0.217129279360676,0.13876620878020604,0.09187706204654895,-0.2324519703569277,-0.0476094173024015,-0.217840458491765,-0.3916627993797928,-0.17760101790198318,-0.368734735929633,-0.22311564480990098
0.636,-0.02142731365566203,-0.2125232946930836,-0.19121368718927706,0.1176333729935624,0.08348454331515404,-0.2027451459867192,-0.044894393425070366,-0.18179707644208004,-0.359543445666552,-0.13557578730757588,-0.34558205041430545,-0.20247147366749446
0.638,-0.01832282806903884,-0.17614570694495152,-0.15802201353516881,0.09811691340542837,0.06893311232858321,-0.1675764751451685,-0.039109372714959144,-0.14060027494802843,-0.33003983752786825,-0.1006963764492154,-0.3283049204521109,-0.18572100549854156
0.64,-0.02249164295675073,-0.1438229715699378,-0.12142343466081468,0.08429802769503124,0.04859584754546122,-0.13236627519152133,-0.024051197935917108,-0.09603485564833333,-0.299980839245412,-0.07310238134436142,-0.31533864100122294,-0.1740488015519248
0.642,-0.029312140172335046,-0.12277711270922385,-0.0932947881222711,0.07732422745031334,0.03040318344471961,-0.10768551999570457,-0.0033719888216099158,-0.05644750891774234,-0.26827145592220103,-0.06552570776007462,-0.3063804166719785,-0.16839667833150773
0.644,-0.03261113222734218,-0.1147407267725728,-0.08184857072896286,0.07470326809732039,0.02192760488162748,-0.09890144982076372,0.015367656208831551,-0.03159327174680254,-0.22903107049784802,-0.10356526154108175,-0.3010637176176265,-0.1663770126985286
0.646,-0.030292745672202016,-0.11302485565421612,-0.08261377946756747,0.0721040377134194,0.022786922817774277,-0.09977712775904933,0.028859775418599753,-0.023967142726338434,-0.17406906193302574,-0.199417681979665,-0.29725007335522113,-0.16361054833607
0.648,-0.02583543358892016,-0.10940779106428195,-0.08363375089686773,0.06775548419435212,0.025748900992919502,-0.09911789302640321,0.03851245115503608,-0.027461000362350184,-0.112466091693909,-0.3175361952060927,-0.29283573134768404,-0.15826631492857715
0.65,-0.02437433884568289,-0.10243623480216735,-0.07803930682940619,0.06387573378723599,0.024703797107879785,-0.09218086377936915,0.04569949868441375,-0.03284580413579374,-0.07043440790033094,-0.39439560262438844,-0.28706853478750055,-0.15201051577827068
0.652,-0.02718678702412306,-0.09546279015185041,-0.06795816638337812,0.06228965130562907,0.019555116919286897,-0.08221965504747657,0.04968325373045068,-0.03390029499247496,-0.06052653543243931,-0.40528066796388607,-0.280313647475341,-0.14729085580462214
0.654,-0.03159908812379304,-0.08903756004552692,-0.05696161006522862,0.06143899204592811,0.012613722307913043,-0.07247841082263543,0.049050059705665644,-0.030537961070921833,-0.06928545157019525,-0.37987839582438343,-0.27519035909888373,-0.14519749452572991
0.656,-0.03541627437062109,-0.080605070430229,-0.04490187403127395,0.05923571204437472,0.004382499332885129,-0.06230494577975569,0.04376952907564229,-0.02615874844972343,-0.08073559348208299,-0.3491677658509535,-0.275378854628291,-0.14521885828729642
0.658,-0.03827331362625402,-0.07047238549599283,-0.032239216622094224,0.056017221649374796,-0.00429265140186932,-0.05166174265044171,0.036192624044268956,-0.022223920882046597,-0.09351123804623254,-0.31378365586859314,-0.28029065235503103,-0.14598058115454268
0.66,-0.039733967038257226,-0.06307517693190874,-0.023511023171388666,0.05361084268991861,-0.010127048191996883,-0.04417921749245826,0.029971869627916693,-0.017526164523425865,-0.11115915659379336,-0.26771086770113484,-0.28420181915717335,-0.1463557302335682
0.662,-0.039077750281595436,-0.062154404364813134,-0.02314345608127654,0.053051056980782094,-0.010332876393993589,-0.043794611041673356,0.027431391149958864,-0.011583551897496241,-0.12896690383863824,-0.2231940097749239,-0.2828512237960678,-0.14608361246153231
0.664,-0.03653122864135657,-0.06693687197147503,-0.03034812688130195,0.053725097213971125,-0.005613562555309635,-0.05024438469314397,0.0279805676202245,-0.005633646753725243,-0.13602859061934341,-0.20150074000028265,-0.2778851345271668,-0.14527970000597876
0.666,-0.03330538978937942,-0.07280356440141202,-0.039434361201073256,0.05433763579468668,0.00048718974676489814,-0.0583329309101546,0.029484797700900026,-0.0007306994211067496,-0.12755171684453304,-0.20873897533333746,-0.2736289400366354,-0.14393550755505788
0.668,-0.03057762100327972,-0.07537616864510831,-0.044799067497520065,0.05429974582777784,0.004567814619394696,-0.06223045459550504,0.03137316553370093,0.002976204577258246,-0.10996885658882498,-0.2323531108410934,-0.2718563254668579,-0.14237808776351335
0.67,-0.02893021776953981,-0.07417421992796525,-0.045278923903060146,0.05385173701089966,0.005744223693065499,-0.06086354109818806,0.03548439139547883,0.00540994089137811,-0.08892431085376837,-0.2690170085416071,-0.2702264652637543,-0.1413279514409007
0.672,-0.028444300899030005,-0.07155101847418907,-0.043123112035059794,0.05305413546170702,0.0051983781180291126,-0.05746664652328518,0.04268542837117925,0.006814180209891264,-0.057472117870838176,-0.3434571142994208,-0.26485128669764085,-0.14074063226560024
0.674,-0.028736161673996848,-0.06888700312134242,-0.04013963356105191,0.05153241145915568,0.0040276542688837775,-0.0544846238898785,0.05018506387475443,0.008537062871218703,-0.005903453271562593,-0.4778322279183894,-0.25484116822375436,-0.1397359748501285
0.676,-0.029237057319330156,-0.06574098410956451,-0.03648963333594469,0.049441103175554287,0.002158915947336193,-0.05157079270610769,0.05437070101955057,0.011842004484933338,0.05993197489608994,-0.6497375635948602,-0.2436985679736747,-0.13819269748202737
0.678,-0.030069232883748683,-0.061751825971962236,-0.03168188210677975,0.04761634832961594,-0.0011416536200877113,-0.04763505001993306,0.054744496917431405,0.016367119579667373,0.11745713941724242,-0.7996738616400697,-0.23519904261605887,-0.13620635560563596
0.68,-0.0324144905031775,-0.05750100898540881,-0.025093978235190363,0.046802190231585536,-0.006440706291260784,-0.04229444825450967,0.05317997279480099,0.020886725896473383,0.14465747825032907,-0.8780699529205803,-0.2295823752542661,-0.1317973494911163
0.682,-0.03747116643993437,-0.054164257379390186,-0.01669704181219734,0.04767769273144108,-0.013543366691690036,-0.03608336153900652,0.05115167292011202,0.024667162525118646,0.13983950130420722,-0.8824823731811339,-0.22457496912781408,-0.12266540088688571
0.684,-0.04460735961348954,-0.052807324131731004,-0.0081977807202031,0.05037932011029613,-0.020981527242344655,-0.030752842112057328,0.04934336683217045,0.027475294127574827,0.12308152252184841,-0.8536909019938433,-0.21856496688422983,-0.11011389873117264
0.686,-0.05027608263904896,-0.05317832607973657,-0.002899044299991371,0.05293101501577744,-0.02583753438983563,-0.0284644498648265,0.04849919149991672,0.02924515273094844,0.11414273008890875,-0.8355952304990863,-0.21243918237109813,-0.0975705380137142
0.688,-0.05017559443176231,-0.0534552710241774,-0.0032793402712627488,0.05223521138534755,-0.025241811191342705,-0.029440721332697557,0.04926169613334686,0.030470169516102406,0.11467519043501251,-0.8402630336998821,-0.20865615848700547,-0.08594926638680793
0.69,-0.04414475560855406,-0.05195895966440594,-0.007815789255299355,0.04780798701574839,-0.019744120029647535,-0.031092330585228204,0.051441292461275524,0.03242440235929331,0.11618801128994784,-0.8513147432280798,-0.2082099708307093,-0.0736153633095954
0.692,-0.03690194519825262,-0.04882602951889149,-0.01192502503488454,0.042515080853195525,-0.013842585360755258,-0.03096863614243732,0.05379533993376593,0.03576515237482648,0.11529575235722216,-0.8524913476889061,-0.20904119445918345,-0.05992363143295797
0.694,-0.032088098163176815,-0.04571095640308719,-0.013600502874935276,0.03889527955928398,-0.010742756768951154,-0.03002926950946894,0.05490880697249021,0.03910739930134469,0.1142830581835483,-0.8448429400008731,-0.20823973640165416,-0.04665077328498719
0.696,-0.028742624307435398,-0.04442969236191366,-0.015533100716457793,0.037123523537414264,-0.008580321862535541,-0.031263729702366634,0.054680672811158654,0.04066358514093231,0.11403027602522586,-0.8378651959680553,-0.20517423150890296,-0.03607353842681265
0.698,-0.025262725662894555,-0.04570835993440249,-0.019964846639662755,0.036793779226421984,-0.0045017809733761205,-0.03536844498297937,0.054595825711664873,0.04134574527366334,0.11316353020128347,-0.8348647089201571,-0.2016168785065416,-0.027638542389915133
0.7,-0.022762550858769697,-0.048221492220804456,-0.0245779357853149,0.03766337127180338,9.881164170710823e-05,-0.039415942574267504,0.055805037096868605,0.04449395154979,0.11107396183342247,-0.8326706504931763,-0.19948331333381836,-0.017765347977270383
0.702,-0.022629566757762672,-0.049268486258982044,-0.025633576080460678,0.03838987017558267,0.0014367576146985463,-0.04009634013757425,0.0568937283266495,0.052135386298055385,0.10832822473399208,-0.8288559409696039,-0.19910127267583771,-0.004929664351072911
0.704,-0.02390652096065457,-0.04746678595099342,-0.022907715850745337,0.037300357968204675,-0.0013421960135520197,-0.03727589303977066,0.055148502607999354,0.06276041281730074,0.10624254520229105,-0.8240217081824754,-0.19910176017081688,0.007026848211934854
0.706,-0.024677440822440288,-0.04438932169490935,-0.01962765273365638,0.03477502462340154,-0.005131868514691345,-0.03385863526461434,0.05075845155401093,0.07297933590128446,0.1066960824114874,-0.8200989112675443,-0.19791391328871422,0.013011719465328607
0.708,-0.024600236701324954,-0.042702658479111616,-0.018337074171347032,0.03308928460825806,-0.006876089714822305,-0.032439201026439296,0.04754007226022146,0.0803572717670604,0.10998126154651681,-0.8182516853778201,-0.19558584698584247,0.01264761376626578
0.71,-0.025350368679072074,-0.043143855136275,-0.017956438878281498,0.03383446309421233,-0.007281403332019091,-0.03259055742518705,0.04882783097489636,0.08456440187285741,0.11389790094285004,-0.8169185198956103,-0.19337037337272514,0.010532195091260342
0.712,-0.028513040843425326,-0.04424421144065589,-0.01569188973036572,0.036460962276255345,-0.009316298184096407,-0.032025942198954965,0.05437380660931646,0.08668155420726728,0.1169085135278636,-0.8130917214313433,-0.19178462823532655,0.011027122092708654
0.714,-0.032991604352465384,-0.044568917086207555,-0.011472589817098373,0.03903736498304878,-0.013404496644134069,-0.030024932833878495,0.06099047402981334,0.08804051473646275,0.12021791971709567,-0.8069963744215312,-0.1906249955224952,0.014000562685890889
0.716,-0.03572854485551904,-0.04403087052485614,-0.008273317353058906,0.040013489446434826,-0.016553388082673006,-0.028122726315787345,0.06543800918573119,0.08977391249752491,0.12521035202919426,-0.8024984155641648,-0.19019671548013772,0.016287455117816037
0.718,-0.035420933529986764,-0.04299310178291941,-0.007614922141812879,0.03948890049496909,-0.016654961972125026,-0.027287971266144153,0.06709513193681459,0.09234701633514904,0.1300848007576913,-0.8011374638200914,-0.19031396661884717,0.016067380063911348
0.72,-0.03383966536851283,-0.04140565904583328,-0.007602111535497176,0.03873324327868123,-0.015046360281744347,-0.026512314068915698,0.06753583277465909,0.09473805096726383,0.1312332920985856,-0.7993800754495026,-0.1890140957108356,0.014035220515340332
0.722,-0.03317637241414458,-0.039523581545072455,-0.006341152529886682,0.038619858626080084,-0.0141475018532915,-0.02494513443963004,0.06805973455055714,0.09587661828247243,0.12877404129048595,-0.793592275331146,-0.18504163813771185,0.011050624141386904
0.724,-0.03358037984921708,-0.038548478708252294,-0.0049455211584589955,0.03896186535906015,-0.01434422177846663,-0.02369363682925931,0.06913502077111351,0.097570984941515,0.12714648521605523,-0.7848990636725733,-0.1808057911351598,0.006821238629655047
0.726,-0.03353000494969558,-0.03979411316824787,-0.006256635006578405,0.039186629584264575,-0.013828807055751404,-0.024635975114286897,0.07136594797831787,0.1037253887655501,0.12822494424846967,-0.7778811760669218,-0.18030970196229368,0.0009861165621903223
0.728,-0.03190599335923656,-0.04305416736223898,-0.011156924288842825,0.039109318559800585,-0.011316591372941831,-0.0279000591045149,0.07488302007626917,0.11599942651172646,0.12908176985072795,-0.7753137027110161,-0.18424635461026834,-0.005523418496420527
0.73,-0.029469904758977598,-0.045964903194685436,-0.016503255141965982,0.038950485028951556,-0.008404003186242296,-0.03097748174046367,0.07818353335388604,0.13143072551871923,0.1286429620849796,-0.7744698336760479,-0.1883860421204325,-0.010651605745835884
0.732,-0.02803077256169396,-0.046007183286038394,-0.01797557908624078,0.03880711676940631,-0.007859247897785642,-0.031119109246907663,0.07952670218693438,0.14454170431135227,0.13033748863526526,-0.7702696235339361,-0.18787845311497842,-0.013486791862272009
0.734,-0.02825814731804813,-0.042788542059312755,-0.014525491696435765,0.03811134063324284,-0.010125393881512358,-0.02797788713682744,0.07941710324489748,0.1518848218074831,0.13635703912539085,-0.7620577301135874,-0.18276906558675848,-0.01561363357098322
0.736,-0.02901275038863813,-0.037500020448138535,-0.00848538199851211,0.03586968182619473,-0.013133939938210132,-0.02305852982370953,0.0801170794944701,0.15507776731053122,0.14488302579859702,-0.7533297255581984,-0.17675241211549536,-0.018465590180637287
0.738,-0.02868285529479688,-0.03186212140854809,-0.0031810399894763065,0.03210593236645939,-0.014524950404189316,-0.018496769223328755,0.0827506471097641,0.15881741240983469,0.1537294855791245,-0.7454647581413896,-0.17169947216760761,-0.020900096657374256
0.74,-0.02665858039549181,-0.027938062197579015,-0.0013032990783032519,0.028570613975168233,-0.013320478520479444,-0.016500970132492198,0.08615488719546044,0.16564121557253436,0.16219917705602943,-0.7368080720134237,-0.1674180613469191,-0.021502664555307336
0.742,-0.023699566225389178,-0.026560692320456453,-0.0030143103042765745,0.026755472028986035,-0.010696086581766791,-0.01722962941703513,0.08855860270439299,0.17433414490046964,0.1693782366615303,-0.7265421077385018,-0.1644931020149306,-0.02161020874139581
0.744,-0.021010759519941826,-0.02619169821631494,-0.005660554463577143,0.025902601919310778,-0.00885350173128179,-0.01809172022560684,0.08975695607193741,0.18313105842061997,0.17425198882526882,-0.7153683307226651,-0.16301348765145487,-0.023751439062006628
0.746,-0.018970350936629528,-0.025123565880770547,-0.007056027766675511,0.024321399243343284,-0.008349431206248429,-0.0174733668039585,0.09138241398832198,0.1916233431880377,0.1774974516820594,-0.7044376802643851,-0.16104987830563955,-0.027725381386539974
0.748,-0.017230377992779267,-0.02383221544044475,-0.0077610125390504365,0.021904964998085773,-0.007685787132817314,-0.01702503306833228,0.09448119310930293,0.19988026846909784,0.1809523302965502,-0.6954230147674701,-0.15765099084370598,-0.0307644382130954
0.75,-0.01613403709945082,-0.023895461273844624,-0.008894995265177352,0.020347800086098676,-0.006101763851562249,-0.01829264058262812,0.09739235555633162,0.20813490366168846,0.18621570393160122,-0.6891950628160792,-0.1547128290287077,-0.03189572643178849
0.752,-0.016664292597453192,-0.02528891663336571,-0.00959004371207655,0.020981218421356886,-0.005058094950892492,-0.01965172480654669,0.09796237704442295,0.21699095703309468,0.19431519503910677,-0.6842870481960067,-0.1536230844415261,-0.032994843978297765
0.754,-0.01821751427102653,-0.02577719885338675,-0.008330336561002922,0.022705380464113932,-0.0057900112671362206,-0.01867435516539441,0.09737722778091042,0.22671502967505638,0.20442987989510594,-0.6779666954704843,-0.15256586271982028,-0.0347199295133015
0.756,-0.018210528514459486,-0.023302086417927394,-0.005581034487196027,0.02266868943331638,-0.006983660983724731,-0.015604029830566945,0.09923809534835913,0.2370376950944906,0.21376715048300052,-0.6679927974048661,-0.14884409187710687,-0.03505454047212093
0.758,-0.014913920364561588,-0.017942728384380546,-0.0031522809522486718,0.018908773107883182,-0.00666391026698274,-0.012264229177137398,0.10508336033853803,0.24834403710903508,0.22096583748744864,-0.6536905390152695,-0.14179558973582437,-0.03315980625607252
0.76,-0.009458843132426332,-0.011267432177574668,-0.0016787078980274052,0.01208821762581224,-0.005128581669276379,-0.009145396922650473,0.11272312243127393,0.26181899834037176,0.22773688050744223,-0.6370331505006603,-0.13277934128188854,-0.03119498010418001
0.762,-0.004821168785239081,-0.005316343744583259,-0.00036127362551404514,0.005342238695707749,-0.00429522906359662,-0.005849153039071341,0.11883719140074189,0.2773822407204781,0.23622527269377303,-0.6224786754610876,-0.12416139415244629,-0.03041781588558067
0.764,-0.003211598597797733,-0.0015305840292191082,0.001684493535532185,0.0018240153300395877,-0.00516009232599487,-0.002594236141385689,0.12242831389896262,0.29290734113614836,0.2468291433715644,-0.6137282528530162,-0.1174558249405942,-0.028709488306897624
0.766,-0.004181428397219642,0.0004995771475349917,0.004612426667031362,0.0017220923180932498,-0.006937817558588744,0.0002457354651262848,0.1254069524400296,0.30641631311544976,0.2585011325116453,-0.6093197344223311,-0.11101446686563858,-0.024627527376393843
0.768,-0.00548198507588268,0.002185911960377482,0.007632841380006664,0.002608890032403384,-0.008240799368180576,0.002593844135000312,0.1298240927005869,0.3178945274975162,0.27018146242484775,-0.6029830056749067,-0.10155106296703785,-0.020410766027464413
0.77,-0.005651218657226469,0.00450189329456261,0.010173278276243109,0.0022375400814589755,-0.00886110339937597,0.004823224443280998,0.1355579079186023,0.3291346786342498,0.2818902217628335,-0.5903061788327286,-0.08853779558506314,-0.017770469959701034
0.772,-0.005469664921523803,0.00798556705680702,0.01348386685903905,0.0002964864891386597,-0.010408236387428724,0.008116539809156154,0.14092961575871174,0.34285862312633486,0.29390348240029385,-0.5735701411323467,-0.0749953918507733,-0.014281370312334398
0.774,-0.007389313996170944,0.012461399887460005,0.01985340828682798,-0.0015983096113520222,-0.015154460414634106,0.013548348384602778,0.1443362663674747,0.3614871759113164,0.3064045586471076,-0.557934253868683,-0.06376172155542828,-0.0069326256246954815
0.776,-0.012570576982845902,0.01695163203223255,0.029507893693164637,-0.0019279057319098304,-0.02326591436364958,0.02060377851614267,0.14553588911622253,0.3854707944351772,0.3211302861101887,-0.5440960444609778,-0.05437336728063363,0.003190103925059425
0.778,-0.017926010980058037,0.020867117748802712,0.03878482619618773,-0.001654579351279749,-0.03079973073326547,0.02715635783271536,0.1466432670728249,0.41201474632934665,0.3396621052185113,-0.5273958864200624,-0.044294180452772586,0.011826759810316011
0.78,-0.018701446945653583,0.02446288256086647,0.04316817475888766,-0.0030108369862866208,-0.03289191692916721,0.031241934219363547,0.15072846932746567,0.43649528733616866,0.35927444020806876,-0.504319171948089,-0.032406734476901955,0.016667570323574958
0.782,-0.01382059050510419,0.028211758096425434,0.042038715032252524,-0.006636206436133268,-0.02912140919436835,0.0329981423036731,0.15812075863820874,0.45657496914321544,0.37525453695042693,-0.47697867133865124,-0.019334123384509985,0.020438135359351562
0.784,-0.006282561926340134,0.03251752963198576,0.03880103382340777,-0.011728534107143293,-0.023434751292625504,0.03442321490700273,0.1657959455087225,0.4742284891354095,0.38772244211432355,-0.45030970277011084,-0.004982600152541153,0.02765716558694711
0.786,-8.005117364324153e-05,0.03762417704946452,0.037701204055453,-0.017152366510412135,-0.020139580187798115,0.037459999392618015,0.1712483185196416,0.4932822633741234,0.4019757218731431,-0.42810657519707906,0.01075607591566559,0.03881409288595162
0.788,0.002467033221761556,0.0438117850651579,0.04136473279470997,-0.021746134205867143,-0.021155328627800493,0.04296067079124634,0.1753781033073613,0.5157772340116801,0.4215514702309362,-0.41175059450815704,0.025959281367897553,0.05024323418958304
0.79,0.002723562056438336,0.051817414126082026,0.04922588263682247,-0.025861157428623827,-0.02494912015209484,0.0507610425178153,0.1813732246785412,0.5400253338649028,0.4443720093255409,-0.3983460910078919,0.03949121521551065,0.06006272209797464
0.792,0.00441291021704428,0.06179821689910153,0.05771413605861179,-0.03140036512166491,-0.027892208184829233,0.059499973689393956,0.19128678519795583,0.5619846837682625,0.4668600576481089,-0.38114742919608524,0.05351166574183655,0.07060513043119186
0.794,0.00894959227332282,0.07174111946816791,0.06321441596912988,-0.0384680535225476,-0.02798967555503199,0.06670589164918915,0.20342281064830947,0.5802505460914222,0.4884687254159297,-0.3562321103608931,0.06979896331444181,0.08355052491593178
0.796,0.013964019172016714,0.07888834236361622,0.06517922966264166,-0.044666368021178876,-0.026535314839801927,0.07069396487559072,0.2137661673084145,0.5986013271513384,0.5106555953789649,-0.3265228701106828,0.08742712063670673,0.09669617557796911
0.798,0.017004546653101894,0.08310119278888121,0.0660705150028435,-0.04880651450673996,-0.02573416780986098,0.0727880315286387,0.22015409863155577,0.6213693923013837,0.534278145438512,-0.2966701041673854,0.10570018864083389,0.10769957160004713
0.8,0.018330502240798595,0.08715096536156759,0.06869673362320858,-0.05230186178611358,-0.02633372544549228,0.07637838521530199,0.2238691809308855,0.6484610695137262,0.5589247721721615,-0.2684890177506977,0.12513675166299934,0.11757808114102634
0.802,0.019422491425618027,0.09352414946908912,0.07417006875689446,-0.056435123074861884,-0.028152377007619158,0.08330033842590258,0.2274683018403195,0.6769160363990494,0.583697170499427,-0.24281293612036028,0.1458898017006473,0.12834059111461635
0.804,0.02086286165486013,0.10250938334262222,0.08199820986113203,-0.06105578822361267,-0.0311882690905122,0.09233664985183276,0.23236192159275176,0.7044006812605449,0.6084496762500716,-0.22025448428026212,0.16813927292596084,0.13991763535191423
0.806,0.022546417877490364,0.11346345909355962,0.09124267748126964,-0.06638293664787488,-0.03523589434956471,0.1017321036655615,0.23855735931970162,0.7292023220112176,0.6330393989260851,-0.1992433920341744,0.19207106272353822,0.15159320102938986
0.808,0.024647084065362264,0.12555212903040758,0.10070390594204931,-0.07332348240213665,-0.039198255472235974,0.11118007097084193,0.2455530641951566,0.7502071571989829,0.6562542833700067,-0.1769527381537817,0.216370357267843,0.16419980499180828
0.81,0.027721397136475277,0.13693226566725086,0.10840558632844834,-0.08138557510715526,-0.04134489352750659,0.12035463436970646,0.25244274298544095,0.768969757062199,0.6783725971153759,-0.1519836393336568,0.23907046340129265,0.1786214273801855
0.812,0.03214740774338705,0.14571138441352507,0.1127247838279456,-0.08874677629799567,-0.04073841889450478,0.12781159125858396,0.257489993045864,0.7884388040702985,0.7020064302664282,-0.12508921536889656,0.2595675230107046,0.19353118288812343
0.814,0.037555870391943684,0.15165989486295675,0.11381978327903967,-0.09454636045636415,-0.03828788671501821,0.13233274787093388,0.25881019692009355,0.8083793149704495,0.7271396408268261,-0.09809934279186296,0.2785454788488806,0.20652500610941701
0.816,0.04305826263680756,0.15620675206605597,0.11337862831070084,-0.09944457504153324,-0.03569173817623191,0.13451722998472992,0.2567109591617514,0.8255376792118267,0.7497857680491695,-0.07199329419322907,0.2973129012247974,0.21722795006200107
0.818,0.04800544872051428,0.16193974090748614,0.11422282662289583,-0.10448843205761099,-0.03410453981189741,0.1371961605890451,0.2547294968761558,0.8389877370148662,0.7683574407561328,-0.04617112789870584,0.31712180011929764,0.22817302700274839
0.82,0.05200589595307948,0.1709736414402769,0.11913396202196322,-0.11015049586481619,-0.03432340638123364,0.14333691477759236,0.2559450341055916,0.8520104573112778,0.7861956991749021,-0.020902230185693697,0.33736309850017,0.24202028179650653
0.822,0.05445950565074325,0.18239721735631806,0.12826065504492357,-0.11598761333911303,-0.036992765273032926,0.15290837285356523,0.2590490007222871,0.868113312206152,0.8058176694218947,0.0012445245415462832,0.35598194314576986,0.2580660447107545
0.824,0.05519755057795967,0.19277512367608002,0.13825539236926523,-0.12129271983081288,-0.041580637023298846,0.1627969170761105,0.26062574197430577,0.8871634291189759,0.8250948072860533,0.019197926235452405,0.3729897257731706,0.27254978292197796
0.826,0.05579962492997446,0.19960683072841648,0.14450247119284768,-0.12613759168670827,-0.04537885888090094,0.16957480302256,0.25982280205788144,0.9051709589614244,0.8399136094463893,0.03573621402451491,0.39039006225060563,0.28301782304849565
0.828,0.05875616161760715,0.20385225928018258,0.14523061027944043,-0.13137672692677163,-0.04531346943096602,0.1727184201583516,0.2586476306295483,0.9174052315323071,0.8487673464589676,0.05298218835911844,0.40805177929631375,0.2912287553445045
0.83,0.06410228583247422,0.20891884971379968,0.14419271660939814,-0.1372344966322977,-0.04215084227081927,0.1755512754123176,0.25909796427165366,0.9226642853033552,0.8557674677634524,0.0692691103945862,0.4236596428498708,0.30118876767292335
0.832,0.06820471685355455,0.2164372906373789,0.14724500271356897,-0.14219194423877807,-0.04085372094289603,0.18129631425666792,0.2612228760671415,0.9243534845636309,0.868026075120188,0.08266525804190543,0.43681905884099453,0.31514326329625925
0.834,0.06799264988343084,0.22429693071734574,0.1555919571575052,-0.144782278964673,-0.044673102161274465,0.18893928077170047,0.26296982292850274,0.9267758549007621,0.8875424875418009,0.09435500514945164,0.4496491828303415,0.3313477738646275
0.836,0.06564187499272617,0.23056015114293826,0.1647983640623177,-0.14654580990606753,-0.050831444300681386,0.19553609841819852,0.2616009945908942,0.9306960013619091,0.9083497027925367,0.10713027978302925,0.463282319408351,0.3453346271663161
0.838,0.06620159640911857,0.23706135409042267,0.17108073175264604,-0.15081378251213415,-0.05434597157066554,0.20111852277232867,0.25612742168160607,0.9335023953914682,0.9235347825843783,0.1212177896470353,0.47619372922943315,0.353613934540284
0.84,0.0706489092535681,0.24640497553612772,0.1757864807520573,-0.15809561920383192,-0.05460251943589144,0.20822325924468554,0.2485618763431132,0.9334767266627614,0.9314013388312745,0.13330559861382166,0.4863296755695693,0.3565923630647358
0.842,0.07485409832150909,0.25714195426766534,0.18179526662346882,-0.16505187256516324,-0.05512798079292122,0.21714571002688243,0.242228330424684,0.9316536559786803,0.9343211668591989,0.1417343799257335,0.49372185506315375,0.3583833248019638
0.844,0.07612903212150259,0.2651334771631082,0.1881413542281684,-0.1689294818622788,-0.057428564749866906,0.22480607447232176,0.23845067043714208,0.9287151823588224,0.935263601372429,0.14889427515657885,0.5003466831021542,0.3631327458841597
0.846,0.07711354779908158,0.26890998461566107,0.19108246099878592,-0.17118680086346796,-0.05852267074709515,0.2287157539997577,0.23549486678040804,0.9226004756540909,0.9353731518633583,0.15495988597224486,0.5073559015198648,0.3709538825846631
0.848,0.0812695920485352,0.2706641436640834,0.18920872874931682,-0.17496161777130614,-0.05549011740319938,0.22947382596305738,0.23121496531798935,0.9107812174207477,0.9331450328077793,0.15515770390162772,0.5134151066245196,0.3786357240796728
0.85,0.08722353642628952,0.2723595386292747,0.18534791139348278,-0.18003207913168345,-0.05007593261883259,0.22909738604273228,0.22552536145351737,0.8929680723249347,0.9265831425682595,0.14722060827523153,0.516715100901505,0.3840970886259771
0.852,0.09042574096484775,0.2734522060151923,0.1832307749619931,-0.18285874459805787,-0.04677036053416249,0.2286599368616482,0.21923500760690176,0.8704119583648142,0.9156979005956111,0.1352552442461999,0.5169983786215068,0.3877144934598216
0.854,0.08896424749634527,0.27234812708563644,0.18337667665503962,-0.18107964771070686,-0.04729914171423121,0.22755277367012952,0.21161563760988486,0.8438871447233142,0.9009565430291574,0.12280147774639559,0.5140547913621623,0.3896480383914557
0.856,0.08515818803447396,0.2685047594238741,0.18323499449908534,-0.17583506039412158,-0.04918722217138069,0.22450823185841867,0.20115036540841572,0.8131502103722131,0.8811651626371095,0.10757859026173058,0.5067321725127882,0.3892429484883079
0.858,0.0823564160460149,0.2629749024820034,0.1805688482992734,-0.17022852235142585,-0.049274726700359914,0.21939640490731352,0.18853641515448397,0.778396339017771,0.8560860651825799,0.08563304162017808,0.4954151331353571,0.38748681415424097
0.86,0.08168083651572194,0.2573394775537895,0.17569528247568297,-0.16645386095578532,-0.047045733726173454,0.21365020343413385,0.1766407784095968,0.7415939297970454,0.8282526236251615,0.056527023268297553,0.482584833879391,0.3866890122260836
0.862,0.08104563664950096,0.25211433335300415,0.1711131339927657,-0.1637650893743914,-0.04495890061840497,0.2088587386789108,0.1670256341969787,0.7055550069810541,0.7988482541903553,0.022648340029896005,0.46960157002093966,0.38620738194738824
0.864,0.07702312093126636,0.24612491255485727,0.16912497735304413,-0.15926138109170718,-0.046000253247314105,0.20523235584318436,0.1582317672883639,0.672034422329887,0.7655429890818737,-0.013514551900832774,0.4554223716224562,0.3814004519503294
0.866,0.06885907863661773,0.23769457912801284,0.16894318673276537,-0.15139221783636236,-0.050183504188665545,0.20137022603082394,0.14774270836785885,0.640188422249064,0.727108962555111,-0.04976943584203166,0.43815893942546896,0.36933665047944636
0.868,0.06036176660999863,0.22663577667952337,0.16658946917627276,-0.14207658901687165,-0.05372103666252281,0.19543837727743876,0.1352095307842192,0.6061744790304449,0.6865992774807496,-0.08457538015586637,0.41612347477987127,0.35312838706391514
0.87,0.05625461219722674,0.2146929834618279,0.15889009758799816,-0.13447006485154706,-0.05264502703604055,0.18671724656293687,0.12381105674030628,0.5660554596895034,0.6481581763456841,-0.11895487323819108,0.38863654439856704,0.3378132063745517
0.872,0.05689101853349774,0.2036073627698409,0.14711315654144738,-0.1293087172415274,-0.04698399008406111,0.17606623372705799,0.11688500375766751,0.5201919411723022,0.6124963107015953,-0.15604740670204284,0.3575001278912561,0.3240635602017834
0.874,0.05769294602348087,0.19290398602152292,0.1355136216583395,-0.12407276688151243,-0.040734596188237764,0.16483343066894174,0.1129319211611978,0.47309170906673836,0.5760979180646318,-0.19719799510312322,0.3270011580876999,0.3086296564394954
0.876,0.053838210433442744,0.18048090929987767,0.12691447372919143,-0.11569533202419555,-0.03790198138768565,0.15372746031278575,0.10716809330682253,0.4285974052322793,0.5348480127910521,-0.23981203661354486,0.30085096811847944,0.2898580564076413
0.878,0.04536820061489005,0.16562307029986273,0.12042239443290412,-0.10415600729256853,-0.038510993629239466,0.14272253208926883,0.09841335257787084,0.3874069621525586,0.4882492973205401,-0.2800081251413978,0.27910880906437846,0.27064279505568073
0.88,0.036910411603045194,0.15028082285510946,0.1132609326173748,-0.09260823159599033,-0.038975316400495605,0.13143258860857102,0.09045559605892307,0.34922008060840887,0.44007396146358596,-0.31667073861758904,0.25832878319522445,0.25489605532826937
0.882,0.03174363316744727,0.13681524110795176,0.10465703116945531,-0.08350192507437072,-0.03716960420400613,0.1198772916391782,0.0857646122769481,0.3144875680201756,0.39611844217275677,-0.3520222216282754,0.2342364525820695,0.24187043865446262
0.884,0.028653742828039185,0.12556156276663502,0.09642446735070274,-0.07639698405495866,-0.03475981144867075,0.10901467179743499,0.08184958916061386,0.2834882900447023,0.3601601079758287,-0.38783547090834436,0.20539316694485701,0.22672725244659805
0.886,0.026077316250864905,0.1156233967744821,0.0892840592632816,-0.07038399395674885,-0.0328195265335692,0.09993840067646237,0.07526021648500064,0.2554030644873427,0.33042600451508697,-0.4224138375980353,0.17447653601255347,0.2069488602752658
0.888,0.02517696906540491,0.10667584551163245,0.0814336576838419,-0.06585452025382475,-0.029330839864450932,0.0924264918147043,0.06606889204565297,0.2287762035532524,0.30209848716847043,-0.4535392771385428,0.14491636293951063,0.18510683251677684
0.89,0.026413274994785477,0.09804183138198813,0.07145817410661641,-0.062312897916142314,-0.023328079060588872,0.08437401285351871,0.05730263213754378,0.20241107763859295,0.2733218992210003,-0.48274940737962785,0.1179135394643955,0.1651465567845042
0.892,0.02705216252990566,0.0878288756669997,0.06042271594464555,-0.057210434212629994,-0.01734691507722012,0.07366894233320258,0.05161307124017535,0.17572114780780432,0.24594180379558397,-0.5129137008105296,0.09357643645768288,0.14868809319275864
0.894,0.024297182289439598,0.07581876133701315,0.05133718869444861,-0.0490950560302004,-0.014384808003656996,0.061816817338829835,0.048609747327593406,0.14851845461318222,0.22132586812600852,-0.5427391661058936,0.07279701985271403,0.13509934048394442
0.896,0.01832792686822623,0.06513711980045239,0.04710817535573969,-0.039979446372677994,-0.01524991858751678,0.053578118757964484,0.04515379519338606,0.12153745331947631,0.1985378068164085,-0.5671578887622815,0.057009981412527874,0.12292915015306274
0.898,0.011389035690374442,0.05795592853933691,0.04714188902531204,-0.032598934759965045,-0.018401094055352406,0.05060551801980092,0.03895818453072547,0.09724228921129446,0.1769341832606335,-0.5831946551404339,0.04611495464437657,0.1106800172171941
0.9,0.005733286443865565,0.05166884856005586,0.04628684679355478,-0.026988529186533817,-0.0205551793200629,0.048095313235054886,0.0315336204929618,0.07826820605447167,0.15790691611193827,-0.5935659128464648,0.03689964417556101,0.0977342256088554
0.902,0.002972531579935732,0.04188169546158013,0.03884929762724273,-0.0214731283997159,-0.01823046934462827,0.039948799947813966,0.026246239094964215,0.0650004211147747,0.14208353580926258,-0.6034897636408867,0.02517335230179595,0.08508363133059009
0.904,0.003492390038355249,0.02777486425373339,0.024068228762027126,-0.015184839828793055,-0.010651837966322866,0.02533411090089957,0.02391982943033008,0.05550613566753515,0.12690838395360016,-0.6158708586680627,0.00983471256021262,0.07414599765219643
0.906,0.005102464068881832,0.013318125475575296,0.00813803061397766,-0.008412532761313605,-0.001990899108858305,0.009798124527050934,0.02236398274860373,0.046481153899256986,0.10954378895600611,-0.6318311952076324,-0.006697896655750568,0.06480309688878627
0.908,0.004240494263009622,0.003505049962319772,-0.0006589964858102063,-0.0022361955747867146,0.0016907028167944189,0.00044552637089102104,0.019834718614161233,0.03479019380471148,0.09070642341432573,-0.6521838238626776,-0.021968888566581055,0.05542232896379892
0.91,-0.000255809003762547,-0.00022623534835198656,0.00010833683855231523,0.001986050589560595,-0.0011289923416802068,-0.000581294128182538,0.016707876743299245,0.020218734976640385,0.07389947273741275,-0.6743139412106807,-0.03582193707484748,0.04496267335150464
0.912,-0.00616567466394604,-0.0004483977990159989,0.0057135844409646,0.004085698051364485,-0.006608181114358506,0.0027163172516735676,0.013845061155342281,0.005560518386180397,0.061817541869412386,-0.6920169716080078,-0.04906794237890598,0.03447631071921955
0.914,-0.0105296050718064,-0.0008028376562086418,0.009682178399200495,0.005611830775479111,-0.010471185679035131,0.004695098765959935,0.011044920060336938,-0.006956963968187221,0.053872757070069124,-0.7022550878101478,-0.06128858454169968,0.025938675165200795
0.916,-0.012342869966157154,-0.003862662762236757,0.008460926429561375,0.008395474862034416,-0.011220298213015739,0.0020365598575618803,0.007825723792977638,-0.017433702419951635,0.04685302233310607,-0.7078011391217164,-0.07096271188805696,0.020137254135744666
0.918,-0.012989289988140276,-0.01015342788211679,0.002850966117005027,0.012915615712572728,-0.009629343581458893,-0.004956880212156635,0.004948248217893568,-0.026433299791014858,0.038430688668874384,-0.7117437096065895,-0.0772799521373058,0.01644999526147838
0.92,-0.014037072117920333,-0.017453532108104762,-0.003420670323216891,0.017804811063881862,-0.00715040120729522,-0.012821434141579883,0.0035715956909006985,-0.03351505180251375,0.029260303681689834,-0.7143291625538626,-0.0815253185648101,0.013802518137392224
0.922,-0.01527047447220095,-0.022517687263884898,-0.007400242251202245,0.020992728414298834,-0.004972220714452651,-0.01790990006665294,0.0028459652264191454,-0.0380603364276627,0.020976637995646086,-0.7155356858708934,-0.0862532385689014,0.01098285405988524
0.924,-0.015562727325064727,-0.024906012497860102,-0.009811586412238428,0.02192364035983628,-0.003269304649899698,-0.020171999774481298,0.0008213548362064401,-0.04059688718727884,0.01424552239933528,-0.7167644703202385,-0.09253665804097858,0.00694511074195687
0.926,-0.014454435558758454,-0.027774110532821028,-0.014074391660629812,0.022251171331524138,-0.0006364765370254,-0.023027496493017583,-0.0012636476091374379,-0.04293680695495732,0.009593739102551678,-0.7201658067561731,-0.09955845336556746,0.001633582441119845
0.928,-0.012238456888940036,-0.0337683950636852,-0.022205104810067558,0.023722788836670138,0.004283878290102315,-0.029086850089424625,0.0006878458130425552,-0.04680425234178147,0.00733678738444607,-0.7269316491257175,-0.10683010040759279,-0.00401480960153662
0.93,-0.009476440591204236,-0.04125083064842726,-0.03200027350289553,0.025901480132408408,0.010302712771807762,-0.03706129083266857,0.006995663094284852,-0.0522694233055365,0.005995166878202099,-0.7346046953328296,-0.11393346795136058,-0.009084709579009519
0.932,-0.007040118924390149,-0.04576985051731142,-0.038579924144443584,0.026761791552098284,0.014268545581238485,-0.04297650858404049,0.012038167291607301,-0.05796199278862535,0.0032058153786551856,-0.7386322200424505,-0.11942912659555789,-0.013373884612325665
0.934,-0.006489975187668558,-0.04474039703053608,-0.038174767012805526,0.02559161344366467,0.013722863487836886,-0.043417234660434505,0.010510377998314904,-0.06280238408197818,-0.0019577039311551845,-0.7388040885953514,-0.12307578746787622,-0.017591064024461183
0.936,-0.009132716787383791,-0.04015597593353512,-0.031334718818419885,0.024392341988002726,0.008937208978178705,-0.038555955858675564,0.0030000728233931257,-0.06691722408259915,-0.008598021340377637,-0.7394959205394881,-0.12673281067813047,-0.02268980123513446
0.938,-0.01380718374683768,-0.0370745655792251,-0.02379195910729145,0.025553998607152136,0.003477802114071121,-0.03315850613277992,-0.004934142896488076,-0.07063571373089937,-0.014576708922822893,-0.7423253018393436,-0.130942872711051,-0.027945245430947396
0.94,-0.01729266645332549,-0.039003477643727684,-0.022024041401563155,0.028988787658860204,0.0014072386171556297,-0.032506049413134494,-0.008163259142202315,-0.07332449733987692,-0.017894949977187297,-0.7440348373450794,-0.1337241424151122,-0.03090357749988195
0.942,-0.017668321524776123,-0.0448220860605041,-0.027100535771057498,0.03267348836439441,0.0034885507054174068,-0.037014086181046305,-0.006622376940049806,-0.07412660091721811,-0.018878940998686554,-0.7420507679155041,-0.13420195677226526,-0.030557084503336766
0.944,-0.015930769847471805,-0.050836492248873474,-0.03471543440246767,0.03517357045628833,0.007398380049185615,-0.04296474384808072,-0.004207204304884745,-0.07355162115599682,-0.01989239824314779,-0.7385496389415802,-0.13451978983947965,-0.029065283082874024
