time,I,II,III,aVR,aVL,aVF,V1,V2,V3,V4,V5,V6
0.0,-0.00021939620688464173,-0.0017112904137002052,-0.0014918942068155637,0.0009653433102924235,0.000636248999965461,-0.0016015923102578845,0.0034225808274004105,0.004497622241135155,0.0014918942068155637,0.0,0.0,-0.002566935620550308
0.002,-0.0015325538613534173,-0.011953920118556654,-0.010421366257203237,0.006743236989955035,0.00444440619792491,-0.011187643187879945,0.023907840237113308,0.03141735415774505,0.010421366257203237,0.0,0.0,-0.017930880177834983
0.004,-0.004806744460818515,-0.03749260679438442,-0.0326858623335659,0.021149675627601464,0.013939558936373692,-0.035089234563975155,0.07498521358876883,0.09853826144677956,0.0326858623335659,0.0,0.0,-0.056238910191576626
0.006,-0.009032796624600437,-0.0704558136718834,-0.061423017047282966,0.03974430514824191,0.02619511021134126,-0.06593941535958317,0.1409116273437668,0.18517233080430892,0.061423017047282966,0.0,0.0,-0.10568372050782511
0.008,-0.011368807131406474,-0.09016858983178605,-0.07879978270037959,0.050768698481596264,0.033715487784486554,-0.0844841862660828,0.18099536828422605,0.2378872627452948,0.07890948080382192,0.00021939620688464173,0.0003290943103269626,-0.13536258285112143
0.01,-0.009798914875561053,-0.08685290228657945,-0.07705398741101839,0.04832590858107024,0.03362753626772867,-0.08195344484879889,0.1783034661572192,0.23468169838153058,0.07792996244513743,0.0015325538613534173,0.0024085288954724467,-0.1310456303605459
0.012,-0.005066758209308516,-0.07220657636617234,-0.06713981815686379,0.03863666728774041,0.03103652997377765,-0.06967319726151805,0.15883338611480025,0.2103396410768156,0.07041916542139211,0.004806744460818515,0.008064152104658337,-0.11071323677966774
0.014,-0.00020854894335878282,-0.06304969880548147,-0.06284114986212268,0.03162912387442012,0.03131630045938196,-0.06294542433380208,0.1531977874847643,0.20579545189851112,0.07063689543895121,0.009032796624600437,0.016675286815293597,-0.09909094652052243
0.016,0.0018855585687243845,-0.06409242586432938,-0.06597798443305376,0.03110343364780251,0.03393177150088908,-0.06503520514869157,0.16294946174353214,0.2233983849048078,0.07976528826522401,0.011807599545175757,0.02469737613818333,-0.10173528387944349
0.018,0.0010646407421230919,-0.06874978962245827,-0.06981443036458136,0.0338425744401676,0.035439535553352226,-0.0692821099935198,0.17149398545566,0.24143075777209333,0.09044931045423073,0.012864022598267886,0.029683770688885728,-0.10741112032692661
0.02,-0.000414936708311469,-0.07037632448169326,-0.06996138777338179,0.03539563059500236,0.03477322553253516,-0.07016885612753752,0.17037315697376765,0.24865244046473814,0.09847979073761325,0.014680247130945545,0.032907015285792734,-0.10617516804286677
0.022,-0.0007510357597356964,-0.06869922878806113,-0.06794819302832543,0.0347251322738984,0.03359857863429487,-0.06832371090819328,0.16512249427999995,0.25094361487676714,0.10489071572394024,0.018274142192559656,0.0369212044277422,-0.0995399990039309
0.024,-0.00013655264595768997,-0.06693339696808144,-0.06679684432212375,0.03358982385874072,0.033275296786361874,-0.0668651206451026,0.16319412445174775,0.2557126490668819,0.11121964975517051,0.021378606590611707,0.04237962262081182,-0.094986581987607
0.026,0.00033942184426734886,-0.06631290456586549,-0.06665232641013284,0.033304060964072034,0.033156614903238665,-0.06648261548799915,0.16513436394296627,0.2627843450700099,0.11803497966379331,0.02232101637968954,0.04814043555364892,-0.09568550210311676
0.028,0.00023537257374586665,-0.06499938981977109,-0.06523476239351696,0.03317877763153239,0.031785043088976304,-0.06511707610664402,0.1671162815316436,0.26868441610407623,0.12599571294071543,0.022960614867011966,0.05323819708566608,-0.09844628983335099
0.03,-7.257083439005671e-05,-0.061199174405821226,-0.06112660357143115,0.03178033785162739,0.028901876690916952,-0.06116288898862619,0.16700563505622049,0.27257127508681234,0.13470789518597323,0.026126192810022594,0.05775059561080063,-0.09945034795753596
0.032,5.653118006137796e-05,-0.05538062394783119,-0.05543715512789256,0.028689745501632287,0.02583780399445801,-0.05540888953786187,0.16609076772303297,0.2765032111699871,0.14225850023609712,0.03219226530412074,0.06218743020808113,-0.09823315666044878
0.034,0.0014944201377891761,-0.04905046475952791,-0.050544884897317094,0.024344196920691466,0.024447912960037257,-0.049797674828422483,0.16692238204765453,0.28272474306197887,0.14821061874304298,0.03984922274740867,0.06684634260703891,-0.09589671131964309
0.036,0.00487739628314773,-0.043223186785648425,-0.04810058306879617,0.019361356422212293,0.025648056077400408,-0.045661884927222285,0.1705854849903805,0.29163371493373685,0.15476497244324214,0.048331293705743295,0.0717583143834018,-0.09267484858754621
0.038,0.00908734255284944,-0.038953509947601946,-0.04804085250045138,0.015120465300443834,0.02829264531903017,-0.043497181224026654,0.17526008603452653,0.3011012250197504,0.16305969117887376,0.05682574590492349,0.07681952840847432,-0.08903086095427001
0.04,0.011795094880186761,-0.0371536151342149,-0.04894871001440163,0.013126846466150227,0.030159001885191224,-0.043051162574308265,0.17801496924128718,0.30826184781706756,0.17119098678053102,0.06364285239138248,0.08200059855461507,-0.08661519359778606
0.042,0.012828283374311737,-0.03660851846812483,-0.049436801842436554,0.01252113871288385,0.030664403839131608,-0.04302266015528069,0.1786962610157138,0.3130607074927336,0.17779787323543605,0.06809219441524106,0.08755575382166943,-0.08590731626652631
0.044,0.014670000760735888,-0.034557150380862225,-0.049227151141598126,0.010538311323649954,0.03131450690511378,-0.04189215076123017,0.1800675047673671,0.3187091435749105,0.18441720721275945,0.07166328199038285,0.09339481384199512,-0.08473111278386286
0.046,0.018288751798227757,-0.030586362475911812,-0.04887511427413958,0.006625549220336296,0.033000479773641476,-0.039730738375025706,0.18331569616335436,0.3277343897942151,0.19228352889970673,0.07612247142613943,0.09808489599617083,-0.08084486622506389
0.048,0.021500874689788292,-0.027318520743652996,-0.04881939543344129,0.0033246356846849787,0.03470437893770512,-0.03805798827820293,0.18639714602924773,0.33909245539010974,0.20013509269184102,0.08160575548716835,0.10005125340488893,-0.074626692402004
0.05,0.022975626496871793,-0.026006666203646236,-0.04898229270051803,0.0018450250670188012,0.035615589749922356,-0.037417851759014464,0.18804964862371837,0.35002540092281215,0.207478655165909,0.08713822604682013,0.100324784543734,-0.068042001319684
0.052,0.024480211955291414,-0.024609640742513178,-0.049089852697804595,0.00010963276334620378,0.0365358800565632,-0.03660940949711795,0.1899811963800525,0.3594512591555763,0.21668607842926613,0.0921139925893513,0.10187945391608381,-0.06250106917398922
0.054,0.027360592471771476,-0.02169184943878303,-0.0490524419105545,-0.00321604286332142,0.038130480159060384,-0.03492050584343874,0.1933139746130049,0.3684293977031365,0.22917752699982225,0.09669261452300898,0.10542361249444814,-0.05883752108093231
0.056,0.02997421544439296,-0.018782386411092016,-0.048756601855484964,-0.006258369983423562,0.039425878475141445,-0.033190083966373934,0.19625598322696708,0.3781582224653882,0.24247031295876778,0.1012275319626101,0.10854834630884456,-0.057301117113320026
0.058,0.030395431241396736,-0.017031944011497876,-0.04742737525289461,-0.007328412298422628,0.03898403286459079,-0.03166308619535052,0.19738405509868284,0.38901472150874983,0.25342888315064255,0.10589712616737783,0.110062584587147,-0.05592354272350921
0.06,0.02922740010306548,-0.014959820310676664,-0.04418722041374216,-0.007625614129307796,0.036714212051071296,-0.02907984522870306,0.19847720476324213,0.40131609845851945,0.26207778359747913,0.11076068042876458,0.11190511072734077,-0.05123962687560546
0.062,0.02837285195355291,-0.011613336972517426,-0.03998618892607035,-0.008798650409420053,0.034144599798288135,-0.02533769567089593,0.20209582727665568,0.41538471357274004,0.2705799152210195,0.1157929441937672,0.11527071053245969,-0.04267112748103498
0.064,0.028792368964317257,-0.008741487224128095,-0.03753385618844536,-0.010435911367343158,0.03308761645600272,-0.022652539467808392,0.2082315157684467,0.43074904134532793,0.2803205309867042,0.12109630801450094,0.11849625161286813,-0.033801709605396156
0.066,0.030666249960380504,-0.007654403463605597,-0.0383206534239861,-0.011704815191662332,0.03417409951239377,-0.02249612666474474,0.21492268709483672,0.446483354164223,0.29137096750324715,0.1274176154194206,0.1209501763846635,-0.027674215444326293
0.068,0.03410247482381012,-0.006542545013538376,-0.04064501983734849,-0.013438348816050822,0.03651582286100422,-0.02323261584265685,0.22055943233988998,0.4618552611323957,0.30375470311743114,0.13553227788537348,0.1252885860136554,-0.023739051758252694
0.07,0.038101280092030856,-0.002892618487958689,-0.04099389857998954,-0.016697957487223858,0.038165311063627964,-0.021924313913671226,0.22421063767373026,0.47582097672958806,0.3177423818186336,0.14440112813293376,0.13309057992525156,-0.020669129458193554
0.072,0.0405694435774697,0.0031600540870749083,-0.0374093894903948,-0.020736951295584387,0.03746994250879916,-0.01759083654506493,0.2254694706195973,0.4873468048914579,0.3330588919833513,0.1516444109962575,0.14156848313321546,-0.018791884519680623
0.074,0.0411087637830207,0.009420842456350487,-0.031687921326670226,-0.024283415350808277,0.035072897709550806,-0.012124278875079964,0.2255128384212917,0.49723262393524315,0.34892306104474397,0.15691488932402142,0.1472740641268204,-0.018137062961179312
0.076,0.04217580705868869,0.014482582778557924,-0.027671284659442314,-0.02766787430641801,0.033777426411601606,-0.008087271365142203,0.226944256812207,0.5081695721942612,0.3645190030720565,0.1628714697313441,0.1504903768675427,-0.01674718101302008
0.078,0.04610189835791438,0.018718893237033764,-0.027229749734745273,-0.03205755539649435,0.03550665974020303,-0.006047705669259209,0.2313085523730522,0.522023956953951,0.3785923954771369,0.1717647728318587,0.15396081558824057,-0.01273489679136954
0.08,0.05228897737108901,0.023041776838211344,-0.028788465707484265,-0.0375331897906582,0.03928734728355883,-0.004569287026284179,0.23753340243043639,0.5379215145105692,0.3901704167979071,0.18274932843053707,0.15908635233979124,-0.0066554953255828705
0.082,0.05834258875114431,0.027794475795175442,-0.029798088679644157,-0.043122784481097284,0.04284182965632478,-0.0023427728984751067,0.24348947312966573,0.5536398153640302,0.4010616685236442,0.19351029553699112,0.16497120814122082,-0.0005769867210405082
0.084,0.06297735430754428,0.03281279623592692,-0.029486412183870093,-0.04816794788674704,0.045202611526703136,0.0005672832792687593,0.24833395387931337,0.5681835985032793,0.4151505884572591,0.20313828051635255,0.17033609782820294,0.004405282778591069
0.086,0.06690574131757081,0.03787372387710879,-0.028802150229230612,-0.05284974570922958,0.04707626251276426,0.0034114571059561966,0.25275334946166844,0.582243527507517,0.43331429178748565,0.21235689077848272,0.17501042026451324,0.00882367709055523
0.088,0.0714685507314223,0.04299673682700282,-0.028643283971235896,-0.05766027681509717,0.049460739101479176,0.005963659171993187,0.2574490843733253,0.5967728016180276,0.4518692315589206,0.22212134668389716,0.17986425703254766,0.013641204957003931
0.09,0.07725335466890762,0.04872180169577359,-0.028740565290029555,-0.06306982850167482,0.05262939173991694,0.008993493773254225,0.26190394664659866,0.6123075635326016,0.4679057225623291,0.2333105669292092,0.1866172005762919,0.01946171378442082
0.092,0.08352963549172954,0.05598061962850117,-0.027566101653284384,-0.06941414996999681,0.05557639550209897,0.013804195870623516,0.26471168389012445,0.6293926325752363,0.48323423954709355,0.24652207518666588,0.19703813333772704,0.026773067268154562
0.094,0.08831081713060338,0.0651739007550909,-0.02303436813282926,-0.07628986386190144,0.05602423095650402,0.021232782494075376,0.26517555909792934,0.6483449382171506,0.5011928269571845,0.2605823264149405,0.2104829712456454,0.035878159210547406
0.096,0.09010778449148314,0.07544459028115982,-0.014604614749436121,-0.08253114743005223,0.05260125707087945,0.030710074222581242,0.2643447178429003,0.6686163549739857,0.5219663462682997,0.27291959802283,0.22358053697527547,0.046381543798353256
0.098,0.09037182298102231,0.08509025594783966,-0.005309011699892266,-0.08750897683452147,0.04752133850142317,0.039959153134700304,0.2642652735086442,0.6893003944202879,0.5430069126717626,0.2830106827181713,0.23418230751357916,0.05742366087690588
0.1,0.09229067598869163,0.09262335008901795,0.00030968952472339086,-0.09174847772768738,0.044962654695833854,0.046359071741798305,0.2664491624205608,0.7096887318962805,0.562613827634129,0.2935851497188345,0.24333534916340718,0.0680857115234581
0.102,0.09635166722914659,0.09773925024783216,0.001534340887103819,-0.09573650771426982,0.045939818257792156,0.049619419653816804,0.27097018244539595,0.7286722521976662,0.5813352904132633,0.3071611386040147,0.2520532222512509,0.0771092806371466
0.104,0.09962523830051043,0.10175250004972351,0.002607383513523311,-0.09925759415439693,0.04704942323548723,0.05236225379046689,0.27632681814783383,0.7449917612036234,0.6006197320984766,0.3231056155536619,0.25932578004463,0.0836231301671858
0.106,0.10039611369397479,0.10706655968467957,0.00743422486818558,-0.10274062485815863,0.04530264387819133,0.05728041846569532,0.2797785171580138,0.758899953063614,0.6216249527359432,0.3390094770999952,0.2647852746829513,0.08895904664569418
0.108,0.10086214265446097,0.11523673738249465,0.015047640179546422,-0.10770855904667058,0.042008677933045774,0.06438592347713296,0.2790272762349403,0.7723019213113282,0.6446288836772526,0.3536254522028204,0.27059852311102384,0.09578351062069734
0.11,0.1040383140427576,0.12486097938349956,0.02104259132317369,-0.1145643887849381,0.040755408199240735,0.07120640386578451,0.27498144701629684,0.7866988698625932,0.6681823285598941,0.3675988583510529,0.2790966156426193,0.10443001972445178
0.112,0.10998464804429597,0.13296655741523325,0.022808474558122443,-0.12162737327239306,0.04292841804655559,0.0757106350967736,0.2715283468325242,0.801873994261604,0.6900893531532991,0.3821894936924852,0.28998717537238783,0.11235006291869348
0.114,0.11637024010696903,0.13956690720533255,0.022992141417442772,-0.1277383180440458,0.04621134972279191,0.07942193415483255,0.27123293549882316,0.816823557535769,0.7104920609162525,0.3983813805544409,0.30105210071732613,0.11821635305032226
0.116,0.12156564289272816,0.1482868771833321,0.02670736371304526,-0.13406318749780177,0.04730190513051259,0.08618758940212409,0.27286391498970236,0.831206574737469,0.7319249231019993,0.41647554309016943,0.31084873287764286,0.1241693003876852
0.118,0.12592611798684833,0.16092005412534477,0.03511751128828899,-0.14196137120344593,0.04557265881894562,0.09688368180352118,0.27386580677585703,0.8455011868622927,0.7551631215222822,0.4351581433700926,0.3198557502361989,0.1327504477267512
0.12,0.13051527682624423,0.17442191464261078,0.04411628208791272,-0.15072216206785505,0.043380665559527534,0.10787747811111005,0.2732913666904075,0.8601418559262938,0.7776879762550397,0.45201383815876167,0.3292392773862632,0.1435834266162052
0.122,0.13564345240047082,0.1851481613026841,0.0499354508139094,-0.1587721511827999,0.04287604220269045,0.11592089420487538,0.2713864664430532,0.8747832114675717,0.7974209332134662,0.4662046495291309,0.33928030602631326,0.15443902035472024
0.124,0.14080694658264564,0.19335541596742933,0.0532325634200315,-0.1658331366475613,0.04376113660429516,0.12180575474117736,0.2682968265317485,0.8880394776249781,0.8154442995773323,0.4794291555834182,0.3493526446408601,0.16419436759388834
0.126,0.1455383834120472,0.20179592127463455,0.05679861558516352,-0.172772633484813,0.04448229174965583,0.1281494619526952,0.26481810404245054,0.8979831952802019,0.8340373609971936,0.4935907871862159,0.3590344845820176,0.1734224158791564
0.128,0.15009283339650095,0.21190420473683833,0.06173505286543718,-0.1802247120778889,0.04436014398250733,0.13594060775447947,0.2625317666812296,0.904063897115905,0.8539873035310237,0.508775006930012,0.36881150171865684,0.18312203315411535
0.13,0.15528874714134683,0.22301508019996444,0.06714553239718846,-0.18822618162984567,0.043910860602246554,0.1444278567009279,0.26138387789570233,0.9087476631788984,0.8746903242186185,0.5239565123954464,0.37988341829382166,0.19425321632555134
0.132,0.16121204520048762,0.2338285458032565,0.07214670171788765,-0.19632479995110008,0.043651974461858305,0.1526851047483552,0.2592633932675908,0.9154590300141416,0.8951926775543096,0.5386009031212111,0.39300081978713935,0.20737347795594063
0.134,0.16613236985289379,0.24297536477766335,0.0768418338221563,-0.20319723926819752,0.0431685415213394,0.15997324432191484,0.2555665014217697,0.9243887811783781,0.914130536645219,0.552976789983101,0.40693124694945637,0.22126597739111034
0.136,0.1681926432051077,0.24972365736948787,0.08179950519713229,-0.20767023867628182,0.04169545547818451,0.16594162462435944,0.2523342988196554,0.932065808959397,0.9301794663790036,0.567397315758934,0.41919074563410985,0.2332923141955702
0.138,0.16850961133592118,0.255897084449843,0.08764504748508167,-0.21121863356025997,0.03945664422335952,0.17177641138641903,0.25005776620231596,0.9350273774624259,0.9432675876108323,0.5814010586566896,0.42908905422279225,0.24202612001625867
0.14,0.17031056165483144,0.2651051871798634,0.09505158064121023,-0.2171404069084829,0.03731551249044874,0.17984987402523572,0.24580766132118217,0.9327871871413678,0.9543397512054176,0.5937876815699007,0.438191917566678,0.2481978244303015
0.142,0.17428612140363764,0.27821548041067967,0.10424967170448268,-0.22595030952945291,0.03500288628032723,0.19095148307412013,0.23792910663872513,0.928208974284431,0.9642893789912983,0.6039528023203302,0.4471102552133439,0.25319196826554735
0.144,0.177495322489842,0.2917804055908344,0.11455175341735288,-0.23431275380901384,0.031272455282367995,0.20302860588837998,0.2290481615921917,0.9250642682013223,0.9737072873921472,0.6128741067744419,0.4545438054425816,0.25789455952195783
0.146,0.1776890088071495,0.3022152178292767,0.12470427454401446,-0.23951490568493616,0.026072714402856127,0.21343439091527766,0.22182765531342527,0.9239995609638934,0.982641746769468,0.6220456069964488,0.4604548733642081,0.2626142928214898
0.148,0.17609392769416465,0.3088827877284009,0.13315374169484626,-0.24213455112239352,0.021268702972946273,0.2208685032729992,0.21527979041782874,0.9223325491586976,0.9902777385733615,0.6319039415080433,0.4670701837412306,0.2673179161051543
0.15,0.17515187514804875,0.31246874365577043,0.13814373361889887,-0.24372305396762473,0.01885486725906202,0.224873711775707,0.20777152183750414,0.9188016242081323,0.9958170298520902,0.6419435578763198,0.47529996608297026,0.2719783726606594
0.152,0.17573733588776946,0.31349654220553935,0.13891954677233465,-0.2446845072003991,0.01907379204394309,0.2255899656371681,0.20036125671739047,0.9155381496722985,0.9996466948107345,0.6517905914572271,0.48302217466333774,0.2767474523579775
0.154,0.17761725121672714,0.31344159674088,0.1368570299819031,-0.24538079213629133,0.0206711944745326,0.2245538955725771,0.1948366799347939,0.9137739549687031,1.0027215851503806,0.6612754714048837,0.48830678896741164,0.28174194385888074
0.156,0.1806895233008428,0.31490350386377103,0.13473345653329008,-0.24715713336802192,0.022364645750988912,0.2243319346465897,0.19086694577792207,0.9107319618717434,1.0050592358352943,0.669402825718798,0.4920147509279506,0.2868600025280117
0.158,0.1841734746618915,0.3193231854772393,0.1351260801270255,-0.2507573768642078,0.02321521339162399,0.2267926059739951,0.18683282220481537,0.9030806339359702,1.0059542065233624,0.6742644753239114,0.4961754039859543,0.29192688229961766
0.16,0.18605482083092534,0.32545018303348716,0.1390577383969782,-0.25483919043168274,0.02231158625826953,0.23185067344854363,0.18192790775944997,0.8911466929035587,1.005186743248198,0.6750296348026572,0.5013406566735412,0.29698528504442406
0.162,0.18471049685125818,0.3306178170456593,0.14547724274747123,-0.25718141749453344,0.019185256009474006,0.23776661997065962,0.1760714033138578,0.8771789721352354,1.0025179896881347,0.6734431012624044,0.5061625285960287,0.30235041834569387
0.164,0.18060488327660124,0.33304245733319643,0.1520679612427668,-0.25682525501179243,0.014510410307430159,0.2424858071990867,0.16874213311788802,0.861671758187231,0.9970266071613878,0.672216395030055,0.5088934601023406,0.3078853676742924
0.166,0.17626830733887494,0.33294957141288495,0.15650424260116166,-0.25484167874139624,0.010242420494158702,0.24480785037954061,0.15941385004531577,0.8444623984458733,0.9890183839879263,0.6723994623441805,0.5091216074684046,0.31219575652700515
0.168,0.17409765499142962,0.3319717422033464,0.15790877320992047,-0.25317730515912745,0.008175433377909914,0.2450190338620236,0.14879589158757114,0.8271742282115935,0.9809324426706054,0.673043445297037,0.5081322251906436,0.31371727960979556
0.17,0.17347199045731235,0.33153005244216904,0.15816583511321736,-0.25245887055684524,0.00750998015388322,0.24484660790544974,0.1383808823047845,0.8112684859733573,0.9739281227849015,0.6726622450018561,0.5075124550860589,0.31281529252167356
0.172,0.17154122307726902,0.33179988899407437,0.16029892855449,-0.251574453268544,0.005508758735965149,0.24600720037250018,0.12880246179407648,0.7954146429294148,0.9654764517364133,0.6703129476064901,0.5077041658406717,0.3115552986652605
0.174,0.16765131120176904,0.33215574983132407,0.16446807204469768,-0.24987912928148925,0.001614190799635329,0.24829227886956604,0.11947030780397644,0.7773101078690016,0.9526790308245289,0.6659512423092477,0.5081197697996614,0.3113632284539195
0.176,0.1643331055120855,0.33185151733235496,0.16747915830620724,-0.2480774923290074,-0.0015564168290212762,0.24967873699431908,0.10976535512280604,0.756583481195547,0.9360031816428533,0.6601045634072082,0.5081059804060057,0.311822246040527
0.178,0.16283454199873962,0.3295923641391583,0.1667585261820961,-0.24591753128177243,-0.0022684550065979444,0.24819249468675333,0.09982714115284762,0.73379479085005,0.917412147061301,0.6525116599265388,0.507161289922877,0.3114559252536808
0.18,0.16110013124261724,0.3238160264932964,0.1627375036551167,-0.24157837246566355,-0.001720564338140107,0.24327760764798803,0.09002657288899171,0.7084740892791493,0.8971208397894797,0.641945881717579,0.504621000906564,0.3090581932425835
0.182,0.15778524534667507,0.31514629513893566,0.15734904614268247,-0.23504935559645962,-0.001192188532631062,0.23622781119047562,0.08033904705738085,0.6808293489008647,0.8750003618011873,0.6287919417271199,0.5001364571115674,0.3046041379068911
0.184,0.1545499942154881,0.30678674147282636,0.15209840429179705,-0.22913889658875308,-0.0002940548629073676,0.22932833259808313,0.07047325403649247,0.6533345223969435,0.852682767985891,0.6155823336706917,0.49401531436339746,0.2989551132961003
0.186,0.1521846617302384,0.30040153748299264,0.14788068462872128,-0.22514525830960755,0.0007702547718519973,0.22372834399779662,0.06015529924933125,0.6277353827173953,0.8310696776128093,0.6026385366895494,0.4856606711992418,0.2921509990425605
0.188,0.1481701483335494,0.2940331417205221,0.14544003295292726,-0.22062339655964033,-1.7466215111179112e-05,0.21889603519899717,0.0495911695631327,0.6023189275136225,0.8078288725414374,0.5862940489945428,0.4729335715600047,0.28260055303293596
0.19,0.14079030726594383,0.2860507544024542,0.14500952298993644,-0.21351405118246047,-0.003729632157199505,0.21446960428510764,0.04013220734602291,0.5744490711217309,0.7802780452889501,0.5644444890330816,0.4554670986826984,0.26910678047510367
0.192,0.13244881461482175,0.277859492277046,0.14543874976924087,-0.205345846764883,-0.008277452870255905,0.2107052911420762,0.03340603931594338,0.5439933504167482,0.7489788355789306,0.5402549824491113,0.436754381780913,0.2529904201658416
0.194,0.12638425434010364,0.27034204484145513,0.14410221350045546,-0.19806842742386174,-0.010323869580759655,0.20638660706780435,0.029236723538718305,0.5122532105897607,0.7158725561638533,0.5170309764852209,0.42012324538847173,0.23694270941288156
0.196,0.12259008454802092,0.26122386228134203,0.138695028380405,-0.19085904441571383,-0.008697538639240297,0.19887873257839792,0.025681825233521898,0.4796341594445896,0.6810096751464426,0.4933824181365543,0.4045748448149138,0.22230733809464925
0.198,0.11879958551063803,0.24887416664965983,0.13002826222070699,-0.18239270239244199,-0.005468183480184859,0.18797846085928385,0.02128224271957172,0.44667564702856827,0.6440913755123849,0.4669917912100626,0.3869872071298206,0.20839089414676076
0.2,0.113662629853634,0.23529626501961165,0.12157819894741255,-0.17327370933657332,-0.0036484344473387688,0.17699694110780614,0.01625823640195381,0.41518689851332874,0.6068356053933615,0.43919107815209374,0.3665670350401229,0.1940591264718881
0.202,0.10734790584062426,0.22230128823848397,0.11497373312537922,-0.1640148191641054,-0.004085990325088494,0.1678785119485937,0.011864292681867176,0.3861285963200137,0.5706631525785012,0.4122639218148586,0.3450759011111217,0.17914843823329213
0.204,0.09997133903947765,0.20814891897073168,0.10833823887976946,-0.15323473098487375,-0.005355141145934855,0.15837424302479208,0.009342631644359785,0.3581174663602776,0.5344557912514452,0.3857137228151987,0.3244031953922351,0.16419332214983343
0.206,0.09110345180153048,0.19114591020891442,0.10038475812840798,-0.13997112289019434,-0.006365641849510049,0.14634897762290225,0.008986801970824167,0.3293669422182345,0.497259304262296,0.35841753804289717,0.3057994211234105,0.1495117981023338
0.208,0.08074893678937492,0.17324730308638278,0.09291208487505027,-0.12565844237357857,-0.007667000148499319,0.1334326502610228,0.009793517935977141,0.29983735368350695,0.46043269727984276,0.33136016947162356,0.28978527935092274,0.1347981971258924
0.21,0.0696486484044494,0.15715532581848,0.08774985948666611,-0.11212919444218616,-0.010031865028286955,0.12206540693883745,0.010392519448132562,0.2709596412042767,0.42479608782087735,0.3053191793946632,0.27510620655104734,0.11901729859490978
0.212,0.05887763192197447,0.14294696370604273,0.08404260477504352,-0.09973316088349925,-0.012994429034416848,0.11222602740499951,0.010290460110388675,0.24409551080809372,0.3887062084462339,0.2788272760504883,0.2590832962636775,0.10122314407538037
0.214,0.04983375972774872,0.1298022438512348,0.07982892774648412,-0.08861943573037247,-0.015221927448366373,0.10303915375689521,0.00992939388332175,0.2193827992470612,0.35117554138902773,0.2510807176785705,0.2401847002930034,0.08237553867857039
0.216,0.043567125931349995,0.11795303067248115,0.07432624434027582,-0.079504966399059,-0.015750838149362626,0.09455404369796666,0.00959136305368536,0.19559793401599143,0.3139517363324747,0.22390399452809762,0.21937630747266107,0.0649882432245954
0.218,0.039447896101911094,0.10697101129368299,0.06756753789349408,-0.07199904881195184,-0.014560323393626819,0.0862039238609245,0.008416003667355175,0.17117528464883577,0.2786786484376479,0.19873069271400853,0.19840939231833044,0.04999854914691785
0.22,0.03555969279471935,0.09501390946298674,0.05950787935870011,-0.06426804808679323,-0.012333134103635693,0.07632806472969599,0.005271713291525894,0.14587922686183843,0.24486504135878634,0.1747068852462998,0.17819951917119542,0.036039137518684865
0.222,0.03071453448891255,0.08167696286555982,0.0509642049572313,-0.05539142346966484,-0.01019112896482582,0.06503320104380958,0.001032613042624312,0.12153878470386754,0.2120262090835407,0.15129426743383514,0.1595536099204206,0.022515597363128793
0.224,0.02532962655994633,0.06909835996019,0.043740447721172276,-0.04645764905197301,-0.009207344050851368,0.05488253109150214,-0.0013803970467574011,0.10013513502380174,0.1808998192745532,0.12948706933704826,0.14334396663226506,0.010508639155682838
0.226,0.020336344192971402,0.058503228931527484,0.038174346392533545,-0.03860324750992942,-0.009382400406668658,0.046973673959595334,0.0001598658220468953,0.08107470672422443,0.15141043609225924,0.10902598790842018,0.1288927413252867,-0.0002804876996183375
0.228,0.015883354862242693,0.0478314149618927,0.03208787774719786,-0.031205278895963372,-0.00937105141963672,0.03881700175540363,0.004919884568961016,0.06211969289650928,0.12230017356361515,0.08764698681183297,0.11449539711556465,-0.012143284669643433
0.23,0.0113720926574986,0.03446891698760021,0.023436198448507715,-0.02276014461979324,-0.007815647112906197,0.02771860572002342,0.009807565919277995,0.04303634569030092,0.09365788357686687,0.0646617703133171,0.10033356784204465,-0.025613128833506058
0.232,0.006390019295047079,0.018669831959354514,0.012703488647181318,-0.01281039430321607,-0.004801517622984778,0.014225220596046277,0.011900544645347202,0.02602479837436521,0.06718411023624028,0.042499125115781675,0.0884010246054028,-0.03821702569982238
0.234,0.001137984874710107,0.0029364198169681446,0.0020479638293831037,-0.0023439062172011783,-0.0016659520892828442,0.0010144203050579182,0.011063004356028906,0.012550662908087325,0.04358176339388804,0.02356330772239759,0.07918800728263888,-0.04814595091851275
0.236,-0.0039997139348474575,-0.010358890129355038,-0.006410244862698806,0.007148895904055902,0.00018298012390738263,-0.009682056097177595,0.009576103387275249,0.0018039374839691267,0.02217037250488382,0.007731153076313156,0.07080782404448113,-0.05655088792000252
0.238,-0.008931191130356063,-0.01976501821365562,-0.011131248892991209,0.014541865183935765,-5.703689053049322e-05,-0.01667119486823173,0.009245577543546008,-0.007875178758038243,0.002995782237433793,-0.006646206748274914,0.061523328665668654,-0.06547034507649221
0.24,-0.013911197511632032,-0.025165733919949033,-0.011773822528743377,0.01978317907155924,-0.0024068888363033662,-0.019831971842420963,0.010086115531722308,-0.017584699209222072,-0.013260322215554106,-0.020905015998465257,0.05145197829815181,-0.07554953550078382
0.242,-0.019312304299337932,-0.028403080044513168,-0.009794287073780666,0.02420355384212113,-0.006173045558300639,-0.02046990430241828,0.011875386778352542,-0.02781164969301166,-0.02749947248267528,-0.03530693172205313,0.04196934359508978,-0.08632021287712183
0.244,-0.02490744934941804,-0.03206745175922107,-0.007783001052756152,0.02921319951015353,-0.010052444225161198,-0.02077737396584469,0.015041960757488542,-0.03836969581180122,-0.041721046277150765,-0.048702681846690174,0.03443094950363581,-0.09695895575448442
0.246,-0.029227101948198952,-0.03720449452585219,-0.008205914811805524,0.03444560134613147,-0.012164599498917256,-0.022669280338716454,0.01895828964115815,-0.04786250317942713,-0.05591086695431565,-0.05885466504308605,0.029137826298114837,-0.10609296377766111
0.248,-0.030720219595333276,-0.04307399553560015,-0.012189668243781381,0.03832246451010269,-0.01100618519711223,-0.026950274431871053,0.021424498784646976,-0.05458812157594063,-0.06804877663277194,-0.06478009472842773,0.02488521878766184,-0.11259076296873116
0.25,-0.02979959746407639,-0.04892049832595026,-0.018773361033638705,0.04041489158976623,-0.0069399217437358576,-0.033139229070570174,0.021293990611110654,-0.05864218300903888,-0.07774410955431861,-0.06907455637367359,0.019489976947362403,-0.11727121452177378
0.252,-0.028546197353139083,-0.05452817559439616,-0.0254752808671475,0.04186107401319898,-0.0021850068961880385,-0.039699467433923705,0.019944925791245273,-0.06198708299736257,-0.08686629223383131,-0.07572550377457858,0.011516558999315392,-0.12197189193962368
0.254,-0.028367445445243073,-0.05895003989867449,-0.02976956369256571,0.04342762831325857,0.0008243349182712875,-0.04443561897424553,0.019295902135773514,-0.0662879460017244,-0.0959160187757602,-0.08509073164683756,0.0021801707429048925,-0.12651260964845876
0.256,-0.02915832111658452,-0.06091433693425535,-0.03067671688005614,0.04476710789140607,0.001125898716061664,-0.04596652310039034,0.01988718085707707,-0.07159449746528003,-0.10300331950792,-0.09365143207665116,-0.005620749382336621,-0.12880450484144398
0.258,-0.030843547624759673,-0.061333012305583516,-0.02948836310143634,0.046137829137250015,-0.0005482819029689481,-0.045525372467344324,0.021610182814843,-0.07704059677845763,-0.10726724512270487,-0.0991840046484575,-0.0109122111497961,-0.1282292169432801
0.26,-0.033987713521195034,-0.06295807771288371,-0.028422286296757734,0.04884599956787234,-0.0029086482992057025,-0.04586709797479365,0.024604392305565874,-0.0820848312723486,-0.11055884461900328,-0.10295563424236341,-0.015259821303185948,-0.1267149196921003
0.262,-0.037949857958828354,-0.06645666457252958,-0.028477734217202632,0.052733175966345684,-0.004865420040536326,-0.047869281407381906,0.028136681210832605,-0.08687149779999041,-0.1149730898394519,-0.10625809954308459,-0.019308572071233637,-0.12621675938468108
0.264,-0.04045006421474818,-0.0695212256807424,-0.029278360642907477,0.055530968507795986,-0.005580085694135081,-0.049989903923394856,0.03050055885497033,-0.0918363769148986,-0.12058885017331168,-0.1084468709593708,-0.02155304152839649,-0.1269941053397754
0.266,-0.04031078593841366,-0.07103159423319784,-0.030840655117248504,0.05617909871353768,-0.004662308556624098,-0.051534572198629204,0.031656224425679794,-0.09730957341036263,-0.12621129472630277,-0.10962045204391445,-0.02122047115584607,-0.12884686537344933
0.268,-0.038938991848772204,-0.07290510899240543,-0.03392084267522468,0.05640629500690016,-0.002477523231854319,-0.053915968360396284,0.03373811449834496,-0.1029471091005657,-0.1311802586421071,-0.11175821609223308,-0.019847570909860744,-0.13207876866060944
0.27,-0.03828390280957722,-0.07628762191010495,-0.037919507554130066,0.05777529266768641,-0.0002067742435819392,-0.05755270105148832,0.037412333404140755,-0.10724752620817382,-0.13580534637641656,-0.11543669314124459,-0.019284751253234964,-0.1359915513034914
0.272,-0.03868723186094102,-0.07917523598850049,-0.04047206196858585,0.0594346154256806,0.000863484907463721,-0.06029753332779027,0.04032567504021177,-0.10870831140347471,-0.1404122017170879,-0.11832361623547727,-0.019932253978970037,-0.1384203111689553
0.274,-0.03923624234686381,-0.07953627735147649,-0.04033785522083462,0.059893331771759886,0.0005504018425742134,-0.060452094778883775,0.040540033891314615,-0.10778275750850784,-0.14443810089591447,-0.11852542084904545,-0.02163746062982732,-0.13827382776578376
0.276,-0.0392822416981866,-0.07819552048744977,-0.038939916360427616,0.05924035164117724,-0.00015557093104685588,-0.05908908377371863,0.039115235801445415,-0.10654465286171479,-0.14675220376257483,-0.1171096162188411,-0.02459306143411314,-0.13693757483991237
0.278,-0.03900611234313716,-0.07728357688761202,-0.03826957199505987,0.05864169945166469,-0.0003606031689328739,-0.05827858872761161,0.038243190817453136,-0.10637589865923457,-0.1469819332622702,-0.11624860766223788,-0.028116509448582506,-0.13630339381070078
0.28,-0.038849138274833925,-0.0775473024219303,-0.03867988220047893,0.058695927704193365,-8.947469755307686e-05,-0.0586029069757722,0.03835243065913453,-0.10694380575870704,-0.1461378740416294,-0.11679689044967301,-0.030277724326497238,-0.13669731483337322
0.282,-0.03892466109007612,-0.0781696332371674,-0.03924055243277314,0.05904777118052146,0.0001514467181319066,-0.05919889255702282,0.037670832242734174,-0.10730871197200194,-0.14558090304624127,-0.11873567907407026,-0.030133024574966433,-0.13723042187360895
0.284,-0.03904633065213958,-0.07832677744647898,-0.039288311315300674,0.05918810262717913,0.00012053106901057468,-0.05931041344930077,0.03452277106663055,-0.10717721551138708,-0.14573095067731118,-0.1221330366880462,-0.028937708522031955,-0.13727395906044595
0.286,-0.039063232652374366,-0.07806372476469672,-0.039006659407895,0.0590638772768529,-2.4959359017345654e-05,-0.05903994557200999,0.030013816196410293,-0.106916513648601,-0.14609562172421142,-0.1260780116901127,-0.028377459178345325,-0.13700533248260502
0.288,-0.039224313393834274,-0.07763295448871788,-0.038429234457030975,0.05892797910573927,-0.00040666937217902606,-0.05852082934443654,0.02725447957009176,-0.10666619108685053,-0.14619004455417378,-0.12821258201302413,-0.028535564269427337,-0.13663388959009093
0.29,-0.04050039569446819,-0.07636220179566298,-0.03601105287087679,0.058930768485469104,-0.0023222360324773165,-0.056607742177881934,0.027568007468876495,-0.1056011710852694,-0.14603832694610172,-0.1266996757264737,-0.0278282747782599,-0.1353945138980601
0.292,-0.043788701084098984,-0.07322354911908585,-0.02991434248631534,0.059006229206820755,-0.007178968129820017,-0.05182714575786587,0.029164321642318587,-0.10273899449764094,-0.14591482187779145,-0.12210460024148549,-0.024917618279147166,-0.13223847234831232
0.294,-0.04804172768826883,-0.0690390960324831,-0.02190227198256725,0.05904075096687547,-0.013521549747937534,-0.04551957740776935,0.029831568063486535,-0.09891220856632843,-0.14593851201693786,-0.11728076994891803,-0.020873803454495223,-0.1280285906198987
0.296,-0.05038291975390624,-0.06642960211494746,-0.017184982721141804,0.058906366095852106,-0.017166703660232784,-0.04173990505635581,0.029311538659371902,-0.09633564235844878,-0.14581966723053838,-0.11490888813470698,-0.018439436722303776,-0.12541644023099618
0.298,-0.04880078192151407,-0.06663780324836045,-0.018816704671433097,0.058219157756188564,-0.01548154816410686,-0.04273752018601818,0.028700156743658597,-0.0952389134505584,-0.14466242495733259,-0.11437000546614,-0.018737258124773323,-0.125637249483547
0.3,-0.0440599484209809,-0.06810210364059963,-0.02454795688516971,0.05658090423993506,-0.010009510174148275,-0.046571218956760425,0.028688051041156813,-0.09330117482083089,-0.14168450925663809,-0.11258497135142359,-0.02015465429660182,-0.12710902188328388
0.302,-0.039204277326717836,-0.06876377177281155,-0.02958004538459351,0.05448403995506402,-0.00482286576936752,-0.04966113933500745,0.02901440651587532,-0.08966364749348466,-0.1378527664584575,-0.10872504735949147,-0.02073742556258419,-0.12776737850523268
0.304,-0.03733551354156263,-0.0681156551385065,-0.030591917601210106,0.05321468835227454,-0.003288547506782727,-0.0499262197599723,0.029176874523561786,-0.08646977777535254,-0.13555638178825838,-0.10556427343997458,-0.020271445733627193,-0.12709166284334447
0.306,-0.03947104474348019,-0.0663586070168205,-0.026781422589990552,0.05333822504177052,-0.006368058357215985,-0.04697022339726643,0.029076566377695984,-0.08489304103042865,-0.13580454721497115,-0.10533300022408541,-0.01973186645544256,-0.1252024028827749
0.308,-0.044222262424748804,-0.06337915288843037,-0.019198357976986335,0.05406034297410842,-0.012772933946563116,-0.04128739305117092,0.028940059855806756,-0.08305349925030521,-0.13712298652245863,-0.10688429304284684,-0.019724948332933548,-0.12189819015123529
0.31,-0.04878240102343133,-0.05987249129631023,-0.011165004326922377,0.05437577855727596,-0.01929792205826463,-0.03507781791837068,0.02892959685493808,-0.07973105751397506,-0.13768558849004822,-0.10782583876453739,-0.02001474805596662,-0.11797068313076138
0.312,-0.0505043588762444,-0.05773219838096031,-0.007241418518028393,0.054038870181819236,-0.022217779153659318,-0.03182108131861276,0.029218481019329508,-0.07663732001443384,-0.13704457335972092,-0.1074613755953508,-0.020156926412185396,-0.11557423824184386
0.314,-0.04845979607311971,-0.0578777057180912,-0.009384034465291863,0.05310219343587022,-0.020087499633092486,-0.03301471021932133,0.030570536707694565,-0.07493674568524844,-0.13522402968275687,-0.10677479712140045,-0.020066857341651395,-0.1157441666903328
0.316,-0.04383207660001752,-0.05906199592067228,-0.015206455680520838,0.05145336781966594,-0.014794685996447666,-0.03665869496338495,0.03382538603890531,-0.07298308278504903,-0.13193408953362615,-0.10664194598456221,-0.019946307226805404,-0.11707398891108475
0.318,-0.03928128444322905,-0.05961654337108977,-0.020342514608873395,0.04948684110654071,-0.009935056949223874,-0.039551781474889566,0.038020972631177555,-0.06967356043387765,-0.12797605050584826,-0.10695166282616222,-0.01993787822806136,-0.11769230912568562
0.32,-0.03727700803593803,-0.05926427631582076,-0.02200351393804476,0.04828550364725401,-0.008130028076305255,-0.04015546711877923,0.04079177864852505,-0.0668676581396369,-0.12533783911655752,-0.10717206777922753,-0.019780234659301687,-0.11751371882874478
0.322,-0.0379732605768797,-0.05879440894800654,-0.020824942999239933,0.0483704933717894,-0.009089422501474854,-0.03928106829695852,0.04186291832624001,-0.06650589726154996,-0.12420056786040204,-0.10710851045962941,-0.01850117053653209,-0.11830048285926018
0.324,-0.03934433673276522,-0.058758733528763964,-0.01940734495029557,0.04903711659886248,-0.010479389711261687,-0.03855773027097099,0.043688353506917785,-0.06780133777690549,-0.12227124644576227,-0.10695794070269074,-0.01520956510967213,-0.12153656134218588
0.326,-0.039696641424937874,-0.05899675461583884,-0.019294675197503774,0.04934708059075417,-0.01069786847766277,-0.038649215133514714,0.04727861686696285,-0.06869188395639694,-0.11866745040959571,-0.10692070498926759,-0.010956589432760996,-0.12603016767796899
0.328,-0.039149101426283923,-0.0593273510414415,-0.02017950073239712,0.04925723507957058,-0.009966410156531878,-0.03929082451937433,0.050288561617856074,-0.06824521045846052,-0.11548833042680386,-0.10678762302318386,-0.008178430172219236,-0.12851475205920682
0.33,-0.03869625572350941,-0.06044306336256998,-0.02175037281359082,0.0496499155128807,-0.008894471907030516,-0.040755441764722546,0.050594762644496916,-0.06645966340696076,-0.11390034232113129,-0.10565684724331571,-0.007135096728822605,-0.1268700042848653
0.332,-0.03877482027132731,-0.06328565209388863,-0.02451185192599829,0.05126791998614316,-0.007394316019789843,-0.04387360330721898,0.049161501765936734,-0.06335673317289174,-0.1120469902377582,-0.10269933702093262,-0.005326956124519846,-0.12202108097584846
0.334,-0.03905796930939968,-0.06707542360784682,-0.02801599594630639,0.05351508941646555,-0.005571865129339019,-0.047943224977034155,0.048235445226400914,-0.05980664507999988,-0.10872394175574028,-0.09886289315925588,-0.0017297790789470094,-0.11714794745155763
0.336,-0.038930931893893586,-0.06911844959427293,-0.0301643248001271,0.05464787742445829,-0.004358215742205374,-0.050289662371495576,0.04832350701959353,-0.05771298408999085,-0.10607624124129192,-0.09655312647488191,0.00107350987247104,-0.11511042444482601
0.338,-0.03750755995834363,-0.0669707628513269,-0.029332084351943063,0.05305911935586611,-0.004358797764690708,-0.04870032154389677,0.04766124936228809,-0.05790446111337771,-0.10700579253596247,-0.09679746570550174,6.886579972423476e-05,-0.11596651152406248
0.34,-0.03413039121657839,-0.06029603472785731,-0.0258390026008414,0.048340826518449835,-0.00510155444004743,-0.043239271679683756,0.04453397685549198,-0.059085260905416714,-0.11159838416953997,-0.09812138049859621,-0.004644433813242922,-0.1174320083513392
0.342,-0.029915296597116576,-0.051384131857149386,-0.021046494100342473,0.042044423781950745,-0.0060981272690291445,-0.03594629634827279,0.040024397133800606,-0.05961305485013865,-0.11673787089974773,-0.09868868593554812,-0.009800597921291948,-0.11774218948630139
0.344,-0.02764070831476658,-0.0439204632856035,-0.01602391577295276,0.037197828052400635,-0.007787731376386893,-0.029410096814958528,0.037253418096344755,-0.05924991379538001,-0.11904246323183927,-0.09804692932394375,-0.011827896047764595,-0.11712301082165447
0.346,-0.029233956287900147,-0.040536686033089124,-0.011328116510801617,0.036152644066443945,-0.010839527387689259,-0.025313116834975027,0.03756172625123635,-0.05878945241445491,-0.11816876971075714,-0.09622346467221235,-0.009604291505099394,-0.11665893748225592
0.348,-0.033943749504612326,-0.041745679346041994,-0.007947752419989003,0.0390135850160648,-0.014697552580202193,-0.02431603243465658,0.039161900714681196,-0.058764203983814385,-0.11654918602496923,-0.09293253394778633,-0.0047245579871561015,-0.11677123384459098
0.35,-0.03877853145058386,-0.04645804541911737,-0.007742898540235484,0.04381862984967057,-0.017174326518451098,-0.026644303245390317,0.03983383951354614,-0.059002072499019176,-0.11617501318602935,-0.08897561581182159,-0.00015109635176466327,-0.11707662177364572
0.352,-0.04087365318802204,-0.05230769631027675,-0.011387979686128357,0.04780563512624427,-0.0164213101555555,-0.03138432493035023,0.03909454857470978,-0.05912944921145431,-0.11684770585031201,-0.08677727281611682,0.0017264965628705463,-0.11738059090644479
0.354,-0.040066004636522,-0.055996729124696124,-0.015874245770417995,0.04898956935224556,-0.013560109503381405,-0.03542945987643523,0.03716751259221988,-0.059060650121490206,-0.11737225903234831,-0.0882662191190535,0.0009573680303533505,-0.1185676790529317
0.356,-0.03859221181069428,-0.05514429922161946,-0.016549861142600892,0.04725155164452911,-0.011926941564850241,-0.03532461011486201,0.03387995037538864,-0.0589583372763767,-0.11725964737470951,-0.09288464502535067,-0.0003793837531926984,-0.1217355671354487
0.358,-0.038251634453692236,-0.05092586672171236,-0.012703839922545535,0.044437265089029954,-0.013129803236635311,-0.03130746185415386,0.029981011367088275,-0.058947011860128955,-0.11692110401195964,-0.09773270388624733,-0.0006755240005062654,-0.12597964151342297
0.36,-0.03886082167951473,-0.04744028422770653,-0.008594817365745477,0.042876685998112535,-0.015350426848138534,-0.02752625913161404,0.027589125410119587,-0.058778032301415005,-0.11660147023443247,-0.09977432221460787,-0.00011988867962814636,-0.12838226290607793
0.362,-0.03933671048038167,-0.04722103196348812,-0.007875516999531495,0.04321180347778711,-0.016155350707126027,-0.027056452760931316,0.02774564123207178,-0.05749513413342661,-0.11542499348268913,-0.09821999007272234,0.00030617356174169556,-0.12683434940028865
0.364,-0.03923551036974604,-0.04890592114198692,-0.00965783265684874,0.04418099400625447,-0.015399965227972127,-0.02878102878365433,0.02906656895355456,-0.05420788367113356,-0.11227072252467374,-0.09432151722476377,0.00021039800220807038,-0.12207633999574533
0.366,-0.03892897463907367,-0.04989226179177221,-0.010962083916866875,0.04449993871278694,-0.014577632853776761,-0.02992230586688589,0.02968796025751353,-0.049959080491641744,-0.1080273615392598,-0.0894436716481698,-6.635558567151133e-05,-0.1171937881775524
0.368,-0.038837797977471174,-0.049697942954114456,-0.01086643350300015,0.04425131158672819,-0.014470984561539014,-0.029780327026019425,0.02929629460926042,-0.047399933845498066,-0.10520079692700625,-0.08437011498280238,7.312909642380591e-05,-0.11510216191204001
0.37,-0.03896133956269422,-0.050278990557184426,-0.011321311060648317,0.04456384200125288,-0.014261924083409837,-0.030301917913941663,0.028771244206053287,-0.047667297802638224,-0.10424993479927792,-0.07995872828394877,0.0014989563799462189,-0.11593754920702709
0.372,-0.03907003841809209,-0.05342602164124084,-0.01435429968566954,0.04623015453946365,-0.01283813416622025,-0.033392020370926805,0.028730324246769707,-0.04913238198113405,-0.10278904780876924,-0.07732906208701078,0.0048705051662277085,-0.11742268397243553
0.374,-0.039054540372756345,-0.05798923604409257,-0.018931894182343114,0.04854404048921903,-0.010583551461917213,-0.03796048902832436,0.0289958042124364,-0.0497621383903396,-0.09964514792856582,-0.07691395063800502,0.009081575446558837,-0.11775354116928993
0.376,-0.03876843122351305,-0.06055553951734469,-0.02178668890903051,0.04968230663399416,-0.009012243654138762,-0.04067006298160804,0.029144919637612763,-0.04951520417413766,-0.09707928631085139,-0.07798021380853427,0.01135730842495182,-0.11713352150290189
0.378,-0.037431868573399,-0.05891181088023748,-0.021481270822730263,0.0481694580603499,-0.008473377810610602,-0.03969608025001842,0.029071454736185297,-0.05026308553146973,-0.09791203041093414,-0.0799493187006241,0.009766803397065463,-0.1166577630551854
0.38,-0.034182905153830115,-0.05401878496425906,-0.019836743248322505,0.04408861988566072,-0.007660502103937631,-0.03642811778089994,0.028955056791431615,-0.053517888291394713,-0.10214290409721022,-0.08312736489621675,0.005057695673919254,-0.11676493694557233
0.382,-0.029981675076812323,-0.04912403536270582,-0.019142047708390945,0.039548316212209444,-0.005914854380655461,-0.03363346183100847,0.02893954975129548,-0.0580416571071739,-0.10681698510267926,-0.08696360848385076,0.00022174426804220677,-0.11707425494383122
0.384,-0.02764375375719,-0.047100256357363375,-0.01945588209790222,0.03737650848583502,-0.004598431510888427,-0.03277807697513523,0.02899565468103959,-0.06074982653193433,-0.10886108032741636,-0.0896025662595989,-0.0018743101573244852,-0.11738289674472024
0.386,-0.029199187321886436,-0.047974704371804934,-0.018775391244980132,0.038591573866216325,-0.005716751722682133,-0.03287482214392201,0.029030912899710336,-0.06040377686945518,-0.10803393901673806,-0.09080422754571504,-0.001066468907128089,-0.11857007208199341
0.388,-0.033925480521963786,-0.0494414706863981,-0.015516268695690238,0.0416832285435408,-0.009704470870288058,-0.031978757673335044,0.02901713648719468,-0.058819851565818426,-0.10657321634574848,-0.092763322629677,0.00040792495170061203,-0.12173545182740028
0.39,-0.03878877952651133,-0.049742238155755396,-0.010953660325712638,0.044262865216756014,-0.014414846331272662,-0.029848018885311026,0.028991315327558043,-0.058176270234766674,-0.10625725574247817,-0.09634631652729349,0.0007486842348129341,-0.1259782805041723
0.392,-0.04088851800613307,-0.04933726644510812,-0.008448692779250637,0.04511176431769277,-0.016718690308642675,-0.028393074008922853,0.028986499978208322,-0.05848144615299086,-0.10709369741311354,-0.09927997105782507,-8.01402977413086e-05,-0.12860107194668038
0.394,-0.0400675122479971,-0.05018900935870489,-0.01012136045410793,0.045129164741553075,-0.015473972752794156,-0.029655191988792184,0.028998291104263066,-0.05776892568253452,-0.10887315567169913,-0.09955372678864449,-0.0018694011968898735,-0.12836736553335018
0.396,-0.038584819846087415,-0.053579598111278534,-0.014994743365323474,0.046083256274536764,-0.012296133667889907,-0.03378712260673219,0.02900655101904342,-0.05449922946357107,-0.11203688428722802,-0.098146595300435,-0.005042362542022184,-0.1268836256931846
0.398,-0.03824728090954759,-0.058111546583914,-0.01986432358097106,0.048179420692197175,-0.009691512465074027,-0.03848790822714576,0.029004061707996753,-0.04994904989712193,-0.11595705902653757,-0.09725071989270626,-0.008961748027517143,-0.12622659105395917
0.4,-0.038643379950138855,-0.06074953061008006,-0.022084257744290396,0.04969588706381929,-0.008768009637295432,-0.040927877426488096,0.028998365049163505,-0.047455789307262096,-0.11842665664996908,-0.09755833341574419,-0.01142593143624723,-0.1264706766642082
0.402,-0.037807466015278755,-0.060365495851635136,-0.022404765158120926,0.04908620573194186,-0.008124426459222378,-0.040961779272690055,0.028997002488979972,-0.049127266163793724,-0.11829568733292141,-0.09819283748774188,-0.011292787601837388,-0.12573632101449278
0.404,-0.03442928005380602,-0.058801728495319776,-0.023891744068987936,0.04661568291213508,-0.005528606674446571,-0.04108707623769396,0.02899946045543553,-0.053993691513285945,-0.11694455991217066,-0.0983318393924366,-0.009943569336710506,-0.12248953340275272
0.406,-0.029894617583477393,-0.05818850461494246,-0.027390598145411917,0.0440417966101848,-0.0013006155945843399,-0.042741181015619134,0.029001378095672565,-0.05886059827466545,-0.11629480260086643,-0.09805347832098951,-0.009295910728998682,-0.11796221176039426
0.408,-0.027467964917895594,-0.05891403290423692,-0.030309199199065634,0.04320198372766298,0.0015000059399857748,-0.044701989667654714,0.029000952696032475,-0.06088559576791338,-0.11668939898443786,-0.09784469382490514,-0.009909864831230429,-0.11546736746525713
0.41,-0.029162786211227594,-0.060681616806933,-0.030538949838125426,0.04499870784612549,0.0007547791319197436,-0.045753486978037904,0.02899970300086311,-0.060026923909119304,-0.11723132893926713,-0.09789669013156725,-0.011763789055441861,-0.11712561376449612
0.412,-0.034004012765417445,-0.06362385819771676,-0.029113168228370213,0.04905420654906265,-0.0024516763016171417,-0.046602530247438774,0.028999338228504486,-0.05856702791486657,-0.11727871211711081,-0.09803539618019949,-0.01508482812791613,-0.12198658376159902
0.414,-0.038846144046443175,-0.06710699578109781,-0.028239990324124886,0.05342824437229946,-0.005341043353940734,-0.04808720101835951,0.028999845981039826,-0.05826093261893465,-0.11700710781219081,-0.09807327425830493,-0.019039655424067003,-0.1268581049777918
0.416,-0.040873059124147106,-0.06905890375401927,-0.028374398128987885,0.05553447443817171,-0.0062752228558485956,-0.04925925158232717,0.02880283099004722,-0.05896676488158517,-0.11707093615958813,-0.09821313735523823,-0.021439967305168128,-0.1291076799066858
0.418,-0.04002882375680326,-0.06774872523164543,-0.02782636797889966,0.054378726486028095,-0.006164521921546769,-0.04821420456448284,0.027620922938684934,-0.06006304189509126,-0.11845781887426163,-0.09934680162031348,-0.021256976640709087,-0.12956212232439512
0.42,-0.03857477692949196,-0.06362091452880286,-0.02500464637578971,0.05135115789576257,-0.007010954329450343,-0.04434020356631072,0.024673878807609947,-0.062025984535795636,-0.12185205292653672,-0.10230199091990114,-0.019918804903630696,-0.13137356869229405
0.422,-0.038263597179758184,-0.059255102545704284,-0.02091640163291865,0.04876976160353292,-0.00912560179948568,-0.03964415980404568,0.020870337761879937,-0.06581555340438679,-0.12609521144940117,-0.10613574986800754,-0.0193036248648756,-0.13529218875839932
0.424,-0.03887605031984954,-0.0573897537672078,-0.018500046772190873,0.04810444952395636,-0.010819337614766982,-0.03728511190918945,0.018570575532611572,-0.0711607889583046,-0.12859328771694392,-0.10866489687921183,-0.019488271606980963,-0.13824718886492743
0.426,-0.03933745614871518,-0.05872727862763236,-0.01942376407528562,0.04938406415619231,-0.010778723032185784,-0.038605341124007396,0.018801737612301556,-0.07621180596846792,-0.12829983673758946,-0.10973517293782753,-0.01870268679821127,-0.13713977942696207
0.428,-0.03922755591308786,-0.062154863725851085,-0.022950845559030788,0.051825692594588434,-0.009262438810326946,-0.04256325378426186,0.020113898632939553,-0.07899668056884669,-0.12685561937947007,-0.11168615365651721,-0.015463866432560397,-0.1322946698553189
0.43,-0.03892476822805302,-0.06658049366915497,-0.02764846891210213,0.05462661960078231,-0.007030126451435919,-0.04759649314934609,0.020682780909270976,-0.07914596029413123,-0.12625006595559418,-0.11534444162280115,-0.010968306894639054,-0.12713162704406894
0.432,-0.03884012969884633,-0.0714594185528771,-0.03260300234937867,0.05719340756403599,-0.00448157803657388,-0.052711829527461763,0.02026758799658227,-0.07809067970268951,-0.12671656939895332,-0.11832160492495844,-0.008484285866457473,-0.12495356970097143
0.434,-0.038964748857301994,-0.07594163589039091,-0.03697307335722121,0.05899512530554958,-0.001936659240953825,-0.05705846606459575,0.019759844067076517,-0.0774801793851337,-0.12726872021575883,-0.11857513926145531,-0.010130368637034686,-0.125900552119667
0.436,-0.03907039440912424,-0.07870582253720651,-0.03964249316641651,0.0596443777245614,-9.939546658587362e-06,-0.059634438177902996,0.019740416735861195,-0.07771131235037583,-0.1272817442073017,-0.11713422465698764,-0.014979622178475966,-0.12748608970153766
0.438,-0.039052849881958146,-0.07915427092171425,-0.04010687572948027,0.05934703387779275,0.0007122037118159119,-0.06005923758960875,0.02000686848098164,-0.0781406472054465,-0.12698815071991004,-0.11623310300867419,-0.019852184901286304,-0.12780400567940994
0.44,-0.03876742947989994,-0.07803376118663091,-0.039265081365045314,0.058644702974040216,0.0004918945270056008,-0.05913659750104575,0.01992532505122027,-0.07844110885310114,-0.12706022656461394,-0.11677604195573874,-0.02197701352918604,-0.12723271979574122
0.442,-0.03743231262602861,-0.07602064744773912,-0.03858476090605235,0.05722473379504153,0.0006102535643266815,-0.057834987359368116,0.018532773721261674,-0.07956131400157718,-0.12846304873601738,-0.11873419381069322,-0.021755982803357957,-0.1275011838188431
0.444,-0.034183663932536655,-0.07285079014089892,-0.038666101506445984,0.0541488442689266,0.0021318926457591803,-0.05628073691468576,0.015145492710569933,-0.08269974443265737,-0.13186039547461484,-0.12214371062331011,-0.022366731750757957,-0.13003446505225671
0.446,-0.029981795181210264,-0.06904232405306708,-0.039061989797749296,0.050075983248643006,0.004469226717514794,-0.05454520996615784,0.0109087488933797,-0.08696613236744866,-0.13609634224811698,-0.12608392119259512,-0.026150431529108835,-0.13486113646222708
0.448,-0.027643397042397242,-0.06685095645972912,-0.039208816435757854,0.04770686888066439,0.0058075592570922124,-0.05351442813775663,0.008629339323201167,-0.08939537248330369,-0.13858927512424093,-0.12842897531768188,-0.03219835535354414,-0.1403045418208553
0.45,-0.02919895139159267,-0.06826467306287122,-0.039065524828200957,0.04917800693242647,0.004983504987662805,-0.05416151192008927,0.010232099160260143,-0.08784797134241433,-0.13829730300014137,-0.1282275700126338,-0.03758745543039534,-0.1435555589742774
0.452,-0.033925562496312234,-0.07284394057777772,-0.0389175980737159,0.053881036183170875,0.00250645447619246,-0.05638749065936332,0.014949066821895013,-0.08307568643534585,-0.13685659889316432,-0.12691075776971078,-0.0401543492771364,-0.14260524987606799
0.454,-0.03878894743461229,-0.07771423428477539,-0.038925021697777604,0.058779131544003445,4.5663276464550945e-05,-0.058824794820468,0.019782084779322633,-0.07818604169899059,-0.13625191654463825,-0.12631582909024985,-0.04001651529768863,-0.1386718877843601
0.456,-0.040888553472925714,-0.0800071229394229,-0.039118868483732284,0.06099591511721279,-0.0009560592982282122,-0.060039855818984585,0.022069905250004424,-0.07609881903585089,-0.13649752259130468,-0.12649849249021433,-0.03872365950756165,-0.13572494408603827
0.458,-0.04006743755751434,-0.079988409931745,-0.039921259901098176,0.06069517393964097,-0.00039698731672871163,-0.06029818662291226,0.022442788627882213,-0.0769401801748544,-0.1357353233370251,-0.1257009086980616,-0.03694780863773946,-0.13677433262967942
0.46,-0.03858476481476614,-0.0808807574705694,-0.04229596681369767,0.060613490451722665,0.0009932316776322795,-0.06160672212935496,0.02391773810679505,-0.07842576496958278,-0.1324744063998958,-0.12245743933620451,-0.033985203988558074,-0.1412753443006996
0.462,-0.0382472953839122,-0.08502643501576129,-0.04677897037812285,0.06261690799836252,0.002883905427788041,-0.06550081342615056,0.027382263918732472,-0.07875357701206231,-0.1279555307347196,-0.11796620731374237,-0.03014625504931819,-0.14595089702466582
0.464,-0.038862813102647935,-0.09121624909204741,-0.052353369247188045,0.0658987969861762,0.00522838290556115,-0.07112717989173735,0.030093576210166895,-0.07835125344563519,-0.12547243140204722,-0.11537709230561304,-0.02793694029064906,-0.1480699373135873
0.466,-0.039340029624887786,-0.09584459640325264,-0.05650462726433415,0.06828338097534987,0.007257894126553151,-0.075541275101903,0.029155522301464336,-0.07918950241204503,-0.12713167856994154,-0.11647613190694525,-0.030072604573840533,-0.1484881832995555
0.468,-0.03923600900883669,-0.0958793796786334,-0.05664343598398981,0.06821663272420382,0.0075566841659680545,-0.07577331689017185,0.02479503978192464,-0.08257220058364076,-0.13198671713630972,-0.12045197690869165,-0.037103729011700046,-0.15034852824240771
0.47,-0.038927401481813874,-0.09115305430748256,-0.052225651014701106,0.06579794875281943,0.005488958795860893,-0.07128690754868032,0.020116520013371948,-0.08710774405059599,-0.13685485897900912,-0.12561373722295505,-0.046537770630338676,-0.15431787648029963
0.472,-0.039056170639295944,-0.08464716789268292,-0.04559096074489164,0.06272048206587827,0.002059918246756186,-0.06478040031263446,0.017921629815546906,-0.08975175131642013,-0.13908411703348006,-0.1307806691229025,-0.05440152201472136,-0.15727355919983727
0.474,-0.04049426303146453,-0.08065296588584087,-0.0401586864042065,0.06135091528035033,-0.0011440803569254675,-0.06020683492342486,0.017470800390787078,-0.08936863171390322,-0.1394098630011741,-0.13508190919032823,-0.058488314251754304,-0.15613886650246514
0.476,-0.04387751799606376,-0.08171414138921054,-0.037836635459181776,0.06308552273527238,-0.003416398233410684,-0.05966912450186169,0.01563670246813644,-0.08780201446358249,-0.14089425586716853,-0.13760807486351764,-0.05949954655334249,-0.15127996499402305
0.478,-0.048087486426189124,-0.08619746517551807,-0.038109993489969414,0.06674331932915799,-0.004833448214526045,-0.06190987111463195,0.011697555011943087,-0.08718692989583704,-0.14438901590593278,-0.13803385742149263,-0.05924289077625825,-0.14612507778661019
0.48,-0.050356304766628834,-0.08991504949460889,-0.03955874518420074,0.06934343579955154,-0.005116194695346448,-0.0642272411042051,0.008522482557445418,-0.08749627187950253,-0.1473070726879829,-0.1372485609407721,-0.05892596618815655,-0.1439584420635493
0.482,-0.048763098235275894,-0.0913090983390183,-0.04254599227734723,0.06932847018647627,-0.0030394044795953807,-0.06628906570688088,0.008327521438422792,-0.08677019001011292,-0.14753879756493424,-0.13661619655115143,-0.05888860262257205,-0.14490644815867343
0.484,-0.04405647360554083,-0.09282549337470013,-0.048769015781874044,0.06798656444791719,0.0022422296612130436,-0.07022879410913023,0.009904355506570928,-0.0834917426264469,-0.14611425598103484,-0.1366900050874212,-0.058994882682853945,-0.14648624828808843
0.486,-0.03922318253448114,-0.09610588636611367,-0.05688270619813302,0.06729642021410663,0.00873750890427127,-0.0760339291183779,0.010838434975624294,-0.07894478380236111,-0.14524059299340836,-0.13705627556771316,-0.059053464568363995,-0.14680086496655584
0.488,-0.03712704374872065,-0.09913421805427583,-0.06200717761187997,0.06766959633060678,0.012457278896621859,-0.08012687522722867,0.010456468352991164,-0.07623844112264644,-0.14537409238485696,-0.13719306697316697,-0.059025590063255313,-0.1463408314112929
0.49,-0.03793339289702259,-0.09961567178489136,-0.06168227917569609,0.06822188867395655,0.011932678409495653,-0.08015456708345226,0.009765584675070053,-0.07659801865762433,-0.14482589304807653,-0.13706112600454784,-0.058982720471523274,-0.14715871874516193
0.492,-0.03940712008369508,-0.09825545644381595,-0.05884833469326442,0.0682850200266856,0.00973903974000646,-0.07802405976669209,0.009640222341248388,-0.07818740869520933,-0.14200458637451596,-0.13692409053703158,-0.05897802369998805,-0.1505631846632871
0.494,-0.039748375202465124,-0.09726877320385532,-0.05752039704813417,0.06801515896409199,0.008863081125826153,-0.07687824008991813,0.009955865796943419,-0.07882621780075393,-0.1379166321538473,-0.13693052222309476,-0.05899905977724906,-0.15512023701279604
0.496,-0.03913954753360411,-0.09750753467823782,-0.05836798759894881,0.06785190225299455,0.009593223448657488,-0.07744512570165202,0.00995561953084989,-0.07829638396722319,-0.13560988772914917,-0.13700825439973105,-0.059011556629838154,-0.15754324259874594
0.498,-0.03866346060643676,-0.0981587344868221,-0.05949527461760514,0.0679210448585752,0.010418390412045932,-0.07833943527062114,0.008575071113141002,-0.07769583781882836,-0.13708028533653832,-0.13704184564695793,-0.05900602107945897,-0.15583446058953332
0.5,-0.03876436986248207,-0.09834327847209053,-0.05957890871381466,0.06804310048858529,0.010419911733983885,-0.07846301222256921,0.0051491645712310515,-0.07769425835917235,-0.14147813730016073,-0.13701547671660463,-0.058996563385812835,-0.15098855594860272
0.502,-0.039070874787212634,-0.0980775535775814,-0.059006678437825325,0.06806366507302665,0.00997258455737048,-0.07803624963039715,0.0008874211678655359,-0.07801972840739979,-0.14588550100381178,-0.1369845557949692,-0.05899507216127257,-0.14615180885099577
0.504,-0.03938159166722599,-0.09763055404428261,-0.05824896215179481,0.0680068864420936,0.009429022824106193,-0.0774359092661998,-0.0016022477142850614,-0.07839542527808091,-0.1477111050400241,-0.13718163421662602,-0.058999522234528215,-0.14434941470155654
0.506,-0.04057129333578531,-0.09635350829892653,-0.05578221504793498,0.0679685462087572,0.007600678460725294,-0.0755692246694825,-0.0012946387137614435,-0.07960581212422424,-0.14692496902240235,-0.1383801694055588,-0.059002461301570594,-0.14650631729563776
0.508,-0.043736747376325685,-0.0932207066455088,-0.04948395943261587,0.06798121831904565,0.0028738661147092075,-0.07085508443375488,0.00015175316485547315,-0.08274568556293585,-0.14560299969231968,-0.1413351206762187,-0.05900143639706727,-0.15123152378706883
0.51,-0.047978232862632565,-0.08904248259561914,-0.04106424976477709,0.06800819402023546,-0.0034542574560817397,-0.06455393656415373,0.0007506188909041892,-0.08696366441694026,-0.1453309378584666,-0.14513336473547978,-0.058999342882702505,-0.15576757559772964
0.512,-0.05060034217921608,-0.08654246903966291,-0.035942126786442666,0.06812386159629069,-0.0073827927360341945,-0.06074106886025647,0.0004991305576880571,-0.08936910954314774,-0.14611263605615893,-0.14742628174103334,-0.05919635882309004,-0.1577116195416979
0.514,-0.05036704295553639,-0.0875134437565516,-0.03714640074831795,0.06876857050066765,-0.006939546580863801,-0.06182902391980383,0.0012616943771546613,-0.08783678573384114,-0.1478419923811125,-0.14719474070960287,-0.06037913272713897,-0.15699464394172077
0.516,-0.04888386986347231,-0.09135762219496966,-0.04249569196740051,0.07050643651528245,-0.004068567993218957,-0.0664378685220635,0.004525995551759428,-0.08308468182343605,-0.15101166427828686,-0.14588613428129502,-0.06332658992074701,-0.15564653945676196
0.518,-0.04822688372129664,-0.09640554218910319,-0.04833191388996738,0.07327825491440357,-0.0013322935248158037,-0.07194596138958778,0.00904628876236429,-0.07819644312551952,-0.15496201921196098,-0.14531915667484807,-0.06712985575089339,-0.1553165159014211
0.52,-0.04869007941562457,-0.10111581695155684,-0.05288447237023042,0.07608928463558103,0.0006403848694406314,-0.07672966950502166,0.011747614541921275,-0.07609887772951969,-0.1572233928132577,-0.14573331953767507,-0.06942926110370692,-0.15586216227427674
0.522,-0.04926871828648327,-0.10383565493695976,-0.055316960911394646,0.077418988731035,0.002032076008012855,-0.07945106473904785,0.0114001926994458,-0.07693453163437315,-0.15576813226065367,-0.14623953203608836,-0.06919807875175321,-0.15630194415099785
0.524,-0.049296199496411036,-0.10313328765421943,-0.054515234033337114,0.07632815384816827,0.0023349720690953543,-0.0786631259172636,0.009819346704520095,-0.07842303486952104,-0.151131399331602,-0.1462587899942048,-0.06788610280381835,-0.1562181730216172
0.526,-0.04899505640701287,-0.09975619650226275,-0.05099100730905274,0.07376862059651818,0.0012199549603502768,-0.07498857555686843,0.009177985050555615,-0.07875535553676848,-0.1462562133320033,-0.14599309308489714,-0.06731731999142021,-0.1559396662758062
0.528,-0.04883624030139628,-0.09681915075743702,-0.04781144039712054,0.07199294163712551,-0.0002632485255665883,-0.07172969311155893,0.009482540757527129,-0.07835359285835976,-0.144101930189317,-0.1458556932895558,-0.06773245941504563,-0.15585236624983875
0.53,-0.04892453381750138,-0.09649586922781692,-0.04736232309578836,0.0720886178278687,-0.0007639863567398134,-0.07132463147112891,0.008768512710653499,-0.07918964926183669,-0.14490337224163527,-0.14593489140245114,-0.06824012351545532,-0.15596246346620626
0.532,-0.04905330858733391,-0.09784152327142427,-0.04877112889085644,0.07305947983637237,-0.00026174918825851265,-0.0727977306481139,0.005498434854361583,-0.08257099405361507,-0.1464064861318881,-0.14604764119954983,-0.0682595419061496,-0.1560626250054715
0.534,-0.0490666351498753,-0.09871501007877695,-0.04975092316877446,0.0735091161848152,0.00027507683534517386,-0.0737841930201604,0.0009488957166240613,-0.08710708760583483,-0.1467644554570917,-0.14605827688006143,-0.06799312945514546,-0.15605038598224735
0.536,-0.048783338176197406,-0.09842876782242198,-0.04970400910750358,0.07310250988760138,0.0004931741829622308,-0.0735956840705636,-0.0017632469079007164,-0.08953269998711567,-0.14636697048017944,-0.14600183508878398,-0.06785530032609528,-0.15598988873927228
0.538,-0.04743238852275225,-0.09781883958948633,-0.05035900640174528,0.07205996465542965,0.0015152648577499612,-0.07357522951317959,-0.0014050316059028845,-0.08783660082225496,-0.14719107308479454,-0.14596907406982135,-0.06793468385348472,-0.15596767417673238
0.54,-0.044175018433874794,-0.09768086673732115,-0.05346092410776309,0.07039858361417668,0.00464986028478842,-0.0750484438989651,0.00018687291999367958,-0.08299533159402984,-0.15056437366516487,-0.14598422712507875,-0.06804775651211795,-0.15599007792032246
0.542,-0.03997762420066141,-0.09794636187563771,-0.057962240156610584,0.0684837408887605,0.008967300674879329,-0.07745104156363986,0.0008276264851470521,-0.07815387729383728,-0.15510314833388947,-0.1460093431087124,-0.06805844522397025,-0.1560129017321908
0.544,-0.037646122805040004,-0.09814833425120756,-0.06052359838444268,0.06742361063941489,0.011423038269218554,-0.07884664890863348,0.00029734921708248873,-0.07612730886747619,-0.15775382748338165,-0.14623246658230618,-0.0680018525702986,-0.1562309734557882
0.546,-0.0392025295666583,-0.09810006162271902,-0.058911286657264264,0.0681520263254886,0.009860525754602872,-0.07801255208009149,-0.00030446987689124514,-0.0769713403702636,-0.1573721313949674,-0.14753369821300916,-0.06796899055075413,-0.1575310429874203
0.548,-0.043925784116394175,-0.09796685016637555,-0.05403596561411973,0.0704322715853281,0.005066592329005925,-0.07549886391433402,-0.00030641537251296897,-0.07842510064497618,-0.1558025530901747,-0.15080015825309903,-0.06798417769172745,-0.1607997048055099
0.55,-0.04878710059888497,-0.0979295696570768,-0.04913252782954435,0.07285122870738693,0.00017485205414022754,-0.07302608076152715,1.957451297242708e-05,-0.07873625477513509,-0.1551852773157949,-0.15502902619325554,-0.06800936507493846,-0.1650302586205958
0.552,-0.050887550379771426,-0.09818190864049958,-0.047314333135287406,0.07404996998329846,-0.0017918638070942192,-0.07225810617620425,0.00017632323387776615,-0.07812394577616574,-0.15549518857565695,-0.15737060041508566,-0.06781565125843043,-0.16737143654693842
0.554,-0.05006796628660225,-0.09941030710907242,-0.049500082844434766,0.07432168229741053,-0.00028761877277851784,-0.07403406352463203,7.348275485698212e-05,-0.07766262277819438,-0.15477057441632303,-0.15580182905853962,-0.06662185178630062,-0.1658015558765905
0.556,-0.04858556477606324,-0.10234936584407489,-0.05424769072659271,0.07520829858996587,0.00283217452088755,-0.07804047311085344,-6.111219964778894e-05,-0.07777248391722273,-0.1514925174240767,-0.15106717154592145,-0.06366732615259929,-0.16106658476260094
0.558,-0.04824738894945352,-0.1061237220664523,-0.05877870006596,0.07713420274052706,0.005268193142531729,-0.08240239588305878,-6.928017801370436e-05,-0.0780752077248302,-0.1469449441087162,-0.14620715603791654,-0.05986670096272578,-0.15620702483981572
0.56,-0.04886242123714378,-0.10841390198502218,-0.060708110506268495,0.07871587164582745,0.005923450122261205,-0.08463932176808868,2.608210116143803e-07,-0.07815983707860444,-0.14445749107549521,-0.14433294674279318,-0.05776987092204515,-0.1543332042967327
0.562,-0.04933979138756177,-0.10819408971247671,-0.059986896951592754,0.0788343350441974,0.005322457175863122,-0.08415679222006058,3.793174314148466e-05,-0.07803524839686111,-0.1461303196461691,-0.14646824771978617,-0.05918389908693024,-0.15646844233951793
0.564,-0.04923610906378295,-0.10689257925492439,-0.05864475403402429,0.07805933927666074,0.004703468735066619,-0.08276280801172739,1.7975393103058585e-05,-0.07792962240963339,-0.15099422132902424,-0.15122232717505846,-0.06344033269512937,-0.16122227958291283
0.566,-0.04892757928519998,-0.10632259040996664,-0.05831989079955395,0.07758733455208895,0.004696345857457554,-0.0822836804095465,-1.2114311652884932e-05,-0.07794715965006892,-0.15585918498709903,-0.1557839583528269,-0.06781090935483308,-0.16578382941168618
0.568,-0.048836804758730354,-0.1067314425041813,-0.058864748657322934,0.07776862266057469,0.005014528662971866,-0.08278315132354656,0.0002038001910239187,-0.07779377348096084,-0.15788463157155214,-0.15772446361320236,-0.06949865251408653,-0.16772442799599457
0.57,-0.04896162662416879,-0.10723676159259783,-0.05930133778852662,0.07811213349846857,0.0051700177569563716,-0.08328215125542499,0.0015317154381353972,-0.07650257224008511,-0.15702723462010632,-0.15699183849627873,-0.06757921350994364,-0.16699189184973628
0.572,-0.04907071755700252,-0.10725849101967178,-0.0592164719401259,0.07817917979255576,0.005072650843473671,-0.08325183063602946,0.004814855098053412,-0.07320284613001331,-0.15556770251189034,-0.15563819010855795,-0.06330113477833917,-0.16563823503023234
0.574,-0.04905470811055919,-0.10699446217394232,-0.058939184652250017,0.07802449693154988,0.004942041652040962,-0.08296653858359085,0.009037128254522133,-0.06895261512883435,-0.15526108528119334,-0.1553140587942091,-0.05919467730301315,-0.16531405113503553
0.576,-0.048987536929221726,-0.10685651039885347,-0.05885306451988357,0.07791403956751981,0.004932793402850176,-0.08284683297037002,0.011585846196939593,-0.0663995947423486,-0.15587871117536317,-0.15564614885361278,-0.057447426476865,-0.16586551688725154
0.578,-0.04896419213704911,-0.10693453455479014,-0.058963059831431394,0.07794560067201517,0.004999555288830448,-0.08294515596084565,0.011327978965459805,-0.06667066413041424,-0.1563400979208548,-0.15477234699451362,-0.05810694877206017,-0.16630489157857126
0.58,-0.048989698145116306,-0.10704702483396385,-0.0590625287999238,0.07802092073220529,0.005036457177068953,-0.08305737790927424,0.009873122111218612,-0.06813417498053129,-0.15622736567717366,-0.15141099477958697,-0.05932574304354469,-0.16621775018385807
0.582,-0.049014620561048494,-0.1070581772101857,-0.05905001457880019,0.07803967411863547,0.005017650725034109,-0.08305732484366954,0.009243068241885755,-0.06876115774127169,-0.15592323568425248,-0.146905048910698,-0.0596176180289791,-0.16593785582532747
0.584,-0.04901260550790428,-0.10700212384606347,-0.058989763838253384,0.07800753234551096,0.004988534219138549,-0.08299606656464949,0.00970367529286759,-0.06829436107383931,-0.155839501488151,-0.14448292615755132,-0.05912107657359636,-0.16585173223194213
0.586,-0.048998042273898874,-0.1069692663882893,-0.05896781720068512,0.07798194708013946,0.004984891252876059,-0.08296683833301555,0.010266380125833498,-0.06773037571761678,-0.1559652851343536,-0.14616423987441046,-0.05872547343341933,-0.16596314862957423
0.588,-0.04899218575870669,-0.10698416140533294,-0.05899021439779429,0.07798726663227111,0.004999040657708205,-0.08298630728997934,0.010287663071097932,-0.06771185894260302,-0.15607099339364383,-0.15099654241266622,-0.05880394273964074,-0.1660632982753759
0.59,-0.04899733586894894,-0.10700920676469017,-0.059012888869800904,0.07800376979995848,0.005007787012966744,-0.08301155681292523,0.009992254933320583,-0.06800928716616751,-0.15605284333088265,-0.1558417825006681,-0.0590559582934846,-0.1660503336632063
0.592,-0.04900299187997815,-0.10690334301140378,-0.058901798522740835,0.07800874954218397,0.004894544917675056,-0.08290329445985901,0.009620164484779568,-0.06816143674779286,-0.1559864956778139,-0.15787505255787693,-0.05933095600903225,-0.16620889253663254
0.594,-0.049002882964372343,-0.10614716936788354,-0.05812248260142662,0.07789242387657007,0.0042315002009510145,-0.08212392407752107,0.00839509478610988,-0.06807198622460417,-0.15596471243209656,-0.157032156127355,-0.06041247704581332,-0.1675000691535239
0.596,-0.04899974432293873,-0.10386736674658056,-0.05571364203626356,0.07722996181168829,0.002483552384701628,-0.0797135141963899,0.005246239925435182,-0.06794629688267634,-0.15599051490170238,-0.155575280788837,-0.06326907557234887,-0.17079696063619826
0.598,-0.048998304573698255,-0.0996811468745847,-0.0512017474352981,0.07548397507037231,-0.00028307534554218637,-0.0752008997248301,0.0010319838336900772,-0.06793507549520894,-0.15601472675159228,-0.15526201929821637,-0.06708419751612986,-0.17504585110198911
0.6,-0.04899932970046024,-0.09453459191752712,-0.0456321773894265,0.07282766419028147,-0.003195821948610435,-0.069631842241671,-0.0013667817265320204,-0.06799829801892972,-0.15601221050721203,-0.1558750216693993,-0.06943884134684973,-0.17738038189077457
0.602,-0.04900060506189274,-0.09065809495635115,-0.04149899205715734,0.07057072175727232,-0.005071427169670538,-0.06549929458760176,0.00016670101016534293,-0.0680346172087314,-0.15599779564927713,-0.15633782589566883,-0.06922757095737272,-0.17579731945587357
0.604,-0.049000654808790976,-0.09047799470710831,-0.04136618036140746,0.07033150415312069,-0.004964996388656795,-0.0653665077644639,0.004915713292589354,-0.06801746333687177,-0.1559922835183664,-0.15622829388302198,-0.06789496123654166,-0.1710596795289143
0.606,-0.0489999825761626,-0.09461119775799044,-0.04577696709888987,0.0725510457365848,-0.0027740873499793334,-0.0697769583866055,0.009801842805979417,-0.06798944992100873,-0.15599751715312332,-0.15592491894338137,-0.06730545658494841,-0.16620603843742512
0.608,-0.04878023812611159,-0.1010676317998754,-0.05282189472488039,0.07591038669486701,0.0008235667143137201,-0.07673395340918077,0.011680691706559198,-0.06778797400217253,-0.1560030251215037,-0.15583979896134287,-0.06772195858078907,-0.16433650148517617
0.61,-0.04746728098465107,-0.10743731279649615,-0.06074982782544669,0.07839415788605503,0.005742565818317737,-0.08413672370437277,0.00953335584584788,-0.06661949982573526,-0.15600279991134497,-0.15596450863008604,-0.0682415819028209,-0.166470555560284
0.612,-0.0441933762055969,-0.11283860766188633,-0.06929676598775195,0.07897718459527164,0.012396943941279354,-0.091374128536551,0.004770995951324087,-0.06368130686019828,-0.15599968651158821,-0.1560704601546149,-0.0682659690659781,-0.17122148962019323
0.614,-0.03996735114067485,-0.11682073565492046,-0.07705442214986437,0.07829101093026847,0.019150366452100703,-0.09744137738236917,0.0002119773052312755,-0.059874662430805733,-0.1559983222838042,-0.1560530123831984,-0.06799540354108659,-0.17578229884832208
0.616,-0.037411801392021646,-0.11826146281681996,-0.08067892109718375,0.07754861230639219,0.022495029820536045,-0.10004364212692822,-0.0017227612387068542,-0.05756858756866381,-0.15599936970877873,-0.15598686742743054,-0.06807227530891183,-0.1775047318092803
0.618,-0.03766845288358606,-0.11637693975836154,-0.07851553163241681,0.07692383607962867,0.021059068868386776,-0.09798290494801543,-0.00098880734262091,-0.0577984279789738,-0.15600061450723926,-0.15596479774428523,-0.06946484018371474,-0.17546002996570387
0.62,-0.03912645731008898,-0.11193289593944071,-0.072796618683352,0.07563228846764128,0.01721490913787456,-0.09284719760551582,0.00036232871091033513,-0.059113402649150486,-0.1560006374869336,-0.15599035277904322,-0.07285467709926155,-0.17083198480167394
0.622,-0.039758678089920264,-0.10737015015149994,-0.06770872936101834,0.07366716493541825,0.014345038027344792,-0.08801220296276305,0.0006845348511054128,-0.05968435014437646,-0.15599996914774894,-0.15601460275607987,-0.0770926343648358,-0.1662811129546756
0.624,-0.039516784577346184,-0.1050643511894681,-0.06559965484887488,0.07227357414632436,0.013532797847428208,-0.08580637199375254,0.00013350005558591753,-0.05926860821914643,-0.1559996373717918,-0.15579284354739412,-0.0795906249343954,-0.1642769762201084
0.626,-0.0402657287853983,-0.10453787006734595,-0.06424448368966611,0.07226656272201608,0.012484212773668788,-0.08475077549568484,-0.00030458948018121247,-0.058759475013064735,-0.1559998436256981,-0.15446532342516683,-0.07929997115696338,-0.16497333896519883
0.628,-0.04351828839128999,-0.10299999371532732,-0.05944022177039649,0.07299409950029162,0.008253435957535046,-0.08124753545782665,-0.00021706940790334008,-0.058739683696208,-0.15600012320173642,-0.15118556209116046,-0.07785713667324157,-0.1663443915379601
0.63,-0.04804040573144971,-0.09958912900838664,-0.051543985342167205,0.07338326829630668,0.0017768783819191022,-0.07516014667822575,6.230448842208059e-05,-0.05900671974247101,-0.156000144185,-0.14696468697929088,-0.07725071733174323,-0.16669662482456743
0.632,-0.050749010462498065,-0.0969376709276133,-0.04623094984827131,0.07329798683255163,-0.0023674323453090535,-0.07093055448724259,0.000367369034258862,-0.05914505024927553,-0.15600000163659336,-0.1444147931882824,-0.07749665630582037,-0.16614906358856513
0.634,-0.05040406997490707,-0.09787500267356412,-0.04763648703163234,0.07364962689469819,-0.0014515111342651523,-0.07219811576043308,0.0015691768650028292,-0.059065565896891326,-0.15599992209661037,-0.1446713358245238,-0.07673556399265336,-0.16569624670935168
0.636,-0.04882043691715739,-0.102202482107502,-0.05385748991391793,0.07524554221505361,0.0025401225708935543,-0.07778566478594723,0.004743498060969664,-0.058952171465187594,-0.15599996189594698,-0.14612620166752058,-0.07347499410285198,-0.16577483661459724
0.638,-0.048176389876148966,-0.10686563749526183,-0.05958331868352696,0.07750455852352052,0.0057493157574981454,-0.0832538742810187,0.008982612365061638,-0.0589413840794427,-0.1560000243131133,-0.14675698269288298,-0.06895568012227789,-0.16605798203507666
0.64,-0.04870058006727917,-0.10885180438316014,-0.061308500402645696,0.07887445582392844,0.0063142763796404325,-0.08518873220356887,0.011598750062233527,-0.058998105200125446,-0.15621942861442945,-0.1462967180660765,-0.06647218203440014,-0.16615032526035514
0.642,-0.04930128896748542,-0.10800295850862374,-0.059839104090321886,0.07871054891250244,0.005249070849491926,-0.08395961976199437,0.011363892476479894,-0.05903108243119476,-0.1575325560727391,-0.1457337799676529,-0.06813147793400161,-0.1660401055182568
0.644,-0.049306026033846574,-0.10656348102944287,-0.05824769596459019,0.07791431211793655,0.00445579442396646,-0.08237010654190303,0.009883233877562299,-0.05901588021411296,-0.16080672783154468,-0.14571219873317284,-0.07298675738734356,-0.16593713326225948
0.646,-0.048981975414039466,-0.1062695124856842,-0.058210712488247815,0.07758550403398319,0.004617998651897021,-0.08220350268588023,0.0092282992295242,-0.05899062275611147,-0.1650327874747437,-0.14600759169008154,-0.07785498769682361,-0.16594809659840465
0.648,-0.04882462956735341,-0.10710486464674342,-0.0592265242772487,0.07795646880678057,0.005221846844015464,-0.083178315650796,0.00969110261223334,-0.058767458535364456,-0.16758820804280086,-0.14616044146390325,-0.07988669996403551,-0.1660095183770609
0.65,-0.048926126523886594,-0.1088718009369121,-0.0608186529123444,0.0789167088796345,0.006025649975541838,-0.08494235885517626,0.010268434545379599,-0.05746628464745027,-0.1673314759773362,-0.14607243608333928,-0.07903051315700808,-0.16603287072067666
0.652,-0.049060405603925154,-0.11203014296877693,-0.06351880333752469,0.08055820431026747,0.0074654357300898075,-0.0880236400403572,0.01029550558387013,-0.05419987442515065,-0.1658735035611884,-0.14594705490947518,-0.07756813975059568,-0.1660105059029689
0.654,-0.049069155894893315,-0.11595457831633947,-0.06698205408283445,0.08250837088867248,0.00940462525067633,-0.09191299613934878,0.00999487980051111,-0.04997099876911334,-0.16524134204231206,-0.14593519207192746,-0.07725950495626287,-0.16598707977057067
0.656,-0.04900006542032344,-0.1184291506227995,-0.06925401693246575,0.08370589417526167,0.010706969268120016,-0.09441286344338168,0.00983653462871048,-0.04740999746814162,-0.16548324639236697,-0.14621733623634225,-0.07787771771425307,-0.16598809530981978
0.658,-0.04896229191178604,-0.11829823237246564,-0.06919508673387809,0.08362801069583503,0.010685139661028527,-0.09431315035686354,0.009924770782633669,-0.04766560063467403,-0.16473427502080445,-0.14756693645607127,-0.07834048580957892,-0.16600136456441875
0.66,-0.04898195339923761,-0.11694441454321634,-0.06798029532778867,0.08296686327301395,0.009993563669228572,-0.09296042694224246,0.010053261153582665,-0.04912607936318423,-0.1614816965258664,-0.15082429109638854,-0.07822809310896768,-0.16600714846220996
0.662,-0.04901195824526594,-0.11629334427721584,-0.0673639325016037,0.08265563677833994,0.009637213580728214,-0.09229285035906809,0.01006648317551994,-0.04976005410056143,-0.15695958498702448,-0.1550224143679674,-0.07792337146560073,-0.16600266982065376
0.664,-0.04901556032968602,-0.11646938553352387,-0.0675058620485221,0.08274189097526496,0.009718520069310817,-0.09246041104457577,0.010002687677509808,-0.049517648089842,-0.1544703895420809,-0.15757366862976852,-0.07805856557515405,-0.16599737416885682
0.666,-0.04900090654661247,-0.11569927608958047,-0.06682146897069494,0.08234818411127127,0.009347074893792965,-0.09169525900506427,0.00996500301091523,-0.05026539032517015,-0.15612849076557825,-0.15733019202939955,-0.07949760625801264,-0.1659972887756522
0.668,-0.0489919413770072,-0.11247254381136713,-0.06393057663790062,0.08073164922256017,0.007743873454725143,-0.08847552267728534,0.009981817341697997,-0.05351765548524192,-0.16098630875702102,-0.1558808247786135,-0.08287780793175464,-0.1660001379481199
0.67,-0.04899565603840463,-0.1079743129770642,-0.05988370719008523,0.07848574189345231,0.005492186179486059,-0.08397792807293838,0.010010413746669982,-0.05804028812649249,-0.16585640357391598,-0.15524553973531982,-0.08708580043862243,-0.1660015454699754
0.672,-0.048782926658799436,-0.10526302304790512,-0.057634552206794115,0.0770236604372237,0.004349161841202917,-0.08137282227842663,0.009795500635438718,-0.06052990347263143,-0.16788762109252117,-0.15570065228709,-0.08935534122194559,-0.16600066291961296
0.674,-0.04747092626784694,-0.10559364552289717,-0.05911003366237163,0.07653220004343207,0.005825797869163227,-0.0823579979125953,0.008468878636252683,-0.05887171843921004,-0.1670301804612806,-0.15626358742091356,-0.08776355807628825,-0.16599947324771364
0.676,-0.044193650197452,-0.10717190490820902,-0.06347888619157488,0.07568236240591275,0.00989194027871043,-0.08557430268462315,0.005185810219717228,-0.054013631265684404,-0.1655674781555999,-0.15628797884709197,-0.0830572190795971,-0.16599938662356442
0.678,-0.03996549269810363,-0.10782119886793617,-0.06786962425672377,0.07389319433760952,0.014444987657119301,-0.08833818199472881,0.000962865337442235,-0.049143453609712326,-0.16525937050207046,-0.15599392980947685,-0.07822328766776081,-0.16599999447882172
0.68,-0.03741076417430528,-0.10752184363726229,-0.0699225089918762,0.07246645812257423,0.016850298305658772,-0.08931675642823302,-0.0013668161303036553,-0.046892947214680646,-0.16565861833249648,-0.15573049027449773,-0.07612668714355966,-0.1660003320966052
0.682,-0.03766897164703935,-0.10823402687131796,-0.07046236968230722,0.07295165556886567,0.016948173960233803,-0.08989982952909949,0.00020440350427052497,-0.04643732666557391,-0.16480814710295244,-0.15505105941171612,-0.07693316518918326,-0.1660001616405645
0.684,-0.039127271133822285,-0.11150038552254135,-0.07241642081392931,0.07531381883054705,0.017122907997677142,-0.09243672682822421,0.0049337402948435175,-0.04462582588038065,-0.16142128943343845,-0.15279494082303635,-0.07840720592570953,-0.16599989597552678
0.686,-0.039758783715399565,-0.1160491549216278,-0.0763642786091075,0.07790387948007958,0.018765715105954664,-0.09666959458603426,0.00978987825222807,-0.040707822755369674,-0.15689042914186016,-0.14842232170181996,-0.07874854047079012,-0.1659998621011891
0.688,-0.039516390907274324,-0.11865326143033562,-0.07914896517094366,0.07913963749184963,0.020255360631742637,-0.09939499812359226,0.011884535265842548,-0.0377531470304868,-0.15447032495782148,-0.14320036934535854,-0.07835897583570431,-0.1662193871074399
0.69,-0.04026548310472257,-0.11752998311832313,-0.07725240479597502,0.07922605353078599,0.01867124756713109,-0.09789730109791707,0.011065010272660842,-0.038860374731753765,-0.15616619922600394,-0.13986874322396722,-0.07919593960744481,-0.1675326247695565
0.692,-0.04351838587567938,-0.11353437921161652,-0.07014651887351372,0.07939981464464872,0.012875437093873012,-0.09227525173852173,0.0095857982399578,-0.04370522047336847,-0.16100435507931254,-0.1405542529954466,-0.08257106105079184,-0.17080678329623933
0.694,-0.04804058636900652,-0.10839834822509034,-0.060824189990801,0.07959329992946174,0.005262814272008793,-0.08485611420147052,0.009249113630383186,-0.048868236442899615,-0.16584444499251252,-0.144255651582506,-0.08710368681898087,-0.17503277647826493
0.696,-0.05052964733850044,-0.10346308363907505,-0.05369951482302007,0.07844293666215041,0.000123971234601882,-0.0785669078967523,0.009863117632539185,-0.050827028736235194,-0.16787206075424552,-0.14735678025194163,-0.08953103902310515,-0.17736877631501854
0.698,-0.04887143333762612,-0.10012817080125377,-0.051938347726620475,0.07565670211996302,0.00020831627494509924,-0.07586501839490815,0.010339182825546484,-0.04856696595904834,-0.16702927409400334,-0.14758164267135487,-0.08783766334355396,-0.17579891115029128
0.7,-0.04401363486391919,-0.10009557649025448,-0.05630470370302786,0.07299106607197194,0.005175099617734026,-0.07816616568970598,0.010235438342024852,-0.043707203123005314,-0.16557553686894055,-0.14609950311491035,-0.08299674553919192,-0.17106677324713704
0.702,-0.03914361091500799,-0.10401459165116468,-0.06469422744897191,0.07261391844236471,0.012073341840427548,-0.08468726028279228,0.009927591018231149,-0.039163176246147686,-0.1652637144089535,-0.14521453245096125,-0.0781539728288474,-0.16620855815921595
0.704,-0.03733181280243463,-0.11009393433319149,-0.07255446334013771,0.074988792416121,0.016964909560799567,-0.09195370197692057,0.009837176391570536,-0.037508140583184184,-0.16587569159825855,-0.1455697635830867,-0.07634597908427214,-0.16433383383366482
0.706,-0.039502383495016315,-0.11474209654734344,-0.07524809679699702,0.07849875952921931,0.017137934101482035,-0.09563669363070136,0.009961797733380184,-0.0395758734324485,-0.1663372208289298,-0.14621890856591885,-0.07850349532330322,-0.16646790627268682
0.708,-0.04423925055985747,-0.11488188197167458,-0.07089938208729658,0.08086065640960774,0.01246481195905707,-0.09332546836866484,0.01007059647942837,-0.04417813930966705,-0.16622763927420514,-0.14633796474658814,-0.0832320507550528,-0.17122167997504767
0.71,-0.04877341309263709,-0.11023375797814572,-0.06197618516620363,0.08069916278043474,0.005579821427461523,-0.0862789842078963,0.0100545568989918,-0.048704129448437466,-0.1659249364653821,-0.14604203291667767,-0.08776936732265284,-0.17578383555029548
0.712,-0.05071019116773015,-0.10380781059220405,-0.05384091776705707,0.07834047509776283,0.00042450913035854004,-0.07876498422812138,0.010206926984034644,-0.05049105360807585,-0.1658401645661043,-0.14583584572015879,-0.08949279158206665,-0.17772475814812294
0.714,-0.0499907760148032,-0.09996303754447725,-0.05075895984624035,0.07573549047291415,-0.0005974208185826464,-0.0751380696543315,0.011496825579513996,-0.048496154749852735,-0.1659646737007812,-0.14589871512338712,-0.08746138372031041,-0.17699204619849412
0.716,-0.048645471420073284,-0.10111236496130088,-0.053171709624021776,0.07507062460167131,0.0018260035839039667,-0.07689662818557529,0.01479648397556154,-0.043856703946205375,-0.1660703394823778,-0.1460411989036434,-0.08283914749391313,-0.17563812858393912
0.718,-0.04831811656655718,-0.10545070215302052,-0.057886030107927665,0.07663412958254348,0.004917291044609161,-0.08155142062715266,0.019047393516780593,-0.03927320592596808,-0.1660528646606013,-0.1460749425760427,-0.07828379547153722,-0.17531391605873964
0.72,-0.04864411348526561,-0.10890154970747284,-0.06119875640421291,0.07851489100121395,0.0065814549933875385,-0.08509634599460152,0.021600774964277605,-0.03725970960942407,-0.16598686272068022,-0.1460133106689898,-0.07605495248082601,-0.17564611425075347
0.722,-0.047769160369933485,-0.11017037893019528,-0.06335864384805391,0.0789612702160637,0.007957759807311313,-0.08691903002337502,0.02132950774360689,-0.037969406561796544,-0.16596487611174893,-0.14596546028923477,-0.0754380661382685,-0.17477240836036634
0.724,-0.04441058342119937,-0.11175902060014876,-0.0679477515365288,0.07821815884261338,0.011897597331566735,-0.09011575617418009,0.01986570535838947,-0.03935193600342853,-0.16599039278021968,-0.1459762384690737,-0.07353778225604067,-0.1714110429748666
0.726,-0.03990659143878884,-0.11514659973708714,-0.07531764575258001,0.07759659691652655,0.018056865803459388,-0.09565346271998593,0.01923869130638199,-0.03970237447702367,-0.16601457909588066,-0.14600749944215782,-0.06966537657177999,-0.1669050384426268
0.728,-0.03748388744132783,-0.11797043009909466,-0.0802970313601336,0.07768883421011161,0.02198688587555952,-0.09967572008567113,0.019486235918008226,-0.039147692745587194,-0.16601220662329708,-0.14601654934841984,-0.06678092227407649,-0.16426349864925477
0.73,-0.03916385724264606,-0.11708784778314171,-0.0779290113492429,0.0780694824087498,0.019932588186159984,-0.09800207059490978,0.018737149550586685,-0.038692454200059186,-0.16599787437327113,-0.14600381223242737,-0.06789680488181525,-0.16463167677445883
0.732,-0.0439958350518053,-0.11242077515330132,-0.06893963423827885,0.07820220984477312,0.012747454625769289,-0.09094966447054241,0.015481438104799423,-0.038773773205494376,-0.16599232324080082,-0.1459927895601649,-0.07270746335234386,-0.1661898106208975
0.734,-0.04884165343745135,-0.10722005358639117,-0.05937598287344001,0.07805865719350123,0.005255472011088509,-0.08331412920458976,0.010957892852987781,-0.03905954375344472,-0.1659974931652147,-0.1459944754758533,-0.0778494268787218,-0.16680899696921825
0.736,-0.05065598072664529,-0.10492695263713969,-0.05543475052316157,0.07780806802049267,0.002283402107472506,-0.08009147012796519,0.008250326105690504,-0.03937104775662221,-0.16622238819299073,-0.1460012960908711,-0.08003621651014482,-0.16650624381137094
0.738,-0.04849982763838717,-0.10583958877984498,-0.058281559209845034,0.07716246903560574,0.004915501581132718,-0.08207797061673847,0.008596541635868135,-0.04057244062193402,-0.16753535103617861,-0.1460036339458699,-0.07910490855765556,-0.16723323442654303
0.74,-0.04376846695885736,-0.10747150288659502,-0.06417696604486656,0.07560746956147849,0.010478297797043989,-0.08608576735852247,0.0101802172718591,-0.043743049445388024,-0.1708064477480541,-0.14600102846452928,-0.0775220925242024,-0.17050852020081225
0.742,-0.03922906654813949,-0.10783030890759616,-0.06862722160671474,0.07352766050884982,0.01519378408425375,-0.08872144459310355,0.010823588830097545,-0.04798061697337697,-0.17503112841475532,-0.14599850812195234,-0.07719692257895698,-0.17505347294335094
0.744,-0.03750617782028238,-0.10736294175609949,-0.06968850108254382,0.07244042119070708,0.01667295885160047,-0.08911338004230752,0.010299052755458563,-0.05059804177384588,-0.17758756843296175,-0.14599872614024617,-0.07809235266903414,-0.17776058277265078
0.746,-0.03953897868303078,-0.10815321134484607,-0.06851465950673111,0.07385000093947357,0.0150323121725452,-0.08888231311201873,0.009698547269040313,-0.050364643090921424,-0.17733207585236577,-0.14600020568744568,-0.07990491745048581,-0.17740246643581975
0.748,-0.04416158803094227,-0.11154848788198449,-0.06742061189027221,0.07785370492829002,0.01211139114543221,-0.08996509607372219,0.009694096120941211,-0.04888397894162297,-0.17587413914436423,-0.14600079342256092,-0.08305266192085997,-0.175813355695087
0.75,-0.04871635808346813,-0.11611622257150896,-0.06746749176964756,0.08241352205604148,0.009844049504573526,-0.09225757156061495,0.010018172303324125,-0.04822824548512767,-0.17524131826585992,-0.14600026673363892,-0.08694728542179753,-0.17517388258711736
0.752,-0.05072532326550763,-0.11876874167707888,-0.06805774945316274,0.08474643766248979,0.009160834618789113,-0.09390727228127888,0.010394770534719239,-0.04847127413525149,-0.17548288818287286,-0.1459996944174051,-0.08919400652081107,-0.17548385063103103
0.754,-0.05002913950872026,-0.11837212029118956,-0.06831344130750364,0.08420185649724649,0.009656521079702097,-0.09385837757694857,0.011606348585212565,-0.047735703537721136,-0.17473411689569399,-0.14599970847424912,-0.08776214195025674,-0.17477137718812857
0.756,-0.04865553743392994,-0.11679440875771824,-0.06811706819883633,0.08272588358639231,0.010240500861881809,-0.0929663844482741,0.014746299114808313,-0.044488912408144114,-0.17148181647992541,-0.14600002751488048,-0.0831445735542773,-0.17149908825709811
0.758,-0.04830198868745508,-0.11618139319724381,-0.06788508723797017,0.08224145645955763,0.010288368973970091,-0.09252982543352768,0.01896366472365181,-0.039962252110826144,-0.1669597285762129,-0.14600017223501333,-0.07826577394122826,-0.1669476446053581
0.76,-0.04885031291052243,-0.11649777786110761,-0.06768399272265917,0.08267343650805005,0.009899050483879067,-0.09257248699192909,0.021588171066972313,-0.037467725630070475,-0.16447039266641536,-0.1460000672533644,-0.0760993071341289,-0.16445519512260023
0.762,-0.049304212111282227,-0.11577393085516971,-0.066626835441762,0.08253890861260711,0.009083164912158137,-0.09162207352476526,0.021369179564853687,-0.039125762823457436,-0.1661284138979635,-0.145999938131228,-0.07689690194662341,-0.1661277492491392
0.764,-0.04922572280225642,-0.11249270760961087,-0.06374154380003606,0.08085946968880772,0.007520568677276639,-0.08838003836608439,0.019891532489347566,-0.043986459501433935,-0.17098627033581576,-0.14599993374635675,-0.07840482708240336,-0.1709942465217334
0.766,-0.04894203478393646,-0.10794320326475633,-0.05989942103114505,0.07844282946160017,0.005529312461017883,-0.08397214192261808,0.01922937781177777,-0.04885796427938028,-0.17585642717029348,-0.14600000211686245,-0.07876719400564117,-0.17586059974616342
0.768,-0.048849377486506404,-0.1052371595574933,-0.05754753877021665,0.07704323016111955,0.004269114795227277,-0.08131234495634683,0.01968708905502519,-0.05088828430620263,-0.17788765333079104,-0.14580258058109113,-0.07814978773254741,-0.17788529358973115
0.77,-0.04895974331883512,-0.10559826904813696,-0.057774863207301304,0.07727887301971219,0.004339488237016487,-0.08161836125672865,0.02026592884295305,-0.050029645535095875,-0.1770301829829507,-0.14462071812269292,-0.07765808200041259,-0.1770267787692374
0.772,-0.04906295675202425,-0.10718822767541968,-0.05911363414601695,0.07812554954183656,0.005031251182540185,-0.08315680072437674,0.020296499014988513,-0.04856686071438267,-0.17556746176691213,-0.14167391763027948,-0.07775621242590416,-0.17556712349378872
0.774,-0.04905202889047108,-0.10782647234662018,-0.059697320658319356,0.07843930290669214,0.005361199276144342,-0.08380050218283651,0.019996721737920067,-0.048259367500016664,-0.17525936129780129,-0.1378704680785756,-0.07806991358128632,-0.17526105747888066
0.776,-0.048990492440406284,-0.10729605861567527,-0.05927467728082163,0.07814332379076634,0.005157481692147928,-0.0833008054829143,0.0198368723003896,-0.04887835005750424,-0.17587801908660705,-0.13576807317876352,-0.07816618804031024,-0.17587901387913418
0.778,-0.04896706596413292,-0.10669554350149435,-0.0587552955938258,0.07783129925087419,0.0048806838013167285,-0.08271198305219093,0.01992392688492832,-0.049340862864429715,-0.1763407081592943,-0.1371809845831443,-0.07804117110198151,-0.1763402576811262
0.78,-0.04898945795088417,-0.10669429532901835,-0.058734375344239934,0.0778418476833821,0.004857709322681319,-0.08269955700606343,0.020052673786504722,-0.04922792812656132,-0.17622803484945032,-0.1414399216389903,-0.07792898554993881,-0.17622727679492434
0.782,-0.049012937516625374,-0.10701990668205451,-0.05900646499103792,0.07801641125971864,0.004997037188650681,-0.08301344844836935,0.020066663151485004,-0.04892308689334353,-0.1759232222962403,-0.14581230352462665,-0.07794362329260633,-0.17592310604431682
0.784,-0.0490119326732871,-0.10739549025651371,-0.05934528204477875,0.0782037220895785,0.0051858119585859435,-0.08338953404816443,0.020003094183797997,-0.04883912347571824,-0.17583912991038936,-0.1474995427688693,-0.07801182807899239,-0.17583948807013272
0.786,-0.04899863936781993,-0.10860574587284719,-0.060446328988044105,0.07880220361069587,0.005804221672534885,-0.0846064252832307,0.019965098963503833,-0.0489651857735788,-0.17596511495461242,-0.1455788779134236,-0.07803641514829499,-0.1759653494727086
0.788,-0.048992838145008814,-0.11174561845740359,-0.06327742656420546,0.08036922775267069,0.0073799656723671685,-0.08774919342503781,0.019981641333950577,-0.04907115222369358,-0.17607111488512622,-0.14130048864626543,-0.07801093845745233,-0.1760710314476916
0.79,-0.048997321636306095,-0.11596366851858363,-0.06706971251808465,0.0824804888177373,0.009484516530202214,-0.09196500534793951,0.02001027731216453,-0.04905297342030547,-0.1760529942329217,-0.1371945518177894,-0.07798535210543588,-0.17605282639663977
0.792,-0.049002629059272336,-0.1185885443302555,-0.06942736521916656,0.08379558400413335,0.010791647925242683,-0.09458723192937603,0.019795531518377447,-0.04876707493150165,-0.17598650145615857,-0.13544771914758666,-0.07776763782036224,-0.17598646682211083
0.794,-0.049002717428415346,-0.11836935578485988,-0.06922999415483297,0.08368603873751347,0.010681960633758782,-0.0943679993712722,0.01846896784312644,-0.04743207585653725,-0.1759646328413894,-0.1361071570478398,-0.0764692466035288,-0.17596470789044344
0.796,-0.04899986325361724,-0.11689141296319822,-0.06790238148288412,0.0829456405945706,0.009945840679008982,-0.0928914812735795,0.015185835976266559,-0.0441837443237864,-0.17599047373144378,-0.1373256828102284,-0.0732011913779754,-0.17599052847959
0.798,-0.048998451718335806,-0.11622922455217599,-0.06730767850403972,0.08261383815991483,0.009616159247589753,-0.09222999740750452,0.01096282895791005,-0.039981962791106274,-0.17601475052092636,-0.13761747559729906,-0.068970011409191,-0.1760147357156211
0.8,-0.048779938874669866,-0.11646768487116677,-0.06771897048851071,0.08262381052793973,0.00995390432614209,-0.0925777148540818,0.008413756230005016,-0.03764343323068475,-0.1760122443283179,-0.1373184979973458,-0.066628203365855,-0.17620966396534948
0.802,-0.04746797347058522,-0.11573345480869807,-0.06823894207305717,0.08160071348374924,0.010898755014265075,-0.09249946849801433,0.008671854482045886,-0.03919887720847277,-0.17599779883260996,-0.13810483284141556,-0.06819812476448588,-0.17737708773848346
0.804,-0.04419387028330027,-0.11248979703718517,-0.06826633881040027,0.07834183408093877,0.012551028333795825,-0.0908928624147346,0.010127015299073443,-0.043925507313598684,-0.1759922665819344,-0.14113006104817674,-0.07293345920206913,-0.1803183521898486
0.806,-0.039967209233528526,-0.10796390184202577,-0.06799702076797728,0.0739655560966604,0.014514741144880303,-0.08848029724154072,0.010757088284375532,-0.04878896155978391,-0.17599750732613678,-0.14518546507095106,-0.07779317044172947,-0.1841270369586473
0.808,-0.03741146397967322,-0.10524863466248201,-0.06785344980002585,0.07133004935844722,0.01571285303863471,-0.08704290239708193,0.01029632448464807,-0.05088859033437476,-0.17600302967020254,-0.14756285120748766,-0.07988626119476863,-0.18643241021716675
0.81,-0.03766836915900559,-0.10559245446432598,-0.06793167636055941,0.07163041152451993,0.015627858219795104,-0.08725826974431503,0.009733534347865523,-0.05006744745612594,-0.17600280744686841,-0.14723149107954084,-0.07906403804627113,-0.1862011212217395
0.812,-0.039126601452428945,-0.10717918807494704,-0.06804732984407055,0.07315289460613794,0.014962992825861639,-0.08811588743199958,0.009712296198271068,-0.04858474942673303,-0.175999687628636,-0.14582917052998975,-0.07758439197172103,-0.18488583750942428
0.814,-0.039758792630652615,-0.10782532769414176,-0.06805988268300271,0.07379206024384481,0.014653871251422073,-0.08844593149526689,0.01000777228519564,-0.04824728263184159,-0.17599831870505656,-0.14527190267376863,-0.07724897248625583,-0.18431553292542105
0.816,-0.03951676062643803,-0.10751984119581322,-0.06800277202217532,0.07351830103600819,0.014743159856768821,-0.08826146089277702,0.010160474537044974,-0.04864341920228434,-0.17599936738977384,-0.1457418370817412,-0.07786381764773821,-0.18453429400557014
0.818,-0.04026565483758448,-0.10823081719870008,-0.06796864527641845,0.07424823603334516,0.014349753687876266,-0.08859798972122142,0.010072353325918878,-0.04780748382435741,-0.17600061535256156,-0.14626938748531085,-0.07833959421678895,-0.1838614617110002
0.82,-0.043518266140332766,-0.11149994518616319,-0.067983511003464,0.07750910560235837,0.012731706480049579,-0.09024081208240792,0.00994699733121374,-0.04442926713958646,-0.17600063915624087,-0.14626840187163506,-0.07823525283040014,-0.1809341628216346
0.822,-0.04804043545821992,-0.11605069618608899,-0.0680092350523622,0.08204556578477368,0.010484912688188016,-0.09253047847296164,0.00993520973204988,-0.039894601696109325,-0.17599996948378938,-0.14598139133438284,-0.07792727790192533,-0.17686359507304417
0.824,-0.050749036804497896,-0.11876393602794001,-0.06801340956605219,0.08475648643159274,0.009132931220062753,-0.09388941765165544,0.0099979798866991,-0.03724856816992448,-0.17599963662132317,-0.1458448584986952,-0.07783712806809144,-0.17442553194417432
0.826,-0.05040406633469742,-0.11840558347558365,-0.06800136533654928,0.08440482493288347,0.009298725379031397,-0.09370355031191482,0.010034391995178936,-0.037630240761528815,-0.17599984308384808,-0.14593610205442556,-0.07796194552630831,-0.1747361874193577
0.828,-0.048820420802950376,-0.11681301461432089,-0.06799333424253416,0.08281671771349736,0.010086086486936683,-0.09290280420043401,0.010017529374719118,-0.039197272617749426,-0.1760001233524674,-0.1460541322752915,-0.07807069344467515,-0.1761617310338427
0.83,-0.04817638416566836,-0.11617201862692957,-0.06799607097473023,0.08217420138348124,0.01040962515267746,-0.09258382653615865,0.009989604368588305,-0.039813344891603604,-0.17600014455269752,-0.14606071669072265,-0.07805452256085803,-0.17674139010647472
0.832,-0.04870058613353933,-0.11648314643726909,-0.06780430435648908,0.08259186627662861,0.01004098709685316,-0.09263285337348173,0.010204864529483923,-0.03928485222348839,-0.17600000172996844,-0.14580200155731926,-0.07798746145918056,-0.17646693406139524
0.834,-0.04930129498140596,-0.11577205803315535,-0.06662368680833285,0.08253667651008387,0.009084734038124261,-0.09162141054820813,0.011531285900596891,-0.038697354699117385,-0.1759999219405503,-0.14458730877361609,-0.07796425734722184,-0.17710806123846648
0.836,-0.04930602559592483,-0.11249979776093205,-0.06367439493263846,0.08090291168455643,0.007443873279534909,-0.08834678496409139,0.014814069093082043,-0.03870127605021399,-0.17599996177044713,-0.14165827597605965,-0.07798977047882766,-0.1800506099789114
0.838,-0.0489819719229274,-0.10794761195024588,-0.05986907598330417,0.0784647919379839,0.005491834048192975,-0.08395662598617691,0.0190369872241452,-0.039022252642258996,-0.17600002433833328,-0.13788122912512882,-0.07801461952487933,-0.18414576371607178
0.84,-0.04860523193190654,-0.10545479233194517,-0.05798654396966402,0.07703001212924906,0.004622164234886251,-0.08165217636413531,0.021586207774346115,-0.039173405065178864,-0.17600003248807938,-0.13558429264257732,-0.07801256553878037,-0.18638979154704527
0.842,-0.04739357388535486,-0.10712757467491628,-0.06071385611398693,0.07726057427809446,0.006670213454679344,-0.08393078773277378,0.02132822863819888,-0.039070627359865516,-0.17600000223609025,-0.13580234596119614,-0.07799802374791774,-0.18488551123769004
0.844,-0.044253662506792975,-0.1119943829477743,-0.0682473228572381,0.07812402272776948,0.012243528967877042,-0.0903675516956465,0.019873044047373056,-0.038939116420096155,-0.17599998333857675,-0.13710670346282072,-0.07799219872176619,-0.1805057008460471
0.846,-0.04003635925434187,-0.11686076017993678,-0.07684524049290134,0.07844855971848527,0.018894020834594648,-0.0973425805530799,0.019242894702082347,-0.03893238727897735,-0.17599999082130507,-0.13767901211333305,-0.07799735217087603,-0.17612544492359966
0.848,-0.03741186133021782,-0.11866589956393273,-0.08106551511445582,0.07803888044745304,0.022421088450828446,-0.10045996889828146,0.01948423879512814,-0.03900093252668555,-0.1760000047082797,-0.13726971438640118,-0.07800299259242763,-0.17430294320071138
0.85,-0.03763082282446861,-0.11649413839723947,-0.07875687550015317,0.07706248061029998,0.021116246374274766,-0.09817872698457472,0.018733901724077857,-0.03903734261640042,-0.1760000072579601,-0.13676291646731306,-0.07800287440833555,-0.17507576771314642
0.852,-0.03910845097202162,-0.11176033652047829,-0.07269337281808515,0.07543439374577915,0.017271717288778708,-0.09270611103455784,0.015480976641575342,-0.039017327428453145,-0.17600000089738127,-0.13674072386191563,-0.07799973984730663,-0.17638968575582953
0.854,-0.039770612984557405,-0.10722828775886124,-0.06753276219448259,0.0734994503717868,0.014343530895073802,-0.0878429812668606,0.010959444847583752,-0.03898789768513736,-0.1759999964678004,-0.13700533850071256,-0.07799830710512,-0.1766651662589333
0.856,-0.03953231178120148,-0.10529084659200269,-0.0657941254724785,0.07241157918689602,0.01361311151458944,-0.08602469070148548,0.00825131925456583,-0.039204159530765365,-0.17599999782310616,-0.13714382284987064,-0.07799933335206272,-0.17610889098651056
0.858,-0.04026663225228218,-0.10600879148176309,-0.0658614792303574,0.07313771186712074,0.013237763488389391,-0.08637547535551017,0.008596169058527673,-0.04053188053155004,-0.1760000008878,-0.13706573339954306,-0.07800060542464222,-0.17569370535828777
0.86,-0.0435102463747883,-0.10735375566291246,-0.06430065202940721,0.07543200101873684,0.010666631456682472,-0.08609863247541932,0.01017949732401438,-0.04381473785563584,-0.17600000161204366,-0.13695292129410377,-0.07800065298929539,-0.17579541902402668
0.862,-0.04803607138270377,-0.10768175027314925,-0.06055621457809441,0.07785891082781873,0.006304803753992385,-0.08416371458181113,0.010823448267714322,-0.04803698215779616,-0.17600000028550716,-0.13694165082870136,-0.077999981509111,-0.17606922357428856
0.864,-0.050531932650371515,-0.10693939191583965,-0.05756062294564279,0.07872469247277182,0.003426793497254176,-0.08215148597002603,0.010079982300605705,-0.050585840395061935,-0.17599999925664406,-0.13699782341505967,-0.07799963481625512,-0.17634194379232787
0.866,-0.04887498886123879,-0.10531923105533475,-0.05742794594270093,0.07702048226528291,0.0042079989733185075,-0.08122848123860144,0.008166225712869657,-0.05032805592255494,-0.1759999994891246,-0.13703080226392317,-0.07799983565915035,-0.1774104862164666
0.868,-0.04401408602868195,-0.1024565230623329,-0.05894204907101325,0.07299496732249126,0.007473838279395989,-0.08046880560188724,0.004887284851323253,-0.04887316203636235,-0.17600000016164463,-0.1370159001675588,-0.07800012079109277,-0.1802621283496203
0.87,-0.039141886083819126,-0.09893092419368182,-0.05980443968591883,0.06858476530749745,0.01037193618179218,-0.07895670148928961,0.0009852169928271926,-0.04824304531504012,-0.176000000356007,-0.13699078518078248,-0.07800014738107537,-0.1840819655856654
0.872,-0.03711134651056156,-0.09691534056920996,-0.059616688513783676,0.06644490318329094,0.011277883417499265,-0.0777227866007902,-0.001193472141528231,-0.04870364255366853,-0.17578060387495056,-0.13698692143610788,-0.07821940068564315,-0.1864415665171329
0.874,-0.037970259783060234,-0.09821827933189696,-0.060145128627677576,0.0676043238137014,0.011148934139122475,-0.07875325795282387,0.0002749476569290372,-0.04926637699951302,-0.17446744598345426,-0.13699878172651372,-0.07953247557136472,-0.18623009066463017
0.876,-0.03943329553228216,-0.10237738107477812,-0.06298660356717742,0.0706520003930785,0.012002057094633067,-0.08265405748771157,0.004872850301437476,-0.049287679444340295,-0.1711932554203938,-0.1370065553672436,-0.08280670462106879,-0.18489467759769393
0.878,-0.03974075880203837,-0.10676208982388413,-0.06709497392184281,0.07324099686579942,0.014129858662725042,-0.08737085552852447,0.009722307875878355,-0.048992264460183926,-0.16696720340335217,-0.13700379604111088,-0.08703282031962603,-0.18430394604044875
0.88,-0.03934102121071188,-0.10870714682531232,-0.06940046379077999,0.07411836194644372,0.015606830130379973,-0.08972519207682371,0.011885491518660918,-0.04862016010007121,-0.16463119294677045,-0.13699823577931458,-0.08958823639781352,-0.18472139185032418
0.882,-0.040191610158873424,-0.10799042548952495,-0.06791832538680159,0.07414424986129982,0.014356834623000811,-0.08850108448430065,0.011102341113486536,-0.04739508749270156,-0.16620108514652615,-0.13699708572325278,-0.08933147159702523,-0.18524213554066618
0.884,-0.043578791331189505,-0.10663642433348774,-0.06351555003537926,0.07508686099692291,0.010218674000141752,-0.0853055349970647,0.00960310709584759,-0.044246238834541485,-0.17093324175857855,-0.13699957075824476,-0.08787348599492043,-0.18526654279176819
0.886,-0.04810974190363111,-0.10631118197376854,-0.059112241884183216,0.07717291015071598,0.005508297295264725,-0.08268120744598075,0.00923700887045269,-0.040031987292802475,-0.1757914510292488,-0.1370013853594469,-0.08724133604213807,-0.18499537545086844
0.888,-0.050529712667733345,-0.1068655628153542,-0.057488718395129694,0.07869081010924737,0.0033962411076434744,-0.08208705121689086,0.009847889924002425,-0.037633220521055666,-0.17788555857316507,-0.1370008959707934,-0.08770264931956184,-0.1846550960028637
0.89,-0.048833725402509374,-0.10730699974846132,-0.05945669174833533,0.07808733366769784,0.005336745563934405,-0.08342407923163223,0.010338515113482237,-0.03916670019601805,-0.17706464075919293,-0.13699967194177137,-0.08826683536658098,-0.18355284721615284
0.892,-0.04399558838599463,-0.10721885893817173,-0.06372290703940311,0.07561899229076925,0.010125609711779723,-0.08574460200254896,0.010243429526363226,-0.04391571167714701,-0.17558506329741863,-0.1369993543492669,-0.08828844041657058,-0.18072197363638165
0.894,-0.03915556913539928,-0.10693721156590205,-0.06779721195096813,0.07304276180893106,0.01480940810583294,-0.087852169914764,0.00993177242984982,-0.048801842478654836,-0.1752489642336859,-0.13699987063086952,-0.0879923778006062,-0.1769304505494395
0.896,-0.03712797684631904,-0.10685079475010788,-0.0695355792355129,0.07198124254687292,0.01678927727739342,-0.08877051982426634,0.010054208892844942,-0.050680692431795606,-0.17586344734777304,-0.1370002905528763,-0.08783919516426081,-0.17457303999533919
0.898,-0.03797073615615496,-0.10696304685622378,-0.06888936007165118,0.07246498482001151,0.016008880585778172,-0.08847386540578966,0.011490940665459805,-0.048533356370889166,-0.1763394218448628,-0.13700020938371915,-0.08792740700001178,-0.17477011040806
0.9,-0.03942444750759174,-0.10706376253973846,-0.0676817680412571,0.07324763761478138,0.01461096635339384,-0.08785860396817519,0.014877001622951509,-0.04377099580633415,-0.1762353725774516,-0.13699994145165392,-0.08805306843902155,-0.17609744732707722
0.902,-0.03973627253467225,-0.10705061213107453,-0.06738798402504452,0.07339616962928557,0.01429176082727772,-0.08768793045656328,0.019089052870755747,-0.03921197694944887,-0.17592742916705506,-0.1369998577685256,-0.0880649524791447,-0.17669218266381254
0.904,-0.039124310691392605,-0.1069893762242832,-0.06787750029905937,0.0730562182245884,0.01486975218749972,-0.08792597041208816,0.021576730990092472,-0.03749663487736102,-0.17583713497184472,-0.13719742059985113,-0.08800206170190139,-0.17628105662004673
0.906,-0.03866278738990089,-0.10696730588923693,-0.06827078963133647,0.07281325967837121,0.015319078593519705,-0.08813233827189096,0.021295289243637584,-0.03954374666951219,-0.17596186627501087,-0.13837935890520042,-0.08796553934738369,-0.17576114663941467
0.908,-0.03877236340204257,-0.106990181642163,-0.06819504892925454,0.07288076020359237,0.015222215100528317,-0.08810297530412067,0.019862482643830733,-0.04416907329331031,-0.17607065182237552,-0.1413261185179937,-0.08798241513485924,-0.17573368876976353
0.91,-0.03907506032773289,-0.10701315224800126,-0.06794559940509264,0.07304483676815045,0.014932246276551112,-0.0879770830447015,0.0192558258983379,-0.04871733145149583,-0.17605454592904873,-0.14512950715190231,-0.08801040659411127,-0.17600294399335537
0.912,-0.03915983244162104,-0.10701164030908467,-0.06786779488912553,0.07308636487513949,0.014846616212708056,-0.08793298108784753,0.019496179011622223,-0.05072170331596317,-0.17598749533536773,-0.14723189526300054,-0.08801456719620337,-0.17634397490311426
0.914,-0.039035326620016485,-0.10699838253734707,-0.06796658959125496,0.07301675614317914,0.014963766213154478,-0.08798052235633366,0.018732548144119773,-0.05002687923272931,-0.17596426077577781,-0.14581901386021942,-0.0880012789438814,-0.17744762611612716
0.916,-0.03892966230380686,-0.10699287501911778,-0.06805617736757158,0.0729608786560618,0.015066385200351466,-0.0880272638564133,0.015473814038607724,-0.048656433293277505,-0.17598975362946861,-0.14156009483954007,-0.08799266123043975,-0.18027875948131372
0.918,-0.038947136017511604,-0.1069974794075949,-0.06804505568580806,0.07297217514325213,0.015051471116984651,-0.08802364626023676,0.01095676227805336,-0.04830365008431382,-0.17601460960565962,-0.13718770519591478,-0.08799579665396065,-0.18406964131926606
0.92,-0.03901313662846106,-0.1070026842962983,-0.06799086156807052,0.07300805997512169,0.014988355032430086,-0.08799641500755173,0.008253946713088465,-0.04885061759333627,-0.1760125699959058,-0.13530299581762453,-0.08800199719057344,-0.186426603806767
0.922,-0.03903512320730331,-0.10700265771315476,-0.06797104765269996,0.07301903422187193,0.014966349410917009,-0.08798538363278893,0.008598888017560313,-0.04930345098147557,-0.17599803129003444,-0.13604181654656786,-0.08800324783174171,-0.1862296693174212
0.924,-0.039009607249711205,-0.1069998045862144,-0.06799115832652587,0.07300469299380376,0.014990282119237001,-0.0879949751130408,0.010179362182304714,-0.0492251929724533,-0.17599219989193693,-0.13737344059884266,-0.08800046142878173,-0.1849026418432431
0.926,-0.03898542129002511,-0.10699845628358653,-0.06801157679833511,0.07299185415943629,0.01501372222439863,-0.08800557638383497,0.010821899917236349,-0.048942197074483385,-0.1759973486139047,-0.13767593472195244,-0.08799844798609677,-0.18430798013775737
0.928,-0.03898779354469872,-0.10680191269214251,-0.06781289820239939,0.07288384993842392,0.014902159621375812,-0.08778600955979975,0.010079316473583465,-0.04906914035272248,-0.17600299025483385,-0.13712289992456209,-0.08799900686069845,-0.18452151589438123
0.93,-0.039002125496375155,-0.10562124269961351,-0.06661932978675068,0.0722350866488818,0.014231898404319068,-0.08646698505320086,0.008166752648375552,-0.050492383751033085,-0.17600287523289493,-0.13669452016978148,-0.08800037259244983,-0.1838594799408068
0.932,-0.039007676605255934,-0.10267453267952331,-0.06366762391442536,0.07060080007611572,0.012589285168231858,-0.08319008524434758,0.004887899901915561,-0.05386954246927388,-0.17599974151684078,-0.13678816321436327,-0.08800071994983713,-0.1809401895369837
0.934,-0.039002506832390677,-0.09887047558592653,-0.059868219504090915,0.06848485047175776,0.010481090223171775,-0.07896594069492954,0.0009852232136872852,-0.05808470244671982,-0.1759983074525997,-0.13706531314212858,-0.08800014055508937,-0.17686755525900838
0.936,-0.03899700809676057,-0.09676774111797276,-0.05777043376501249,0.06731391599640035,0.00931840385125948,-0.07663231984765984,-0.0011938048175533919,-0.06035932741769388,-0.17599933260693434,-0.13692718282826177,-0.08778027803651232,-0.1742047384188418
0.938,-0.03899720286606327,-0.09818082187578607,-0.05918333922812733,0.06809905840236578,0.01010325410327084,-0.07820231250563661,0.00027478535776920623,-0.05876606130168091,-0.17600060487910035,-0.13550176706618727,-0.08646721383526076,-0.17320080495618861
0.94,-0.03900029668707276,-0.10244002513435971,-0.06343975811936725,0.07046682903349448,0.012466384002885343,-0.08293321303637982,0.004872954327532543,-0.05405623939709822,-0.17600065313534868,-0.13212966889550576,-0.0831933223513339,-0.17135439802720337
