time,I,II,III,aVR,aVL,aVF,V1,V2,V3,V4,V5,V6
0.0,0.0010750414137347445,0.0017112904137002052,0.000636248999965461,-0.0013821961033732427,0.00021939620688464173,0.0011847395171770653,0.0010750414137347445,0.005024173137658295,0.005682361758312221,0.0037516751377273737,0.0047170184480197965,0.0033128827239580897
0.002,0.007290117713747103,0.011624825808229692,0.004334708094482589,-0.00934793463688803,0.0014228557579110963,0.008056394644423811,0.007619212024074066,0.0353148796318779,0.03989060159524968,0.026426067236028077,0.033147364605294646,0.023251261409878918
0.004,0.022020493996657307,0.03519377600235429,0.013173282005696984,-0.028136914697261862,0.004040467530141806,0.024423866227066562,0.024099928581802793,0.11160700201409741,0.1258739800104176,0.08372788414135003,0.10483400248625846,0.07345781639247861
0.006,0.03923456279283899,0.06346509318754028,0.024230530394701293,-0.05017717648983683,0.006300330083864216,0.0442994516223508,0.045241219933040304,0.21187718337105313,0.23860459690221492,0.15957472143112447,0.1996265686846497,0.1396745762959949
0.008,0.04621684587167262,0.07859074117000811,0.032373895298335495,-0.06046946386023574,0.004663276130518451,0.0560397887803979,0.05736782524322719,0.276154603139705,0.3110016066296797,0.20966574342560027,0.2621974879647234,0.1828873140884667
0.01,0.03956804142554056,0.07756184566955275,0.03799380424401221,-0.05623819998926881,-0.0021099322438086054,0.05819114300749288,0.055345452913069665,0.27741813573580437,0.3142774061872353,0.21449428988014696,0.2675344259198892,0.18546130210405928
0.012,0.03130040165169902,0.07538821266839146,0.04408781101669247,-0.0509976563298664,-0.009226571866725349,0.059751012529966493,0.048611187725821334,0.2513839190716847,0.2896977464225923,0.20068097518898945,0.2481612241991723,0.1706391460603164
0.014,0.03496693005757247,0.08259028774515909,0.047623357687586625,-0.0564096908280881,-0.008741740430817678,0.06468754995299926,0.046685305528743413,0.2428875930699614,0.2856075986542231,0.19941998489591273,0.24435296447210803,0.1672673762004179
0.016,0.05014963746566117,0.09322419882669565,0.04305262174034599,-0.06925156363400757,0.001610340125661914,0.06756312852258423,0.0487963845896824,0.25717180788973304,0.303841231388505,0.21180878627575808,0.2590199057191366,0.1774882720209535
0.018,0.06563457895907306,0.09775680227093793,0.03201284716710648,-0.0794523376985915,0.015466383884351637,0.06439546465684652,0.05051157848385565,0.27355592600964485,0.31992650399819184,0.22355441328199402,0.271561984220486,0.18718159784084093
0.02,0.07571714710224758,0.09795121989593165,0.022037969499184476,-0.08486681302817628,0.025973263153327975,0.059464112836269956,0.05155355527757203,0.2806801310744967,0.3243418002395842,0.23052807571123388,0.272792344115234,0.19099247201653827
0.022,0.08438374055102832,0.10271640125452748,0.01823747454706746,-0.0913919295699149,0.03196330662720335,0.059695833898534584,0.053180144347386174,0.2837062350988661,0.32670042638958,0.23753329746309076,0.2717211832562851,0.1949492683081801
0.024,0.09281569726270737,0.11324774364595482,0.020621050548944992,-0.10038845995080156,0.03414504771827193,0.06591527659212497,0.05439383997041679,0.2895743047514967,0.335228757467933,0.24627593804476702,0.2784539421363084,0.20297319925678625
0.026,0.09478773633687781,0.11988167967121699,0.02552841285198127,-0.10487867827189035,0.03219755946329889,0.07139402876226698,0.0539122631043518,0.2982841821027849,0.3473818411446493,0.25525684671103616,0.29246387943515234,0.21179227602065476
0.028,0.08817892126748784,0.11548782741810136,0.027887764122548037,-0.10066701585859711,0.02794250445335552,0.06986766279597793,0.05158104977511588,0.3057722020644401,0.3568087086292156,0.26390833118501106,0.3058840640292484,0.2168439676284719
0.03,0.08061874169213382,0.10703264776069508,0.027081349448424025,-0.09407827515717869,0.02484486856652468,0.06480134535753669,0.04785890537878754,0.3100798875167179,0.3625880504646553,0.27250749619152476,0.313463429593329,0.2177791724993494
0.032,0.07996648631820409,0.10826596244890767,0.02886827638807331,-0.09449248491930799,0.02356097060830947,0.06645354559982652,0.044952295624826055,0.31425472374043106,0.3699846183083706,0.28213083799885663,0.31788986584312157,0.21842523552348908
0.034,0.08620263549793285,0.12198070826940907,0.03599765158034591,-0.10324116792814995,0.0231417533913472,0.07772256128979708,0.04608635149511739,0.32243890744071896,0.38247839665611694,0.293908704540493,0.32513354410893985,0.22283287589001394
0.036,0.0943068172181484,0.1361968959334226,0.04175092621192706,-0.11338037694689544,0.024878763564499775,0.08878213759793277,0.05093427677917548,0.3336859487766556,0.3962573083122243,0.30648014068185114,0.3365532795834185,0.23138217267532485
0.038,0.10101120531768915,0.1399485176784679,0.03865069084256385,-0.11896492414650622,0.03066028701678842,0.0896480955041454,0.05452937146283871,0.34273325699558504,0.4054733035156362,0.3170580800759352,0.34835185784728767,0.24087199332470627
0.04,0.10804538393054106,0.13662227704847135,0.028371356240205786,-0.12180244279696936,0.039986454314245634,0.08241803800988248,0.05352140508326505,0.3471710518482584,0.41044895963653977,0.3252878393100122,0.35750093816450784,0.24867233301429056
0.042,0.11855666380554954,0.13696410195773231,0.01854391635985269,-0.12737480110392566,0.050369829627307836,0.0765023267768967,0.05030258048797295,0.3498356516862284,0.41640609233097414,0.33296059879681356,0.3644964316632987,0.2552902001274501
0.044,0.13029528441765906,0.1438547248446016,0.014262013687003857,-0.13594814311501874,0.05816178486998285,0.07661739177794478,0.048207559903588534,0.353438659613504,0.4256333291097497,0.3407034511968034,0.3709838991577456,0.26213613418678894
0.046,0.13651914883054292,0.15074387403408182,0.015371212239785222,-0.14208178968208704,0.06024341975807885,0.08016549840955031,0.046678591380791806,0.35729171864340936,0.43557150287550733,0.3481617138680577,0.3778299412293289,0.2695379956937168
0.048,0.13490379656140125,0.15309880856468686,0.019283253408942023,-0.14286141190658455,0.05719789906816267,0.08381061233771907,0.04348846883303722,0.3601920817262633,0.44349567563298276,0.3563916626384831,0.3853418136737423,0.2774458628755906
0.05,0.13133334038142702,0.15491700269606648,0.0241444196129222,-0.14246549230753422,0.05323161000877698,0.08809982620514878,0.03821187888453518,0.3630761619452628,0.4495205228880073,0.3669064105649274,0.39416111005809457,0.28518236020010157
0.052,0.13334895672312927,0.16125110851728494,0.027892923939594107,-0.14652537695076798,0.052783218893543225,0.09368775404888437,0.031776196865210375,0.3672830924049128,0.45551358379492934,0.37934539461238703,0.4054145125255976,0.29151187974480225
0.054,0.14212595046806953,0.16879539913629069,0.026437117475662603,-0.15435692370743714,0.057735831813535005,0.09658031139618913,0.0247703860407508,0.371985218039531,0.4627679370040971,0.39235632864791464,0.4189042569169363,0.2971311989607055
0.056,0.15272755223466322,0.1706884961558529,0.017849601310175392,-0.16058203739489332,0.06637965045844517,0.0928671882726149,0.018045603894955096,0.3752215592341841,0.4711231976467021,0.40526751424328783,0.4317627027804933,0.3044017075661036
0.058,0.16071998086744727,0.16778559545982907,0.007150457348455342,-0.16310182739443568,0.07480451240742997,0.08600861958759273,0.013673522087043146,0.3764850612469133,0.4795110722316418,0.41738531916190846,0.4411100145272594,0.3136913535139795
0.06,0.1658732119133567,0.1677262030285775,0.0020942366961661796,-0.16538325801601922,0.08009500921711957,0.0837624497570843,0.01300812015881047,0.3771665155028477,0.4863411302270909,0.4274033170771979,0.4476721833174248,0.3230231848284937
0.062,0.1698207555141483,0.17451760230745667,0.005163727343665741,-0.17092609856010688,0.08175218492394938,0.08925576986720443,0.014718372557539394,0.3792254972433829,0.4906606270792777,0.4350791671223025,0.45451012483355696,0.3308680203839468
0.064,0.17157775630536912,0.18385958887999812,0.012988257292823487,-0.17749741892363177,0.07970521477225391,0.09849083381653004,0.01666723772617793,0.38351444335730805,0.4943667018244835,0.44261999095459675,0.4628954017584362,0.3376196373814439
0.066,0.16783443696687175,0.18865856562086647,0.02145519139305454,-0.17902647176149275,0.07343984823174357,0.10549413008155142,0.01830378470608259,0.388768683685417,0.5009875776865562,0.45257174963850566,0.47173419039314096,0.34532051681593195
0.068,0.15952819339920693,0.18695305709313062,0.027535174324045224,-0.17385592999456856,0.0652383793264946,0.1074510849926165,0.019032999885816443,0.39223624151898473,0.5103911279279798,0.46426238215319793,0.47999926819748,0.35512308979819895
0.07,0.1535321495037575,0.18292625609480528,0.02889259106600502,-0.16746543415235834,0.06058812959626807,0.10538153777035919,0.0164094475040021,0.3919938686702557,0.5178576100673351,0.47451574340316044,0.48779319890088635,0.36471849800889933
0.072,0.15455481055308307,0.1811605418897385,0.025867539867158684,-0.1655782536719218,0.06225745782291598,0.10219033684187635,0.009161236043891612,0.3890550751134396,0.5201164400246474,0.48214084118134715,0.4957537388915649,0.37128402165166186
0.074,0.1606907720565522,0.18247444927792197,0.021305747588467316,-0.1687041604658146,0.06791023234326847,0.10015569858522183,-0.00015255779858398501,0.3863217982334063,0.5189751016011286,0.4890659844311622,0.504126506135068,0.3762427084344447
0.076,0.16902237058841654,0.18562449319013885,0.016629235737829647,-0.17481656147649957,0.0751770878714307,0.09942089855008353,-0.008042342647274964,0.3853246983913086,0.5185519988346051,0.496920137758557,0.5123009579032275,0.38325309253127304
0.078,0.17869648859165582,0.18991550547882108,0.0115926494628487,-0.18254484781722005,0.08349647480080039,0.09925867981745946,-0.013086084854397259,0.38492538587486363,0.5212600923635425,0.5051183772102427,0.5197694440995804,0.39283566678922077
0.08,0.18702138753816494,0.1946085347260125,0.007908411292380749,-0.18983091319127726,0.09018303115845609,0.10001795469524252,-0.014949776031979594,0.38292796821085934,0.5259264806990082,0.5126467865739036,0.5273974438929424,0.4029754638069339
0.082,0.19032594253891974,0.19871580329377397,0.00841977737470014,-0.19421914553049782,0.09141614068399613,0.10249781443109066,-0.013859128254469454,0.37816268985797497,0.5294117386697968,0.5196969407987865,0.536429680157779,0.41319354356601273
0.084,0.18986923946414633,0.2019283425310855,0.011911676063431124,-0.1957416827886409,0.08837016820511168,0.10573372868380687,-0.012255759297227609,0.3708406805810647,0.5300401487171578,0.52629176678378,0.5456543117130597,0.4234962590461992
0.086,0.19062987204752718,0.20378191279714922,0.013060536372779404,-0.19630953754485383,0.08689574490595733,0.107007710765375,-0.01352205369841662,0.36193362275428126,0.5283235104755432,0.5309497043707039,0.5516668512461387,0.4312574773337888
0.088,0.19425894168319946,0.20414175055512157,0.009916272934536091,-0.1973461431927495,0.08966217421009787,0.10554479112736406,-0.017492691616561806,0.35342068477915495,0.525562030815111,0.532851418012241,0.5536372444505093,0.43267767063822077
0.09,0.19741187113073058,0.2049547508090854,0.007608297666262351,-0.19931340535058245,0.09258527844630879,0.10461365767465605,-0.020791622643162515,0.3473262970154958,0.5227752662659209,0.533573896887344,0.5547606905551706,0.42583563910615946
0.092,0.1965105849978322,0.20756584547401924,0.011068501717755069,-0.20100005954004557,0.09079906987450101,0.10725584416426083,-0.022476004387799533,0.3426524045490481,0.5196334086155965,0.5350057943954017,0.5571251668441095,0.41373372087849886
0.094,0.19123170824037727,0.20920634525597898,0.01796735679413171,-0.19945519758584943,0.08475807820944885,0.1116314327608717,-0.025150413433373486,0.3355673618919696,0.5148721968844057,0.5371013008261633,0.5585576768748283,0.40651931251536627
0.096,0.18386994244051924,0.20605188666711566,0.022292097984094848,-0.19343134735696957,0.0788274046985403,0.11318694285635829,-0.030722412847490808,0.32419182562241816,0.5081732812828814,0.5378918011678234,0.5561721488424265,0.4140988424247865
0.098,0.17824705522177503,0.19886796853549232,0.020954157285512618,-0.18648314698975696,0.07711499419565093,0.10994278708780592,-0.03863202528995045,0.3104533695038655,0.49989897263935695,0.5351497571490492,0.5510434547447066,0.4329211764565718
0.1,0.17830120237374353,0.19269109947102753,0.014826825965018713,-0.18397314137293796,0.08107537068040825,0.10398498550042325,-0.0468188834931383,0.29618635588378245,0.4894203354942218,0.5286069633002686,0.5474316976985933,0.4469767372739877
0.102,0.1848756846808434,0.19146134170670331,0.006844859818116932,-0.18744622340856035,0.08860342344861304,0.09889521036884623,-0.05223852871119818,0.28131681871635367,0.4760858111747802,0.5202240409381158,0.5470453555093705,0.4447516741435705
0.104,0.194604439423612,0.19473614061659214,9.99608595977649e-05,-0.1939132115437779,0.09593326010165915,0.09665962317483405,-0.05251131698378097,0.2668924783376589,0.46154085481131446,0.5119466434265898,0.5465291786946803,0.4301734549824802
0.106,0.2020587302177087,0.1986340502189347,-0.003575372644230983,-0.19883178341810373,0.10046180775376753,0.09659030995441509,-0.04886144509810066,0.25495171727059274,0.44856620587755686,0.5037068910340762,0.5417929704816778,0.4155855117569409
0.108,0.20220257487948076,0.19919680535216958,-0.003046073365669618,-0.19861575840900833,0.1004541138761474,0.09716096591069248,-0.04605300621881258,0.24449479345788097,0.4373098676233238,0.4938884978758857,0.5321410455146457,0.4082620851801764
0.11,0.1935061655879348,0.19555446688379322,0.002228883232109802,-0.1926256193489313,0.09467545954923659,0.09799613780272608,-0.0479711169940039,0.23188825466169993,0.4243310755416606,0.4810130744589879,0.5194987218371147,0.40535271865365896
0.112,0.18052677736182973,0.1893643874746303,0.009222414944614437,-0.18354698597995023,0.08548915001712513,0.09831803081744023,-0.0539371573521216,0.21519580754375778,0.4059044862243321,0.46460454308231014,0.5057790590566202,0.3995439260360523
0.114,0.17082634016745055,0.1820259178121426,0.011623094579886282,-0.1751606648391867,0.07922800413586673,0.09572120959888798,-0.06012359483818602,0.1957541128113502,0.3820911183326808,0.4454992710359325,0.49162285254130705,0.3872736951090744
0.116,0.1666890874218778,0.1739125427358925,0.0074702050517219815,-0.16880863821970324,0.07866126221016805,0.08968489710566561,-0.06383474284630686,0.17672477913901108,0.35710745277060396,0.42520701195578986,0.47696849981972866,0.370405563807008
0.118,0.16189183266240575,0.1649413566362715,0.0031619321048858232,-0.1617515492558373,0.07798046690641894,0.08356157822927396,-0.06517240555958503,0.16081641986051556,0.33520019552351565,0.4043411315126442,0.46193374086753836,0.35221268734850697
0.12,0.15056373852976992,0.15527684006918188,0.005035543500657903,-0.15133580090337176,0.07113313711874501,0.08020487922814805,-0.06506369920109954,0.1481122609760413,0.31640766700476813,0.3825048266718099,0.44622462676732527,0.3347825632819305
0.122,0.13594790339585205,0.14617842873484344,0.0109082076158619,-0.139739407552484,0.06105687624263305,0.07840740004646418,-0.06380903431470472,0.13662496466905774,0.29733471020188734,0.3595238530618431,0.42833221304042707,0.318917601573471
0.124,0.1235283806001169,0.1392614793637699,0.016326992792069787,-0.13011080943303774,0.052831119778849876,0.07653573191240609,-0.061316821814370676,0.12553000797934005,0.27664896752133217,0.33624000846381025,0.40742267043953495,0.30465613055402
0.126,0.11046746347897819,0.1345293216827116,0.024014179179806548,-0.12072907906875695,0.043208711133013306,0.07674510577935091,-0.05719168533402446,0.11587057844227779,0.2571409015054527,0.31412806707411606,0.3855523126023058,0.29198141698100316
0.128,0.0925262929157974,0.13022130700644757,0.03709946407199613,-0.10899115796424227,0.02780434094337614,0.08090689187915642,-0.051366791194848126,0.10739263511623716,0.24027299543945416,0.2928616715799256,0.365010313371463,0.28031822748184954
0.13,0.07636830085138871,0.12488787709634198,0.04802725277995086,-0.09811183160121739,0.013411469861998431,0.08479107188953644,-0.044980570074965184,0.09739493837116296,0.22298639460285197,0.26913637301026827,0.3443562141687521,0.2679243274604906
0.132,0.0717855654666019,0.1182782815014577,0.04648884610402028,-0.09295692114200284,0.010568631132929324,0.08198185804124468,-0.039541373242913375,0.0841988767526011,0.20268906458551808,0.24108065560709363,0.32092124839426356,0.25307112192647135
0.134,0.07545516912422819,0.11049977390191876,0.03530213537509573,-0.09160291352727788,0.01727016383792311,0.07271661358674018,-0.03572907069736404,0.06972047019140754,0.18059419705461796,0.21189415641470496,0.2960996262058076,0.23465451843384644
0.136,0.07486014139735984,0.1023716444425588,0.027644477366637294,-0.08778712157509196,0.02125902109833638,0.0642041766082516,-0.03364819698770665,0.05729045056820622,0.15823089309838395,0.18556966350463336,0.2737344205905324,0.21222185840477256
0.138,0.06525822950801659,0.09510187178235453,0.029770394638179692,-0.07949505422844305,0.016446173808684246,0.06117538542524166,-0.033085419893406014,0.0481491505397436,0.1357181983743761,0.1618419867796304,0.2542026941570462,0.18798401028203088
0.14,0.052966094032158136,0.08795108853383327,0.03487770834322055,-0.06961478047513162,0.00839047317751844,0.06007597163992535,-0.03306867100923138,0.040557203098746164,0.11416187876480724,0.13794654006193768,0.23420656300657597,0.1666537194292913
0.142,0.04446960762467374,0.07839471512925135,0.03391343172828971,-0.06042982586860548,0.0046974297063354644,0.05471534578935041,-0.03261030401666352,0.03174829536733585,0.09518165675229634,0.11262731733021379,0.21169236318864745,0.1504085617113788
0.144,0.0396614326712898,0.06530537057819343,0.025696733081752493,-0.05162490266213431,0.006347116119618256,0.043813281873584964,-0.03214591971437022,0.02101858225465578,0.07830872970692815,0.08707009794223029,0.18821863237358372,0.1370385318743131
0.146,0.03470487335437298,0.0512216554702759,0.016548362516633757,-0.042592951770313324,0.008268745331196817,0.03187683915807608,-0.03249647631536256,0.010934455985062555,0.06202277676807987,0.06333094583888378,0.16683803437389144,0.124341908985798
0.148,0.02741105243133642,0.04129852328679285,0.013873763578618576,-0.03437120764959634,0.005556732295700584,0.025348874612284616,-0.03245437023359791,0.004616515482040017,0.04681770281459098,0.04253884357432782,0.14912267225084858,0.11246831300311085
0.15,0.02070864497186305,0.03898903091091934,0.018256612528294875,-0.02961193461868631,-0.00011395930980703168,0.026473651333360174,-0.02966111944835867,0.001800628481461778,0.034948252508815544,0.024589922999961027,0.13420070705422318,0.10176695260233835
0.152,0.020301902221528858,0.042283153207647556,0.02199931575784529,-0.03031502356376209,-0.0017750041356426514,0.030149894715031548,-0.023950518691979006,-0.0011340846704162365,0.02697987684722061,0.008711396056117456,0.12000694590801092,0.0915047211814678
0.154,0.02531376016772173,0.04470414469854299,0.01953282219414289,-0.033612272757823324,0.002184264503005893,0.029823036963738905,-0.017692514165530467,-0.006563757358235205,0.020728970667882266,-0.005974839432840867,0.10597023734065156,0.0810284973755132
0.156,0.02620282338948873,0.041191351191849586,0.015345313135358082,-0.03249519161768037,0.004189780849334411,0.025410887364692568,-0.012726104397389797,-0.01240712570805576,0.014204657006501047,-0.019526437656785446,0.09391742530732036,0.07085320114691014
0.158,0.018710797925968557,0.03382824582425742,0.01566884677356601,-0.025161840310801684,-0.0003645453754416142,0.0219453850189358,-0.008739692094240706,-0.015085421209639106,0.007106367284662395,-0.03159489353654804,0.08457808061059766,0.06188962174328829
0.16,0.012171532557636533,0.029550006603445908,0.01797811585130739,-0.019310477347871495,-0.004715850670045541,0.021998072307681266,-0.0048939345040816245,-0.014692770656900457,-0.0009671535347594329,-0.043044416645233834,0.07520173290371446,0.054015784944368865
0.162,0.015131709805620605,0.03027964162691241,0.01567504444004377,-0.0207739385764778,-0.0015096137765649368,0.022591263669849444,-0.0016150508866975243,-0.015249589226544498,-0.01083610171633917,-0.05499929209780245,0.06326740284946478,0.04587351442146242
0.164,0.02082154401656569,0.028679080444644116,0.008297026626390465,-0.022960578484773765,0.005155827814386041,0.018871669771051435,-0.00041270547373531614,-0.0202470194602503,-0.02191581949807349,-0.06673888550254697,0.04978795899470982,0.035828573887531814
0.166,0.017254162527390128,0.017619207982206897,0.0007004923793983386,-0.015957116499570143,0.006461491270973775,0.009280577959879887,-0.0023097977584818703,-0.028962258778804706,-0.03242703015451468,-0.0768095972647032,0.036961635131140036,0.02382376918062429
0.168,0.0049162651096338605,0.0010566288422341388,-0.0037042054592726537,-0.00158806125624133,0.0016116420979916776,-0.002067451496763014,-0.005782121174643228,-0.03659184342988781,-0.04102281219067397,-0.08481532901805039,0.026119764579238126,0.012714311359188896
0.17,-0.006446582160116336,-0.009737555587803932,-0.003324600541752929,0.009718963689020154,-0.004462709765812493,-0.007802529124018435,-0.006444762818635269,-0.03812285399669269,-0.046348199360398565,-0.0902687937445058,0.019092430449907917,0.006774226149047377
0.172,-0.012541286928808777,-0.009296136107892712,0.0031473348286589382,0.012980435948350674,-0.010093818481044146,-0.00415181697153728,-0.0009258027366234338,-0.03315439174260849,-0.046603803784989364,-0.09210214824877656,0.01751150715380307,0.0076004860168418665
0.174,-0.01615301290057819,-0.002769029454660314,0.013370002590206837,0.011686295607127925,-0.015926912249328417,0.004522475359027908,0.008428280957956575,-0.026609114010076512,-0.04241112585054372,-0.09136173138437721,0.019465665123813196,0.010909119516291959
0.176,-0.019270475139418836,0.0014367889713468932,0.020871952531882173,0.010523863760349845,-0.020418884664109772,0.010207076889536383,0.015340921856098498,-0.023633287419290598,-0.03826412260109614,-0.09158137018881574,0.02006974613124677,0.009865649669311133
0.178,-0.020165170024158147,0.0004083850571167222,0.02093653515893659,0.010365000528145173,-0.020829075932157298,0.009390693733723367,0.016964660558903253,-0.024632597233335135,-0.03808399109753891,-0.09490507549680567,0.016396816507970938,0.0032885590579294754
0.18,-0.015894836964001804,-0.002239922487304341,0.014076675653243886,0.00885013182346171,-0.015592991514762037,0.004724611696806915,0.016142116920617317,-0.026994788488224376,-0.041782834645986436,-0.10071891364992087,0.009399116116412538,-0.003359936272806806
0.182,-0.006860761887795731,-0.0026144227533925397,0.004482202129543856,0.004830328107360594,-0.006248366197228867,0.00011090879934773965,0.015991928735442217,-0.02951651526176177,-0.04743139956870245,-0.10778638754975468,0.0014939568442127234,-0.006132284224291704
0.184,-2.958037409255172e-05,-0.001853910784825907,-0.0018589460051644325,0.0021566980681951555,0.0008117690867848835,-0.002824926328702124,0.016609244323296215,-0.03187976276747505,-0.05303007747794713,-0.11461795135178034,-0.004784125608552504,-0.0065323246966527155
0.186,-0.004353328805703458,-0.003905009857911555,0.0003309108367304107,0.006476310808633641,-0.002078352147864527,-0.0036405045498657798,0.017250480763168492,-0.03241089285196921,-0.05653239566944575,-0.11917603248214718,-0.007315320688006428,-0.0071729347646539545
0.188,-0.019939445930881695,-0.009907213237997687,0.010108287048258724,0.01765408020691514,-0.014833231052317543,-0.0025289890838798594,0.01812266110434737,-0.029929657544947832,-0.05737524438902863,-0.12045240117269988,-0.006561644170498522,-0.008588575291480998
0.19,-0.03499765602187612,-0.017247979345020224,0.01812350608409343,0.028465306453289443,-0.026897300519980315,-0.002081379956359865,0.01926169804092999,-0.026200855660826184,-0.057468807038894835,-0.11962920378593431,-0.006274091811098575,-0.010684978494171146
0.192,-0.037664622496055684,-0.02280793801690763,0.015309562386772776,0.03193037114452372,-0.02783010378960272,-0.005615650455814624,0.018724795795636812,-0.024914023821595046,-0.05939945252195129,-0.1197533031122836,-0.010187301027019481,-0.014129313521188964
0.194,-0.028634997518246254,-0.025194487874971652,0.0035647338998843897,0.028032016936373246,-0.01865367431554435,-0.01244756515569453,0.014287618637887526,-0.028063410904123294,-0.0630968274676941,-0.1233733930331115,-0.017331604845256927,-0.019055244602315925
0.196,-0.018883164137572756,-0.024893911516411973,-0.006392182996066763,0.022724456199184142,-0.009456144482477221,-0.017671751921012755,0.008243763935399679,-0.03244566030139571,-0.06492944763718063,-0.1287145713753207,-0.02187776275902943,-0.02338645451554632
0.198,-0.01617388143240874,-0.02310288055941415,-0.007510936507574478,0.02078613954614368,-0.007088881290369971,-0.01756874639884387,0.006307451375389882,-0.032269580082462945,-0.06254118176009202,-0.1311542703363864,-0.020167215095022586,-0.024628821169460226
0.2,-0.016752902010662037,-0.02026235462529376,-0.0038192256449081836,0.0203008936081336,-0.007896521319855604,-0.013853425262253596,0.009959916019467056,-0.02761049582095742,-0.05917941570940357,-0.13017103478501446,-0.016222921539258323,-0.023595756437426445
0.202,-0.012971694755244408,-0.016914338136687725,-0.0038591692599950463,0.016972865460254484,-0.00463530129260349,-0.011591682676921558,0.014693562691296872,-0.02517796531663569,-0.05938915499971127,-0.13013437430750274,-0.016456666369436428,-0.02406834844546532
0.204,-0.006599248720432358,-0.015618377147299052,-0.008816241283720709,0.012932287912092716,0.0015540766309445045,-0.013424990392775575,0.01633275544162749,-0.02857578272604353,-0.06279409473703082,-0.13352966178879108,-0.021307216725140295,-0.027919660333652653
0.206,-0.007401474151204577,-0.019135452101717455,-0.011674648097609515,0.01514400227062497,0.002030529509311344,-0.01716582679005228,0.014786663257091097,-0.03429475173102237,-0.06622654113633128,-0.13818476839721663,-0.02622187878956604,-0.032169904507645945
0.208,-0.01876565060129878,-0.02615599101338395,-0.007469331044250653,0.024831194593165382,-0.006868111634999572,-0.01893350620522046,0.012300089876591785,-0.03773272177251168,-0.06860736701039086,-0.14101375513352976,-0.028276294379275865,-0.03269920552682177
0.21,-0.032412141752538495,-0.03135275290447827,0.0009893973890186156,0.03464577772998651,-0.018775559346374582,-0.017072536380726873,0.011394211209905868,-0.03697182899932417,-0.06952309790305786,-0.14057264692665092,-0.02775684532825559,-0.029540106948197024
0.212,-0.039496854742474455,-0.03143059929165824,0.008075525049607771,0.03812322547916706,-0.026039289430114652,-0.012978276755155036,0.013293910626388624,-0.0320457307484531,-0.06708226351690572,-0.1366097278127202,-0.02507079327369853,-0.02568319911369652
0.214,-0.04005039897751841,-0.028950759414059335,0.011120165986785368,0.0366277933326371,-0.02745696247738844,-0.009618086564354223,0.01615513524927568,-0.025482482803581633,-0.061597707014879294,-0.1305670524351005,-0.020270213170042708,-0.023308705927947145
0.216,-0.03747320298003678,-0.027808185634159023,0.009548924758149765,0.034068978448769965,-0.024837509167601426,-0.009508791871580276,0.016484871014872324,-0.021775012908946918,-0.057601457260040026,-0.12595560081049664,-0.015259121132705578,-0.02459058110235417
0.218,-0.03212295012613017,-0.028409433431414,0.0033702140651231463,0.03117169689039412,-0.01894849854274815,-0.013095468073046105,0.013513643788926567,-0.02339182950789417,-0.058557401262212656,-0.12562688012584677,-0.012942736422849552,-0.032188852210911355
0.22,-0.025979171723292543,-0.029228270081740733,-0.003665651276898551,0.028419269176766175,-0.012806851220887176,-0.017736756030505098,0.010600486779439838,-0.028134490023877072,-0.06234354100833959,-0.12888206296988314,-0.013978398169837699,-0.04472625438674452
0.222,-0.024377836245623567,-0.028736179692278534,-0.004459549414052102,0.02752614352814278,-0.011841310747218451,-0.01855375063923967,0.011551316481018096,-0.031023213253657433,-0.06418138932518949,-0.1324617063750382,-0.01702867893427152,-0.05465216469048447
0.224,-0.02782050101780826,-0.025701000333335035,0.002613093636372018,0.027619149106581562,-0.016460590147915767,-0.013346728129764791,0.016257052575990014,-0.029226504520121353,-0.0623548684688303,-0.13443076088407258,-0.021705196371987628,-0.05476987627286799
0.226,-0.02940642921957867,-0.02121033821470568,0.009073770031528396,0.025835827007188922,-0.019546460122769723,-0.0070366307994290484,0.02060233329051314,-0.025595659569300624,-0.05985748951404661,-0.1364308087756653,-0.02833168772014439,-0.046600457844019956
0.228,-0.02334223838094934,-0.01861136245778741,0.0053377235000862285,0.021722411160222208,-0.0144924851803131,-0.007178109397647192,0.020629806345944628,-0.025581574979204373,-0.06070408407500519,-0.14112143896959237,-0.035512518655803404,-0.039866127286511066
0.23,-0.011228093474021908,-0.01900786384472729,-0.007905112663199045,0.016767807744042428,-0.002735745980983049,-0.014483832445365667,0.01645933771067851,-0.02978719180211827,-0.06463875398053476,-0.14770532430267513,-0.04044436696075943,-0.04235395957924419
0.232,0.0006240694857577165,-0.01942943920454619,-0.0205726607792688,0.011672023132996295,0.008304894633373335,-0.0216692201388828,0.01195397132820762,-0.032664575822802334,-0.0669500929612475,-0.1517765019995932,-0.04104366841352444,-0.05126776258755037
0.234,0.005815625211151253,-0.017493501229215495,-0.023446444525001508,0.00791407603213062,0.011842735846305978,-0.02200286264347576,0.010608217115705046,-0.030158505601895765,-0.06488288945927026,-0.15019849866529833,-0.03716653734242202,-0.05703258188273724
0.236,0.0004372634185813277,-0.01541336686250035,-0.015388901329953417,0.009100871175905467,0.005670305209418821,-0.016095371008801217,0.012433455079064374,-0.024695500852575547,-0.06111548648683488,-0.14474919898753347,-0.03087296678771273,-0.054882004031684466
0.238,-0.013966928097061923,-0.016918250755657793,-0.0024327532895754957,0.016853500223585897,-0.006962399817565957,-0.009830971880340591,0.015121352062193104,-0.020993088505021698,-0.059026012378614254,-0.13972620920266382,-0.025271767432602378,-0.048924039782185166
0.24,-0.02966648917590157,-0.02106250337399159,0.008712415503314927,0.026914916740421197,-0.019730560975353674,-0.00673968190639432,0.01735229211247779,-0.020634597645553268,-0.05828647006290271,-0.13712107956741934,-0.0222665244968593,-0.044986175588566185
0.242,-0.03768856213791628,-0.02210940813628627,0.015500431151945326,0.0318528389009248,-0.027379702204368105,-0.004703631672627148,0.01973343806753038,-0.0219775873675221,-0.05685711109817082,-0.13637697531610224,-0.021581552272926807,-0.04433025039584411
0.244,-0.034993309183719117,-0.017153471618060263,0.018133248502383837,0.028314941827460006,-0.02815089155811155,-0.0014250200408528295,0.02246070007959317,-0.023149629194232458,-0.05457242389226432,-0.13726691295804652,-0.021776682412802638,-0.0455209372055356
0.246,-0.02804107786248685,-0.01044527397684479,0.01838981274882883,0.021150273073377298,-0.025498731278251512,0.0019229506338783876,0.024619441873929816,-0.023537232713648455,-0.05295916832880807,-0.13912681079026287,-0.021587884196664,-0.04743687368216676
0.248,-0.027416301914825025,-0.007547549346335085,0.020657838168458464,0.018632173771875843,-0.026642906328707378,0.004736439795273329,0.02641634094562742,-0.022658529034805256,-0.05255247083219538,-0.13894129900405194,-0.020779378435754933,-0.04872115661187925
0.25,-0.03576399106142566,-0.008582475610316841,0.027440747805341024,0.023015204407375284,-0.03424472154636326,0.008394966294952762,0.028346723122042526,-0.020025398185928318,-0.05263963474710693,-0.1349310988430178,-0.0203720411640121,-0.04849965207522767
0.252,-0.044056718381738476,-0.009736929760091672,0.03412391270972027,0.02810320124963642,-0.04157104200665658,0.012076738456986296,0.028420310639874644,-0.017333941234316624,-0.0537234477028477,-0.13056500241320837,-0.021445520571092776,-0.04881592479226738
0.254,-0.04361216991809332,-0.009963464061594172,0.033532857385132404,0.028193047853074193,-0.04059662450699463,0.011796412266669713,0.02477230535537131,-0.017864157300703738,-0.05713824117518241,-0.13033869730720815,-0.0234883307643226,-0.052821132919427326
0.256,-0.03658137850350422,-0.012802311022085998,0.024096450554640915,0.025658060953986702,-0.0315519861825881,0.004794929758830872,0.01959228718275521,-0.021979191985885216,-0.06157049267407726,-0.13329862973048273,-0.024934619168587704,-0.059872835636122376
0.258,-0.029503486037518067,-0.019297271714883386,0.010755547706652322,0.0249617535288434,-0.020651009353035907,-0.006268246631590015,0.016119804109836947,-0.026186513906973036,-0.06367486414796984,-0.13519234267569086,-0.025347765561692052,-0.06529777160413511
0.26,-0.023330697381236998,-0.024000138593334382,-0.0003476189856223887,0.024529609386889504,-0.012018242092316552,-0.01488589225796412,0.013845851217877299,-0.027764400761362794,-0.06304869092204411,-0.13485758058024033,-0.025779601832415462,-0.06526364775491464
0.262,-0.015863422967776625,-0.02273531820190581,-0.0069345290579431555,0.020975727275116006,-0.0053395472113345905,-0.01764900420134861,0.010210719497936912,-0.027819430422978603,-0.06315347664908057,-0.13468069344768602,-0.027133829134007435,-0.06078173905006288
0.264,-0.00839053962040168,-0.018754486151574542,-0.01056341540508677,0.015934062882215397,0.00030761372978470726,-0.01723362588809282,0.005294092135932557,-0.029046857380916898,-0.06622182272153497,-0.13643915104249546,-0.029166477107816988,-0.057207520200094994
0.266,-0.005305658925462789,-0.016773917635081993,-0.011515017929986196,0.013453573848603784,0.002690248618846826,-0.016531404655966524,0.0025392739940444694,-0.031487937193309515,-0.0697044455425286,-0.13902483734030655,-0.030536179746517438,-0.05841316665365527
0.268,-0.009349213055999086,-0.016334764448269572,-0.006759520638441528,0.014696135274443913,-0.0018993207028169248,-0.01395513392816323,0.005308955798671465,-0.03204262163429713,-0.06929436709132283,-0.13985030835238482,-0.029837662439432294,-0.061744247831805675
0.27,-0.018160135851952027,-0.014731213921256016,0.0039817274612031365,0.01776568354655095,-0.012470751976929755,-0.007890516101706628,0.01271002158103838,-0.029162028516556363,-0.06436187069922304,-0.13774390034782427,-0.02746787853765184,-0.06228911889177391
0.272,-0.02585933196816654,-0.01225465384407889,0.014481144502109486,0.020436625313138206,-0.02219607723875749,-0.001377633543851127,0.019050150663264705,-0.025406090352446706,-0.05871277535818819,-0.13380117881424108,-0.025385664155591483,-0.06019721760812937
0.274,-0.029867287875445094,-0.011381713040202681,0.019449600178149052,0.02253328936384107,-0.026639415582566644,0.0019204938634923279,0.01952035740647283,-0.02345808211699566,-0.056012994237512236,-0.12938618305007163,-0.024145593813363186,-0.0587180946694588
0.276,-0.03415296024065549,-0.01321793117115369,0.021570322228197054,0.025979812497102028,-0.029372084342409118,0.002757149673597942,0.01575943628081712,-0.023061993613107835,-0.056287362508224484,-0.12503728106456422,-0.022044716302256722,-0.05796693320060137
0.278,-0.04155943248649201,-0.01649792698210143,0.02516002062399268,0.031000481336762357,-0.034561954286606286,0.0033377761624937504,0.012836958359353069,-0.023663514484270315,-0.05774547240028873,-0.12179733077134358,-0.01832973950630227,-0.05616855649348426
0.28,-0.04646277006655802,-0.01939733920099454,0.026847012779126208,0.033906687193888035,-0.038076291027221355,0.0022875950653490473,0.011973494846791288,-0.026248957724166622,-0.05998010472612437,-0.12143920310810485,-0.015431660261919073,-0.05444426679213192
0.282,-0.0429649838636532,-0.02161567039127112,0.021186318744660693,0.032439037817327196,-0.03395310698400661,-0.002683285916384243,0.010011784838615997,-0.030667179030463537,-0.06332036006591091,-0.12432408373933258,-0.016198715298424,-0.055597833633706295
0.284,-0.036515497179893476,-0.02323783104261281,0.013308068272354204,0.03007206891089599,-0.02679333378247087,-0.00803550232285971,0.006020039854827974,-0.03383226407635218,-0.0659251271624461,-0.1276846109958689,-0.019548357867170765,-0.0593214712180655
0.286,-0.03699000855629724,-0.022684252064365595,0.014406261842766024,0.030430827511626207,-0.026978987463291273,-0.006625492281213306,0.003946190650830839,-0.03258851169322979,-0.06440735715620069,-0.12726221964411225,-0.021261766999227695,-0.06172142243417506
0.288,-0.04326365816656445,-0.018695460042923624,0.024600037221109438,0.031400196695886375,-0.034556766280834164,0.0020182617804293743,0.006521357243706559,-0.02773250547654779,-0.058669359843727335,-0.12216823336057196,-0.019496773036579585,-0.0596509283642775
0.29,-0.04439039955479575,-0.0126455499693468,0.03170574941239735,0.02854490087572496,-0.0385430895365178,0.01004828133944926,0.010731742207281087,-0.023822832471369543,-0.05361809517555534,-0.1168885076510109,-0.016804590605233805,-0.05401962673506236
0.292,-0.035227726597451256,-0.00704037966824062,0.028151429448278142,0.021662346201459525,-0.03275318910400222,0.01150408297174664,0.012212309436298929,-0.02424603549258392,-0.053631903981064474,-0.11581367258484648,-0.015971564369179566,-0.048622189973772094
0.294,-0.023122484583974885,-0.003205425430289197,0.01992121754875069,0.014897853174893049,-0.02335986372860807,0.008789526583868905,0.010861075691107882,-0.027316711487554428,-0.057094318459364364,-0.1174644882786101,-0.016499092849745673,-0.04633712777007561
0.296,-0.01711876005672649,-0.0006814311689244037,0.01645889055283504,0.010985865963200779,-0.018797260522303433,0.007512722325064325,0.00984369959503264,-0.028945465540343922,-0.05916164830075432,-0.11745277973335301,-0.016347293571975178,-0.04731369602256915
0.298,-0.01764200258047618,0.0013640169912794938,0.019014043365404198,0.009106366702898076,-0.01975756642963686,0.009213884031198667,0.010838631564434861,-0.02821306619762519,-0.05843869174726149,-0.11496058314869653,-0.015202744397486194,-0.05066405220973629
0.3,-0.02077545189349463,0.0021772635761601153,0.022944782646010724,0.008942223253001088,-0.022513577555084482,0.01156181414836843,0.012060816237550355,-0.02765873650099509,-0.05762862214352926,-0.11266568880240437,-0.014379215783745826,-0.055410387761700215
0.302,-0.025369728687481996,-4.6866512911332176e-05,0.025336635088361415,0.01209946082827169,-0.025528588549466203,0.01226286622276229,0.010863287464270871,-0.029215467531439904,-0.058935760492627526,-0.11263135435628249,-0.014753173750520036,-0.05947911954990256
0.304,-0.030232979865138673,-0.005548994093594618,0.024815730055509768,0.017854891081179637,-0.027794509667429253,0.009790242806144801,0.006891118734315938,-0.0326149179181086,-0.06218794181082972,-0.11520580138108763,-0.016491532028899164,-0.060881708356164035
0.306,-0.03031919338681746,-0.011431611933995929,0.01921966189085703,0.021320526534273868,-0.025694013063713148,0.0037547972693353204,0.0022996305340563933,-0.03630861947327367,-0.06621377882888212,-0.11957952664734738,-0.01942465788294127,-0.060234453806051205
0.308,-0.023327049337758313,-0.013235124840898843,0.010516522332715439,0.018921203862753797,-0.018513377128156903,-0.0021684629682227757,0.00017890095130332768,-0.03795057824749521,-0.06904834690606508,-0.12324118962207872,-0.021722562669325155,-0.05975167690530818
0.31,-0.016331004185423922,-0.009287900637222266,0.007318991790571471,0.013714595784725022,-0.013506527653046134,-0.0018176089094320096,0.0024893020740519097,-0.03622785210370591,-0.06821106455345752,-0.12312359939762742,-0.020325027948439458,-0.06004937699335961
0.312,-0.017129675168807968,-0.003134490964456966,0.014098978644201515,0.011348554366141147,-0.016884079898324713,0.005099538820695591,0.007569455236794624,-0.033559317804958994,-0.06396936567196357,-0.1194189966927208,-0.015438488893544093,-0.06010166644722321
0.314,-0.02143720349542208,0.0002961565507531651,0.021914968679029437,0.011852981869054145,-0.022572720099885556,0.010476573028956958,0.010519875401922382,-0.03385696748597339,-0.060741066496913625,-0.11640198561756568,-0.012017489437630213,-0.05976449889017359
0.316,-0.01804259674035551,0.00044020971213085575,0.018843197781005412,0.00998647205249457,-0.019340868698516617,0.007789901797171409,0.008569082950546666,-0.03692977356959487,-0.06186555824867444,-0.11751134538985664,-0.013542616244891637,-0.059893786423924955
0.318,-0.00631075426028446,0.00036620196817167133,0.006979112887153245,0.004222195667257213,-0.007746006794529573,0.0007178323893399067,0.004578098944835523,-0.03895631246887867,-0.06495465381078637,-0.12115284013886547,-0.017218682125905008,-0.06052865480508511
0.32,0.0005561303767901853,0.0013873608374244365,0.0008616607773757161,0.000649772323209513,-0.0012346201032867017,-0.0018827831204506218,0.002927271469983181,-0.03857229793063353,-0.0656574182975903,-0.12290539891988983,-0.01867099672276114,-0.06144406413862284
0.322,-0.0071700838721945855,0.002099509669906666,0.009147482192041414,0.004572202280912889,-0.009006418064161246,0.003297419678121005,0.004053127370609781,-0.03844141002812371,-0.06364831229088004,-0.12071125518091468,-0.018094747858435786,-0.06343932673146992
0.324,-0.022409542685664488,0.0014716929569127493,0.02391970308091288,0.012425234021204922,-0.02410467533047404,0.01086475667434915,0.005039473254162695,-0.040776620977761364,-0.06201643022908597,-0.1165564208750641,-0.018399861862183182,-0.06684715791463183
0.326,-0.031146807540804948,-0.00031364023207473835,0.031191611840198575,0.01709652888912096,-0.032562977736113954,0.013575930476502754,0.004260010630126666,-0.044621164223968744,-0.06274464227098382,-0.11367744937010955,-0.020330846363610235,-0.07041131883033622
0.328,-0.030703221853719945,-0.0030557510090484506,0.028135432079601938,0.017764126508163076,-0.030864687236159778,0.010649923352931972,0.003324371996290529,-0.04779556272405233,-0.06510940084272164,-0.1133368912109031,-0.02214217259543312,-0.07257517325699156
0.33,-0.030438745629372856,-0.006852257280804623,0.02385669527110429,0.01928274050025841,-0.028044195389932945,0.007116032554461879,0.003618271617549384,-0.04929849966765717,-0.06775713088144047,-0.11435371896253262,-0.022135030975195712,-0.07223176740797072
0.332,-0.03632791500106489,-0.010947969631897519,0.025325761772608712,0.02384737486606491,-0.031338503330197436,0.006528707448622865,0.0037627253683273788,-0.04935108714965263,-0.07025838340072375,-0.11490242329253357,-0.02008239268098908,-0.06916134422695581
0.334,-0.043282089651471276,-0.013031977526323598,0.030082697060134205,0.02803154431674389,-0.0373309338898072,0.008154544753847462,0.002916320586631724,-0.048325854536214366,-0.0720557299556647,-0.114046010597093,-0.016997716927434424,-0.06497403614894107
0.336,-0.043567005823889234,-0.011511000298351736,0.03201994343276875,0.028032839075666866,-0.03869505964730037,0.009648045399638105,0.002808628767770917,-0.04665796413166343,-0.07204945412839776,-0.11196911766583303,-0.014261071131973408,-0.062188853637319255
0.338,-0.03610614217196871,-0.00807710922743725,0.02822075993727669,0.02413556982116893,-0.03324757177865597,0.009120785039193864,0.004197577718338891,-0.04601166997154554,-0.07044311410194633,-0.10997425990258318,-0.013336007863821667,-0.06195982655335093
0.34,-0.026008826613386753,-0.005799562618551059,0.020597077519013927,0.01922653304193073,-0.024629376194275385,0.0062646822417564765,0.005002163740561925,-0.048698375123214156,-0.06964174328517543,-0.11019932381988512,-0.015661687813041707,-0.063714657170158
0.342,-0.019196524098318127,-0.005468168623700226,0.014169167929840631,0.015665470385058132,-0.018137501184837222,0.0031469591885194153,0.0032897457324068324,-0.05418765995936307,-0.07210728154935603,-0.11385669920354868,-0.021297819645851826,-0.06677676356282268
0.344,-0.01904276454064611,-0.006554563892085841,0.01286240627283308,0.015061723841988556,-0.01706731376355055,0.0019564901314865686,-0.00028749258094524935,-0.05863733626675075,-0.07735012962227653,-0.11943418051840743,-0.028008787550501155,-0.07089170980783294
0.346,-0.024979897323069114,-0.00973605246625507,0.01568436274372182,0.01844595293128653,-0.02085479011816451,0.0020237570129772306,-0.003744525101190669,-0.059973741800098866,-0.08228751890311765,-0.12395705908971072,-0.032955232120277,-0.0751593752264401
0.348,-0.03204077993849842,-0.014532089543131175,0.018256173869539802,0.024017504343100276,-0.025662854405061105,0.001478793240047163,-0.0061577053672940705,-0.06030787224462372,-0.08493514414924844,-0.12610267159571045,-0.03482575464285671,-0.07853644962153537
0.35,-0.0352263928002534,-0.017577660124114155,0.018604682010753933,0.02774494764634616,-0.028349122202568012,0.0007307816634605269,-0.007887285485696234,-0.06159377580197331,-0.08601392011069538,-0.12655034201080972,-0.03375646520237463,-0.08117107173026836
0.352,-0.03501767159769479,-0.016793212421984692,0.01894498138942907,0.028094250530912305,-0.029468272180511578,0.0015252540123253501,-0.00885687454026821,-0.062289836575128064,-0.08650921406164176,-0.12552207359659773,-0.030135251334162005,-0.08302054435777173
0.354,-0.03379793794612591,-0.013798013220883374,0.02026429900695606,0.026358664322147788,-0.029708615795525233,0.003353571925007374,-0.008277435530391387,-0.06030604403896473,-0.08604100313772003,-0.12248737832055348,-0.024873128246210338,-0.08304414684497442
0.356,-0.02925327733242388,-0.010425198967382886,0.018919434708711658,0.022315113776248972,-0.026110640441055762,0.0036052115752562503,-0.0065429919406509544,-0.05683185429350259,-0.08461721711614077,-0.1187288146981517,-0.020477372697401845,-0.08151806674920571
0.358,-0.018148438866753634,-0.006578988393406924,0.011801932446727342,0.014538945657602033,-0.0164859411366568,0.0012499363943881804,-0.0052787140857206575,-0.05522897180882789,-0.08355215624963007,-0.11722877287879008,-0.019550762074620424,-0.08012202082407739
0.36,-0.004967415398824957,-0.003282954477063286,0.00196707613542791,0.005869073047589709,-0.005239565054300338,-0.0022419674586046058,-0.0051905075722052905,-0.05743222310649752,-0.08399456793999809,-0.11923547749804614,-0.022065827508687217,-0.07995613511136038
0.362,3.503941318346769e-05,-0.0035698186935199995,-0.0035168301244508436,0.003226706712942941,-0.0003937904666173586,-0.0049120923041493245,-0.0055206353931757865,-0.0619370057267584,-0.08585281879196625,-0.12297324503660555,-0.025520824091777253,-0.08145840371155291
0.364,-0.007144829664565618,-0.006904786445630676,0.00013419797079029826,0.008576104343348863,-0.005317832810355727,-0.0045113109171339505,-0.004642354441626128,-0.0644134149919975,-0.08721386070675605,-0.12527390454647008,-0.026744658209098934,-0.08316950625579599
0.366,-0.01913079766661325,-0.007820898163189009,0.011226196783620837,0.015205866759884295,-0.015631781721153086,0.0005806692207931467,-0.001129035909203933,-0.06192102213354218,-0.08581188225165344,-0.1241423106602946,-0.023877862679308578,-0.08105306700276398
0.368,-0.026756847437994707,-0.004483644518234655,0.022408716104301504,0.017239770704514268,-0.024327516024292707,0.007609196504433004,0.003877356361497836,-0.056863620211058716,-0.08288421380337364,-0.1210036862573106,-0.018580546224279314,-0.07393532563480251
0.37,-0.029948604729960505,-0.0029487576495118638,0.027386785391642066,0.017573351506181976,-0.028895583040117738,0.01064628374514035,0.0067531424467963804,-0.054239983427246626,-0.08223757476650202,-0.11896060468773711,-0.014843812306547865,-0.06750079179628385
0.372,-0.03448938334704179,-0.008183165466463107,0.026777262941786582,0.02171972461348355,-0.03184346456215048,0.007809183570918967,0.005199410742694803,-0.05574352948230799,-0.084547387903032,-0.11847561882612434,-0.014699113403213792,-0.06852737412658141
0.374,-0.03974403714150159,-0.015785523445319142,0.02432569180905549,0.02778343059877514,-0.03375279495434913,0.003003360396474997,0.0006663187029761494,-0.05887698201759397,-0.08682218390429511,-0.11750040599883366,-0.016700765674014528,-0.07745630487652794
0.376,-0.03761932420211375,-0.01774768483732323,0.02014952733781818,0.02838129219652584,-0.030496491651669528,-5.536974210288468e-05,-0.003338500935350411,-0.060898277237232575,-0.0873128066865274,-0.11546162416597139,-0.018453378201247657,-0.08926208276393896
0.378,-0.025641205641636734,-0.012568015495691493,0.013349324380979266,0.02101107248583829,-0.020782440623718937,-0.0008406277319440684,-0.004720873379180755,-0.06164127701754975,-0.08706073015146419,-0.11440685871926713,-0.01973746090368855,-0.09838673484423015
0.38,-0.012949801484105905,-0.005149110188517289,0.008005707191879952,0.011432327564337267,-0.011420945906233597,0.000515398591984883,-0.0038388466173540966,-0.06220870141822834,-0.08694939133912911,-0.11610413980761938,-0.022676021963476706,-0.10035027173939148
0.382,-0.010426549932689034,-0.0004418792234837255,0.010011557060337939,0.007480819981824115,-0.01089984009103162,0.004130728189535337,-0.001368036554169615,-0.06238408031524079,-0.08627998111711155,-0.11954502069858154,-0.02806489253716477,-0.09324945075696747
0.384,-0.019499673326580633,9.23525722549893e-05,0.019498793999268103,0.011715331033497808,-0.020192298204135917,0.008987693009120877,0.0028100503089372483,-0.06087334251718689,-0.08428613557436344,-0.12196823520815211,-0.03270166702816002,-0.08158615583930864
0.386,-0.03157933837403654,-0.0015872410252388955,0.029947633059373775,0.01927445796988552,-0.031582334846988004,0.012913610597538077,0.008151211336175445,-0.05803506526465628,-0.08186700435208129,-0.12208412799210241,-0.03334193399172793,-0.07515318523332133
0.388,-0.03650462989626232,-0.003258641963387523,0.03339337567788371,0.023150966444141625,-0.035582665059500355,0.013289184784873783,0.012270422790287065,-0.056832418649096224,-0.08194387172841455,-0.12140611691158722,-0.03265318783381097,-0.08036356874161103
0.39,-0.031350068104472446,-0.005148622923757245,0.026572667424441084,0.021137750517754742,-0.029210406551722728,0.008693140717477846,0.012038408536193522,-0.05959179620994183,-0.08674985215795233,-0.12218531693286441,-0.03619656192520797,-0.09313556799110918
0.392,-0.022011203798077573,-0.007683937036372673,0.014762391938643331,0.016445911907032856,-0.018646025916593922,0.0017448493853118915,0.006902221745930855,-0.06433231421046005,-0.09387115013512079,-0.1248535968732907,-0.04311314891948403,-0.10244869569196048
0.394,-0.017613858781749446,-0.009452707259437846,0.008398911835289222,0.01394011173280221,-0.013839071113083443,-0.0019592120670735395,0.0010278905510018336,-0.06614989542806582,-0.09769048350460977,-0.12724424054012437,-0.04586338009014996,-0.10156456622281276
0.396,-0.02293458569011997,-0.010167417391417273,0.012748111551241075,0.01689118890788255,-0.0192671022289234,4.2617771239253886e-05,-0.0004651477326451173,-0.0628027284597113,-0.09601063275584906,-0.12661113743614466,-0.040876961520735444,-0.09415153988908521
0.398,-0.03399949106466312,-0.012021651127479568,0.021987664924455683,0.024094610060058985,-0.029478872072296932,0.004001385790324569,0.0022013207149809066,-0.05781979595512197,-0.09252485858853542,-0.12316977468847033,-0.03391055108626271,-0.08882647688056249
0.4,-0.04196342651306756,-0.01576944505818837,0.026598986310794225,0.030152832952294914,-0.035364974516043646,0.004803329486290431,0.0040329217631515,-0.056705057939289094,-0.09179337904700298,-0.11982458215590279,-0.03212629966146388,-0.08947795546726707
0.402,-0.04331720563011023,-0.018861543957238023,0.02525505552486957,0.0316577213245088,-0.03502693514334741,0.0024063844644981675,0.002381637739947184,-0.06026800797025146,-0.09402236086203565,-0.11830256483768675,-0.03554659964941094,-0.09264479322819337
0.404,-0.04230655119719635,-0.018695952230115994,0.024341534893336354,0.030457367671760754,-0.03413632713827494,0.0011870744785497315,0.00010089629803503474,-0.0638581779599584,-0.09581398982336012,-0.11827981790391165,-0.03964504898609497,-0.09377774736864362
0.406,-0.04099965792932744,-0.014687199278385991,0.026540986276002196,0.027956132723239626,-0.03487583991777611,0.0037480063159665814,0.0009531264172053452,-0.06387978354708702,-0.09505580129896693,-0.11937109790180456,-0.04213655846759251,-0.09289930791667923
0.408,-0.03596091540031297,-0.00785802029673274,0.027902127124006266,0.0225689009464721,-0.03305946086322581,0.008243318023477348,0.0050672581322123555,-0.06220018371209521,-0.09324779989371348,-0.12109116178459471,-0.04346764216338949,-0.09278944820872548
0.41,-0.02907511739338116,-0.0015959386544356785,0.02725690548203811,0.0163912820957795,-0.02899296916835623,0.011738267910634209,0.010137142516238644,-0.06213889866359332,-0.09220208584238838,-0.121845968090392,-0.04375538604829179,-0.09428788131170161
0.412,-0.029343068999638,-0.0004710725586066255,0.028886485859039475,0.01585360876884742,-0.029768697785506743,0.01332822725887933,0.013774548519607148,-0.06338551146422386,-0.09156592460590336,-0.12044403846375563,-0.04295907433438586,-0.09563910399629279
0.414,-0.03739599273194129,-0.005131170525171537,0.03251051863395769,0.021629233600348668,-0.03560793157487886,0.012819978047924398,0.013232179758196242,-0.0643697793656705,-0.09191188731314255,-0.11843181266492764,-0.042945585926721576,-0.09612770697995376
0.416,-0.04051953188733525,-0.011065567817740906,0.029818416469461467,0.025896006729079525,-0.035603185621866894,0.008688383415346144,0.006827090607936475,-0.06659252674317022,-0.09584196932724318,-0.1191337702716139,-0.04652926066701271,-0.09795876405897655
0.418,-0.03064342454423455,-0.01475320513695327,0.016125856214623736,0.02355557580658044,-0.023622592635394776,1.3582200724870312e-05,-0.002894449066928984,-0.07237442816396134,-0.10317669057848072,-0.12359221193092051,-0.05371989856843598,-0.1026032186788904
0.42,-0.017012972051636332,-0.017555975753825438,-0.0007723909717754008,0.01931593466640385,-0.008900311388931745,-0.010109622666652007,-0.010522262244273398,-0.07985566622047337,-0.10940182796354427,-0.12822430854451897,-0.06014405965441181,-0.10742635467171664
0.422,-0.013515007710278694,-0.021121256710677005,-0.008233300664746203,0.01964675414846643,-0.00443187778573507,-0.01568124016015886,-0.012479984059391973,-0.08367619457077667,-0.11061143566963828,-0.1281577951149643,-0.06106785240098741,-0.1086312134003115
0.424,-0.02137636654941942,-0.02327077378839339,-0.0022355751287028427,0.023775275653754206,-0.011668686074028623,-0.013552437671814138,-0.009372522670185457,-0.08105595057867485,-0.10684734057448479,-0.1234479750494314,-0.057114263937600156,-0.10608150590374403
0.426,-0.031686628495092274,-0.021537559125556306,0.010620002016530102,0.027046905950521335,-0.02263401598646397,-0.006389583038081775,-0.004806878767595249,-0.0749419980585143,-0.10052299352250256,-0.11918669151170806,-0.053142576650794186,-0.1028641183839284
0.428,-0.03895934153355209,-0.017198440335586068,0.022650211976994534,0.02835848898990112,-0.03187040590663637,0.001309453797000304,-0.0015972044778192983,-0.07009479277387377,-0.0941950232449803,-0.11831630785398077,-0.05161840369806362,-0.1012810509943935
0.43,-0.04361358188143165,-0.013343375721296673,0.030776735730563325,0.029423317795058787,-0.03857537765635654,0.00719691599169339,0.0010841738239162038,-0.06838422615737148,-0.08985779242883637,-0.11864176355009316,-0.05111021682370476,-0.10157036173432862
0.432,-0.04484532337181779,-0.011146931697268983,0.03367588170643161,0.029653002000276305,-0.0407755080045385,0.010271953404993707,0.005507281988009052,-0.06851376779549695,-0.08830922645485005,-0.11791861675017819,-0.05024132935425916,-0.10310923209755964
0.434,-0.04086538080137893,-0.009412539211612676,0.031444172294897536,0.02696956185373931,-0.037067713950010545,0.01064824982233388,0.010983617555668587,-0.06831674361310044,-0.08891582891448092,-0.11741230265025263,-0.049578494447791215,-0.10496060930633203
0.436,-0.0345465154711524,-0.006622043523778778,0.028259393572383426,0.022320011807489094,-0.03175232164314891,0.010620866115661381,0.013899722872430931,-0.06725704690234355,-0.09063627773301569,-0.11932792817740659,-0.05068719133548992,-0.10650305130120767
0.438,-0.030393738718040103,-0.0033154848952630968,0.027449473739653823,0.018889086795383016,-0.029369139470978377,0.011396224922135824,0.012228697432389008,-0.06702917112846564,-0.09284774703982566,-0.12313831067000663,-0.054081370024803434,-0.10753234346074896
0.44,-0.027761799917859046,-0.003095447602223629,0.0246230611432719,0.018042763736942604,-0.027085397905734068,0.009314285665858946,0.007312412922152685,-0.06959170314980029,-0.09568352841979255,-0.12612236098609567,-0.05815537637820399,-0.10770160664400853
0.442,-0.023388193809088898,-0.008808702372740977,0.014086036413942694,0.01870353477490812,-0.020164140142059802,0.0007857396279722025,0.0012626651670413144,-0.07480463827079324,-0.09964634219940087,-0.12734681490445007,-0.06144069184302751,-0.10793165853504873
0.444,-0.01825973193934288,-0.016846800920924696,0.0008775142522243955,0.01933987679890775,-0.011664550022332068,-0.009561535460538803,-0.004219319139729862,-0.07977675436382295,-0.10409212976262153,-0.12876566770766337,-0.06419463824118499,-0.11087331512516564
0.446,-0.016970999308445492,-0.020002709594584295,-0.003132938761680137,0.019566767121576695,-0.009484304490197104,-0.012452017191766637,-0.00749441336536452,-0.08180941828857627,-0.10756692248135129,-0.13169673874819426,-0.06700222978712807,-0.11779434294865425
0.448,-0.021006727508258178,-0.01646975678962822,0.004974443661790176,0.01987626927976904,-0.015250590814052438,-0.005974624761973789,-0.007850676504946703,-0.08190346465055214,-0.10963515789213851,-0.13437460669831994,-0.07000366744211457,-0.126438055941164
0.45,-0.026907352940378826,-0.011088818405791033,0.01641507012269349,0.02047417500761308,-0.022818947347350887,0.0025628438509789023,-0.0053064461351612045,-0.08204519400586445,-0.1098395321463924,-0.1333977558387921,-0.07217825229429704,-0.1314120115207616
0.452,-0.0318856708382257,-0.008191443814232818,0.02398052462693193,0.02157608943055937,-0.027976226326287497,0.007127504123562556,0.00022393897594781407,-0.08030032204244902,-0.10639663454458972,-0.12708616964638678,-0.0709191362997058,-0.1268661696243387
0.454,-0.03595834249371765,-0.006757583489288219,0.02909810190886807,0.022817336064806817,-0.03242784080202026,0.00941896563798924,0.007638377050722965,-0.07392148867375481,-0.09909958317507814,-0.1182650479918035,-0.06536777420326613,-0.11299415776557212
0.456,-0.037619847983589076,-0.0031150522076368267,0.034305538495601716,0.021871986389364037,-0.036924330951442166,0.013507142859967907,0.013725187779770468,-0.06589236469060708,-0.09164032522046293,-0.11299356355056847,-0.05900750930934373,-0.09930658139350088
0.458,-0.03427812897536308,0.002710256133603094,0.03694125167699743,0.017439780634272976,-0.03799446819049888,0.01838523768832318,0.015010180439402502,-0.06306545776678406,-0.08861913422570777,-0.11507739321381927,-0.056903883336023364,-0.09689783893514989
0.46,-0.028150288946768284,0.005524403444357693,0.03375752810310071,0.013128431086742973,-0.03403698352461921,0.01913604637125635,0.010542910512839093,-0.06857270356853813,-0.09181055275967627,-0.12250864275278672,-0.061567780144802936,-0.10755351823276851
0.462,-0.026050769807702948,0.0008332913294271387,0.02694923423258272,0.01459264519111049,-0.02929891950386711,0.013868733772562303,0.0032983158565834904,-0.07806918630937734,-0.09929811803373838,-0.12941678348770216,-0.07021882197949306,-0.12232740028429012
0.464,-0.03126218431367842,-0.009494373246709827,0.021776081495269297,0.022502008155978366,-0.02857976520258147,0.00600293833996747,-0.0017801356423375867,-0.08288856998706207,-0.10610944544239811,-0.13082686492918577,-0.07567820455076732,-0.1303208371060407
0.466,-0.03800017283918554,-0.01846075071896049,0.01965073944770963,0.030208770445662215,-0.03033951983314226,-0.00022464144049343375,-0.0024067481288688923,-0.07887579346017716,-0.10778179976721178,-0.1266427802384238,-0.07369727157089957,-0.12836901776006987
0.468,-0.03731227824433583,-0.020613996664586905,0.017166385961026667,0.030327075971660435,-0.028872142631091113,-0.0036164631047377878,-0.0009149333927461869,-0.07182745544485478,-0.10538823491778795,-0.12147750615484024,-0.06835144326499513,-0.12217048394897452
0.47,-0.028740187187015095,-0.01711163094245702,0.01254869860265317,0.023545084429320122,-0.023042748891650193,-0.004984267954544471,-0.0007000463796688156,-0.0702072462908636,-0.10378486552259987,-0.11977476952527258,-0.06610361295278602,-0.1185424228229641
0.472,-0.021647715212719874,-0.01349392634503333,0.009305576723528499,0.017984635591754044,-0.018556789044824853,-0.004619880038298449,-0.002248761336544278,-0.0748120698498745,-0.1043118281650828,-0.1218705225755746,-0.06760061286412701,-0.11875988037444497
0.474,-0.024025720139700824,-0.013291596731465396,0.011711933060431091,0.019617123730590446,-0.020820067966625125,-0.002099797484951531,-0.0037242833000072735,-0.07991102468331798,-0.10382276918631128,-0.125176074788757,-0.0692616006148851,-0.1198710028925125
0.476,-0.03406543805198571,-0.015233501412782468,0.019329483844139184,0.0262002854712153,-0.028750139817374714,0.002220245932542716,-0.003321015598165598,-0.0811115836777522,-0.10062827921856465,-0.12735835289110545,-0.06947294227316013,-0.11958059992018226
0.478,-0.04239193838690266,-0.015262832270964623,0.027146737115771757,0.030142764704001766,-0.03569335495815146,0.006910097794481667,-0.0003370007929154841,-0.07866024389389248,-0.09686379464641016,-0.127778798838074,-0.06948985973336087,-0.11862990071724358
0.48,-0.0406525998347809,-0.010723298960465345,0.029766126417299147,0.026112201912188014,-0.035307668671104575,0.010326057147929273,0.0035701758792698276,-0.07585740026375148,-0.0956708206885622,-0.12731223200071054,-0.0705186035124052,-0.1196565901235465
0.482,-0.030108419013828245,-0.004759867595598926,0.025376806399793166,0.01744144439832216,-0.027768404261479047,0.010517718353694635,0.004267930166807063,-0.07630939905821592,-0.09876459237322154,-0.12738113844826168,-0.07307512015238225,-0.12399353897102028
0.484,-0.020578705518946284,-0.004304632423127035,0.01664273315056162,0.013194077361377768,-0.01947034212471272,0.005997592046558526,-0.0008296578662489106,-0.08076485463691971,-0.10505115553748155,-0.12840897379284852,-0.07755587905099515,-0.12979664260875295
0.486,-0.01874413485267278,-0.010890143829965063,0.008371661489829109,0.01684808209378908,-0.01561067117873817,-0.0014157938209527297,-0.008750197770297284,-0.08600213854928188,-0.11067723385514566,-0.12915220197449193,-0.08295073050539163,-0.1339840950236452
0.488,-0.02245225459023874,-0.018217258475919557,0.004656640554544869,0.02282419673614276,-0.01610965442391526,-0.0067652875017881475,-0.013805631243361581,-0.08826950393105402,-0.11256883822913694,-0.1283086015938241,-0.08631216160595058,-0.1352161977959432
0.49,-0.02753524968722103,-0.020973291160764625,0.00696177170817628,0.02572607917955389,-0.019062833268946613,-0.0069847607226009144,-0.013954092857188061,-0.08682345332133186,-0.11124462964842345,-0.1261505014876669,-0.08495147284603738,-0.13434318761501257
0.492,-0.03280627678335846,-0.020309784812483148,0.013077954210178024,0.026438588460846953,-0.023487751198139607,-0.004021894942465779,-0.011662771234882387,-0.08340743818436303,-0.10883950961999897,-0.12370290249671596,-0.07910010697878096,-0.13308531367539697
0.494,-0.03787008079773188,-0.01884633897779934,0.01964591901519334,0.027705296624767308,-0.02879110234266426,-0.0008660214412325525,-0.009403351024959178,-0.08003861698876381,-0.10631195792867348,-0.12124074252379867,-0.07211823887072064,-0.1322234896234747
0.496,-0.04208757550539531,-0.015851944784338337,0.026527488343161338,0.02939377884880786,-0.03491799031009927,0.003404567505133539,-0.006470023735143614,-0.07720990256294788,-0.10350869122961348,-0.11838239592375464,-0.06757550472642537,-0.13052672771440357
0.498,-0.045348070796245664,-0.010665231197343979,0.03457140323340871,0.029953608482930702,-0.04132382066927201,0.010255327648584623,-0.0009861166972454085,-0.07415655202421717,-0.10080182109641377,-0.11549335293520861,-0.06694954421277467,-0.12701542910816116
0.5,-0.04730732869599456,-0.006232999525900867,0.040860550721433055,0.02910632000714884,-0.045453300109184504,0.016454614146448526,0.005577895208597584,-0.0713191623651521,-0.09959205348565019,-0.1141783194332539,-0.06990103090135086,-0.12346930053420929
0.502,-0.04740791511986084,-0.004730452849261683,0.042625490006719044,0.027346320517841874,-0.045879216122747805,0.018452461474162338,0.009039110689094347,-0.07030124409096242,-0.10064573678850272,-0.115386360475702,-0.07456786773594798,-0.1222722763336145
0.504,-0.04589842999858037,-0.0040138777850309715,0.04197304034532879,0.02485661125025563,-0.04478916028526673,0.017907844362716474,0.007875287583518348,-0.07137767374788659,-0.10280149253556285,-0.11790871463906928,-0.07845098584493838,-0.12369760558793788
0.506,-0.043658185919277524,-0.002175422851055579,0.04155364614288723,0.022298827200370408,-0.04414298966723976,0.017875183836713503,0.004659128751488811,-0.07329911151712556,-0.1039866291710724,-0.1196566827906159,-0.08031714280843713,-0.12647556673954466
0.508,-0.04201072945955008,-0.001134943676368637,0.04086188400115529,0.021294591558963856,-0.04346792557106307,0.01809449373693898,0.002634716597808733,-0.07469000524384056,-0.103127291505539,-0.11950298499388393,-0.08028104871234286,-0.12881386063352726
0.51,-0.04276468302882708,-0.0034955339354985158,0.03922397939203846,0.023248797235505887,-0.04290035836131997,0.016641395852177453,0.002572795058007087,-0.07501547374937682,-0.10138976013669909,-0.11792622023804136,-0.07900406491330801,-0.12960482477965107
0.512,-0.0461705166642968,-0.008710243587120896,0.037446268541559864,0.027702745395993694,-0.04342334114817588,0.013223544793132761,0.002531446229109822,-0.0749219741606249,-0.10129319395239379,-0.1166017294829186,-0.07779378108172577,-0.12988597633703786
0.514,-0.049155546473449385,-0.013208739740054374,0.035964742202108824,0.03183363751687782,-0.044070715537868725,0.009927101126192625,0.0006871980084442067,-0.07528759267377211,-0.10367928367340558,-0.1169360184897593,-0.0779962851888115,-0.13142945806734294
0.516,-0.048022523212855925,-0.013569865758331889,0.03446886018970816,0.0322945824790731,-0.04284108554069309,0.009311644746857048,-0.001912109320634789,-0.07628016279346629,-0.10619821744903485,-0.11864102543652354,-0.07945460298901498,-0.13385042140658582
0.518,-0.04225080636139884,-0.009420572653347255,0.032828186138142826,0.02791450033488516,-0.03928203627841581,0.011636537300901969,-0.002270354071982408,-0.07739396219704013,-0.10595416659744927,-0.12009607946092295,-0.08014886240917947,-0.13477977457468146
0.52,-0.03472061896458717,-0.0037520537026530174,0.03095874623123234,0.020981751302079982,-0.034525522846874816,0.014165136747202104,0.0009545233381734466,-0.07746072570858781,-0.10309863912057934,-0.12001829325631122,-0.07796567563741337,-0.13281484457993029
0.522,-0.029009256169441694,-0.00036992102448456807,0.0286357627479292,0.01577197087297919,-0.030130883760798255,0.01393420674567927,0.005765505368726439,-0.07524785251218732,-0.10024227366717743,-0.11814402357365196,-0.07303295551948026,-0.12909517041068952
0.524,-0.026450644630177267,-0.00019723511009977167,0.026257061569650183,0.01459612918279071,-0.027117518490983667,0.011296130324809897,0.009250278396543413,-0.07124227508065172,-0.09887396603922548,-0.11499424055191414,-0.06810345707611315,-0.12591517701894414
0.526,-0.026443207322581805,-0.0009378317785689663,0.02550906944562388,0.016127212845983185,-0.026204280720447806,0.009633222866302093,0.010352221682699753,-0.06826666271594016,-0.09838207266187281,-0.11211726253879017,-0.06615850181206054,-0.12532771013866081
0.528,-0.028809410806872923,-0.0010027219069834396,0.027806460287654624,0.018345069134519953,-0.02823645465944517,0.010987570170573493,0.009540579938578974,-0.0689342017054269,-0.09808999624492594,-0.11154111912512164,-0.06782619193658905,-0.12937992765447975
0.53,-0.03301333812500863,-0.0019072125472794053,0.031104000534612417,0.02086320133313171,-0.03226374715819034,0.013086076022854819,0.007308924094142091,-0.07283437674780625,-0.09849867470911924,-0.113862690169954,-0.0717378778539774,-0.1390312316121122
0.532,-0.035967994208420936,-0.005086736877142471,0.030880367056052606,0.023164474787420185,-0.034536585583628494,0.012386057972834309,0.003908720888610783,-0.07738220251429628,-0.10054175707353288,-0.11768393104203698,-0.0766709065980251,-0.1511514757762968
0.534,-0.034113792584043824,-0.008266845880305174,0.02586962076637633,0.02308270418286343,-0.03192970693456391,0.009014708893469869,-7.847544570944323e-05,-0.08058324472273723,-0.10416755357688508,-0.12144393929499514,-0.0824762915797334,-0.15860291306471094
0.536,-0.028795940064564932,-0.009202984592821147,0.019747047511377576,0.020407655739612143,-0.02594440539044265,0.00548025908994321,-0.0037591130871137825,-0.08224332492965568,-0.10801957544814733,-0.12455001516175267,-0.08919409106333044,-0.15627261791820196
0.538,-0.026611207101160387,-0.010570411257214639,0.016521469119339625,0.01956070435248731,-0.02194198885807003,0.0023790244370780773,-0.006771525146170319,-0.08340913099175518,-0.11086765665317132,-0.1262576069390333,-0.09548902580996743,-0.14732583680833466
0.54,-0.03094349897768161,-0.015072753779104917,0.01677356772050557,0.023397827714990594,-0.023292736328714633,-0.0006297304151727949,-0.009098150017042743,-0.08492295980983922,-0.11274646210620454,-0.12542086887325513,-0.09875296058079701,-0.1405331829227253
0.542,-0.03620475726608495,-0.019647416116129638,0.017715943767307448,0.027685061340000053,-0.026875376779640726,-0.0026698486630009977,-0.00969349762686592,-0.08649360614741032,-0.1139195862244377,-0.12211311749432731,-0.09795405822660787,-0.14054403494127016
0.544,-0.034921424614076546,-0.020011015597484715,0.01602176174853282,0.02691320446729528,-0.026731629970797244,-0.0033610940511731263,-0.007058778097909068,-0.08719798765864507,-0.11373943389697133,-0.11805100437969174,-0.0954099065280996,-0.14405607551123373
0.546,-0.02731847978572248,-0.01630561371823724,0.011847149250030472,0.021549506651362585,-0.02169675904953905,-0.0032420394318604445,-0.0021847757956893095,-0.08650734589041871,-0.11210426485950893,-0.1154752596565068,-0.09409864346519824,-0.14574023625298252
0.548,-0.020387496985665582,-0.011498587786010926,0.009332379862310369,0.016459394653681566,-0.016836083720039596,-0.0018432611326441558,0.001143552632313148,-0.08460527228937359,-0.11050620871183141,-0.11550808036503786,-0.0941351631756077,-0.14411145114157106
0.55,-0.02069834532381185,-0.008627185809349187,0.012138046608533785,0.01604553263574199,-0.017959374852575687,0.0014291441762137663,0.0008441091838732023,-0.0818728150035192,-0.1096869732425518,-0.11606977368460582,-0.09338406321678067,-0.14124610921538197
0.552,-0.029845554392373595,-0.010046024225791953,0.019667340197163367,0.021750024682768695,-0.026189050572992922,0.005036660087580962,-0.000779624599602618,-0.07884047648521317,-0.10852113016871003,-0.11315825850315708,-0.0905107571587629,-0.13963315465104598
0.554,-0.04331252378824452,-0.015519643504310343,0.02768860563054054,0.030892423439611152,-0.03682057880886802,0.006362606006627142,-0.0004365479497806439,-0.0763276946535469,-0.10621869669835668,-0.1064853816463307,-0.08590953847342443,-0.13970629552436367
0.556,-0.05264733021925914,-0.0215472050063816,0.031112055202922793,0.03787211293011203,-0.04272229599181717,0.004169098651246379,0.0019295676945860613,-0.07485580706031465,-0.10348010273668488,-0.10128468671232772,-0.08112253467562015,-0.14000333331186027
0.558,-0.05169108132778817,-0.024855869990732575,0.026916940828973484,0.038587190611529064,-0.039757796430235755,-0.0008704760909645019,0.002931499533794837,-0.0748536544115217,-0.1020980682834464,-0.10234931893192263,-0.0787634775768216,-0.1403405773610199
0.56,-0.04178905463166117,-0.02471923799228391,0.01724552741391811,0.033501232310109305,-0.030214017913272703,-0.006184583733357325,-0.0003794944363847677,-0.07682708882724362,-0.10384078374529296,-0.10840885539433683,-0.08062137915341476,-0.14275285131809978
0.562,-0.0302397188497014,-0.02145329878209839,0.00924570592596888,0.026378823199705914,-0.021180492769338144,-0.008015652032972146,-0.00628294975961844,-0.07987623753648705,-0.1079534284828027,-0.114236306436544,-0.08491479140482125,-0.1477419158727841
0.564,-0.02384684709466223,-0.01594478862178236,0.008761055160868858,0.021174799630913135,-0.01833435866234324,-0.004687537359054403,-0.009734706270728335,-0.08164178968637953,-0.1108429462587474,-0.11663693387709813,-0.08811144044834691,-0.15249094009514327
0.566,-0.02386445494593825,-0.010163701186320078,0.014707296187221346,0.01937195735575221,-0.021255397322130252,0.0014900486959179727,-0.007873100285608019,-0.08093873514292295,-0.10980093210065875,-0.11614967695738902,-0.08932255585080634,-0.15406517575683995
0.568,-0.026318460468648906,-0.00535354397509462,0.021608085091851446,0.018971311878421507,-0.025342171393931176,0.007233972853616742,-0.002275152583790344,-0.07926587957522789,-0.10602353081594001,-0.11426339645009972,-0.09036430257619162,-0.15265467454823733
0.57,-0.026544130815224193,-0.000747413649912501,0.025733028892559393,0.016620804585294295,-0.02684795468525055,0.011598043349096821,0.003236127787058241,-0.07888704354184033,-0.1030078797092834,-0.11180118412116942,-0.09230639585965777,-0.1512585837234161
0.572,-0.02362571400084389,0.003945999277046283,0.026874023685520974,0.011885879858155132,-0.025607180704551032,0.014933270553121306,0.0054581134959095215,-0.08025781546345903,-0.1024891356886802,-0.10983529394434711,-0.09455115405034499,-0.15238036967988314
0.574,-0.02107541860998388,0.006020882250910218,0.026178356668653396,0.008947991737208297,-0.02433784594266845,0.016307458524380588,0.003758524611831953,-0.08252610372910776,-0.10360375058193981,-0.11008729698279285,-0.09682099519347774,-0.1552757930656482
0.576,-0.022755010772688964,0.002500988060447554,0.024639048835750098,0.011952439196136741,-0.025443117112174327,0.014214246496959487,0.00013161842286804935,-0.0853227242456412,-0.10565692353518243,-0.11314846040289249,-0.09949421388287925,-0.15732960423036169
0.578,-0.027984465336446003,-0.0052524383410501255,0.022762837150479758,0.019075357320941268,-0.028067095561379252,0.009048902164259146,-0.003562308038883237,-0.08850647533998121,-0.10877102806078251,-0.11683829260782892,-0.10191915753765869,-0.15776447568034038
0.58,-0.03174267456010321,-0.012423393517797433,0.01997979683992636,0.02406844772964666,-0.028692183447041417,0.002916212687406888,-0.007363692936798237,-0.09128521093161861,-0.11193976181876504,-0.11789072932986934,-0.10246420845644112,-0.15826808279332527
0.582,-0.0301117223081097,-0.01545073523599694,0.015598358632549705,0.023354021974588093,-0.02509099438785158,-0.0018722844360308175,-0.010893246475385176,-0.09242464473811826,-0.113241326157234,-0.11536994424341404,-0.10054598185345529,-0.15992205363600115
0.584,-0.025113999770154494,-0.014469945660477832,0.011455306093835233,0.019536222764691524,-0.01972627445883783,-0.003352975880727503,-0.01226065426951188,-0.0912375262419513,-0.11220599548627161,-0.1115232995612571,-0.09756178254839659,-0.1616918225598356
0.586,-0.023106312425365833,-0.012284269300840532,0.011414084157928588,0.017926549881669276,-0.01812895679504525,-0.0010898611884200822,-0.010830860550440385,-0.08850267692817627,-0.11060014546704076,-0.10945100098088721,-0.09571462002572897,-0.16232335951667473
0.588,-0.027858262811978698,-0.01143592361303177,0.01696546821158657,0.020645931529390104,-0.023112625542799917,0.0030009708883812496,-0.007756718504790525,-0.08537605879699281,-0.11010211395077807,-0.10999611284833592,-0.09582887208477878,-0.16126158778064562
0.59,-0.03621097594206344,-0.011764757072982163,0.02495058356895055,0.024782230804692367,-0.031423714155707834,0.006583863266384304,-0.0034467069154455717,-0.08155248699419099,-0.10948150476536321,-0.11069904118063928,-0.09636792474720171,-0.15791198584341792
0.592,-0.04075968342093075,-0.010787526957618187,0.03024288639691013,0.025652975549906063,-0.036431393763642725,0.009089922588416862,0.002091003834252725,-0.07684650498310694,-0.10631933536338618,-0.10881389458231962,-0.09592353634600537,-0.1531883814856339
0.594,-0.036718774474263575,-0.006995202061688376,0.029783957395339813,0.02138767601306401,-0.03402001264163972,0.01058895337485459,0.006557481931897186,-0.07391883975073837,-0.1020272134791123,-0.10524343591167236,-0.09603222551648807,-0.15089681735298602
0.596,-0.0265957518564612,-0.0024323715949649176,0.02431978191535537,0.014850261206272296,-0.02611539784663059,0.010031983514554131,0.006466299513407483,-0.07588263091370147,-0.10155263799852235,-0.1035294682978246,-0.09907244713578196,-0.1540445294563772
0.598,-0.01759951198000659,-0.0006574931154270864,0.017311364402135893,0.010824309768966327,-0.01834145301564018,0.006884208785196449,0.0014181573558073553,-0.08154400812311018,-0.10662961803623992,-0.10528528917241449,-0.10447433128215204,-0.16076523833925968
0.6,-0.014624280521913046,-0.0027672035547409045,0.012199244198399945,0.011328306138724905,-0.014659179249098703,0.0028010970145143496,-0.005380047701248445,-0.08664307875146901,-0.11277700431953352,-0.10894857280924852,-0.10956644508289697,-0.16655668446775296
0.602,-0.017701221886492275,-0.0067578750475050745,0.011109207215268847,0.014778799648122695,-0.015762357523564207,0.0002830831636836623,-0.010264481051781137,-0.08894033120065921,-0.11478437083148495,-0.11209743699524946,-0.11254305829261303,-0.16889102821937127
0.604,-0.026499988970306764,-0.010498479173217824,0.016199045719433296,0.019992315603100462,-0.02247382646507875,0.0012991807028110076,-0.010456445574633676,-0.08883236597033624,-0.11230279508235487,-0.11246129425829868,-0.11237705177609315,-0.1677719872204603
0.606,-0.04191416159121722,-0.014111038026750705,0.028258234305584266,0.028151691416367957,-0.03581170796157206,0.006151396121419302,-0.005432221805168401,-0.08719345685351991,-0.10861114331544167,-0.10876017522257259,-0.10852186746152835,-0.16438621300892037
0.608,-0.059692858429687704,-0.018255015011116642,0.04205320435151563,0.03837929527366343,-0.051283553280184406,0.011911525129436164,0.0004915049777977526,-0.08519064864461576,-0.10633304417883012,-0.10306510705406588,-0.10300668530908648,-0.16093791651733538
0.61,-0.06983080097795537,-0.021512854588861312,0.04878413921162495,0.04543813465273791,-0.05978567116060169,0.014365881565204063,0.0014986051669494177,-0.08391544206031386,-0.10547382869870672,-0.09959530757208211,-0.09969469380777106,-0.15955265686428713
0.612,-0.06696962820506695,-0.021273349383132308,0.04582180398477746,0.0449133429261951,-0.05740560915967063,0.01301779149097335,-0.0021383122486895055,-0.08346556542125125,-0.10462094390406415,-0.09982690074986157,-0.09990403470607509,-0.16038842053188518
0.614,-0.05545136695565567,-0.016363860488401764,0.038968509453157225,0.03744395815928635,-0.04882818929782443,0.0116550171085557,-0.0045358337147141745,-0.08367132297113945,-0.10346140117671782,-0.10164935923872115,-0.10163154476873347,-0.16225064174260445
0.616,-0.043210554864396365,-0.008649244821792308,0.03443865360068589,0.02758236646845021,-0.04078959604922297,0.013084650398856496,-0.002472195546737893,-0.08424306490117575,-0.10302915349638124,-0.10293108702089757,-0.10288062584938185,-0.16461738688064034
0.618,-0.03537591558551345,-0.0021080464198473085,0.03326650265122325,0.0204059277218887,-0.0364601216198192,0.015969226067461133,0.0013231906789411903,-0.08378353849476762,-0.10347280551805879,-0.10291801156400952,-0.10301343263141381,-0.16721940289713288
0.62,-0.032948231595899144,6.191807139687672e-05,0.03307357393275016,0.0182159395091035,-0.035094392117395456,0.017179908681038365,0.002652245022736458,-0.08168242838263241,-0.10407772449793776,-0.10165996111534269,-0.10244697429420671,-0.16874754219049348
0.622,-0.03470480078232042,-0.002939249588752062,0.031796628400824284,0.02017088090190126,-0.03468890696668165,0.015045658794601352,0.00019153380798107194,-0.08036231539984726,-0.10529098826419546,-0.10028953436994159,-0.10279835383342402,-0.16843609432570644
0.624,-0.03950494326068341,-0.009773047303731665,0.029712518110079796,0.024882667551749872,-0.03496305136542183,0.010400247463061597,-0.004072569494570443,-0.08196593995542616,-0.10774921693886313,-0.09992766550704554,-0.10516391143563816,-0.1676236202871739
0.626,-0.04714583004029644,-0.017883368846459073,0.02923637794027792,0.03209131947857383,-0.03788255251831078,0.0056512833322199234,-0.0071889885064740765,-0.08473555634152265,-0.11004694814094527,-0.0996895832829495,-0.10816163390971932,-0.16778328112432284
0.628,-0.056805897440802236,-0.024188626583009392,0.0326153824791285,0.040767105249302445,-0.044738793805857935,0.003252887477197824,-0.008040370812461957,-0.0857308959504239,-0.10999442640127681,-0.09775021851925512,-0.10953844307465838,-0.1688877831513184
0.63,-0.06336723917129378,-0.02522413719165603,0.03817835505227743,0.04587038448232774,-0.051639027697387284,0.004409358284237046,-0.007751779579925526,-0.08519588634935436,-0.10764914180583275,-0.09453375766088387,-0.10939271606819824,-0.1711162336278923
0.632,-0.05880430435792437,-0.019330444306643782,0.03961255961156536,0.041113177881826515,-0.05033092621879568,0.0077487826734231775,-0.00794454685849102,-0.08622181390695853,-0.10590786684927371,-0.09309819447762506,-0.11045297747549528,-0.17534670810806577
0.634,-0.04304497283776424,-0.009935816843802254,0.03343283686157544,0.027894600233165253,-0.03872603372297451,0.010339511787899058,-0.008994553031845388,-0.09004240427124406,-0.10743474920582256,-0.09518613105670132,-0.11416860151569318,-0.17993872022758015
0.636,-0.029339219267232628,-0.0037957742505205306,0.02596023606401897,0.01719060978791997,-0.027627912032779627,0.011177646148950933,-0.009560686008944648,-0.09328956161047856,-0.1110769445804022,-0.09848923958549416,-0.11804765104904649,-0.18031560830987642
0.638,-0.030136628235502484,-0.004047077206187438,0.026344354822595,0.017560076514275547,-0.02890504828526842,0.011821816826422284,-0.007895733435756735,-0.09180937155716862,-0.11267834602762221,-0.09949161097624779,-0.11880236280269757,-0.174081947804963
0.64,-0.04062695815321424,-0.006324038883646254,0.03428006673963045,0.024178455313715024,-0.03956300007743009,0.013709141078565851,-0.0035618265122706345,-0.08602164256474282,-0.10979895826966601,-0.09740275848942255,-0.11631655441103425,-0.1643163302341477
0.642,-0.045385275021111116,-0.004624908765615953,0.04061631916770348,0.025974722602055425,-0.04580828918946795,0.01622156021029105,0.001725343292694553,-0.08084656413435838,-0.1050843667523291,-0.09473811719444662,-0.11379105216957247,-0.15770501177731247
0.644,-0.038769474323221496,-9.074488364308699e-05,0.03861480993599228,0.02092536822352461,-0.04087545872086166,0.01693433266836362,0.00439600782007218,-0.08049399040500277,-0.10413226878687411,-0.09498023684704462,-0.1152711142317859,-0.16025498946301667
0.646,-0.02978139346004704,0.0008425786337788749,0.03066881109193439,0.0166839948832971,-0.031589878035316515,0.014211468070238589,0.0016063787437999002,-0.084248309269165,-0.1090590364420718,-0.09846827133680776,-0.1213695470976222,-0.1724926572262039
0.648,-0.028378341125710367,-0.004159989574678495,0.024274537337002692,0.01861322856352072,-0.027828720655012122,0.009628005036339475,-0.005564067058976948,-0.08823455388521223,-0.11557321447060497,-0.10132211755363356,-0.12733048179354875,-0.1883170558171015
0.65,-0.034537231640470054,-0.010764447409797751,0.0237755387836413,0.024214096386685213,-0.03123396866815225,0.006574136011834636,-0.012271858893426415,-0.0896479193853448,-0.11762483458230306,-0.10053306252478092,-0.1285283561209726,-0.19943767467291137
0.652,-0.04093400422482293,-0.01340212476214592,0.027502684005455146,0.027806067932405268,-0.036051084080144,0.006925751742089326,-0.013761892863561938,-0.08793176341432708,-0.11372297129371314,-0.09791603335826755,-0.12683468050872093,-0.20045167337004766
0.654,-0.041182835838801855,-0.010019030785180072,0.031148358826730782,0.0260636298063064,-0.037004822965351875,0.009773360238741726,-0.00970176882014824,-0.0845571072583466,-0.10841271571958291,-0.0972841472266763,-0.12794476193376522,-0.1918489618244691
0.656,-0.034561235374446525,-0.0032497902911802073,0.03134192057972065,0.01998602847714145,-0.033237106133043086,0.012413308853453863,-0.004540310188187522,-0.0826096818929355,-0.10754301479265187,-0.09994368964789342,-0.13362834092239173,-0.18100144346357128
0.658,-0.026164825426149004,0.001210311217930523,0.027518952107327715,0.0142874223642218,-0.027293648924470518,0.01233598387172392,-0.0025514419898496113,-0.08407956186268803,-0.1116213367880697,-0.10371439348944023,-0.13951134473108026,-0.17705930407551346
0.66,-0.021951562493136175,9.98545568349486e-05,0.02238014847476159,0.013033205102983047,-0.022696227773627304,0.009618608359018191,-0.0033013142208833356,-0.08742422503056677,-0.11533076295251231,-0.10531646008888843,-0.1400746279530744,-0.18110781460059008
0.662,-0.021269094616314828,-0.0027991257520189818,0.018886380474619473,0.0141579687176205,-0.020472292900278723,0.0071752928393254345,-0.003463715894860359,-0.08954996229336375,-0.11423714515548224,-0.10383048489924926,-0.13486963220281298,-0.18525195375500342
0.664,-0.017477583840183674,-0.001371384451895649,0.0163580657783878,0.011650991918746849,-0.0177102269046752,0.00712287895064141,-0.002104605308825998,-0.08957246986093466,-0.10951423581116383,-0.10143366760886594,-0.12920062603212387,-0.18410093820701875
0.666,-0.008459555910957787,0.004313646492745817,0.012749153890907148,0.004326469227787542,-0.012244811909030786,0.00832941229051284,-0.0016084472292991086,-0.08874109762463547,-0.10525018474477167,-0.10009070917018126,-0.12765317211588503,-0.18081125718063412
0.668,-0.0020819014798144513,0.008675466072277073,0.01059241258537592,-0.0013654284233396109,-0.00814704472726855,0.00934334803738491,-0.0033874066509569775,-0.08770786091829137,-0.10356472785942947,-0.09874638892350837,-0.1288739601775414,-0.17959997559986893
0.67,-0.006983006250436481,0.009153929970925631,0.0159428464423401,0.0005872092749016193,-0.012531269103214681,0.011911229906406057,-0.005308131402463919,-0.08588340614886988,-0.10307879561237394,-0.09469589785587747,-0.12877183544133028,-0.1797630596433506
0.672,-0.021315170664897392,0.009927696527578292,0.030938331612544397,0.007709681852992903,-0.026800722828435004,0.019493069632843453,-0.004113073530018404,-0.08215942233443542,-0.10069327175849525,-0.08691813691232735,-0.12592026526881747,-0.17941462549848441
0.674,-0.035412592557979294,0.015220677710885267,0.05015684197967088,0.012729318893476,-0.04414090055401992,0.03174062373491689,0.00040174662007979364,-0.07590147558907998,-0.09540435911341176,-0.07777781252388093,-0.12192495502703636,-0.17969675221887974
0.676,-0.04188362348916649,0.022518014979828683,0.06397439513359379,0.012372820842501851,-0.05510051671302719,0.04214458972441713,0.0043544455312068,-0.06903283067007562,-0.09038352739913764,-0.07162442398629627,-0.11914660555193285,-0.18269056878499318
0.678,-0.03905668082787757,0.027042552759151073,0.06613204627347953,0.007958353114000592,-0.054650345819758125,0.04474739792661564,0.004507581200525121,-0.06546619713034363,-0.08906410137794397,-0.0711248844508079,-0.11922323800085219,-0.186625386085047
0.68,-0.02946816658965094,0.03006633521889957,0.06013765432078854,0.0007375197396421456,-0.04606363759960879,0.04239257263605326,0.0030571741137693205,-0.06672625025812605,-0.09054078151870772,-0.0746805943237676,-0.1220930438012359,-0.18609103475423827
0.682,-0.018602300954148356,0.037153959145547144,0.0563785870391878,-0.008617534204076292,-0.03820511872010019,0.04381339323592528,0.004931005560948101,-0.06987993475388854,-0.09146315666891017,-0.07777015840169386,-0.12539136835956813,-0.17899262624523152
0.684,-0.011412363548440932,0.048859012416812946,0.060154539299256106,-0.017765958783713,-0.03663987066384113,0.052100946695226254,0.011151380567199795,-0.07063651160122353,-0.09037423600471467,-0.07719124943380853,-0.12624968865715525,-0.1706378320339943
0.686,-0.008081868409758497,0.057967241361949265,0.06513565427263009,-0.02350510088664678,-0.03807078762060315,0.059995224016547825,0.017226427561733586,-0.06791003859224065,-0.08818610106017293,-0.0738750786640389,-0.12495229770421015,-0.16796233705472757
0.688,-0.00666355367746519,0.05755723541125306,0.06327918626039178,-0.024099531509064992,-0.03705342487649331,0.059226480610126905,0.018699730009400777,-0.06434024607036475,-0.08562240046361905,-0.07055998670396295,-0.12412333915680186,-0.1717012036382804
0.69,-0.009354520751881472,0.048760755439893756,0.0578378942139037,-0.019149064982003323,-0.036036296095286066,0.051692461203957873,0.01674296965236702,-0.06156907092978845,-0.08175877272119683,-0.06725347772473515,-0.12314122069002705,-0.17631375711065528
0.692,-0.019030129881186342,0.03906058706659714,0.05840146284593235,-0.010061696794909815,-0.04127050041995802,0.04674552216732934,0.015934493907395028,-0.05770268972094706,-0.07600480288743282,-0.06198298999772376,-0.11825274840867829,-0.17593565167209757
0.694,-0.030840237618128184,0.0340902291282804,0.06535291168197939,-0.0013232469123201256,-0.05046870046201599,0.04834635396799731,0.017446222309850486,-0.052013808649914374,-0.07048618566288131,-0.055800254082963754,-0.10994783975753676,-0.16964746542199952
0.696,-0.03662763265760504,0.03218571862829404,0.0691335885876263,0.0032912315477495783,-0.05449992377069699,0.050469049722164906,0.01808191489042535,-0.048152766556291735,-0.06799358395961988,-0.05202971672426135,-0.10424896238223319,-0.16219425378255434
0.698,-0.035458634274514816,0.029084101737171266,0.06480656020288213,0.0045856762848203335,-0.05065092397975492,0.04717674329774747,0.01671904637634191,-0.048355387002544485,-0.0677949601073674,-0.0500186866335153,-0.10396724684745093,-0.15840481607279674
0.7,-0.030872007082328377,0.02639311441305124,0.05744845571950397,0.0037012904247663526,-0.04415984739593691,0.041413344478716675,0.01727387605262291,-0.04865089165221497,-0.0662966688537431,-0.045481083259219755,-0.10445701308222578,-0.15704879983640385
0.702,-0.02150255966194647,0.029650815208360475,0.05120123820828854,-0.0022339398218096584,-0.03684080056443749,0.03897868495879741,0.022178089306964514,-0.04477030105872794,-0.06218606385413989,-0.03786144303185119,-0.10146692784627773,-0.15447573454806102
0.704,-0.004257013649315635,0.03851949466437688,0.04282591707245423,-0.01481410094156605,-0.024684844153970015,0.038947325715075275,0.02711844080831614,-0.03890833335245315,-0.05819730602386297,-0.03204143446915358,-0.0979263963674433,-0.15200611981927512
0.706,0.015258250639831553,0.04573865322895125,0.030746982479762257,-0.02822572968697206,-0.008805083201676975,0.0367081331241448,0.026464432291364356,-0.036082071545490896,-0.0570271332592825,-0.031716373779690304,-0.09882244269285756,-0.15255010596892815
0.708,0.025949688270314457,0.0479319163291058,0.022417259238652183,-0.03531871962238967,0.0011022497550414246,0.03364680074951723,0.020961742697416942,-0.03692760843000383,-0.05780819015758889,-0.03460176290737683,-0.1033884424893954,-0.15374943364256677
0.71,0.02525855569191763,0.05059426728794397,0.02565222158601054,-0.03716511789120141,-0.0012146973071542225,0.03629558614563338,0.016339845731143002,-0.03835389622951705,-0.058067858548581826,-0.03586989800128102,-0.1066210705047558,-0.15194089811137512
0.712,0.0208813009688617,0.05807743788431298,0.03733596624912528,-0.03921792354375552,-0.010363772102843886,0.04582443074144098,0.015410651390761507,-0.039548794078760066,-0.05750808649611404,-0.034635352400671525,-0.10597799973296362,-0.14878847205388468
0.714,0.018409618224150402,0.06587692102388727,0.04776494106071945,-0.04149191148852301,-0.017533617310527334,0.055429457643541916,0.01471675107017461,-0.04296160543468627,-0.057836518109396245,-0.034037207941021864,-0.10314076219359208,-0.14836711871714486
0.716,0.015139905727999494,0.06689925038895231,0.052432163461976204,-0.039417933262210714,-0.021038348299103195,0.05870750768706311,0.00925894008652723,-0.04986413904609204,-0.06024135620070723,-0.035802925496111096,-0.10117438955133085,-0.15129298344441033
0.718,0.007982636919219643,0.059310937185553685,0.052054224594385703,-0.03174685326662706,-0.02330770666763142,0.05451012984802632,-0.0021295593789695958,-0.058481160827829115,-0.06479717365202987,-0.03863676924459894,-0.10210172669959508,-0.15522830993868342
0.72,0.0025634222600442085,0.04701650110931165,0.04474777953850395,-0.023588313067467146,-0.021496491928440085,0.044181195726890485,-0.01615097213041161,-0.06583942389620592,-0.07075626591478101,-0.0408365867415419,-0.10547789115999653,-0.15806927930028586
0.722,0.008421527307436323,0.036090607141337494,0.027502890873695316,-0.021550222686396264,-0.009517731642039777,0.029841090492392183,-0.027719214259893824,-0.0696316964541552,-0.07614908728998751,-0.041417961289596565,-0.1088978735367783,-0.15861669434513642
0.724,0.024830106207296983,0.0301937970427712,0.0051219715447392965,-0.026315395572146683,0.01008955792439332,0.015884388162559486,-0.03354230378548796,-0.06976819303604831,-0.07866988431866494,-0.04052097026486479,-0.11103854187794782,-0.15670225818591793
0.726,0.03803880281496591,0.0287153625319161,-0.009359028082380877,-0.031484480526471244,0.023899746555810324,0.008419999006351996,-0.034311229523747856,-0.06872083371820957,-0.07827336341661241,-0.04017424281560051,-0.11308068149699939,-0.15376925365826358
0.728,0.03564340170729038,0.02962237073250174,-0.005909490159381254,-0.030631934874195563,0.02051023802621852,0.01109499110038312,-0.03287591866339605,-0.06865120549814638,-0.07733900810786924,-0.04225390780948225,-0.11604889902486533,-0.15138923495079376
0.73,0.020013789711223463,0.03207003305129557,0.012129208209937977,-0.02421065774976914,0.0028552505905470177,0.021385581984578645,-0.029860035931223036,-0.06841709743451062,-0.07680728348082537,-0.04535128702516694,-0.11823761943955195,-0.14913543303403654
0.732,0.005245394297003608,0.03509550587442689,0.029846570371011426,-0.018293433484894643,-0.01411385866755446,0.031397237963095063,-0.023788022590307434,-0.0659025530675328,-0.07517513370749579,-0.046459931543357015,-0.11765438197123038,-0.1463437152435589
0.734,0.002060147059666179,0.03594382793921121,0.033963160946964645,-0.01698848532391504,-0.01788809002889133,0.03360474826507515,-0.016328266294032986,-0.06308577099385594,-0.07313804390709798,-0.045894409680893235,-0.11633090154441046,-0.14550186797957398
0.736,0.007044040771666208,0.032028783420448535,0.025279351859905364,-0.017733127907391438,-0.010470833458129257,0.027408517352338513,-0.012687536532132533,-0.0654070584706398,-0.07480824295656045,-0.047851892333596394,-0.11876625246984522,-0.15048158757942842
0.738,0.00809949977387805,0.024302957465912597,0.01651781719424903,-0.015084171801666331,-0.00479872712377743,0.019384632986333864,-0.015215625407691478,-0.07541482992034879,-0.08233142605546254,-0.0554849350870357,-0.12605641430592773,-0.1612988360161772
0.74,0.0007911991523193649,0.017121529330634145,0.016275396583361558,-0.008429557563142972,-0.008068720561570186,0.015503684932149401,-0.02065650210089361,-0.08942189796852144,-0.0932103913384797,-0.06737471090389763,-0.13516310059140507,-0.17349585531074244
0.742,-0.00620199644434582,0.01358309068769209,0.019332313302051183,-0.002843828334011915,-0.013281580175006987,0.014575741272060736,-0.024884366570180224,-0.10113118856105656,-0.10403850912498748,-0.0796185893188716,-0.1443708887651837,-0.18321839375399634
0.744,-0.006354963808091571,0.011610140546454121,0.017552374002278173,-0.0006154788148600857,-0.012461032776286962,0.01198290753073372,-0.026935839549740118,-0.10699259643999394,-0.11339316061348315,-0.08916959696999097,-0.15533334409323785,-0.19056986083811234
0.746,-0.0070777923993605016,0.006983664625332757,0.014042865853623738,0.003016030306341402,-0.010668079588344771,0.007789677302893569,-0.02705877600091944,-0.10744544054435215,-0.12049735828621841,-0.0945705640159703,-0.16813074360118227,-0.1969572727468901
0.748,-0.016978077566982316,-0.00047789440427917576,0.0168501549972969,0.011576639785091178,-0.01668430341616721,0.006055839878556997,-0.024242686894015278,-0.1049120815887495,-0.1246054920642989,-0.09649915347684619,-0.17848389235653855,-0.20190501190804877
0.75,-0.030658687842182352,-0.007152971845019336,0.024066064022059533,0.020717234408624084,-0.02733806673106383,0.007159608601741658,-0.018221760101030594,-0.1021083266598714,-0.1265716531356841,-0.09759915722005372,-0.18249863765675617,-0.20429956958808138
0.752,-0.038326585102156197,-0.011472304901104208,0.027428277772340522,0.025786454578861886,-0.0337374643218196,0.00716729630671975,-0.011498062549563651,-0.10083184750913696,-0.12787084839475377,-0.09884532936762531,-0.18096938989052072,-0.2042589349532393
0.754,-0.04211951476595117,-0.015370155995811737,0.027011568404366304,0.029744992003948357,-0.03665795146954002,0.0050991317396849485,-0.006718026220163804,-0.10057354882745612,-0.12770028197985095,-0.09782820982315633,-0.17726641810796345,-0.20251311518187803
0.756,-0.04905477694730271,-0.01897806465533867,0.029843769327262216,0.03582720640855542,-0.0424350033122174,0.00472276917242608,-0.0039114570866590394,-0.09901043875075628,-0.12467541380523026,-0.09355827066733954,-0.17422533918996927,-0.1998534996361714
0.758,-0.055612656758431696,-0.019747927208214902,0.035345814904420396,0.03977187885772987,-0.048503931398423315,0.007104337070492974,-0.002853671582232379,-0.09562496911369042,-0.12131311461833065,-0.08984483704125724,-0.17411196396905057,-0.19760993893142684
0.76,-0.053345070292785596,-0.018861811000753893,0.03402322486251889,0.03757573310540163,-0.04588444857620139,0.006836043168436424,-0.005461665140132386,-0.09382193694374696,-0.1222935185583885,-0.09072458882417594,-0.17815971320436147,-0.19734634607875895
0.762,-0.043646007273746436,-0.02063967679652994,0.022814071856451828,0.032988762547954534,-0.03410710450650752,0.00016845173862105138,-0.012250303076439302,-0.09663952656732208,-0.12792188116241382,-0.09530867143923144,-0.1844397929425713,-0.19964424505170722
0.764,-0.03691827493787794,-0.024971781747362354,0.012033422300101243,0.03193912696878005,-0.024156283099912326,-0.007834093539391889,-0.019539936332596635,-0.10200906984387179,-0.1335227374755798,-0.09964270666483895,-0.18869353206317918,-0.20376825932213793
0.766,-0.03963379125232388,-0.028196682128603198,0.011565377348034691,0.035469796837682595,-0.0248793446833628,-0.010256803049377258,-0.02405722722491619,-0.1061925968401972,-0.13603387599912178,-0.10168931151904254,-0.1894082026170457,-0.20867340146768987
0.768,-0.04609808604649366,-0.02937558124920539,0.016625550770689876,0.039255085306992364,-0.03131108758917264,-0.008576783921941817,-0.02691147430894493,-0.10949580475780189,-0.13716573599325527,-0.10234527187752397,-0.18967822422730113,-0.21356347824325433
0.77,-0.044787956017461286,-0.029564803077493637,0.014964725517979682,0.037783192301701005,-0.03119819327389932,-0.009438783729851144,-0.029829155279799555,-0.11359869462214515,-0.1384817966333273,-0.10228302730931915,-0.19177500944098447,-0.21724351278837717
0.772,-0.03285619956360162,-0.028137032623278886,0.004552799640241367,0.030214338668702406,-0.02113986931732103,-0.01380092559714302,-0.03113327519343234,-0.11602420924956283,-0.13799027953721618,-0.1006051368255836,-0.1934520559032991,-0.21800871310820313
0.774,-0.019668569053739156,-0.024519696173083624,-0.00492382023571034,0.02186942220604509,-0.009792143842816296,-0.01632163070203209,-0.028636048415757853,-0.11331560664829898,-0.13458070184792528,-0.0977489115430969,-0.19214804743988503,-0.21503360134649324
0.776,-0.014884108313262426,-0.02089818107395794,-0.006208761621866221,0.018510480403976938,-0.005812856962045073,-0.014336474272258322,-0.023572346141687347,-0.1073777462332544,-0.13134286676288764,-0.09640693901630944,-0.18872368657207997,-0.20943826302544385
0.778,-0.018730859041788745,-0.01983243493349805,-0.0013689550567460484,0.020609502271176746,-0.009229592870423181,-0.010838069929866176,-0.018813180347180727,-0.10301560837325949,-0.1310398124942836,-0.09747357229558498,-0.18495311378045584,-0.20358273338628408
0.78,-0.026051693288275165,-0.02142343844037795,0.004629653273510583,0.025107228739929915,-0.01550765721066545,-0.008945349921441904,-0.015784247593114697,-0.10158469073864905,-0.13198833007911207,-0.098255541701518,-0.18138300642465632,-0.19998481833015
0.782,-0.03468438855699079,-0.024090851123397684,0.010874048489050084,0.030527872686318954,-0.023132758442545344,-0.007734097774757361,-0.014673388802774539,-0.10136014265013531,-0.13135330138218393,-0.09634135058678396,-0.17903976621402204,-0.20095590247789105
0.784,-0.0459385104640628,-0.026129024614838948,0.01989234040041692,0.03742788890122311,-0.034064953715815076,-0.00410003772297194,-0.014807741074032817,-0.10158631245438944,-0.129679223411022,-0.09297227946000641,-0.1798847377420321,-0.207691861903735
0.786,-0.05853664835118664,-0.02710959125977295,0.031066133987138266,0.04510939467638473,-0.04709082224070796,0.0017373917302776407,-0.015301755266694965,-0.10345073876561071,-0.13019655919337342,-0.09225564515441713,-0.18531340178188466,-0.21861450069870678
0.788,-0.06540705747873145,-0.02822703833121343,0.036739216753806335,0.04988021933565794,-0.053847547326336155,0.004247108856451857,-0.017266765999974665,-0.10857912712250661,-0.13527334419873158,-0.09763605938827143,-0.1957607853485157,-0.2289014388196224
0.79,-0.05975883797665753,-0.02956215334926247,0.030114680091481653,0.047459181480924637,-0.04676906634979953,-0.0005262168074819454,-0.02206630868884247,-0.11662983239451377,-0.14350647201247888,-0.10729430307071856,-0.2091034524818328,-0.23296062517730384
0.792,-0.04494158614568315,-0.02832630083573744,0.016927961492148102,0.0380821103507252,-0.031193980938794538,-0.007563755024652397,-0.026471288529390184,-0.12355172325072923,-0.14924753938467425,-0.11340235319262834,-0.21874829705007887,-0.22919587320703463
0.794,-0.03401983528515882,-0.022424334220152484,0.012095532624947484,0.028318292001350366,-0.02271008730487248,-0.007403588202974761,-0.024978518693744255,-0.12452793642598017,-0.1474552388584006,-0.1100074263514709,-0.21913911213830062,-0.22215352455596565
0.796,-0.03723160028282802,-0.014814525850555002,0.02294761600277828,0.02590191297771317,-0.030347803203208613,0.0022673030355307377,-0.017875540801625685,-0.1197745230997435,-0.14039510052414497,-0.1013382284230127,-0.21396697196386993,-0.21824386736074355
0.798,-0.05105900621904824,-0.011024630640138347,0.04052422593822813,0.03170402275276447,-0.04668521216198193,0.013648716233993916,-0.011546454632214041,-0.11455123936276464,-0.13575422771206658,-0.09698850422814914,-0.21214537538592618,-0.21943792605220172
0.8,-0.06100382080291347,-0.01204676382027965,0.04932189570709674,0.037784870370362614,-0.056132097109494024,0.017771329259809013,-0.010359475170922528,-0.11285451123933521,-0.1374114071322989,-0.09983367312995271,-0.216283928033278,-0.22262597869412554
0.802,-0.056772832833436475,-0.013020674876344238,0.043897215037752284,0.03578086452645516,-0.051493560488604,0.014059908076486367,-0.01260536995832001,-0.1137441177352615,-0.14197753639921534,-0.10440864800042117,-0.2212995900976625,-0.22471192748764238
0.804,-0.04282308785020557,-0.009777041705797572,0.032991528191979716,0.02631368850332687,-0.03979977641378979,0.00949278522848438,-0.013972648140653163,-0.11391679553149313,-0.14405382479162435,-0.10547839692283105,-0.22239404761195317,-0.22566394539798468
0.806,-0.03194161159586754,-0.0052441387831421195,0.02659497110550783,0.018420252344195618,-0.03164304905623583,0.008275687313780467,-0.012836930416406897,-0.11254366422520767,-0.1422688276057801,-0.10336479082257775,-0.2204408393423481,-0.22663476781113412
0.808,-0.03222033965751577,-0.007337775264186943,0.024833723841307487,0.020561638441091164,-0.030251475114451698,0.006469173726504921,-0.01221425821777949,-0.11259298976771957,-0.1400156957951786,-0.10164272558476896,-0.2205312481007453,-0.22831393426564484
0.81,-0.04188276457347285,-0.018279102262930686,0.023512582492422492,0.032038289637839425,-0.033256912463744244,0.0004003854235006578,-0.015056230542182318,-0.11601179044631481,-0.14019824523575816,-0.10183134635782201,-0.22530845623071147,-0.23084034110260127
0.812,-0.05371832688821128,-0.030138831265053023,0.02326407196130655,0.04419964525134947,-0.03896064681769461,-0.005579580952862997,-0.018774984113365735,-0.11967027650468824,-0.14104511518672588,-0.10138416321117293,-0.23053378585638346,-0.23308414817800704
0.814,-0.0617379714341419,-0.03507832245844521,0.026100368342503434,0.05031197226474289,-0.04573064703855389,-0.0060661121554157205,-0.019002160489644874,-0.11935143642991776,-0.13982446430475798,-0.09801592886625282,-0.23061440941866662,-0.23360564420863394
0.816,-0.0636460945180302,-0.033962730932696854,0.029079456562612335,0.050463269003829934,-0.049496786316400795,-0.003208617652306006,-0.016649240432272838,-0.11556770848217607,-0.13798819496406514,-0.09407867357203856,-0.22698002919366883,-0.23306381782852928
0.818,-0.06132776329268444,-0.03113542141185701,0.029810264578928256,0.04788741412293128,-0.04879769772785736,-0.0012462709033193066,-0.015355077873380545,-0.11186761943780461,-0.13843895151191438,-0.09295905817936759,-0.2257965562467479,-0.23253930338251186
0.82,-0.0598227642858834,-0.027187440818529914,0.03268686321592889,0.04502454386379049,-0.04887001090544693,0.0016038785025492739,-0.014541913762403737,-0.1094406737756346,-0.14021734944683864,-0.09334368097602687,-0.2287708601461923,-0.2306438453541142
0.822,-0.06191490434010022,-0.021233171329934714,0.04123705240582633,0.04269237096936665,-0.05400884474136015,0.008308932019400637,-0.011475813833386833,-0.10740258722719843,-0.1404179666045109,-0.09212542738586524,-0.23215795631081504,-0.22718009647474374
0.824,-0.06541178054970342,-0.01612629501850877,0.050156410920464876,0.04158106693998185,-0.060561365743107096,0.015317462394946092,-0.007562702789394014,-0.10619686680683015,-0.13900694296960767,-0.09027632241474695,-0.23375318015580077,-0.22646380652888684
0.826,-0.06781208989820116,-0.0159984174784998,0.05264733558521297,0.043036194433561846,-0.06295117851381071,0.017047442130531932,-0.006408367246579788,-0.10642466093626668,-0.13794980143563762,-0.09076898747270497,-0.2348020119140012,-0.23086443730531064
0.828,-0.0690595625316975,-0.019851825223071565,0.049846266994514075,0.04625677239303062,-0.061113658714162904,0.014222592969260924,-0.008302056000016792,-0.10715428866023403,-0.13805749283345348,-0.09351640814659394,-0.23590479497338418,-0.23555443113006821
0.83,-0.06870167437638727,-0.022724729456039018,0.04653031087169902,0.0474815676144807,-0.05783997693329584,0.011529596847226181,-0.010770117084903476,-0.10815264643843737,-0.13886506806698015,-0.09582726228095748,-0.2363529926377294,-0.2350774754227982
0.832,-0.06563407732444264,-0.023000010722171792,0.04309616568987389,0.045224215050510004,-0.053914148249106494,0.009836743929696409,-0.012167913933202821,-0.11038006199402925,-0.13994284702653678,-0.09600826415458652,-0.23686429580994292,-0.23046461845790167
0.834,-0.06113029043741666,-0.023696069058437644,0.03751448082283649,0.04276754115357354,-0.049238722269188656,0.0064052911749291844,-0.013295879737960802,-0.11392979800874703,-0.1418973567928856,-0.09558026477484809,-0.23934332582494508,-0.22682110314991982
0.836,-0.057982047548461056,-0.026132312728386974,0.031345791647022545,0.04267682534298827,-0.045359123360094865,0.001442771487683484,-0.015860353352910365,-0.11786911513609209,-0.145694478230931,-0.09831767917207378,-0.24431228124453228,-0.22750600951218697
0.838,-0.05771781033325526,-0.02691745899625839,0.030020761309239925,0.04334966148858885,-0.045113522141649216,-0.00018455050812455362,-0.01790483791409835,-0.12028014793441409,-0.15016398675139095,-0.10632183578375401,-0.2507717538794464,-0.2325757948544376
0.84,-0.0615116908142562,-0.022605445119965366,0.03850503548007732,0.04319715065363137,-0.05130165524175134,0.006155067731857288,-0.012267155243061732,-0.11743154241010348,-0.15197523791532283,-0.11849168833719396,-0.2594342730203276,-0.2420153574391912
0.842,-0.07122917438710231,-0.014290549752757599,0.05719184495512801,0.043898693406790985,-0.06525897930756468,0.02022006934228203,0.007342035621883906,-0.10566259833001826,-0.14911147998288385,-0.13439218021851382,-0.2752642413988349,-0.2586029372258746
0.844,-0.08783755870245274,-0.005949365448983017,0.08234995932925368,0.048052378857633304,-0.08619133003737939,0.037640003131969704,0.03991867162507022,-0.08467102410557577,-0.14223255983720445,-0.15601970970938825,-0.3044499476463157,-0.2862226937129593
0.846,-0.11008633792049685,0.001448496763257007,0.11158144338360738,0.05540794208497192,-0.11238241251293268,0.0558360180492789,0.0787508538349557,-0.05701154385643503,-0.13201697680316044,-0.18277910396524036,-0.34689138900820693,-0.32558313211860773
0.848,-0.1338637984678653,0.01275116846379228,0.14612545734676177,0.06153883269594212,-0.14176901903281636,0.07770309993462479,0.11722602040776715,-0.026163983186539008,-0.11872675169113002,-0.20887064706119562,-0.3929159276450028,-0.37127483908196335
0.85,-0.15340051521859172,0.03274275990113802,0.18554190128509224,0.06139315272478791,-0.17091118732298732,0.1064032636156321,0.15047531033078718,0.0018998599680671827,-0.10604289242366711,-0.22957171050591135,-0.4308565369389329,-0.4137305082613861
0.852,-0.16574419189735123,0.05793865931960394,0.22342684091486378,0.055231781254579684,-0.1954774930072398,0.13805568477072677,0.17400048478042132,0.019690291659988708,-0.10020186940855616,-0.24605649123143947,-0.4570230552646938,-0.44543931088343164
0.854,-0.17304331079638063,0.07854051392302241,0.251706173860815,0.048816255041327895,-0.21303526586744356,0.16377828599725236,0.1855668496210567,0.02629739361675919,-0.10153734736722511,-0.2591426417544392,-0.47307177252398647,-0.4628579571207238
0.856,-0.17720941342587712,0.08938830386163558,0.26679018246410163,0.045690071521380146,-0.2231457995944301,0.1782408521689387,0.18788664267466343,0.03141281550192937,-0.09989140914839033,-0.26032892192791346,-0.4741032390184995,-0.4612375843548382
0.858,-0.1728149527192021,0.09434495373980879,0.26717088417336293,0.04129677437755288,-0.22217527987823268,0.18155296241612426,0.1859415279819,0.047788448920650706,-0.08021999704935018,-0.23288720036108276,-0.44578228433129324,-0.4327772611788705
0.86,-0.1503211801397989,0.09799784894669404,0.24810167141840847,0.0282563919756415,-0.2021731595726111,0.17330633554549152,0.1821290566730768,0.08186064473277092,-0.031584301602893335,-0.1628880590888543,-0.3753520430861577,-0.3726325472340774
0.862,-0.10726612843569715,0.09906453455774032,0.20594428395806066,0.0056288711722778575,-0.15953274139806478,0.15145940598686136,0.1746573577594519,0.1307217331717778,0.04647353392195204,-0.04887680427920925,-0.26157992045756534,-0.2824964713488125
0.864,-0.051167908951184324,0.09561259132092427,0.14637629289438245,-0.02138333392908289,-0.10098750249934234,0.1186188487100458,0.1578866615025445,0.18311026810053355,0.1425734353461981,0.10096582630193787,-0.10995353755086124,-0.1645396726772643
0.866,0.010504581218385373,0.0919136816294352,0.08119437149025736,-0.05022825841808624,-0.03655674493678791,0.08354310670063013,0.12485383227005172,0.2248315967052977,0.241823026295402,0.2814824729857619,0.0796667453930355,-0.014552216052305821
0.868,0.0797936666888052,0.09632186554163584,0.016541384757259494,-0.08610153199675004,0.03114881695901409,0.05377539638371417,0.07458192932568888,0.25075421263334535,0.34022202693543135,0.4952648768267312,0.3119383391751875,0.17214048423730996
0.87,0.1623439382101254,0.11237822317191215,-0.0499689721259285,-0.1348396667362315,0.10547970072165462,0.02940441175759344,0.016991962677959542,0.2727327746406423,0.4487901746804202,0.742401634820475,0.5806662964056433,0.3872432831163961
0.872,0.25411144892680654,0.13414966354745264,-0.12021767300795964,-0.1923707249571207,0.18544614330585504,0.0056064586729271055,-0.03538943758487691,0.30914778587877306,0.5811763089050662,1.0137069242279724,0.8659062943767706,0.6111252771495753
0.874,0.3446042754609201,0.15465585675864432,-0.19028266567456517,-0.2491468302705057,0.2649524744504612,-0.01950035282682048,-0.0824220481300808,0.36272098332952296,0.7361958785480016,1.296106859846886,1.1495308700740703,0.8303251391565116
0.876,0.4307183971813087,0.17468854401966954,-0.2560273834555445,-0.3023616202860949,0.3411302832612337,-0.042769137105885376,-0.13719607071937934,0.4117725218895956,0.88795225241213,1.5692274308987249,1.4173570425130475,1.0399330184754272
0.878,0.5127070626914376,0.19148911883110464,-0.32090059899680845,-0.35050478212107283,0.4151643925681835,-0.06640834081827889,-0.20581709898099235,0.4282089505682478,0.9930710033995793,1.788825782103298,1.6369849967151615,1.2213384544368933
0.88,0.5787399677188351,0.18037378576590993,-0.39824438739837104,-0.3768194641195024,0.48685567427390586,-0.10947296026708336,-0.27003291124434636,0.4027828359051755,1.0139948896626076,1.8893623890268418,1.7488069436550577,1.3315240028740336
0.882,0.608805402443166,0.10356568915453303,-0.5054812824352866,-0.3536912085858515,0.5552021504084631,-0.20051239380223107,-0.2995682187301695,0.34783649235438563,0.9394148275126326,1.8211034006172784,1.6971833183164664,1.3276590121829817
0.884,0.5943947322123797,-0.051969608308436915,-0.6464927072077516,-0.27002586324686545,0.6188239989175162,-0.348679181647906,-0.28103128747964967,0.2775932574590631,0.7835249127299255,1.5833460078544026,1.4701138637685525,1.1967579537291495
0.886,0.5441507673287039,-0.24449979913506192,-0.7883325341933207,-0.1497073176258471,0.6654684706323931,-0.5163591265494033,-0.22973115446309056,0.18979994958520988,0.5636474440600273,1.2106356219735586,1.1025694837446718,0.9580004920715833
0.888,0.47192837434882834,-0.3935678975264257,-0.8650295556726457,-0.03904848178744995,0.6681046174422748,-0.6296551482509879,-0.17652449929625968,0.06728326145267403,0.28214727257143724,0.7391771539307894,0.6532783577330975,0.6513152131559974
0.89,0.3871634155669175,-0.4428069965075729,-0.8297099923332445,0.028608039190643943,0.6078548579223166,-0.6366391809048415,-0.14327337588583847,-0.09601353894147027,-0.05182046705122349,0.216701724425033,0.1913993998320339,0.32944797757074173
0.892,0.29676300676643397,-0.4101475810709596,-0.7067546820783424,0.05775222000921175,0.5011462860566543,-0.5586121640434403,-0.1279612480907889,-0.2673376234809026,-0.37957793674740914,-0.2608276148044946,-0.20673403355159398,0.04584544009254392
0.894,0.21222772297422865,-0.36308829112488183,-0.5750530902863756,0.07619890288668933,0.3933510251008192,-0.4690622770961484,-0.11540529074409532,-0.3864845709417568,-0.6045896039247401,-0.5730221936925401,-0.4747055393127501,-0.16051976331269247
0.896,0.14721083810285013,-0.34757370395575987,-0.494493352515136,0.1008003538520997,0.3205766919274621,-0.4210959016936908,-0.09762260284060134,-0.41670108060576094,-0.6728391722358397,-0.6674681487336706,-0.5888680087498538,-0.27456837256730576
0.898,0.10315230224479151,-0.35547183911438907,-0.45842509259010356,0.12717838714021548,0.2800744568349783,-0.40741500307310596,-0.07617028067924778,-0.37867770800151024,-0.626010470980358,-0.6097249733393028,-0.5862356977067829,-0.31056648756509453
0.9,0.06607666657239299,-0.35462523573181537,-0.4204827685661247,0.14590534218615545,0.242355103540419,-0.38875882269899575,-0.05138498051765784,-0.3267695478097009,-0.5555551066647676,-0.5201651952117142,-0.5397062494829016,-0.3078617709462701
0.902,0.02383255461596566,-0.33136616674265895,-0.35485027962332166,0.15564454828528448,0.18872667509516022,-0.34497582463872806,-0.0211894136856909,-0.2985531787948308,-0.5173684006673525,-0.4717314693660033,-0.5062967164672996,-0.3063706595240974
0.904,-0.021239215933084192,-0.3004429737494621,-0.27882888054331034,0.16232483766111544,0.1283473086730934,-0.29152913137822895,0.010734126813609808,-0.29428243411593147,-0.5062321747325003,-0.4590073012353636,-0.49615328845099954,-0.3194049559684029
0.906,-0.06007526703299,-0.284465230662753,-0.2241624630696085,0.17319537427272158,0.08103181818298376,-0.2557730898869203,0.03463301072611127,-0.29712854907632535,-0.49718154679766347,-0.44843949999773897,-0.4903609412735566,-0.3363004993023464
0.908,-0.08873295503209516,-0.29060369668046226,-0.20189914859628894,0.19078755098722153,0.05477126349477779,-0.24752444960443648,0.04412144410742958,-0.2999584896606021,-0.48509974317360144,-0.4312697400435447,-0.4804040268958825,-0.34804162254372484
0.91,-0.10794988339260154,-0.30527594778593237,-0.1975767334608179,0.20878829425273313,0.04283444847234769,-0.2528720574289351,0.04175676864852951,-0.30715188742928634,-0.4797758410860555,-0.4214040705292367,-0.4775014738063881,-0.3569940631778234
0.912,-0.11690603767158679,-0.30825628557769247,-0.19160718464658982,0.21561443964430627,0.03582972415447957,-0.25137942255765827,0.034675571599761326,-0.3166236530600419,-0.4798991862213484,-0.4219428669562342,-0.4867127850456434,-0.363743175893994
0.914,-0.11274318380753476,-0.2902824859846672,-0.17760233676104015,0.20422129506597111,0.031388104389215,-0.2350359028777086,0.027420793258030627,-0.31182563042912986,-0.46676251863800866,-0.41454406786177656,-0.4910420152264794,-0.36020159107681193
0.916,-0.09645619268642648,-0.25714412676753456,-0.16059095333198573,0.17819576623105013,0.03119077635983957,-0.20969264666463563,0.021278835323884002,-0.27623704883837363,-0.42297899927451027,-0.38092454878205534,-0.4692762055267406,-0.34063591305397184
0.918,-0.07733318105257199,-0.221225459726408,-0.14380705872717994,0.14945316585717133,0.03222057210359143,-0.18348907845567172,0.018828961729515863,-0.21178865918240203,-0.35158088300512513,-0.3234470898910986,-0.4211872384860656,-0.31110545628503117
0.92,-0.06628201241374486,-0.19116190234025976,-0.12488898036413915,0.12859697847380785,0.028077370241859204,-0.15936878039222394,0.023864327698911315,-0.1380381157149753,-0.2736998513967386,-0.26027960044347354,-0.36744608059627715,-0.28239246638452636
0.922,-0.0637016191471136,-0.16613325270615037,-0.10250393930071722,0.11539091748824541,0.018174902850827533,-0.13595050917363824,0.035840064298469865,-0.07285508412957203,-0.2068739185229911,-0.20448971566121996,-0.3254865519852304,-0.25736209343266814
0.924,-0.061031091926226286,-0.13955443395324216,-0.07869593716480014,0.10175597290591758,0.007776269247382932,-0.11081837162624712,0.04884114514189902,-0.01989544209756779,-0.15063244936929754,-0.154372175521865,-0.29221887229910737,-0.2304785223034351
0.926,-0.054197391379125964,-0.10870404057096175,-0.05494728413226051,0.08376165776849481,-0.0006648616855865037,-0.0833012360142284,0.05795147863700299,0.022439314675586366,-0.0976526571240293,-0.10496756936564089,-0.25537153873268026,-0.19883333361181038
0.928,-0.0467021095226519,-0.07806293673123388,-0.032113611705175654,0.0650130429963898,-0.008681316633167594,-0.05614232997497375,0.06280420809484895,0.04902595643241578,-0.05125508733328126,-0.06119568824071116,-0.21560673590890925,-0.16894341163528892
0.93,-0.03952974593411169,-0.05345964487734858,-0.014740064748711628,0.04888315638909812,-0.014394740192994011,-0.034672022306117954,0.0634494155395579,0.052845546993050614,-0.022999046684580363,-0.03392047927296028,-0.18706038961915808,-0.15044702856375364
0.932,-0.02784573203773879,-0.036098397258687305,-0.008820747566517975,0.033815647306831204,-0.012021013874097942,-0.022781052922832334,0.05838755825691395,0.03718204821915893,-0.01727641175059785,-0.02688360867005004,-0.17822240882260199,-0.1457771852411274
0.934,-0.011169181902084695,-0.023734428740676283,-0.012821153693626259,0.01874940120798474,-0.0015673777051466425,-0.019012668961125273,0.04893157353676778,0.01596368491834245,-0.025519493407395035,-0.03246557501163451,-0.18253458559713803,-0.14923185899590602
