time,I,II,III,aVR,aVL,aVF,V1,V2,V3,V4,V5,V6
0.0,0.00043879241376928345,0.00010969810344232086,-0.0003290943103269626,-0.00021939620688464173,0.0003290943103269626,-0.00010969810344232086,0.0,-0.0011847395171770653,-0.0034225808274004105,-0.0035322789308427317,-0.001930686620584847,0.0033128827239580897
0.002,0.002626315308937551,0.0008759750341190295,-0.0017503402748185214,-0.0014228557579110963,0.0018600383782608424,-0.000437182620349746,0.00021939620688464173,-0.007617602230654527,-0.023381289340590167,-0.024454720960905375,-0.013157379669583108,0.02347065761676356
0.004,0.006658079302372517,0.003696200057609106,-0.00296187924476341,-0.0043695618404687685,0.003925612761636297,0.00031231135470168747,0.0019494066544342365,-0.02094190571127891,-0.0711973862180783,-0.07554887726818617,-0.03978112425628816,0.07499037025383201
0.006,0.00910868315479823,0.010181047016876858,0.0010723638620786285,-0.008599160875894341,0.002512850257352528,0.005298416025860548,0.007411442107751509,-0.03177411036414228,-0.12902601650020648,-0.13867316237554989,-0.0709653359507873,0.1441522264464864
0.008,0.00771325203740633,0.018386343833627115,0.010673091796220785,-0.012202487132073185,-0.0034293181512866197,0.013667290923680745,0.01580063948737619,-0.028643924469445664,-0.1592985855948241,-0.17229683145540098,-0.08526250194403841,0.18918248750726768
0.01,0.008452491972535026,0.02017434880770512,0.01172185683517009,-0.013518697278237532,-0.0036568620799742224,0.0146399280599426,0.020378822715090283,-0.0165608827517056,-0.1512106688344426,-0.1632948749970046,-0.07887484464430546,0.18677428102841576
0.012,0.019948629471221672,0.009454395183516952,-0.010494234287704723,-0.013504201660258716,0.013762788341107371,-0.0018137703297515261,0.015239816517174072,-0.01157683645007378,-0.12982763439304054,-0.14174387218487663,-0.06973758590846472,0.1589176290421355
0.014,0.03856586318503943,-0.0064237730587052636,-0.04498963624374469,-0.014589384255163722,0.04131910864020317,-0.02670699938966034,0.004619614775766294,-0.019043643385786627,-0.11893059407054593,-0.13681204417007645,-0.07128671990652745,0.1425689556480264
0.016,0.049144570506609045,-0.012852637424886347,-0.06201914755218385,-0.016793708891784217,0.05557399942369238,-0.03834262805522453,-0.0009077061834273699,-0.030566535928958208,-0.12072140026026423,-0.1463036815801796,-0.07877332335618142,0.14930880417496387
0.018,0.04499154478753579,-0.005032372467152163,-0.05013329339944637,-0.01878483483606114,0.04670816793660406,-0.028732920986297122,0.002356522713041825,-0.0385287315352378,-0.1288409781896674,-0.154499213216603,-0.08231140687732373,0.16319957313064146
0.02,0.03770539817879843,0.009188803715784828,-0.028712697757513228,-0.02232670846310189,0.0308013859511804,-0.011300671807378997,0.007255884940158486,-0.04326009762234562,-0.14052297965722674,-0.1573399445435773,-0.08125572863632348,0.1671857098602316
0.022,0.042531671475241145,0.019353348001210267,-0.023273509630462548,-0.029983615284596043,0.029583671854806606,-0.003772712530273497,0.005588005345457928,-0.04724416078849033,-0.1525899859156497,-0.16108878740574864,-0.08223950566975002,0.16048675804194756
0.024,0.05960047170169677,0.018857274865348217,-0.04057613229133942,-0.03834510942537227,0.04707328028496842,-0.012642649349076376,-0.0028004009692139064,-0.04986761640010922,-0.15800290672960912,-0.1686572741403058,-0.08871628053464906,0.15224367183621182
0.026,0.0744209121600246,0.007318147853328301,-0.06682155017518958,-0.03975064986777755,0.0686101930810439,-0.03142706364918145,-0.012032496366364605,-0.05030355911646111,-0.1546455032923379,-0.17679417481665627,-0.09726254357844838,0.14788694284286216
0.028,0.07601655016107742,-0.008286519643326348,-0.08418294665786272,-0.03237653920393474,0.07915255095881917,-0.04811722284099866,-0.017512971753767117,-0.050707323726311905,-0.15105677890695227,-0.1819788992925266,-0.10309452758682089,0.1462018364090498
0.03,0.06911002513506037,-0.017952216259732364,-0.08714482229125473,-0.02396713602993932,0.07800043155021905,-0.05470269991611617,-0.01911663847853942,-0.05305978763923977,-0.1552918437679007,-0.18290949835963335,-0.10478605681926301,0.14540178189071562
0.032,0.0671568988644966,-0.01593181061198268,-0.08317611548616834,-0.024207670761904783,0.07537490904933972,-0.05145360478371054,-0.018670982431411756,-0.05556438290365541,-0.1625349947430887,-0.17914736280843266,-0.10281780141315273,0.14609226456974828
0.034,0.07607794608259871,-0.0034659417428342413,-0.07942286046234776,-0.03498857483217548,0.0775629930464534,-0.04259124247503039,-0.016649082722383055,-0.054671684647727835,-0.16097516487013197,-0.171220421096462,-0.09740409153424788,0.1481478050460239
0.036,0.083147897817447,0.012639924249302152,-0.07012629732404058,-0.046188689081989094,0.07535063013874568,-0.029147792609665334,-0.012353047348259002,-0.049260055390625314,-0.14799742308475147,-0.16177064731779697,-0.08937108092932072,0.14990032952118224
0.038,0.06458590071115976,0.021910245248142148,-0.04222128330320036,-0.041088277240925224,0.05085573483890234,-0.010227257652885721,-0.00574152863256224,-0.04111997565185071,-0.13484786907120236,-0.15486312309576677,-0.0810185773831057,0.15158561075787186
0.04,0.01335683153712591,0.015345021879566585,0.002229443599952417,-0.01219609772467866,0.0023332095743335553,0.008514326238550153,0.0020198653529691192,-0.03283622326859214,-0.133827710127216,-0.1538578036255214,-0.07548881242794325,0.1539152806929178
0.042,-0.042776009534672386,-0.004660362388288526,0.03806583442152917,0.025637501212351605,-0.04357119120012338,0.015981763564036643,0.008508232234173796,-0.02703977424133395,-0.14387487854132835,-0.15864682493170731,-0.07521151601394171,0.15329269805003135
0.044,-0.06524541086258988,-0.021093077927944456,0.04400279113604977,0.04500384257856217,-0.05741115494211565,0.010411237909039398,0.01194368581502854,-0.024977195060682095,-0.15199034311580542,-0.1638436979802981,-0.07858659378129595,0.14593160458657614
0.046,-0.048482973443674734,-0.017875167443557213,0.03055596781957836,0.03483722121778973,-0.042041984793448464,0.004935880007152138,0.014196215600855317,-0.024675485188651,-0.14899557860670617,-0.16303776701890577,-0.07978676248249103,0.13540999525997344
0.048,-0.022117725892852713,-0.0009452699912532093,0.02122606332947321,0.012793576029149609,-0.0238657062536488,0.008086746569802102,0.016763147397957427,-0.02530561024529951,-0.14133041720956147,-0.157860234397007,-0.07741586961912997,0.12756232429436437
0.05,-0.00672783950146184,0.005968167842478512,0.012771728572003493,0.0016143369523469381,-0.011336761088117046,0.00684134596634616,0.01450130115414695,-0.03187622668325453,-0.14374739296035233,-0.1586057905060285,-0.07990052819077341,0.12068001537190937
0.052,0.007666648526532016,-0.007904981236339035,-0.015443492626712907,0.001957958159137132,0.01060483489298254,-0.013894977986751834,0.0020191891496631397,-0.04822746173904047,-0.16053313214090195,-0.17133596790765593,-0.09395764122310923,0.10973088192596064
0.054,0.03279124655708806,-0.024393284418774825,-0.056909768955998925,-0.0018832453272850146,0.044246810544869127,-0.04203548798763131,-0.01512945163278856,-0.06775939081543236,-0.17955331972870534,-0.18823394556005937,-0.11185878691089504,0.09689818551184645
0.056,0.05869010314164986,-0.020709360857580354,-0.07909917028103028,-0.017003127402104974,0.06845453261146484,-0.050747305461638595,-0.023505718268795807,-0.07758309970003137,-0.18565240761632157,-0.19520606972563817,-0.11869023879318921,0.08993990701673903
0.058,0.06891307161070565,-0.001343648385639728,-0.07018671685769666,-0.03262778006692334,0.06933515598862837,-0.03667085714241835,-0.016090731173318176,-0.07109312870979294,-0.17521062952366068,-0.18710604373616688,-0.10991338641111285,0.0919175563525137
0.06,0.06127680039654923,0.009158652613565056,-0.05222690836051875,-0.034815209824125545,0.05675755812196259,-0.022590993795955947,-0.00040583706293696395,-0.05529573267537619,-0.1583492261925618,-0.1730471281346233,-0.09613272249985919,0.09750425958987416
0.062,0.047442601893328766,0.002211726007399964,-0.04520959471396581,-0.0248616141348049,0.046207814039754005,-0.02245852094607098,0.008682895338131384,-0.045993928249253295,-0.1494610201180257,-0.16681277821165094,-0.09103178213660483,0.09892998966958523
0.064,0.03928879761381084,-0.006416367128326265,-0.045515701434293315,-0.016335743458509567,0.04167984452050872,-0.02709750069185928,0.0036407422601885376,-0.053133588865771866,-0.15440280862061462,-0.17363075417688015,-0.09835130237243704,0.09310599080382446
0.066,0.037663034136747826,-0.006337863135260472,-0.04396911724888523,-0.01473480237303085,0.039428814584498026,-0.026901562633850223,-0.009863853871017838,-0.0703181946964706,-0.16670161247633172,-0.187671503217164,-0.11119573729732714,0.08378042329997357
0.068,0.03578136202194828,-0.005989011502456016,-0.0421218639430621,-0.013137592818374932,0.03741673479513813,-0.025871872066122854,-0.020577086706109086,-0.08156809802534645,-0.17573076864639578,-0.1998531501999628,-0.11980588231100821,0.0788771628669204
0.07,0.03194725955220256,-0.010358672845663237,-0.04283300027122154,-0.009182880075124213,0.036359526695086526,-0.027376672074107784,-0.022079781045878787,-0.07830362089309868,-0.176674040330251,-0.20519074521803418,-0.11866986329739213,0.08429218971112058
0.072,0.03207697514147926,-0.008958852434571665,-0.04133110359640246,-0.010920138485107204,0.03646302024748438,-0.024881347967427574,-0.01614628875496633,-0.06671297504835079,-0.17302239305210296,-0.20436826545746706,-0.11009763693268204,0.09749666755968651
0.074,0.03962261986263745,0.00605096781610476,-0.033486509661285475,-0.022771262562405647,0.03681895194113376,-0.013700478254031163,-0.008788715931626286,-0.05802626404766345,-0.1703535873452092,-0.20028783440424316,-0.10144776698080546,0.10839138241779157
0.076,0.046101474103639066,0.02479378383949339,-0.020990750014633158,-0.03503021384461293,0.033567786922123956,0.0005550883974210789,-0.004445843849786881,-0.055364748678501476,-0.1685853891715845,-0.19396338705220695,-0.0969499700904367,0.10868950766057539
0.078,0.03602639280584103,0.02813898408060628,-0.007498089100881612,-0.03124180442379737,0.020696577252731743,0.00770808832437513,-0.004334860829065428,-0.05444892910835958,-0.1639693281442838,-0.1864339423864267,-0.0955275764072505,0.0989565274649892
0.08,0.009373966708378262,0.008333471349788494,-0.0006644224293595423,-0.008283713766105857,0.0025405896590897027,0.0008399790034720407,-0.008570398975852453,-0.05469217601570163,-0.15866354265907173,-0.18342000381459814,-0.0973111036986381,0.08617412226925142
0.082,-0.009732029464191915,-0.019403451264212824,-0.00935094875577789,0.014559427957857881,-0.0034726051860084145,-0.01704711125224387,-0.016093557261052514,-0.06091797504942716,-0.16088205719563,-0.19082979214713408,-0.10475865183209472,0.07772264103170122
0.084,-0.0009649665492845734,-0.031139322794419454,-0.029867345712186702,0.01586680099638042,0.011464748653145453,-0.032711763992164106,-0.02335859562658936,-0.073022204628674,-0.17319999153893187,-0.20528619331795475,-0.11602703493019402,0.07676835556991601
0.086,0.029681006974282696,-0.020059614320630546,-0.04942522248266696,-0.004590498713365797,0.03758562178794502,-0.0367577896660056,-0.026984409939435097,-0.08245226655990702,-0.18743396165550835,-0.21685215905927294,-0.12506172678661448,0.0792399473783933
0.088,0.0641393384626112,-0.0010347228118248247,-0.06496617850542616,-0.030542790532969842,0.06368425679905464,-0.03515426839192532,-0.026816020784290604,-0.08241202986726459,-0.19371034629878023,-0.22079343302361873,-0.128593162697901,0.0760433075865378
0.09,0.0883992312674723,0.007857863401225962,-0.0805345206083076,-0.0464142954682797,0.08439213458767103,-0.03860187827156082,-0.024018484288437905,-0.07651794007553595,-0.1900687657640957,-0.21945741631091628,-0.12703954765511727,0.062027903194462684
0.092,0.09233629388334552,0.0027072939498634964,-0.08973336207122916,-0.04566809936442781,0.09123213798412419,-0.04544868824058276,-0.018703330191388878,-0.07366595762791468,-0.18121055592391377,-0.21494415602409508,-0.12077146888808628,0.04286298451587921
0.094,0.0756404670685052,-0.0063575669800143815,-0.08205881894951954,-0.033133630125661104,0.07863727497715561,-0.045641046458711025,-0.012491383183617496,-0.07795001182672795,-0.1728195842061939,-0.2084463803257317,-0.11143953274065918,0.028779822332655934
0.096,0.05466128504642953,-0.01014427643283553,-0.06475879282311411,-0.021169814448107185,0.05846559078750791,-0.03885378552646192,-0.010328009308264116,-0.08741132795856867,-0.17057579005852286,-0.20475951566797004,-0.10460549917714677,0.02087838896657564
0.098,0.047070177586893365,-0.010334867671866822,-0.05722881015650544,-0.017524267982799657,0.04977880499562459,-0.03553917444392339,-0.014936724368292645,-0.09716076530703574,-0.17701212482622267,-0.20765896066877637,-0.10507951635872373,0.011052464776897539
0.1,0.04950082813691754,-0.012823832575252537,-0.06201090708116896,-0.017382080048471773,0.05299127420326532,-0.039222290304898835,-0.021389395779341763,-0.09904220441454897,-0.18284600086257885,-0.21111716922965207,-0.11017525073034375,-0.002520659170327554
0.102,0.04136751976633095,-0.01856586293709037,-0.05966251068916614,-0.010007638458242995,0.04833930726184904,-0.04057281301232935,-0.021847345458644526,-0.0858605472963004,-0.17176132142080042,-0.20447585692455578,-0.11163490934867765,-0.009893595331315955
0.104,0.011834214457704119,-0.02442863706266983,-0.03634899540277385,0.008002490234401319,0.022653457690980785,-0.031649666299436635,-0.014981984576611339,-0.06303099218879012,-0.14360469324365113,-0.1878815087666603,-0.10499926527464538,-0.0038135555599696945
0.106,-0.024011804265487286,-0.02732982669357184,-0.0037839303249361696,0.027214773222566997,-0.01161296486867249,-0.017004479566010155,-0.0076654151545290814,-0.049305598409017305,-0.12169707198623922,-0.17513114369848987,-0.09545603089508331,0.009065745879190516
0.108,-0.03944406868422085,-0.02609382400492687,0.012827428971692754,0.033784048309558695,-0.028318961886524677,-0.008464937435652325,-0.007202070708585289,-0.05742933406144101,-0.12521759043402036,-0.17756576733033677,-0.09240808701659807,0.017324497079685686
0.11,-0.023747937576269834,-0.022389110109840408,0.000996212761280246,0.023540625224120943,-0.014834414722584243,-0.012753261114469018,-0.013434019138807082,-0.07916729515674815,-0.14583774263705904,-0.19038946508975765,-0.09804839851342052,0.018897188866196866
0.112,0.008857497784822817,-0.017624132291733888,-0.026716555493595535,0.0046116736570957755,0.016066833383387023,-0.023846945628659154,-0.019283653558883996,-0.09577287176438062,-0.1633889920182348,-0.20024017394191326,-0.10493560888854182,0.019495189600521278
0.114,0.03453389248714563,-0.010339937285407837,-0.04501304517954747,-0.011773836927384877,0.039289765690560426,-0.02836912091252251,-0.0190966684783598,-0.09767621185051455,-0.17121050446968517,-0.2023495911799878,-0.10669565495513789,0.021258027483532945
0.116,0.04039318635746035,-0.00246097299426745,-0.042871717593234174,-0.01834435311832482,0.04172158174395697,-0.02248794527815285,-0.015263521503814343,-0.08995334651015127,-0.17321241536960785,-0.20266615382074038,-0.10586649972691384,0.020272679121715376
0.118,0.03339792981693418,-0.0013355500509892098,-0.03464961006829269,-0.014962063245490069,0.03361867974599286,-0.017735613147419078,-0.014525216376443408,-0.08357172333644354,-0.16935399984731625,-0.20530615916720266,-0.10774844040037149,0.013653520162542968
0.12,0.029070798113608454,-0.008666721675937135,-0.037559839463152556,-0.008760760349711181,0.03231233957733114,-0.023423425854260105,-0.019291694484307356,-0.08547470370606199,-0.1596402207792615,-0.20801201370381822,-0.1128234605101566,0.002602244402137132
0.122,0.036552044498314076,-0.015027375979334623,-0.051282521637482106,-0.009507347524871338,0.04321683294014407,-0.03385799813277546,-0.025945690040014915,-0.09516349295168579,-0.15302865078364358,-0.20953203708738974,-0.11849275955796014,-0.010835531388298649
0.124,0.057600204651604814,-0.010565096664146515,-0.06790330772446984,-0.02302982941591694,0.06286647017476041,-0.03964101036455639,-0.029973526346673867,-0.10622959934588616,-0.15733248312013287,-0.21126808012638645,-0.1220599185237923,-0.02462734451995495
0.126,0.08198531808565386,0.0014354369833930731,-0.08060949852117759,-0.04190824783457354,0.08168528061658414,-0.039372799022339845,-0.029781516620517964,-0.11070101199305085,-0.1660266905949925,-0.21203449430659033,-0.12124742102989466,-0.03633234496309726
0.128,0.08477061693380171,0.00629715191228332,-0.07877920648043736,-0.0458671247841453,0.08167326033281988,-0.03574735798509518,-0.026605476763402178,-0.10557409089384032,-0.16636091027676722,-0.2087824762602148,-0.11664581491077354,-0.0462608201996776
0.13,0.05427939711843512,-0.0023094882658251273,-0.056674103462546456,-0.0261212672720284,0.05462707793625922,-0.02940621125767456,-0.022339255564524065,-0.09598713671357616,-0.15625546090283743,-0.20141491454270863,-0.11175549691953343,-0.05672158910742968
0.132,0.016688014019846986,-0.01081935942720479,-0.027254650043030553,-0.002970342250773607,0.020407963474729826,-0.020026399857453168,-0.01781978903245174,-0.09025344861357132,-0.1451370139798076,-0.19316446433368958,-0.1082266216134802,-0.06563439032924571
0.134,0.010621215071053276,-0.003624362673031612,-0.014131818478962083,-0.003623092467453357,0.010211217870482672,-0.01113423409735362,-0.01392563165157421,-0.09292523103147202,-0.1419176582258894,-0.18814544787471735,-0.10534154661411067,-0.06889385435723618
0.136,0.04349963987480173,0.014164964738876467,-0.029665765035344092,-0.028828217683037023,0.03422201133817046,-0.010663814265004172,-0.013521609414887198,-0.10398156101950047,-0.14899870886403374,-0.18972375655555726,-0.10487747077287526,-0.07042269177503958
0.138,0.08540049156368133,0.02370449549351556,-0.062139039001500446,-0.05378235888450796,0.07179112345026042,-0.021757925509253675,-0.019359864441484145,-0.12039079478439685,-0.16515709507749243,-0.1989172423813839,-0.11041705548393355,-0.07860682750312135
0.14,0.10186354435187205,0.01811435683011011,-0.0838703387683459,-0.058314449417629026,0.09134822628722696,-0.03450057107678563,-0.028755882289665934,-0.1342866042088112,-0.18584238791286017,-0.21226673846748023,-0.1203984777610569,-0.09032926248093125
0.142,0.08547278438999144,0.00773582220122627,-0.07756259662488511,-0.04498727142533545,0.07993183941755196,-0.03607573160644964,-0.03340996805601365,-0.13457015629836336,-0.19905135222399836,-0.22138149149173758,-0.1267833020642718,-0.09090346734675867
0.144,0.05744034913395448,0.0009252201397286371,-0.05633648551063636,-0.028496683239505646,0.05500591344216115,-0.029325141733374315,-0.028886247728383125,-0.11831836796797014,-0.1913959627841993,-0.21903659923756189,-0.12408730109842943,-0.07551294737552673
0.146,0.042808376406730624,-0.005170364356929776,-0.047864112975008755,-0.018454261152589756,0.04369991039476291,-0.028883118045620226,-0.021798151746819695,-0.0984799552962957,-0.16649244731350024,-0.20836120401361757,-0.11779017712512634,-0.05980553292067903
0.148,0.04385308138873487,-0.013222089048368187,-0.056840955716575055,-0.013981272593147737,0.049399740150556405,-0.03745407536621573,-0.020587382801853467,-0.09054727727228902,-0.14594524596581723,-0.19921754643823097,-0.1171883144394613,-0.059336810194348506
0.15,0.039711932057892314,-0.01934891856093514,-0.0586740345845601,-0.007647929480701386,0.04858294671048071,-0.040684283758505566,-0.022294888097087698,-0.09251794261120176,-0.14183156961124052,-0.19389904846253328,-0.1198821014086377,-0.06677976374843812
0.152,0.014187310964000246,-0.022001999312941677,-0.035900169950151016,0.006788866739226705,0.02433198828825419,-0.02997455934879254,-0.018124549624116578,-0.09018693245908001,-0.14401047320441748,-0.1878782678084805,-0.11500582418481514,-0.06383420371169517
0.154,-0.01969560534680835,-0.025130548618167516,-0.005425046844217994,0.024946039846869664,-0.007897554730284667,-0.016379563570165886,-0.009111416137877687,-0.08117674280291601,-0.14356878386279429,-0.18420435998805984,-0.10307846031650902,-0.050445944856314116
0.156,-0.029666271386253374,-0.027609016524884317,0.0019101307622585977,0.030620907233071513,-0.016653159001632105,-0.014252472505015733,-0.005664480923318097,-0.07873103701477559,-0.14669142028193233,-0.19088366744931762,-0.09755041928550799,-0.045286863726892605
0.158,-0.003553189705502701,-0.02250260715403383,-0.019010731158880263,0.014239599433899054,0.006479537458809966,-0.022026920166754827,-0.013070308323726586,-0.09101714766814438,-0.15699230472674033,-0.2044923058000782,-0.10517072082163781,-0.05930083578565879
0.16,0.030932777703882194,-0.010972244942778169,-0.0417364232763617,-0.009537262271313176,0.03496686102628139,-0.027272415652929292,-0.025332112991203026,-0.10954496114853338,-0.16572611342161514,-0.21177129079850032,-0.11830509330386281,-0.0830253889201671
0.162,0.038429162406001006,-0.0029199750026460136,-0.04095859142082767,-0.01720211929051349,0.038767791447505584,-0.02280586684982211,-0.03237003039071094,-0.11961817533935147,-0.16511960714747925,-0.20641791781007784,-0.12622987259343937,-0.0993465374020661
0.164,0.01775965180506953,-0.0020489071823757794,-0.019375760951475803,-0.006160805628753969,0.017824213113340814,-0.011666559911009008,-0.02960693830939315,-0.11518885708151909,-0.15745034041170045,-0.19479864219990192,-0.12500087982533217,-0.10022345553128696
0.166,-0.002998784593790951,-0.002211204249422489,0.0010136905327710315,0.005210571158335792,-0.0033332415736075788,-0.0012424861560174465,-0.021799663040022243,-0.10379598045842321,-0.15099354465412926,-0.18796341707806324,-0.11903088588615601,-0.091843821478802
0.168,-0.0033086083634778427,0.0017389424980578483,0.005002259722152305,0.0030754842336306785,-0.006099601219721426,0.0033417416241529004,-0.018127586817306404,-0.09929318683902512,-0.15320498593047086,-0.19168459917195213,-0.11702019142350963,-0.08669112500794818
0.17,0.013326819960144917,0.007444732534779199,-0.006021212395067152,-0.00898188608948775,0.007644290187146192,0.0009288116724961964,-0.022177826828858417,-0.107058766364961,-0.1640304553577437,-0.20115740712072075,-0.1220583971554604,-0.08944383229794042
0.172,0.03282858274354595,0.008295459552613724,-0.024582453207174275,-0.019542820075266556,0.02672138036810417,-0.008448833188405763,-0.028321394243623507,-0.11740576121023265,-0.17493143157380134,-0.20622573137037173,-0.12690011597570616,-0.09312339513105228
0.174,0.04655274350031646,-0.00024406657646833328,-0.04676962802836188,-0.022014267765764567,0.0445898865815495,-0.0248908811179563,-0.03059446369980011,-0.11916428041049014,-0.1791389029568809,-0.2041709487144086,-0.1251015166829528,-0.09247035999366651
0.176,0.05468327450889917,-0.01540209649716955,-0.07016641626038209,-0.018369948562175376,0.06042776208911193,-0.045153007532772675,-0.0316982177227138,-0.11594825600660691,-0.17962614142561018,-0.20290282364084627,-0.12148491073646878,-0.09338360190912574
0.178,0.05992558832217722,-0.027986876563738137,-0.08824229169376697,-0.014587791768254369,0.07229794816458965,-0.06061438236752957,-0.036732380135550205,-0.1188675720954811,-0.18167471256938686,-0.20833115241635197,-0.12315482044562678,-0.10137413099787063
0.18,0.06178939989047204,-0.03158769993963929,-0.09385007782837222,-0.013449244597624043,0.07592133234397978,-0.06430597374845547,-0.04230668494006303,-0.12756418947536705,-0.1838641452597249,-0.21509026381200144,-0.1274749714250308,-0.10981197132874988
0.182,0.05961000147228547,-0.028655122842961445,-0.08866424572069483,-0.013678980445180004,0.0717308912761524,-0.059212008021376605,-0.041581917007746966,-0.13163964537930833,-0.18275084063587038,-0.21494299149846352,-0.1280850744783206,-0.10938521731230708
0.184,0.055914454529315864,-0.024106218385247378,-0.08031277911224136,-0.014600120372447963,0.06534493132807709,-0.05283671304465156,-0.035641667185845854,-0.12781372473560182,-0.18028446281183313,-0.20878514871117587,-0.12539630799693474,-0.10153189694412744
0.186,0.053000931039665765,-0.017706503504856298,-0.07097295243778116,-0.01711032814269225,0.05957482092617014,-0.04612014873654026,-0.03111360548475366,-0.12406160052741563,-0.18155863759908542,-0.20507419764554433,-0.1242537880925798,-0.09472659189106274
0.188,0.051839377825152584,-0.006672471828323646,-0.058704041943447575,-0.02193091946570149,0.05392008898464022,-0.03547651482799414,-0.03093573408127479,-0.12758327027932703,-0.1885146821129881,-0.2087516525911087,-0.12672744876381978,-0.0933398660866035
0.19,0.05464938814533618,0.008572865322606732,-0.04610307660516375,-0.02992893876632416,0.050032371225303164,-0.02168868148527112,-0.03246993200277855,-0.13462917527271342,-0.19641679926163072,-0.21479940975884224,-0.12998735413722842,-0.09516063891688055
0.192,0.06138610283149873,0.022856887220606276,-0.038442821831381015,-0.03993072203123298,0.049747017294955946,-0.010381720931082519,-0.03174118985839062,-0.1337630165388463,-0.19576937525076551,-0.2134863416907345,-0.12889962418575066,-0.09634662201684757
0.194,0.06207130381218849,0.027025840242934803,-0.03498250711929428,-0.043042173259671315,0.047797225107482175,-0.006378402017469483,-0.02803192331919242,-0.119993980701271,-0.18139761963847634,-0.20137532746651307,-0.12164680688388241,-0.09574268223489468
0.196,0.042097900662691604,0.014257956761361185,-0.027853930905677886,-0.027519677881597395,0.03369720128195666,-0.009247561728213618,-0.024792647640653066,-0.10256025844776884,-0.1593012731483163,-0.18525698929627613,-0.11291130602725187,-0.09554149265215868
0.198,0.004172282379299398,-0.007890192448395478,-0.012103400809302334,0.002475198341626888,0.006844730227892645,-0.01235936347125965,-0.02495652578762544,-0.09299609020329186,-0.14079952042270222,-0.17452445888509485,-0.10863780888262708,-0.0985849489523762
0.2,-0.025738438299353406,-0.019278738484746337,0.00644741633098439,0.023534238855790937,-0.01709103122325065,-0.008237156486382173,-0.0271571525018356,-0.09046956782034722,-0.13367196931343572,-0.17276781527147125,-0.10963135802831897,-0.10516474088279762
0.202,-0.02619099067861524,-0.01019563277284177,0.016011681064956502,0.019417388995521787,-0.022172742765744883,0.0018167213968124439,-0.029305788566959198,-0.0878011843498172,-0.14004579152651062,-0.17826032015405643,-0.11372682418251766,-0.11362328639774881
0.204,-0.002451729348856611,0.005737898206915245,0.008204125377284866,-0.00027760280412418245,-0.006885233644213032,0.006124478638922407,-0.03196510158113554,-0.0849522568639665,-0.15348145746636016,-0.18706023828185692,-0.11943355036227887,-0.12264315859734667
0.206,0.02498193236521012,0.00939133400706093,-0.015570623823636694,-0.015392672050455926,0.018662319198899942,-0.004426677480075047,-0.035394669220871096,-0.08671869036554956,-0.16020313201824088,-0.19378652381867867,-0.12457114747044642,-0.13128693466891672
0.208,0.04173168134231416,-0.0021464442713441155,-0.04375565372249169,-0.017551855462166442,0.04173810840683616,-0.02484165362656772,-0.038504723970734074,-0.09399584976871998,-0.15490154517552943,-0.1956642948121141,-0.12747415483743527,-0.13929502986216621
0.21,0.046438001318108796,-0.017232518658621927,-0.06334625288327442,-0.01231279134913465,0.05415652538469245,-0.04189918039641706,-0.040929443810006495,-0.10313300879461047,-0.14832382376338402,-0.1954010846319564,-0.1292860320182348,-0.14678373325784946
0.212,0.04269671604361111,-0.023751301269727146,-0.06602209220938253,-0.00753801618651058,0.052999514923674815,-0.04546137645998825,-0.04079498390054993,-0.10810260486023553,-0.14918999264267932,-0.1945566552909377,-0.12920212820972804,-0.15033180589233214
0.214,0.030437351071958735,-0.017534463101394244,-0.047712967938414196,-0.005007508930407445,0.03701828122017496,-0.032422043688616155,-0.03452222474272865,-0.10435858308884996,-0.15136968519117894,-0.1897576665448875,-0.12325270053118771,-0.14416232246495156
0.216,0.011296877723576083,-0.005594341629765453,-0.016917125626231235,-0.001779183630241951,0.011974444629871598,-0.011308160705869482,-0.02405605751945873,-0.09591631260483928,-0.14792349158963092,-0.1823258340428185,-0.11373894959045043,-0.13012471907376194
0.218,-0.0029107658655837293,-0.0014036971547130538,0.0013593570189894687,0.0030276358806079853,-0.004125235262921483,-0.001157336719676179,-0.017700872854813372,-0.09310790906818685,-0.14341131823501607,-0.18214316541158831,-0.10995752288473655,-0.11909037522892212
0.22,0.0016529083200131048,-0.00934642298394987,-0.011063334698924144,0.004687127609046588,0.004242486208982835,-0.012201764014826975,-0.019820585400237224,-0.09943055961085809,-0.1447703061624006,-0.19393157479964584,-0.11509255023350974,-0.11779064403639311
0.222,0.025188291595301678,-0.01863363404728601,-0.04377512685792163,-0.002143863718731127,0.03218888232495315,-0.03288351432546926,-0.026395772719778676,-0.10790949722480406,-0.15168197446836956,-0.2093012069605625,-0.123232836536221,-0.12266773966670802
0.224,0.052742523636632545,-0.018130029547566973,-0.07081538551944853,-0.01567745511963259,0.059719655804103315,-0.04495307889995859,-0.03238753803207376,-0.11252877356223556,-0.15986999175836877,-0.21792296760494534,-0.13003880417754776,-0.1291261055553957
0.226,0.06615481466886186,-0.011199729335026306,-0.07735238995419474,-0.02563949551435023,0.07029508492627493,-0.04392461614315015,-0.03713511323914884,-0.11543208792808177,-0.16614388818990267,-0.21835498513187324,-0.1363801436189216,-0.13766897779747203
0.228,0.05534577634905255,-0.011732001319362011,-0.06710779579290041,-0.020086844235334158,0.06007990391805205,-0.03925377838953574,-0.04106324261579688,-0.12017516184835905,-0.16967244735820386,-0.21522941910615695,-0.14217404690958124,-0.14808593527407757
0.23,0.025870784440012583,-0.023901416300251048,-0.049787712209265186,0.0007492738712065644,0.03637025942888954,-0.03748335489359026,-0.04150136205741169,-0.12328562716263115,-0.17197292586240365,-0.21129034329395405,-0.14294138955253435,-0.1542726519392864
0.232,0.0005898673345325711,-0.03002670653037338,-0.03060762020358781,0.01654427310627653,0.013831630899038327,-0.03176082221260935,-0.03537882356687394,-0.11738901568435943,-0.174786378309643,-0.20500778713354975,-0.13402621209313226,-0.14989977533823842
0.234,0.0034591990001500966,-0.012083352597591307,-0.015529816738543822,0.005679950635500049,0.008058230368592639,-0.01565134079450506,-0.02602772599195013,-0.10276184148846058,-0.17730492070902676,-0.19579069459768245,-0.11818462753217891,-0.1378652288310302
0.236,0.03252095400664652,0.018076800783286093,-0.014442956527879209,-0.024977455087617947,0.022665871919118407,9.073274480327396e-05,-0.022452664195553414,-0.09008190215312116,-0.17544182574715683,-0.18814721268134024,-0.10593526236468898,-0.12907126529893576
0.238,0.05767299300431865,0.03068269159572884,-0.026996678597726687,-0.044661189027253995,0.04169391154354329,0.00042261533487309637,-0.0282994387764825,-0.0877263861460564,-0.16500372155478898,-0.18701883708961403,-0.10519224290366923,-0.1305464171840549
0.24,0.054669531264807614,0.018356370974756633,-0.03631685913718723,-0.03695717315190409,0.04446974309278724,-0.010289351133185253,-0.03617237972787684,-0.0917179658665427,-0.14866292842229153,-0.19132114581343396,-0.11313321916248852,-0.13844464688427374
0.242,0.031017108001350466,0.001571000223000247,-0.02946633400013228,-0.01604896316687358,0.02865074836621186,-0.015253895273571417,-0.0375838678669157,-0.09252124241205438,-0.13603273186569897,-0.19531811000929397,-0.12036439475208938,-0.1437783242824195
0.244,0.009915980453398539,-0.005500601240909627,-0.015567000164313146,-0.0011263482557731588,0.010626242814986626,-0.011702510039544773,-0.033968313675446254,-0.08712750767780959,-0.13221559761616453,-0.1951571296871765,-0.12120081481327416,-0.14251266379862007
0.246,0.003922016194469807,-0.009953932894724288,-0.014356203524610669,0.0047047856694242465,0.006625437404535298,-0.013071044721953888,-0.032370067728426495,-0.08104638338703463,-0.13242106415365862,-0.19203975138055002,-0.11832465368362766,-0.1390792729956606
0.248,0.011909106439691083,-0.018615121976278987,-0.03140691600810125,0.005353176517839995,0.01898882792119795,-0.025644191556524153,-0.03438138156765296,-0.0805860759671341,-0.13140483583169443,-0.18930058830437074,-0.11734673282468407,-0.14065120446572482
0.25,0.026553239516311125,-0.023027580773495857,-0.05058725810884738,0.0004407528023975243,0.0360359439938938,-0.0372004196529471,-0.035357527021733615,-0.08524275862904605,-0.1301680147507668,-0.18799468446869647,-0.11868316662226411,-0.14871925500349256
0.252,0.03803576893544168,-0.012473015582551697,-0.05118287810716989,-0.010366509143440195,0.04252059149603615,-0.03236380412473646,-0.0318792349848168,-0.08842883128680783,-0.13008105105999096,-0.18614970811777917,-0.11743816254749675,-0.1575226822954086
0.254,0.03704540667708753,0.00861716390520538,-0.02864300068217185,-0.020300270299937487,0.03149121931273335,-0.011356291758225081,-0.025321908547225307,-0.08549608187199452,-0.12887651189945082,-0.18256439305973152,-0.1108901921115733,-0.16060903255192568
0.256,0.020901702494727076,0.022934482630624718,0.0019401732490946485,-0.019603088993572337,0.008703117138674995,0.010106697923524281,-0.020080034474138468,-0.07942056197505137,-0.1268413366387139,-0.18037386316823312,-0.10339126099649502,-0.1575418174184106
0.258,0.0022539562714225456,0.018648217074526227,0.01613425539202063,-0.008783452031773486,-0.00798625095445935,0.014795529449436422,-0.02129728840292275,-0.07807341701089159,-0.13005064295734534,-0.18439947653035998,-0.10294519724574411,-0.15489170986353784
0.26,0.004250359937645325,0.0011544916504747768,-0.003390945449457074,-0.001800623069021086,0.001747201589478718,-0.0031425375447994264,-0.03202561062266043,-0.08726126531714849,-0.1427331237561824,-0.19522813424205906,-0.11344356554780782,-0.16061829363323957
0.262,0.03389107397794747,-0.014416334055443361,-0.048386387159286476,-0.009295045793861794,0.038229588866866455,-0.03286488151477299,-0.049114726456610046,-0.10529421857222054,-0.1603362761213337,-0.20833221603101335,-0.1300907256889547,-0.17478438746076513
0.264,0.0671399861567423,-0.017707020112953775,-0.08475198450622541,-0.024293642600691282,0.07305451193674432,-0.05261092057401706,-0.06216679830236543,-0.12138914573689447,-0.17259688756936775,-0.21781023152587164,-0.14221054841073064,-0.18624734311396376
0.266,0.07380753097053183,-0.009054701754622077,-0.08286559497280946,-0.031609054807469776,0.07608028187445036,-0.04712889149989487,-0.06058054154251295,-0.12285687975063725,-0.17203309728709154,-0.21952538068701513,-0.1419619251579109,-0.18248925782604347
0.268,0.05162406532969182,0.0018686617080943572,-0.04996159228022724,-0.025435032161675607,0.04917485413087413,-0.024452777690940654,-0.0452582242097129,-0.11004009886526259,-0.1613449629693309,-0.21413446704367212,-0.13232159476128083,-0.16418055715389174
0.27,0.025716022148999033,0.002252265135542472,-0.023621477281026548,-0.012174134129134177,0.023412561600182975,-0.01054903286461394,-0.030340173742225647,-0.09964111653742369,-0.15351781743407936,-0.208141212153056,-0.1245670997740353,-0.14624668517661404
0.272,0.018613939287696998,-0.009959073050962785,-0.028430674901128897,-0.0024366817119679134,0.02261895930784966,-0.01947371687608423,-0.028055125924861094,-0.10524528356492269,-0.15878081017081835,-0.2073741267300487,-0.1249710332083035,-0.14103096584820074
0.274,0.02856737915824625,-0.02024034225313136,-0.04850433678314176,-0.002924050776994404,0.03823187213433746,-0.03543604683141095,-0.03495440909657321,-0.11918565612207357,-0.17007372832334172,-0.2095202169831936,-0.12760512393662274,-0.14494305756862658
0.276,0.03762501355070926,-0.015827315181321727,-0.05330812520571602,-0.01063857331115055,0.04570490940070881,-0.03589613319190482,-0.03935098288967756,-0.1226495808239213,-0.17083263722476244,-0.2084909373673195,-0.12458910238834846,-0.14740535879584782
0.278,0.03680863496715147,-0.004217371691726252,-0.041109166817617025,-0.016373068912939184,0.03921830476968494,-0.02378768506317609,-0.038664078202577536,-0.11031041884064147,-0.1586488914607009,-0.20503774912779196,-0.11875495139559389,-0.1472200642152147
0.28,0.037231022736820475,-0.0013532917964966024,-0.038707071463876114,-0.01738718575638844,0.037632266303075305,-0.020815238572218554,-0.04018695709103089,-0.09512466926604829,-0.14816867833680591,-0.20567848403975322,-0.11891328229384981,-0.15080706771329092
0.282,0.05152761501481388,-0.007346608741859725,-0.0588906019964006,-0.020576940887456457,0.05386276636070992,-0.033491451118664785,-0.04644363140797269,-0.09071364162416284,-0.14902391377384994,-0.21155088111787912,-0.12582040451063725,-0.15862155459969815
0.284,0.06906093460202174,-0.009090405019900893,-0.07807073365342691,-0.028044895359445945,0.07122242110046081,-0.043866094859696746,-0.05132660076864651,-0.09848621485323922,-0.15485982147779634,-0.21681198979358726,-0.13200893041900608,-0.16447954629850342
0.286,0.06495968995871214,-0.003680292127129367,-0.06847147025378655,-0.029286002553359596,0.06391594969572531,-0.03709789548441048,-0.051636694520205535,-0.10960401181382509,-0.15546752711790143,-0.21801581214141447,-0.1335916660984827,-0.16594050284151193
0.288,0.03722252019086444,-0.001129113055925307,-0.038038314531188736,-0.01792634685455455,0.0350835710955833,-0.021709464811530157,-0.05129211016160929,-0.11145204089535918,-0.1484502916907716,-0.21656625336986987,-0.13236797057704272,-0.1653905460376693
0.29,0.013722720142529773,-0.004627120876971864,-0.017954248470842055,-0.005324417664176833,0.013979531600300023,-0.013729191248302214,-0.052297594574216885,-0.09609280526584318,-0.1369524490437964,-0.2120617643897759,-0.1278451839060773,-0.16257917501095998
0.292,0.01368046332107206,-0.005270139517214396,-0.018700281928033455,-0.004993599994097126,0.01517989104215426,-0.01351879853870292,-0.051077404178452364,-0.06959660566891633,-0.12371569075805514,-0.20218015056641528,-0.11756114295292447,-0.15442220951880395
0.294,0.024289028146692076,0.0028038397896420555,-0.021498620540145792,-0.013813666230133363,0.022636369484068008,-0.009622460596447462,-0.04604087262223625,-0.049763163060249076,-0.11235608569414458,-0.1907984844646289,-0.10532981180308487,-0.1423197662196667
0.296,0.02637146158733229,0.013848288608478313,-0.01266027479997628,-0.019980337962128825,0.01943954908583876,0.0007261453592460399,-0.0417095231950861,-0.04926378065946685,-0.10943308584179337,-0.18777304126034944,-0.10071224555420222,-0.13392933674544524
0.298,0.025421888675572022,0.019362575975353773,-0.006125055054702308,-0.022232252712371284,0.015133211096697978,0.006057146008963559,-0.04241766349446117,-0.06376820538586793,-0.11784710967381956,-0.19701828912093128,-0.10853872693185565,-0.13580950151317053
0.3,0.04134754963482135,0.01817911174936982,-0.023128259453918016,-0.029536800765365714,0.03101509544410724,-0.0039974763413150455,-0.04674124222508576,-0.08001823410065631,-0.1325191922529968,-0.211977343349772,-0.12358597449155885,-0.14721007528728655
0.302,0.0732978117372272,0.013688870309478436,-0.05955398697913867,-0.04263105042140124,0.06539351150784631,-0.024962688176350355,-0.05093961247234834,-0.09041933732953336,-0.14754218709019484,-0.22517983745114173,-0.13639350774369913,-0.16175450842798889
0.304,0.09298160933626332,0.007900377733057507,-0.08507652185509407,-0.04861573341926068,0.08852208233348918,-0.0407113296562298,-0.05288059067455495,-0.09420591801448157,-0.15865643772948743,-0.23255661850217096,-0.14017205086265322,-0.1715300478106638
0.306,0.07892153683365039,0.003188521389191561,-0.07576060503875183,-0.038763570770581735,0.07655623702134597,-0.03819806233540941,-0.0506019710701816,-0.09082266536681244,-0.15770328693806712,-0.22828498012646864,-0.13291346689985772,-0.17044103278189618
0.308,0.04494357868095749,0.003212194618288356,-0.04174713023825815,-0.02190561552684562,0.04142438756645741,-0.020593639565636108,-0.04300866740437831,-0.08124057703411162,-0.13965555929570023,-0.2099909925079812,-0.11897319943877212,-0.15939456256996137
0.31,0.023377804416843947,0.007192479703652011,-0.01617780846468177,-0.013107945104129007,0.01719419754242681,-0.005262203357327311,-0.03347040686825241,-0.07207331867726775,-0.11571738270035023,-0.1899755093817013,-0.10834335647032953,-0.14780034260853944
0.312,0.024359361191531807,0.0074284415767307405,-0.016918743257140306,-0.013460699184863194,0.018882857880604415,-0.005604079144209343,-0.028443448037927463,-0.07109027252819465,-0.10594611367496545,-0.18730534901018855,-0.10902323160210908,-0.14546115517903566
0.314,0.028513213985844044,-0.0010130305738255798,-0.0295464698260663,-0.011452649707587246,0.028891546226894757,-0.01674253385176008,-0.031217507975510372,-0.07949555917254968,-0.11817614501297462,-0.20621282763305898,-0.11923826869344498,-0.15326275860379643
0.316,0.021232596388358102,-0.010381972036834046,-0.031751709330336164,-0.0038525489396250027,0.02710811599737624,-0.023060770680622934,-0.038612380249623525,-0.09104679967400281,-0.14073859212084883,-0.23069082499802426,-0.12973202910445547,-0.1640229203024325
0.318,0.01065227772357762,-0.010207962779655579,-0.021191377219780556,0.0006463945267977805,0.015811688089124157,-0.017992947903643114,-0.044972254600975786,-0.09773622784358708,-0.15478843059501732,-0.2422325438030356,-0.13338576691739593,-0.17057921158292713
0.32,0.007166159845024566,-0.003584956112438255,-0.011172318025617516,-0.0011007520363537633,0.007871486023818595,-0.009820287825295532,-0.048193220362074796,-0.0958929912764974,-0.15143351694854285,-0.23742863334844538,-0.12985969649444956,-0.1706914395766405
0.322,0.0075022158792647,-0.0015747182124133542,-0.00930783615418089,-0.0022126791427503414,0.006655384477524377,-0.007712148373792812,-0.05018847724629408,-0.08855671326365669,-0.13827038257416077,-0.22649893493274886,-0.12257238337055033,-0.16691294942273674
0.324,0.0018316134027699864,-0.007640969045871799,-0.009315069783304073,0.0033679559709829205,0.0041998116794030056,-0.010181412177207444,-0.05232957283439093,-0.08188547083205773,-0.1299580553671331,-0.21939717860214358,-0.11512721737680848,-0.1636278284178179
0.326,-0.014428008776619247,-0.0175298207356879,-0.0026298191689058488,0.015902626772169765,-0.006699953605383646,-0.011244889232799116,-0.053007216094535084,-0.07849814072304787,-0.13332104155900873,-0.21754742799077575,-0.1100565200685096,-0.16229965146952272
0.328,-0.030035361097158528,-0.026611000462904745,0.00393125141760771,0.028250492495641887,-0.01741752652558586,-0.012448054784597902,-0.051416082156472025,-0.07712856658252003,-0.14335640834811508,-0.21787544430908798,-0.10905074336216827,-0.16081713895477578
0.33,-0.0213157368009777,-0.03070298823466253,-0.009046273011088053,0.02682834048352268,-0.006418672018382907,-0.021241439551427044,-0.05070766541258481,-0.07751452523869014,-0.1509478132070486,-0.21907528229476944,-0.11264687209335093,-0.15793702594388348
0.332,0.018218408346287622,-0.027830119365856575,-0.045802605460382034,0.006642250320859483,0.03165903685189995,-0.038302701481536326,-0.053580008209443884,-0.08000490571775692,-0.15136620863415925,-0.22131583825118162,-0.11825981898309804,-0.1550360222046292
0.334,0.061748647257094835,-0.021166447716848023,-0.08264030078125767,-0.01829534700776741,0.0714380987678788,-0.053418732611071405,-0.05796990648076886,-0.08295211896443194,-0.14777340135370104,-0.224362588736563,-0.12125712552603535,-0.1539717604309878
0.336,0.07764239250193927,-0.013693231847716527,-0.09111394819274789,-0.030693991537676497,0.08290646783592906,-0.05429332468931884,-0.059847755093089754,-0.0843741669824218,-0.14647098807762748,-0.2276951355849082,-0.11996896658773035,-0.15522414070695292
0.338,0.0603012244274319,-0.0044894477158259,-0.06473315935594405,-0.027311822055799007,0.060476913117040246,-0.03717657503707326,-0.0568383546202189,-0.08194418134614101,-0.14594531150277829,-0.22839663775629154,-0.11635355736705519,-0.15669915714397442
0.34,0.028191268770354893,0.005916960000510056,-0.022241149551426673,-0.016481521744850073,0.023219929658489933,-0.01108409013481239,-0.049134934799900845,-0.07242735098740617,-0.13624165160271692,-0.2211016628888214,-0.11141706886112944,-0.1540693077987592
0.342,0.004853600142202194,0.012765183959125766,0.008165512656768754,-0.00803649908225655,-0.0032763259274617776,0.007860549190351881,-0.04079600558279082,-0.05886517977835415,-0.11555298683542833,-0.2068329694363349,-0.10546679311233015,-0.1450165010841428
0.344,-0.00020098276367712723,0.010643112555101258,0.011282075155273208,-0.004677121460553287,-0.00717906914380006,0.009061299102836986,-0.038759413601282496,-0.05381596194209994,-0.09914383395441423,-0.19761879834796175,-0.10242346537522035,-0.13348169144149777
0.346,0.0046140659174702045,0.0012129991183232026,-0.0030981897481782445,-0.002631548154594684,0.0025900171163909407,-0.0022523096754689604,-0.04587302709373858,-0.06385729560757866,-0.10152402124539174,-0.2025602821362401,-0.10569612415833829,-0.12548807427234607
0.348,0.011490489977438711,-0.0016989319455620491,-0.013200507508092213,-0.004094233747474396,0.01151134806003239,-0.008509588941140187,-0.055208681654772176,-0.07599494941172166,-0.11635147706897382,-0.21379276465848968,-0.11020330699686173,-0.12074179992258305
0.35,0.02405855857135977,0.012629356310813819,-0.01159371961445889,-0.016612085950032607,0.017290978247985745,-0.00037618204919517416,-0.0569626889981115,-0.07374205878164786,-0.12567888954082554,-0.21753146075889174,-0.10900050773083748,-0.11576260847113184
0.352,0.042874751499160035,0.02998254449146555,-0.012950383653445629,-0.03466673393721332,0.027290518100842442,0.008123955289145083,-0.052151202418281174,-0.062015484754786666,-0.12511241736028783,-0.21425596763786223,-0.10682661019844969,-0.11411903300264878
0.354,0.0570539754519692,0.02600614820684363,-0.030890195337954427,-0.040910907743585766,0.04328769159646012,-0.00213338436088918,-0.051259752173687376,-0.05990106395873871,-0.12625687775985356,-0.21482593507852019,-0.1135617491249683,-0.12142929422913036
0.356,0.0568465661592675,0.0037897109092800644,-0.05279410174534595,-0.03073101791804967,0.05430534507242024,-0.023959822099630792,-0.05687132000432381,-0.0718699595349333,-0.13430636548667993,-0.2204743290493377,-0.12483073710009018,-0.13085291218377107
0.358,0.04134633882346502,-0.009588155091993475,-0.05081147977278161,-0.01618321495868449,0.0455321552876235,-0.03029330429234008,-0.0587968419374511,-0.0828952327571204,-0.13893749387543256,-0.22129741843572165,-0.1244197541011892,-0.1280355317792669
0.36,0.015082190031045967,-0.004745363157888741,-0.01989671035700338,-0.004630157667669298,0.016483056105416036,-0.013600342247513547,-0.05059083150433274,-0.08188395873352856,-0.13309062875020694,-0.2142284543576916,-0.10838937126651947,-0.11212232153928468
0.362,-0.010441477273377138,0.0005010905597053208,0.01094766469095045,0.006158649696892879,-0.012018613693871706,0.0035738809303439093,-0.03999089220279313,-0.07487779598281562,-0.12577397336108737,-0.20964068235067904,-0.09405206738559631,-0.09958270705724219
0.364,-0.017025796465062377,-0.0044221003129380565,0.012783919480570265,0.012128891327704696,-0.015895708273879785,0.002128875284835587,-0.03863529891750829,-0.0725228265624503,-0.1272722029212145,-0.21698831798145374,-0.09946621794770003,-0.1048170261438752
0.366,0.003907866467319765,-0.008839057817401175,-0.012721441888201531,0.004081489751243094,0.007811242558025464,-0.012074232587387695,-0.0491277705968805,-0.0769479861304211,-0.13461671842647727,-0.2330672865890059,-0.12195710292891208,-0.12525517665026162
0.368,0.035940938752400065,-0.007058774692970423,-0.043336529398907045,-0.01234027132916843,0.039021684239098665,-0.025986708419688948,-0.06464563370583941,-0.0850804481379414,-0.13980546347421643,-0.248236849432961,-0.14322303034466347,-0.14649084088402858
0.37,0.050910841498230434,-0.010235224276870881,-0.06156610784802054,-0.017779234420944572,0.05505101981709069,-0.036808903688588517,-0.0764229422505687,-0.09489450499965325,-0.14137367605606338,-0.25625745549583934,-0.1502548585985387,-0.15647446518409713
0.372,0.04078208680699611,-0.022802759780637526,-0.06381248599427179,-0.006475277201273967,0.050795202117699056,-0.04445416665304125,-0.07976488885427327,-0.10294717685733774,-0.1421218723124896,-0.25453378501266605,-0.1441804457952456,-0.15357243786375344
0.374,0.025869403711070743,-0.028467992045134824,-0.054502966949915216,0.0032383817207331505,0.03896687749406449,-0.042605935582625126,-0.07495423016612998,-0.10144673528089294,-0.14179107554637296,-0.24248918319524448,-0.1316613064809032,-0.1434496839827651
0.376,0.02591138727605898,-0.011504521714096112,-0.037723257043260454,-0.005937083754370366,0.031134363106944833,-0.025822509665779543,-0.06560284584533614,-0.08429140182468921,-0.13448582615053223,-0.22347222110309495,-0.11639158603681234,-0.13188532876370795
0.378,0.03604866977641652,0.017872704177578264,-0.01858200842174493,-0.026210480979803826,0.02681507588073512,-0.001913230697836135,-0.057500569867874975,-0.0575776886103402,-0.1148387350369078,-0.20487534198149882,-0.10165341083755408,-0.12276226437811229
0.38,0.042275203555066546,0.03265268495305715,-0.010008023370087365,-0.037119427495840386,0.025392966101068715,0.009836200782362702,-0.05575866620657379,-0.03922665959497746,-0.09007079141276901,-0.1954120139708797,-0.09418979292645124,-0.1188385642428019
0.382,0.04406913639271865,0.022226362817403242,-0.022149497253880435,-0.03284193633071827,0.032055406550568405,-0.0006582993760610915,-0.06001108595472472,-0.04138184968402942,-0.07908247775632572,-0.20049589771666354,-0.0985867294948962,-0.12037186821323587
0.384,0.044504290200960854,0.0016946100687257942,-0.04297075348778691,-0.022205799375317494,0.04238655961372625,-0.02073071877801577,-0.0647397205261438,-0.055710076630880956,-0.09120977435471651,-0.21642532066257572,-0.1098014971616015,-0.12543479265047783
0.386,0.03547002924327994,-0.012657432279703291,-0.04811667497137151,-0.009838139750030579,0.0401941367906447,-0.030982247503556593,-0.06601635116344996,-0.06396402959164339,-0.11288670128685539,-0.2308737750151465,-0.1167979523492201,-0.13255445158394552
0.388,0.014061254272247642,-0.018199750071691327,-0.03217373888542955,0.003666123781291798,0.021770868765027776,-0.026846649914384114,-0.06487532884253927,-0.059837491149971465,-0.12258683000363436,-0.23317193612424644,-0.11403572729056169,-0.14061103627649835
0.39,-0.0015752079328678196,-0.013768025271280696,-0.01214981425869885,0.008855797077668481,0.004599991478193337,-0.014746836662953986,-0.06329391805638715,-0.05126521723114335,-0.1129108653911278,-0.22342587649972206,-0.10584723787098638,-0.14719680250047207
0.392,0.005284513702038919,0.004156233777571303,-0.0011522731113163395,-0.0035675538751990224,0.0026051338213448506,0.0008440777126410644,-0.060997508784281465,-0.04562761815180648,-0.09458077649639347,-0.21029770610230103,-0.09953958035945659,-0.14960292081775237
0.394,0.024945307371484676,0.025961064353569516,0.0009809396250537669,-0.023723352528505267,0.010603530375084958,0.013669596262930498,-0.058077947846397956,-0.043766722406052345,-0.08355584955782519,-0.2022557374850381,-0.09881231551687232,-0.1476971420781255
0.396,0.03716506578080033,0.030730988081622446,-0.006459922738702497,-0.031697361036442856,0.019984996890726445,0.011581369891205768,-0.057406611155037236,-0.04554062789659736,-0.08634391154336028,-0.20229311336594172,-0.10409337326105111,-0.14496384308738508
0.398,0.036180786875346864,0.011329795850966325,-0.024987255055404698,-0.0217277026944842,0.029303023245083708,-0.008991577398201119,-0.06151874373468079,-0.05131745771144769,-0.0966511149275948,-0.20804167471569024,-0.11373477444019191,-0.14562154106359126
0.4,0.026589448972536962,-0.015735119773181958,-0.04277305864426949,-0.004255855220031846,0.03411223106157001,-0.03203217896096371,-0.06851503145822557,-0.05926169916004098,-0.10505195827040527,-0.2148738632768769,-0.1236852135133372,-0.15041516254242118
0.402,0.013119171288159086,-0.027815345527522708,-0.04168890222744992,0.007865110168239537,0.026982655906669855,-0.03662500190893638,-0.07341792726879277,-0.06689964442677225,-0.10955668411929413,-0.22027844500963262,-0.12974862844078028,-0.15578707066028555
0.404,0.00391818128400784,-0.017521531373057307,-0.022125525999687527,0.007436133234158018,0.012524405839841825,-0.020558008306972287,-0.07370228637767322,-0.0734197906132719,-0.11471556051479649,-0.22546437639116895,-0.1310274678830163,-0.15747491731159605
0.406,0.009535784986232951,0.002721158982458242,-0.00704577568132388,-0.005030320463644249,0.0077729007156133924,-0.0028336870651482354,-0.07199466088117448,-0.07770531361466278,-0.12217240332158776,-0.2316999309857577,-0.12965360597386408,-0.1545577333692899
0.408,0.03339692939985064,0.017566291022911483,-0.01565559744710321,-0.024157167994575405,0.023772136359731046,-0.0006806023450396183,-0.07154905417924423,-0.07650455369944993,-0.12640578902490776,-0.23572279021759673,-0.12708323812632902,-0.14919823396392717
0.41,0.06574838556672197,0.02528393005763377,-0.040253037978819725,-0.0440266379268406,0.05184234223733519,-0.010151132280239828,-0.07085888558134526,-0.06731287563667995,-0.12128219811557218,-0.23136416774097363,-0.12198122310376376,-0.14280839343696483
0.412,0.0863149714698776,0.029688941610259072,-0.056609743901931055,-0.05621397106237286,0.07008312310018305,-0.01643771912113363,-0.06723420731245756,-0.05386052180394756,-0.10863343438287891,-0.21824409975659526,-0.11358705506291802,-0.13477317171571102
0.414,0.07939657551634725,0.026384960966245336,-0.0531158573754858,-0.05102001064710511,0.06474377175378611,-0.0158146719556613,-0.06347812174919246,-0.04572816187525025,-0.097878077620235,-0.20609278473400797,-0.10583867545087025,-0.12542752799854298
0.416,0.04883641974808108,0.010636039045795206,-0.03828127270871002,-0.028074607793658415,0.04182456888157233,-0.015410042354164925,-0.06405797961102695,-0.04799468471241187,-0.09591602388964296,-0.20450671786574917,-0.10338327925749943,-0.11645593091629258
0.418,0.013187177834124025,-0.0099992792459348,-0.0232895815356081,-9.755031117205173e-05,0.016481893209918188,-0.017847521769605995,-0.06709011181090102,-0.05463862072144945,-0.09922182452345915,-0.21036992231260787,-0.10446641919910513,-0.10726399157758189
0.42,-0.00936611228332306,-0.021807838201098946,-0.0127236606319905,0.016927446888941867,0.0003153345035177749,-0.01882310902974624,-0.067557500699152,-0.057447097156398896,-0.0994985669723575,-0.21276084773747295,-0.10394200657113747,-0.09614646733513794
0.422,-0.010859081999306273,-0.018795822437143023,-0.008352988039647851,0.015902059330516298,-0.0020615692331221983,-0.015507572765586243,-0.06533684271601367,-0.05603054542030019,-0.0951576306900253,-0.20824186097556244,-0.10196921165395545,-0.08581181205565352
0.424,0.0016146020866402867,-0.006747910758190064,-0.008639812967081646,0.003667010931433446,0.004606967860482512,-0.009330405668804503,-0.06397772042644372,-0.05434251848084385,-0.0924458072841495,-0.20385328090747049,-0.10333418350742518,-0.08160233321901562
0.426,0.012129113555915923,0.003166730842001732,-0.00895056543854276,-0.006077148344808528,0.009805374327801859,-0.0037219765199138595,-0.06465117576256642,-0.053333826715443386,-0.09689977828470642,-0.20681677763386266,-0.1087946530977093,-0.08317911248222296
0.428,0.013055333714953732,0.005180227390575186,-0.007745994135557958,-0.007272603502504217,0.009136399998292188,-0.0014234298039042619,-0.06565286047155632,-0.051443990487785154,-0.10763382477691136,-0.21711102992991704,-0.1131193514130235,-0.08421645270506864
0.43,0.011114330589578681,0.0031218412101799323,-0.00805051884428461,-0.005686176720872348,0.007828514252643885,-0.002613345952507414,-0.06669830009900088,-0.049530693179871105,-0.1187957016765949,-0.2291256362655367,-0.11335216423002785,-0.08266149020476313
0.432,0.012933289954566786,0.0011095491215358806,-0.012195347736724977,-0.006362294437804462,0.01051593154053551,-0.0065909821643095005,-0.06988162748229897,-0.05135213029537595,-0.12370523877725839,-0.23627247369362842,-0.11306085779083248,-0.08437081275316345
0.434,0.013970750513438978,-0.003774193741393144,-0.018206596232866894,-0.004798971239493514,0.014093221778422604,-0.013273554209943403,-0.07514912538934523,-0.05832219960269845,-0.11986817197431092,-0.23483943047567563,-0.11527181631403555,-0.09266191447103285
0.436,0.008647709457102751,-0.013764877137115918,-0.022564153992859513,0.0034111187395850155,0.014211631650700862,-0.021024443457722627,-0.07907516303796011,-0.06726360870781377,-0.11348837472432177,-0.22791416272307838,-0.11795321140029175,-0.10178128174665499
0.438,0.0006667271140744734,-0.023020862044630414,-0.023457201739172685,0.013037584838501235,0.011581925661547187,-0.025528897901210806,-0.07939953655771019,-0.07382311192906402,-0.1141292205113297,-0.2236108241744941,-0.11901058856848483,-0.10397628071064527
0.44,-0.00510553505977126,-0.023330067142068027,-0.018097326471094265,0.01654080020256012,0.006543489928087497,-0.021829688508520736,-0.07636019886282519,-0.07424513091152184,-0.12062881941242695,-0.22542854548513494,-0.11909828424966806,-0.09663393377668267
0.442,-0.009033621639186615,-0.014230800413258107,-0.005636722470319664,0.013718198883856307,-0.002017656782089111,-0.010258713753035244,-0.07138396784836494,-0.0670021858502452,-0.12122273159714578,-0.22965470224563989,-0.11949037228957861,-0.08352015537687865
0.444,-0.008117369010517364,-0.005400195941553354,0.001953706464071207,0.008594436658141328,-0.006447609156748767,-0.001965974047521535,-0.06809185872412306,-0.056926811237612764,-0.112223349172397,-0.23386024263639812,-0.12157212928929897,-0.07348638592493284
0.446,0.004422532170472408,-0.005509503178539785,-0.010387997483548567,0.002282578427905541,0.00491086692427004,-0.008398420800976707,-0.0692959408014963,-0.05150314548386455,-0.10374157868237148,-0.23830397186565758,-0.1251626098110325,-0.0730854969798812
0.448,0.025209934319973,-0.009059915304341287,-0.034288623187277566,-0.006658966337416293,0.02694198237813147,-0.02233606320482107,-0.07169043728676347,-0.05069846127031412,-0.10212670492413542,-0.23900385221488374,-0.1258394472740018,-0.07878469376675129
0.45,0.04190676424802803,-0.0026832948677228455,-0.04462859115073945,-0.018518035718150125,0.04115967458976723,-0.024664348596213453,-0.07045680479146196,-0.04859429950903731,-0.10150821790678541,-0.23070551636641407,-0.1194932414372319,-0.08206973014840685
0.452,0.04895664314376853,0.014802081066706524,-0.034489887135911876,-0.030438820081453804,0.040911540448652174,-0.011484293699399092,-0.06715796452064013,-0.04436081712203103,-0.09666927963072684,-0.21667215177769827,-0.10959464451495995,-0.08015234669940888
0.454,0.04640025399268461,0.029036567987078824,-0.017731430059128826,-0.0354209744780761,0.032265305202948555,0.003230197732508068,-0.06509521772015586,-0.04189058208904221,-0.09041758907096821,-0.20647161675572367,-0.10380116874627539,-0.07563972776472365
0.456,0.030788146704693656,0.028693684352870875,-0.0021481896631024614,-0.027136346191035204,0.01656273143117415,0.010407146106309524,-0.06179439825364689,-0.042443742790926775,-0.08716959035543292,-0.20542721365885094,-0.10447786944569909,-0.07029106714788338
0.458,0.003485191767265657,0.01685835978707199,0.013662571425185045,-0.008360690010213301,-0.006222126879650056,0.012731035958402035,-0.05571066379181582,-0.04760366958759969,-0.09032273258539927,-0.21258284927470758,-0.10877229760382247,-0.06576291496063431
0.46,-0.020963829895702155,0.004112188998625934,0.025527655575402087,0.009126720900837475,-0.02574812755746204,0.013190570293834684,-0.0530569986111576,-0.05978129819123957,-0.1018386082867646,-0.2236829043882155,-0.11368023565328765,-0.06424878000123575
0.462,-0.026744174065084683,0.0009028106904118128,0.02804589967453898,0.013316765934176477,-0.030408125073906375,0.01354342272874802,-0.05802622173704273,-0.06974086194252724,-0.11511692159508259,-0.23052757174365937,-0.11460145379778436,-0.06318873740721388
0.464,-0.013413167654939443,0.011593169941842568,0.02518291390648641,0.001975231432070972,-0.02182288630421803,0.017439085248734616,-0.0651454716015916,-0.0606918665692514,-0.11673936251827562,-0.22582720553865723,-0.10704857194248321,-0.0583103493548248
0.466,0.004578607508597448,0.027343634406676955,0.022714185027610214,-0.014002730630473685,-0.010590929768515426,0.023478999976063446,-0.06844865890413362,-0.03577082901799168,-0.10385250990130432,-0.21338224889733756,-0.09585762406687998,-0.05428430025840351
0.468,0.013998634324884827,0.033395331421649424,0.019259880402828736,-0.021447665150389976,-0.0032953188391615664,0.0241024389193659,-0.06858406651221935,-0.02104443609119533,-0.09016934257132062,-0.20510425849802255,-0.09294449784426978,-0.06019499347445975
0.47,0.013141719196237417,0.026695721339710796,0.013387970936201754,-0.018093303633305708,-0.000577796757136897,0.01754143622081143,-0.0671424107616648,-0.030527833579095442,-0.08742032582125044,-0.20586944002052027,-0.10085933788561341,-0.07285077943997897
0.472,0.006663031998895012,0.016758090149493244,0.009810527242962493,-0.01031888537463036,-0.002330484090937164,0.010947981942878247,-0.0635638845634603,-0.04802864662633435,-0.09105271138827246,-0.20990589310371377,-0.10889884779347415,-0.07853959021050237
0.474,0.0009070270026574644,0.010709944137998107,0.009419635444085729,-0.004388778527180603,-0.005278424398889651,0.007974864435293692,-0.0607683438468997,-0.05374000288605849,-0.09248588273293051,-0.21390292583152362,-0.11063786368251077,-0.07434275137847475
0.476,0.005612733989564196,0.0070443804366717416,0.0011718706190481805,-0.004919134597234406,0.0011292594596708882,0.002238663812375131,-0.06557125262012929,-0.05085504737322038,-0.09539146637711157,-0.22365222827502587,-0.11425001195934151,-0.07379111333927904
0.478,0.02533472105776792,0.002368847618506936,-0.02296353287314065,-0.012991886023315576,0.022931489900533817,-0.011785023391558652,-0.07862853543773773,-0.05382783862376446,-0.10740882952387198,-0.2418266731919526,-0.12789668893495512,-0.08635381679012138
0.48,0.04428785957066288,-0.002608617367044106,-0.046759512143592905,-0.020610473026205105,0.04397367133958637,-0.02590349757090101,-0.08899247568232689,-0.06311574059630072,-0.12235320116809706,-0.25707049262179066,-0.14381389647350776,-0.10218223338831259
0.482,0.03690500867755639,-0.0031793378048546135,-0.040012634820178375,-0.016534546005675936,0.036605156785979844,-0.02318139447772153,-0.08453382356138026,-0.0647483500055961,-0.12539207161926091,-0.2540076125443814,-0.1462938510202345,-0.10366771306921427
0.484,0.003483294353895782,0.00674698699819072,0.0032264337555144764,-0.0038798794142378143,-0.0015913397884827806,0.0028065074187753475,-0.06629969651472957,-0.05039882023150157,-0.11226715684374203,-0.2306312016108704,-0.1313256987930617,-0.08732262024435088
0.486,-0.02266948284108808,0.029680185137355625,0.05231479019319471,-0.0014911523357978764,-0.03866903646443997,0.03904621872014704,-0.04760311527156414,-0.028351696009592278,-0.08998601968901766,-0.19876311064324637,-0.1099499381423693,-0.06748469617149044
0.488,-0.01665686646617503,0.057809190990078495,0.0746121208637252,-0.01891554369567642,-0.046455767390251305,0.06527025925185392,-0.038945031337106986,-0.01398137071677326,-0.06519173787819446,-0.17089014760129934,-0.09339492773347764,-0.058006647088058486
0.49,0.007925919619381357,0.07559086322422294,0.06815109932977449,-0.04130026569413215,-0.031238813832904312,0.0713859393739284,-0.03859105875897726,-0.014574614992829967,-0.04559139448656905,-0.15323844312053064,-0.08302494249566902,-0.05729702919920396
0.492,0.02254092202112945,0.07607950978729262,0.05430563223944813,-0.04945845156379395,-0.017617520970690793,0.06389438943476387,-0.039452592757124046,-0.02466253022563458,-0.04256340993071262,-0.1477566013153806,-0.07610961320230872,-0.055060804831574925
0.494,0.018732918813396365,0.06866188768642466,0.050600299072694505,-0.042969456203128906,-0.017695870492668984,0.05717242102536734,-0.04016137878582069,-0.032780269745777885,-0.05771390351989136,-0.15339399851130273,-0.07358251680586765,-0.04784887784684158
0.496,0.008405164964424484,0.06400111019058442,0.05581327542925577,-0.03388938253089736,-0.02479876806311017,0.05728373850798566,-0.04403651750674023,-0.031107034835566833,-0.07436284410132941,-0.16448504944870854,-0.07706550588956182,-0.041414211533385856
0.498,0.0028347341446755357,0.060773394913186576,0.057764921769716246,-0.028743015776304916,-0.02804028020098494,0.05769888094799185,-0.049742886691679,-0.02004487312031426,-0.07342998173410194,-0.1713185723949572,-0.0824595902089994,-0.039559978907011344
0.5,0.002281045782814799,0.053598058462705746,0.05111375742343717,-0.025491590564989487,-0.02492225488063268,0.05189425797793433,-0.0514367064380747,-0.007091835820194594,-0.055772447759526944,-0.16786484439592342,-0.08361939046413355,-0.03925960932997903
0.502,0.0036263383603569238,0.04549749538688642,0.04185805902126664,-0.023047037454792123,-0.019520189577240055,0.04307575596458543,-0.048647529439015985,-0.002021049461787596,-0.041495519097875855,-0.15964848837384674,-0.08127724824405817,-0.03873073872621047
0.504,0.009929012113711177,0.04656510553481675,0.036737404695964905,-0.02692123821013801,-0.01377036965327115,0.03980464242018081,-0.04723833813255496,-0.008187477147191894,-0.045325801300021645,-0.15759354473670578,-0.08115387067848602,-0.04094287591743054
0.506,0.023806155722122187,0.06126720465934014,0.03751686137143736,-0.04102090911725685,-0.00788770878600583,0.046589670717052986,-0.0498364677931859,-0.01815042343868369,-0.060224249655380195,-0.16423391728137274,-0.08440757641999096,-0.04562975359055097
0.508,0.033418084132479695,0.0793661180611584,0.04594188225544937,-0.055260686220681324,-0.008487948730753736,0.059956348037171106,-0.052567175960274624,-0.021976362026761162,-0.06914610948997767,-0.17160027898622723,-0.08590496723847528,-0.04562001601513859
0.51,0.02046480118762735,0.0848818399481781,0.06452657111597508,-0.05244383305343621,-0.02493369573312284,0.07253286922909526,-0.05108623314307145,-0.01741790311674109,-0.06419004262204595,-0.17062941022285033,-0.08015929622572054,-0.034935511809107325
0.512,-0.011616643740970347,0.07487039409496694,0.08694020176350772,-0.031860788534733515,-0.051715701014837294,0.07887421507320813,-0.04620995672665058,-0.009674347273926982,-0.05021500994784987,-0.15947426318521318,-0.067022118993399,-0.017200374123540325
0.514,-0.032978090298141645,0.06160405766729425,0.09535334628039445,-0.014022654626942077,-0.06543314607268481,0.07637049101518409,-0.044585073098731,-0.005914568600592071,-0.03823491690514222,-0.14547962642820306,-0.0542939839671719,-0.004014192661880683
0.516,-0.02209652252247389,0.05580233707977861,0.07859015272029335,-0.015536342097723142,-0.05070765566952404,0.06531966788311255,-0.05302942266003733,-0.011296779121988187,-0.03809124315298916,-0.13967943979739741,-0.05241597351498428,-0.004767202655752724
0.518,0.007357363678519551,0.057630907926327635,0.05049813709396368,-0.030562576265112544,-0.02193148852087288,0.05249912117963203,-0.0695807043904929,-0.025169293590720378,-0.05046316803489535,-0.14643591835216754,-0.06273121790990895,-0.017008155769251215
0.52,0.02538107920479738,0.06279955890811989,0.037237316786234494,-0.04235216961603689,-0.006915545596234387,0.04833006016442722,-0.08326747777247324,-0.040083990831707876,-0.06569595821946889,-0.15941260514545705,-0.07493178749438004,-0.027944901515772363
0.522,0.0180193952818234,0.06492489404893494,0.04669473526042765,-0.04033308971730072,-0.01566639286594181,0.05390657203253409,-0.08674369348210234,-0.048726376405864226,-0.07569935356113715,-0.17035890535875386,-0.07962120118407137,-0.02780881558702325
0.524,-0.00771729292775527,0.056276568919507206,0.06398122915336556,-0.023413102112900458,-0.03682575212736449,0.058611255082389936,-0.08510794053894336,-0.051144146436989994,-0.08282004805999671,-0.17884486035925304,-0.07849531195062029,-0.019941473776876037
0.526,-0.03407422505351364,0.03949352011264288,0.07367337605827975,-0.0014074295213001857,-0.054479816601612774,0.05583877056440276,-0.08826138553294113,-0.051892063320788384,-0.09204033905273577,-0.18897081808281718,-0.07822996514301693,-0.01552441845286181
0.528,-0.04118613577502678,0.03085626404294243,0.07210002154935977,0.007276922597506287,-0.05746479501590841,0.05102082515058662,-0.09911263519208997,-0.05334040029458036,-0.10135039034298776,-0.19958027210059615,-0.07996576247107838,-0.021235594630953904
0.53,-0.020544183571646328,0.04144526963586752,0.06195986880601138,-0.007885161933074791,-0.04232651480168773,0.05067287505117271,-0.11168341231662288,-0.05418051732708921,-0.10401351915504689,-0.20328033687655908,-0.07971149281794827,-0.03374812711225082
0.532,0.015660696933411843,0.06279931050325713,0.04709318997709717,-0.036924297534834116,-0.01634565922769599,0.05305184444160121,-0.11735493747446842,-0.05163111749221587,-0.09551799482339063,-0.1947279327243949,-0.07444536719761782,-0.0435211225196771
0.534,0.04439791757653068,0.07711489788370582,0.03271141195410387,-0.059215840070154166,0.005942540590813948,0.05280842512580136,-0.11384454130807059,-0.04540400663099934,-0.07845198586010946,-0.17786843745229627,-0.06523323895189913,-0.043881488156504424
0.536,0.05248414357312419,0.0769325068035447,0.02447046652139845,-0.06408333266264145,0.01406888147781148,0.04930536353658061,-0.1088775971594702,-0.03970711296411497,-0.06239455789802099,-0.164354711522329,-0.05758988281125288,-0.03832032110267305
0.538,0.045944100033704686,0.070116534745685,0.024186024415175793,-0.0580110965278145,0.009876784513227772,0.046665210873705495,-0.11051213902150014,-0.038788878289330496,-0.05590151498256868,-0.16287453043188846,-0.05726252683077642,-0.03647484206957779
0.54,0.036961339416449045,0.06575761912103242,0.0287907095740039,-0.05121939281376827,0.0019927145920447583,0.04722253294741399,-0.11544370192743465,-0.04230629613351825,-0.05897360769700033,-0.1703933377178427,-0.06362272629375215,-0.04189869929125243
0.542,0.0263920221053587,0.0612161116650139,0.034814013967779785,-0.04314977708117661,-0.0062234339352090365,0.047968170103032906,-0.11439404610386684,-0.046993668825634764,-0.06611536680697298,-0.17709443878164932,-0.07041402853232591,-0.048716776146711015
0.544,0.008767042088328358,0.04745479194677235,0.0386859772564425,-0.027329225620858384,-0.01595569046819214,0.04280973076109951,-0.10717825927364992,-0.0502600716358941,-0.07365458307353609,-0.17867319327563444,-0.073374149948215,-0.05168555829773689
0.546,-0.00811114212192212,0.024971874621345775,0.03308766848280418,-0.007810476805332199,-0.021151279749279682,0.028365267221025628,-0.10308735780618257,-0.05074942332980656,-0.07936635683478066,-0.1785947540961467,-0.07362050447923638,-0.053499992867642523
0.548,-0.004680863450487861,0.00984930842675025,0.01453336109478016,-0.0015538426246828028,-0.010888733214978925,0.011103408405629182,-0.10615745887202258,-0.04673974170330489,-0.0781320085784201,-0.17871651979728992,-0.07313502016534071,-0.05881700362351524
0.55,0.022147026580863143,0.01768691624824282,-0.004461125563677215,-0.017793610557786003,0.01124211814824669,0.005324100323166321,-0.10901501907703455,-0.03596251792929453,-0.06560862641359237,-0.1745843907266027,-0.07046374301635776,-0.06578878643094338
0.552,0.04672489823054123,0.04128779077617511,-0.005417393191063442,-0.04103534584057357,0.02422997487427074,0.016618919557221293,-0.10399176472344442,-0.019144500330868192,-0.04604739611207792,-0.1630019757976876,-0.06417599959145238,-0.069573557137699
0.554,0.045251872352095164,0.05648280988219239,0.011361744380989266,-0.04802431383125809,0.016024754663476293,0.03253275889910022,-0.09386989950148102,-0.00369139648333995,-0.03092150772190277,-0.15000478631127034,-0.05853546660478354,-0.07230457507117756
0.556,0.028430400812232845,0.05312456351927206,0.02502255311151187,-0.038785438851629155,0.0015238627473972153,0.03752676618129069,-0.08785966655581211,0.00018570646420667917,-0.028916504047928157,-0.1466475636919972,-0.05999056725338095,-0.08166004888768594
0.558,0.025217660283885498,0.044103922830810216,0.019287669836344824,-0.03351206948484275,0.0028800955833676325,0.030094243029574697,-0.09025108775444626,-0.009471818845354241,-0.03801495054378472,-0.15637060882012488,-0.06787300070268193,-0.09853145704479004
0.56,0.0399760387147029,0.03995662653434608,0.00010463691362991648,-0.03936803732666976,0.019348667441035795,0.018566597200644158,-0.09634709729224675,-0.02191979599275811,-0.04665768248162017,-0.16971807966371344,-0.07391901650125954,-0.11287855737643533
0.562,0.04805578228133218,0.03489152903974524,-0.013517834498668052,-0.041340244412285926,0.029381604175239356,0.009249012653930582,-0.09888097652208216,-0.025271311788104225,-0.04469588554815304,-0.1744054553433865,-0.0722214137948024,-0.11461862416217702
0.564,0.03488489258012342,0.02507518593735092,-0.010378245968708266,-0.030176839670057697,0.020533988883318983,0.0055018442505511455,-0.0952736594002151,-0.02006640278162922,-0.034074482925540224,-0.1683635178018191,-0.0655941502480984,-0.10510599925545727
0.566,0.0167272526836057,0.020466032144906846,0.003420224115989438,-0.0185751847150362,0.004562008284239854,0.009550125752424202,-0.08754362404996781,-0.016243708190565042,-0.02626690293809845,-0.16021625314636173,-0.060877038054701585,-0.09495923755680313
0.568,0.015740165574782566,0.028845001676769857,0.01315487092606115,-0.021489442952476345,9.388383633044717e-05,0.018603502303314187,-0.07885379428279163,-0.020220494807897126,-0.03070195245085445,-0.15984755920572968,-0.061553608245699956,-0.09217630208334875
0.57,0.029876829310183272,0.04272323096250584,0.012917272815652107,-0.03472514401826633,0.008345505633701662,0.026111346992034847,-0.07149563310450198,-0.028909284556045006,-0.046895066613654994,-0.16954013107812776,-0.065826708403806,-0.0953671880088982
0.572,0.03509471754881639,0.0475790999703568,0.012222233481772154,-0.039383771548739746,0.011452812753490513,0.028893671955356557,-0.06585086418801632,-0.033834182825925006,-0.0644621554888775,-0.18205038442425572,-0.070160135655666,-0.09894862968748214
0.574,0.01652726654233972,0.03557649999649194,0.018550856813692295,-0.024028065939443274,-0.00204044678019859,0.026100641284266944,-0.06250260960791351,-0.030899395989485143,-0.0716667794944763,-0.18936286413974784,-0.07521408533155852,-0.10216782518759379
0.576,-0.006857353264462304,0.01416316141920949,0.020693278491016823,-0.0017798898925052683,-0.016173260690334805,0.016018980575953287,-0.06449186762598502,-0.02597370851893453,-0.06632411500189185,-0.19277401926081306,-0.08561402280525164,-0.10854539746731738
0.578,-0.006161918449077033,0.0024599856602510657,0.008654276462066046,0.0033563165394103972,-0.010406746658474667,0.003838210139795596,-0.07169633964977684,-0.027483081006787292,-0.05622850934633392,-0.19827250993191772,-0.10017631371418585,-0.11611460655965672
0.58,0.007902890022479382,0.009635244320738635,0.001920318999496933,-0.007737479332644756,0.0003256254144647125,0.0040801087120499535,-0.07534095878945125,-0.03560628363690475,-0.04975467196146748,-0.2044351259053525,-0.10810993270246723,-0.11569851988312012
0.582,-0.006933863358524562,0.020669612602477037,0.027705115046129405,-0.0060836964551818,-0.019439317356554665,0.02265380631718376,-0.06724503092382764,-0.04312013775076348,-0.04911416005118965,-0.2042408406475806,-0.10174038835687763,-0.10411813111143957
0.584,-0.05602233492697941,0.016134938334983577,0.07222734025382284,0.021106196192491485,-0.06594725107642947,0.04291650231433115,-0.053416530746641454,-0.04439073892978935,-0.050816199625794194,-0.19757183189483968,-0.0885135556973395,-0.09317064303416411
0.586,-0.08541878185451779,0.00010178636495178611,0.08577535897786037,0.044554110011095424,-0.08709404235241291,0.04206900067813294,-0.04918241103210809,-0.03935370958161483,-0.04981303611054836,-0.19244955864862665,-0.08355450020703586,-0.09819397983957893
0.588,-0.05151053630377284,-0.0063665883608480505,0.045564899897050176,0.03108619092222546,-0.04961716177096532,0.019166825808573186,-0.06064192753549573,-0.03133081095543718,-0.045309640657324464,-0.19504180026731036,-0.0931092936410752,-0.12056360291730059
0.59,0.014892668639659865,0.003376669018837316,-0.011221765348725696,-0.007328211285007991,0.011910829178769587,-0.003937676383947462,-0.07834655124905729,-0.025555029744986888,-0.04351436189410624,-0.205605563457522,-0.1101707722475901,-0.14683277539045916
0.592,0.044632780372550786,0.013271240551364673,-0.03136783154742426,-0.02743389286758794,0.03630465250629836,-0.008832894034391536,-0.0890270627628235,-0.026222889883216662,-0.04905739790711696,-0.21949006843700547,-0.12308328458398149,-0.1626033501940631
0.594,0.01613396746470764,0.010789712453493666,-0.005501891027618808,-0.011941267102458273,0.009114815512567122,0.0026217238551323467,-0.08781947396093143,-0.031099158117527833,-0.0548775885073679,-0.22777977376479253,-0.12482061696791703,-0.16403154884569587
0.596,-0.02628710456393744,0.004613201782304476,0.0308208653378171,0.012368503902381263,-0.0293045187862863,0.017090001251306813,-0.07966285583329867,-0.03394484224474202,-0.051280249633256246,-0.22462616117509474,-0.11699612524979652,-0.1584360285669922
0.598,-0.03658747682514925,0.008349800553299614,0.044982118213228874,0.015478482461615749,-0.040723714066531275,0.025656127740024157,-0.07245663530217208,-0.03346792884486073,-0.04236164098638151,-0.21512016592209468,-0.10739374976422766,-0.1558341991706843
0.6,-0.01822586920716267,0.01995899973515871,0.03824952513657961,0.00013373345974156473,-0.02864206706684238,0.028138707019194183,-0.06976078719804317,-0.034604181664227,-0.041322193823529696,-0.21005463407386893,-0.10344438689979116,-0.16020572274213035
0.602,-0.002748011105037128,0.025979317103468645,0.02873412737502423,-0.011119416990045018,-0.017470569289279217,0.02628477947953771,-0.07034786561508309,-0.0407022402378537,-0.05207701759724619,-0.21455320041437578,-0.10758868460613456,-0.16918211316437426
0.604,-0.004305461382271234,0.020492088566139835,0.024765663930184343,-0.008041771581307845,-0.017030536180551364,0.021106256604421746,-0.07179226513631694,-0.04693570959927267,-0.06336066278351117,-0.22343250403600995,-0.1155717686996358,-0.1782511002737947
0.606,-0.014994740160936808,0.013222848117642842,0.028198649696781763,0.0010241764078708923,-0.02368311800157613,0.019163793816513657,-0.07055621324520454,-0.043275256537045316,-0.05961804146549578,-0.22554830366894696,-0.11830673430734455,-0.18178659663612423
0.608,-0.02929257020680028,0.014675531107008534,0.04397643736572016,0.008302134610863744,-0.03791430733480838,0.028417850428360886,-0.06289210251007575,-0.026827158270376697,-0.03737436560733027,-0.21481754423882513,-0.11033257375505708,-0.17458643269301566
0.61,-0.04980781458726302,0.018355510851907664,0.06815569592817165,0.017687447542287647,-0.060018324594855496,0.04261942232863329,-0.05042472948593521,-0.009127135623116164,-0.012118009863409555,-0.19801461143372967,-0.09646742723568441,-0.15596342395520812
0.612,-0.07159623363757237,0.010888836493538645,0.08235604052878845,0.03242494910065948,-0.07844025210299264,0.045342507883813214,-0.040694266074010395,-0.004788750368544167,-0.004143068984781552,-0.1885204622962422,-0.0863993761735151,-0.12939767392314916
0.614,-0.08147638751733983,-0.006862146855777454,0.07425816552964881,0.04554680497362426,-0.07992938836964368,0.03176337682334334,-0.039892041095109916,-0.01428683352159113,-0.01658186634028536,-0.19352979541108525,-0.08569937115157093,-0.10053592012783881
0.616,-0.0775251529263571,-0.025643993213068747,0.0513227832863048,0.052506106096021944,-0.0668474829054988,0.011084913267588658,-0.04821882964264935,-0.02556160512140926,-0.034432907714737324,-0.20989574006139397,-0.09410449218984804,-0.07952511099898313
0.618,-0.07195418108868326,-0.04266847758650411,0.028704280920476267,0.058688881444203415,-0.052830292917589596,-0.008028697684139878,-0.06069047592960678,-0.03103773506268033,-0.044430468463346535,-0.22865610529222194,-0.10710178593394595,-0.07768954108340573
0.62,-0.07121511323411914,-0.05385270227407308,0.016946705206140965,0.06483170779224544,-0.04634459340707321,-0.019046168601509237,-0.06912140813174715,-0.034123147628318015,-0.046451541714120144,-0.24047692523433384,-0.11693516929838367,-0.09519674703408915
0.622,-0.06923252544995555,-0.04705701560150095,0.021935123220744975,0.060774484589916376,-0.047078544789155824,-0.013305460285088985,-0.06736088194423324,-0.03946965425323643,-0.04654449320082403,-0.24083018144779186,-0.11684953724365363,-0.11813104587995957
0.624,-0.0599466620619994,-0.01956905395097938,0.04013767222630147,0.04169743194484382,-0.050436469666113676,0.009118405999314719,-0.05855710945382878,-0.045532559860116735,-0.04855106496752524,-0.23337475840617825,-0.10740691439080231,-0.13233055452849138
0.626,-0.04314422110875193,0.011201788665331017,0.05402203228380499,0.01698786199235855,-0.04851284283325187,0.031287681745550036,-0.052903567587651586,-0.04810709818348127,-0.05228278897602148,-0.22584952191280247,-0.0964667588097173,-0.13541363333916528
0.628,-0.02290577403296985,0.02762172850544486,0.05027903027529606,-0.001580457570783334,-0.03737076923457045,0.0377905832541013,-0.05500003709175184,-0.04479062121198252,-0.05318355495183012,-0.22121857862068547,-0.09072178836358387,-0.13327242991252602
0.63,-0.011015365915761806,0.031010822532377382,0.042004267288882784,-0.008916023290121556,-0.02872811305243128,0.035512108587441714,-0.05803463755146421,-0.03399717562550372,-0.04475246106905822,-0.21571255771780573,-0.08847944964462783,-0.12997761784031686
0.632,-0.021534794477496913,0.03319272533389109,0.05484668865575539,-0.0045456373645612795,-0.04116591408448407,0.04296617516060409,-0.05334774526475871,-0.015125409319702254,-0.025620378979513643,-0.2061406190680684,-0.08320176001045435,-0.12451885450680909
0.634,-0.05030185195143303,0.03911453330593407,0.08949246640650878,0.006781855858084793,-0.07274750618376873,0.06292255994933624,-0.04252830041543301,0.006633966625132548,-0.002737026774214895,-0.19533024435192511,-0.07380989590648354,-0.11618297836616834
0.636,-0.07135391827648224,0.04155829744274004,0.11288663051913818,0.016017390240375854,-0.09465505688721995,0.07542147955588925,-0.03664947408107066,0.019830709757648765,0.013928297953141423,-0.1894726698466478,-0.06780882236600651,-0.11020095671221809
0.638,-0.06592746579134647,0.030074596859863544,0.09594844116598815,0.0193647444984948,-0.08320588206648696,0.061065666083750116,-0.04255983455111849,0.016433868256084554,0.01733876367210794,-0.19229713764383188,-0.07193001474523554,-0.1134001772670133
0.64,-0.04396644037619317,0.008458645486154232,0.05241306766489037,0.019692858015478126,-0.05003487734157287,0.028638134258910628,-0.05289694099750283,0.0016197140465400075,0.007329835764216863,-0.2005717780170499,-0.08227803372478465,-0.1229083683373597
0.642,-0.02498760066160613,-0.001675347869984532,0.023357569603752338,0.01536289022647249,-0.02569564513099372,0.009192910291908938,-0.054998490208992,-0.010287018639906094,-0.006482000713022524,-0.20535367125630688,-0.08789470052084415,-0.12650876089890403
0.644,-0.013139925036132684,0.012361339995917884,0.025650302925386836,0.0019345524006050855,-0.021041886412891894,0.01757809265092942,-0.048062400320812444,-0.011859804369462636,-0.011476788026189528,-0.20198230615254123,-0.08451781648476847,-0.1196420573479686
0.646,-0.007784639035286753,0.031427016804502744,0.03953480037897716,-0.011082676173045085,-0.025549937774502103,0.03442377474224472,-0.042890870280725836,-0.010324326909554584,-0.006128470795422929,-0.19703997372321488,-0.08039968360783141,-0.11404649224469171
0.648,-0.01841768217313516,0.02939467604517695,0.048223256913052896,-0.00554852530081653,-0.035260616946584215,0.037755466349891485,-0.04375279310008927,-0.015295605374965446,-0.0016935513007262813,-0.2000109567269483,-0.08528206995554688,-0.12107518326161808
0.65,-0.04776186192094566,0.01431952531666606,0.062333668911776066,0.016346831335053474,-0.057098262926245355,0.03655817889592046,-0.04102737102602468,-0.025528096712765354,-0.00863389935903519,-0.21226329917399098,-0.09854354479194082,-0.13530861039817066
0.652,-0.0788475224776829,0.018764424260839182,0.09756916463412746,0.030240570667135213,-0.09042853449552113,0.055591371934375286,-0.025899839367749523,-0.03386492093626396,-0.026627714640605225,-0.22981257356129225,-0.11401840136541176,-0.14496971189552335
0.654,-0.09488230951051135,0.05361748069221438,0.1482267635799976,0.022070523281816315,-0.1234989936276507,0.09838596783104661,-0.002411431644377719,-0.036198155971932044,-0.046650124905817075,-0.2502148436711547,-0.13061467686660266,-0.14882450236753664
0.656,-0.096515483247089,0.09709283510042052,0.19321699878702156,0.0021761020117821274,-0.14604060738928148,0.14348903665846213,0.02012983824100523,-0.028869274091900717,-0.056818313111899964,-0.2696639361713964,-0.1491567355827582,-0.15225700753276278
0.658,-0.0933297526835368,0.12680080803103203,0.2197515286783625,-0.014262244185661771,-0.1571359905456547,0.17218630246449984,0.039873157452915794,-0.007693259123747367,-0.047655035281172604,-0.2792153812299236,-0.16328350192645127,-0.15554078697622764
0.66,-0.0926576519889469,0.14042395437696187,0.23288163649764823,-0.02223119122861887,-0.1635080329077391,0.18507264934411205,0.06537827545271487,0.025975688804684715,-0.016920128266073718,-0.2704245580939723,-0.16321910932551797,-0.15524142497458915
0.662,-0.09824560011589675,0.14653295915355216,0.24482932393883558,-0.023087776061783232,-0.17292412504887386,0.19332489087681515,0.10920926136955939,0.07011266173387173,0.03267968643302416,-0.23993647666786994,-0.14526006773514172,-0.14959571974938282
0.664,-0.10639942575599898,0.15472584915862334,0.26139565670470144,-0.023013597848935825,-0.18585088717879714,0.20586161661809235,0.1732048486047453,0.13036578809740498,0.09968153766146465,-0.18636193190483846,-0.1090080780636501,-0.1341096278216545
0.666,-0.10199620210883385,0.17472343835672274,0.2772261789924952,-0.035166029660978704,-0.19158059807037608,0.22471688268070644,0.2326879004833063,0.2032328224432241,0.17789794430703634,-0.11084586906622874,-0.048758885408323085,-0.09817164583860616
0.668,-0.0708307927687643,0.21099509221115087,0.28255998453348313,-0.06933071897953011,-0.1780386763003197,0.24610999028557987,0.24334139331211502,0.25407890136256933,0.24766878205828313,-0.01940408688760232,0.045348373275337556,-0.03237848481665898
0.67,-0.018674109338342123,0.25815778162537795,0.2775972862089742,-0.11916412513214596,-0.14885229274422127,0.2670275275025301,0.17767859310746684,0.23836673444443926,0.2888710334032928,0.08692013077841101,0.18208796997426333,0.06654452244460163
0.672,0.03556110926779213,0.3104153077376004,0.2754107128866223,-0.1717618297572125,-0.1209351937041641,0.291700568704465,0.053498016597073136,0.15161682046242259,0.3052561218069117,0.22286349316093834,0.3700096292789105,0.1996873513307919
0.674,0.08950967921224509,0.374964042463473,0.28572902798935584,-0.2302800817612549,-0.10026521956521242,0.3291128109093486,-0.08297412927005499,0.04333493262818369,0.3301301229471786,0.4110177139438605,0.6164950854562745,0.36623229611594654
0.676,0.16180786656245066,0.4662846743261655,0.30453499432323156,-0.31211722320795715,-0.07447421459172095,0.38434966614332544,-0.2011352548416049,-0.02790966480135786,0.4020706943479089,0.6607949663888423,0.9179352050434832,0.5572359933492526
0.678,0.2593981078403394,0.5826748361730608,0.3232267158267451,-0.4195811464441075,-0.03508181021193507,0.451914397443573,-0.3056045116928729,-0.04816468838383322,0.5275522373893561,0.9538674338744862,1.2515219598404055,0.7532834719896099
0.68,0.35969976769727807,0.6929169403083639,0.3331860439872232,-0.5248981750843849,0.010856929110041817,0.5118995484346665,-0.41354039641996276,-0.045897213209443004,0.675257652992363,1.2551259126681205,1.5829429265987254,0.9292493193169467
0.682,0.43671848491677884,0.7504139701089152,0.31382143240114985,-0.5916921636699989,0.06020762065002554,0.5310037569948458,-0.5256392322215377,-0.043343476385986915,0.8175795246815946,1.5462857994233141,1.8884118114120103,1.0635579916732762
0.684,0.48969715320714946,0.7297228565964969,0.24037681593821458,-0.6075943718128719,0.12426903241842889,0.484327840908879,-0.6264624354725539,-0.038302988027459337,0.9566431703174852,1.837491912269988,2.1674506839004315,1.1505333156889757
0.686,0.5316805119651971,0.6566662028215101,0.1254445213540564,-0.592247518202594,0.20255204302944324,0.39093340396143783,-0.7027316832250092,-0.035845746235363865,1.089802369949987,2.128977817969348,2.425014040972767,1.2051620195291457
0.688,0.5605770762809653,0.5847283883591688,0.02453243242509431,-0.5707398799917531,0.2663467007045223,0.30489935822316055,-0.7505118499616295,-0.060643996603112454,1.1769000144325468,2.3709334494048586,2.6349058252105513,1.2425256366769306
0.69,0.5587655352136615,0.5272012647222403,-0.03127293569753557,-0.5406378609321314,0.29229949724748355,0.2481798421858974,-0.7695631836125681,-0.12167545902628348,1.1712749948652201,2.479656832967019,2.7229719806152004,1.244163283012169
0.692,0.517660000179703,0.43800345153850795,-0.0794035265640109,-0.47506537067885096,0.2957259002752061,0.17916145590343613,-0.7590224561099408,-0.19054806851093353,1.067208830423865,2.3946639132752043,2.602790712311494,1.160887920506622
0.694,0.44887214090518746,0.2786619427671178,-0.17014440754777177,-0.36107637445407104,0.3076076130200904,0.05364861735531129,-0.7181860423120269,-0.2320937063252051,0.8981745941269575,2.120996911603527,2.250109910798651,0.9643786856563272
0.696,0.37176542497554255,0.08019772935687959,-0.29187137210661324,-0.22395985506321955,0.33120388260159495,-0.10690926436375485,-0.6512140440097185,-0.24434926277629035,0.6997043728479724,1.723788090281562,1.7416591325205522,0.6849686512242998
0.698,0.2996621498237168,-0.08021606792864028,-0.38039124059160234,-0.10858925210960556,0.34032894680796144,-0.23160851089967205,-0.5731583303828498,-0.25719784299426024,0.48380100205568327,1.2802810088473118,1.206199098898319,0.39133928846450605
0.7,0.23481667122150945,-0.15291355091262124,-0.3880491062712351,-0.040211099197297075,0.31177736631065056,-0.2716535858973012,-0.5062479837566549,-0.29583418400445133,0.24674239709668933,0.8339880634465044,0.7392906323299119,0.14628477153793984
0.702,0.167611695714503,-0.15613634218793904,-0.32372830580349793,-0.004677597776477086,0.24533920984025265,-0.240658365212114,-0.462145857139128,-0.35277942690273467,-0.0030632489750739306,0.3973246681698683,0.36680136760052756,-0.020731489606403104
0.704,0.08511316208109924,-0.14696499869538845,-0.23202158210181556,0.032249871119537775,0.15764182431995494,-0.1896563272008221,-0.4300294311173624,-0.39670193598251524,-0.23318142278338574,-0.0094368573282483,0.07456403275322272,-0.11784505417181355
0.706,-0.011688366104327259,-0.16261586390520763,-0.1511799555555872,0.08798007278282109,0.06877683792622473,-0.15687986154748607,-0.39119715103932107,-0.4040846504306103,-0.4030607210045342,-0.33505287536760064,-0.14153848310257894,-0.1727613965255558
0.708,-0.09967605705806884,-0.19628771301694778,-0.09709761069577101,0.148012935756855,-0.0022622258816382434,-0.14729531005518975,-0.3441124812061489,-0.3783183837043673,-0.48456159192953846,-0.5202124354003035,-0.2636167312820628,-0.2072492453559109
0.71,-0.1480172082032527,-0.2220011258531273,-0.07431050911429828,0.1850194149108956,-0.03838110449456775,-0.14968414678677858,-0.3050512463026016,-0.3402289044643753,-0.4762921135687024,-0.5507745591028885,-0.28963722117100416,-0.22971548802392383
0.712,-0.14623218008545186,-0.22809877736975975,-0.08181875536065421,0.18826242283339342,-0.03446576642637221,-0.15668359597485657,-0.2850633809018076,-0.30680992838192134,-0.4117200936097218,-0.48504458934826944,-0.2615745109013769,-0.24478591159654167
0.714,-0.11561372697322295,-0.22209705307756267,-0.10616748761821379,0.17129817204189224,-0.007056234702179537,-0.165227324591981,-0.27550373709120396,-0.28086042927714616,-0.3422967204872995,-0.41152678119656577,-0.23523753879721626,-0.2578956353561369
0.716,-0.08762540214045489,-0.21398019165850846,-0.12594578422508065,0.15386259713583952,0.017438392462811158,-0.17053275125008063,-0.2567815480785657,-0.25408459280421225,-0.2971885434363706,-0.37653437658300315,-0.23103485824963138,-0.2698068026471168
0.718,-0.07590761811709502,-0.20641649906695034,-0.13014474495825265,0.14410788483258233,0.02583934538103837,-0.16889320792874965,-0.21707653154437934,-0.2158344282642575,-0.26593181452962483,-0.36428005635905464,-0.23052894072992328,-0.275473646583432
0.72,-0.07421287201342326,-0.19839126112402408,-0.12399517874379516,0.13905431415221997,0.02349912261174061,-0.1620280304497772,-0.1629235800163507,-0.16426482170552448,-0.22665699834746647,-0.34273457469232943,-0.21485482013474103,-0.27211315609950004
0.722,-0.07222427267948274,-0.189108991276513,-0.11691341984350571,0.13340724623506847,0.020811108028434437,-0.15389254874845562,-0.11248091406787582,-0.11142561841038101,-0.17838548754705702,-0.30806682933733703,-0.1899434313119426,-0.2631751232665472
0.724,-0.06491088922257127,-0.17636638908602129,-0.11156342203916565,0.12330526404849614,0.021887447207122053,-0.14463383185696224,-0.07781752020967417,-0.07206084466387329,-0.13636871783376012,-0.2784298577810922,-0.1724314996357577,-0.2521816699927207
0.726,-0.052843618084161735,-0.15722562473980714,-0.10440354218114388,0.10747480291896747,0.02435459943451088,-0.13115049785598418,-0.057023305660494926,-0.04938466681325154,-0.10894947136203727,-0.2638073685534292,-0.16625921749994893,-0.2397032541554801
0.728,-0.04174712464318041,-0.13559989216131338,-0.09368654280534218,0.09096739479327606,0.024417345928023436,-0.1149613241999633,-0.0443081501008315,-0.03756064624955424,-0.093098064284129,-0.25869953246890676,-0.16396830659896763,-0.22823094792389098
0.73,-0.04073139774929701,-0.12144665479522329,-0.08032560576370612,0.08340787306782191,0.0182672164397543,-0.10173341036424695,-0.0370970298557761,-0.029981716321640806,-0.08359124771475256,-0.25427537773660525,-0.16017003586054826,-0.21999537446085154
0.732,-0.05304963457812255,-0.1131757246447428,-0.05957158696372167,0.08537658841181839,0.002111334340869064,-0.08795134650792434,-0.029112977213186158,-0.01834197937753221,-0.07358470275297381,-0.24275483590255542,-0.151511599182622,-0.20851506424866434
0.734,-0.06676817339997355,-0.09400899858969282,-0.02667942622073815,0.08226762692903353,-0.020495821729321448,-0.062318553358701234,-0.01079703304864044,0.005437776479798352,-0.052781513551742515,-0.216951797637301,-0.1330094761702872,-0.18450265898085622
0.736,-0.0645187828433901,-0.05828786424448439,0.006595296488312556,0.06274963556349572,-0.03542655310138597,-0.02771379253876206,0.016022560346339774,0.03914805784370262,-0.016223626390912568,-0.17851358602183778,-0.10591261512309802,-0.15220451669354135
0.738,-0.04519913668332782,-0.02519110490359373,0.01999313755166687,0.036420525787733624,-0.032648605806911146,-0.004143274561883122,0.035243323371283754,0.06942629119146286,0.026111525414725896,-0.14310227691236982,-0.08276455616095012,-0.12927742048733937
0.74,-0.02667843020421254,-0.014425187139728837,0.011867849597231353,0.022297846104510192,-0.020382381149272988,-0.0025000503337604084,0.03521153776105664,0.08483169570271061,0.05513999315773006,-0.1274712731806131,-0.07638602056387285,-0.12752332546466963
0.742,-0.02316762100512105,-0.020993963127988367,0.0017833447719216196,0.024480395067720342,-0.014680258024574466,-0.010438989225507001,0.022442577059079503,0.08520496383661742,0.060121303452552496,-0.13314824068889652,-0.08656930075961748,-0.14083860626055827
0.744,-0.027152728611379878,-0.0225560995062799,0.004657120221306493,0.027410115974420484,-0.018199772954246646,-0.009508360593480276,0.01158110412002602,0.07712147355881786,0.047509916421150246,-0.14889431742320106,-0.10216016940515786,-0.1547359206315476
0.746,-0.02474805006999656,-0.007710705713573806,0.0175533107243322,0.018379365738820992,-0.02241000154493885,0.004148219758186009,0.008966096195417139,0.06691027401242733,0.0335115467914857,-0.1635852550966851,-0.11291574220389217,-0.16124761139054924
0.748,-0.023326611754511554,0.009354462289676221,0.03324182973139853,0.008613010293891828,-0.028337462237473292,0.019944511862139407,0.011880582499072192,0.06086099841839185,0.031832867793701355,-0.16979065971485505,-0.11424880713632064,-0.1609881619785124
0.75,-0.0422464255137207,0.008647074266317497,0.05124730779582118,0.018299860071989485,-0.04643539664591795,0.028187149846101798,0.018163587555633433,0.0640694816019534,0.04487688816394497,-0.16321079151570617,-0.10580507031236296,-0.1566808450722087
0.752,-0.0756266197745698,-0.006782686341951583,0.06905408032496223,0.043043247065979576,-0.07267667032874861,0.029431638203997162,0.026966521402011105,0.07240519606926246,0.06067945539319078,-0.14875014293415165,-0.09378766901679558,-0.15095818338244485
0.754,-0.08913092979650575,-0.015274775065952777,0.0739883363481373,0.0542443723879183,-0.08303320395133677,0.02795014926530627,0.03200070042827522,0.0724711615639918,0.06244784082331387,-0.13989862876969494,-0.08913801232043804,-0.14766186659582356
0.756,-0.06701500800757365,-0.006011784356351368,0.0610309256303843,0.03799111547229403,-0.066472360643747,0.02611495137447929,0.027061672177157037,0.05915093646055856,0.04693661636031075,-0.14274147164990486,-0.09452810332364628,-0.14765707177424123
0.758,-0.04142384087544919,0.009643881327172074,0.05101446973284483,0.01634761524283306,-0.04900820383055453,0.028431795436218082,0.018053480848003005,0.04592748550282983,0.028972765429436234,-0.14838972636483738,-0.09988798615255559,-0.14520017881389863
0.76,-0.04839513098652685,0.014387577666220702,0.06273495371656629,0.01705567970802137,-0.057926205178202385,0.03607443013915058,0.015682729409265846,0.045685101039732015,0.02360867188490036,-0.14829091935700786,-0.098464922000007,-0.13637185252821277
0.762,-0.0737632797914951,0.0037326355617660996,0.07749909710866397,0.03568755573170911,-0.0771687687274174,0.03796616784432832,0.019311904195950726,0.05128955664304316,0.029476833638382296,-0.14647732260271676,-0.0973785821154669,-0.12578046411403962
0.764,-0.07618087954215688,-0.009533831476225175,0.06669646379315433,0.04438229953626455,-0.07251828421380772,0.026317502483242432,0.021751516363403726,0.04947118580247012,0.03462826570483735,-0.14912001848720013,-0.10385226335305714,-0.11597933026263516
0.766,-0.04793621377888703,-0.008500281024919093,0.03957900420813352,0.030039266788952038,-0.04516048427222801,0.014158239155949522,0.02308615523263765,0.04276776577869971,0.03395855961145608,-0.15261473157573688,-0.11184942381797562,-0.10000575740071861
0.768,-0.02137767106435354,0.005687064347403889,0.027382918164837504,0.009400923638353199,-0.02628087499480497,0.016281002222581276,0.026244321460963043,0.04241215402755855,0.03269829223547784,-0.1510813716418361,-0.11210476690804512,-0.07520565299779536
0.77,-0.019942130063804964,0.014135730822790455,0.0344896410565931,0.003890659370485206,-0.028861788288551737,0.024843209433393538,0.027142754005448785,0.04879737294319262,0.034373538377431304,-0.1473887057458188,-0.10684512143135952,-0.05319522672884328
0.772,-0.028910766559489237,0.009037880194470022,0.03818209976014834,0.0104187599425431,-0.03433801841687684,0.024188946729297257,0.021902928929306602,0.05374680421547256,0.036683665609808715,-0.14684992615195971,-0.10478109697184962,-0.044775742348065445
0.774,-0.02478972567803299,0.003944073754669699,0.028582640461554926,0.010889717342915751,-0.02699132435786703,0.016456768013668133,0.017074050457833598,0.05584481702285935,0.04070374821314067,-0.14516845549829163,-0.10627445377884652,-0.04433783418643449
0.776,-0.012078138726858059,0.010458871240346713,0.022066659996480217,0.001577554168469076,-0.01742655216550538,0.016162020008828368,0.021730074567229116,0.060042601838184134,0.05186106662946425,-0.13301247095969104,-0.10295882089322973,-0.03880703267720875
0.778,-0.012157402453159065,0.02183214331863616,0.033523852441512465,-0.003947661276421445,-0.023157365915876835,0.02728895005938086,0.03301240020609731,0.06454075027163476,0.06777140956117958,-0.11221671449869702,-0.09263050197299934,-0.026664959459012438
0.78,-0.030697414770299282,0.02286486058103596,0.05348175126237329,0.0047972931973377,-0.042379463537387016,0.0370158657651616,0.03799272985477272,0.060061371865901686,0.07543375020127034,-0.0986546553796004,-0.08610075222192655,-0.020386678226013897
0.782,-0.05166646673081333,0.010764379291257545,0.06284018544614393,0.021361099309796086,-0.05825281600628883,0.03452781361445386,0.030196341400716156,0.04512046617655557,0.06598205977550517,-0.10466983263351873,-0.09343252999329968,-0.028997875168484538
0.784,-0.05797355992681712,0.002084561852370195,0.060629928438009156,0.02872953331239986,-0.06157163323114055,0.02847189083535215,0.019147641061474707,0.033620634734634725,0.046041500904534245,-0.12381545450358378,-0.1087859003549042,-0.04359629741796717
0.786,-0.04935239243152753,0.01147910402072002,0.061099394999770615,0.019578644882011983,-0.05825924727052643,0.03391783880387482,0.01953787379653177,0.039856054813705355,0.030662706803933956,-0.13889114042857065,-0.11667827232059759,-0.04799555899925614
0.788,-0.036895651338444926,0.02998978536091841,0.06666664887998223,0.0044513124344194785,-0.05461728343710684,0.04723526822746299,0.03264055632325725,0.05919330292024677,0.027993586444071777,-0.14176957059990125,-0.11086091152273438,-0.04134355797299448
0.79,-0.027079248381736618,0.03850929721424348,0.06508912955415098,-0.004036495832957695,-0.0482844403415065,0.05154241688607325,0.04522560808514068,0.07263276458610994,0.03333429610639757,-0.13770660292182543,-0.09897589747062653,-0.0377499369602416
0.792,-0.020366900581639282,0.03419104872404705,0.054235720700062655,-0.005017292497076369,-0.038943598959998556,0.04348217860105661,0.047670942648572676,0.07036515642871778,0.038549204638228876,-0.1313951388404049,-0.08867327595091432,-0.04371310812580649
0.794,-0.018761524106842835,0.027671012713014025,0.04671291883847266,-0.0027912458603998307,-0.03404992447173291,0.03537858887585832,0.044364400201238205,0.060681982457099076,0.04343789426571728,-0.11913145541877415,-0.07878507144907143,-0.050413159283544375
0.796,-0.024305010973798485,0.022974152471677785,0.04812047194007095,0.0024959367051348887,-0.037561822986675694,0.033535767852643915,0.04290304793536869,0.054729039526390424,0.05207674092116626,-0.09940743593038324,-0.0681982193146883,-0.05016946019639958
0.798,-0.03449288303388856,0.014829329215665717,0.05013577676289771,0.012382158828030355,-0.04391699479983742,0.03134202459458143,0.04229230143874973,0.054122679884543404,0.06171664632901682,-0.08250197136317082,-0.06381587733863353,-0.047349340340218746
0.8,-0.047989752118900816,0.00011065874634617803,0.04833094932449539,0.026821162967475512,-0.04954297237207329,0.023830395367854015,0.03852482417343683,0.05716952124117792,0.06439077278519395,-0.08020261569593914,-0.07105771319695323,-0.04822894761374953
0.802,-0.07094402353522375,-0.016835277541015617,0.05374610090305223,0.045929801918748805,-0.06275983561627246,0.01811493596478979,0.03523791678454956,0.06668732885754976,0.058713700096631086,-0.08984917177410705,-0.0823376733912314,-0.04898596282653365
0.804,-0.10480333877311868,-0.026701669164605965,0.07752440130451253,0.06626167517998766,-0.09065525917194292,0.02498825533309718,0.039616269353634465,0.08383803475595995,0.052457333124435714,-0.09766481194189587,-0.08487247407221994,-0.04218394752113787
0.806,-0.13007045995759717,-0.021792784508476253,0.10782881145009506,0.0756260547741396,-0.11840481392749976,0.042677548947486786,0.050005392660865934,0.10107048326673773,0.052538440049702984,-0.09630141834147478,-0.0771375807900778,-0.03100719975147891
0.808,-0.12089744970580173,-0.004978574126168799,0.11566280044171487,0.06337267042791357,-0.1185264887534402,0.05488987631989493,0.05676568376111565,0.11069104137825445,0.0579964654786009,-0.09091958055900416,-0.06912530167384931,-0.026123350335225566
0.81,-0.07829882728367574,0.010309027292947958,0.08834926603591337,0.03598467254783873,-0.08462724647621427,0.04860241539447356,0.054994789558630006,0.11414699229149454,0.06371144906043442,-0.08897553480413023,-0.06889929748104746,-0.029932182525697876
0.812,-0.03262517813312404,0.014191692931726351,0.04636902669498511,0.01197356995998178,-0.041653500645797446,0.029499509860667447,0.04862077370468743,0.1142704077338368,0.0671035046786133,-0.09079480184454514,-0.07531077541484453,-0.034251460496126006
0.814,-0.012077381925465964,0.009627209337971437,0.0211305099380592,0.0031876685965078573,-0.019090523621149838,0.01458318243718712,0.04293842824804188,0.10764574728244229,0.06901571243280012,-0.09066629667832622,-0.08150592285124342,-0.0324096426094663
0.816,-0.01975228311552389,0.0041248240247526895,0.02342975056563812,0.008273420009583516,-0.02371648150779603,0.012685671250256167,0.03915657554324885,0.09233110089753618,0.06840888142326662,-0.0851991584249796,-0.08241167423913678,-0.026324486070562425
0.818,-0.037294595238070265,0.000834695940757733,0.03799070384683435,0.018015371327534183,-0.03888400115405661,0.017964514657822624,0.03570278324553878,0.07556621785559017,0.061551601977739026,-0.07882120287409322,-0.07946359118246821,-0.022084029766903285
0.82,-0.04257921352261966,0.0009284058515591778,0.043587915837677384,0.02129870262458966,-0.04355388805310892,0.020513668478141605,0.031843076928070174,0.06859702833862938,0.050283219893068457,-0.07738977233507324,-0.07702587657690584,-0.022463585448253345
0.822,-0.028943559272621548,0.0059190884360321985,0.034852964555613146,0.013110477293653286,-0.03225937298030011,0.01815569807411012,0.029514935208855085,0.07551023335707033,0.04468145386359442,-0.07833591791621575,-0.07558293438199745,-0.0251108262583162
0.824,-0.010459955216551978,0.014883022387773222,0.025003623642462437,-0.00012355514172508058,-0.018295827467177363,0.017187448395885246,0.031318114867857454,0.08919593940099317,0.05275299020992777,-0.0741092335918331,-0.07284215847224398,-0.026366965324338524
0.826,-0.004805264450733336,0.022398397000816854,0.026569073588018518,-0.0070306802336916685,-0.01612346862337843,0.021758559291560314,0.036186775437581274,0.09878638451297203,0.07024205518428109,-0.06448828791852718,-0.07017501951244089,-0.02535674994806477
0.828,-0.016621818272797264,0.019751486976040556,0.035625488832513486,-0.000527891339634151,-0.026379724412565267,0.025631794375923736,0.038718629394817516,0.09915241188572316,0.08323245291339244,-0.057624889469950535,-0.07241946911308604,-0.02536533022083338
0.83,-0.040821119119462165,0.0035194832210535577,0.043631890091427004,0.019190545165953938,-0.04282937216286659,0.02203927091881478,0.03595791342594584,0.09393385740501421,0.08336073579750243,-0.05773130684120221,-0.07992243987918288,-0.029756082011358185
0.832,-0.06834158674633062,-0.014427394364395154,0.053407484162856136,0.04229609098219687,-0.061921485355660895,0.017671654517997442,0.03363311267018151,0.0916845540765535,0.07860766829054881,-0.05862878037663332,-0.08429974806686855,-0.03445150615529793
0.834,-0.08576308142229815,-0.017358435514266093,0.06824171186633782,0.05359825857312566,-0.07779985248345798,0.022912162432977445,0.040170600480286464,0.09707074311879464,0.08190152494747856,-0.052448296343770136,-0.07618604181102526,-0.02968828903515062
0.836,-0.08528516375108955,-0.008200628468153044,0.07719767693016608,0.0496652323762176,-0.08131570081820305,0.03168101619433751,0.05493269770251838,0.10580072900817591,0.09252743711848709,-0.039356994537159795,-0.056894409470639215,-0.012869818373511201
0.838,-0.07559497599168992,-0.007756844589429486,0.0679828760227175,0.044355952526477976,-0.07146975698693644,0.02780821827437092,0.0682750848830957,0.11043018513135755,0.09863386526718984,-0.02582329323006484,-0.038881262357795786,0.006074133581651368
0.84,-0.06968871947981302,-0.023917105397812593,0.04578944609903331,0.04815626924122711,-0.05749592018101262,0.009695113786730627,0.07221211519810954,0.10786274112592777,0.09358200647400257,-0.018362788617517865,-0.0346056156458761,0.014382033322896826
0.842,-0.06611940192155838,-0.03880449922129346,0.027247631661757272,0.05238354018390727,-0.046542040747481105,-0.006012433223253852,0.06651263765243345,0.10015080295640881,0.08173591805022073,-0.020159890142377658,-0.0459521721006035,0.007841041570260873
0.844,-0.054986924683074125,-0.0327793978178321,0.022165387879054185,0.04346281490667134,-0.03845224362092646,-0.005252852297012016,0.05678889344151913,0.09329841416470004,0.07354386510058465,-0.028336646643410325,-0.06297158803602007,-0.0068957418359458095
0.846,-0.03739813953987895,-0.00997798913889145,0.02743621517141607,0.024189516589245168,-0.03258365507637394,0.008162966209692054,0.04989090790177497,0.09473286568974025,0.07899500841607193,-0.03434651312432571,-0.07299313454688015,-0.019018470836895576
0.848,-0.026479110695742682,0.00782667718593825,0.03433631137939311,0.010803119783529023,-0.031253563485088176,0.01970268593602261,0.04941601803465538,0.10634248762277376,0.09947704114496936,-0.03091208848361483,-0.07151992306850855,-0.02215287285645442
0.85,-0.02997527194027459,0.008150423221444884,0.03813152435291609,0.01239906025586454,-0.03556741220869456,0.021730447673344377,0.05401285926910994,0.1209281963479274,0.12396311515509045,-0.018078509951352333,-0.06292023751736488,-0.016663050212857536
0.852,-0.0406274226208984,-0.0006782318039080565,0.03995728215181787,0.021697806092771915,-0.04214486750756829,0.018838508877354065,0.06009881738443873,0.12915011692681788,0.13793774499294387,-0.0014571979509300928,-0.052394581694723184,-0.006603508601593578
0.854,-0.0472165363299226,-0.005938675655786949,0.04139938711901031,0.027711755903813154,-0.0462272968825118,0.01709962032239133,0.06560298030209988,0.1280637992863846,0.13626141954720675,0.012793815305849925,-0.04166659044126751,0.0024303981642035256
0.856,-0.048005481229304744,-0.006863926275502307,0.041471854475805196,0.029189988299019053,-0.046580090983021946,0.01620883937492528,0.06992222639358757,0.12159221260952788,0.12453760683866845,0.019962682895631502,-0.03248653404493144,0.004328905309054425
0.858,-0.047396014863434775,-0.008861022671226102,0.038964314354297466,0.030379889497215658,-0.044998754294403864,0.013924982976242596,0.07131105020258989,0.11664308204778294,0.11114182056695807,0.017743023628429857,-0.029466926649763324,-0.0037669797771389996
0.86,-0.04753786928378681,-0.012291467965034965,0.03550357814781317,0.03218846082224888,-0.0435529498912906,0.011337030971593809,0.06797850049554194,0.11898379321766925,0.10315628173778948,0.009634922564848554,-0.035321851729955306,-0.01686333444542176
0.862,-0.048906897609512834,-0.013269754163527102,0.03563052558445243,0.033126189561281896,-0.044412199966509996,0.011507885892663229,0.062076385796365444,0.1277720212142631,0.1055736598946008,0.004938839811370662,-0.04517877109981395,-0.0245638246522027
0.864,-0.052325971548358746,-0.00964636948010855,0.042640911206174734,0.03289335554691731,-0.049112248426003896,0.016004377490820718,0.05861549538306642,0.1347019953393305,0.11633873034970163,0.009895002447296408,-0.050348313344885674,-0.020660060027914356
0.866,-0.056796747545591796,-0.002617208030449705,0.05429097690203348,0.0315659745810604,-0.05636714345446117,0.02368100182662172,0.059998666035768755,0.13369529584515147,0.1258472627206131,0.020605415915752556,-0.04691112428806024,-0.008384921576213412
0.868,-0.0574132090521379,0.005697465923438312,0.0631221480695044,0.02736852714038689,-0.06099297493877753,0.03127481100513685,0.06386886831372011,0.1289243631387033,0.12714943955312652,0.028575310080152898,-0.03810309868966825,0.0035414910132155145
0.87,-0.044788808613827544,0.013012431711249895,0.057363611432004254,0.01669459007203213,-0.05266455105478295,0.03231222545116922,0.06471717984753945,0.12704038686926972,0.12198583174359018,0.029791488757547873,-0.03121607720630987,0.0070912745982307165
0.872,-0.009504952050267846,0.015631445921666105,0.02443414447341845,-0.0027170094301977093,-0.01953615349853006,0.01800780119928224,0.057283425643272455,0.1259177552642016,0.1155013455599412,0.02608241398534846,-0.03264226313253627,-0.00031401406963694974
0.874,0.04118211832981731,0.010927449968570757,-0.030660460474555687,-0.025431302775896912,0.03309760159693944,-0.01124499173888089,0.043480310313739536,0.12047342846863199,0.11247932700437885,0.023253647054017668,-0.04033671727246833,-0.012277942219178306
0.876,0.07298074371248556,0.0023223845510083195,-0.07056534790288219,-0.0363103238005885,0.06953286392326155,-0.03551221640702239,0.03637402387879119,0.11643219196079989,0.11893972999853983,0.030452667718170272,-0.04118890272611704,-0.015924762544228463
0.878,0.05376788305151636,-0.001283054214312759,-0.05480859267662288,-0.024249240721172054,0.0531189938951521,-0.030107481019493374,0.0491279662589256,0.1261403203099821,0.13870561473783233,0.05428981839285107,-0.023685946899107097,-0.0030900958964806624
0.88,-0.004592135874577826,0.005028625330776806,0.009575627903265166,0.0022416160634329647,-0.007261838119853533,0.0045300470578731366,0.07728196779342271,0.1490502669152432,0.16555807901179873,0.08844102680055282,0.005146233732299775,0.019769839705945282
0.882,-0.05728918350799477,0.01341270205985233,0.07029708596224739,0.024464363538656886,-0.0635639153605212,0.03917760447067347,0.10041245716972431,0.16778285670729004,0.1848507551101942,0.11432723506382858,0.023711685255763865,0.03645607540772492
0.884,-0.07667572625682992,0.011198289630273313,0.08748813283974394,0.034513339779201596,-0.08197214290524653,0.047749083251982946,0.10406832934963725,0.16881437732404073,0.1868762594177657,0.11789285396352514,0.01979741633628906,0.03685199084889142
0.886,-0.06760611450139815,0.00039079097897677076,0.06807726723419974,0.03408986187494524,-0.06790977986530458,0.033842647159547455,0.09233064296885002,0.15832745441838414,0.17614005899534343,0.10370725589587611,0.003315107992596855,0.0252629895265848
0.888,-0.041263473959774755,-0.0008875851133320248,0.04087966970472905,0.020777792248636587,-0.04128204210028915,0.01976617057699519,0.07898697124254729,0.15222872024656955,0.16529654749076272,0.08965932250372978,-0.007032749423461233,0.014086113003691364
0.89,-0.004006998907888436,0.016446277571621776,0.02087650461051454,-0.006166124491546802,-0.013006685944108112,0.017424400383186305,0.07445359599099134,0.15731002117577972,0.1629109944658115,0.0893944116804469,-0.002585900139583289,0.012585643004807428
0.892,0.025212569629209126,0.03468743956682421,0.00947066571164549,-0.028920684930688216,0.006890975498811139,0.01992808553023087,0.08027523623983827,0.16759158205167646,0.17025547740890798,0.10260366886292152,0.012072833741938089,0.02119051218244746
0.894,0.016448369917309205,0.028652393322948635,0.01188132127935198,-0.020848375225753536,0.0012032088482131342,0.01855385999488776,0.09012717825239992,0.174885884295004,0.18506953857638056,0.12117158492438772,0.02787434215493798,0.03348002348253479
0.896,-0.031540756062487414,-0.00031983604272996073,0.030905769553982734,0.017596562216325305,-0.032176230563008,0.014957835702583197,0.09562963962377624,0.17677744834479434,0.20090394989208774,0.13799491302953795,0.038016330703247246,0.04116413910720887
0.898,-0.07153442310856009,-0.023916779990987326,0.04757838300675372,0.04880036764991623,-0.06054036898716486,0.012110665188515878,0.09252415278000621,0.17487650116169326,0.2070564772877,0.14749710843858452,0.038990192738506825,0.03844346377543857
0.9,-0.05622670653188284,-0.022217530919042196,0.03426765511896883,0.03953127598138002,-0.046645604425617083,0.005367799384640768,0.08293558864320094,0.171336135483432,0.1989146693361935,0.14692488223745048,0.032031641587523335,0.02755660302056959
0.902,0.00015872367983123508,-0.004348343252594897,-0.004212323631802616,0.0020602708608251415,0.000135498554782668,-0.006205912191246258,0.0751730172279028,0.1707000652928068,0.18723846949068906,0.14318374579923698,0.026312451052660567,0.021156672820806053
0.904,0.035749236806329326,0.010422497506712635,-0.025227931963955202,-0.022678145397384067,0.028128996984656183,-0.009367582043284957,0.07878168140521703,0.18121500662663387,0.1902602224989061,0.1492173177993682,0.03434005576668039,0.03147446398263178
0.906,0.01644565478727091,0.01625423811505519,-0.0001926565382121678,-0.015292494817020401,0.006408107479691072,0.007033941427422953,0.09372993125342294,0.20608849915917096,0.21585426548339098,0.1661864512647567,0.05755480678749724,0.05471884822659268
0.908,-0.028352116307514687,0.017575363559037344,0.04602443306687455,0.006359648530354266,-0.038243801275406296,0.03140522726092912,0.10824183542629605,0.23342778616810933,0.25425108731973767,0.17827905943400815,0.08138799462969445,0.07338951565305142
0.91,-0.051501650077339194,0.016257280055206384,0.0678859290832433,0.017769102117021533,-0.06012074865543594,0.041497679969963515,0.11309443395652571,0.24655479995741214,0.2875897511066083,0.17309649339279368,0.09191219000945049,0.07646728283849967
0.912,-0.04267121531793502,0.01404558722960391,0.0567393770212389,0.01378678438177959,-0.050046963768972205,0.034463463395264765,0.11240888274807329,0.2474199770757115,0.3051705007456042,0.1588536998979681,0.09276674681267565,0.07179954981315248
0.914,-0.022128555427452196,0.018092958586418025,0.04029042634416865,0.0016077425437282242,-0.03202145662257848,0.02811323290424023,0.11461344014335598,0.25514253644627827,0.3111331919885007,0.15370790104052998,0.09852442310613702,0.07507000166743863
0.916,-0.005914466544914541,0.030160432960133106,0.03633460861495989,-0.011779800054681258,-0.022648285246007382,0.03229717765481216,0.11919965107901659,0.27672753136313555,0.31830972830509563,0.16439861613562315,0.115552658468623,0.09011181841137009
0.918,0.001592071378198482,0.038184078575974105,0.03675455142958058,-0.018766852498417728,-0.01952918708914889,0.036932562920889866,0.12027261941787523,0.2967884930707663,0.33417256333700146,0.18261267386566,0.13668361632720422,0.10672370486357118
0.92,-0.0010944886251730973,0.03139386167548683,0.03211398272180832,-0.013654688123664438,-0.018472062783660353,0.03161128060156304,0.11850436338621956,0.30140008449129296,0.3531920747401875,0.19780275514950238,0.15192351504806115,0.1157453679659642
0.922,-0.009955369032729281,0.016667118999638634,0.025749462229372994,-0.0016835469259499835,-0.019526741689719473,0.021113312088527958,0.12008842117126903,0.2946663144093424,0.36326803789620093,0.20604639655336215,0.15757546199147796,0.11692408619076908
0.924,-0.012766185341100739,0.011977380592564658,0.023975480465147987,0.00244666424097921,-0.020241983477151206,0.017754298731811197,0.1265917499388816,0.2888469241827619,0.36101550378303976,0.2098400931355514,0.15683307662484686,0.11438976305198392
0.926,-0.0009394615784438587,0.0273577532647938,0.028208873645706855,-0.010877843104803749,-0.016790511310551717,0.027628849247126993,0.13399715764808529,0.291439963373442,0.3600025948443938,0.21609639758491062,0.15702684831049232,0.11354038077669326
0.928,0.018967210545672682,0.05276596659396012,0.03436331505517398,-0.03403340495363168,-0.00954103801050217,0.043579941920736893,0.1391599946204728,0.30192964892310964,0.3776356323539848,0.23068927462418823,0.16481139163499156,0.11917712738348901
0.93,0.03222053065051034,0.06641127683290558,0.03484852499294954,-0.048508899104403716,-0.0018694619181372813,0.050389437480360816,0.1422040645370549,0.3149838905539279,0.41223262094914337,0.25033644119782034,0.1811810249091858,0.13135104126077576
0.932,0.03120180179559065,0.05864594396805,0.027693589720666,-0.04466308207657294,0.0023344296171832974,0.04212495925107165,0.14410878228597676,0.3270804124382246,0.44149647835414796,0.2646807585844154,0.20168821463007947,0.1453929702735606
