time,I,II,III,aVR,aVL,aVF,V1,V2,V3,V4,V5,V6
0.0,0.000636248999965461,-0.000636248999965461,-0.001294437620619386,0.0,0.0009653433102924235,-0.0009653433102924235,-0.00010969810344232086,-0.001294437620619386,-0.001930686620584847,-0.001930686620584847,-0.0013821961033732427,-0.0009653433102924235
0.002,0.004137251508286411,-0.004663802404809551,-0.008932369678542839,0.0003290943103269626,0.006523840783070394,-0.006852935093397357,-0.0008759750341190295,-0.008932369678542839,-0.013267077773025429,-0.013267077773025429,-0.009567330843772672,-0.006633538886512714
0.004,0.011245493013267304,-0.01536241469428479,-0.026935326767498602,0.0024962873782263034,0.01898087276628259,-0.02147716014450889,-0.0029502529542013243,-0.027264421077825562,-0.04034994460076869,-0.04043770308352255,-0.029230676144845993,-0.020164002490040113
0.006,0.016073075726581083,-0.030564672051810033,-0.04706035299476931,0.008501656683691992,0.03112940348946396,-0.039631060173155944,-0.005716310991683021,-0.04881069326958783,-0.07185777198184769,-0.0723830350436352,-0.052028511331390824,-0.035808379056479246
0.008,0.012227517184148811,-0.04284119955690403,-0.05532425741242192,0.01735000188984981,0.03278923963575866,-0.05013924152560846,-0.008000042898853563,-0.058176438553743014,-0.08464299602823222,-0.08606237037146058,-0.06087444470076049,-0.04199404622568914
0.01,0.004236482574641335,-0.04909129987396923,-0.053280169367784444,0.024531240040117988,0.027238497207460372,-0.05187943535102067,-0.010709299889809705,-0.05199001909224071,-0.07411450491585772,-0.07646150460860489,-0.05317018527359859,-0.03711099873382316
0.012,0.0006736409894324755,-0.052323916414558004,-0.052698505411176405,0.02728904893294329,0.024840658726306815,-0.052764346865796015,-0.014524575704087526,-0.04182989410698355,-0.05970235801877185,-0.06247131410742301,-0.04457833568918454,-0.031867036871684934
0.014,0.0014450882653236764,-0.05149913758729053,-0.05242227531700404,0.025766450538678813,0.025120753871005715,-0.05239298394397019,-0.015695177452091025,-0.03653088843723777,-0.056202604615313165,-0.05895727416664172,-0.04570750806114128,-0.033355547110009355
0.016,0.004407676459226866,-0.041387960300891334,-0.045091742403954235,0.018963366918137384,0.0235650618510746,-0.04429209617046797,-0.010995274631121625,-0.035053617299138966,-0.058890959279543444,-0.0619672307780785,-0.05126472548342003,-0.037860127569291996
0.018,0.011199799214856799,-0.02576849035446752,-0.03634656200409951,0.008273826234469556,0.02364076802566051,-0.03263837663515033,-0.00453615291456721,-0.03398075275145801,-0.0576227151594692,-0.06230643930438648,-0.052948207909039764,-0.03965486748744285
0.02,0.018682787308317753,-0.017884154905804823,-0.03633923614125587,0.0016875141437637233,0.02808761753863208,-0.029063804650391902,-0.002719720703205807,-0.03150985609318926,-0.05039799926361358,-0.058284983421273875,-0.049183305045218846,-0.03748133310299058
0.022,0.020898980775198073,-0.023983404999163675,-0.04502425003610379,0.004298681838716763,0.033381759392387134,-0.03666422454491198,-0.0060850488325984034,-0.02741307854718665,-0.04205002560650935,-0.05352330765463624,-0.04257771785145756,-0.033045404460536096
0.024,0.019481082979753088,-0.036371365015996686,-0.056046141921428254,0.01055292846698115,0.037412899858410176,-0.04819658453685149,-0.010745816617493718,-0.023059368477739546,-0.03685083443426317,-0.04995968113476348,-0.03572206567217664,-0.028038847152573272
0.026,0.019236046470067707,-0.04426365951588925,-0.06352561264951295,0.01315636330628633,0.040268858338491496,-0.05538185571566857,-0.013889026823276404,-0.0185065282829659,-0.03363945775635601,-0.04540333516118951,-0.029125642897484136,-0.022049229833069388
0.028,0.017733878392135204,-0.044349515329533754,-0.06201535116509106,0.013116366957995488,0.03849323144705579,-0.054126322406761,-0.014754196183413327,-0.01101643324969368,-0.027617078848628455,-0.036523256174282454,-0.021264066807820114,-0.013098936481123674
0.03,0.009156727504221904,-0.039253719901988,-0.048484372246508825,0.015248215137705098,0.027719401311651914,-0.04441617827185556,-0.01274513308914073,0.0006439389726926646,-0.016847067055191713,-0.023419621224673663,-0.01162245960630396,-0.0012975154170515556
0.032,-0.001561254742952759,-0.0302953356605318,-0.029082655672261464,0.016959861618362878,0.013185309484302448,-0.030279218543473138,-0.008243846082531406,0.012391014897344196,-0.005748587119117292,-0.011704881346914553,-0.003529534477501827,0.008665598695024595
0.034,-0.00016967637225923842,-0.017915810702539947,-0.018210011486124375,0.010521875806534955,0.008859221682412878,-0.019386492741099316,-0.0042667148438753945,0.01778948638896586,-0.0006402312476262779,-0.008313032270263301,-0.001685952474424909,0.010935248602048621
0.036,0.013996413862569362,-0.008296339315927033,-0.02255647887841008,-0.001370054459517272,0.018130530216774004,-0.017705067776059725,-0.0030169509060273053,0.014844078572173314,-0.0024704684477661206,-0.01337141794519918,-0.006492651420540951,0.005345921839090665
0.038,0.02326338133061313,-0.009603660131890629,-0.03282278018859654,-0.00562608767575175,0.0274359742430397,-0.0236856344984563,-0.002726556467592619,0.007927044938182639,-0.006945693733874261,-0.019893421623389747,-0.01360119170050892,-0.002344259865757997
0.04,0.02009957168876767,-0.021154211360788988,-0.0410946479290719,0.0014332643730431574,0.029351533626015065,-0.03272585118031015,-0.0024670280551041964,0.0017098770921012434,-0.011344420065316089,-0.023431772401317243,-0.0197329130905378,-0.008415579929389835
0.042,0.019408098565616594,-0.03485423000583805,-0.05420288449654315,0.008783880453634244,0.035181055241586934,-0.04509679616715263,-0.005715549700319759,-0.003234817560815424,-0.016002660653378565,-0.025969376757674422,-0.025013357842042096,-0.014056939074832742
0.044,0.0322978108604999,-0.0436735712214965,-0.07604853107709816,0.007330899341382516,0.05269880960915355,-0.06029128289880983,-0.0133196058656135,-0.005236102413274746,-0.01788658249445565,-0.027491717537141153,-0.027204162111098114,-0.01778238817206758
0.046,0.046562598398407554,-0.043910820337541116,-0.09066343109747592,0.0005788281191802723,0.06773448396105554,-0.06845964105010098,-0.018553720748561518,0.0015356767830260023,-0.009869095600325326,-0.021624899990248032,-0.01971032391576643,-0.0126863964541204
0.048,0.04263779764817554,-0.037692884396274065,-0.08065639565512951,-0.0009844860518476743,0.06120569609850814,-0.061143138704537726,-0.016248171327437715,0.01785507508974344,0.008837784716423821,-0.005346817406740451,-0.001407655383645607,0.003059645404191321
0.05,0.02044411816345176,-0.03356910990156446,-0.054403137333472136,0.007578379241524298,0.03661844531955297,-0.04616650283494684,-0.011869904431965296,0.03332146357459522,0.027649492996891144,0.012641022656513854,0.01700801629930514,0.019642249320127942
0.052,0.0026294924666164206,-0.03570434964195399,-0.03859663808823877,0.017806379194507713,0.018947778178252845,-0.03895623845396797,-0.0149857449539009,0.03663608807610324,0.03528085537148269,0.01964033893586644,0.023238967352258284,0.02557751354417582
0.054,0.007901202363224415,-0.03752024732899201,-0.045537902101862676,0.016933116279769386,0.02468733433949964,-0.0428731083719581,-0.026966069170601667,0.028505059494874807,0.03121236427285866,0.01343263585249981,0.01689014044409681,0.019983969609652763
0.056,0.02777599462446338,-0.033061726450565536,-0.06101057410426991,0.005218022850053376,0.04269858045472317,-0.04832473320311243,-0.04006420328056831,0.01983568344143852,0.02404136088222498,0.004696794072519398,0.008722078529997016,0.011629153281028577
0.058,0.03905984565317159,-0.025919603170714827,-0.0652079140962848,-0.0045548867627540224,0.05077630938970759,-0.04725255816077267,-0.04678515047265976,0.01917645888291738,0.022663826553130872,0.004997064793684786,0.009068517713953362,0.009361610863485534
0.06,0.0339100505821194,-0.021338330592916503,-0.0551936937328167,-0.005250553061783401,0.04312560931479998,-0.040400440886458514,-0.04696911756008901,0.02519155068179423,0.029921083832135313,0.015543489823533974,0.019691701370662732,0.015152621981352872
0.062,0.027569345370392597,-0.01847860722643447,-0.04552121984744445,-0.004001597327817607,0.03480773199752417,-0.03408869547633109,-0.04708957448424276,0.031085328259712292,0.04166591950415495,0.02863109265899839,0.03457214759017056,0.024257345245867697
0.064,0.03743196894170248,-0.014697747373623135,-0.05140524197473719,-0.010719958308000729,0.0423762552429301,-0.03455363847992804,-0.05389929444921167,0.033977864189638954,0.052182098587337064,0.037977511209293074,0.046748219504483754,0.03152768892477853
0.066,0.06087949622962279,-0.011414655723680705,-0.07180735261193356,-0.023925693137247826,0.0642656192729013,-0.04253111231716937,-0.06720333292052222,0.03764419238015858,0.061003183775433116,0.04514172817044212,0.055336559073863194,0.037332004275162124
0.068,0.07861753748787481,-0.01219490663261845,-0.09073376512722071,-0.032446284486949736,0.08288254347621203,-0.0521989129048605,-0.07948658825888752,0.04594259559690529,0.0719449297767081,0.05521364844462383,0.06474071129523454,0.04573028188853087
0.07,0.0809872635996581,-0.015734367490115465,-0.09687426853417853,-0.03179884076144063,0.08727004605707009,-0.05717343427292633,-0.08476346173072087,0.056476043500793806,0.08583844304339243,0.06866322725753041,0.0763820722721042,0.057345220969818075
0.072,0.08150852428313118,-0.01472953047118087,-0.09635159813670373,-0.032140756405462455,0.08690884620840951,-0.056716327687469696,-0.08565432648893392,0.06287477949819008,0.09813285455563951,0.08023606659283064,0.08543392054420734,0.06719405645760493
0.074,0.09276024836859831,-0.0060896514232536645,-0.09882868729256787,-0.04150195337532621,0.09350932319491637,-0.05394604883716435,-0.0882470672409171,0.06295946301173402,0.10501835330119991,0.08610742254233697,0.08842066715729134,0.07144979623501133
0.076,0.10134037953980335,0.0026363984188881116,-0.09863474142926668,-0.04989271038594335,0.09835004934149656,-0.04952711270191065,-0.09262221089155867,0.06274243166922516,0.10923659529350196,0.08958458671754739,0.08993693056371824,0.07337889816355665
0.078,0.0914495827371194,0.004317359681606113,-0.08711067148214768,-0.04611886085912818,0.08890256472544186,-0.042642837624617305,-0.09428221840671515,0.06908440983532438,0.11659819616872792,0.09674497901559585,0.0967550658975928,0.07857055324956694
0.08,0.08106474070599894,0.004282338477723358,-0.07680949767361454,-0.04139861505512553,0.07914282231934651,-0.037224928681490625,-0.0930799935989093,0.07981144695291748,0.12795129169721173,0.10832684816486172,0.10828682422938381,0.08696327364361282
0.082,0.09815552585041366,0.012382843574506214,-0.08577531421790649,-0.05405838951428359,0.0913116539229067,-0.037647026227021305,-0.09223948515136435,0.08854972770039563,0.14029933171378708,0.12181406418654471,0.12049565264458528,0.09549652697778192
0.084,0.1291703680846228,0.026888849584381962,-0.10214715826541453,-0.07656657918512855,0.11345346034587693,-0.03872603633463008,-0.09057233510847955,0.0970868665177311,0.1550520109550055,0.13917092166638706,0.13572959683040905,0.10601738386959797
0.086,0.13188917967784614,0.03525352948517675,-0.09629338671685035,-0.08201259422143307,0.11116612005410653,-0.03163792787540324,-0.08629628722887306,0.11159324088898692,0.1762949776066073,0.16320149199902947,0.1581201370106455,0.1225863889115824
0.088,0.09845177513319846,0.031928935583149645,-0.06607287159405098,-0.0639873439077879,0.07995357510219636,-0.018147763249707842,-0.08449949108524853,0.13002984075864943,0.2018086664942767,0.18931629074378337,0.1833385271982188,0.14315569732549877
0.09,0.07032216748733548,0.02830429072854484,-0.041636530480391544,-0.048926609454732595,0.054569428965113964,-0.008008419384410206,-0.09038789721256806,0.1444149512381703,0.22462523330253847,0.2101246365165935,0.20308512480630386,0.16111696234433298
0.092,0.0819807372644158,0.037140406995293314,-0.044566114848489734,-0.05994181806550508,0.062143218457841605,-0.005581013007676682,-0.10043455303830806,0.1511805885369116,0.24090211454125957,0.22389177898059298,0.2152577999831198,0.17242647839766972
0.094,0.11773175348942899,0.05324947090332985,-0.0643364528094269,-0.085825082198159,0.089988825953082,-0.007642280157674313,-0.10697253104789044,0.15328412027902993,0.2511581846420718,0.23345070131068654,0.2235651525609986,0.1775896274376464
0.096,0.14422522857412753,0.06284948070367921,-0.08150763015988648,-0.1029907396465708,0.11211150186806784,-0.011207017465018426,-0.10715421753469741,0.1562572570934856,0.2579495312154149,0.2416705968342268,0.23142454414102526,0.17974982212585083
0.098,0.15812628696511485,0.06531466087873075,-0.09323436424321592,-0.11038566303448036,0.12482574760009604,-0.015491869448192877,-0.10419494721529231,0.16349461718418695,0.2649238780417016,0.2505183549192036,0.23988188025594617,0.1828334339799148
0.1,0.17085970917642948,0.07107687229172743,-0.10026017943775173,-0.11965356836396178,0.13401814026057976,-0.01565857103274927,-0.10145873753434793,0.17466655330763997,0.27647777005596896,0.2629308526474773,0.25097715448864405,0.1917286832220064
0.102,0.17472598562767866,0.0830632019176196,-0.09202684988809491,-0.1281174735337709,0.13151398233385128,-0.004762844663055245,-0.09934596449762692,0.18771322476792818,0.2948040518550168,0.2815380670511989,0.2686266348256501,0.21025240431841605
0.104,0.15880537696329894,0.09213708994988257,-0.06690663202943317,-0.1250081260644132,0.11149647331362748,0.013102201249863232,-0.10035279582911526,0.19832114009741988,0.31452491392051307,0.3020246226322998,0.2907534992667336,0.23293978602822202
0.106,0.1387258187610832,0.092123489475492,-0.046621547728134594,-0.1147670452725005,0.09164039054082823,0.023296260001716633,-0.10980660921156385,0.2014780682962407,0.3262150113435207,0.3142473955269745,0.30656945471807256,0.24561677490045306
0.108,0.14281963654864377,0.0908020421993841,-0.05169931968565967,-0.11573170936050184,0.09558145509382468,0.019354877679841072,-0.12628382999689955,0.19954256365395565,0.3287690553564418,0.31551784241017866,0.3094452465347821,0.2429622509465615
0.11,0.17381434487843858,0.09833333032337738,-0.0750082297617435,-0.13460020650783225,0.12200249050387703,0.010662615982842485,-0.13939060735775677,0.2018326666997644,0.33085699710417055,0.31554805942009473,0.30611138246541886,0.23744040133012018
0.112,0.2027599822746801,0.11230514823382107,-0.0902839693076349,-0.15577926531390876,0.14464698780467758,0.009766711834044615,-0.14117967349026642,0.21184384934506872,0.3389911577874434,0.32366482070890074,0.3076052756617008,0.2430709113540574
0.114,0.2050602398661057,0.12335493219964763,-0.08207240877602115,-0.16246908612123423,0.14328552697576752,0.01950146198965126,-0.13309160142648574,0.22288658030781555,0.35135418074090347,0.338016587955589,0.3174987361766023,0.2588376472672542
0.116,0.18626328214383955,0.12753205784060748,-0.05933166460042538,-0.15550290446047033,0.12362390441977374,0.032974479942885215,-0.12079494283764396,0.22932191879807762,0.3635088513762423,0.35183053117167895,0.3328970969818737,0.27518023529398034
0.118,0.16516835810962924,0.12620095959004268,-0.03927224178401205,-0.1447097721881013,0.1027886351483806,0.042391450346043746,-0.1090641269362305,0.23442407049629962,0.37426110752487235,0.36402431102228494,0.35082352545801737,0.2886704171539167
0.12,0.1517790968056656,0.12120896992328067,-0.030353500463786837,-0.1356853311898291,0.09071876882079621,0.04461597092002175,-0.10279408059071177,0.24283583197884862,0.38413272223613776,0.37690477281959445,0.3680798002814082,0.30154311819728963
0.122,0.1532320311846061,0.11668140589643822,-0.03601016133479499,-0.1337566268702869,0.09379131067438581,0.03953438077139334,-0.10662180880513787,0.2516735580912511,0.3918478434815433,0.38798275466168697,0.37949023111347235,0.31238395000337005
0.124,0.17827634887183513,0.1214930730662841,-0.05629747411051431,-0.147855430537748,0.11642768123103642,0.031298374481328745,-0.11938610629361979,0.2556543211212735,0.39595982265539165,0.3928729728034684,0.3830713863013208,0.31684498068798106
0.126,0.21824411071972988,0.14152490842195084,-0.07656828208461189,-0.17740785626808403,0.14624708716879153,0.030729072288912224,-0.13202463841787293,0.2561386609683847,0.39854464223605757,0.39364152875800773,0.3836485751232034,0.31585495082511383
0.128,0.24415305526167477,0.16875079299385048,-0.07565505536970185,-0.20456095103283725,0.15818229736818343,0.04486007819861991,-0.13573641222016006,0.25832573498668515,0.403457595814879,0.39622012259152123,0.38636183297857,0.316077226559001
0.13,0.24007904734816252,0.18658066612214877,-0.05409347991199663,-0.21246187563637375,0.14528764538968308,0.06499533686154468,-0.13097264238532927,0.2637308913856629,0.4116476379615494,0.4024573715957847,0.3910863813947348,0.3222020381976369
0.132,0.22197179227712693,0.18893512023514686,-0.03380525486307265,-0.20481734474162566,0.12648796834004297,0.07684587189969046,-0.12496455726901504,0.27006194574754894,0.42104637977628184,0.41011661508191927,0.39610232837186193,0.33250777197010106
0.134,0.21199430821411003,0.18618682457909919,-0.026423318849679935,-0.1978326873481784,0.11783864556670422,0.0794777924898231,-0.12275974360671282,0.27450502662420745,0.42903457168427356,0.41661405209567487,0.4015269578639783,0.34188022258253975
0.136,0.2105274905548574,0.189025434435027,-0.021692126894024513,-0.19823559439589025,0.11430170362133463,0.0832047627633598,-0.12355959352259892,0.27577474187552203,0.4336907713124234,0.4206289131033256,0.4078176165360746,0.34735853540952977
0.138,0.20278448440557192,0.1944790420669232,-0.008148573674661555,-0.19763039422964243,0.10356174814010442,0.09260539040608498,-0.12320919216734491,0.2763019836177843,0.4357985694696303,0.4236237656132099,0.41506903078370855,0.35055247180923443
0.14,0.1839013890080408,0.1937496140952751,0.010028695780062193,-0.1883877961305302,0.08557075361716923,0.10158744193512663,-0.11844673917141624,0.2806078187543994,0.4386340434160031,0.428452779311446,0.42296679136599624,0.35485808810506786
0.142,0.17078297075869647,0.18761287076664257,0.016863262088847458,-0.17885133981840015,0.07623807696100629,0.10234433650879071,-0.11140061783335858,0.28782755639004354,0.4422788550312973,0.43386424519116357,0.42886172415423207,0.35970394730844263
0.144,0.18462631062830923,0.18480495318590487,0.0002202616645657609,-0.18424153697290013,0.09172286873849103,0.09265387878691317,-0.10939517062869952,0.2895223961487687,0.44152102534642795,0.43385144949885984,0.4279356802685516,0.3591513800725748
0.146,0.21854407743028093,0.1878385422225678,-0.030427473236359158,-0.2023832002513812,0.1237650301298185,0.07836358025730082,-0.11588961077537997,0.28095399019766026,0.43383829179993777,0.4258467467382429,0.41899124060821064,0.3501898904051913
0.148,0.23805905335091052,0.19023666344991294,-0.04737494821957797,-0.21278434505811733,0.141601910828796,0.07046517603863055,-0.12390976836928339,0.27043503081148024,0.4251831391995937,0.4161590071291478,0.40859009127631307,0.339510107272463
0.15,0.2253221416453511,0.18767673175931207,-0.037351222774003656,-0.20498157107742868,0.1300513092928496,0.07388155748283393,-0.1241260629106798,0.2686665424995249,0.421605929734758,0.4115749752900705,0.40331971148801316,0.3345971539180301
0.152,0.20167486886507333,0.18467281475052416,-0.0170228049890031,-0.19226001546042287,0.10810133214464593,0.08256658758928183,-0.11643904436463473,0.27289469756505863,0.41888421437484197,0.4081090494387567,0.3994845177346601,0.33191793781631007
0.154,0.19332148535361024,0.18838368212702067,-0.005102313140512379,-0.1905053586125839,0.09811046437751242,0.09039346970469894,-0.10815614719140665,0.27204858740627574,0.4083020875747515,0.3963223817910059,0.38836943896704,0.3230280169660272
0.156,0.1945222097894169,0.19705687681230266,0.0024378935960607997,-0.1950267616676226,0.09535220310816188,0.09815677090453723,-0.10380605375687603,0.2634280284176533,0.38957605929081013,0.3755839073036726,0.36911404346876203,0.30836501563416496
0.158,0.17986300795947405,0.19852915393251147,0.018585621998693926,-0.18736529998119006,0.08062499098206194,0.10635816867148364,-0.10183030107225856,0.25363021122502805,0.3695335171385852,0.35351309132275904,0.3482368407987408,0.2953176469299971
0.16,0.14595577995968728,0.18568114320908033,0.03946292831816757,-0.16355588643248858,0.05375706746847799,0.11018259273202133,-0.09903422817706763,0.24631089336691545,0.3511411406146543,0.3340737220979205,0.3296777099374329,0.28543145524855024
0.162,0.12105909603101098,0.1666161707767991,0.04513817777406503,-0.14235687939367234,0.0384613782581929,0.10424199682959089,-0.09406581801367106,0.23845291470146804,0.3323406779326586,0.3156306802303067,0.3124210541932804,0.27274155526188987
0.164,0.12367899158389997,0.15066513581011823,0.02669706222701513,-0.13669762546699954,0.04851333364537795,0.08817244218033134,-0.087680771750453,0.2268838164835621,0.3126948779281403,0.29744136472974897,0.29484735536608436,0.25376112274557333
0.166,0.13556047774242683,0.13578166219957913,0.00025075509178793074,-0.13504492553656772,0.06706199937311798,0.06791717199466894,-0.0818298615651394,0.21166968456000798,0.2932837926510231,0.27970543371732626,0.27590916474226124,0.2320482397754054
0.168,0.13470835789657207,0.11975963449097107,-0.014661943598095072,-0.12535567202468875,0.0736015096914114,0.05189751583554271,-0.0776900267649413,0.19431377434931862,0.27253089009868453,0.2599428914951775,0.2544292948663442,0.21239647257763505
0.17,0.12966694704152965,0.10967150154236362,-0.019568414101236442,-0.11690312946072208,0.07320842499851482,0.043532121291019174,-0.07420345209770442,0.17683181420047736,0.24871407542577528,0.23589399476235223,0.23052346096586332,0.1946513903978316
0.172,0.13713929112792567,0.10973842689425028,-0.02689144341027828,-0.12107517938271042,0.080249515549932,0.03943063586042757,-0.06902437649368966,0.1614504759067463,0.2245937154591835,0.21052133046100116,0.20642266652658484,0.17575354786966527
0.174,0.14638691472330068,0.11186370830698085,-0.03402571477801639,-0.12784135290911644,0.08797243018895759,0.037113667235031386,-0.0599551898882193,0.14896039250561774,0.2044908276413041,0.18916261725807007,0.18499672953495183,0.15620863657788775
0.176,0.13182505815216441,0.10623323305994399,-0.02531071590259159,-0.11849687901305178,0.07607611387457641,0.039120130245279064,-0.046531576199519385,0.13757535587533326,0.18758816702141767,0.17173213105657284,0.16704252327460584,0.1394903964824236
0.178,0.09082493967715038,0.09214497673555751,0.0012651169123099435,-0.09107938352319114,0.042536300311471834,0.045589930127584104,-0.033236879440841915,0.12368532766382076,0.1673921118252494,0.15170434029815563,0.14899487833521222,0.12456609586461144
0.18,0.04921473654234359,0.07510046726817292,0.025742127620220386,-0.06152918867766258,0.010128718929492964,0.04936763360165775,-0.027543798183809864,0.10504877733071931,0.13975310779120018,0.12503280357765909,0.12617641986566142,0.10601128321347873
0.182,0.030954409444241895,0.061080536789646526,0.030316554901205016,-0.04527588947957599,-0.0006371393663060136,0.04470431913464542,-0.02954784189498998,0.08498417102140488,0.1105072907019441,0.09750718294416419,0.10097467569584416,0.08396338637826009
0.184,0.03151198053871466,0.052731332369106675,0.021807122952939326,-0.041561851346535034,0.004202749513952041,0.0360482754833828,-0.029393064287069497,0.0710039591311828,0.09063107619994988,0.07891014700580572,0.08239578871197809,0.06654935357191288
0.186,0.02499774243446284,0.04607663918525764,0.0216457803411953,-0.03507626731081086,0.0009638020349210632,0.03218730641162675,-0.02025102118939865,0.06587235526081062,0.08261056044959096,0.07060456705450897,0.07365611887108137,0.058823609659396
0.188,-0.0004322742058158673,0.03466742779634755,0.03517478401067229,-0.016274318325947383,-0.018626036214063686,0.03323782963398204,-0.0077148460281784795,0.06170480332147531,0.07575895844525922,0.06302664978548396,0.06601493476097427,0.05432792283963137
0.19,-0.022875437505951807,0.018481396129642197,0.04088560113601341,0.003795001143144367,-0.032752605906502336,0.02855797743971061,-0.002185678134475284,0.04725792405997022,0.05762092517999028,0.045949201320338924,0.04876087184886305,0.041417529572126285
0.192,-0.015527313168504591,0.004405343689352165,0.019331649992672225,0.007842647808621341,-0.01842548284822452,0.011042847996158197,-0.005234288988659802,0.021837236499488457,0.028638404478192808,0.01969274299220915,0.02213874914411138,0.01740684546629089
0.194,0.014501019660880644,-0.0018516178283848172,-0.0166230015343833,-0.0038709227230048077,0.014514817786491878,-0.010683332155847942,-0.007292709696491492,-0.0024052947378821,0.0015047074344661407,-0.0050130430292681894,-0.002753263015012414,-0.0073243702919685285
0.196,0.03461328748362951,-0.0014313729703825182,-0.035931731528963014,-0.014604813540006922,0.03439765388011958,-0.021258234978681307,0.0003295355923619667,-0.014566702600357128,-0.01459766298963251,-0.019376778574411415,-0.016878844682591945,-0.021990091602446936
0.198,0.026066245745159245,-0.0009951990150182746,-0.02686585243795133,-0.011267457256157796,0.02572336876581607,-0.01708404413031282,0.014116922500831273,-0.016776155574194183,-0.023587750972837832,-0.026555239271395668,-0.022886061622722564,-0.027795502144464752
0.2,-0.0007340188123140446,-0.006595043345588175,-0.005821232663614555,0.0045039435967790505,0.0017677398216591799,-0.00884336688768329,0.022298311401036008,-0.01885904147855072,-0.03421292776677735,-0.03598086466252039,-0.029579919167806817,-0.033285559323910696
0.202,-0.02472357737184234,-0.017542413956740673,0.007096809984433893,0.021892691265539343,-0.016666902741200043,-0.00687584810183734,0.019084908261251074,-0.026315269236959076,-0.047664025029152214,-0.05037154990663052,-0.040116982226565144,-0.04149439034502488
0.204,-0.0346137295775516,-0.027651119143427244,0.0068787734782011795,0.03196362631562278,-0.021431402043921112,-0.01171325810855318,0.009862569181107115,-0.03807809017538227,-0.05914129439390857,-0.06457159369354533,-0.050584316607911385,-0.048484253074083196
0.206,-0.029911056364543342,-0.03233892686846111,-0.002543124711470027,0.032287472043090515,-0.014463506780698552,-0.01921761789857365,0.0015821736490950287,-0.052295858699914675,-0.06851422260637254,-0.07569394834437566,-0.05883522183863355,-0.052879705277532704
0.208,-0.017292490232600283,-0.03244899176179185,-0.015442626913881903,0.02657301085641861,-0.002008162719930064,-0.02582732399471007,-0.004308258342523203,-0.06739670597349226,-0.07990415908412511,-0.08575443940038689,-0.06718672990776983,-0.05794468633426676
0.21,-0.013308370802481748,-0.033486362347725736,-0.020589639792485834,0.025285700658749678,0.0022106884504652846,-0.028014064455895982,-0.007465797949776215,-0.07875111447060783,-0.09163973677286112,-0.09440118302600924,-0.0751554388394222,-0.06359820978544806
0.212,-0.028919939248056904,-0.03992909020739204,-0.011281973152701592,0.03591413684078964,-0.010426773493214593,-0.02541312091422238,-0.006173212029045157,-0.08224491337990184,-0.09741622863495321,-0.09828610874239967,-0.07844306026728771,-0.06555704747593734
0.214,-0.04672757481672504,-0.04786414782789028,-0.0011251264714988952,0.048274256256588294,-0.024363604710198324,-0.02389890165721518,-0.0021868480217131954,-0.08140767746473906,-0.09758054597566436,-0.09856619835935465,-0.07784136553009567,-0.06372591995137149
0.216,-0.041267992699115796,-0.04941108261546478,-0.008016597632612955,0.04605355920648133,-0.01809333992936041,-0.028666735921004004,-0.0011634492503818695,-0.08421714601011539,-0.10009788002347371,-0.10192604734385835,-0.08100718245832195,-0.06412009025419711
0.218,-0.018691994108531607,-0.04468335327817634,-0.026050437458809615,0.03215228654648768,0.002281964005314527,-0.03616681197092589,-0.005885884695256395,-0.09275354778927859,-0.1096168505777964,-0.11230848833890963,-0.09210191144217457,-0.07095279302553865
0.22,-0.00960633558998119,-0.04241554189535115,-0.033179884464338026,0.02606191961565905,0.010674262251316038,-0.03886180290468032,-0.013026902351653597,-0.10157445119584356,-0.1221315560130908,-0.12540281670974465,-0.10525662103510662,-0.08117878158354006
0.222,-0.029389214309365298,-0.049948457893003326,-0.0210418192378184,0.03960406641757224,-0.004748450438967312,-0.036194416147865685,-0.017471936189931238,-0.10591307277886385,-0.1311264290218035,-0.13343196958521228,-0.11150513720777071,-0.08824759550305832
0.224,-0.06396600135650694,-0.0646030810595761,-0.000898044825313654,0.06475392916864635,-0.031849958764527966,-0.033423932634227355,-0.0162643224345289,-0.10569306917871751,-0.13339555993883556,-0.1328905674985345,-0.10842803856700368,-0.08837801177897632
0.226,-0.08837033163790181,-0.07334808445665732,0.015055966575799546,0.08189839550797717,-0.05246884026833563,-0.030481383942757855,-0.00748321959774463,-0.10176728364887881,-0.12870250219387647,-0.12573824394135483,-0.10023386738257165,-0.08218556804080525
0.228,-0.08788885694829537,-0.06413295663918563,0.02380960141648155,0.07698009562968187,-0.05735461331473992,-0.021794304430219326,0.009108478084954831,-0.09504382447198911,-0.12000095499825003,-0.11648394363601455,-0.09237199369691161,-0.07367914209631243
0.23,-0.06612740660551425,-0.04043172980023633,0.025554698386918626,0.053905289263404564,-0.04763544945751047,-0.008336103731692145,0.027438922133093444,-0.0898874033692666,-0.1141503128399252,-0.11085343952479336,-0.08933430774935293,-0.06917205089523798
0.232,-0.04205460746620588,-0.021195346869405263,0.020726595933746688,0.03234832827176484,-0.03272385007510125,-0.0003727057723390968,0.03770669545653997,-0.09166602897060261,-0.11697966225993324,-0.11378939353130664,-0.09356964990766023,-0.073101066524407
0.234,-0.035504167029396766,-0.023039550437472366,0.012704646710198077,0.030626739078558445,-0.02478609579281024,-0.00564356491983063,0.03684654839507868,-0.10046687329757575,-0.12778436372992433,-0.1250614095880735,-0.10303746024334601,-0.08280187407025758
0.236,-0.046958850083851915,-0.043805090819529706,0.0037665593220771866,0.047474628087257796,-0.02610415704094751,-0.021345785453414326,0.030765925963536802,-0.11193142376657156,-0.1411304342830963,-0.1389926162621464,-0.11311528759694894,-0.09150800302625517
0.238,-0.056969673191873606,-0.06515985619579401,-0.007613772280267555,0.06344319965244412,-0.026229083051312062,-0.037706871078441666,0.026412031410844992,-0.12143630308248389,-0.15113025170884856,-0.14967286964422696,-0.1211734507728088,-0.09664323041479346
0.24,-0.05195852582757801,-0.0696377305730485,-0.017492432722865037,0.06281535938212215,-0.019381410111178103,-0.043939105485771665,0.02776365885145762,-0.12354930814006408,-0.15276759239522886,-0.15322747719128194,-0.1251944481888411,-0.09911783666069977
0.242,-0.0397192043292808,-0.05482139826303744,-0.015248977941729493,0.048803447899306844,-0.01426279279184899,-0.0347109655992993,0.036879830628587476,-0.11326420095804342,-0.144132085930257,-0.14720046262687994,-0.12189420279836985,-0.09712956675139624
0.244,-0.03442396509470169,-0.03368506648950234,0.0005696632458600337,0.03551989034278066,-0.019122810740442708,-0.016483244267860773,0.052108436324814766,-0.09303821619088339,-0.129268359353062,-0.1337914189414392,-0.11232859483126129,-0.0893665059433268
0.246,-0.03908336089032215,-0.021875618454006207,0.017220862541355332,0.032054862839123746,-0.029432831537012653,-0.002900586860082509,0.06639163988875561,-0.07456733928302425,-0.11623155133941211,-0.12163574528313327,-0.10480431176651175,-0.08139447927807454
0.248,-0.04661514777910295,-0.023174027434821238,0.023657574909812625,0.03630323077223931,-0.036035058024646,-0.000583622887689587,0.0724680131991491,-0.0683429923647683,-0.11107661940281947,-0.11838018816071298,-0.10617158997096574,-0.08057479665561995
0.25,-0.05138988895295095,-0.028936831726260485,0.022825990166652613,0.04124736957542734,-0.03761202026024041,-0.0038265846286817066,0.0708571113788853,-0.072475485973588,-0.11316103493035454,-0.12286864602008231,-0.11364700882687859,-0.08686454650537778
0.252,-0.05618845630078852,-0.03206764872926573,0.024519098470331173,0.04505526240178528,-0.04072901972749723,-0.004855922930341866,0.06934292060773821,-0.0758718895565885,-0.11675317569797122,-0.12861402550579337,-0.11966519374530223,-0.09403413339436083
0.254,-0.06430338463647736,-0.033990872031420746,0.030531740264467293,0.04992820993296069,-0.048002233257883886,-0.003450512093964905,0.07353236939228168,-0.07099464890571676,-0.11722376379539835,-0.13160161348184543,-0.12025220258375828,-0.09655229266909165
0.256,-0.06998055572970245,-0.03577335661650829,0.0341774448991087,0.05318812814194805,-0.05276094316888203,-0.002530516732288095,0.0812888993560781,-0.05947698142803527,-0.11399469628648828,-0.13112875133625965,-0.11520786892181453,-0.09195975693188514
0.258,-0.06850928179579259,-0.033805076913855696,0.034576256276001714,0.050978666037817366,-0.051799236593257796,-0.0003710203731269405,0.08670817207201671,-0.047737063858163,-0.10882005105343187,-0.12735324563393402,-0.1061293580254206,-0.08133959811392179
0.26,-0.0663146413522229,-0.028066679155753303,0.03817355273941533,0.04725173981169128,-0.05190187923663843,0.005101774192151814,0.08573647570223052,-0.04111170493283047,-0.10436828403920013,-0.12169794382686192,-0.09743831705471981,-0.07076776210643708
0.262,-0.0656140030379296,-0.023764403189126548,0.04178174674453158,0.04574592689305658,-0.0533465331069904,0.008469156027761016,0.07771533387622458,-0.04096224479438427,-0.10387144487848876,-0.11737774807284393,-0.09489195232322112,-0.06882966810722589
0.264,-0.05607993636314908,-0.021894933008802173,0.03403725455784783,0.04078490012935629,-0.04540463841104395,0.004111853719410402,0.06677139108759739,-0.0441760946565918,-0.10805681080404603,-0.11637830173263955,-0.09992498148728772,-0.07803903395926858
0.266,-0.038059589816233245,-0.01741582021780552,0.020549407220134902,0.029294537665559,-0.03020754394287659,-0.0010056440882763936,0.063106405572895,-0.04478753051556565,-0.11172483321048313,-0.11587752621654221,-0.10638454763223033,-0.08911656439342217
0.268,-0.030861505985375157,-0.009278917433906676,0.021723809087135587,0.02085654889719352,-0.026904222402905662,0.004397173982797643,0.07501155635419125,-0.0389672772690147,-0.10852395781134683,-0.11130334191610687,-0.10638966109673109,-0.0901631110731071
0.27,-0.04352371095520159,-0.005292804069097773,0.038521268869954196,0.02459564994567282,-0.040969396970463506,0.01599916138279527,0.09633181576826373,-0.030310330856307778,-0.1005679342253371,-0.10490101264295579,-0.10089545434839844,-0.08263484783795728
0.272,-0.06113651317476129,-0.01344436844555516,0.04795155845588223,0.037177740175525324,-0.0544549283172204,0.017204146479647003,0.11004099635666137,-0.02820334253804383,-0.09821821610464279,-0.10653620356810162,-0.10001717239170566,-0.08004299445516314
0.274,-0.0696624929785754,-0.031138051189214967,0.038780063058729185,0.05025772211571329,-0.05482958771252977,0.0033156477892914236,0.10742872150329966,-0.037981673292759616,-0.10764826232334043,-0.12088680504911384,-0.10967884271263027,-0.08894587534761289
0.276,-0.07265325247446312,-0.045432610802166026,0.027534699871100705,0.05928899569105159,-0.0511844827577379,-0.010329064381066375,0.09725770331039775,-0.05246252431646837,-0.12150982509305873,-0.13751898210510766,-0.12206234061708403,-0.09964568332822486
0.278,-0.07702313392573504,-0.04523880146316984,0.0320021428935094,0.06210394484441757,-0.055247348458583284,-0.00837879688662511,0.09360847494993076,-0.05751038181151455,-0.1262322232570029,-0.1413114736289304,-0.12444645894943829,-0.09928142450519398
0.28,-0.07866650289846275,-0.03337012540190206,0.0451905817853483,0.057475804131626985,-0.06217487766686457,0.004423409321740146,0.09931409452624841,-0.048566896104237874,-0.11867814246194508,-0.1316185825388638,-0.11576207599487912,-0.08883263962975861
0.282,-0.06897677956322096,-0.023427810830376337,0.045109059311463195,0.04750257703371542,-0.057778486833025645,0.009669057046905589,0.10489525044235043,-0.03658039155242194,-0.11025858253311617,-0.12311401957462376,-0.10803539643535066,-0.08200699056812676
0.284,-0.05059266755782101,-0.024076108890051892,0.026040797074709396,0.03826717763898893,-0.04036426470829723,-0.000342546398598823,0.10220381336924149,-0.03371066164617633,-0.11157382231738425,-0.12636502829794244,-0.1105072973606552,-0.08764974144601974
0.286,-0.0404520370739713,-0.030520771331720084,0.009829341220319527,0.03641968481639949,-0.027871761410685047,-0.012166048112625352,0.09430851175316243,-0.0387026854483431,-0.11854963211622281,-0.13518770621313073,-0.11896129694005701,-0.09905244024305415
0.288,-0.05218722881615648,-0.03371542145867637,0.018876407327145576,0.04412559107025191,-0.0373605225911581,-0.00949160286297787,0.09028004654237817,-0.041190649672104396,-0.11958824534579433,-0.13701356941553197,-0.12354915523909468,-0.10419049275939792
0.29,-0.07773265550476355,-0.033015756883230975,0.04529811329556576,0.056622513519495286,-0.061643929150978286,0.004409757422002683,0.09409287131639878,-0.03605146573003953,-0.11188630301123399,-0.12957049935804366,-0.1214432137241718,-0.10103564299795492
0.292,-0.09232172068130381,-0.03382479691515249,0.05879384130033939,0.06437462548087704,-0.07490394504816827,0.011338650402048053,0.10136623484366554,-0.02881262921852829,-0.10387517322317147,-0.12209367528273787,-0.11813383060078017,-0.09732682557820213
0.294,-0.08124007246821126,-0.037276510037098594,0.043852398676158255,0.06105656850139606,-0.06281711858495896,0.0024749784751528676,0.10564645315083153,-0.02749758968153513,-0.10356156010243246,-0.12272357278442458,-0.11877177692038597,-0.09829377891489971
0.296,-0.057434011735849534,-0.0392051892369529,0.017898870186372144,0.05087577199472397,-0.03946741864473211,-0.011466554236771554,0.10551222521028575,-0.03203276570790417,-0.10968707407199599,-0.1292917238160857,-0.12150447364194765,-0.10031915887359026
0.298,-0.0436393578829998,-0.036634681870714836,0.006623089410741724,0.04280648399612401,-0.027251312682999483,-0.016067987633238714,0.10364032656563334,-0.035474884059515176,-0.11533660635311346,-0.1342062904431126,-0.12137630402916617,-0.09815483973581057
0.3,-0.045640574999060775,-0.03192365501215501,0.013373451889114632,0.040463564198853906,-0.030547448872087456,-0.010734051461574398,0.10119118463609691,-0.03424985704672383,-0.11660781888949778,-0.13474001091996365,-0.11808243754805593,-0.09324249393747094
0.302,-0.055526634715030554,-0.030704103547457444,0.02463423561973439,0.04354526593062164,-0.04037942605921944,-0.0047718352865293925,0.09802704558589596,-0.030761600374633404,-0.11392389782155281,-0.1330826590601223,-0.1143954952938355,-0.08962937683002518
0.304,-0.06582002299249891,-0.034479338782691396,0.03137763621734994,0.050240777634519444,-0.04966496322918617,-0.0032127199774508275,0.09674404412135568,-0.026915091948489577,-0.10770022535985263,-0.12925344343643003,-0.10967514526594749,-0.08629237009712203
0.306,-0.06868049049893307,-0.0370843414269199,0.03183162947247014,0.05349466401329647,-0.052573189713326536,-0.003970519911892727,0.10069568892327281,-0.021438986203311687,-0.09819003335309472,-0.12125563273885837,-0.10168271078870593,-0.07986428158527265
0.308,-0.059870364048962205,-0.032926620262853916,0.02732031309461862,0.04748174607435089,-0.045960930435145285,-0.003918581904283792,0.10826812160375492,-0.013789682315841507,-0.08817108733327474,-0.1107337221798481,-0.09273739363819737,-0.07127675144413051
0.31,-0.04985633120065997,-0.02618865523433197,0.02406013263611303,0.039267845883518684,-0.03813600142223025,-0.0021424697502182956,0.11304789673630225,-0.007818684093542333,-0.08226559307737742,-0.1031359518220411,-0.08869807674541223,-0.06538982163770728
0.312,-0.05335826565815908,-0.026146181845844347,0.02742650840916231,0.04119776857713722,-0.04068742206387777,-0.00029345361814253374,0.11013004186433552,-0.00945620047419014,-0.08378336608146808,-0.10255523996710908,-0.092404354519281,-0.06601836175333002
0.314,-0.06859356079743077,-0.03522253571319766,0.033341778332302945,0.05355709389915137,-0.051602530059261464,-0.0013957465754950507,0.10101332308317365,-0.018334033967897165,-0.09099828200497556,-0.10725984232201692,-0.09978250792693338,-0.07192375891758371
0.316,-0.07887329767673165,-0.04560567100215513,0.033142411515566066,0.06382246808026085,-0.0573979542989788,-0.006243377792627857,0.09230132974504007,-0.024736491358040128,-0.09623182327946135,-0.11084639158126905,-0.102786788915446,-0.07751526773115654
0.318,-0.0704769253030182,-0.04678368832167322,0.023641800106408102,0.06006949922295482,-0.04853355044213755,-0.011842237131585548,0.08937664342850746,-0.02031864515709781,-0.09307899471429754,-0.10973002691886362,-0.0978189316679789,-0.07892992918485882
0.32,-0.0473531640851481,-0.03633193169769824,0.011061775539744452,0.043383256877088244,-0.03021215588237103,-0.01401737543852167,0.09141808519818785,-0.008830553666641854,-0.08444425606976175,-0.10651706380260086,-0.08984636049576815,-0.07757244470079909
0.322,-0.030367935255632823,-0.023500568248433547,0.006914695622184814,0.028691067777643568,-0.019433331699474705,-0.010901927816614905,0.09334393100974894,-0.0010368247124162586,-0.07851045079389865,-0.10417566478458253,-0.08558748292863608,-0.07636814290862921
0.324,-0.03371300365182326,-0.019122698097456002,0.014569234093622837,0.02836348979145116,-0.025341596785279343,-0.0051566700005973775,0.09189227837965366,-0.0020071508615739186,-0.07847644107568533,-0.10279447282412607,-0.08621707203568876,-0.07616591065562957
0.326,-0.04774944381906046,-0.023384417512252342,0.02420844669204477,0.037751054145031215,-0.03793585745399053,-0.0014859114104422992,0.08861487795152641,-0.007555459684456199,-0.08074641290968032,-0.10254910806465821,-0.08881985114243153,-0.0767400986102528
0.328,-0.05816310096847465,-0.028700876730578813,0.029122266041006636,0.04565004346283647,-0.046203336818462094,-0.0004361567300546585,0.08706405373951051,-0.010842029055634039,-0.08120919557798449,-0.10342148741781548,-0.0899561709855945,-0.07731404969161734
0.33,-0.06460756006158372,-0.03105175843326252,0.03311903569290078,0.04955890801792936,-0.05152416318113035,0.0007371882279035508,0.0874272450751183,-0.00956963221395366,-0.08011350179072114,-0.10344258348008716,-0.08763220737771389,-0.0762638755995362
0.332,-0.06536886724522602,-0.03160546448123848,0.03338709803000165,0.04956689561250972,-0.0516185712699884,0.0001718255234461908,0.0846140959136508,-0.008028602974217152,-0.08145949446727636,-0.10262423223363741,-0.08444325813329176,-0.07402334338419937
0.334,-0.04874122278109479,-0.030646682941849804,0.01779358924763192,0.04064232307576224,-0.03487582070870076,-0.007301605159056934,0.07397532756120635,-0.012581784309956656,-0.08838617329374468,-0.1051079626035852,-0.08626607344978712,-0.07398132769275421
0.336,-0.017573271614318223,-0.027092729600026382,-0.009801644253908946,0.02386877879506867,-0.005151042975644923,-0.018892617411106465,0.05981648159944692,-0.023281270794264113,-0.09840955964900436,-0.11212197877404909,-0.09401224927413196,-0.07686547162873006
0.338,-0.00110509113017635,-0.023549832432650762,-0.022640068472190893,0.014702820361877426,0.00939148279630292,-0.023262881947532694,0.053984269630879066,-0.031495764733082514,-0.10372313429539635,-0.1170954186841322,-0.10033474790541784,-0.07771133254922988
0.34,-0.022573305386273165,-0.025747191561837877,-0.0031928419517463255,0.026740946821388296,-0.01102798811464293,-0.015033629617956967,0.062291509830360414,-0.029638136752563993,-0.09896921353273098,-0.11353946007008588,-0.09774977356412146,-0.07189823366985394
0.342,-0.06419081813305723,-0.0339417119617016,0.030318899974732666,0.050728379826468,-0.047886355274331806,-0.0029004358889344628,0.07539135495615568,-0.021860686766805852,-0.08902501512287167,-0.10476474510855084,-0.08782873660391939,-0.06192087996035902
0.344,-0.08208325649205657,-0.039900755865049695,0.04211254540503818,0.06141173351139643,-0.06203488088152772,0.00011770582075904066,0.07708417132852312,-0.020235993249202906,-0.08507051961465459,-0.10075155659067529,-0.0801105151394184,-0.05567247817672629
0.346,-0.05640846854851643,-0.03754688521285439,0.018516501055523184,0.047257886747943435,-0.03784367539465739,-0.009906678541401035,0.06061027711670666,-0.030534797646217332,-0.0921856960993967,-0.10656632569715765,-0.08217637800115116,-0.05857020855379371
0.348,-0.012691043859956128,-0.032196482377302334,-0.01996985473774696,0.02388886260543545,0.00183013726030113,-0.02604207183857251,0.03526139994959473,-0.04603102065657628,-0.10442310917328476,-0.11690712619250358,-0.09167640198277631,-0.06808494980988747
0.35,0.008535518899761032,-0.03271730606830567,-0.0415410052824195,0.01461959575646202,0.022236292033460257,-0.0370951619210765,0.01837889784953725,-0.05486499490556119,-0.11116013940354942,-0.12147651425242645,-0.09810421834545714,-0.07502281541359478
0.352,-0.007958473903466394,-0.038277785775476136,-0.030407391695093076,0.025478447738424517,0.008703911298689384,-0.034589271404831666,0.019936944261607404,-0.050575796801044126,-0.10610534349870421,-0.11488229008793886,-0.09289108349658202,-0.07120123199606437
0.354,-0.04201683159447874,-0.04052380187921246,0.001325632919574535,0.04258678874717774,-0.023321621511300152,-0.02027674751212906,0.03260255804815411,-0.037304985755846586,-0.09327863559160407,-0.10208276964259384,-0.07839829004103671,-0.05814887503490992
0.356,-0.06189377002870252,-0.03633610125680219,0.02519550785170631,0.04961311698131491,-0.044665974991665636,-0.006816363486754851,0.03991599956803802,-0.026263266608934015,-0.08403329533708527,-0.0931516637387994,-0.06522653517113072,-0.04572872341289346
0.358,-0.058503713286892176,-0.031504249053221065,0.02668871314782324,0.04545227713931213,-0.04348963218781605,-0.00418218160870796,0.03520377711274031,-0.02562331988765808,-0.08507027392010202,-0.09288994243387277,-0.061129389058482045,-0.04123108838369851
0.36,-0.050753683474823084,-0.03217397868898827,0.018546134966214066,0.0423533111332924,-0.03538667043053963,-0.00891017664306355,0.02601597727567109,-0.03426632236872345,-0.09286197790967628,-0.0981781638665912,-0.06541099075385542,-0.043806423821236506
0.362,-0.05271399765684808,-0.03672166832880502,0.016139570010535207,0.045822774178681025,-0.035471334189621714,-0.01258414657133481,0.019915640896808764,-0.045173905163904314,-0.1010561486364559,-0.10417439189802465,-0.07205769232407107,-0.04843026536730326
0.364,-0.052782423799038594,-0.03884531276816302,0.014033195940769565,0.04666266706963326,-0.035384728068669845,-0.014681604519138473,0.015205618365257774,-0.05261338198301688,-0.10677517509090578,-0.10919056585137331,-0.07560325898088505,-0.051180909165547066
0.366,-0.03716059303353384,-0.03670925166640137,0.00039818155316000527,0.03777350893748665,-0.021619317262320466,-0.019833374902918435,0.008077054680614357,-0.05567894202838904,-0.10908622268428135,-0.11320525251945929,-0.07566026999482109,-0.05129183102914958
0.368,-0.013255684862455912,-0.03350639478430788,-0.020449240952285674,0.02496434924466599,0.0006368434697268386,-0.027570580039899283,0.0006312858141113779,-0.05665343117951479,-0.10841243668945831,-0.1153182793314127,-0.07661314603880802,-0.05091786778059555
0.37,0.00019060332129074804,-0.03143685231534509,-0.03199226236866971,0.017963866488599916,0.01368302859209383,-0.03142222959980299,-0.0016663579889675275,-0.057615957525331926,-0.10787165896557713,-0.11526042238224454,-0.08179576206291252,-0.05345440167714778
0.372,-0.010752005280316902,-0.029773419157788,-0.019546183520122152,0.0224649921014624,0.0027119214444332723,-0.024105918603975308,0.005409402400053073,-0.05798591142422707,-0.10933170059129317,-0.11431636477702446,-0.08830987419929409,-0.05939800346638935
0.374,-0.044023735780257166,-0.025334313102487745,0.01812881432293336,0.036128680470586816,-0.032294551871959766,-0.003190414794370717,0.02290287189167868,-0.054680445496453095,-0.10963746310396268,-0.11266241932115456,-0.08975395971631199,-0.06417218456527024
0.376,-0.0756355317101847,-0.016276745046997054,0.05895664107213742,0.04692103564497917,-0.06843224223583254,0.021586167661972414,0.045065695497109176,-0.046973362378992266,-0.10621491412629318,-0.10998491921793552,-0.085282129382434,-0.0643303563425193
0.378,-0.08209479692040358,-0.00894469911014547,0.07304761216600639,0.04648996789788395,-0.07885339076185209,0.032198972285540875,0.06023206826016264,-0.04042941511844151,-0.10305174790355504,-0.10917138383933844,-0.0828689985156363,-0.06390936480214905
0.38,-0.0695998164921628,-0.01183963204337634,0.05797622214374215,0.0416810166180184,-0.06518786564998183,0.022987135805946815,0.062018072742102054,-0.04085979219446396,-0.10508265364286774,-0.11329469999590691,-0.08912626553518006,-0.06830458372914518
0.382,-0.060184399871415016,-0.020584780994981813,0.04005466471540249,0.04094150302624786,-0.05143930887944464,0.00923775172042333,0.05660543942184189,-0.045708794035093425,-0.11025041020066893,-0.11937278812350301,-0.09887646252874774,-0.074397796085203
0.384,-0.05806564344682019,-0.02264159080598031,0.035989920564809,0.04050242623315684,-0.04811564217915633,0.005935571314828475,0.05323559494187432,-0.048468434468275,-0.11362331363723663,-0.12240787134274873,-0.10262917340127507,-0.07509532476764587
0.386,-0.05245433166592145,-0.016644957780443177,0.03636515638415012,0.03504264688286865,-0.04528760897808075,0.009198577628442041,0.052882291937989725,-0.04880807457338539,-0.11509610175247713,-0.12343628145420624,-0.10056399287717183,-0.07115665645352492
0.388,-0.04481624465117977,-0.01291432938738923,0.03240014563479168,0.030422351842559408,-0.039385839269814815,0.00891592614701356,0.052929088770456476,-0.049523527254440106,-0.11578760863688586,-0.12512983806968744,-0.09870866014568747,-0.06869865643814542
0.39,-0.0515302278206203,-0.017346747143898097,0.03463272101551735,0.0367495636672973,-0.04398422413292788,0.0070566186036451345,0.055162163418838076,-0.04867457196494159,-0.11302185272487812,-0.12425616539282235,-0.09724395860534178,-0.06808664081603526
0.392,-0.07989055957213403,-0.02555490401862371,0.05469138948783133,0.0547607332049761,-0.06874228310689748,0.012304084324637508,0.0612237693430705,-0.04524328924566307,-0.10702339295052403,-0.11770591884996924,-0.0934088389052859,-0.06507768523730545
0.394,-0.11441262011827054,-0.027718878790854662,0.08685354596592895,0.07229312205787419,-0.10289096020871927,0.027442253605069165,0.06841984447920708,-0.044955367184967295,-0.10429886079276562,-0.10907870375329659,-0.08778120835167927,-0.05869458674868983
0.396,-0.13077114120522051,-0.014241878439480715,0.1164647328680371,0.07316956545955762,-0.12636896088874325,0.04954222696608428,0.07594571471548146,-0.04914528977200288,-0.10514231728862547,-0.09957571500115678,-0.07861127898720267,-0.0500623403503281
0.398,-0.1187878153031281,0.012023011203917409,0.13059697212820223,0.05381629924333441,-0.12720911669536167,0.06990793745191745,0.08535846330777815,-0.04730667887388131,-0.09561068706809876,-0.07814294565959484,-0.05752514096421869,-0.038247890147581905
0.4,-0.08665474453657655,0.028643795513223,0.11506822507109464,0.02943394385714792,-0.10241453565744414,0.07023074186035173,0.09123463895700804,-0.029652415471814894,-0.05784123973528699,-0.026059795270288986,-0.012321069741299123,-0.019425775726977082
0.402,-0.04533164408707276,0.01621926741667171,0.061515488673912544,0.015411548671769375,-0.053758968838768274,0.0370730085701922,0.08408834795063583,0.0059067306831076406,0.02130790241740371,0.07659000555611849,0.07603245005956945,0.01899304439121752
0.404,0.0005161882159739574,-0.013785913716782902,-0.013966967335093056,0.008330961931426722,0.007435380244704207,-0.015538913085897037,0.06584654743907875,0.06369814229462543,0.15197313548226163,0.24802489334156474,0.23229242537172928,0.10059833700696817
0.406,0.04765503521463302,-0.031875742261768064,-0.07892484737177265,-0.0055005772937869075,0.06273227475214217,-0.05650468305162435,0.049251520261718536,0.14870303792594347,0.33451998016763906,0.49169401797004225,0.4645640674545491,0.23971002921412918
0.408,0.09611968951663658,-0.02551529728540467,-0.1211134752496648,-0.03288612467651339,0.10680706485328034,-0.07365202158785633,0.03937055040403526,0.2516458615392131,0.5493906694884119,0.7849068995626166,0.7465796114252873,0.41956213687691746
0.41,0.15688586380832514,-0.0055346005561430186,-0.16225616736141169,-0.07380601053280553,0.15750434008406547,-0.08403055401611376,0.027146689254724264,0.3541185436332528,0.770027424270984,1.0947843573502123,1.0377360301399927,0.6057750860675134
0.412,0.23985818214305715,0.013182376684005613,-0.22680340229580684,-0.12518988107402343,0.23216864355196137,-0.10776553968791547,0.0034986547059184074,0.45056741678930845,0.9847412214970644,1.4004443456606948,1.3151835766074162,0.778171061070845
0.414,0.33121994559629275,0.0236466422504968,-0.3077211215723181,-0.17620305534545694,0.3188584506148636,-0.14406873067259945,-0.028725106468918415,0.5473618312630071,1.1892936663898046,1.68317017998185,1.568043326703139,0.9326941838052348
0.416,0.40254363033254903,0.02787002599885783,-0.37468266436998005,-0.2137674486940364,0.387221825014793,-0.17565690663785816,-0.06021348195357188,0.635505571370295,1.3608039306786028,1.9022432895719026,1.7627674659320842,1.0536657846457258
0.418,0.44172769127318073,0.03471131679576448,-0.4069210969667522,-0.23665670426391563,0.42181802579273076,-0.18786464227405386,-0.08637443905972375,0.6777881710911562,1.4559459993594739,2.000605283124232,1.836566787984381,1.10379171301694
0.42,0.44981383776613976,0.0486534954376964,-0.40101095722495506,-0.2477707491053112,0.422817889793465,-0.17776142044568502,-0.10625453966244258,0.6316034092772683,1.435070068505583,1.933920408792747,1.7314450303453184,1.0469636145819223
0.422,0.4162804138067424,0.05752691309573434,-0.3585779011860599,-0.23556252188783858,0.3855694256130171,-0.15239690864397748,-0.11209014752918496,0.48698328580138667,1.2837394717090485,1.6887089123974899,1.42675757328883,0.8692243303900852
0.424,0.33022475790588324,0.042697900929390235,-0.28746315962864394,-0.18506475023103736,0.3075109171471632,-0.12428969988957136,-0.08967535062443725,0.2825656156113795,1.0238145811732922,1.2943804694887202,0.9567923757072395,0.5861849747437706
0.426,0.205873652028046,0.005535988523914369,-0.20048664440975697,-0.104195949784195,0.2019619954825275,-0.09912497810531182,-0.03609894200708299,0.07289964767724871,0.7075801827212176,0.8327828910243467,0.41981414426939306,0.2516563851276698
0.428,0.06971046941555169,-0.02795733468555921,-0.09780237978078979,-0.01944432508869758,0.0827268365409975,-0.06468497083504463,0.028749077613417426,-0.12307978866200672,0.3839450355899305,0.40276271538809133,-0.0580407779920594,-0.05534003850613294
0.43,-0.06418515394824766,-0.03501355549286637,0.029388311354683387,0.050858629593388674,-0.04738025482938611,-0.005220688365662354,0.07695759718516157,-0.3263665830929116,0.06531559275011964,0.04645893263857487,-0.40663637710129324,-0.2815247005116983
0.432,-0.18742866833499697,-0.019764168245905735,0.16816582269668573,0.10480670836025976,-0.1781615890562694,0.07155992013513614,0.0968247997809202,-0.554393985242665,-0.26421883026338994,-0.27008375720261346,-0.6489638049103277,-0.43201844375754167
0.434,-0.283383604825207,-0.003969106829192919,0.27977240075458937,0.14493245056949233,-0.282448152758027,0.13584754377211883,0.10093639929292524,-0.7896581784981215,-0.6084464654450653,-0.5877900595721043,-0.8392084852317843,-0.5392262664089814
0.436,-0.337832086745746,-0.0012738484264179352,0.33654162622591216,0.171031341412279,-0.3389588606757937,0.16651202101652698,0.11396151961429629,-0.9878346518638812,-0.9313947841779064,-0.8870133029535364,-0.9872553313258718,-0.6141297851279253
0.438,-0.3566102632258159,-0.007679367762121634,0.34871212701019394,0.18413710280076107,-0.35479801578115655,0.16993632024445435,0.1500599585315668,-1.1100949456361577,-1.1765305221503304,-1.1077445769043954,-1.0646981426551265,-0.6448021042462546
0.44,-0.36140525881815755,-0.014262361802109146,0.34689686896934485,0.19013719725678155,-0.35603991273081903,0.16566385176502307,0.19886563344571803,-1.1518065560754074,-1.3163087165215033,-1.222647760110648,-1.0655516452117473,-0.6323239174939934
0.442,-0.3686618014188664,-0.01996796355368408,0.3482948160401305,0.19618644037799,-0.3603314221996659,0.1631366208019093,0.23480959526476672,-1.1405813938499432,-1.3698127634851491,-1.260158097546347,-1.0267492633829312,-0.6041365901671931
0.444,-0.3789103168126157,-0.030661060807570167,0.3476001864650617,0.20585084518925986,-0.3655694605589275,0.1571049903987941,0.23886200883943196,-1.1072123088795216,-1.3678100835784308,-1.2572270871986888,-0.9862000552185476,-0.5859403107588079
0.446,-0.3819251502932433,-0.05124182709348154,0.33014204701231065,0.21719757664461659,-0.35871073552519733,0.13780793443935885,0.20958968021607624,-1.0634963162025703,-1.3219644197048794,-1.2227166554252713,-0.9480668015910612,-0.576555961050491
0.448,-0.3637069995617962,-0.07941373455331754,0.2843505069623527,0.22231968492886628,-0.3265445642494495,0.10064190616140682,0.15716926282820987,-1.0052160222227724,-1.2353195136589152,-1.1532535287541426,-0.8977464456975452,-0.5593295274011489
0.45,-0.3171107066815567,-0.10649742669976374,0.21118507334816236,0.21310510149933035,-0.266253843417775,0.05079051662118528,0.0942988255548212,-0.9256563799444849,-1.119436469960489,-1.0556773583800676,-0.8290686913254879,-0.5260004926604692
0.452,-0.25262743733913273,-0.12310659021321453,0.1299967356968716,0.18958058753032442,-0.19310628660684312,0.0027491749820468515,0.03553787378157217,-0.8216914754440046,-0.9877514716789348,-0.941864860734521,-0.745418232665037,-0.4791215989146489
0.454,-0.19048287999065103,-0.12139673596123939,0.06909512342362847,0.15748687867074954,-0.131303437438905,-0.02607072348189471,-0.0047005048304829275,-0.694362244305233,-0.8444013741934877,-0.8161482659866983,-0.6479382284597697,-0.41992590605890456
0.456,-0.14271153908230494,-0.09651137924447806,0.04595401990550434,0.12076982056579078,-0.09556331041730459,-0.025332574042710342,-0.023095664343407787,-0.5521302404846065,-0.6900124439271137,-0.6778797229846574,-0.5361585229745183,-0.3471711271837116
0.458,-0.10969675388189745,-0.053246413498144504,0.05632001258839406,0.08260862079309725,-0.08417685984769885,0.000466206008935928,-0.02928682975815618,-0.41313122691350473,-0.5354907876274332,-0.535031402390818,-0.4194147293951071,-0.2677843358562373
0.46,-0.08881413650167258,-0.009722140857751771,0.0791602916347233,0.05049407421487004,-0.08532588740649735,0.032765349061107826,-0.030815475279136913,-0.2991649369873451,-0.40380082281279,-0.4095082126536147,-0.3188117179301544,-0.1990052810846537
0.462,-0.07784679924372497,0.014264812807552025,0.09221508966688785,0.03277886844243755,-0.0865156482305914,0.051497193392466833,-0.02478354159195225,-0.2225431583854985,-0.31361796047507445,-0.3219912755505933,-0.25113583452958516,-0.15483055709035096
0.464,-0.0718602164017919,0.016481029251155185,0.08837574437619142,0.028444273565625237,-0.08171689712557106,0.05168054998989975,-0.007269749070496375,-0.17636201429638076,-0.2615721971818969,-0.2718968449932517,-0.21339144736195229,-0.133269761128198
0.466,-0.06657198908894169,0.012966936483192689,0.07959800685284943,0.02771227468314226,-0.07492115361502638,0.04615659977809749,0.018351787469666588,-0.1410249564873599,-0.2255737921713615,-0.2390144775984204,-0.18869536096515033,-0.12048313400014946
0.468,-0.06611030090945265,0.016211790052983954,0.08246538642575162,0.026081945938008548,-0.07617363362149707,0.049101669483664394,0.04452740299457972,-0.10341247052821108,-0.18738293619343768,-0.20543143490158297,-0.16500706338922155,-0.10575275125024876
0.47,-0.07638730921026196,0.021511227119366053,0.09787508968868418,0.028412210158124764,-0.08832715031844339,0.0592456945961183,0.06471966967602202,-0.06716370900590048,-0.14827581598646797,-0.17107748649440552,-0.1438335061451632,-0.09008446765813845
0.472,-0.08912585574830337,0.0182679478207619,0.10692221545157461,0.036047150209043345,-0.0980130812126598,0.06214747319513965,0.0757888135427949,-0.043577323984706116,-0.12158295456210155,-0.14790140110902894,-0.13282310938066036,-0.08178177892371978
0.474,-0.08703096905200264,0.005437588719135151,0.09179069253990174,0.041339632928050714,-0.08865717591544119,0.04810604429072075,0.07953960686590826,-0.03611123151638973,-0.1139526821273852,-0.14253783658105437,-0.13323913405409635,-0.0848075900003588
0.476,-0.06950306923902794,-0.009265942975153797,0.05998220212033418,0.04008277194990375,-0.06417412369371661,0.02475051789706164,0.08090490452949012,-0.035600711741782316,-0.1163551118074511,-0.14686336483773288,-0.13604497918626332,-0.09241146639150537
0.478,-0.056730102989591066,-0.020194863502628446,0.03698561037034909,0.03932452795431066,-0.04684987673864943,0.007781681033432877,0.08171410133854214,-0.030806345869554996,-0.11436004784346564,-0.1475222592419172,-0.13195925933183875,-0.09532510610362926
0.48,-0.059916192690115985,-0.028223866191716466,0.03250370209083034,0.045433571101529215,-0.04647923840378302,0.0011526292929602553,0.07800788265067897,-0.021432913865018586,-0.1057062559807615,-0.1417944993762486,-0.12283688994730417,-0.0932549702385978
0.482,-0.06319705134531294,-0.03428061010370035,0.029577961766880632,0.05109374986227767,-0.04657947355212946,-0.0043797497110246615,0.06700195020564162,-0.015477906386613704,-0.09983021090210495,-0.13608944031333234,-0.11687619097025949,-0.09121479064225196
0.484,-0.04818433621225593,-0.03470117579058558,0.013780858488530712,0.04457262085466091,-0.031048882958038523,-0.013416829566247733,0.054682491062555814,-0.015345086099198345,-0.09983023794882702,-0.13152504321738984,-0.11484170449076442,-0.08859515042017564
0.486,-0.026200051508146752,-0.02841783355687593,-0.0021984318645385274,0.030348409634965143,-0.012262916830413318,-0.018090906851475002,0.0512069491995539,-0.014408878607148914,-0.0970828296293928,-0.12200895746998991,-0.10913100896653728,-0.08038083852896223
0.488,-0.025632339729510005,-0.021742284694185376,0.003811607742046625,0.025937904091470752,-0.0156728622669324,-0.010660611208366604,0.05851554047492401,-0.007783423927579249,-0.08578296683849553,-0.10617122891623969,-0.09592314498876493,-0.0669411973304342
0.49,-0.049063282126455124,-0.019985773890813175,0.02901004773049912,0.03589676029682946,-0.04076778189885994,0.003636499751609061,0.06705932033181565,-0.00017089223687038254,-0.07208817082023264,-0.0924962520206845,-0.0823205897639943,-0.056392021573487626
0.492,-0.06813120095750216,-0.022042721604422975,0.045970540410213104,0.0460875168347424,-0.058968754170680884,0.011050312996324986,0.0671659890404207,0.0007432616352380852,-0.06572858676230679,-0.09011506724051199,-0.07907458792468677,-0.055961018246771424
0.494,-0.06258035931954044,-0.024847540079894086,0.03741186502165977,0.044983482005094846,-0.05146045994774369,0.0051975845459820156,0.05991585089394955,-0.004299529841505357,-0.06862893459127392,-0.09821145739463515,-0.08717701821194083,-0.06329983103385907
0.496,-0.04302195783100412,-0.026609931587326874,0.015864417047255417,0.03650365919183346,-0.03052779662021864,-0.005996188417952419,0.053362405383194124,-0.0071754954298010164,-0.07405290602619077,-0.10704995378460823,-0.09534772679332679,-0.06882490820355831
0.498,-0.03457039077155387,-0.028065548870124267,0.005909784572020851,0.03321064160668165,-0.02160478586256396,-0.010954557846533696,0.05173530976490329,-0.003871289273240557,-0.07430412400991317,-0.10820811287179831,-0.09287476451383228,-0.06598029113994844
0.5,-0.04863920513807468,-0.032107118539902224,0.016126062551615604,0.04237139829134662,-0.03437046607278502,-0.007644072150641763,0.05226162331269576,0.0016470683891825746,-0.06800288798868724,-0.1016550794648197,-0.08090463080046814,-0.05683157958953151
0.502,-0.0711816798435057,-0.03859639173455962,0.03247779813948162,0.05696305003295422,-0.053900055184755914,-0.0032318910183396776,0.05055568336100101,0.00519123875787116,-0.05985037330587839,-0.09282856700489489,-0.06866994441797426,-0.04814966105653549
0.504,-0.0779683602049383,-0.04307615358965392,0.03498711562875139,0.0626038623162977,-0.057926472171201754,-0.004951853493009584,0.045637980073986076,0.006823421769285995,-0.05451887884505516,-0.08636158775885912,-0.06353758633879353,-0.045382155576532905
0.506,-0.06223149933558134,-0.04280952351388274,0.01952328190478479,0.05447075394615724,-0.04176188783667789,-0.012749576839312644,0.03969262856559911,0.007370705515937525,-0.05239022824017614,-0.08350114643444277,-0.06615942036029276,-0.049489702210458196
0.508,-0.043239472077764414,-0.03938090047032125,0.0038628672706990906,0.042803387647678943,-0.024319152362407937,-0.018354650823687223,0.035276875930218915,0.007223244375575179,-0.05029595648210598,-0.0814597184516508,-0.07051422013472108,-0.05517913154992734
0.51,-0.04133279352681574,-0.03600080704269347,0.0052816067089743995,0.03955904807038765,-0.024179798664926706,-0.015426804241750955,0.031939833163360146,0.006514658082632389,-0.04657971881151878,-0.07702266839918022,-0.07019971410496802,-0.0552613859768697
0.512,-0.049986706560728844,-0.034406326721954,0.015553935150559665,0.04293485488973396,-0.034029621958893495,-0.009723595095013174,0.02547816743471822,0.0030681530040404742,-0.044855342726033906,-0.07283672348083473,-0.06674356045704895,-0.04982151232564514
0.514,-0.04531482558354471,-0.03170112822128973,0.01362817014713583,0.039627708015263566,-0.0314923539259005,-0.01016027303398007,0.013910791545663513,-0.004015371811727896,-0.048775523494953336,-0.07369632132126344,-0.0657674768047516,-0.0449069904313494
0.516,-0.01996640617039787,-0.02318843780283639,-0.0032008191069119907,0.023050948106729096,-0.010901243494011554,-0.014697560926008739,0.001139188690667524,-0.009754648963976403,-0.05539415763179053,-0.07745124933143842,-0.06652037177846706,-0.04250413124207182
0.518,0.0063114913201228005,-0.01178100566206288,-0.01809025834246542,0.004231538957472133,0.010093494499045409,-0.01583115688251592,-0.008476552168561916,-0.00899800256253993,-0.0585891845837024,-0.07730206673228479,-0.06342920209044646,-0.03916794978001206
0.52,0.011315938159033652,-0.007464326348655767,-0.01879075262804139,-0.0004284116382652784,0.013879345957600537,-0.013299208989267465,-0.013909302554215967,-0.002940625280996676,-0.05585920974347375,-0.0709548563234897,-0.05504640851596442,-0.03273716720171919
0.522,-0.004598859952007851,-0.014209970401416909,-0.009617335868963921,0.011082023888223257,0.0019839912979166072,-0.012327978063176774,-0.016120462226178814,0.0035646591327230335,-0.04952701511237207,-0.06273152667975372,-0.045879200621300235,-0.02613483064679557
0.524,-0.02171538896507971,-0.024399127174358385,-0.002702928182257393,0.02478706345594709,-0.009876264610646697,-0.014959983411965102,-0.017540350317968287,0.006900623118059989,-0.04407579165349458,-0.05839210500188447,-0.041878186582502905,-0.025143890116964815
0.526,-0.02431081131121844,-0.029238821123661128,-0.0050546157422574674,0.028261519095546143,-0.010156697817231117,-0.019310921302785083,-0.019605446241196745,0.007031299982703729,-0.04189032947028772,-0.0591827478791444,-0.045183404147275744,-0.031418244321227695
0.528,-0.01910946160583202,-0.031079275132764997,-0.012296483726533455,0.02636052540106466,-0.004211627544158191,-0.023915670249657975,-0.020067667449858714,0.006747136301289656,-0.04129311398059898,-0.06116600326985531,-0.05230255335106616,-0.039017587782181486
0.53,-0.026665775488332384,-0.03954510083404512,-0.013304143108475329,0.03439117111574931,-0.007550804323614301,-0.02818611762200672,-0.01744991197030306,0.006315640966063332,-0.04096122699128958,-0.06173566502745241,-0.059097308562293074,-0.04251671670014262
0.532,-0.04957919676716454,-0.0534235963521322,-0.004101405716883713,0.05292349980649601,-0.02336498624804895,-0.02983554612878112,-0.014624634141572683,0.002190396462977112,-0.04310005887285163,-0.06389101953167364,-0.06563369014342778,-0.04442445154651792
0.534,-0.061266282050395866,-0.05593864315108706,0.005353819825380548,0.06020294164505726,-0.033829835287783605,-0.025972356858906864,-0.01328008572862417,-0.004831783095769522,-0.0481142726387535,-0.07008246666635956,-0.07220499166178258,-0.0479761305773027
0.536,-0.04100625371259476,-0.036723061299406376,0.0044519707686162865,0.04059228148067086,-0.023652014786436526,-0.017248982492784615,-0.01037621101484525,-0.006770216658455648,-0.05033705957336905,-0.07529927607596347,-0.07440484090653518,-0.049098672697020077
0.538,-0.007304630778234428,-0.00966770577704913,-0.0021683226837734978,0.0099830214940094,-0.004277403386940062,-0.008022879340649845,-0.0035313566681008687,0.0014140683573548515,-0.044134673212521416,-0.07188885865849208,-0.06827150459369184,-0.04292333967573534
0.54,0.004447959378171305,0.0030095508471649213,-0.0011575826203529184,-0.002737554843481499,0.00029669725712666475,-0.00165300595023299,0.005315084941589359,0.015469135919049925,-0.03130162931549123,-0.0590470804726834,-0.05659943370823118,-0.03178918627145874
0.542,-0.013518132659850315,-0.0017859065758240953,0.012098071197161945,0.00844443281352234,-0.01572870722513152,0.0031462449913280044,0.013635647698313772,0.02931893134944129,-0.01747534737395107,-0.04218099900413811,-0.04404651561854772,-0.020749545072050152
0.544,-0.039422457972443814,-0.008374159718652716,0.0313017673286399,0.024831148276736235,-0.03811813107783235,0.010255763081831138,0.021172442674951962,0.042032384215019473,-0.004306488996375195,-0.025950877983816553,-0.031070427669999377,-0.011442951278739387
0.546,-0.051430122768985766,-0.0057852196836208035,0.04567100433881085,0.02945188232212867,-0.050658549948931125,0.018837910958800514,0.02680538818939305,0.05292006651591674,0.008004469373581756,-0.013852360192569297,-0.019027546470322725,-0.005252713107328773
0.548,-0.04362112940984467,0.00088261219015249,0.04450463980532747,0.02201007556035937,-0.04525748636283773,0.021181766828892962,0.02677587497697445,0.0567712468436581,0.01456445184571041,-0.009867432090050773,-0.014004650884075303,-0.005799585119604377
0.55,-0.02552993935927699,0.0032812110008584574,0.02904449706027744,0.012270230010582485,-0.027629557838268728,0.01434701422764418,0.020780805481693806,0.05129962669374756,0.01229579450044439,-0.013204696100967058,-0.01758247280056918,-0.01272507760064217
0.552,-0.012312638943703097,0.003879370398697245,0.01651678361795302,0.006587521215028702,-0.014392901534604522,0.00830441489150438,0.01677347116373926,0.04418561636365654,0.008612139953423541,-0.01566812414786402,-0.02113373640584027,-0.01819313026902735
0.554,-0.009600228485016751,0.009415087668119687,0.018998682276470558,0.0032321792658227795,-0.014586774638349743,0.012482646671932725,0.02232295341627136,0.045053489600074194,0.013157358620762305,-0.010738180557933276,-0.017087691805066835,-0.014998393167774028
0.556,-0.012562399045008719,0.015708384760141095,0.02783100540108095,0.001018717559129486,-0.02113856589805569,0.020666889772788063,0.03207678581018011,0.05357643180806614,0.024231805574069083,-0.0021158081051261615,-0.009692490781328007,-0.005670030648757556
0.558,-0.017593812446477657,0.011511830458817415,0.028678368003323615,0.004331262156806046,-0.024519186618271564,0.019932397350545656,0.03318506440514958,0.06166495816805069,0.03236270910574852,0.002140097647588326,-0.007834234645278982,0.0010359002837883422
0.56,-0.022122082511105562,-0.001501236127042795,0.020566278463636612,0.012289305377545634,-0.022751710439455033,0.010046845026922905,0.024119095116138897,0.06558047032986611,0.034910706986705085,0.0017230997490127816,-0.011177672318071473,0.0020783253297920793
0.562,-0.01725492447677954,-0.005693192115952445,0.011759662503319935,0.012189918932803846,-0.01586623375100762,0.003607273346662123,0.01653316084352744,0.06959228208558353,0.038237202515464835,0.003850334156882119,-0.010733051480459102,0.0029434769950158
0.564,0.0019945788776592477,0.009519957933949122,0.007657165193949076,-0.00417432384725145,-0.004494000785592433,0.00885815920868912,0.017228041510890968,0.07731663677163095,0.04619475156624518,0.011832732647267714,-0.002380489183619319,0.007661598690141283
0.566,0.022896405177996175,0.03186852400960792,0.00893067829782256,-0.025199029439019693,0.0048302467445257,0.020387382018846805,0.02024847375758502,0.08510907020431795,0.05448973013019132,0.020599630351078528,0.006963322324094762,0.012656391895714304
0.568,0.029595609510591085,0.04170568973178297,0.012018632947347977,-0.03382647876790922,0.006575192810483722,0.026530954419731672,0.017982594321655162,0.0866900217295117,0.05741121443425936,0.024223313130978093,0.008819656668996619,0.013255117810182479
0.57,0.02343233781487793,0.03657742975308937,0.013123642604737728,-0.029149217090937627,0.003410839250301218,0.02388016300138001,0.012172687280748294,0.08289057225838883,0.05680999973539952,0.024293027433755516,0.005435214874499463,0.011816307620746574
0.572,0.013776417969632802,0.030376428689360642,0.016639500730026627,-0.021566212781874195,-0.0027202705082277558,0.021804020414617074,0.011392168384129724,0.08287599303237769,0.061631975827874365,0.028271027160943648,0.007696215387617899,0.015289403854848688
0.574,0.0037251871059383874,0.032415644122506214,0.028699076128472504,-0.016780231594247897,-0.013680686342750327,0.028668686880082866,0.019268171623999936,0.09286548471297779,0.07647958669696005,0.039878215728594256,0.02056173394278271,0.02640188807097415
0.576,-0.0049750232108318046,0.03882536416999499,0.04366213635927678,-0.014682006810958558,-0.02567888215950931,0.03984830321496314,0.02966934667355643,0.10851643719889378,0.09516445885952446,0.05583010752169893,0.03783328398756887,0.04152049493800545
0.578,-0.005632232966135653,0.042098403825320894,0.0473832362445719,-0.0159719944130452,-0.028166403616373268,0.043937906144515246,0.034672821285407746,0.12144527399981071,0.1089548644956941,0.07111664743188618,0.05184228766881122,0.05522155512482237
0.58,0.009427670895789057,0.04006194753821526,0.03020591216788898,-0.023273697582883796,-0.012407533745449378,0.03455816983628422,0.03174813841297084,0.12787297637834427,0.11568341341937707,0.08170788941370927,0.06004504733865972,0.06324267017120624
0.582,0.038460013086664385,0.03682843737895034,-0.0018789638753396194,-0.03663651566560233,0.01783089930620163,0.01694604951271896,0.023507950785841517,0.1305009600745068,0.1197498323752854,0.08643083179674224,0.06381186741744033,0.06508104920736944
0.584,0.06429915927306817,0.038284843735951125,-0.02598160538972861,-0.04973270377406355,0.04255447486565777,0.0058504857563601255,0.015899303908959505,0.13568350791495093,0.127730589599153,0.09093546927843114,0.06777988817892967,0.06608811408960959
0.586,0.06706015458368997,0.045081326549730495,-0.02183411933573271,-0.053571802166828386,0.0417229175266609,0.011539262318601015,0.014748293116762852,0.1473295172827539,0.14256466668368886,0.10341721354518439,0.07746278563257844,0.07227990223644058
0.588,0.04359955672483732,0.05167737078660037,0.008114730467277606,-0.04492961529617199,0.015189267277130932,0.029452292609443546,0.02065697185113692,0.16363807516304088,0.16111592136275568,0.12465409355546597,0.09417417182189886,0.08386715954059183
0.59,0.010239698787903815,0.054321941069251437,0.04388136826444457,-0.03027679054986157,-0.018717882687180522,0.047596474128601504,0.02883421441152467,0.18065750182093868,0.1792839499685324,0.14726424331847945,0.11391372898790356,0.09707680816094015
0.592,-0.008743578254337503,0.055652207913124356,0.0638823011108569,-0.022107531161404476,-0.037266027427697454,0.05716450679017493,0.03311299861261377,0.19449333925886347,0.1948472862578519,0.16253832018577669,0.12964625942585728,0.10749379055089642
0.594,0.003528325101092817,0.059926581994841945,0.055647680672743505,-0.030194477038222173,-0.02643448680787848,0.05497618917597428,0.028706909535348588,0.20045589229702598,0.20413098477657657,0.16616733719519564,0.13529855535191035,0.11086557417588347
0.596,0.04088240728491401,0.06814422356986126,0.026613134524258678,-0.052430912533261514,0.006401921791039016,0.04540383527822998,0.015886840661891305,0.19794820199497132,0.20563771335337896,0.16320483300499936,0.13291655408123243,0.10812605457008795
0.598,0.07566915100471051,0.07816500809634175,0.002302302044638672,-0.07484530980394999,0.0349336847242207,0.03930437569872009,0.0027618419872305205,0.19580911326592607,0.20741760019294958,0.1664120933082164,0.13396401028923074,0.10823051614675688
0.6,0.08737182807384841,0.08674708777258326,-0.00033114981405255126,-0.08548392224087295,0.04129982696414932,0.04279853915016009,-0.001636465748771485,0.20456032388085818,0.21972600218742733,0.1827058418436692,0.14716575658734204,0.1188420596192079
0.602,0.08193853821465455,0.09066037728328628,0.00924604168309137,-0.08500737544025312,0.033693232714646124,0.04949225958112665,0.002528053773958178,0.22355355114658293,0.24180295371133148,0.20523094692189794,0.16820359653186584,0.13711681172983575
0.604,0.07448258670510192,0.08837499699587296,0.014331278233724576,-0.08001777306166798,0.027932606103768513,0.05035862523944155,0.007987206476227578,0.24256756872404062,0.26489718684722113,0.22435639677488647,0.1871209698121456,0.1544746139403681
0.606,0.06946548116855181,0.08482594933336778,0.015519740060908905,-0.0754599983987448,0.025701908382687547,0.04836898566630056,0.010768872216104758,0.25583068689179556,0.2845274583965695,0.23996122259474587,0.20137568841453404,0.16714060905101827
0.608,0.06554956883086242,0.09001743638646988,0.02438706290477274,-0.0760083853955844,0.020172210565495275,0.05504364371341557,0.012798108193789418,0.2675618023705913,0.3026020876967208,0.25746127723590895,0.2152988987256402,0.1782524097451959
0.61,0.06715268225961184,0.10583634729680133,0.03856353333806638,-0.08515604565276039,0.014337092326468716,0.07066935551143624,0.014036371300801216,0.28066476965665277,0.3190908414143189,0.2752172802358893,0.22859179911953384,0.18933957613803024
0.612,0.08469237140135501,0.12036237684950919,0.035648982066491516,-0.10185782640876223,0.024569538772295677,0.07734995307465933,0.007761658942074509,0.28691144043593175,0.3268407990988956,0.2819112457317452,0.2324301450715278,0.1937096705929991
0.614,0.1185495094446658,0.12192976907417566,0.003432553447923181,-0.11950243879566136,0.0574684755294097,0.0618278453388329,-0.010389482651518653,0.27826891754876126,0.32036523746122175,0.2718280355230725,0.22286480871448594,0.18643765836948017
0.616,0.14659931230679954,0.11405476889393862,-0.03250818054108367,-0.12854268610945652,0.08946605405201818,0.038608746320250034,-0.031137991343216813,0.2648132440401625,0.3095717958036068,0.2593235599904174,0.2134285310381228,0.17860249339815318
0.618,0.1465694401465917,0.11098479903593515,-0.03559541651997461,-0.12612605902011176,0.09114767190224066,0.03461798560371054,-0.038814092587247065,0.26720363787658985,0.3139576172277783,0.26585901399613543,0.22247163618247215,0.18732108068112205
0.62,0.12727944288129842,0.11962463999884701,-0.007679644128921187,-0.12110154999570778,0.06740312934414346,0.05355720583420018,-0.03102495687618523,0.2900976823063131,0.33857891005806257,0.29256371398507564,0.24912648108037794,0.21158263546219414
0.622,0.11732787666434173,0.13182587540209828,0.014470075090298774,-0.12307579248337056,0.050443998193476024,0.07235737093621107,-0.021944005905895275,0.316252511967841,0.3666133878735979,0.319188702899819,0.27402686303187934,0.23250687461908723
0.624,0.1277500509773083,0.13643556148396535,0.008564873785410189,-0.13091674275165952,0.057436059228976204,0.07281946368272947,-0.024078188566109094,0.3287198040978044,0.3809348148008383,0.3307653404284413,0.2838184743002105,0.2379108050822205
0.626,0.1429684701904374,0.1332126161760174,-0.010074913371069668,-0.1367727606255499,0.07412248280927072,0.06191714821732686,-0.03470842588824519,0.32766905491897674,0.38265965794355206,0.3321218602726586,0.2844153539751096,0.23488234142070286
0.628,0.14699068091819695,0.13200929046903373,-0.015405830307533168,-0.1381755900649083,0.07972938934262218,0.058141733731939906,-0.04326865276524776,0.3236152588761776,0.3832730024853848,0.334973473726439,0.28858963857036757,0.2368381354575685
0.63,0.1445594151909487,0.14040794521956854,-0.004412448126803217,-0.14132531723726324,0.0740910639741314,0.06729002305618577,-0.04638824977793707,0.32292113693225416,0.3879632351356081,0.3419837529216878,0.29859246484840607,0.24602781754797942
0.632,0.14899897183093172,0.15426839764665687,0.005315443172622568,-0.15053113138722957,0.07164730946458743,0.07847395110234973,-0.049500551134977776,0.324885163553826,0.39368114107512553,0.3479548640072108,0.30630709556414687,0.2541440032607185
0.634,0.15719067998751418,0.16223670638954799,0.005325343918166947,-0.15848839013522348,0.0749229326230752,0.0819667260632898,-0.055079444138056204,0.32936860387165734,0.39833279883550105,0.3507254864445532,0.3075791386173241,0.25785521618003393
0.636,0.15103558072959736,0.1586818713630955,0.008038849480235373,-0.1533129847467673,0.0693601419132229,0.08172687890713957,-0.05769958229813154,0.3392842814347223,0.4046838276108102,0.3544132228564617,0.308763867973774,0.26447616427471116
0.638,0.12410519937914892,0.1497429028887098,0.02601389443766256,-0.13480120139235544,0.04650313204604417,0.08694521871220402,-0.05369415562697916,0.3530477384273314,0.4147101431846135,0.3619765337436796,0.31666343143841935,0.27873664034468826
0.64,0.09422913874940696,0.1464682033394504,0.05243700109660351,-0.11765420586021905,0.019112934936010892,0.0986728994052381,-0.049040491986964495,0.361530450487458,0.4237873103718443,0.3694824974682413,0.32808597672143963,0.2927891741208305
0.642,0.0858043904774722,0.15377085555024347,0.0679601588601926,-0.11699338771033235,0.008223052002919605,0.1093989563144862,-0.05273212539410436,0.35830408638714684,0.4249682207648287,0.3711356239334161,0.33422315333700064,0.296279283652895
0.644,0.10782992971140287,0.1679002221472142,0.06008586811381812,-0.13552695762353859,0.023209356385748968,0.1120767749178992,-0.06581718694625761,0.3482778706113792,0.4187569607608897,0.3672303254453427,0.3318617108180893,0.2901903571470801
0.646,0.15007056727144252,0.18238503111408283,0.03259442528969715,-0.16461602661702654,0.05684363673182143,0.10600210626808797,-0.08081260934615637,0.3408548217349139,0.4126124980745431,0.3628859057368545,0.3256805348987158,0.28383297295037346
0.648,0.1913957572928694,0.19267376063856587,0.001737881671126389,-0.19115177221034946,0.0916532454222583,0.09624912548589826,-0.08954836672034976,0.33931762870475307,0.4112018232420446,0.361310622683934,0.32187341760393007,0.28311640067808
0.65,0.2105314823560529,0.19651896657446774,-0.013713379976785267,-0.20305324990131174,0.10877496474353701,0.09042321376023542,-0.089900523120758,0.34062514780610503,0.41292804340402106,0.3616133179838487,0.3227854680401059,0.286896873331113
0.652,0.19782850611625458,0.1933867299122051,-0.004488519886605866,-0.19490612016454134,0.09873993691756855,0.0934120477691653,-0.08686672218814524,0.34054570121037614,0.4138937392850169,0.3612326296614013,0.3261030750405679,0.2908960413897742
0.654,0.16415398434365036,0.18502105444847483,0.02056673192193434,-0.17319132253343253,0.0704290001072346,0.10219302288573957,-0.08780340472378596,0.3363505846847863,0.41073112669262435,0.35844045605463865,0.3275637195216954,0.29184528230388246
0.656,0.1347721418667141,0.17592364176306577,0.04077123841076353,-0.15334630939160238,0.04577705046043271,0.10832287471147371,-0.09595108005528453,0.32792848448680223,0.40247067240065154,0.3528805385715507,0.32516167148845065,0.28925768601249624
0.658,0.12697771696450003,0.17226854084720963,0.04505279571072403,-0.14734505213014315,0.03895209429164726,0.10882033644339603,-0.10691247618107835,0.31915604575130724,0.39329844094541305,0.3461931590089023,0.32141295493019995,0.28569374713827966
0.66,0.1384152431831976,0.1789861209817698,0.040708886030528,-0.15628206917062193,0.046297689538085426,0.10962660587299536,-0.11144686049648861,0.3163490584439972,0.3900301010964691,0.34258125494550556,0.32028622691424036,0.2848861973137833
0.662,0.1584095097959287,0.19301666349221067,0.03508028020246069,-0.173178250777905,0.059812803484573435,0.11300790857555125,-0.10592396704037758,0.32109298302783806,0.3929130594233958,0.3438025432011439,0.32056698938564604,0.2861938715067427
0.664,0.17696158107745505,0.20125231942064553,0.024788843532415044,-0.18682135008000103,0.07576520861179915,0.11134659687922055,-0.09852855949974668,0.32621996258981717,0.39322586424663497,0.34391544398504714,0.31583961204870675,0.2832410437967082
0.666,0.183357235181093,0.19460970103218866,0.011599340792858973,-0.18768443877591617,0.08659922529818391,0.1017617426485111,-0.09847391232663642,0.32381490027899407,0.3842253124889831,0.3359575915834281,0.30406125255754873,0.2729700102335787
0.668,0.17148560836433854,0.18105710688085982,0.009812372923044866,-0.17630555716046367,0.08145991131949167,0.09515777478161215,-0.10280052322734101,0.31479050355824034,0.3698441902246752,0.32255182098452184,0.291985484089435,0.26176060543203594
0.67,0.14678629785217792,0.17523392852451528,0.02859827058244393,-0.16173520215135792,0.058960978246209855,0.10215401709512713,-0.10106324195490127,0.3058231451711247,0.35832303094792106,0.3127253534517083,0.28652761198658155,0.2573605045064362
0.672,0.12115164201815948,0.17893170312901457,0.0577998298463955,-0.15022705606124376,0.03084701320958135,0.11781245224178838,-0.0895142791668924,0.2990865009120523,0.35027813047693424,0.30852730252065136,0.285618837775092,0.2580342203258985
0.674,0.10531415579460243,0.1810109488063027,0.07562968494001926,-0.1419372567606831,0.01359915240566702,0.126458881849422,-0.07527794208087006,0.2896829843081132,0.33782977198210384,0.30124203117975856,0.2802665831635171,0.25407840437728485
0.676,0.10487689434604357,0.17499854573918255,0.0700716075698202,-0.13757199075865562,0.015808373538946457,0.12007488956249698,-0.06752718731249281,0.2733002314421449,0.3161838651764949,0.2834698343576506,0.2648866936684417,0.2398499835173647
0.678,0.11391552843286586,0.16623038517709327,0.05232450561436756,-0.13795028981361745,0.028776517176761593,0.10696378942331541,-0.06777888889514543,0.25247534257587645,0.2909695691592843,0.2591210732985163,0.24334862408011668,0.21999427769657023
0.68,0.11785695048672301,0.15997719753963685,0.04215206099440072,-0.13831448436419422,0.03561092305535417,0.09886934653004932,-0.07046133630681965,0.23307774871241765,0.26993057587088076,0.2365074179404284,0.22270203889800863,0.20146621195864653
0.682,0.11127929725584483,0.15315063856645486,0.04188163974140089,-0.13300041903750268,0.032806490173803354,0.09536451236768523,-0.0709003763142009,0.21749831959376614,0.2522271955104618,0.21746335484043036,0.204285568792205,0.18488131348445966
0.684,0.10256700612278744,0.1419198019526768,0.03934049624327071,-0.12314293459468557,0.030612694525771107,0.08906318924667898,-0.06864158813205168,0.20483444008777335,0.23287779676344417,0.19975832886800976,0.18619087849424754,0.16809707977394148
0.686,0.09629398851926771,0.12919155423011192,0.032886072748032055,-0.11286263303276896,0.031660052761878145,0.08057661818660466,-0.06328945120780115,0.19461724677795952,0.21332877708444486,0.18453653289374453,0.17014128970609754,0.15261635036534654
0.688,0.08672458405301717,0.11909586698279251,0.03237248755418215,-0.10256468155278149,0.027602500283802026,0.07603785107757201,-0.05350795864150749,0.18438235922359514,0.1978353081759684,0.1732590356464839,0.1578029592605574,0.1402728266388947
0.69,0.07175305959642699,0.10990703141131429,0.03818275229421189,-0.09079083076385837,0.016904036183725005,0.07405223526374265,-0.04163094629752205,0.16781420999313287,0.18285204257794782,0.1614615999813987,0.14460290114298352,0.12793721008896375
0.692,0.05548878042233664,0.09739491299505335,0.042040058570391205,-0.0768484535448305,0.005884838204475345,0.06852278628079933,-0.032069470111447604,0.14338350505486852,0.16123059901309986,0.14363841264483396,0.1261832681264495,0.11220235776940161
0.694,0.037123223259542155,0.08185910055533145,0.04506081079769711,-0.059804265358404274,-0.005674861061466396,0.06116516483939789,-0.02420382282314025,0.12000137850196207,0.13482219756304453,0.12180076168652422,0.10684202362363222,0.09617188996763534
0.696,0.014826866155456215,0.06861770479000531,0.05418889282305434,-0.041352276905676305,-0.021303362294945963,0.05907380514557158,-0.014085682370247508,0.1065120527881115,0.11286756102295174,0.10308534603508279,0.09330085416178897,0.08491374541268658
0.698,-0.0038571448602937528,0.061749605106242576,0.06573108393860876,-0.027655441662429007,-0.035601491192580534,0.06234325544321683,-0.0027100736656212737,0.10040255942567777,0.09890120101620178,0.09027082695615762,0.08379106566218752,0.0763576937201619
0.7,-0.010024916280923472,0.05965211179342333,0.06932541271404204,-0.022924310008851628,-0.03998180735711417,0.06412242229879987,0.004572381263417993,0.09278729197652136,0.08718727801251776,0.07907972300442707,0.07106438098483532,0.0636888880489722
0.702,-0.005759697366108108,0.05833072478144381,0.0635226663635783,-0.024586339019242794,-0.03503149221045809,0.0611033647757147,0.006642580211712453,0.0804476213138498,0.07226698594545612,0.06488752250669264,0.05376794164069626,0.04584554924499878
0.704,-0.0010460821516721692,0.05552085043274,0.05624767866673697,-0.026192062761204855,-0.02914691963643395,0.056053585571281137,0.009008079941992844,0.06793316796291926,0.05597916566756379,0.0486152877014418,0.03743006649961851,0.02926187504598084
0.706,-0.0035038451726747384,0.049915809487285676,0.05351280745389084,-0.0223735084310596,-0.02899701414813852,0.05137850072369999,0.01690953592646775,0.05917095459416931,0.04292488238942685,0.03431955758717057,0.025190352190632623,0.019229188023659596
0.708,-0.01387771643874349,0.040434145001908506,0.05464538173772984,-0.012027653888800824,-0.03497427769984842,0.04630352970287775,0.02898200629930376,0.05129720056071011,0.03263820201989691,0.023052568189346423,0.014231885397619283,0.01420747786591958
0.71,-0.027470953724076576,0.02747007932849118,0.05533414608434558,0.001546756574547295,-0.042758483106828976,0.0393460202702058,0.03855562986289783,0.03875984580439653,0.019742597236058756,0.01140603663659143,0.0014089180482833403,0.008781051424479464
0.712,-0.035697980300595636,0.013395749302946803,0.049440756244218925,0.012383521887967841,-0.04470918741483849,0.02924298520984136,0.04001047791476305,0.02053254913544842,0.0003793924531615895,-0.0044897546186257005,-0.013095548266874426,-0.0011271578180388807
0.714,-0.030518483627692817,0.0016216579252379178,0.03232384751220668,0.015041918758311281,-0.03385088942463208,0.015351208791511056,0.03406840750031718,0.000857478865320237,-0.02365715002398415,-0.024372783371829153,-0.027368907827719304,-0.015283283923706509
0.716,-0.013938321787617752,-0.005227655251189536,0.008691520241883256,0.009709642104324663,-0.013281955326684287,0.0006593906311329402,0.02759706942234078,-0.014696419262806005,-0.045589842794992314,-0.04281811101753379,-0.03886042611939794,-0.028693346503109854
0.718,0.0020423334319714186,-0.0064565647425405045,-0.00860253275318313,0.0024452380430483966,0.0039145891595623785,-0.008521556576259673,0.026750903831999864,-0.02337807764966657,-0.05895139256131224,-0.054501622980239514,-0.04626744543636728,-0.03644823974823214
0.72,0.006708129786009709,-0.004544555775732287,-0.011321266320708774,1.680717204082427e-05,0.00767513705396249,-0.009206142958042328,0.03074719686488072,-0.027438186923534322,-0.06437771438931492,-0.06087613720282465,-0.05254258083076357,-0.039934632123317604
0.722,-0.0038073259872318057,-0.005614476741916161,-0.0019074087632229113,0.0069843922234940235,-0.002290399880142182,-0.0054050328486831365,0.03489224834413,-0.031289811442834645,-0.06876560864317877,-0.06800474527645727,-0.06165919925687111,-0.04423186126867019
0.724,-0.02428338460423197,-0.012874346678709226,0.011121799949504567,0.021490175531136385,-0.018729654799885687,-0.0027343152529682355,0.037384779331579875,-0.03615901959510845,-0.07606513659637824,-0.07787091707059587,-0.07252886632316549,-0.0509261637819284
0.726,-0.04047773961193958,-0.019833029315893366,0.020224735593568743,0.03273414269224564,-0.03137347682969112,-0.0014587152477848573,0.04030915362522834,-0.039059667615206,-0.08212433138551017,-0.08540062702559482,-0.08004042444813855,-0.05726428962957051
0.728,-0.04344023117003877,-0.018701621474251487,0.02444060788050293,0.03278615932981808,-0.03575836362683078,0.0018198094453316085,0.04599172698386821,-0.03721344220140031,-0.08124126452127638,-0.08495004944843632,-0.08094919998774022,-0.05997374413308752
0.73,-0.03868209063107323,-0.013342896515630342,0.025200376473186417,0.027216541969162553,-0.03470020527869868,0.005506553808689819,0.05323937985936865,-0.03319075096238019,-0.07609609169696264,-0.0791455764760224,-0.07800571871931188,-0.05938690535223107
0.732,-0.03334292540467093,-0.014151665571522776,0.018884135103426958,0.025168270640045752,-0.029068776187957616,0.0022360383291920916,0.05750133425972446,-0.03406118274499631,-0.07609814079783918,-0.0784124559745769,-0.07832059301000122,-0.0606436048049589
0.734,-0.0290876222009163,-0.02353587000465326,0.004873845239379275,0.028056076332144533,-0.019276050860716317,-0.009564949862723972,0.05706766394855093,-0.04290154499836038,-0.08434678716233532,-0.08803739191222594,-0.08464622154306968,-0.06675431437665788
0.736,-0.029315730755510302,-0.034516440731920735,-0.005923906378956798,0.03325663648554942,-0.012953205739869578,-0.020772893477591838,0.05644644612602392,-0.053287653110607895,-0.09295459292597806,-0.09985707135900286,-0.09062541226725902,-0.07217002341803402
0.738,-0.03562851623543721,-0.040032408216280145,-0.0047164584555945055,0.03813940748993406,-0.016028173760013333,-0.02336460452469703,0.0593775386009358,-0.05677182758499197,-0.095150684386791,-0.10323293601763946,-0.09035501707787007,-0.07057892202580869
0.74,-0.039425403136074,-0.038688186136217745,0.0007506081432224604,0.03861815537260899,-0.020949143870771937,-0.020583810210522496,0.06261805268607717,-0.05380262236554642,-0.09438618075114244,-0.09933193911862874,-0.08797986734144513,-0.0654031978347043
0.742,-0.03199111462388218,-0.034103328802995284,-0.002331233440958865,0.032818729687407004,-0.01655892242297824,-0.02045940812776474,0.06182548907691121,-0.0512916317494787,-0.09609694997347708,-0.09669823574450295,-0.09025581410004267,-0.06426746172950354
0.744,-0.019823686425207775,-0.03147221741943261,-0.012364174001986418,0.026443310630095862,-0.005689169364773398,-0.024359308726845077,0.05917316126492025,-0.051671101052185975,-0.09840193364086061,-0.09797900201620485,-0.09562734373235744,-0.06794035685191807
0.746,-0.017180774067569664,-0.03387160531275943,-0.017480000797421912,0.02726514218656095,-0.0012032799674487693,-0.027854772964387514,0.05947937730760497,-0.051866147061289544,-0.09755529538134701,-0.10005648490923352,-0.09909004753881136,-0.07252711875616709
0.748,-0.025286893085443095,-0.03998070976812612,-0.014995743355349225,0.03423870476842188,-0.0062571128644773955,-0.029414810423840167,0.06271792455853742,-0.05119765759845769,-0.09588331130448048,-0.10303084614422355,-0.1016801920590533,-0.07742779108196773
0.75,-0.03256457035659806,-0.0452257687940103,-0.012464097304025179,0.03937407055154674,-0.011927283644949766,-0.030814268146865668,0.06567594166481855,-0.05260619852588339,-0.09796802187089056,-0.1097501224955646,-0.10706560899048538,-0.08410345182294336
0.752,-0.03524835156894598,-0.046599655570754774,-0.011090878325301073,0.040688054951333034,-0.014870446317583216,-0.03079968778117325,0.06770578573235801,-0.056602595175928215,-0.10349969284953936,-0.11860244710682663,-0.11368748622029176,-0.09087970982250501
0.754,-0.04155345937706296,-0.04611609464255356,-0.004534962966378685,0.044339515035844636,-0.021378627750619706,-0.02671869967133819,0.06965797018521692,-0.060231272687750456,-0.10880744792245475,-0.12454416317688619,-0.11737712850053614,-0.09478399480318991
0.756,-0.05405402386360832,-0.04806746676757863,0.005861033762739201,0.05290007208744658,-0.03220778487928066,-0.021692363939540882,0.06995224112318107,-0.06163250083703964,-0.11191378907581738,-0.12615091436687847,-0.1182605461533897,-0.0959828695725701
0.758,-0.06458699602797212,-0.053132371799516784,0.011379300164396262,0.060887865882822884,-0.03973650921168958,-0.02136025155691724,0.06773597558988047,-0.06031081630918143,-0.11171415182176683,-0.12575144653979628,-0.1186456810435051,-0.09595131286113606
0.76,-0.06852172481990859,-0.056600321063505335,0.011953387376155717,0.06336782013807961,-0.041887622891501726,-0.023512928428130995,0.06758273898899055,-0.05422959162498979,-0.10578305336593419,-0.12364457901084051,-0.11702810400111716,-0.09349879451142155
0.762,-0.07079781062502642,-0.05424066814798363,0.016613371420007805,0.062155470260943015,-0.045127272395113445,-0.020366269944084792,0.0738975283045674,-0.042336025921613035,-0.09422395364490017,-0.11773940785191066,-0.11100611632663923,-0.08694027401311674
0.764,-0.0760183820183325,-0.04972438264725783,0.026303419337953663,0.06258631768099068,-0.05206161633509107,-0.012592022921064799,0.08192494278026952,-0.029244011621157754,-0.08353079875684348,-0.10942841411271771,-0.10410717534307427,-0.07914485647274228
0.766,-0.08053288207010263,-0.051311038094928346,0.029173744126949838,0.06663982388425466,-0.055657962659680725,-0.011221596171503999,0.08170336021253155,-0.022777996955873313,-0.08177571103826684,-0.10481255581262812,-0.10306464967076652,-0.07648151816735378
0.768,-0.07631111401842822,-0.05969637870755442,0.016465790169878713,0.06949433656873662,-0.04784155952638801,-0.022258184168756075,0.07125071262345216,-0.02697765690854725,-0.0905124148733429,-0.10806146595157098,-0.10937786370117844,-0.08203932507677833
0.77,-0.05966839003811468,-0.06529907026220663,-0.005952244743978444,0.0638399626734292,-0.02886662211204949,-0.03765181155374079,0.05963779308549564,-0.039092969990733605,-0.10384057665172254,-0.11647049657290562,-0.11819755013053793,-0.09174803011475083
0.772,-0.03705246384354813,-0.060736241671677516,-0.024115906683293355,0.049533777792775575,-0.008257265851190583,-0.0450913796255262,0.055712583185256744,-0.05168756339025647,-0.11411083306862922,-0.12351833028960477,-0.12421723291789871,-0.09840794662340381
0.774,-0.023833719234518182,-0.051931809704376115,-0.028482211617850736,0.03817856939988692,0.0009932895791207067,-0.04186923290639053,0.058660378496789935,-0.057783678822538286,-0.11733365160592323,-0.12559382472790034,-0.12568234061286418,-0.09918725006132426
0.776,-0.031245697943383662,-0.05116635120775064,-0.020227867977747425,0.04221747338310745,-0.0069851503138111445,-0.035715683183893086,0.06208215130048369,-0.05577594725927945,-0.11422715000229132,-0.12415955616947287,-0.1234091937037195,-0.09712104884491626
0.778,-0.05065171242003035,-0.05924006474553768,-0.008869265935846976,0.05723745109480208,-0.022959995296412454,-0.033529252167339374,0.06331471594706273,-0.048685050103299064,-0.10743122813438395,-0.12156262413712589,-0.11852627872369118,-0.09544389800233512
0.78,-0.05898444042805029,-0.06324454945639679,-0.004429470505722289,0.06392683614796736,-0.029543590984187303,-0.034372033590874464,0.06433069183269552,-0.04002809154628852,-0.09940657680863793,-0.11831973271553343,-0.11285339861219691,-0.09448634590763702
0.782,-0.04515659644688726,-0.055549426104102385,-0.010279241107060709,0.05240937475218185,-0.01919638711483746,-0.03495742694708582,0.0655203431377984,-0.03314299701633183,-0.0930550528836208,-0.11541220139151859,-0.10994869967193678,-0.0944539896689704
0.784,-0.022986798862353795,-0.04475935846509222,-0.021333077749905772,0.034814309196457935,-0.0017151387805392736,-0.03561348627145318,0.06394535633599385,-0.03146416428070252,-0.09116084016638486,-0.11488489947388209,-0.11274897442637176,-0.09648087949490718
0.786,-0.012704609031007497,-0.0418457026049443,-0.028527251634002257,0.027811092590648966,0.007844306815719067,-0.03708871321713388,0.058983998467755115,-0.0354717507046663,-0.09312188550376933,-0.11665524310361579,-0.11984358546718815,-0.09964106147476112
0.788,-0.018968799270459965,-0.04409310285961408,-0.024536876330867163,0.03236311395041154,0.00305577278542241,-0.03537849099284464,0.05653831051098308,-0.04050644657711983,-0.09383430759856796,-0.11682658025593542,-0.12489872683216775,-0.099539659510195
0.79,-0.03348544200823256,-0.0401723941153055,-0.006177699062939066,0.03789702122491009,-0.013889098711565089,-0.024117552161669484,0.06439585166657731,-0.039718844124436575,-0.08812242076647052,-0.11052759801053258,-0.12069147102338565,-0.09187260914211964
0.792,-0.048734846694293545,-0.027284450753089592,0.021986549743755635,0.03891479092734409,-0.03667066184398897,-0.004111482353249447,0.08222548184632958,-0.031067936818460696,-0.07699295156647022,-0.09817246270451051,-0.10686773639942872,-0.07880827104390341
0.794,-0.06057194408793435,-0.015744735892407817,0.04537426171930673,0.03895172268830797,-0.055073196745703094,0.012801676275544823,0.09875096001465707,-0.02128142583871682,-0.06822459676124602,-0.08782782753670251,-0.09329648942717818,-0.06963391427157621
0.796,-0.06731501869928459,-0.015456933747848648,0.05212304227657689,0.042490027688325306,-0.061863060941492576,0.01629976954716784,0.10276528775574535,-0.018915283552350674,-0.06848850366172461,-0.08690518405523989,-0.09029180948837649,-0.07053317542734261
0.798,-0.07347171376819073,-0.024438107854507316,0.0488313213701996,0.05050872437005996,-0.06284764358275126,0.01086957212517094,0.09475008563584965,-0.023925600065414332,-0.07549549825112872,-0.09278868389496048,-0.09641144337093199,-0.07637674147435546
0.8,-0.08283621034771554,-0.03324028170056004,0.04920831836315524,0.05975415006070214,-0.06706377777276866,0.007537124620427925,0.08317808810814359,-0.02899656029504961,-0.08113448769456058,-0.09698759508906434,-0.10181080590450162,-0.0783122741580026
0.802,-0.08546640321038354,-0.03570725044257321,0.04959988002346333,0.06210021015412513,-0.06789023396298344,0.006627677479919816,0.07258527607972334,-0.02993605106469651,-0.08158618528483,-0.09681745039628568,-0.10156083963017429,-0.0760778866267594
0.804,-0.06850238152470774,-0.03370586360410707,0.0349156105919923,0.05218965362298786,-0.05181629050768136,-0.0004717906086013734,0.060845813336643906,-0.029547744870198234,-0.07999641198470786,-0.09703577378157226,-0.09919425825347365,-0.07634943042208021
0.806,-0.03959825322735615,-0.03219127693813825,0.007577083881956256,0.036607526662858304,-0.024132121829870287,-0.014246560364004868,0.04695478367042922,-0.03116156961023896,-0.07908563678606097,-0.10001991240488546,-0.09814869494323916,-0.08067839679888669
0.808,-0.02090388935747401,-0.03020071499501412,-0.009156220804091618,0.02628904918596274,-0.006884620584384536,-0.021825047543030718,0.036318670274798896,-0.032875870251544946,-0.07607207153220538,-0.10008744861738657,-0.09594315661436978,-0.08136312126904302
0.81,-0.02152158154403676,-0.02174532140783616,2.7890420096137868e-05,0.022703646882742727,-0.011539178110147418,-0.01230434350331593,0.0354611343676405,-0.03104087691783205,-0.06799162380431795,-0.09145281423898749,-0.08889441154652677,-0.0716152470733923
0.812,-0.030403686240626115,-0.007338746964242488,0.023446034644704503,0.020136897799978168,-0.027159454388100652,0.007834142157601497,0.04309661576738518,-0.027363015657285238,-0.059064706740902244,-0.07863066932608014,-0.07912655313662306,-0.05604979326336237
0.814,-0.03641556274729009,0.001900071191629285,0.03859254013154698,0.018382352804037258,-0.03787045075103783,0.0208558543313029,0.05062264728684612,-0.027979257673105953,-0.05727635301386985,-0.07225941494055448,-0.07299308513992663,-0.04604296961049719
0.816,-0.044346759555927734,-0.004264108825536104,0.04008980838802079,0.025036141761813013,-0.04330785082661984,0.018220916881269776,0.05250368157925208,-0.03435833349466775,-0.06373612194358422,-0.07548764542927366,-0.07287513617861667,-0.046253450508826
0.818,-0.0595954409561999,-0.021509708679650047,0.03796590981783325,0.04095061036094599,-0.05029333550916396,0.007276718241347428,0.05148921013147448,-0.040381772610991795,-0.07167137798512056,-0.08228397998980819,-0.07538774479413196,-0.05213913475315415
0.82,-0.06551836435876875,-0.0330687800990484,0.03250170252997702,0.04982851360982951,-0.05027655207677228,-0.002429179902610947,0.050816763258778146,-0.042156901674845634,-0.07700783614990886,-0.08854273012534189,-0.07880904150485009,-0.05987571381892682
0.822,-0.04296259968159933,-0.028057783582890797,0.01526853069861025,0.03646842908139404,-0.030041154937012295,-0.008729195460023516,0.047388520915337476,-0.044124462819136345,-0.08239777415967571,-0.0952992541588679,-0.08497647684053197,-0.06991576343502261
0.824,-0.007410059557298865,-0.013217621544678903,-0.005324514877144013,0.011469505006714665,-0.0022199757936391695,-0.010918931865640984,0.038554564726246354,-0.04979888953232187,-0.08867874586942225,-0.10068948589358898,-0.09170791600330841,-0.0796775871987427
0.826,0.006310564600935147,-0.002473419789252588,-0.008497054596070643,-0.0005880111639319295,0.005638049552239899,-0.00654243658279117,0.03010114278890629,-0.0547687113539985,-0.09098067815839939,-0.09925487681978909,-0.09249803597882836,-0.08251402509769583
0.828,-0.010111308605927675,-0.0018861570511306204,0.008302473573729435,0.007969518393810996,-0.010911759520896173,0.0019342697906938678,0.029442610789457237,-0.05509935494664817,-0.08695553595530933,-0.09148979147121221,-0.08644829883780722,-0.07732988498474107
0.83,-0.038562442614361675,-0.009686238174665386,0.029039145137264664,0.02687161113780944,-0.03457701536594424,0.007612456055685865,0.035083548488497894,-0.05356619620644504,-0.08142868305961139,-0.08543103657513544,-0.0801357845726981,-0.07143426622593836
0.832,-0.06615746280119525,-0.02163870746509661,0.04486271804744244,0.04678250881568312,-0.05556035533887631,0.009141228112311744,0.040386460507597866,-0.053242489587378185,-0.0797158843724593,-0.0864943388596197,-0.07800780446123327,-0.07090723453906436
0.834,-0.08671246886921187,-0.03133701335684504,0.05555910942216414,0.06124401660727756,-0.07155227034289628,0.010295085136271163,0.042349387020125875,-0.054275190922996534,-0.08232844529593504,-0.09230792134021949,-0.07861213996891755,-0.07446958838188271
0.836,-0.08713009861749572,-0.03322019468077648,0.05361602795842043,0.06157299339783402,-0.07169845505743179,0.009598540364897537,0.04061848510838882,-0.05799670398489787,-0.08754147209690245,-0.09827128515769776,-0.08050975219170932,-0.07835911464267172
0.838,-0.05993789250820248,-0.02704966555050185,0.032316066148088345,0.044681949838552226,-0.04773658349290589,0.0025779449701742625,0.035015077044703205,-0.06476582890143094,-0.09333199931892239,-0.10178611093529952,-0.08379637071470405,-0.0807612045265426
0.84,-0.020687927889517527,-0.016815214042468305,0.0035199971432183005,0.020335424614992065,-0.013067891093435915,-0.007292554173937226,0.028011328355088898,-0.06954550941464749,-0.09663415227215393,-0.10150161171023027,-0.08635359957196405,-0.08037965771806986
0.842,0.0034757880898280565,-0.009650131334166173,-0.013068283650450045,0.0049573963391861394,0.008214995945128924,-0.012930845480992055,0.023458290308572525,-0.06819250099752845,-0.09604087699715769,-0.09865631182765439,-0.08587584418276767,-0.07668097524214601
0.844,0.00017197277962699474,-0.01424140711470803,-0.014199418096516345,0.008760707409937382,0.0076109168540469665,-0.016213061665358682,0.022065163407118938,-0.06496637946565371,-0.0948271675984948,-0.0977898967941567,-0.0841998080325184,-0.07251787692708414
0.846,-0.021718266105433925,-0.03250048855226593,-0.010703509941342872,0.028515479437822053,-0.005065750343994684,-0.023381636785798847,0.023023909453110208,-0.06623782862112548,-0.09632593336821962,-0.10061193519418182,-0.08367959148131678,-0.07123034882712503
0.848,-0.04968794199525709,-0.05408346510046655,-0.004449359857910637,0.05280839492891396,-0.02231186303997382,-0.030383421401957746,0.02855986130189048,-0.06932545435675586,-0.09669843141821022,-0.10101427152803454,-0.0811861342283715,-0.07046244328258919
0.85,-0.07704544058330969,-0.06517902498629637,0.011918698569298895,0.07129338548979582,-0.04446043102979532,-0.027082781192184536,0.04020997768236744,-0.06633570326541663,-0.08942611163512322,-0.09260741264412421,-0.07261491003859008,-0.06545792114665384
0.852,-0.09239173346301298,-0.06241226612311511,0.030310083623420383,0.07703244648702144,-0.061977963904863695,-0.01638667652218467,0.051401208307816075,-0.05902360288020554,-0.07863397930269429,-0.08056712456762456,-0.06251883270041435,-0.05933347663392931
0.854,-0.0808998836056268,-0.05392501678021206,0.027441971657804893,0.06731092162797794,-0.05555811627940076,-0.013859279930994894,0.052419205917693446,-0.05859777143300245,-0.0774812984626698,-0.07762204097086352,-0.06065177010461337,-0.06082425822188031
0.856,-0.04781476132672774,-0.048156017152783746,-4.4267219255893296e-05,0.04899638381319919,-0.025528877018650826,-0.02490253273943211,0.04345834344814413,-0.06800551929184634,-0.08906732116582405,-0.08713374973869806,-0.06825863261649781,-0.07003675746823436
0.858,-0.023685801106127294,-0.0468128301996206,-0.023036333325620748,0.03756304971290786,-0.00153660875918265,-0.03598437362077672,0.03453472906420885,-0.07621924108655403,-0.10088161723159082,-0.09884241532372687,-0.0762416148705771,-0.07628251453459055
0.86,-0.030615194211450623,-0.04705424555792713,-0.016275207137060817,0.04183415981812982,-0.007832775882034411,-0.03334070537932566,0.0322132941736951,-0.07409793163089975,-0.10246042858967316,-0.1027579628040641,-0.07785958076448002,-0.07255924830882016
0.862,-0.05423780922539759,-0.04508963881872553,0.009507224665048311,0.052343300434489586,-0.03263407058662383,-0.01998297741613796,0.03363120829718368,-0.06587531658057695,-0.09699364191127617,-0.09962874685768455,-0.07580935627435091,-0.06426793176114153
0.864,-0.06365331493867882,-0.03866729282103823,0.025297233621984383,0.05286663143361939,-0.04603316044783341,-0.008801232200276668,0.033971351031364276,-0.060843109124820126,-0.0925652686641481,-0.09616548778798452,-0.07541848608136738,-0.06038402536841699
0.866,-0.049954257909454014,-0.02960331465116735,0.020386428009241807,0.04070701095260242,-0.03743094275466581,-0.006381357578651262,0.03379740322337287,-0.06149776316192489,-0.0917242494400035,-0.09598715081630839,-0.0770727305304557,-0.06170303743572573
0.868,-0.03034745162738287,-0.023163892397609298,0.007036981103904442,0.02761405752040301,-0.020898227967047118,-0.009924787898947315,0.036413487356682914,-0.06463368159986378,-0.09285611856223659,-0.09843963045259509,-0.07842068366014185,-0.06318828534213547
0.87,-0.022255814531610442,-0.022617826402352822,-0.000458825581908891,0.023662376099453413,-0.012602036489555856,-0.014004772295320303,0.04215783539943827,-0.0679187918857772,-0.0949116438393145,-0.10186080877806117,-0.07965906593822929,-0.06373368632882716
0.872,-0.029080794058921618,-0.025650375818169733,0.0034609287698910804,0.028868776769465376,-0.017859162822720803,-0.013854148195650017,0.04937163551964926,-0.06991847678445048,-0.0965986898716543,-0.10367276854994623,-0.08209092585178168,-0.06575690953766439
0.874,-0.04519879831433576,-0.028824223867987317,0.01644184850187893,0.038534097431808405,-0.03274901671023985,-0.008172981868397025,0.05696546727548082,-0.06867476176185643,-0.09564314290369672,-0.10140930222120673,-0.08449118167136223,-0.06850229088643595
0.876,-0.06142850432172112,-0.032801653940532985,0.028642713805709312,0.04857113679073956,-0.046979471276333125,-0.0026703624581203922,0.06253054525873869,-0.06434563906320868,-0.09237924276858295,-0.09668452555864802,-0.0848351952305843,-0.06938529842916283
0.878,-0.07085306663700432,-0.03873881573644006,0.032085265881546164,0.05631001169054441,-0.05288780578713222,-0.0030771495547250506,0.06312580487842355,-0.05910120912154292,-0.09011299560725973,-0.09337405465192938,-0.08277617250351164,-0.0684292441550927
0.88,-0.07442852131728944,-0.042278538275653206,0.03212748442800833,0.060014195688049506,-0.05420429036316541,-0.004949262766162751,0.0601165226916494,-0.05388574716027198,-0.09063468223017658,-0.09183306158780002,-0.07899905232688736,-0.06661358819504397
0.882,-0.07392136044799075,-0.037121691952164304,0.036782781616132985,0.057124739942151795,-0.05597525783873143,-0.0006233984002739115,0.05844157707620504,-0.049446270185455096,-0.09274644251792208,-0.09020804902282169,-0.07498205784724189,-0.0641469754161419
0.884,-0.06351156427999709,-0.025105621290326452,0.038289311828070244,0.0455450067445069,-0.05116360923376815,0.00565679830750424,0.05952837667222999,-0.049601251572374376,-0.09566052222292033,-0.08998647440639458,-0.0735665399582055,-0.06293842311775744
0.886,-0.03910468307681442,-0.016846310012542907,0.02191327116297073,0.028944913159735724,-0.030646742263600698,0.0015091453366309223,0.05854117110355857,-0.05862993793088108,-0.10127994510464568,-0.09501921477116172,-0.07781903916057087,-0.06652629787769651
0.888,-0.011959367910806542,-0.018749235902249306,-0.007371708154686082,0.01672007145074734,-0.0030839826865455425,-0.013729732191245632,0.05223310399084885,-0.0733110577149466,-0.10997691253754352,-0.10465841635771139,-0.0869493487468963,-0.07453537384536273
0.89,-0.003410314254507151,-0.025537722869503593,-0.022846862988078198,0.016839333770270214,0.007758546031718888,-0.02442683639456451,0.046980756051002104,-0.0818043981596668,-0.11541879624738895,-0.11130727882471578,-0.0934166556464198,-0.07986054475697757
0.892,-0.023477446176084573,-0.030610139414640095,-0.007856254591805015,0.030153395519989842,-0.010374292711363914,-0.01950438143138906,0.051969001551773475,-0.07596213958886075,-0.1102989192632514,-0.10818435947519854,-0.0896907515767109,-0.0759046703854276
0.894,-0.05697913929790425,-0.03646079466873315,0.019989198628876922,0.049515905018125334,-0.04038197749434074,-0.009022198569925907,0.06481773215815066,-0.0622386254311632,-0.09811555664117431,-0.09927143586681024,-0.07946928579594034,-0.06632159293682682
0.896,-0.07559082878146933,-0.04706350558511413,0.028361770915172176,0.06287984264606049,-0.05255799386223384,-0.010404973446040067,0.07250956041769514,-0.05407285904790069,-0.09152809760744528,-0.09607183041958396,-0.0745579110043674,-0.06182937950250263
0.898,-0.06682736647638067,-0.056659565706273646,0.01029191786007301,0.06216258389379923,-0.03851593270288047,-0.023751291375751812,0.06790964317787992,-0.055785142003678935,-0.0965012511287858,-0.1027457093380847,-0.07904323363679776,-0.06624120111190462
0.9,-0.04616452969125609,-0.05723330062254642,-0.010917361003574912,0.052030164348021414,-0.018109626969163194,-0.03392813641697963,0.05694612263448497,-0.061108802624391514,-0.10595583693857355,-0.11171972324068286,-0.08577085727743304,-0.07298888359746503
0.902,-0.03550874843955073,-0.051715342372369494,-0.016191567405026554,0.0446771159659296,-0.010946724344303448,-0.03378711512543251,0.04851497878651498,-0.06439582670024782,-0.1113521727577002,-0.11562505247731766,-0.08898364462025973,-0.07635946449530545
0.904,-0.03832117670777352,-0.0487751211360967,-0.010526192031594033,0.045118558425760985,-0.015455951810134684,-0.03037727590190186,0.045413049171242274,-0.06564199515165929,-0.1121724089044243,-0.11565178495988404,-0.09072321357714315,-0.07761868392092348
0.906,-0.043156215499501535,-0.04964847718725057,-0.0065571860834339885,0.04760374010127753,-0.019920712755138268,-0.029969680446058845,0.0458544154223947,-0.06708879376679369,-0.11239667026658684,-0.1168678193749795,-0.09429372963741597,-0.0792884364470976
0.908,-0.040937142024382873,-0.04854230425330592,-0.0077181014150179755,0.04504778454599523,-0.018635243225450186,-0.030514963881109743,0.04787781353547495,-0.06995085795595997,-0.11433484641156692,-0.12103976867322197,-0.09885566669828345,-0.08074802851587388
0.91,-0.0316047525602987,-0.043343280292658236,-0.012033857524752873,0.03736292775307269,-0.012367363089984327,-0.029603883095219077,0.05004427719667769,-0.0739513467008167,-0.11802172400110691,-0.126056895377552,-0.10212910627167227,-0.08160358281720383
0.912,-0.021486182133764326,-0.04031677086200033,-0.01924787847611419,0.03146276110133506,-0.0038693449781124697,-0.030589095612947186,0.04997065786230669,-0.07885432773511032,-0.12401371949552994,-0.13041023461527054,-0.1047669264283005,-0.08485920715846906
0.914,-0.018583094678624103,-0.04644748108852667,-0.028156814845600488,0.03415599084873598,0.0025672999285324817,-0.037162304969601566,0.046072701950714695,-0.0845879008392202,-0.13287445614631163,-0.13502048168914366,-0.10918345335966557,-0.09269441748464859
0.916,-0.0276472898273047,-0.0595053524855237,-0.0319517996632008,0.04538350350407609,0.0010850400541525447,-0.045443641705074575,0.04149463647784068,-0.08879058734245014,-0.14060142041622292,-0.1394446591849283,-0.1142871947537082,-0.10094160212873
0.918,-0.04624988508961583,-0.06950518289256802,-0.02330224083546229,0.058841564285960185,-0.011392580976534986,-0.04670291769841113,0.04206906306469158,-0.08795220534495335,-0.1401966235833411,-0.13993694528115241,-0.11482211815271715,-0.1026166122188215
0.92,-0.0656548751486007,-0.07082416154006463,-0.005194175390389046,0.06870179681609906,-0.029955170917821253,-0.039007817337314246,0.048472141736810574,-0.08288370412707148,-0.13132003059726893,-0.1345054518596744,-0.10834051119734517,-0.09724302924832408
0.922,-0.0789042480544308,-0.06877717251114007,0.010227617121138117,0.07487778935734958,-0.04540418150393645,-0.030616913821895124,0.05420194597093483,-0.07887004914825332,-0.12242495647614672,-0.12695825413779607,-0.09954306125742672,-0.09190123971233037
0.924,-0.08526391327122643,-0.06984353372091896,0.015510733864499126,0.07940145150164815,-0.052815215294238854,-0.028473772369202194,0.05353109023301924,-0.07879563482623342,-0.11985355422170768,-0.12247731898609701,-0.09455028587507716,-0.09127266145612865
0.926,-0.08262298944358984,-0.0701510386767323,0.01226015675038974,0.07844129265205753,-0.050676442260775834,-0.029978021828065242,0.04745460192624176,-0.08092299192581838,-0.12147817114197805,-0.12221160716839263,-0.09483633437333142,-0.0924792991562604
0.928,-0.0636156756614272,-0.06091183152374664,0.0022288533636331837,0.06411015766282592,-0.03574427141751309,-0.030099972418501087,0.04000898631984403,-0.08417915188224677,-0.12356742448587221,-0.12477485823573617,-0.0987340644481592,-0.09228425892999426
0.93,-0.03032044420748148,-0.04130303493022493,-0.011330601706445832,0.03748485166625078,-0.011283367388628614,-0.02723752208014573,0.03458495701623666,-0.08863798568760803,-0.12525561453580808,-0.12781249572681752,-0.10293940044731759,-0.09131712874752981
0.932,-0.006964592905045966,-0.020425779979455792,-0.0134542009415607,0.015407119458345064,0.0021883498690005733,-0.018375516378754456,0.03516043816653588,-0.09020656825908274,-0.12407421947132218,-0.12600897191518357,-0.10176940096553748,-0.08819981994374033
0.934,-0.01812959813240391,-0.008996616471281865,0.00929788165977997,0.01556342489947778,-0.014911921017650511,-0.0012732232173136367,0.043079154778829926,-0.083932993096453,-0.11690539912343004,-0.11563928265423559,-0.09199344922757412,-0.07903030439804888
0.936,-0.050112372744642114,-0.010643431325497145,0.03943087993363472,0.03281341465602981,-0.046763181375492006,0.013776620378367405,0.050213484273265045,-0.07473452170036979,-0.10868812047222816,-0.10422437042646554,-0.08028519110814566,-0.06731754663626428
0.938,-0.05927058805736966,-0.020060715751761382,0.038828420714150436,0.04247850774069711,-0.0515560836879944,0.009306693192315361,0.04454667436935552,-0.07502108604064524,-0.11068194175186777,-0.1056899141832417,-0.07919248569687524,-0.06503339308993003
0.94,-0.03321778387040588,-0.029259687492598448,0.003458926207123381,0.03419249332726229,-0.02043001549505441,-0.013533266120883803,0.027819266592590666,-0.08664980055263874,-0.12406291379771027,-0.12029265920857495,-0.09030624437961114,-0.07569917498397112
