time,I,II,III,aVR,aVL,aVF,V1,V2,V3,V4,V5,V6
0.0,-0.0037516751377273737,0.010596836792528194,0.014348511930255568,-0.0034225808274004105,-0.00910494258571263,0.01241782530967072,0.0034225808274004105,0.010706534895970515,0.031044563274176804,-0.005792059861754541,-0.000636248999965461,-0.025471899619306904
0.002,-0.026842920029108895,0.07487799671022015,0.10172091673932905,-0.02401753834055563,-0.06467602665990155,0.08792728806978047,0.02476348544396341,0.07628052264086232,0.21578132996777377,-0.044627949870538405,-0.00734043612880218,-0.17900454471686647
0.004,-0.0873856835813293,0.23932745703398964,0.326713140615319,-0.07597088672633018,-0.20826190704453104,0.28193911964389423,0.08140096606181645,0.24681148446228932,0.6718988801817803,-0.15943915795872413,-0.03651680931990446,-0.5665378891319538
0.006,-0.17404985675941204,0.4635255674235863,0.63755348456231,-0.14473785533208716,-0.4078514106919902,0.5488172050217653,0.1639955364635968,0.48962911549070093,1.2498157838081188,-0.35615905339922455,-0.10852164054842367,-1.0802984105846958
0.008,-0.2443976751855746,0.6220980077148489,0.8663643671349768,-0.1888062870232603,-0.5574081954222775,0.7426704976206661,0.2359103159548317,0.6921352949418581,1.5797350079464667,-0.5721587583513288,-0.2247919141103375,-1.4213347486525427
0.01,-0.2723627049323698,0.6424067523505617,0.9144200986022966,-0.18474842236785802,-0.5945968088850309,0.7777371603713384,0.27857360635666134,0.792616268761155,1.5030924981013771,-0.7333884894616352,-0.36217369410304806,-1.452273376541044
0.012,-0.2744163561864574,0.5740058071575777,0.8478682423622099,-0.14900841062087827,-0.5618511445697236,0.7109668812483594,0.31105267233225287,0.8342473112346711,1.2257858686569745,-0.8279409760852027,-0.49790461719393936,-1.3498645389704071
0.014,-0.2784691171483343,0.49979546615364495,0.7776816235706636,-0.10919448838151961,-0.5292220424462064,0.6387834465244567,0.353965238688637,0.8765454320326824,0.997784434097391,-0.8956414154844102,-0.6271154136108485,-1.3425349917319462
0.016,-0.2915533166120116,0.44342376896752367,0.7345801538232948,-0.07378178869892739,-0.5150422253901544,0.5886795758281308,0.4036780082031757,0.9313682342172214,0.8639015777993133,-0.964429367706938,-0.7531653774670724,-1.4600247019815904
0.018,-0.30652306459313783,0.3796518414215679,0.6860651619500155,-0.03390960275621444,-0.4986578564928722,0.5321164899990447,0.4517819002604555,0.9915176006827573,0.7466127801893979,-1.0257570335475872,-0.8743698397879753,-1.5869410113265878
0.02,-0.3189594479531994,0.2904962627562209,0.6095445998797749,0.016769178157826733,-0.46631852123133216,0.4486772415345997,0.5038835582921728,1.0562485834152242,0.6012371387863614,-1.0619537162306205,-0.9794282869842266,-1.6425251938338443
0.022,-0.32718652601039117,0.19158876428653251,0.5188968966041302,0.0693238871714495,-0.424736089952559,0.3531415220122998,0.5645332360476106,1.117980349239805,0.4434571721519129,-1.0713723726092417,-1.0496351460548794,-1.6416555102386348
0.024,-0.3286315702278601,0.11712354471659904,0.44589322809760035,0.1060270584093933,-0.3891837294236556,0.2791792636907778,0.6176798987056632,1.1634245470123041,0.3054508545836856,-1.0644068169945102,-1.073303936391975,-1.6315111199360834
0.026,-0.3245637452167432,0.08544573272461374,0.41028860594277783,0.1194364139308609,-0.36981775674171796,0.24641060051799413,0.6387870475067379,1.1859586182662119,0.20180813693743985,-1.0494023473478,-1.0611347669212399,-1.6308332966199872
0.028,-0.32166157110743,0.07596560554392516,0.3980449089709735,0.12339066455497082,-0.36210655494593025,0.2369041045756123,0.6266243205708576,1.1815675211868897,0.12058724225135298,-1.0281268035084394,-1.0373111061295996,-1.6285088437018642
0.03,-0.32213040766103673,0.04670665248885728,0.3692370738395623,0.13924102588438594,-0.3471504427529429,0.20832404701622076,0.6089898051354206,1.153095989642304,0.04698608384064807,-0.9980631579783255,-1.0138629329088353,-1.609223788097617
0.032,-0.31754819045078664,-0.017215834793102548,0.3006548861890675,0.16948443004880437,-0.30972905168722326,0.1410806230916489,0.6084949657198963,1.1191881394917673,-0.009841350832465737,-0.9547782826308697,-0.9837666248187455,-1.570436451202863
0.034,-0.2996376497547643,-0.08658319894941932,0.21333401174084474,0.19504909167120582,-0.25659834019382693,0.06140252716770247,0.6156842588025192,1.0964759297482038,-0.0347908639785404,-0.8965567962929265,-0.939326557681726,-1.5223303875067746
0.036,-0.27190356747521366,-0.12928753711726612,0.1427764062891721,0.20186500622147857,-0.2075119565193313,0.0046760239179657465,0.6066398720007383,1.0808659510402365,-0.037091378603249424,-0.8284171569516974,-0.8855439602589147,-1.4764770254581465
0.038,-0.24395008859934111,-0.147829123835036,0.09598188874474958,0.19681136486217082,-0.17095338314090783,-0.02676631373364799,0.5740614184745971,1.0586625083648014,-0.036200012717962374,-0.7581285827566434,-0.832137558900848,-1.4360309714763762
0.04,-0.21871279692312104,-0.1631839290928123,0.05498321844184568,0.1923485751550359,-0.13879550212643377,-0.05399852310895379,0.528874432272833,1.0229216198500806,-0.03655250425743071,-0.6886776154862112,-0.7813391816822935,-1.3965471534087377
0.042,-0.1914937208197852,-0.17801394205531706,0.01267330137743753,0.18677406308476915,-0.10402331977245105,-0.08300550927974029,0.47913178267569523,0.9705558685579349,-0.03748863417996337,-0.6179593845659324,-0.729228200985795,-1.3537739460332998
0.044,-0.1599415492124527,-0.1718756223693909,-0.012594841797920378,0.16775970461695525,-0.07472092519621226,-0.09353945863212261,0.4201268518800657,0.8921239157286873,-0.04586631267960235,-0.5458512601811092,-0.6751620378500249,-1.3095435988540538
0.046,-0.12936052621904784,-0.13373201986393876,-0.004584304143682853,0.13261255624119914,-0.06305341478449622,-0.07065432130385671,0.3476095614713285,0.7767225166546127,-0.06435264006221368,-0.47752500815370486,-0.6233925042206085,-1.2699484538824508
0.048,-0.10692298444568414,-0.08795023940747851,0.0190224110272219,0.09791216562915522,-0.06424913092150362,-0.03543262116189963,0.27269775105996646,0.6331316763392512,-0.08347545277062668,-0.4175331186949528,-0.5758747218955015,-1.2375237043270109
0.05,-0.0938482404308413,-0.0701497087642303,0.02358547049178805,0.08244014825504024,-0.06041527167419892,-0.023947133294878475,0.2148054645163394,0.4947457625422295,-0.09148831294520168,-0.36552306061503714,-0.5310679351908066,-1.2085825822177478
0.052,-0.08459229572643479,-0.07865611959899975,0.005626918263763166,0.08246098148066074,-0.046349706017613165,-0.0375518794343529,0.18013157080683637,0.3901584382882567,-0.08794775426887795,-0.3217297735499497,-0.4917395533873831,-1.1810345209784134
0.054,-0.0729268016784202,-0.07624390754672458,-0.0034763178601271375,0.0758999691458482,-0.03561269586660877,-0.041477376070418105,0.15541476008773408,0.31629547090582955,-0.08638357461757418,-0.29030207022894283,-0.46634145900245655,-1.1595630781426118
0.056,-0.05780348042493519,-0.046757134600842146,0.011117101191157256,0.053713070598965795,-0.0360200729646846,-0.019556776219296863,0.1261888825914811,0.24708638781807793,-0.09692806742112481,-0.270500111369039,-0.457723290842455,-1.1471629252889697
0.058,-0.043111293885942155,-0.02205937081441894,0.02106063443287705,0.03365462901619062,-0.034752656278300986,-0.002026517088420721,0.09373643442694149,0.16325618000939987,-0.10899179135524825,-0.2502983009544607,-0.45457219804364396,-1.1364353085816137
0.06,-0.03381346906496755,-0.03734989463702893,-0.003690973748208065,0.03631804021160693,-0.01808331430956319,-0.022101411644838743,0.06851699573589651,0.07467068446688291,-0.10599161749826307,-0.2185831281128619,-0.44110189742189987,-1.1179235244552475
0.062,-0.03213757351184014,-0.0808411028652184,-0.04873498255589789,0.05756671477051674,0.006028768874181896,-0.06661207576702619,0.05418234769298476,0.011843766933315535,-0.09248942799063355,-0.18162368715520022,-0.4158853511986972,-1.0943401444979994
0.064,-0.035304603116036185,-0.10720705036204321,-0.07156982906834783,0.07318533373125485,0.016908055612686344,-0.09108143925046472,0.04585753611899073,-0.009876439133201837,-0.0900758338200819,-0.15776064448230903,-0.39452840360183333,-1.0785752237619215
0.066,-0.03781815154389082,-0.0915620588620228,-0.0532040858607182,0.067051209431792,0.006601551897812337,-0.07351436997827816,0.03836999098404884,-0.00703521684158903,-0.10967648426371879,-0.15531494049107594,-0.39069943987726813,-1.0783951790395478
0.068,-0.03644392470653969,-0.05419392206722733,-0.017317495298920883,0.04720975003689913,-0.011607798146042828,-0.03639313817128219,0.028780976585527605,-0.004443307424582823,-0.13907635237493984,-0.16386821181913147,-0.4001026430051724,-1.0874928318435566
0.07,-0.03199459610034256,-0.0301701679553348,0.002096479322414144,0.032201571886832946,-0.019886565189528378,-0.01452599003017683,0.015393170229835709,-0.012985500131032144,-0.158267207202257,-0.1690997011434979,-0.40771613479753194,-1.0933933384717087
0.072,-0.02711374259385229,-0.028897425648803807,-0.0015461856275044814,0.02892024529814485,-0.015230461788485227,-0.015714445658429912,0.0006353310873801304,-0.03154321266123419,-0.16092953990864678,-0.16701886603003796,-0.4053769079033232,-1.0920939037650013
0.074,-0.023778540798541907,-0.03808909268782179,-0.014120940602905517,0.03239772997565642,-0.006153504068757289,-0.026615661602973427,-0.007673868592136628,-0.05091976202083356,-0.15574979514205703,-0.1593421553161203,-0.39585565456406374,-1.0887538117355522
0.076,-0.02293965992203227,-0.05271286001970427,-0.02973260794975407,0.039943134809352486,0.0028672441550502206,-0.041881607400448,-0.0030473176651577617,-0.06073957519150146,-0.15103823740718642,-0.14585213240194977,-0.38533976765617867,-1.0863490582998985
0.078,-0.02461263815294087,-0.07486955390990899,-0.05033518418625027,0.05175949541070146,0.01236306036973888,-0.06361045915740621,0.011337029644144438,-0.0661394370274432,-0.14700262133627603,-0.12887404577516176,-0.379403072909572,-1.0836537874835528
0.08,-0.0275105104331216,-0.0954475841085972,-0.06798186385997775,0.06274944623069453,0.019231423145600394,-0.08320169687846919,0.023233288854293144,-0.08466110597493935,-0.14410747191399412,-0.11690234796437016,-0.3816682597456336,-1.0821506826650331
0.082,-0.030022737177100144,-0.101217464477059,-0.07105566025921833,0.06662477845036684,0.01903880407563928,-0.08795322054478416,0.0229213118911425,-0.11834745879840025,-0.14846795867882953,-0.11596396895565782,-0.38943717284680796,-1.0849159542996032
0.084,-0.03158473899383926,-0.09664350517657597,-0.06469134103037048,0.06581006593595852,0.01503818753095761,-0.08235151804056198,0.014661962771865836,-0.14697931738582773,-0.15986532873892667,-0.12133213504978646,-0.39299600236785803,-1.089828582208139
0.086,-0.03247906183018442,-0.09897110463567312,-0.06605419081932401,0.06809022837422106,0.01539687022088285,-0.08380517129303526,0.010973906908264877,-0.15637971590296987,-0.16614791354355601,-0.12409693415102283,-0.38541711118553157,-1.0925455416515677
0.088,-0.03272582275254567,-0.110320018548837,-0.07735306088416104,0.07364520940210485,0.020692419371466788,-0.09487362110472197,0.014014625587369173,-0.15546745868378212,-0.1616204123896165,-0.12421334179305,-0.37275670653491283,-1.09537331999649
0.09,-0.03168700119047773,-0.11363627752376491,-0.0819901488654938,0.07403851554693912,0.02310484188037878,-0.09857933611993151,0.013082331463643775,-0.1594999844374554,-0.1578012611946771,-0.12960273763475705,-0.36808995917296766,-1.1039983703067588
0.092,-0.028670675755282947,-0.10225641790012742,-0.07375289459731442,0.06632371169709202,0.02044519737197293,-0.08838935662371822,0.0035144886374800146,-0.17317626176673934,-0.1655804135023724,-0.14184245094675657,-0.37521751408069787,-1.1166183255811084
0.094,-0.023520600204194702,-0.0920201197118316,-0.06866354458822263,0.05833584765714327,0.020749165792203695,-0.08078828968394024,-0.005268453253153697,-0.19283903137286684,-0.17881396278041475,-0.1520722208438813,-0.386067278929068,-1.126216441506986
0.096,-0.018222381503923833,-0.09505869741730252,-0.07696057624627195,0.05690213720635102,0.027737863417707575,-0.08708193749263796,-0.004445102160450646,-0.21064243270875588,-0.184692472129584,-0.15452662621277188,-0.39405266575606546,-1.1319172781001168
0.098,-0.01740898461776337,-0.1019577186755508,-0.08445905795401841,0.059889771488739175,0.032104602437023066,-0.09461835604669469,0.0028964897319801314,-0.21627472979627121,-0.18170032258486596,-0.1551507481305135,-0.4010666694204857,-1.1393543321945685
0.1,-0.022843483537028104,-0.09765899709125377,-0.07430035987800862,0.0611061300417294,0.024754142349059375,-0.08711027106600472,0.0075367661702516655,-0.20619863290780133,-0.17933859435670937,-0.16171028061928858,-0.41109539761478014,-1.1519798080616601
0.102,-0.02958808829962513,-0.08129734567149308,-0.05090379953365479,0.057470253145738774,0.010191083176773866,-0.06717581472150719,0.004719953088321764,-0.19113448414025574,-0.185968966680674,-0.17299961526309976,-0.42442087642884824,-1.1679769705118306
0.104,-0.03234277515403026,-0.06751568035815839,-0.03448330269118042,0.05267632098357671,0.0009517768090320814,-0.05258421512134736,-0.001135114648888634,-0.1847892206418584,-0.20114951085550428,-0.18286491365914578,-0.43773672484139414,-1.1830064441172037
0.106,-0.031716187900729186,-0.07318080644815168,-0.041140529882730356,0.05479646250245496,0.004648543592912877,-0.05899832697845406,-0.0010908896544655935,-0.18537839920757185,-0.21538945472321086,-0.18858153623795543,-0.4456723829013815,-1.1927144431854908
0.108,-0.03108881476227863,-0.0989237857941585,-0.06784451122922364,0.06632248188422285,0.017903717377870523,-0.08485670957421478,0.0076088897257520416,-0.179274308978649,-0.2173176944171827,-0.19175684927064257,-0.44540440023527217,-1.1954443256314826
0.11,-0.030579011635844745,-0.12285277034310564,-0.09250383380994437,0.0771641610783472,0.029740571532023665,-0.10883240853694653,0.017663764021613466,-0.16442387332964556,-0.20450588442598544,-0.1959638271692665,-0.4420441727286902,-1.1943644900160166
0.112,-0.02723152852092065,-0.11991701743928694,-0.09306466601427626,0.07354530056011234,0.031225288638157583,-0.10783687895535013,0.019405948020156667,-0.1582543197521264,-0.18818881776100604,-0.20483782613502688,-0.4443501122958474,-1.1952058660481613
0.114,-0.02143578123274312,-0.08969639013560375,-0.0686615048994564,0.05555495633772258,0.02212513782472628,-0.08108018537496656,0.010013664899804823,-0.1757920077158208,-0.18554451212636203,-0.21819503943130572,-0.4540830293377272,-1.20021509488436
0.116,-0.019179841507044194,-0.05880414537176936,-0.03984393367365463,0.03967687818795873,0.009259424299143658,-0.05181297119489226,-0.003284758530005533,-0.2066434589515363,-0.2021625458119619,-0.22997480120202132,-0.46463633201192717,-1.204707404309358
0.118,-0.024012169076308477,-0.05124163849562517,-0.02719843251761059,0.03929753821241056,0.0003541654277813692,-0.041819887599581454,-0.009365115568241688,-0.22365915953427684,-0.22461258761862618,-0.2342031680855565,-0.4704378423944777,-1.2027349084181134
0.12,-0.03074315226934497,-0.06226788704208146,-0.03139559645662405,0.048618523717602675,-0.0017204901845332028,-0.04876323085689927,-0.005983131172733563,-0.21480076727190087,-0.23786728111274658,-0.23263316989865965,-0.4730728170305509,-1.1957231246026105
0.122,-0.03260183350713283,-0.07162474758003518,-0.03897045724111108,0.05388696291377627,0.0006361634108052079,-0.056443532986274116,-0.0019006337215635933,-0.19567251857233148,-0.24294492986156851,-0.23232868235192672,-0.4764413304855678,-1.1898391518206384
0.124,-0.03058896408018026,-0.07512693584954637,-0.04458015528534125,0.05418111892020254,0.005169393126490651,-0.061057564967481014,-0.0033549404218198918,-0.18703863975642213,-0.24881340258308904,-0.2365552840081951,-0.47977641200961846,-1.1865055929540573
0.126,-0.029711111982500114,-0.08374013890827574,-0.05407770700821682,0.05804841145168533,0.011860228722234262,-0.07075901561078876,-0.0074793527165393,-0.19208326228680744,-0.2568733381140408,-0.2430342959780949,-0.4810420029703327,-1.1832209338622097
0.128,-0.029865331116342195,-0.09818508333973387,-0.0683203764340717,0.06544164586051639,0.019576648182577913,-0.08519161106945314,-0.010968671386847534,-0.20056439566614234,-0.26190351871327666,-0.2501017481565767,-0.48448101804004434,-1.180924962197629
0.13,-0.026870207346430662,-0.10674895331816261,-0.07983068896574019,0.0680008325208487,0.02577204275227264,-0.09446015617533392,-0.014439389883930695,-0.2047834693976012,-0.26176241062705996,-0.25824098437237797,-0.4949525368237275,-1.1822675324510763
0.132,-0.02115132338144508,-0.10370306094582904,-0.08238566791147513,0.06352698555170008,0.028224722295497138,-0.09340781742024563,-0.01758017995784417,-0.20556859208703504,-0.2608671063321523,-0.2661031583859427,-0.5062460041685135,-1.1853003711151606
0.134,-0.019554941887916035,-0.09570843924741868,-0.07570287554938541,0.05918800146412589,0.025251127315159227,-0.08602953487538388,-0.018442274871456527,-0.20704612731290134,-0.2648559653354866,-0.27138213936217354,-0.5068658503712782,-1.1853247854455982
0.136,-0.025877440547416062,-0.09334329081811683,-0.06670474779349296,0.06154232567361392,0.01875750378059318,-0.08116813125313094,-0.016135585558584624,-0.2096004011288443,-0.27222875774930805,-0.27454030324479084,-0.49697492068934757,-1.1806311398888691
0.138,-0.03400285297467961,-0.10137381649741485,-0.06654032288906417,0.06914169055785295,0.01592991937292365,-0.08606267451887156,-0.011016053924646491,-0.20806315510758422,-0.27441378138682426,-0.2767859321502498,-0.48841547258089624,-1.1731178744751678
0.14,-0.0351569626137286,-0.11343369441579404,-0.07758256668329525,0.07483201155605593,0.02112163276726933,-0.09781711329222267,-0.006507814222155579,-0.1994362788542762,-0.2685246925295181,-0.2782992077100551,-0.48948379683598514,-1.1664628414124982
0.142,-0.028962426646043978,-0.11675656100042597,-0.08719056850316524,0.07315112878556981,0.02835396200639966,-0.10376007740656432,-0.007723254252333176,-0.19161902959505994,-0.26428360400045203,-0.28115548439740856,-0.4985315114088697,-1.163926449723675
0.144,-0.022946678259859167,-0.11042081871181976,-0.08687525964188907,0.06770128898014094,0.03034921346088267,-0.09994669327331819,-0.012060102283243843,-0.1952959821604035,-0.27097742891431637,-0.2869115768330335,-0.5083521508440924,-1.163552951903514
0.146,-0.02266561357412267,-0.11279980915188903,-0.08957448111883065,0.0697145715618043,0.031446214837052504,-0.10233029174424688,-0.010330952629711114,-0.20813736340873282,-0.28530146028429054,-0.2919273897231964,-0.5124449784139905,-1.1584031537061947
0.148,-0.026255824230815242,-0.13661756374830838,-0.10987704298431675,0.08372945314704365,0.04033849132578992,-0.12429026062879166,-0.002969284421297746,-0.21695192756302062,-0.297817023752894,-0.29373847719199797,-0.5120592647133907,-1.1461058654314735
0.15,-0.028883240368243253,-0.16564057618253505,-0.13632362976007012,0.09890115131737938,0.05345449033647917,-0.1518070576480237,-0.0020924408724134315,-0.2166184484312912,-0.30434661382657857,-0.29837577501277807,-0.51551810985154,-1.1340207443559847
0.152,-0.028685542037039827,-0.17114593653980412,-0.14210726481574826,0.10066703834067718,0.05721194663062807,-0.15730064765680254,-0.013623631589692861,-0.2203977213863159,-0.3094555674059635,-0.31291087005583623,-0.5269140027391229,-1.1313660208703982
0.154,-0.027282624638827094,-0.1472560825074004,-0.11980638534576407,0.08804459767707457,0.0462118633108347,-0.13437361013639612,-0.02885289950614946,-0.24259139686642806,-0.3212123942619026,-0.33466131605733196,-0.5409505317330884,-1.1385304304400587
0.156,-0.02714446759558306,-0.121353165504835,-0.09422410420290173,0.07586655466363403,0.031943942762734476,-0.10905547738290508,-0.03451521528585383,-0.27387817629210054,-0.33944771356533876,-0.3532378386350215,-0.5505056665729355,-1.145911828928249
0.158,-0.02859504132889882,-0.12581170964521451,-0.09719117296215446,0.07906482665147486,0.031324430135433165,-0.1132067914502117,-0.024994173700413826,-0.28927441506984114,-0.35073375014743935,-0.3603952015884327,-0.5533147599471483,-1.1433374923946118
0.16,-0.028922469782737804,-0.16131688012646928,-0.1321047101458599,0.09597484731957441,0.04820655786439295,-0.14872263316773476,-0.007450733614273508,-0.2795819099282694,-0.3435143957410612,-0.3570742654203344,-0.5517405081555264,-1.130703629517385
0.162,-0.026045994690788644,-0.1959679108970399,-0.16946244698145257,0.11075962658639546,0.06867829600365166,-0.18470167109965557,0.0032295331651618514,-0.2609496341113886,-0.32714720056911706,-0.3531590202370689,-0.5508981562681735,-1.1182900861505523
0.164,-0.02193902633964296,-0.20157802178447143,-0.17936718993883036,0.11161404348912997,0.07613290873680749,-0.19198553678100458,-0.0013013748254662523,-0.2545308839431028,-0.3230176195858604,-0.3584169794081358,-0.5552928158408905,-1.1156404445605548
0.166,-0.01999908814183777,-0.1828027915471834,-0.16298411860009918,0.10234320261827631,0.06909483474998467,-0.17380853958762785,-0.014460045191124078,-0.2663155401971779,-0.3369950081548615,-0.37264960676499187,-0.5639306065811527,-1.121923121807868
0.168,-0.020516989377074656,-0.1643815296164433,-0.1445124374966045,0.09437990540308056,0.05960972619761629,-0.15496488242110895,-0.02366966735881397,-0.28654544110330915,-0.3557574399466533,-0.3878397910362971,-0.5712024008567812,-1.1290504419889984
0.17,-0.021126641011212234,-0.1564290327105892,-0.13625637400168855,0.09103827160722458,0.05525771243257869,-0.1465127599398257,-0.025192839297055552,-0.30293088486061887,-0.36843222893206334,-0.3993838651939786,-0.5747789968413488,-1.1323407409381938
0.172,-0.020634352249264576,-0.14974308874698258,-0.1300390602238495,0.0871856483356375,0.052764675615923566,-0.1396962017754926,-0.026024276424984182,-0.31175958126571507,-0.37644186013438,-0.4096994633588735,-0.5789971418215968,-1.1342954442331432
0.174,-0.020495495638782717,-0.14084294209897102,-0.12080362093214217,0.08217204523609015,0.048983747567829215,-0.1307675560317529,-0.0326624468304683,-0.3174075828860995,-0.38367270761757694,-0.4213044464358993,-0.5885897942656328,-1.1382238883861566
0.176,-0.022859080055181755,-0.13866468612402277,-0.11555991934844469,0.0821191080497122,0.046102259744260875,-0.12808834536019287,-0.04304284718246365,-0.32332836621304123,-0.3883793467929364,-0.43295296300984587,-0.6023931771044742,-1.1424082015438228
0.178,-0.02748442630691812,-0.1499049465325511,-0.12177548342298866,0.09035004995723973,0.04734614405033678,-0.13807324893367498,-0.04901460830935078,-0.3247992482594471,-0.3848224801082116,-0.4413775526613105,-0.6142190181040761,-1.141727112058125
0.18,-0.03064758941879219,-0.1706062661683416,-0.13942654418154934,0.10223086199589859,0.05407243198359942,-0.15758457700314363,-0.044536767932917214,-0.3150446408622374,-0.3696534365957546,-0.4436664477895766,-0.6196336586891217,-1.1342598451590473
0.182,-0.028735005821376454,-0.18794046755609858,-0.15893281684732516,0.10915756594606454,0.06350655583149267,-0.17521572025650556,-0.03331279331814551,-0.3002749793752073,-0.3503462705098959,-0.44222882860022744,-0.6215839298959536,-1.1252570505626338
0.184,-0.02318656478748791,-0.19138535683183225,-0.1680122043013368,0.10754199361746293,0.06964291322510704,-0.18038448590225037,-0.02685505979609921,-0.2970601690394262,-0.3449808810996505,-0.44569815477265273,-0.6264212511246345,-1.1217676439342268
0.186,-0.019570726776678413,-0.18462283802688945,-0.1648874231408069,0.10287921369303957,0.06956606966418358,-0.1747932745706465,-0.03221713191259226,-0.3100269265174183,-0.3629351367772875,-0.4590423709811194,-0.6366714145662098,-1.1250147523016165
0.188,-0.0208116173992456,-0.1792589411844499,-0.15839137154203395,0.10174514551707332,0.06631599424361842,-0.1687865365052572,-0.044734975560513486,-0.32701107392321943,-0.3901519001548778,-0.4766536295979792,-0.6513403700842969,-1.131238216864591
0.19,-0.023660141561214376,-0.17898994226402656,-0.15536533650275286,0.1030306135022092,0.06449853858361493,-0.1673630711615391,-0.05471807664468927,-0.339613651156221,-0.4063857117805152,-0.4891190665666572,-0.667836688112062,-1.1365191342791883
0.192,-0.02390817416670698,-0.17937096229640484,-0.1553746963206053,0.10230003265445992,0.06524532910927996,-0.16793564341330847,-0.057440659524379066,-0.35188129872556756,-0.40865495005040076,-0.4932828590169285,-0.681455441798461,-1.1387386465036262
0.194,-0.02250457002693256,-0.18087661058798588,-0.1579161288660766,0.10148728262922338,0.06712155036848069,-0.1706584286875872,-0.054568798532899525,-0.365775446692637,-0.40643670900755047,-0.49354590826655087,-0.6889865033857794,-1.1381160766713934
0.196,-0.023579003119316207,-0.19034742259793389,-0.16598428830337228,0.10703618464674854,0.06978802387762897,-0.18042955761552837,-0.05027527980397755,-0.3747925658340144,-0.40412961509637074,-0.4959181671443986,-0.6929171653771177,-1.137362488107504
0.198,-0.0281233208348691,-0.20504319827842823,-0.1762454724525818,0.11770587424473539,0.07213914724462464,-0.1936412104805605,-0.04936344253899337,-0.377494084562291,-0.3998849490780822,-0.5034669234181026,-0.6985121168040476,-1.1408577647078397
0.2,-0.03185054187756564,-0.20873030100291598,-0.17676904565418142,0.12213614389901474,0.07072525869002473,-0.19557066552180755,-0.05443994281478471,-0.3821247951868403,-0.39658410249069614,-0.5152848335407502,-0.7085799420747944,-1.1516285275382472
0.202,-0.03046484495173848,-0.19562415577700973,-0.1655414838297972,0.1146947274815236,0.06600766398527798,-0.18238025923117213,-0.06207062987367561,-0.3900832838284666,-0.4017606221603217,-0.5264358601322178,-0.7223329889872935,-1.1667580717472341
0.204,-0.026651417993202014,-0.18187480656285285,-0.15552924259115727,0.1051183344575869,0.06282081209945543,-0.16946903717095882,-0.06682249847130207,-0.39030035517494704,-0.41647773552983,-0.5315319979397366,-0.7366650414917313,-1.1788564677403353
0.206,-0.02727465052938638,-0.1806371746628116,-0.15320537529373005,0.10417555992760694,0.06152279592981137,-0.1674438358790229,-0.06869865230965777,-0.38027346141476537,-0.43223866895181573,-0.5305224710765191,-0.7477261447253954,-1.1843931253083264
0.208,-0.03272236535395944,-0.18754338688788508,-0.15445487043178074,0.11044415734474199,0.05995315329544848,-0.17211411580696864,-0.07059690238732422,-0.3758443373277782,-0.4374006422378466,-0.5274250656655294,-0.7531594365111423,-1.1861546084676924
0.21,-0.035306355706275806,-0.1947016758128442,-0.15937171744590145,0.11603247675488217,0.0611418185063256,-0.17891753027631577,-0.07214577531476778,-0.38839448565617585,-0.4265072212806559,-0.5246829140521139,-0.7548248368843521,-1.1882229398938082
0.212,-0.03021248211269709,-0.1948569090183295,-0.165216430142675,0.11429543487147063,0.06574746830433209,-0.18203793023686682,-0.07241304073844457,-0.4092952181498353,-0.40845702696786307,-0.5238373708884584,-0.7587268401740417,-1.1943368480154395
0.214,-0.023133696016752383,-0.18092661245829866,-0.1586977528964172,0.10405371008667494,0.06511956675216153,-0.1712442529569975,-0.07317245421765445,-0.42451066710978136,-0.39817800908209694,-0.5271706551637305,-0.7690014345306392,-1.2069949016723533
0.216,-0.0237131893826344,-0.1611791724248921,-0.13815940425086926,0.0942533700898362,0.054469752995639394,-0.15063955345699334,-0.07450777217241544,-0.4297301885909436,-0.3971835234363633,-0.5330750127162504,-0.7825977651292586,-1.2222964981265454
0.218,-0.03328407822712318,-0.15761334044534472,-0.12448246780075836,0.09696905184233941,0.043584556459069994,-0.1421403618087725,-0.07361032705118814,-0.4303057223507937,-0.3956824152814695,-0.5354801697602061,-0.7933837522601974,-1.2316961977834802
0.22,-0.04330154436820176,-0.1765905688853578,-0.1330943108784454,0.11143365618901388,0.04404693759956673,-0.1563242334334953,-0.07082920827378361,-0.4348395917870678,-0.3908025589233025,-0.531586153092262,-0.800249031231182,-1.2327698599710595
0.222,-0.04642835601827479,-0.1977506872723584,-0.1512647394427052,0.12366479280466304,0.05264589857840536,-0.17623906887490817,-0.07038466088981757,-0.44514298798541324,-0.385312713583879,-0.5252238784388261,-0.8081019873226348,-1.2325384366652445
0.224,-0.044843178169223175,-0.19924416593513378,-0.15474555930805367,0.12365340223345589,0.05555535307988533,-0.178849645376815,-0.07359448392254962,-0.45244856683177026,-0.37397825976527055,-0.521850916661724,-0.8212498391802683,-1.2391520492475134
0.226,-0.044804292758368156,-0.18048452699304407,-0.13621078177189547,0.11427436300534864,0.04574408590290051,-0.16043205108573408,-0.0775248637005551,-0.4503283221757177,-0.35058631545988717,-0.5236761962639798,-0.8379049212435208,-1.254080450066695
0.228,-0.046841082686359885,-0.15527245854197338,-0.10872939484685858,0.10270737345655391,0.030029195763741023,-0.13435558253595437,-0.08158022474253708,-0.44669218737990113,-0.32622979655160894,-0.5285164743769745,-0.8526797739055114,-1.2718996603944592
0.23,-0.046393179793535126,-0.13485177092490924,-0.08839483946396622,0.0923317785888556,0.019534057130277862,-0.11381460872460608,-0.08873294621993058,-0.4527384104413973,-0.3203533948740168,-0.5311097397487309,-0.8627618608286192,-1.285827512860624
0.232,-0.04186107279188404,-0.12335400626288501,-0.08130591968717521,0.08440342142418665,0.018197927800546212,-0.10380194927027908,-0.09790257219858556,-0.4645392138677796,-0.33092599467883,-0.5273050524332774,-0.8690296236341949,-1.2935681860845019
0.234,-0.03739837929951583,-0.11933659420774306,-0.08189801462220749,0.0801098712016918,0.020727892193651502,-0.10157601242803739,-0.10258603115088455,-0.4691918695297702,-0.33288847091119406,-0.5194786799513379,-0.8737799083793499,-1.2989645955712517
0.236,-0.0380021414752329,-0.11724004127835458,-0.07943832681687986,0.07923609061052096,0.01914162239382974,-0.09958857037785743,-0.09950896790430187,-0.4657682540169116,-0.3112946231775874,-0.5147720305354304,-0.8789875405296947,-1.3074423528374095
0.238,-0.0435684175834263,-0.11520436229114561,-0.07203016535044701,0.08095512922263468,0.01253867204158355,-0.09539620855162706,-0.09229601693427765,-0.46390409647868247,-0.2798452205272645,-0.5140778671203023,-0.8834610515592647,-1.3185240548449602
0.24,-0.04932387105600864,-0.11879508641504216,-0.06988840086020012,0.08534796428690496,0.008234157738955684,-0.09618436340444082,-0.08655511253243445,-0.46498990048376815,-0.2615268965365144,-0.5093943842996049,-0.884049580587912,-1.326517540775849
0.242,-0.052227026399940236,-0.12930753607816897,-0.07729715835331367,0.09134358956772799,0.010084364271564178,-0.10493004760125514,-0.0847588762882683,-0.4625042376093905,-0.26230561087571286,-0.49797022393168705,-0.8824637363313786,-1.3298529544949842
0.244,-0.05381947944312019,-0.1377641686147493,-0.0839033990762172,0.09588016725110476,0.01265612576267302,-0.11223354506196716,-0.08434488661118907,-0.4575256602237206,-0.2679150583073864,-0.4892476171235422,-0.8847122451860712,-1.3332524438440616
0.246,-0.05592818643211237,-0.13755883727532198,-0.08149860028862721,0.09721427907202296,0.01110307302976956,-0.11043243023496563,-0.0814929077370038,-0.456528500321715,-0.25997370081477467,-0.4910023041377265,-0.8923416461418701,-1.34015445273587
0.248,-0.056780293727546415,-0.13210231085328858,-0.07529582233708641,0.09573896091502156,0.008648008155695467,-0.10393371241729087,-0.07774221556771012,-0.456988646331837,-0.2349348875604074,-0.49831204521696676,-0.9010565921750006,-1.348974254057396
0.25,-0.05362002888938015,-0.12535713887426664,-0.07191425782241827,0.09115993856199373,0.009468149973302947,-0.09872944561690544,-0.07855419742894619,-0.4506350692936394,-0.21034975646705195,-0.5016528815445437,-0.9078946649878972,-1.3565611632166832
0.252,-0.047823648987667285,-0.11467703557216521,-0.06722885239701464,0.08267861594930946,0.010266267075660383,-0.09163203106411726,-0.08445383710280896,-0.4397446925379642,-0.20608049853091334,-0.49824802153440884,-0.9131034264227983,-1.361723014984595
0.254,-0.04420571223011163,-0.09723599225024153,-0.0534512105122514,0.07188297425942192,0.004570642742515409,-0.07661848850154626,-0.08952416192820789,-0.43745255359702323,-0.2189749759587411,-0.492086253309459,-0.9154371642855103,-1.3656095751686703
0.256,-0.04488400930028963,-0.07627342829627322,-0.031618090195772955,0.06177208609407562,-0.007696605173929259,-0.055164263479674513,-0.09111872491156613,-0.4485480170585003,-0.22846275028903304,-0.48829289383007246,-0.9131945687628765,-1.37038991682937
0.258,-0.04653892470293139,-0.05698897546733237,-0.010412459211151522,0.05284690675868861,-0.019751920581261743,-0.03445190442821517,-0.09387008245740623,-0.4593356782794038,-0.22430034272298602,-0.4888415999253197,-0.9095141368274108,-1.3773921679001802
0.26,-0.04562295300892124,-0.04248501966168552,0.0032747782070455833,0.0445860618370004,-0.025913033558055073,-0.0202349604085223,-0.0996094762906745,-0.45434514069396653,-0.21322092335112458,-0.4895980679571946,-0.9088223481542315,-1.3852349528001895
0.262,-0.04447563211482368,-0.035866834700904994,0.008661240167592111,0.040361804460634365,-0.027193218122925397,-0.014651291591976213,-0.10239696724664167,-0.43675933932802186,-0.20110429558752058,-0.48295670807147967,-0.9094510185546768,-1.3903589737459805
0.264,-0.04794164593904658,-0.03946997181082897,0.008425283577842797,0.04454087468606758,-0.028138348840888283,-0.016988800068490507,-0.09850059906206991,-0.4219567195360322,-0.18425181576687283,-0.4677936461544279,-0.9058680483872527,-1.3908654357106665
0.266,-0.05479604679935591,-0.051473573414690596,0.0032718087106574758,0.05517606820991047,-0.029089105138152865,-0.025597829851431168,-0.09201150654337333,-0.4154614989796629,-0.160267947856591,-0.4529274397803328,-0.8956989277627637,-1.3888993950000192
0.268,-0.05818076816993695,-0.06600195051186777,-0.007820453302900814,0.06452279204107991,-0.025738111589545754,-0.03821210743649973,-0.08749063910467958,-0.4099214687955253,-0.1360802954535786,-0.4459044624190383,-0.8813509278469422,-1.3883139113920153
0.27,-0.05476123312988522,-0.07410220008522234,-0.01931312053337255,0.06580522097764371,-0.01829230336600169,-0.047701826137419225,-0.0852573634444659,-0.4016802598371718,-0.11917000908228284,-0.4436553630249103,-0.8670982392435969,-1.3912089815457636
0.272,-0.048700223208099226,-0.06858737843443653,-0.01987425440586351,0.058491818220737984,-0.014386111266829125,-0.04467781014953614,-0.08609706128256057,-0.3962915181433848,-0.10703723093131352,-0.4389021439154591,-0.855934797741246,-1.3970548065515396
0.274,-0.04554607530227502,-0.05267343362288016,-0.007136373807796025,0.04832236789103177,-0.018833912296607726,-0.029839592689751795,-0.09285682618571667,-0.39597441299000186,-0.09366814250306743,-0.4303506664436529,-0.8481089942526409,-1.403832968704617
0.276,-0.04595262371311656,-0.036992705973115866,0.008948578040324163,0.04105141922339577,-0.027598513699140015,-0.01405300179842979,-0.10344403077451574,-0.39401214426553316,-0.08448819394041039,-0.42212937231368514,-0.8416926376097181,-1.4097099151151753
0.278,-0.04684322389730345,-0.026932297133600444,0.019910430210513162,0.03689092828299948,-0.034452789838771966,-0.004175498285443793,-0.10858252627883656,-0.3846870444472864,-0.09088907759318066,-0.4163250675688939,-0.833760748471142,-1.4139014080686656
0.28,-0.045754178342458755,-0.021470810527183918,0.02428931805900204,0.033589451813327724,-0.03649504801307028,0.00019010652175526098,-0.10152828876183695,-0.3703339638967155,-0.1064291042364791,-0.40933918722449686,-0.8210360670394529,-1.4157138189580722
0.282,-0.04304655631752266,-0.021096586932272194,0.021953082215956696,0.032078546372911035,-0.03347345430850245,-0.0010605651352660068,-0.0872176011495901,-0.35707358087943475,-0.10751829675866428,-0.39674606456309147,-0.802311298056094,-1.414254758212104
0.284,-0.041154112721975326,-0.02703638084068525,0.014115971563005689,0.03464641330350368,-0.027817977384928666,-0.00819916703200425,-0.07758025665587133,-0.3471158661941871,-0.08534829790341308,-0.38061105503388076,-0.7819664213361428,-1.4104271353005569
0.286,-0.04141107291663524,-0.03484949174218853,0.006559041649909186,0.0391791196431513,-0.023997505378039657,-0.016100725298940008,-0.07873367663720493,-0.3369330901396813,-0.06006280586933729,-0.36813863015778997,-0.7674041984448041,-1.4076091898865635
0.288,-0.042153411044251674,-0.03641063546559975,0.005742523223495583,0.04000340411571771,-0.024555083448304805,-0.01711152637062086,-0.0868941173702696,-0.3242104232566541,-0.054999423739716086,-0.36295432527781774,-0.7605309546483325,-1.4089391248858503
0.29,-0.04076610486878474,-0.031057326821700898,0.00971004338536658,0.0357691337760653,-0.026560115250791456,-0.011885430058852432,-0.09390313273338764,-0.31192575202341233,-0.06754911239540551,-0.3603626905895791,-0.7538123830259257,-1.413343050910332
0.292,-0.03676142174133842,-0.029929281918246176,0.006832881931926473,0.03279153074523632,-0.02349127560637016,-0.01239099344125112,-0.0926822462629629,-0.30223597404924407,-0.0747229522737967,-0.3519022376992039,-0.7375854263549219,-1.415400366795729
0.294,-0.03253859277427534,-0.040853311114651354,-0.008315054393788395,0.03656713512194955,-0.014045180560648102,-0.02573267489083589,-0.0824138110733671,-0.2938451414605595,-0.06271539027477332,-0.33511157321796464,-0.7121740420460386,-1.411926196429697
0.296,-0.030674786146103968,-0.052799594317161955,-0.022103434053924315,0.04238814040724843,-0.006640765215061257,-0.03919587666948259,-0.07034049259387042,-0.28632360017999026,-0.039041985859868795,-0.3162585155702168,-0.6885684987526277,-1.4064856245917745
0.298,-0.03057879069695787,-0.04858027648832827,-0.0178702567491111,0.040704872768319085,-0.009028615548730218,-0.0349469992479396,-0.0645648116213907,-0.27714685068075284,-0.0175618293205,-0.30114376084872785,-0.6741665929069771,-1.4039728450210163
0.3,-0.02947377121551186,-0.031019331986440486,-0.0012178745262232437,0.03117043139330436,-0.016513055752067487,-0.017094321317107995,-0.06558443017712894,-0.25906325005711067,-0.00548974948862666,-0.28852589300003467,-0.6639486641618257,-1.4040671940342606
0.302,-0.026098413942101203,-0.021454867898016015,0.005066326209400848,0.02400421020973658,-0.01719395461361251,-0.008572250916361835,-0.06540784709113831,-0.23276361788902128,-0.003930344225191217,-0.2746591849556141,-0.6500192627767553,-1.4029400354538202
0.304,-0.021886983292126072,-0.03090468154698465,-0.008784159447940296,0.026180039878796618,-0.0074983945834004445,-0.020189672550573207,-0.05509628677368796,-0.21299059455496488,-0.0075358236439357195,-0.25831521231830723,-0.6331457564226342,-1.398589917977928
0.306,-0.019051417046001367,-0.046442461520530436,-0.027548158904859253,0.03285903191320616,0.0035757993093144926,-0.037392024650030914,-0.03712246030013087,-0.20872425596472347,-0.002911746736398231,-0.24068003550270653,-0.6188281184652913,-1.39225518149784
0.308,-0.018276902075544773,-0.05029812581391414,-0.03249446524176646,0.03515449771448087,0.0065747841249241875,-0.04178217332293777,-0.02745250869699777,-0.20839193839729075,0.019357662237123256,-0.22456411141114213,-0.6074423747088614,-1.38595799472449
0.31,-0.018813368059156888,-0.041397910670786006,-0.023070307552132352,0.031564240779936414,0.0018243080667307045,-0.03314211280915577,-0.036872582092785065,-0.1974268851936276,0.04754323216085341,-0.21262832755509647,-0.595120514523271,-1.3807479246954777
0.312,-0.020418106160295997,-0.03284079929305603,-0.012610123421527095,0.02826851035052182,-0.004229364362633898,-0.024734730841927472,-0.05505892061842849,-0.17888474360546847,0.05761015157752189,-0.2038621555670714,-0.5804914588859965,-1.3767206280679458
0.314,-0.023112807240351127,-0.034920155895077916,-0.011615891771965708,0.030331898191341664,-0.006628100107312462,-0.025876559566308164,-0.06377148128154661,-0.16568992806115881,0.041723765385489234,-0.19419267252433392,-0.5661937619686207,-1.372647849687522
0.316,-0.025015108390713817,-0.04476938404682227,-0.019432181801083928,0.03565295953925427,-0.004153009128297049,-0.034057861370486206,-0.05961817329381714,-0.16369019154411246,0.015408716687587183,-0.1814295145175068,-0.5564653087274765,-1.3662361271868109
0.318,-0.02367604231695713,-0.052282014996928014,-0.02860849952251158,0.03869633002586884,0.0012581101798160592,-0.04122603654480483,-0.05280171663284149,-0.1693668064361327,3.411993098615957e-05,-0.16646303540086038,-0.5522463027318781,-1.3560357557574512
0.32,-0.020297799676174632,-0.05165934388985408,-0.03193940411829541,0.03732910362451843,0.004771656502103059,-0.042038890037832795,-0.050154505538626555,-0.17508568442832037,0.005459423268146032,-0.15161825950183902,-0.5473835891410577,-1.3432560200993107
0.322,-0.018924125317500984,-0.04202967071635338,-0.02398826850919496,0.0323721900651215,0.0009155775257075654,-0.03351091680295738,-0.05049962872206677,-0.17262818976894537,0.022755550239580723,-0.1403933167973296,-0.5349547742382551,-1.3318799169768702
0.324,-0.020644708032315315,-0.027387686847049307,-0.007457598219503583,0.025916708760554165,-0.008905040665048118,-0.018400794923981927,-0.050466336198031814,-0.15700953963021164,0.034611644835691555,-0.1331960103122154,-0.5162032509715321,-1.3242475867073562
0.326,-0.022104077169353847,-0.0207374033019735,0.0009517955491119817,0.023050080362597324,-0.013713370309038478,-0.011317032992023253,-0.04605589403212456,-0.1337438310763289,0.035152695325844814,-0.12362762124092382,-0.49758290346084255,-1.3159220671895369
0.328,-0.020357852965347145,-0.029813561675182378,-0.009796438287178246,0.026297148147871204,-0.006867355278965335,-0.021781141879540618,-0.03584064156875682,-0.11913328316324145,0.030682207806152956,-0.10703269076920045,-0.4830080624370593,-1.300894715914876
0.33,-0.016810719463427878,-0.04164855782474641,-0.025305052506710803,0.029912889583068675,0.002682770868516908,-0.03577688362229216,-0.026808111748843785,-0.12117111665786648,0.027372524905976095,-0.08868977923153618,-0.4727449466095473,-1.281507442548001
0.332,-0.01502226249690987,-0.04217032364339157,-0.027718427380334965,0.028968134790748275,0.004155566949947192,-0.036885245258084016,-0.027059358343734744,-0.1262877741569845,0.03095151783862934,-0.07552648780053509,-0.464687503693991,-1.266117919628777
0.334,-0.015589755162233775,-0.03938650209799807,-0.024348353693580956,0.027881404390060222,0.0017666853307967334,-0.033264026856101074,-0.032865814203346264,-0.11911156778942251,0.04526195692160666,-0.06645611591666273,-0.4554014770844075,-1.2588347359544074
0.336,-0.01563372291453628,-0.048882613314291924,-0.03373529304371989,0.03281516035684289,0.006667143849167315,-0.04267566870226837,-0.034051690493733154,-0.10427084374847627,0.06168321306101064,-0.057309123252313764,-0.4436673749415974,-1.2566949409322523
0.338,-0.013491678142507436,-0.06825370380736222,-0.055249347373917596,0.041712243679950016,0.01902314887687204,-0.06313213325378013,-0.029125577680667713,-0.09547974966887271,0.06681235023706561,-0.04808196394286898,-0.4316845029911224,-1.2541212325452797
0.34,-0.01160666437127284,-0.07974719514491656,-0.0687407859371055,0.04693568603269912,0.02709188199978643,-0.07495219502364465,-0.025011188109800932,-0.09446348376124741,0.06195547090653743,-0.04073580739951203,-0.4219152184265798,-1.2477402942179354
0.342,-0.013085477095372276,-0.07353702667065458,-0.06116218070467774,0.04499561739968918,0.022639795555976647,-0.06721822871509077,-0.02550418209907439,-0.09227429174310912,0.05775865332437641,-0.035004571812428734,-0.41575945522357405,-1.238284056399405
0.344,-0.015881313598446987,-0.0591996493039933,-0.043903497295700755,0.03955754655480531,0.012491271062601455,-0.051458744160486215,-0.026798456826512294,-0.08570318303309116,0.05656449983824603,-0.028924752793345394,-0.41325493465318947,-1.228089331725862
0.346,-0.014183250428591485,-0.053295222243526785,-0.03931135494108651,0.03596658218381544,0.010930058683209285,-0.04706767070008903,-0.022286751836966205,-0.08144880474679496,0.05727905638090373,-0.021224769981265962,-0.4105215646261331,-1.2175245575104765
0.348,-0.0074726029399630476,-0.06116231816599431,-0.053551572132079145,0.03660387037321433,0.02131658023750742,-0.058646038234295816,-0.010810693934831823,-0.08271457489642062,0.0651868238753025,-0.012133308970844813,-0.40116116707071264,-1.204855165064362
0.35,-0.0027504690521096354,-0.07402522161566097,-0.0710983130764243,0.040438103663375746,0.032368666493516635,-0.07340336047381743,-0.0007853319620149299,-0.08327495856537265,0.0790344185840836,-0.002736176979248923,-0.3840047219363593,-1.1897181850120364
0.352,-0.00423108429891121,-0.08168127563620996,-0.07743085998849994,0.044326493484850446,0.03491291475865978,-0.07981803522531267,-0.0008817188198197717,-0.0793309542662371,0.08349645031280814,0.005276547135204479,-0.3664831352281446,-1.1762978550311696
0.354,-0.007148283571455338,-0.08328242990875406,-0.07621797843849618,0.045885595499796185,0.0332519594087056,-0.08047835953511795,-0.007370640095200895,-0.0751727465094332,0.07010785211448047,0.00992660677373657,-0.3569910541917402,-1.1699214628668093
0.356,-0.0064959223364635475,-0.08395592683858345,-0.0775108659265448,0.04599248607157977,0.03475857573766616,-0.0827574398551181,-0.010583219987417593,-0.07305749882066882,0.051103844215557366,0.01072834982336177,-0.3562526869064929,-1.1696699553136045
0.358,-0.0052402914105183105,-0.08533513403296297,-0.08007390675306184,0.046869411647505056,0.03718349593740732,-0.08543800106428937,-0.010207030758759386,-0.07013804769594673,0.043431064714413485,0.010130701960561003,-0.35870419615979654,-1.1685860930860479
0.36,-0.008290141087547078,-0.08452456337116084,-0.07619681297965003,0.0485008697364571,0.034036546135177065,-0.08249645796526078,-0.011285157074896109,-0.06969533652900188,0.05002790495430321,0.011308521518791644,-0.35981628775974206,-1.1617941491144257
0.362,-0.014262036272545542,-0.07952353353775225,-0.06525494205887732,0.04885901752532555,0.025420524875913668,-0.0734132607770848,-0.012006148571667463,-0.08102714554713517,0.06065356990307583,0.013153563650689964,-0.35997479239037,-1.151242679328234
0.364,-0.01778373983264847,-0.06881867993795161,-0.05105230847278671,0.0452032075506882,0.015809876349006095,-0.06030721080444261,-0.00917492490426735,-0.10278559896418454,0.06262126306615332,0.010375612437702214,-0.36238364186644756,-1.1425001383865987
0.366,-0.0156516183683367,-0.051690515781061756,-0.03605076427555706,0.03586261222308777,0.008413873817336852,-0.04405800523555442,-0.007164939356689866,-0.12097587318092563,0.04807556155021106,0.002093933498244251,-0.3670552706870414,-1.1381885152037803
0.368,-0.008345546154793888,-0.03781747477388423,-0.029468119501766674,0.025249772205559844,0.008411598149123744,-0.0337092721107813,-0.01018037302777142,-0.12679928191640974,0.0212906598163994,-0.003334216800086216,-0.36743478741721874,-1.134403244191936
0.37,0.0013113286154296522,-0.041868441921727895,-0.043171476253017184,0.021599477091676502,0.020763297902901247,-0.04251167921432487,-0.015241550106875177,-0.12415845648889129,0.0005778875602121469,0.001956715575638437,-0.357581027265417,-1.1251316241756932
0.372,0.008918288031831768,-0.05798900779765276,-0.06690541303954335,0.024722831164815814,0.03741226142794973,-0.0627460121805353,-0.019448971913538365,-0.12169711772269681,0.00011779494404851333,0.012986754938540398,-0.34289810557332184,-1.1113003613938792
0.374,0.01065232448598683,-0.06161253638408384,-0.07224654825731588,0.025246279029685684,0.04105323504692581,-0.06810767924461057,-0.02357662621259823,-0.12694581258393867,0.012442547463678382,0.01694600191711282,-0.335618850321383,-1.1009025721853394
0.376,0.007127836334421916,-0.04708887499679414,-0.05408815544954683,0.02030034586548488,0.029474327426027194,-0.052766274408513,-0.02547297984148756,-0.1402917657198385,0.021052338660899707,0.010795003336655206,-0.3376323581865679,-1.0975383025172716
0.378,0.00292689143974719,-0.039588298539266924,-0.042187109835155556,0.01948175192944506,0.021114699464273964,-0.04331966784738019,-0.020579267435717915,-0.15056884523033176,0.021791688561425663,0.005148975432934528,-0.3379854412770394,-1.095495894885815
0.38,0.0013851359759881358,-0.05808395832238564,-0.05904466718205053,0.02990950853499952,0.029465476223333325,-0.060303782298404406,-0.01134297101078056,-0.1487851585809036,0.020141220682749515,0.008242741650610827,-0.3303423656071048,-1.089897376058926
0.382,0.0019398120832607743,-0.0872141239992762,-0.08889788594353355,0.04431303417628428,0.045312447663191306,-0.08893810868512299,-0.007307227067201137,-0.14154248859785842,0.018210384384924127,0.014974706160452484,-0.32169537911179447,-1.0844248018418021
0.384,0.0024469560369161716,-0.09887814996339753,-0.10132959074395188,0.05021309530458239,0.051199993813199146,-0.10059317471561346,-0.013363922368492456,-0.139237784038573,0.014837568919437749,0.0157159269355809,-0.32047102554750884,-1.0849397050165892
0.386,0.002896303155697803,-0.08584767032046631,-0.08875909101857989,0.04389180980011371,0.04372895787584652,-0.08768180106998111,-0.02442733135624256,-0.14299710205707916,0.009502707295964464,0.00868215170617529,-0.32570326071587224,-1.091764487563748
0.388,0.006035697917522686,-0.0624264492469692,-0.06817589853138356,0.03050000446112494,0.03430801753459226,-0.06554788219323489,-0.032813535787699244,-0.15025702677878255,0.0009431606460568281,-0.00039684972424028873,-0.3312093121933324,-1.1011896816244215
0.39,0.012976867236270872,-0.04548532964283404,-0.057861748044125604,0.017762401853807317,0.033456622052200104,-0.05187807896465995,-0.03474239049020215,-0.16134480607584645,-0.00976497554039665,-0.0056623631070356895,-0.3330382433151108,-1.1085236146178779
0.392,0.019734509492549752,-0.044501655162839146,-0.06359665418955872,0.01312344985159367,0.041281974325195744,-0.05455097675447219,-0.030144911210395274,-0.17777473182805978,-0.01643068784646591,-0.004842841541459506,-0.33000271408774484,-1.1082115406097006
0.394,0.0217673619999252,-0.05936274998106878,-0.08075311262117564,0.019514069902509167,0.05177368258283209,-0.07108111842317917,-0.02230457937980575,-0.19847116233151357,-0.0160903409023507,0.0005689509687751553,-0.32314246298376126,-1.0983850076234207
0.396,0.020624278860569934,-0.08022150218305171,-0.10089710432756871,0.03101524531953911,0.06082919040401573,-0.09180379740418661,-0.016778248795501577,-0.21636527113010845,-0.013562426633440969,0.006412260488134565,-0.31609187037789566,-1.0867007051569308
0.398,0.021060302288204186,-0.09390356554475801,-0.11539548009158068,0.03790063537302662,0.06695623918376829,-0.10566755718515905,-0.016984332170455634,-0.22239536680677782,-0.014332465195013246,0.008905930232572057,-0.3122078441588097,-1.085222188029674
0.4,0.02280325879022996,-0.09325833087524367,-0.11659689390053368,0.036523300111686065,0.06723903102480679,-0.10582847869890177,-0.021828009831267307,-0.21852185897506696,-0.02077221236239395,0.0069547864685259924,-0.3129545682609723,-1.0979589973841328
0.402,0.02166158598885511,-0.08130619218298137,-0.10334883249254999,0.031044761170627187,0.059912517982849266,-0.09352890978813268,-0.02826580209027832,-0.21896198739344688,-0.030440208246753843,0.0013072038734933656,-0.3191849650434065,-1.1146663770239127
0.404,0.017380607744379026,-0.06736891606982634,-0.08500182100644152,0.026708387071254867,0.049487013302951396,-0.07769076777893592,-0.034556578982431384,-0.23308785211862498,-0.03413803600999513,-0.006897020056230639,-0.32994571069362555,-1.1181351233185386
0.406,0.014096500287321453,-0.058474940921477356,-0.07282775941759971,0.02460640894740077,0.04267638465360592,-0.06709116713291884,-0.039979628154772004,-0.25516542871109793,-0.02852449093030543,-0.015623931815170505,-0.3407384707169956,-1.1014822886238496
0.408,0.014882350421455056,-0.05799281299389245,-0.07308429669853798,0.02410435924708758,0.04345713833809291,-0.06668943723947779,-0.04312255504078261,-0.27115895210143826,-0.02711537494266617,-0.02080285118417032,-0.34547756294339016,-1.0753096710353158
0.41,0.018861288596519376,-0.0710013183081097,-0.08990214213034928,0.027975443426686543,0.05379172104831842,-0.08140966145943451,-0.0430366117466917,-0.2715285530673019,-0.04228282280297475,-0.018435226001716536,-0.34091592647852276,-1.052990913824926
0.412,0.022088316287358856,-0.09709808291092148,-0.11909696585222632,0.03868815092402039,0.07010614956329439,-0.10907999779508405,-0.04114023204439502,-0.26334775555524353,-0.06600178886534809,-0.009633024431959675,-0.3300012369256857,-1.0372412360055345
0.414,0.022035514955931108,-0.11870919506314874,-0.14065129656379885,0.049435721567876234,0.08102922976324085,-0.13079582896153916,-0.04047646917976724,-0.26846458804481665,-0.08183156547051479,-0.0011857194613530703,-0.32005355881782094,-1.02602144791313
0.416,0.020758401142811928,-0.11581651654492521,-0.1364551852315569,0.04912425854104737,0.07815389900899025,-0.12730455267414703,-0.0429932045372339,-0.2988451394533584,-0.08390383952249734,0.0018884522387208492,-0.3159929411966343,-1.0200370172793658
0.418,0.021483690562863006,-0.09232411280289955,-0.11352480990685387,0.03757811442359423,0.06646777568658037,-0.10397773138990843,-0.04729655563337119,-0.33791003560934,-0.0775092491745609,0.002863856596173868,-0.316048391942858,-1.0212338605744968
0.42,0.02411696340670639,-0.0706556671706102,-0.09436529130388532,0.025648482731984133,0.05764356072531793,-0.0834009289723914,-0.05046530207174887,-0.3582405901867921,-0.07295019870163821,0.008079434648904907,-0.3159499714551083,-1.0435277693017122
0.422,0.025641825434846215,-0.06404274913595259,-0.08939028561559402,0.02131095148388213,0.05608176213799948,-0.07754301184862285,-0.05173789331063993,-0.3518328006434753,-0.07917126600177816,0.01654360580584248,-0.3154324289106516,-1.1305949020853427
0.424,0.02401421101931204,-0.06965647737803018,-0.09357062841510713,0.02434948663610515,0.05798895167020265,-0.08235495194875779,-0.05161040393696805,-0.3341806577391822,-0.09336130770032901,0.021689813192454558,-0.31680517506327677,-1.313051694420719
0.426,0.021277436939847703,-0.08090304170808713,-0.1021315138528015,0.030893142133087796,0.06087003679505807,-0.0921437571634333,-0.04948393607746759,-0.32642147627176354,-0.10190297250559471,0.021775320097182492,-0.319668839654103,-1.5127466495505069
0.428,0.022006234053805498,-0.09018760574723445,-0.1121714303291245,0.035240272377039965,0.06541030585949956,-0.10212972805837651,-0.04614301079386279,-0.337726315718668,-0.09789063899650244,0.020339158760341213,-0.32195252507288996,-1.5671464539392703
0.43,0.027933735454820263,-0.08849842115622902,-0.11655692581836374,0.03199620632909313,0.07008324586524653,-0.10425414988005458,-0.04599555958178449,-0.3592089699760033,-0.08794503970483364,0.019595874905652524,-0.3237558826972321,-1.4183846970062253
0.432,0.03483800464796633,-0.07694129183302452,-0.11200070711690621,0.02319751012482585,0.07178584688280563,-0.09640299866070075,-0.052040496804563935,-0.3749510405232152,-0.07926019704118298,0.02111284121579466,-0.3253537585102289,-1.2023488748144697
0.434,0.03641399565034939,-0.06902851298911447,-0.10557870100084951,0.017927566114951,0.07028033654938187,-0.08832539691552493,-0.05982693583115097,-0.37904832822271206,-0.07234413029144791,0.027432301981456814,-0.3243253547445135,-1.0872907604200055
0.436,0.031666259233785916,-0.07160882366730642,-0.10335349918470409,0.0202988449701239,0.06724338200909616,-0.08763567558310434,-0.06080574146385359,-0.37690492575267964,-0.06783482073645751,0.03646503302911259,-0.31981772471512665,-1.0960485989356021
0.438,0.026373230574073547,-0.07614853018175433,-0.1027791525043808,0.024580153552691317,0.06406369463368401,-0.09012964381271324,-0.05209176298841657,-0.3728689567069376,-0.06859973004919091,0.04183811407773412,-0.31572337632347613,-1.1342185503233435
0.44,0.02590900585343408,-0.07381622172745324,-0.10026098212699198,0.024605020134626527,0.062072925783573304,-0.08903805099314595,-0.04170590838093467,-0.3670835293584192,-0.07346192638114162,0.04222392060907517,-0.3159630120099381,-1.129470128846393
0.442,0.028893856156274326,-0.06544286894881611,-0.09496070195038919,0.020656375294588736,0.06079502034474009,-0.0826980534896381,-0.042062306934736,-0.3650847355269058,-0.07731424293628571,0.04234796230354198,-0.32120993060874414,-1.0918384403459855
0.444,0.03056812469287685,-0.05610273453803459,-0.08711947254612339,0.016119986433122735,0.058175307245948514,-0.0734172789990261,-0.055283018911609874,-0.37646974814680584,-0.07689642512668599,0.04600184984397362,-0.3298808231037498,-1.0648402539248154
0.446,0.029776288310041626,-0.0513736976833622,-0.0813830156587659,0.013915082447272287,0.05546717398208299,-0.06741454837631151,-0.06920792870314177,-0.3978060136597311,-0.07107524210454914,0.053193656202459944,-0.33819964485624626,-1.0634438304312703
0.448,0.028401091937208696,-0.05705377154114956,-0.08567334768828086,0.016786371223687636,0.056928555071030104,-0.07229674912822878,-0.07214711509807242,-0.411406745298854,-0.05893623233610227,0.06016584652143322,-0.34199093683874626,-1.0697324829929091
0.45,0.026832596359736293,-0.07389806134843707,-0.10102645202895678,0.025605142680869317,0.06340423810422496,-0.08872600533903215,-0.06520509572852595,-0.4087827417899101,-0.04210494824856103,0.06222407214498177,-0.34092135211144114,-1.0668191019595576
0.452,0.024303054987857058,-0.09222010582192408,-0.11662709522863442,0.035735485767640844,0.06980814734816701,-0.10586527761683666,-0.057530146153658826,-0.4021891929878427,-0.028052633664225786,0.05915592120334797,-0.33980093372774584,-1.0575803931725125
0.454,0.02137790453213107,-0.09624317144246645,-0.11716989306529893,0.03865176118254834,0.06889272499782405,-0.10777636239885859,-0.05657454279809411,-0.4077311209884047,-0.027339907467190158,0.054111205003304456,-0.34476419877918313,-1.0542315029507738
0.456,0.019597502383870445,-0.0784243750154084,-0.09702022777415224,0.03020342298579088,0.058007924987514246,-0.08815259093548738,-0.06420435636577355,-0.42665179517265445,-0.0414659425064249,0.04849985855008633,-0.3568060337118401,-1.0614013467206698
0.458,0.019983146682843563,-0.04971396528936312,-0.06863272960518209,0.01608128846588366,0.043582641082572045,-0.05952001916492217,-0.07621859892552356,-0.4450572500515554,-0.05549929381950317,0.043015702681459475,-0.36970950045653206,-1.0716240953579375
0.46,0.022371211163012154,-0.029599465397556427,-0.051473494198377566,0.0058864056860208035,0.035685633242460345,-0.0415381007543156,-0.0844326694377121,-0.44686534521075527,-0.052454835542789485,0.040614237756281035,-0.3768733600557607,-1.0741954135793037
0.462,0.025032522730365783,-0.026358210177649943,-0.05168948510721097,0.0033992966707240167,0.03695570038709877,-0.04052654748146382,-0.08300392215854072,-0.42775495087462434,-0.03436603899580033,0.04457976113125089,-0.37852569261126906,-1.0659944187435055
0.464,0.025752828368504965,-0.03313818596108969,-0.05958399353637143,0.005624896375377526,0.041304611456994926,-0.04763362465816584,-0.07430818600825556,-0.40071607885231425,-0.020060136977299314,0.054561323008596764,-0.3791835440552231,-1.0524472984289595
0.466,0.024818326776078616,-0.039401328807373535,-0.06474587113575439,0.007995154517769918,0.04333124788163973,-0.05293038721168857,-0.06740991990798068,-0.38779862704559,-0.02144158661333982,0.06454112433617448,-0.3806789402415219,-1.0405950066270289
0.468,0.025806090213180272,-0.04169255577841068,-0.06776426245571,0.008286255613049354,0.045238950061189456,-0.05545372339585384,-0.06840961873640615,-0.40084863431805734,-0.030615303798122547,0.06639122827283897,-0.38127971318246334,-1.0341410367781787
0.47,0.03224027487883401,-0.04512360249752283,-0.07767116222870847,0.007396030108314978,0.05385712981465921,-0.062063321464357016,-0.07355269919989078,-0.4291960386266579,-0.032542523113389926,0.05857104695674537,-0.3803252193288556,-1.0331658534590866
0.472,0.04234083085751504,-0.05292677296059189,-0.09579238045263104,0.006853785206896057,0.06903225114257265,-0.07502049894108852,-0.07637091092907723,-0.45064327750928623,-0.021833327073340354,0.048454099906590005,-0.38033213056834264,-1.0356975157413235
0.474,0.047091292134286845,-0.05942628048497265,-0.10711642534558001,0.007740621263086743,0.0779077908312077,-0.08423028822039784,-0.0770591817806752,-0.45330488812251035,-0.003880179874348165,0.04397620103818011,-0.3822193467168304,-1.0382299854396617
0.476,0.03892597486636925,-0.05884619685412643,-0.09814376124488705,0.011425655583842734,0.06909155456204855,-0.07983816039120728,-0.07810744985546537,-0.4432781610941231,0.012437785510325932,0.04641145910886563,-0.3817885543810449,-1.0364046909522453
0.478,0.02284871536375189,-0.051927656047569506,-0.07462120122210497,0.01638936821205551,0.048109329486337456,-0.06465432963908105,-0.07779175372898343,-0.4335875134032111,0.0184404105834267,0.05070168089984163,-0.3771187054740813,-1.0295117963470244
0.48,0.01159761304830704,-0.04213627010446718,-0.052934881403552854,0.01764566480679881,0.03055407483098045,-0.04879121634118187,-0.07449583321056379,-0.42969551278364654,0.010677503121558012,0.05032808720199833,-0.37470763320706196,-1.0226605817443397
0.482,0.010734542971190957,-0.03371624893709242,-0.04323934519201772,0.01378901012813336,0.025167874936502438,-0.040041546430075244,-0.07106031216970653,-0.42709143572173713,-0.0010423967307644699,0.04381570917885746,-0.3800577388434165,-1.0199310997030808
0.484,0.015151864552373965,-0.03156414700854231,-0.04552580845979307,0.009998401516094066,0.029381794897730705,-0.04082627917079523,-0.06944750900801443,-0.4207799236918438,-0.0001764179414859439,0.03723426077681269,-0.38780714029452473,-1.018213035648784
0.486,0.018373294043526375,-0.03804563108681725,-0.05556825956345962,0.011530092708240623,0.03708194961112515,-0.04951327349625318,-0.06633557684799302,-0.4137932315754189,0.0157817979594009,0.03792371553948316,-0.38882807392424806,-1.0117701129560897
0.488,0.018969103634937545,-0.04788331234868947,-0.06644130025158464,0.016692772066022887,0.04327111247520732,-0.05966705408824541,-0.060694189078675354,-0.4156858087445122,0.03013654996662403,0.04499950323827787,-0.3829242781741594,-1.001129686703284
0.49,0.018094859323571345,-0.049657284541003856,-0.06768773063587465,0.018608209634523813,0.04306604719790092,-0.060817271731350396,-0.0600817674407557,-0.4300819488565351,0.027305931175688664,0.049367279501825845,-0.3784411410832002,-0.993849553286366
0.492,0.016190389207454584,-0.039054279267930196,-0.05523992973385688,0.014221683153772523,0.03507017413221351,-0.04926527224463697,-0.07051429444026133,-0.444982051309666,0.012942495068026208,0.044852700081037186,-0.38114356193639815,-0.9952578942037975
0.494,0.013309982722924982,-0.02535001398983734,-0.038420980208548394,0.008082621056132647,0.024608065190869503,-0.03415613216965641,-0.08568140813546725,-0.44587393509385426,0.006447185802042172,0.03480662725355091,-0.3884978043209399,-1.0016595081066026
0.496,0.010115866431796218,-0.01766885283194863,-0.02734566213103948,0.005062779588448,0.017456620473179172,-0.024578861595587916,-0.09431009223551182,-0.4361769213277528,0.012315230711455849,0.026044683315365542,-0.3946808271884065,-1.0056391485133107
0.498,0.007825418465921798,-0.012352384598451704,-0.019868955920366117,0.003364083635336592,0.01288487040540134,-0.017371513447185717,-0.09317386248695632,-0.4313574629852809,0.013535556211368422,0.020985772361068352,-0.39706172078513174,-1.0049985344083097
0.5,0.006780884574645255,-0.0028412194792909445,-0.009630880705976872,-0.0004127279854570136,0.007164903994945815,-0.006499902645714149,-0.08713788531972008,-0.4374475390569308,0.0001584857200670542,0.01791265822485998,-0.39662274218100646,-1.0026387415868683
0.502,0.005730531194361328,0.006339188670787617,0.00044235501996925744,-0.0037814301370459047,0.0010878268753097301,0.0034028958691140476,-0.08175856206580685,-0.4461970784354255,-0.015113009732953087,0.015956160417402526,-0.3949248476873537,-1.0002434613806852
0.504,0.00427292244916593,0.007674434476970636,0.003319407164803818,-0.003263913949582935,-0.0011648158852390902,0.004660660892234053,-0.08023137409209281,-0.4470163965662362,-0.01725550440540014,0.016366230154951776,-0.393007465367376,-0.996821168499939
0.506,0.004332853826040004,0.00398785710300858,-0.0002967214069852997,-0.0014359488658507746,0.0012999627285122085,-0.00012717175686920176,-0.08284398811106632,-0.4389011812185298,-0.008196529582129188,0.019597447755523682,-0.3914417412980913,-0.9916951122933364
0.508,0.007360769777808738,0.0023724332207998465,-0.004920609598470059,-0.0023559773355306315,0.005584822165599422,-0.0034806546374294444,-0.08658234231205673,-0.4328440824321716,-0.00037679764934792244,0.02421429434681404,-0.3892112925828371,-0.9850285271866104
0.51,0.011692594911268799,0.0034248763660943296,-0.008261332136311802,-0.0051689723261977814,0.009121846185924038,-0.003931110399944155,-0.0873324111712797,-0.44088296365577,-6.809849000969159e-06,0.02804224556677255,-0.38480011630474115,-0.9776741638966258
0.512,0.0142824562536645,0.004017203353398058,-0.010299010636659356,-0.006763038694853067,0.010884781536489136,-0.004084238045572979,-0.08357489191411609,-0.46100872004422483,-0.0022652653096809083,0.02904718021566285,-0.37969182915846106,-0.9721116990965127
0.514,0.014201334593195428,0.004144527799510361,-0.010076413047432871,-0.007024697658923442,0.010533434373466558,-0.004216587613862236,-0.0786332956989746,-0.4782732080376725,-0.00014033561304873494,0.027277961144914417,-0.3771480518916754,-0.9701030385374431
0.516,0.012607883648407536,0.005883289325185963,-0.006715555519104369,-0.007900771368620437,0.00807202555306739,-0.0025172765949263683,-0.07831440819812378,-0.4834315182362399,0.007938382003592993,0.025667870629035066,-0.3772866835714378,-0.9694082306727415
0.518,0.010243913711165429,0.008224389182770879,-0.0020045144466089054,-0.008932408024256488,0.004460223788067539,0.000665201850988629,-0.08461049782540449,-0.4829906648504852,0.01684299793102488,0.02606043168625511,-0.37762427029920426,-0.9660041035541133
0.52,0.0071117023869893044,0.006529383536352671,-0.0005800819032632815,-0.006857355114484615,0.0021290002263798257,0.0013390329820928075,-0.09282291779709062,-0.4852595863950035,0.018496599156963008,0.026275789035475748,-0.3779057536192593,-0.9590271893404827
0.522,0.00366589060040297,-0.0014733455605351687,-0.005146358121315389,-0.00029600541600889086,0.002676666258125819,-0.003607996016869312,-0.096154462396502,-0.4843855501070044,0.012207588372705542,0.024024202821361963,-0.37999801544155337,-0.9511914326177332
0.524,0.0011577569600052348,-0.010176555410546757,-0.011338934647489219,0.006476884569696205,0.00425107678048639,-0.01051281806139714,-0.09341298981024852,-0.4704538452447101,0.007844323356113899,0.0214678648352776,-0.382859100559568,-0.9449457032665377
0.526,0.0008574246142553786,-0.01141534057854564,-0.012249146812253864,0.007557443219035542,0.004083944519377524,-0.012243855537911498,-0.09026585252793105,-0.4510800741844572,0.011493904235339478,0.02258925242735883,-0.3817388732677621,-0.9400386584223379
0.528,0.002871878723060879,-0.005721069060846527,-0.008458307710214401,0.0032221192935622507,0.0030354830093634166,-0.008298026161995141,-0.09069668881750159,-0.4462794900487457,0.01706710296248949,0.02707134780545037,-0.3741320676946249,-0.9348492764818084
0.53,0.006173457294615107,3.008601520643821e-05,-0.005815280500468809,-0.0017269215381010637,0.0038929936060583038,-0.003956949205476683,-0.09232245681854023,-0.4624186134965695,0.018672583325058424,0.030011703584171705,-0.3642158842664771,-0.9298226126785842
0.532,0.00934394731044648,0.004499344096769919,-0.004423491299335892,-0.005824144768859982,0.005854636768858841,-0.00018822878066461246,-0.09274085591952201,-0.48516727806207144,0.018845250314086907,0.02778807682075197,-0.35904154686259976,-0.9278656755345303
0.534,0.01091368914508729,0.010588069667586728,-7.115865958509043e-05,-0.01016107667983364,0.005486658607243647,0.005544105308368362,-0.09260377823217408,-0.4980404382217008,0.019172221862674612,0.021898495311367967,-0.3601596370196302,-0.9290834583064325
0.536,0.010091990782563948,0.01611376714337282,0.005996402033899451,-0.0128495622188902,0.0024530297708300884,0.010935187411412275,-0.09161875640462601,-0.498390810384337,0.015594485584450675,0.017024421626896137,-0.36187607067361705,-0.9287940830132819
0.538,0.007537290862359361,0.015793136255287808,0.00811078096982167,-0.01082096884050573,-7.545634755325429e-05,0.010695386986550176,-0.08907810910975011,-0.492833305179738,0.009310425504750437,0.016712250833808583,-0.35952140135189586,-0.9242151236901428
0.54,0.004904835393536571,0.009515274367605797,0.0045474097507519455,-0.005066489064188633,3.688389550545964e-05,0.004662260426123096,-0.08738702933615959,-0.48393842811381027,0.010677106935744134,0.020604116619928028,-0.3550210923759362,-0.9185542642098644
0.542,0.003465062332762907,0.0017275868359617965,-0.0016916560699581265,0.00043860592976900707,0.0021590671704182552,-0.0025444896903782294,-0.08967728264416883,-0.47151692132464745,0.022453016900758394,0.024937424807487032,-0.3518027874240733,-0.9157184605616079
0.544,0.003622333376042473,-0.0032660740101389876,-0.006810299521831787,0.0026090695758465158,0.004484176284354761,-0.006591463914376108,-0.09533989751067963,-0.46350741830685144,0.029492007195135603,0.02533313356708917,-0.3499518136840818,-0.9158362846623895
0.546,0.005314671974346822,-0.0007141298807404829,-0.005895274959189775,-0.000510825670899798,0.004450297998160869,-0.0033909610577484935,-0.10137857364511818,-0.4687147688671614,0.018993712305784602,0.020002708485064278,-0.34936571752220513,-0.917910255172499
0.548,0.007414195636482568,0.010908820596929613,0.0038145381888327226,-0.008027986822196857,0.00018910994375387,0.008059495782398863,-0.10601763002357081,-0.48064690332715576,0.0016239330491259645,0.011763762935527756,-0.3520150903464855,-0.9216247842889834
0.55,0.008662238185103036,0.024248507625087765,0.016124921342037947,-0.01504501568577409,-0.0056165375632642916,0.020440825888902444,-0.10905729407848369,-0.4870546459728381,-0.0041484477575856535,0.005370521418040168,-0.3581011703461636,-0.9257779702510078
0.552,0.010463998136978474,0.030817736639011908,0.02094545515242056,-0.018677845428183078,-0.006996094948087105,0.02484985199814601,-0.11047068938455584,-0.4890959874433623,0.001276518460191678,0.0026266076072326487,-0.3631063900107351,-0.9293127308966751
0.554,0.014281476076334006,0.029174399048857526,0.015324302956325956,-0.019821741082704816,-0.002014304557090274,0.020171939487578863,-0.10833282734847309,-0.49343743097020376,0.005023520529652008,0.003891945310605514,-0.36010759423828836,-0.9314707855015761
0.556,0.01688524501278199,0.022108396200661976,0.005487346630520086,-0.01800522388239631,0.004003892187108752,0.011963576640243632,-0.10050856699662575,-0.4962549821459655,0.0035633735443347655,0.010716197708033864,-0.34664988897389504,-0.9298341229362106
0.558,0.01455901885002402,0.016045730208579488,0.0018503029595174168,-0.013813073493624452,0.00404966014160534,0.008536289907097155,-0.09174086598730238,-0.4897704793388098,0.0015880751162234861,0.020263448516420608,-0.33110300851149443,-0.9245426340896542
0.56,0.009462212217796511,0.019468066806923718,0.010652572531853937,-0.012665585679140416,-0.003153989317036513,0.01590947230637666,-0.09154973070823286,-0.4762142230341468,-0.001579252479559929,0.02374668722869067,-0.3271339007584811,-0.9213225212821923
0.562,0.0060130680194222085,0.03232631573702417,0.026986270696077393,-0.017374391083332257,-0.012599491694078415,0.030514262759744316,-0.1003116835098347,-0.46835277582269447,-0.009400322955851161,0.017252768674121552,-0.33807318104025547,-0.92312854522405
0.564,0.004897087992441207,0.04324696160209813,0.03865275751882666,-0.022604311477775606,-0.01833847571718611,0.04077033067035417,-0.10735731664403665,-0.4780814227578916,-0.01580938954182264,0.0074444333432575685,-0.3521439082751614,-0.924999135315364
0.566,0.0048169780052985285,0.041888122060910526,0.037058219210782485,-0.022186749844528952,-0.017186129956056166,0.03816670861977927,-0.10614061879731833,-0.499745684465861,-0.009363409352378137,0.003478176407715571,-0.35594660977673,-0.9217764012036241
0.568,0.005581110173675142,0.02763201888542879,0.022154836960342154,-0.015817387805561703,-0.009250989954718571,0.0230261386862053,-0.10125648300975416,-0.5080398316835292,0.00790927701124484,0.008549223202199906,-0.34802607317389456,-0.9142650762743686
0.57,0.0067456823246076335,0.007842095012991402,0.0015022281752023212,-0.007066392640038003,0.0013528692857887829,0.0027536893016807226,-0.0993968021442034,-0.4888001882605937,0.01882962593954044,0.018219431630474237,-0.33806131499964953,-0.9068900183216934
0.572,0.007203271184493818,-0.004940932022619393,-0.011657239948483214,-0.0011047964867268063,0.007463641230609665,-0.010052765215481726,-0.10147337024637719,-0.4653457031951744,0.014896254809700341,0.024356419388334064,-0.3356772991623438,-0.9036185546977485
0.574,0.0070309863870068635,-0.0012161268130749282,-0.007854222030632714,-0.0021652030796055935,0.005043947976877839,-0.0059603290336674615,-0.10389944349163159,-0.46870093738936425,0.008354761564762446,0.023933871158117966,-0.3404978792651685,-0.9046377127513422
0.576,0.0075256482277983525,0.013477450686022607,0.006316944721890039,-0.00853204211762341,-0.0013798358868021272,0.00888453485635631,-0.10322274012815605,-0.4909271804856862,0.01173146608425755,0.022643345584487357,-0.34409425958946466,-0.9061189253587433
0.578,0.010233276898457306,0.023929664957262217,0.014059091009677085,-0.014432848477946722,-0.002984405917131619,0.01817514114485003,-0.0991289047611386,-0.49961471981692573,0.01978949100400678,0.02502326961697833,-0.3422290067870962,-0.905377051331794
0.58,0.015386679035891995,0.024728396551278356,0.00957737634376897,-0.017784954203851042,0.0024993039934527,0.016197654987659637,-0.09437737170823012,-0.48879058566591443,0.02080635503259361,0.025891995922961302,-0.34033010981005857,-0.9043386760570447
0.582,0.019578829050559302,0.024316812907218707,0.004851488879703669,-0.020578063680185023,0.0069919970387850635,0.01351901618295735,-0.09130972639271072,-0.48136670804888904,0.013754518447239291,0.01965985541439683,-0.34408610083627694,-0.9046795429342759
0.584,0.0182539287471999,0.02906866603430162,0.011064323288897157,-0.022966113124859786,0.0027447145347630434,0.01928845137221674,-0.08827594085476964,-0.4871837860195775,0.006527490424299061,0.01164709723945183,-0.3506543336719097,-0.9030637664812603
0.586,0.012126282594674282,0.03436331996095556,0.022844118420826367,-0.022871123010077703,-0.006552611940925003,0.02825588334960392,-0.0831560426641709,-0.49050891005903013,0.002496205573789352,0.009460778209911463,-0.3537724414943042,-0.8971079827883726
0.588,0.006613173409187118,0.035129762338724814,0.029354176067111354,-0.02063252376245455,-0.012202401105708055,0.03183776136317853,-0.08009933513511884,-0.48027839040963355,-0.003305839058890969,0.010328508903038448,-0.3527038632013115,-0.8922401254795795
0.59,0.004583046333058282,0.034923081704738124,0.030989685830017256,-0.019322761101152105,-0.01333870642045435,0.03199085268615937,-0.08603751900474615,-0.46819935615454106,-0.012578628166486642,0.007167767954016949,-0.3523586315686507,-0.8955756131622454
0.592,0.004572012504678286,0.038447637604425496,0.03403977941668747,-0.020468123593341887,-0.014768081232046502,0.034956929934068945,-0.09977180878341253,-0.46865790751439995,-0.017117977830774116,0.0011218813054333279,-0.3566475043522678,-0.9058510966486427
0.594,0.0050744022483126695,0.04363798547337255,0.03837353961010268,-0.022593239963944436,-0.017451775555984372,0.03993757446978178,-0.1106273273531949,-0.47773506864307413,-0.0108153033457379,-0.0005012699548590932,-0.36326660343443695,-0.9150010066055602
0.596,0.005997840110785954,0.0477154798835132,0.041535248607871604,-0.024739581580398306,-0.019497363731731842,0.04356152233249034,-0.11050285883646961,-0.48425420082103676,-0.0002056594214254451,0.003541902944811929,-0.366970695396501,-0.9185150578942821
0.598,0.007345678308221015,0.0535787095619585,0.046239029113185184,-0.028726486643695606,-0.021561010655407182,0.04808044194588453,-0.10374024146420643,-0.4864457481926865,0.005186942872731059,0.006363827134749213,-0.3669328423489581,-0.9194415043378947
0.6,0.008714796454931752,0.06237143343040882,0.05375581305644346,-0.03477592763707488,-0.02462118948172721,0.055317195228908524,-0.10080989149865145,-0.48557647666829673,0.004539235811143073,0.004448380110899774,-0.36591348407229035,-0.9212494411030857
0.602,0.009052036214082744,0.06656076704588307,0.05757505704631039,-0.03776702225691479,-0.026442030848880513,0.05914627714770669,-0.10408830834899317,-0.4787253397632793,0.0012289118225017014,0.0033522247613475896,-0.3644828721818744,-0.9218170165219725
0.604,0.007706877445370011,0.05976197698621913,0.05215402003337476,-0.03342817386150492,-0.024649455471768292,0.053782422986695395,-0.10552363821593855,-0.4654983192773167,-0.002313823492445987,0.008489779457348356,-0.36184925624017206,-0.9159908894165393
0.606,0.005894085387298046,0.04571911680637628,0.04011290096334007,-0.02442860288469528,-0.019672560035326036,0.04192502776801151,-0.09785657274698553,-0.44972384999894743,-0.001007359434115702,0.01624398528199913,-0.35931229870515724,-0.8999113080053912
0.608,0.005520855444199752,0.030873457659655497,0.025773978225267478,-0.016014373899012505,-0.012622728333661678,0.028073387654998942,-0.0841457090639403,-0.43718655381937,0.008858530376391865,0.018483005993997027,-0.3584986862622443,-0.8755094514775933
0.61,0.0069252007126956415,0.02067507052589392,0.014026381346358753,-0.011914387264273893,-0.005932845392756582,0.016644848514433732,-0.07672394382709337,-0.4380086798002082,0.019151426000953552,0.012041702581038054,-0.3598461542702655,-0.8549363144746379
0.612,0.00823505280260095,0.02351079989248018,0.015260754728278291,-0.014862897893981871,-0.005688270731953041,0.0173450023252803,-0.08542673595524716,-0.4567920067207741,0.017365439791190932,0.0006613773716559208,-0.36400511599282714,-0.8522561014493915
0.614,0.007322643475973629,0.04144134685687186,0.03396656534992491,-0.023652040277795047,-0.014949285060795823,0.034724015603225016,-0.10423821441231047,-0.4778635930747074,0.00558851159100632,-0.008715767556379591,-0.370019767904744,-0.8658057569308716
0.616,0.004395296987083518,0.06138051964015533,0.056913150203625196,-0.03176228039296615,-0.027172542431194328,0.056515901722977456,-0.1159403240227145,-0.47877399387986136,-0.0034878022106909143,-0.010510064323516036,-0.37412389802958534,-0.8785435853032612
0.618,0.001538532334833767,0.06898428087256994,0.067491108946761,-0.03387911666201873,-0.03361951868694153,0.06690213085830957,-0.11283310857835029,-0.4589129269074785,-0.005844375720741204,-0.005265934464838407,-0.3748553056016159,-0.8787660884776335
0.62,0.000763084476231783,0.06511390589692184,0.06441170545681031,-0.031637022254119185,-0.03291454323149055,0.06441837479494919,-0.10393411766915843,-0.4399117816360607,-0.006941728739605093,9.580609003928783e-05,-0.3756497889104875,-0.8708725935212376
0.622,0.0033020288702461055,0.05985714814685048,0.05658177298835847,-0.03023609892442821,-0.02842514142818762,0.057605904307770975,-0.10076361086126019,-0.4375673280009988,-0.010161573791449314,-0.0003847341162900274,-0.37876848685916364,-0.8640911498787055
0.624,0.00829334900562297,0.05509167704575227,0.046898820373791276,-0.029957499667654333,-0.021317198930243378,0.04937203510205179,-0.10344601550387171,-0.4446006822966838,-0.011948647260911823,-0.0037623480843557997,-0.37986482994007964,-0.8594212711985108
0.626,0.011820851805743585,0.043416877765379655,0.03190615182031177,-0.025429742953725763,-0.011691105221442148,0.03560326057759786,-0.10246401065547045,-0.4448294648618719,-0.006033309919262967,-0.0011829753425877938,-0.3729143082530338,-0.8520208729616905
0.628,0.01081256932341204,0.02558318567403655,0.015223703274678707,-0.016035155951747527,-0.003485980904875405,0.018711191594401863,-0.09347958903062606,-0.43633605189689456,0.00694694257969478,0.008532528961278563,-0.36030896115869615,-0.8421615471158446
0.63,0.00802128309444652,0.01494292481574964,0.007322008759180609,-0.01000394548810983,-0.0011164124707444805,0.009864531368464055,-0.0851167431987508,-0.4318248366230583,0.020651867018609462,0.014841179974116492,-0.3525492349196783,-0.8371981047396163
0.632,0.008734962054831702,0.01820289240047042,0.009793407403976651,-0.012814333075237484,-0.0024762697934016956,0.013029185209852584,-0.08614141042446474,-0.43833189828778024,0.03449370324194283,0.010219976628097222,-0.35550394483219966,-0.8412477136138038
0.634,0.012857068008623327,0.02615294696749951,0.013697487076926224,-0.019292837002782188,-0.0024079102767017176,0.019323164659387056,-0.0930603602719706,-0.4473570314460015,0.0483597679772828,0.0005164868964748994,-0.36342270957981787,-0.8486778542888193
0.636,0.014967957838061046,0.029100137538175617,0.014647833664516823,-0.021953552500874548,-0.001343241387620853,0.021405811357934353,-0.09639521051857528,-0.4484364967304562,0.05048660291017196,-0.00467165576141289,-0.36733096507760127,-0.8516987285814753
0.638,0.011304568405374804,0.028236605604733518,0.017376701304188526,-0.019675248234356138,-0.004216455111674504,0.021977111980676794,-0.09155662990687463,-0.44308237501155284,0.031618822201790575,-0.004027599310183339,-0.3655517723497188,-0.8496641285678431
0.64,0.0035010399617697125,0.02954024262014826,0.02620836244832752,-0.016106262711675378,-0.012816479079168535,0.026550955332577,-0.08216705969318473,-0.4387223973917218,0.004596042503083108,-0.003150235142329166,-0.36307503727981266,-0.8469724190188109
0.642,-0.003326565581299912,0.03524826866755472,0.038488663443901616,-0.014928444419534184,-0.02295245272772749,0.03538090236784951,-0.07673209790577343,-0.434959063726928,-0.007620230629628795,-0.005645976422426727,-0.3633593879183763,-0.8456133465557834
0.644,-0.005264795586742759,0.03968946667256798,0.044823620178130526,-0.015679790021410112,-0.027437695026505983,0.040981578424557095,-0.07967509636501076,-0.4241075753542228,0.003040620844097135,-0.007694749367921401,-0.36381218706922086,-0.8426760891362272
0.646,-0.0029997572530549898,0.03356692810719114,0.03652167167998365,-0.013531551280951813,-0.022125341893823407,0.034165146651296385,-0.086241531572125,-0.40468224303143485,0.024384793178060603,-0.002795812145906711,-0.35997538346118035,-0.8345117075626083
0.648,-0.00036300213094828755,0.019050955566001657,0.019361983174491698,-0.007374038383530265,-0.011961228187591946,0.01860735541810532,-0.08983199800585648,-0.3869843444761608,0.037054414773975114,0.007359831801458241,-0.35271842882797977,-0.8235719551865031
0.65,0.0004999835295471893,0.01413207474420186,0.01347602783100797,-0.005227980135035435,-0.00817375139526781,0.013014720979423775,-0.09036568476131666,-0.3810421017152245,0.03085308415301275,0.012310775093791495,-0.3484325896429952,-0.8183254158172242
0.652,0.001331947003337908,0.030960417691110558,0.029521473609858576,-0.014545619637784902,-0.015303918897769594,0.028954368662900496,-0.09107935343993162,-0.3841063809870111,0.013250940750444579,0.006429523794741427,-0.35084429923380184,-0.8228312529758829
0.654,0.0037018611519348387,0.05570364210612188,0.05214148606535348,-0.02908188285762407,-0.02494787549734948,0.05261726534207629,-0.09195321730979185,-0.38604968698126507,0.004456998410012044,-0.003244214051268653,-0.35579010782932785,-0.8306955731795814
0.656,0.005073214728924122,0.06244021874168783,0.057641591063984844,-0.03383291096729036,-0.026542900005866267,0.05944130325850241,-0.09068389889407472,-0.3821074737478888,0.01865048200985006,-0.006538565503317794,-0.357093234767491,-0.8334826845500822
0.658,0.0023971397166571745,0.04567983364354209,0.04341456353696757,-0.02415615729440903,-0.020555472285908795,0.0444385061179576,-0.08708387119021323,-0.3751455396578594,0.044116565504670725,-0.0024138590389266136,-0.35466784138957747,-0.8307272186783439
0.66,-0.0028265523956874814,0.026772132389002595,0.029503385572968957,-0.011698695313754982,-0.016475995526332828,0.027377787664991996,-0.08437890937556343,-0.37082266189492846,0.05135284521713956,0.0018305557352717818,-0.3532616564869445,-0.828149386679628
0.662,-0.006298419830381567,0.024593460400193275,0.030649213465405358,-0.008185094146481272,-0.019206173873762604,0.02556094148189358,-0.08584669279737686,-0.3727354664767859,0.029612296437898915,0.0012933817045709978,-0.3550965004414322,-0.8285241949993344
0.664,-0.0056822217697469965,0.03316841220851534,0.03850693726439603,-0.011896009657536481,-0.02307026423676223,0.03324119313616466,-0.09022298632460686,-0.3783555335033314,0.0013856713324998905,-0.0011893757194163617,-0.3575767049807797,-0.8286042507914997
0.666,-0.0019731938157844333,0.03648633143551809,0.03808941107158437,-0.014851590333296484,-0.021220082489789,0.035405584299696036,-0.09235871658809233,-0.3813090801214326,-0.0070825971816850875,-0.001419848879009961,-0.3578649585189268,-0.8255755995196803
0.668,0.0019359574412734653,0.03148889464133857,0.029331588314170123,-0.014616738722760125,-0.015100317185364176,0.029548632505639983,-0.08653086549118832,-0.3798654024690147,0.00773008613593399,0.00024768238720833835,-0.35558425600266025,-0.8209172603519492
0.67,0.003508776327374129,0.026895248109180987,0.023421919470620507,-0.014046695612089684,-0.011357437916954831,0.024756656876057243,-0.07031106618748761,-0.3793414930632604,0.03252044255682291,0.001263480896278049,-0.3517104791777236,-0.8169552401679215
0.672,0.0030157854578473572,0.030918600089196554,0.028155478027677712,-0.016487804664983428,-0.013831965520333243,0.029189187004324945,-0.052790768512423154,-0.3838626017073768,0.050019142535080725,0.0006019499562656747,-0.3490933512655649,-0.8155354804066244
0.674,0.002651787996520548,0.04441540334617036,0.04214919895754963,-0.022932108154234476,-0.020981210573693263,0.04295868225966339,-0.052393805002100086,-0.38899205569964496,0.04773216286591519,-0.0003971905209772278,-0.35115700177589665,-0.8181782358673774
0.676,0.0024396297301564804,0.05829648759150277,0.05624425590290514,-0.029244844702383616,-0.028339435539498452,0.056825605513846786,-0.07433018555526927,-0.38579526015570625,0.029560022443350265,-0.0002038477774396825,-0.35625434594763,-0.8225438901014368
0.678,0.0005086137951823975,0.06129955657213385,0.06099803810260884,-0.02955677512546776,-0.032146487236465515,0.060268105436785825,-0.10009735671245694,-0.372615578321732,0.011998181264428148,-0.00048703566240562224,-0.35824414100413704,-0.8235627738707284
0.68,-0.0025719465813363487,0.05216511511937634,0.05470707523657566,-0.023712587258945355,-0.03104515292662205,0.052076866113301847,-0.1093333312571276,-0.3586431520461891,0.004180974772518031,-0.003449361300657103,-0.35453012398934836,-0.8197162318604799
0.682,-0.0035544438772378,0.03699587487347364,0.04042874938300002,-0.01608759459781794,-0.024489084873075634,0.03726817319964617,-0.10120174803312001,-0.3523363655497899,0.002623547707194613,-0.005585022508327776,-0.34864685419990143,-0.8125591513357997
0.684,-0.0001648338642256578,0.02272798954561091,0.02284353135054286,-0.010839239595039865,-0.013582403790953866,0.02173384535379927,-0.08953533582013376,-0.3534047832987729,0.0008394029094772793,-0.0019847938121757285,-0.3464727907370655,-0.8042547532114594
0.686,0.00567696994172046,0.01740980242492851,0.011794350125106785,-0.010850045224433091,-0.004834525960568659,0.013947346155329247,-0.08480394104800888,-0.358275612012177,-0.004404265615726435,0.0035188415925283194,-0.35164258039516705,-0.7988810962016311
0.688,0.008621670371913193,0.022920349432875606,0.014497631618078027,-0.014907627931289195,-0.005039244800861091,0.017837794531382845,-0.08424643645520488,-0.36308685926373174,-0.010396790305431086,0.0029620533824922584,-0.36021913610551964,-0.7978116430304671
0.69,0.006889145286813279,0.02964391673231639,0.023214121871817716,-0.017868600743058263,-0.010591693773637167,0.024850047396210134,-0.08019803106292522,-0.36296550612726725,-0.012018464919314367,-0.0024482427100720907,-0.36244210370870217,-0.7957173464210787
0.692,0.005719274271694382,0.028902615815333686,0.0239088716522695,-0.017402184566229034,-0.01087962822327221,0.02439423598259558,-0.07369395022652148,-0.3574172766322903,-0.009823117704763197,-0.004328141698288853,-0.35426250229760525,-0.7890517929049754
0.694,0.009522727708459702,0.025588107093262605,0.016731491603515638,-0.017014444090140465,-0.004030089103189088,0.01917830430773388,-0.07283308713009735,-0.35383686920316815,-0.006560662568068901,-0.0006010321541580794,-0.3430008512122627,-0.7829468023857888
0.696,0.015453292935611299,0.03223138713185216,0.017037501335141668,-0.0217288009168364,-0.0003629133351032922,0.022639433021449478,-0.08095387357421574,-0.35979260366473576,0.001539142953537703,0.0018387218905661215,-0.33928535624526207,-0.7840321155007032
0.698,0.01813449914601612,0.0494800087751545,0.03131554587836675,-0.03080748492531704,-0.0063169324599858055,0.038313227535008924,-0.09156413653471303,-0.3708015388175504,0.01597005768076756,-0.0016023873784898842,-0.3451675899154284,-0.7900087040219625
0.7,0.015593621599936242,0.06052898340544449,0.0450544885140156,-0.035952906871128815,-0.014981950404342975,0.051133592394621626,-0.09487194600280732,-0.37277735402655604,0.02417695877907956,-0.006219713381305127,-0.3518233256982058,-0.7911150683844574
0.702,0.009153024371278568,0.05578986734022366,0.04703714598146503,-0.03215401516210963,-0.019372980727827747,0.05074292020202425,-0.09010272861346459,-0.3623614608025109,0.013454132650814818,-0.006801340264153855,-0.35182874179872986,-0.7832392669336458
0.704,0.0024099076053008435,0.047564929915536396,0.04551022698759645,-0.025413838025863646,-0.021731467229485307,0.04644689730815555,-0.0866635384603263,-0.35254051650105683,-0.0091018333676157,-0.005972352737172906,-0.3490081981096296,-0.7735594429591703
0.706,-0.0002720041513603606,0.043891309086852376,0.044197688277636406,-0.02109060760396546,-0.022116596470694586,0.04334311393714371,-0.08804348278748192,-0.35063929314374387,-0.022078703189225085,-0.006401832928653638,-0.34875770534155587,-0.7685049583048629
0.708,0.0016959029943170835,0.033547157824167805,0.03168028920090349,-0.015116732453829235,-0.015075895802679295,0.030760871883395022,-0.08482567229804583,-0.3481548659302666,-0.011845992968189984,-0.0046400616105995605,-0.34720744150262717,-0.7649163845808692
0.71,0.004328804475177834,0.014423340369942854,0.009986681257998837,-0.006358486547701762,-0.0038742855907672215,0.009931395509370724,-0.07132253519103651,-0.33967863229270495,0.010925264997849963,0.00026039674537825443,-0.33962105037861073,-0.7591726551933122
0.712,0.005086288924799268,0.0059729990227099725,0.0009252368894252248,-0.0035479301228180226,-6.85075989186347e-05,0.001592978355752276,-0.05729594352494251,-0.33356925457437564,0.01804966158351581,0.003328001345789584,-0.33080098818587556,-0.7548357685702537
0.714,0.006445064456107584,0.019412804727851916,0.01306680137730925,-0.011924014709997235,-0.005719409383327205,0.014823346560193414,-0.05606743515277337,-0.33553732894854577,-0.002868282492987354,0.0026451276798107695,-0.3290271198540216,-0.7556831618953878
0.716,0.011215136655904234,0.04011149397582046,0.029043865574038485,-0.024445984808510998,-0.010684946828406774,0.03337681973547064,-0.06852161954988761,-0.33610588561539984,-0.028190645824731412,0.0018842109736916474,-0.3348623238303142,-0.7593032473466335
0.718,0.016478975494144083,0.04622842868374797,0.0300646109722414,-0.02965426927759114,-0.007905145218318851,0.037133432331744924,-0.08154531418501038,-0.3251637608166878,-0.02703686386601583,0.00410522727159133,-0.3401963525695735,-0.7606383716584704
0.72,0.016283980670789785,0.03320994533707352,0.017476655999857163,-0.023628191779414994,-0.0016039304592348812,0.024336240226837363,-0.08098794277499204,-0.31001675785917765,-0.0025951081483520954,0.009337176547499002,-0.33690762623594567,-0.7574181222621225
0.722,0.010362435150612899,0.01730112681195338,0.007681530285260299,-0.014058334085699429,0.00010179143695792911,0.011214829309634997,-0.06769731100975838,-0.30614082034345713,0.013644653060169987,0.015327135683772974,-0.3254497282453061,-0.7515458209167742
0.724,0.005029767032990976,0.014978291205648111,0.010821083036450444,-0.010992615811344602,-0.004217693061086024,0.01140536659154055,-0.05715447748169952,-0.31438371548844146,0.005424084599947002,0.01847319810143821,-0.31480575769953334,-0.7471757598314798
0.726,0.004496496975785877,0.02338584475323764,0.019753570188417443,-0.014437581154580851,-0.008613823970067387,0.020118008177566222,-0.05981013215526112,-0.31899616180145834,-0.009219838721803304,0.017747041551698338,-0.3132396115469728,-0.746929603255478
0.728,0.006079820723509714,0.02730521228485824,0.021807558174111934,-0.01598384060029003,-0.008200565161393673,0.023245182565264717,-0.06846974432316844,-0.30778807667767255,-0.0070268636569322755,0.015944819466948607,-0.318828791854639,-0.7490470513770289
0.73,0.005548309238346228,0.020281201549490476,0.014879215459671651,-0.011331264352085356,-0.004531816906186806,0.016289857484964494,-0.0691592439524477,-0.28757993235153384,0.008308897633093134,0.014716890019063195,-0.32166905892673614,-0.7496430717398653
0.732,0.00325425834865798,0.011664053507908657,0.008363934182130366,-0.005927546752313142,-0.002628147675330422,0.008557253464168385,-0.05785917681015954,-0.27631191773204444,0.014550931440635623,0.01305378561612901,-0.3167312512952566,-0.7479223858970795
0.734,0.0021224274997989154,0.01398976316237611,0.012037728875163424,-0.007288522691952561,-0.005809782858114733,0.011375962820171892,-0.0443778821983494,-0.2829031280953742,0.0019622235575894285,0.011021540334634644,-0.30988746406983586,-0.7466840839450368
0.736,0.002634501926163219,0.027761475260594262,0.025560475167680313,-0.01514253933256564,-0.01287726688226035,0.025109460319132818,-0.042288299359201864,-0.30055288387793294,-0.015589578813139078,0.010268716654614863,-0.3085208873067039,-0.7477899512799852
0.738,0.0029930991226469316,0.04127888862593768,0.03862926329652316,-0.022087031435326962,-0.019043040762752674,0.03876339790099881,-0.05344496894636403,-0.31534682439595735,-0.018576361502340835,0.011308786210497338,-0.3117005864102232,-0.7497073998453035
0.74,0.0021109986853085536,0.04425815559733944,0.04215794318974976,-0.022574497759048916,-0.020841889741390427,0.04246805092444436,-0.06494155266199468,-0.3157585124323819,-0.004019326765503684,0.013417948123378034,-0.31331139267649255,-0.749471440671131
0.742,0.0005322575063858802,0.03789799465178598,0.03718990156988691,-0.018236631497305537,-0.0192943445957862,0.037266321018426814,-0.06528841330142425,-0.29937951131911306,0.014634749606368819,0.016944604974715397,-0.3108822105833903,-0.745613510497137
0.744,-0.0005342016877375043,0.03113125371663218,0.031568128814633764,-0.014654811796785083,-0.01743068012012697,0.031435935132521735,-0.058276644748372075,-0.27394292749888605,0.025944341412751034,0.021570589892950943,-0.3084427161989557,-0.7401228655697559
0.746,-0.000751549690712663,0.029912690656306775,0.030710447595871413,-0.01474510771301532,-0.016949295143736776,0.03049589592010513,-0.055392747975167966,-0.2503798317088372,0.029748293368897335,0.022946255730446764,-0.3111812200954033,-0.7373003930669207
0.748,-0.001422280793608987,0.032446176548639745,0.03394350239461307,-0.016231506530465192,-0.018109970391302663,0.03319921053685317,-0.060028659760250645,-0.23666558793038564,0.029244531153165547,0.017974672188669983,-0.3188154348486769,-0.7389721817920908
0.75,-0.0036537484394976024,0.036317707495604104,0.03998246610384124,-0.016799761589386526,-0.021498323043679636,0.03775648993229719,-0.06698087444854998,-0.23553036560180218,0.022786506548740267,0.01017156524031613,-0.32725074182240727,-0.743406188339969
0.752,-0.00595036981687945,0.04599263009159507,0.05190745707648105,-0.019587287892292617,-0.028427403129119618,0.0480679769904198,-0.0728030310131991,-0.24440028271165748,0.007024793231780807,0.003015533624865132,-0.33482669582083524,-0.749462916759958
0.754,-0.006396865850918547,0.06271006800850257,0.06906201207749789,-0.026823973386319325,-0.03772345993075979,0.06479002157759325,-0.07647869574057307,-0.2595291397098695,-0.014773377163031488,-0.004272057300788879,-0.3409726115352534,-0.7562009968515704
0.756,-0.006487256720019716,0.06986371763533207,0.0762280590601657,-0.029869088596994935,-0.042275227688430644,0.07212598466823551,-0.0726195911394429,-0.2748459034528696,-0.031854836868278474,-0.009672886949901533,-0.34090699286507015,-0.7587664247168682
0.758,-0.008433783818336456,0.04795233181792743,0.05607524406603579,-0.017857383381596537,-0.033987351471526706,0.05110986451433348,-0.055774634510293616,-0.2789324401524742,-0.0348094790572581,-0.0071083464813682645,-0.3297801313453443,-0.7519909961675739
0.76,-0.010535152902220894,0.006591085910031581,0.016685013624258727,0.0036876473351596054,-0.01569140391022127,0.010282243315261674,-0.03314555423980368,-0.26922520359557156,-0.02385739666647648,0.0036162600874173985,-0.31258760737340135,-0.7387412746200809
0.762,-0.009843632870641382,-0.01894072343760566,-0.009513330427299719,0.01599672396487041,-0.0021504293101933113,-0.01595732256139236,-0.02168925110075122,-0.26166207563335026,-0.0079606688401052,0.013181028876274386,-0.3029201331150547,-0.7287551615674644
0.764,-0.006875595349295044,-0.009446255168950984,-0.0030090880469632025,0.01004484588491787,-0.00348303254725373,-0.007902708264105728,-0.028287422859991546,-0.26921675943440043,0.0028143804674939845,0.013341311845126906,-0.3086574903932241,-0.7279167637738785
0.766,-0.0044531750833351185,0.016026178362641644,0.01985468489790468,-0.003594830498846324,-0.013203148164986663,0.016290762137442523,-0.04212515712366945,-0.28242901600228376,0.004687230768633356,0.006556129267757485,-0.32283859970215667,-0.732368902255478
0.768,-0.004148785476590115,0.027769457955180182,0.03117564214826535,-0.009839138320197309,-0.01860857428663148,0.027524271282453605,-0.04896701506058146,-0.28330953204291653,0.0034753687376637508,0.0009301573498935923,-0.3321052615075327,-0.7346717619241584
0.77,-0.0053811513355201,0.02125481475793474,0.026033472878199064,-0.0064631156386737824,-0.016962927324150372,0.021610340494166037,-0.045800492765097366,-0.2689052545868764,0.007693663494027385,-0.00042181602196284895,-0.3312912511401853,-0.7329129570717239
0.772,-0.006278093683303812,0.012139345583646004,0.01810833768383768,-0.0016348197507665703,-0.013641831513512155,0.013789650624184325,-0.0402818865022887,-0.254195079805391,0.014051449180286843,0.0006228847787642858,-0.32553895335589905,-0.7297825124154287
0.774,-0.005312100316075148,0.00670702493054619,0.011947252983011724,0.0007364228533212444,-0.009923443532306923,0.00906486728812312,-0.03866864726524768,-0.2545497972932599,0.010804257006711886,0.005061653674516897,-0.32053826233470717,-0.724847050312114
0.776,-0.003859782649970077,-0.0019043095765491694,0.0018967734076000041,0.0043842223255179886,-0.004066491504730352,7.63603167846283e-05,-0.03832160040773745,-0.26866890534854637,0.000675710835343239,0.016364742468168277,-0.31706609095999067,-0.7157627929527955
0.778,-0.005330795589209417,-0.01063846124898031,-0.005575719636033096,0.009173341450395356,-0.0011844865600562303,-0.008742245958489683,-0.035105162154354205,-0.28288017593146825,0.0006805312856979835,0.03003230836849969,-0.31539023714778885,-0.707119888024358
0.78,-0.009710081555267622,-0.004184734309501654,0.005098801729761825,0.007356572204081238,-0.008491373996529616,-0.0008809470130350365,-0.031241130525628463,-0.2870686595598932,0.014010348934858665,0.03264931174848912,-0.3174640485383366,-0.7076489566698198
0.782,-0.012587723791854674,0.017397928362150546,0.029698541200063558,-0.0028336931162297172,-0.021415521383929027,0.022509576599975305,-0.0304395219264006,-0.2770990870430185,0.02442709813980763,0.019199294373975193,-0.3213860461509811,-0.716113827637195
0.784,-0.01110938610922683,0.0322260979705835,0.043348189189844386,-0.011279118060629525,-0.026990652247231947,0.03741454793984138,-0.03221231728869454,-0.2548138151124545,0.02113355457422013,0.0033036129566986453,-0.32104821923942367,-0.7206986075879704
0.786,-0.007155757780319303,0.026509140093453055,0.03382135743741198,-0.010102149171243361,-0.020978760389183015,0.029486603851118256,-0.03368825048478981,-0.23631168671951114,0.009510438845247386,0.0007095910095433887,-0.3149921805455385,-0.7153807709518666
0.788,-0.0041346935048442515,0.011632879324201883,0.015842833531433946,-0.0037408664499355413,-0.011997250803089112,0.011801084780895251,-0.03328029839230655,-0.23880746598084995,-0.002115552880494625,0.010165028425255481,-0.3089744143924149,-0.7068158171887835
0.79,-0.003069490816367807,0.007721929548963222,0.010745229251579174,-0.0019764230261875215,-0.00984569056373118,0.00657133711770718,-0.03392668443490195,-0.25332217189434364,-0.010126683187144261,0.018488108601426835,-0.30818008298649613,-0.7036237684120356
0.792,-0.0025342399324661605,0.021191813254721595,0.023663050284186648,-0.008664365283908865,-0.015628051793992938,0.02052546845975026,-0.04080991076275493,-0.2545520916400722,-0.011363691277570195,0.017436002701537598,-0.31231612232966216,-0.7070088266772103
0.794,-0.0018610394773146675,0.038637089023007394,0.04047092163857455,-0.017483156454875984,-0.022458998442927352,0.03898122597737684,-0.05205807399851773,-0.23834350854174974,-0.003739491478712082,0.00964304235685428,-0.3180324857538247,-0.712015069158534
0.796,-0.0025860080449748904,0.041799727524017324,0.04428613496875254,-0.018684386470966572,-0.023767686738353028,0.04279682560145538,-0.05760530217712412,-0.22719656291263277,0.00883586442230969,0.00271103227066076,-0.32212489641219877,-0.7134199542580727
0.798,-0.005369293671237342,0.0273429247639039,0.03240281952380299,-0.010258501592935836,-0.019219209987554043,0.028740190126103047,-0.05044375335240665,-0.23593381496902247,0.01915158280443345,0.001586516242316906,-0.32253797520536803,-0.7101787282682713
0.8,-0.007522226611069394,0.006682507960342021,0.013773447607177278,0.0010673080994989574,-0.011617679254910515,0.008050205519065406,-0.03409163977498751,-0.24931634442176964,0.023353298349979967,0.005635756655518907,-0.31863710595680245,-0.7044841708338617
0.802,-0.0057461945835275245,-0.009178818088706159,-0.0037021381766639307,0.00863079769666531,-0.0022255321583790084,-0.009071838897253557,-0.019781013566562925,-0.24388963901206992,0.021554200217558907,0.011200562221750086,-0.3116537321241366,-0.6974686657850235
0.804,-0.00036370448121045545,-0.015561677639419092,-0.015174236623332163,0.010208129113655288,0.006827121059509096,-0.017913035188592705,-0.017492373327460172,-0.22193430663439673,0.014743123994461656,0.015182666211179743,-0.3047207130747956,-0.6891550958032513
0.806,0.004325118080580683,-0.01087905212109822,-0.015051673740663721,0.006286457894890382,0.009675115886727943,-0.015109723379124975,-0.025360023876250762,-0.20911107419574954,0.0056633592934004565,0.016285711855637146,-0.3012964300574807,-0.6815836476949556
0.808,0.004487861144001897,0.0008929447057218452,-0.0035274437991071974,1.158700209518024e-05,0.0034287839919101407,-0.0029456105295609988,-0.031110312148151378,-0.22073381094057448,0.0008777436732522588,0.014962409064970218,-0.3028531220003191,-0.6774727537629124
0.81,0.002049587601182232,0.00954145197140894,0.007444111533707019,-0.0041013621324793035,-0.004496071047252888,0.007109445684903092,-0.02884689450941188,-0.24387820432546772,0.0052751894710142576,0.012891652046179262,-0.30821074727134523,-0.676653891823324
0.812,0.0026963972138669945,0.010650235650593436,0.00789432185872617,-0.005491418189285035,-0.004902921590474605,0.007767985545182234,-0.0267824765868888,-0.2566945926934457,0.01391078523771809,0.011308577805111046,-0.3147434579755571,-0.6776606101967696
0.814,0.00695597273288176,0.012563609886205895,0.005604881795951901,-0.008029490557877328,-0.0012233501319167473,0.007652184731189411,-0.03290312643262081,-0.2562041329104933,0.016101956287635166,0.009201741252383015,-0.32015773047309454,-0.6814619144800632
0.816,0.008957634762917,0.020742096090462642,0.011815474090602691,-0.012415970250498445,-0.003047278737099837,0.015296906318580689,-0.04160356018783172,-0.2564494661250853,0.01013697451576923,0.005503918467920803,-0.32294163645700535,-0.6884509004246798
0.818,0.005878442809746778,0.023443318825184908,0.017581190723913075,-0.012552034703395023,-0.007774377523480843,0.01956120505265252,-0.04173799815117117,-0.2623113764357308,0.007486271839296249,0.003713215453150751,-0.3218094283593202,-0.693056386946855
0.82,0.0012347904670628879,0.010604391660554352,0.00936048840526923,-0.004898811177382121,-0.006184797164214055,0.008173828964678283,-0.03278505447368459,-0.2625456911601353,0.018671439896626233,0.00874995256064873,-0.3174341484577088,-0.6891737458698295
0.822,-0.002009484396687507,-0.003252882168449758,-0.0012566469851463759,0.0030137603333323156,-0.0020109509895572574,-0.004993232641517128,-0.025832204264725427,-0.25141597776580776,0.03862071953698509,0.01786438408507078,-0.3137856821893624,-0.679992738429638
0.824,-0.004242095304066763,0.0020929616978563118,0.006333701462067774,0.0015696289901254686,-0.006184323453206985,0.0015758642939030286,-0.029596363646981077,-0.23896499433766272,0.04781612075812694,0.021525826285944863,-0.3145335844438244,-0.6744345040758376
0.826,-0.004404618572678725,0.023848228811860692,0.028259429396002414,-0.008914597201671298,-0.016993741710035922,0.024574411812315372,-0.04097856375024172,-0.23588006891126423,0.0305893249420195,0.014192314084821618,-0.3199231214062234,-0.6761848227650352
0.828,0.0012474103877062085,0.043641468222945984,0.042397941201813255,-0.021250366820018237,-0.021539464483869522,0.04254977049203328,-0.05023912846570046,-0.24180271756333083,-0.003758437740788824,0.00039643692428553554,-0.32740866911867117,-0.6814872983254806
0.83,0.012234528185263818,0.04704264437181571,0.034806379147911896,-0.027947035781376077,-0.012591867176738972,0.04017996485161238,-0.05073471455944705,-0.24948540538777045,-0.02441091507873458,-0.007988513391321025,-0.3313877038218751,-0.6831786295934169
0.832,0.02011839804914938,0.03175254150179927,0.011631194548327648,-0.02402958257266137,0.0026682877661120363,0.019899976803327342,-0.04303392212221179,-0.2523417254051205,-0.011809099460194216,-0.0020038890895042127,-0.3262468647089285,-0.6760672631585356
0.834,0.017169432742891094,0.012147578565436693,-0.005022314779060086,-0.01296470944435559,0.009069359976512141,0.0015977163221116081,-0.03424695238169228,-0.25005559560434387,0.018375760697917187,0.013289226381780463,-0.31521995458756535,-0.6640049312163667
0.836,0.0062297832456035835,0.008527400122170344,0.0022990061530375203,-0.006004640392918135,-0.0004927189947883906,0.0046300058571459215,-0.0322688793363938,-0.24905168388853222,0.0333332985875832,0.023154575975870267,-0.3094689848871276,-0.6584705500562865
0.838,-0.002729114475306946,0.02349689384962154,0.026226923278373903,-0.009229286250565754,-0.016870809432733183,0.025334051838480108,-0.037596453769625976,-0.2542031788234627,0.02106563451410261,0.02008359280679445,-0.31417131607908877,-0.6652013477987233
0.84,-0.003782254895174828,0.04076244848334365,0.04456632186988901,-0.017307398030827738,-0.026131913645897113,0.04331299547810121,-0.043994090404458557,-0.26298192248152574,-0.0016150950784868012,0.009856736534666786,-0.3231745522414135,-0.6770142192010034
0.842,0.0007528774917823114,0.04707407027750265,0.046451855850842855,-0.022466395560360723,-0.02439702289813411,0.046783060866750915,-0.046661477632455796,-0.2703529331862189,-0.015133077098883858,0.00242648441858299,-0.3283868367510032,-0.6829547384135605
0.844,0.005065587877269676,0.042795229895582175,0.038056924560691895,-0.022477288470662975,-0.017566960166188493,0.03995188030543886,-0.04471209790994242,-0.2741265535258082,-0.0140949260638197,0.002624681869684912,-0.3271964094513923,-0.6801645754906672
0.846,0.00547397161963298,0.03312020370332416,0.028069128285615395,-0.018283240099809254,-0.01186873230115259,0.030132596443337645,-0.03840896975275711,-0.2735839987987614,-0.0011925482472242822,0.008202676207253946,-0.32111791266172907,-0.6739575339747774
0.848,0.0027865843000326935,0.02128962590008444,0.018758795762871785,-0.011300598427474265,-0.008735570985566966,0.019642604983789076,-0.02943001176702096,-0.26840842175183255,0.01622627864709615,0.013821604248307267,-0.3129439801922806,-0.669400682746985
0.85,0.0007814705573169791,0.013054931793453017,0.01226967057429558,-0.005964174690894434,-0.0075614959896907336,0.011987713686534925,-0.022342860989157626,-0.2618541012504265,0.02488621726387108,0.01581029076446054,-0.3063612600565921,-0.6679459754780038
0.852,0.0022493185666833198,0.01601346626373216,0.013771462827755312,-0.007982986786664488,-0.00841089744304379,0.013859510000368613,-0.022134750677474474,-0.25912222312282707,0.017333580277262308,0.013579289308627222,-0.3048003076107443,-0.6702236849732283
0.854,0.006916854153988306,0.027945934755114685,0.02142456211109579,-0.016601522453336296,-0.009320342464219937,0.02378419479919824,-0.029354037871630576,-0.2595124181199574,0.0037818059529303866,0.009878496402631167,-0.3081643705411686,-0.675327633508451
0.856,0.011589649117799507,0.035702405126605,0.02493091025614512,-0.023440251151657217,-0.007135489203560361,0.029926138770315483,-0.037272383023764274,-0.2565354161973438,0.0006552148778707764,0.01003729463518658,-0.3124150232080227,-0.6791101262842774
0.858,0.012298436846560512,0.0319824090705423,0.02054990158649389,-0.022290191177446832,-0.003533148891105942,0.026211064203026806,-0.03546908085555666,-0.24700100005599027,0.010290591073200758,0.01760475058223453,-0.31410976427679616,-0.6790544842976766
0.86,0.009186216945299808,0.026487696854655397,0.01786091793058642,-0.01765211678770404,-0.0042199808199187405,0.022083915329623255,-0.021144324528667904,-0.235006447969166,0.020702726074820613,0.03010958104506028,-0.3140265277928662,-0.6792124027932777
0.862,0.006951848801121968,0.0325430553569328,0.02583464408508899,-0.018541701725641672,-0.010869849023126555,0.02895944721122342,-0.005336060645208125,-0.22567600386232325,0.023854404253301223,0.042398003270008096,-0.3144443383489514,-0.6854976730259679
0.864,0.00802686695847617,0.04599565799438368,0.03813130687252493,-0.024824045768769742,-0.017698857570752433,0.04182775423391506,-0.0006785234343122134,-0.21647795818822746,0.030018055226564228,0.056118605840090804,-0.31384084680449215,-0.6973832861935501
0.866,0.009375272732621433,0.05092005015679323,0.04183827053772484,-0.027990368810509456,-0.018790341814352966,0.046216428929705435,-0.006151630021250269,-0.20080478434425442,0.05917252954403238,0.08017971436197202,-0.3082787270772598,-0.7094458669929469
0.868,0.007831294988539166,0.04720334244672093,0.03976398171171549,-0.026365050589454816,-0.017532545449590955,0.04336398099752861,-0.012093107076664455,-0.18176022839588413,0.11376820023920037,0.11698345800688972,-0.2986392907815459,-0.7197359788278369
0.87,0.004638214487539659,0.0546166378670894,0.05023051496839131,-0.02944106125579112,-0.023499699236450088,0.05228783740204681,-0.014827261667189843,-0.17003417491137643,0.169906244493921,0.1558307066474403,-0.2902405414027256,-0.7303601738833143
0.872,0.0028233982901612084,0.08290949904148545,0.08007281673261016,-0.04283902467742002,-0.03900780494267807,0.08109464625319261,-0.017041604195164713,-0.16653542209348424,0.204913640551057,0.18675528726345927,-0.28207903568707837,-0.7392854962808996
0.874,0.0030813876763648327,0.11553589268097823,0.11231654774721635,-0.058585882017924536,-0.05505528845062009,0.11281417601850108,-0.019270495420928964,-0.1638297665107144,0.2193333227539799,0.2127921594732677,-0.2641847222391866,-0.7362238535572694
0.876,0.003946405255018268,0.13548623475015148,0.13147396744541945,-0.06789986362951374,-0.06456283539977813,0.1316325650623015,-0.020755052695375743,-0.16393379343315653,0.22077329631871462,0.2399016286648701,-0.23155407436531722,-0.7103235054697842
0.878,0.004929831558333305,0.15225999213159935,0.14734893371502042,-0.07599227827517543,-0.07272213228078109,0.1481048131287326,-0.02568990188833833,-0.17715884725293987,0.20626422539318895,0.26189466916801524,-0.1923633734259335,-0.6605934421495181
0.88,0.00916131567331122,0.18641503349032107,0.17717767252514702,-0.09529929040426433,-0.08624801983240284,0.181138857017993,-0.041139049485831566,-0.20584250449372252,0.17598414014689653,0.2661106136491372,-0.15480794640112713,-0.5929219425262614
0.882,0.022070176917379773,0.23882702199333025,0.21643397731109576,-0.12904243285262107,-0.09961726895463607,0.22760440798713225,-0.06954587758866666,-0.24278707285279857,0.14505785101443394,0.25102648364550867,-0.11191145932631394,-0.5056727675479467
0.884,0.04673006340115815,0.29281713963563216,0.24563662764814892,-0.16971489212014737,-0.10165306862374139,0.2683794069868427,-0.10692101579971577,-0.28194895210099863,0.12427537254094997,0.2309238637735941,-0.04518173911220544,-0.38531791008362554
0.886,0.08199750893671434,0.34025088210933424,0.25798205193532925,-0.21163330631276686,-0.09015076902365764,0.2966961345629026,-0.1491207790993605,-0.3226704072397618,0.10269581730655787,0.2240666710017639,0.05680102880785336,-0.22341540668532267
0.888,0.1258478369446535,0.3894245437171307,0.2636100194032429,-0.2575261080369466,-0.07128591141568985,0.32346587309335906,-0.19834729864849862,-0.3664525577975461,0.06561116472679678,0.24044778843212677,0.1834888746152937,-0.03545867441723835
0.89,0.17845766964772497,0.4454515560087333,0.26715193706052465,-0.3105893322870396,-0.04669994223583469,0.35415742258031024,-0.258831009289204,-0.4123926635498596,0.021261087160908628,0.2837050287865942,0.31040760644196685,0.1471868346182293
0.892,0.2404606299849652,0.4977593050078109,0.25736357511317176,-0.36680875358945775,-0.010152616270284846,0.3767562634240447,-0.32677069737276965,-0.4571376889421434,-0.004568115501566619,0.3633886953101817,0.42544728812688254,0.3053246043341274
0.894,0.31083287908114304,0.5379658303193516,0.2270809393980048,-0.42214405215040285,0.04089953769967312,0.38233938833284,-0.3933956039935243,-0.5014148835564782,0.005067726219726014,0.5011137930943859,0.5428109397921759,0.4438568752371102
0.896,0.3879876440811531,0.5760029647942596,0.18793323433816925,-0.4805283068729877,0.09918913805954306,0.38174724040106395,-0.4564906709514449,-0.5505260461088182,0.0492117701520225,0.7226514076819747,0.6895219820448864,0.5758979106590889
0.898,0.46693160788486526,0.6221882316194203,0.15512457581993788,-0.5435959026156244,0.15479409195600982,0.3882366416796406,-0.5166173388571061,-0.6020166739772501,0.12340394498223636,1.0362692167580012,0.8788437523177042,0.7000280099899004
0.9,0.5312765303394958,0.6669801990415484,0.1353866330399368,-0.5979340798799535,0.19697063807336915,0.400551340498343,-0.5623563629267894,-0.638768692571902,0.23192531586364593,1.4049223166624847,1.0919754926426404,0.792697601558488
0.902,0.5538875594165388,0.6932759952024351,0.1388503512389113,-0.6222339432738778,0.207338774804743,0.4153802993018428,-0.5700285951869937,-0.6384502497549984,0.3811992279515902,1.7386695445208527,1.2833401777293842,0.8221301286361583
0.904,0.5134255883066219,0.6934951460388608,0.17947654172744004,-0.6026766424935492,0.16750939416613936,0.43612429145377773,-0.5212932307603386,-0.5846324687481376,0.5663431493238195,1.9276838969571153,1.4049681347916227,0.770099692976422
0.906,0.41322514912380753,0.6655865092013097,0.251950989454696,-0.5393011680043809,0.08113153427266859,0.4587677889793331,-0.4207200422258003,-0.4740931935579274,0.765397731821777,1.8932206880909923,1.4243512955122821,0.6419851756561863
0.908,0.2825883235646099,0.6118717676550695,0.3291727687795843,-0.44699766716643424,-0.023343453186716233,0.4702473000824795,-0.295854133505235,-0.32343502821678466,0.9417160672515237,1.6221504707318881,1.3262802181772486,0.46083596442471764
0.91,0.15787474258987982,0.5477213915667769,0.38994242632269527,-0.3515612006383728,-0.1165256945130963,0.4675256711704107,-0.17665106987973006,-0.16158997921017776,1.0663061489950454,1.1832602201306834,1.1177848637114534,0.25265856811241777
0.912,0.060216615959634394,0.49353381524759693,0.4334206640346978,-0.2746527772599148,-0.18733503869750762,0.4611078809853503,-0.07655786557317512,-0.010770643750299819,1.1530108082543322,0.715639810467144,0.836843170371597,0.03341666030698044
0.914,-0.011959080078795002,0.4578048360951293,0.46976876869514506,-0.22069877099327204,-0.24182314487101533,0.4611441363717322,0.003114454246991767,0.11782010386664075,1.245577344021432,0.3568227669857117,0.5410207885604611,-0.1899160187368655
0.916,-0.07094114831946577,0.4395684635773866,0.51045831921772,-0.18301055493929905,-0.29166925862653975,0.4729702883753475,0.060692012913228066,0.21576009139407443,1.3517094934736549,0.14714053255510237,0.2797418897563748,-0.40578706695006267
0.918,-0.12384071513427906,0.4405587326046804,0.5643942024769082,-0.15800161660589018,-0.34475166908134364,0.5012763142209797,0.09674204354121715,0.28227988074575544,1.423490988054531,0.013284494368035672,0.07406486956486093,-0.5925758129085958
0.92,-0.17070169642855498,0.46450322689850837,0.6353508565368364,-0.14686237411180178,-0.4035062764039369,0.5491500717402136,0.12158586325618588,0.33654802912649556,1.41961958952973,-0.14400083195734997,-0.08628160746240551,-0.7307671733692771
0.922,-0.21046906548103123,0.5065939544372391,0.7174121245835122,-0.1476526159529605,-0.46488389975613875,0.6111818873791656,0.14945400045037197,0.40689018842184926,1.3580438396917132,-0.35242193897023866,-0.22360672980164542,-0.816147772644019
0.924,-0.24227484841400124,0.5496829728100744,0.7923828121161868,-0.1525624439137518,-0.5190249152240713,0.6700778596068798,0.1875593588655909,0.502710797644156,1.2954999273932553,-0.5584747830756103,-0.3461166391494922,-0.8616667578110666
0.926,-0.2661607391651897,0.5740169270922992,0.8404225308688699,-0.15226915510627784,-0.5553877127312754,0.7060658673707861,0.2349651500634605,0.610345486411541,1.2679200538020274,-0.7025715036934859,-0.45107971678450626,-0.8927858195306753
0.928,-0.2856644819247123,0.5692261424770634,0.8548585555088755,-0.14014552892848026,-0.5721342028313811,0.7103734247002315,0.28718161657715185,0.714133255292861,1.2496150817366491,-0.7847433254828037,-0.5486118785020023,-0.9358391531700542
0.93,-0.3050448919613741,0.5355167564688184,0.8403966832054568,-0.11384598630073564,-0.5740129991615563,0.6856795671865115,0.33831046871681475,0.8048181033820444,1.171328458629597,-0.8491050699989763,-0.6594090038773734,-1.000784428737902
0.932,-0.3234205403282605,0.47732286198062285,0.8005756232700735,-0.07554754693385887,-0.562682872855655,0.6366216450318812,0.38452666128317897,0.875636565964202,0.9954650140619101,-0.9231431688446261,-0.788412249491511,-1.0774174951399071
0.934,-0.3365574776733449,0.3985642263192357,0.7349725170139461,-0.02936187196194311,-0.5359651847470215,0.5650902040016113,0.43053428459542403,0.9290101841512572,0.7678652093207865,-0.9944240679026441,-0.919484219898284,-1.1515677501277644
0.936,-0.3443036344293614,0.3033709981902956,0.6476336139694507,0.022198688055011583,-0.496164713376198,0.47443191600215945,0.48720328518793127,0.9788334510102402,0.568838921288543,-1.0410005082773677,-1.0342993441725121,-1.217366828990967
0.938,-0.3507797407395104,0.20262994480771535,0.5535774070063215,0.07564257454254746,-0.45325128631316225,0.37702007975403445,0.5554023711744652,1.034831748193199,0.4264621976742483,-1.0607610028405408,-1.1199929192068596,-1.2700279166009731
0.94,-0.35714657394036486,0.11593910375860156,0.47335973548111937,0.12189857254013156,-0.41767071204062595,0.29328738444089836,0.6164546521290566,1.0929723616641076,0.31292280325227023,-1.0637052921837966,-1.1654212839133318,-1.2985323667507995
0.942,-0.35970826919382265,0.05799959956421149,0.41796699331343606,0.15175335526028905,-0.3918378634167732,0.23662055482540187,0.647965649860019,1.1385807685269134,0.20510494682085395,-1.0535069164356554,-1.1693152936805435,-1.29671161432256
