time,I,II,III,aVR,aVL,aVF,V1,V2,V3,V4,V5,V6
0.0,-0.034,-0.112,-0.078,0.073,0.02,-0.098,-0.024,-0.078,0.0,-0.102,-0.127,-0.088
0.002,-0.034,-0.098,-0.063,0.068,0.015,-0.083,-0.024,-0.083,0.0,-0.112,-0.127,-0.088
0.004,-0.029,-0.093,-0.063,0.063,0.015,-0.078,-0.024,-0.093,0.0,-0.107,-0.132,-0.093
0.006,-0.024,-0.093,-0.068,0.059,0.02,-0.083,-0.024,-0.098,-0.005,-0.107,-0.122,-0.088
0.008,-0.024,-0.088,-0.063,0.059,0.02,-0.078,-0.029,-0.107,0.0,-0.107,-0.122,-0.093
0.01,-0.029,-0.093,-0.063,0.063,0.015,-0.078,-0.029,-0.102,-0.005,-0.112,-0.122,-0.088
0.012,-0.034,-0.093,-0.059,0.063,0.01,-0.078,-0.024,-0.102,0.0,-0.107,-0.117,-0.088
0.014,-0.029,-0.088,-0.059,0.059,0.015,-0.073,-0.024,-0.107,0.005,-0.112,-0.117,-0.088
0.016,-0.029,-0.088,-0.059,0.059,0.015,-0.073,-0.039,-0.112,0.0,-0.112,-0.117,-0.088
0.018,-0.029,-0.083,-0.054,0.059,0.01,-0.068,-0.044,-0.117,-0.01,-0.122,-0.122,-0.088
0.02,-0.029,-0.088,-0.059,0.059,0.015,-0.073,-0.039,-0.117,-0.005,-0.122,-0.127,-0.093
0.022,-0.024,-0.083,-0.059,0.054,0.015,-0.073,-0.044,-0.127,-0.01,-0.142,-0.137,-0.102
0.024,-0.029,-0.083,-0.054,0.059,0.01,-0.068,-0.034,-0.132,-0.01,-0.146,-0.137,-0.102
0.026,-0.034,-0.093,-0.059,0.063,0.01,-0.078,-0.029,-0.127,0.0,-0.142,-0.137,-0.098
0.028,-0.034,-0.102,-0.068,0.068,0.015,-0.088,-0.034,-0.132,0.005,-0.132,-0.132,-0.098
0.03,-0.034,-0.093,-0.059,0.063,0.01,-0.078,-0.024,-0.132,-0.005,-0.132,-0.127,-0.088
0.032,-0.029,-0.102,-0.073,0.068,0.02,-0.088,-0.034,-0.137,-0.01,-0.127,-0.132,-0.093
0.034,-0.02,-0.088,-0.068,0.054,0.024,-0.078,-0.034,-0.137,-0.01,-0.132,-0.132,-0.098
0.036,-0.029,-0.093,-0.063,0.063,0.015,-0.078,-0.039,-0.132,-0.01,-0.132,-0.122,-0.088
0.038,-0.029,-0.088,-0.059,0.059,0.015,-0.073,-0.039,-0.132,-0.01,-0.132,-0.132,-0.098
0.04,-0.024,-0.098,-0.073,0.063,0.024,-0.088,-0.034,-0.127,-0.005,-0.132,-0.137,-0.102
0.042,-0.029,-0.112,-0.083,0.073,0.024,-0.098,-0.024,-0.132,0.0,-0.137,-0.137,-0.102
0.044,-0.02,-0.107,-0.088,0.063,0.034,-0.098,-0.024,-0.127,-0.005,-0.142,-0.142,-0.107
0.046,-0.039,-0.107,-0.068,0.073,0.015,-0.088,-0.024,-0.132,0.0,-0.142,-0.142,-0.112
0.048,-0.049,-0.107,-0.059,0.078,0.005,-0.083,-0.034,-0.137,-0.005,-0.146,-0.146,-0.112
0.05,-0.039,-0.088,-0.049,0.063,0.005,-0.068,-0.039,-0.146,-0.015,-0.151,-0.151,-0.112
0.052,-0.039,-0.098,-0.059,0.068,0.01,-0.078,-0.034,-0.156,-0.015,-0.146,-0.137,-0.107
0.054,-0.029,-0.093,-0.063,0.063,0.015,-0.078,-0.034,-0.156,-0.02,-0.146,-0.132,-0.102
0.056,-0.024,-0.083,-0.059,0.054,0.015,-0.073,-0.034,-0.156,-0.02,-0.151,-0.142,-0.098
0.058,-0.039,-0.088,-0.049,0.063,0.005,-0.068,-0.029,-0.151,-0.029,-0.156,-0.146,-0.102
0.06,-0.029,-0.088,-0.059,0.059,0.015,-0.073,-0.024,-0.151,-0.024,-0.161,-0.156,-0.107
0.062,-0.029,-0.088,-0.059,0.059,0.015,-0.073,-0.029,-0.142,-0.024,-0.161,-0.146,-0.107
0.064,-0.024,-0.093,-0.068,0.059,0.02,-0.083,-0.024,-0.142,-0.02,-0.156,-0.142,-0.107
0.066,-0.024,-0.093,-0.068,0.059,0.02,-0.083,-0.02,-0.142,-0.015,-0.156,-0.146,-0.107
0.068,-0.029,-0.107,-0.078,0.068,0.024,-0.093,-0.015,-0.137,-0.005,-0.151,-0.142,-0.098
0.07,-0.029,-0.107,-0.078,0.068,0.024,-0.093,-0.015,-0.137,-0.01,-0.151,-0.142,-0.098
0.072,-0.024,-0.102,-0.078,0.063,0.024,-0.093,-0.029,-0.142,-0.015,-0.151,-0.146,-0.102
0.074,-0.034,-0.102,-0.068,0.068,0.015,-0.088,-0.029,-0.137,-0.015,-0.146,-0.137,-0.102
0.076,-0.029,-0.098,-0.068,0.063,0.02,-0.083,-0.029,-0.132,-0.02,-0.146,-0.137,-0.098
0.078,-0.029,-0.102,-0.073,0.068,0.02,-0.088,-0.029,-0.132,-0.015,-0.146,-0.142,-0.102
0.08,-0.024,-0.093,-0.068,0.059,0.02,-0.083,-0.034,-0.132,-0.02,-0.161,-0.146,-0.112
0.082,-0.024,-0.088,-0.063,0.059,0.02,-0.078,-0.034,-0.127,-0.015,-0.156,-0.142,-0.107
0.084,-0.024,-0.093,-0.068,0.059,0.02,-0.083,-0.039,-0.132,-0.015,-0.156,-0.142,-0.107
0.086,-0.02,-0.088,-0.068,0.054,0.024,-0.078,-0.039,-0.137,-0.02,-0.161,-0.151,-0.112
0.088,-0.02,-0.093,-0.073,0.059,0.024,-0.083,-0.044,-0.142,-0.02,-0.161,-0.146,-0.107
0.09,-0.034,-0.098,-0.063,0.068,0.015,-0.083,-0.054,-0.142,-0.015,-0.156,-0.142,-0.102
0.092,-0.029,-0.093,-0.063,0.063,0.015,-0.078,-0.054,-0.146,-0.02,-0.156,-0.142,-0.107
0.094,-0.034,-0.093,-0.059,0.063,0.01,-0.078,-0.059,-0.137,-0.02,-0.166,-0.142,-0.107
0.096,-0.034,-0.098,-0.063,0.068,0.015,-0.083,-0.059,-0.137,-0.02,-0.161,-0.142,-0.098
0.098,-0.029,-0.083,-0.054,0.059,0.01,-0.068,-0.063,-0.132,-0.02,-0.166,-0.142,-0.107
0.1,-0.029,-0.093,-0.063,0.063,0.015,-0.078,-0.068,-0.137,-0.029,-0.166,-0.151,-0.107
0.102,-0.034,-0.098,-0.063,0.068,0.015,-0.083,-0.054,-0.127,-0.02,-0.171,-0.146,-0.102
0.104,-0.029,-0.098,-0.068,0.063,0.02,-0.083,-0.054,-0.132,-0.015,-0.166,-0.142,-0.098
0.106,-0.029,-0.093,-0.063,0.063,0.015,-0.078,-0.054,-0.132,-0.01,-0.166,-0.146,-0.102
0.108,-0.024,-0.098,-0.073,0.063,0.024,-0.088,-0.054,-0.137,-0.015,-0.156,-0.137,-0.102
0.11,-0.034,-0.107,-0.073,0.073,0.02,-0.093,-0.054,-0.142,-0.015,-0.156,-0.132,-0.102
0.112,-0.029,-0.107,-0.078,0.068,0.024,-0.093,-0.059,-0.146,-0.02,-0.151,-0.127,-0.102
0.114,-0.029,-0.102,-0.073,0.068,0.02,-0.088,-0.059,-0.146,-0.015,-0.151,-0.137,-0.098
0.116,-0.029,-0.107,-0.078,0.068,0.024,-0.093,-0.063,-0.151,-0.02,-0.156,-0.132,-0.102
0.118,-0.034,-0.107,-0.073,0.073,0.02,-0.093,-0.059,-0.156,-0.015,-0.156,-0.137,-0.107
0.12,-0.029,-0.088,-0.059,0.059,0.015,-0.073,-0.059,-0.156,-0.02,-0.156,-0.142,-0.112
0.122,-0.034,-0.093,-0.059,0.063,0.01,-0.078,-0.054,-0.161,-0.02,-0.161,-0.142,-0.112
0.124,-0.024,-0.088,-0.063,0.059,0.02,-0.078,-0.054,-0.171,-0.029,-0.171,-0.146,-0.117
0.126,-0.029,-0.093,-0.063,0.063,0.015,-0.078,-0.049,-0.176,-0.024,-0.166,-0.137,-0.112
0.128,-0.034,-0.098,-0.063,0.068,0.015,-0.083,-0.044,-0.176,-0.02,-0.156,-0.127,-0.102
0.13,-0.029,-0.088,-0.059,0.059,0.015,-0.073,-0.049,-0.181,-0.024,-0.151,-0.127,-0.102
0.132,-0.034,-0.083,-0.049,0.059,0.005,-0.068,-0.049,-0.195,-0.029,-0.146,-0.127,-0.102
0.134,-0.039,-0.093,-0.054,0.068,0.005,-0.073,-0.049,-0.195,-0.029,-0.142,-0.127,-0.102
0.136,-0.029,-0.088,-0.059,0.059,0.015,-0.073,-0.059,-0.2,-0.029,-0.142,-0.117,-0.093
0.138,-0.029,-0.098,-0.068,0.063,0.02,-0.083,-0.059,-0.205,-0.034,-0.146,-0.132,-0.102
0.14,-0.024,-0.093,-0.068,0.059,0.02,-0.083,-0.054,-0.195,-0.029,-0.142,-0.127,-0.107
0.142,-0.029,-0.093,-0.063,0.063,0.015,-0.078,-0.049,-0.195,-0.034,-0.146,-0.132,-0.112
0.144,-0.034,-0.093,-0.059,0.063,0.01,-0.078,-0.044,-0.2,-0.034,-0.146,-0.127,-0.107
0.146,-0.02,-0.093,-0.073,0.059,0.024,-0.083,-0.044,-0.2,-0.029,-0.137,-0.127,-0.107
0.148,-0.024,-0.098,-0.073,0.063,0.024,-0.088,-0.044,-0.205,-0.039,-0.137,-0.132,-0.102
0.15,-0.024,-0.093,-0.068,0.059,0.02,-0.083,-0.044,-0.205,-0.039,-0.142,-0.132,-0.102
0.152,-0.029,-0.098,-0.068,0.063,0.02,-0.083,-0.039,-0.205,-0.039,-0.132,-0.127,-0.098
0.154,-0.034,-0.098,-0.063,0.068,0.015,-0.083,-0.049,-0.205,-0.044,-0.132,-0.122,-0.102
0.156,-0.034,-0.098,-0.063,0.068,0.015,-0.083,-0.049,-0.205,-0.044,-0.127,-0.122,-0.102
0.158,-0.039,-0.098,-0.059,0.068,0.01,-0.078,-0.049,-0.21,-0.044,-0.137,-0.127,-0.102
0.16,-0.039,-0.088,-0.049,0.063,0.005,-0.068,-0.054,-0.2,-0.044,-0.137,-0.132,-0.102
0.162,-0.024,-0.078,-0.054,0.054,0.015,-0.068,-0.044,-0.2,-0.039,-0.142,-0.127,-0.102
0.164,-0.024,-0.068,-0.044,0.049,0.01,-0.059,-0.044,-0.205,-0.034,-0.132,-0.117,-0.098
0.166,-0.02,-0.063,-0.044,0.044,0.01,-0.054,-0.049,-0.21,-0.034,-0.127,-0.112,-0.098
0.168,-0.02,-0.054,-0.034,0.039,0.005,-0.044,-0.029,-0.205,-0.024,-0.112,-0.102,-0.083
0.17,-0.024,-0.054,-0.029,0.039,0.0,-0.044,-0.029,-0.195,-0.02,-0.107,-0.098,-0.078
0.172,-0.01,-0.034,-0.024,0.024,0.005,-0.029,-0.029,-0.205,-0.02,-0.102,-0.093,-0.078
0.174,-0.015,-0.02,-0.005,0.02,-0.005,-0.015,-0.02,-0.195,-0.01,-0.083,-0.083,-0.068
0.176,-0.02,-0.029,-0.01,0.024,-0.005,-0.02,-0.01,-0.19,-0.005,-0.083,-0.073,-0.059
0.178,-0.02,-0.034,-0.015,0.029,-0.005,-0.024,-0.01,-0.195,-0.01,-0.088,-0.083,-0.063
0.18,-0.024,-0.044,-0.02,0.034,-0.005,-0.034,-0.01,-0.195,-0.015,-0.093,-0.083,-0.073
0.182,-0.02,-0.029,-0.01,0.024,-0.005,-0.02,0.0,-0.19,-0.015,-0.088,-0.088,-0.073
0.184,-0.015,-0.024,-0.01,0.02,-0.005,-0.02,0.0,-0.195,-0.015,-0.088,-0.088,-0.068
0.186,-0.02,-0.034,-0.015,0.029,-0.005,-0.024,0.015,-0.185,-0.005,-0.083,-0.088,-0.068
0.188,-0.02,-0.029,-0.01,0.024,-0.005,-0.02,0.02,-0.176,0.005,-0.068,-0.083,-0.059
0.19,-0.005,-0.024,-0.02,0.015,0.005,-0.024,0.01,-0.185,0.0,-0.073,-0.083,-0.063
0.192,-0.01,-0.024,-0.015,0.02,0.0,-0.02,0.0,-0.185,-0.005,-0.078,-0.078,-0.059
0.194,-0.01,-0.02,-0.01,0.015,0.0,-0.015,-0.024,-0.21,-0.024,-0.083,-0.088,-0.073
0.196,-0.02,-0.024,-0.005,0.024,-0.01,-0.015,-0.044,-0.239,-0.054,-0.098,-0.098,-0.083
0.198,-0.02,-0.034,-0.015,0.029,-0.005,-0.024,-0.039,-0.239,-0.049,-0.102,-0.088,-0.083
0.2,-0.015,-0.029,-0.015,0.024,0.0,-0.024,-0.034,-0.234,-0.049,-0.102,-0.088,-0.083
0.202,-0.02,-0.015,0.005,0.02,-0.015,-0.005,-0.024,-0.224,-0.044,-0.098,-0.088,-0.078
0.204,-0.01,-0.005,0.005,0.01,-0.01,0.0,-0.024,-0.224,-0.039,-0.093,-0.083,-0.078
0.206,-0.005,0.015,0.02,-0.005,-0.015,0.015,-0.029,-0.22,-0.029,-0.078,-0.068,-0.059
0.208,0.005,0.024,0.02,-0.015,-0.01,0.02,-0.029,-0.21,-0.024,-0.068,-0.063,-0.059
0.21,0.015,0.034,0.02,-0.024,-0.005,0.024,-0.029,-0.195,-0.02,-0.059,-0.059,-0.049
0.212,0.02,0.029,0.01,-0.024,0.005,0.02,-0.039,-0.195,-0.024,-0.063,-0.054,-0.044
0.214,0.029,0.039,0.01,-0.034,0.01,0.024,-0.044,-0.185,-0.024,-0.054,-0.049,-0.039
0.216,0.029,0.029,0.0,-0.029,0.015,0.015,-0.044,-0.19,-0.044,-0.068,-0.059,-0.049
0.218,0.024,0.01,-0.015,-0.015,0.02,-0.005,-0.049,-0.195,-0.054,-0.078,-0.059,-0.049
0.22,0.02,0.0,-0.02,-0.01,0.02,-0.01,-0.034,-0.181,-0.054,-0.083,-0.063,-0.049
0.222,0.005,0.0,-0.005,0.0,0.005,-0.005,-0.029,-0.166,-0.063,-0.083,-0.073,-0.063
0.224,0.01,-0.005,-0.015,0.0,0.01,-0.01,-0.015,-0.161,-0.054,-0.083,-0.063,-0.063
0.226,0.01,-0.02,-0.029,0.005,0.02,-0.024,-0.015,-0.161,-0.059,-0.088,-0.054,-0.063
0.228,0.005,-0.034,-0.039,0.015,0.02,-0.039,-0.005,-0.146,-0.054,-0.088,-0.073,-0.063
0.23,0.005,-0.044,-0.049,0.02,0.024,-0.049,0.005,-0.137,-0.044,-0.068,-0.049,-0.054
0.232,0.005,-0.049,-0.054,0.024,0.029,-0.054,0.005,-0.137,-0.044,-0.063,-0.034,-0.044
0.234,0.005,-0.049,-0.054,0.024,0.029,-0.054,-0.005,-0.132,-0.049,-0.063,-0.049,-0.044
0.236,0.015,-0.034,-0.049,0.01,0.029,-0.044,0.0,-0.137,-0.049,-0.063,-0.049,-0.039
0.238,0.01,-0.029,-0.039,0.01,0.024,-0.034,-0.005,-0.132,-0.059,-0.063,-0.049,-0.034
0.24,0.005,-0.029,-0.034,0.015,0.02,-0.034,-0.01,-0.137,-0.073,-0.083,-0.063,-0.044
0.242,0.01,-0.044,-0.054,0.02,0.029,-0.049,0.0,-0.132,-0.073,-0.088,-0.073,-0.054
0.244,-0.005,-0.063,-0.059,0.034,0.024,-0.063,0.0,-0.132,-0.078,-0.093,-0.078,-0.068
0.246,0.0,-0.068,-0.068,0.034,0.034,-0.068,0.0,-0.132,-0.083,-0.107,-0.088,-0.068
0.248,-0.005,-0.078,-0.073,0.044,0.034,-0.078,-0.005,-0.132,-0.093,-0.117,-0.102,-0.073
0.25,-0.01,-0.098,-0.088,0.054,0.039,-0.093,-0.005,-0.127,-0.102,-0.122,-0.107,-0.078
0.252,-0.01,-0.098,-0.088,0.054,0.039,-0.093,-0.005,-0.137,-0.122,-0.132,-0.122,-0.083
0.254,-0.02,-0.107,-0.088,0.063,0.034,-0.098,-0.01,-0.142,-0.142,-0.146,-0.132,-0.098
0.256,-0.029,-0.107,-0.078,0.068,0.024,-0.093,0.005,-0.137,-0.142,-0.146,-0.127,-0.102
0.258,-0.044,-0.102,-0.059,0.073,0.005,-0.083,0.015,-0.122,-0.137,-0.142,-0.122,-0.098
0.26,-0.044,-0.107,-0.063,0.078,0.01,-0.088,0.015,-0.127,-0.137,-0.146,-0.117,-0.102
0.262,-0.034,-0.107,-0.073,0.073,0.02,-0.093,0.02,-0.117,-0.132,-0.142,-0.122,-0.102
0.264,-0.034,-0.112,-0.078,0.073,0.02,-0.098,0.024,-0.112,-0.122,-0.142,-0.122,-0.098
0.266,-0.039,-0.122,-0.083,0.083,0.02,-0.102,0.02,-0.117,-0.122,-0.146,-0.122,-0.098
0.268,-0.029,-0.112,-0.083,0.073,0.024,-0.098,0.024,-0.107,-0.117,-0.142,-0.122,-0.093
0.27,-0.024,-0.112,-0.088,0.068,0.029,-0.102,0.02,-0.112,-0.127,-0.142,-0.127,-0.102
0.272,-0.029,-0.107,-0.078,0.068,0.024,-0.093,0.01,-0.112,-0.127,-0.142,-0.127,-0.102
0.274,-0.029,-0.102,-0.073,0.068,0.02,-0.088,0.01,-0.107,-0.127,-0.142,-0.122,-0.098
0.276,-0.039,-0.117,-0.078,0.078,0.02,-0.098,0.015,-0.098,-0.132,-0.146,-0.127,-0.102
0.278,-0.034,-0.107,-0.073,0.073,0.02,-0.093,0.02,-0.102,-0.137,-0.146,-0.132,-0.107
0.28,-0.039,-0.107,-0.068,0.073,0.015,-0.088,0.02,-0.102,-0.137,-0.146,-0.127,-0.102
0.282,-0.034,-0.102,-0.068,0.068,0.015,-0.088,0.024,-0.102,-0.137,-0.146,-0.137,-0.107
0.284,-0.034,-0.102,-0.068,0.068,0.015,-0.088,0.029,-0.102,-0.137,-0.146,-0.132,-0.102
0.286,-0.034,-0.107,-0.073,0.073,0.02,-0.093,0.029,-0.102,-0.137,-0.146,-0.122,-0.102
0.288,-0.034,-0.112,-0.078,0.073,0.02,-0.098,0.034,-0.098,-0.137,-0.146,-0.122,-0.102
0.29,-0.034,-0.112,-0.078,0.073,0.02,-0.098,0.039,-0.088,-0.132,-0.137,-0.127,-0.102
0.292,-0.039,-0.117,-0.078,0.078,0.02,-0.098,0.039,-0.093,-0.137,-0.137,-0.127,-0.098
0.294,-0.034,-0.117,-0.083,0.078,0.024,-0.102,0.039,-0.083,-0.137,-0.127,-0.127,-0.093
0.296,-0.039,-0.127,-0.088,0.083,0.024,-0.107,0.044,-0.088,-0.142,-0.117,-0.127,-0.093
0.298,-0.039,-0.122,-0.083,0.083,0.02,-0.102,0.029,-0.088,-0.146,-0.132,-0.127,-0.102
0.3,-0.034,-0.102,-0.068,0.068,0.015,-0.088,0.02,-0.093,-0.146,-0.137,-0.132,-0.102
0.302,-0.034,-0.107,-0.073,0.073,0.02,-0.093,0.015,-0.083,-0.142,-0.137,-0.137,-0.107
0.304,-0.034,-0.112,-0.078,0.073,0.02,-0.098,0.01,-0.093,-0.146,-0.137,-0.142,-0.107
0.306,-0.039,-0.107,-0.068,0.073,0.015,-0.088,0.015,-0.088,-0.142,-0.137,-0.132,-0.102
0.308,-0.049,-0.112,-0.063,0.083,0.005,-0.088,0.015,-0.083,-0.137,-0.132,-0.132,-0.102
0.31,-0.039,-0.107,-0.068,0.073,0.015,-0.088,0.015,-0.078,-0.137,-0.127,-0.132,-0.098
0.312,-0.034,-0.107,-0.073,0.073,0.02,-0.093,0.01,-0.098,-0.137,-0.137,-0.132,-0.098
0.314,-0.029,-0.098,-0.068,0.063,0.02,-0.083,0.0,-0.102,-0.142,-0.137,-0.142,-0.102
0.316,-0.034,-0.112,-0.078,0.073,0.02,-0.098,0.015,-0.088,-0.137,-0.137,-0.142,-0.102
0.318,-0.044,-0.127,-0.083,0.088,0.02,-0.107,0.024,-0.073,-0.127,-0.132,-0.146,-0.102
0.32,-0.044,-0.117,-0.073,0.083,0.015,-0.098,0.044,-0.049,-0.107,-0.127,-0.146,-0.107
0.322,-0.039,-0.137,-0.098,0.088,0.029,-0.117,0.078,0.005,-0.063,-0.112,-0.142,-0.127
0.324,-0.034,-0.146,-0.112,0.093,0.039,-0.132,0.102,0.063,-0.015,-0.098,-0.156,-0.142
0.326,-0.015,-0.161,-0.146,0.088,0.063,-0.156,0.142,0.161,0.059,-0.068,-0.166,-0.142
0.328,0.0,-0.176,-0.176,0.088,0.088,-0.176,0.195,0.283,0.156,-0.024,-0.156,-0.161
0.33,0.02,-0.166,-0.185,0.073,0.102,-0.176,0.249,0.4,0.264,0.034,-0.151,-0.161
0.332,0.049,-0.132,-0.181,0.044,0.112,-0.156,0.273,0.483,0.371,0.107,-0.122,-0.142
0.334,0.063,-0.078,-0.142,0.01,0.102,-0.112,0.298,0.522,0.449,0.205,-0.049,-0.093
0.336,0.093,-0.01,-0.102,-0.039,0.098,-0.059,0.317,0.561,0.547,0.317,0.034,-0.029
0.338,0.142,0.078,-0.063,-0.107,0.102,0.005,0.337,0.61,0.664,0.444,0.171,0.063
0.34,0.181,0.156,-0.024,-0.166,0.102,0.063,0.322,0.61,0.732,0.561,0.298,0.176
0.342,0.244,0.21,-0.034,-0.224,0.137,0.088,0.332,0.669,0.825,0.678,0.434,0.293
0.344,0.298,0.268,-0.029,-0.283,0.161,0.117,0.332,0.717,0.981,0.893,0.664,0.449
0.346,0.361,0.303,-0.059,-0.332,0.21,0.122,0.259,0.634,1.005,1.098,0.898,0.639
0.348,0.405,0.361,-0.044,-0.381,0.224,0.156,0.117,0.381,0.815,1.161,1.103,0.81
0.35,0.42,0.512,0.093,-0.464,0.161,0.303,-0.102,-0.049,0.498,1.215,1.332,1.02
0.352,0.395,0.698,0.303,-0.547,0.044,0.498,-0.273,-0.434,0.2,1.279,1.552,1.21
0.354,0.278,0.834,0.556,-0.556,-0.142,0.693,-0.346,-0.732,-0.059,1.279,1.635,1.288
0.356,0.132,0.888,0.756,-0.508,-0.312,0.82,-0.4,-0.961,-0.288,1.186,1.542,1.24
0.358,0.02,0.722,0.703,-0.371,-0.342,0.712,-0.327,-0.952,-0.371,1.02,1.249,0.996
0.36,-0.098,0.503,0.6,-0.2,-0.351,0.551,-0.19,-0.844,-0.425,0.815,0.908,0.703
0.362,-0.171,0.366,0.537,-0.098,-0.356,0.449,-0.146,-0.8,-0.605,0.527,0.586,0.459
0.364,-0.234,0.303,0.537,-0.034,-0.386,0.42,-0.176,-0.825,-0.859,0.166,0.273,0.264
0.366,-0.312,0.254,0.566,0.029,-0.439,0.41,-0.239,-0.869,-1.108,-0.259,-0.088,0.044
0.368,-0.337,0.176,0.512,0.083,-0.425,0.342,-0.312,-0.844,-1.259,-0.63,-0.42,-0.166
0.37,-0.312,0.098,0.41,0.107,-0.361,0.254,-0.4,-0.791,-1.337,-0.883,-0.61,-0.293
0.372,-0.268,0.034,0.303,0.117,-0.288,0.166,-0.483,-0.781,-1.396,-1.039,-0.688,-0.337
0.374,-0.215,-0.024,0.19,0.122,-0.205,0.083,-0.508,-0.747,-1.342,-1.02,-0.669,-0.337
0.376,-0.195,-0.078,0.117,0.137,-0.156,0.02,-0.473,-0.654,-1.191,-0.908,-0.605,-0.322
0.378,-0.161,-0.132,0.029,0.146,-0.098,-0.054,-0.41,-0.522,-0.986,-0.756,-0.532,-0.288
0.38,-0.122,-0.146,-0.024,0.137,-0.049,-0.088,-0.361,-0.425,-0.82,-0.63,-0.459,-0.254
0.382,-0.098,-0.142,-0.044,0.122,-0.029,-0.093,-0.303,-0.346,-0.688,-0.542,-0.41,-0.22
0.384,-0.073,-0.102,-0.029,0.088,-0.024,-0.068,-0.259,-0.298,-0.581,-0.454,-0.356,-0.181
0.386,-0.068,-0.083,-0.015,0.078,-0.029,-0.049,-0.22,-0.278,-0.488,-0.386,-0.312,-0.156
0.388,-0.063,-0.063,0.0,0.063,-0.034,-0.034,-0.176,-0.224,-0.405,-0.327,-0.273,-0.132
0.39,-0.054,-0.049,0.005,0.054,-0.029,-0.024,-0.112,-0.146,-0.303,-0.259,-0.234,-0.112
0.392,-0.044,-0.049,-0.005,0.049,-0.02,-0.029,-0.049,-0.088,-0.22,-0.2,-0.195,-0.083
0.394,-0.039,-0.039,0.0,0.039,-0.02,-0.02,0.01,-0.034,-0.161,-0.156,-0.166,-0.063
0.396,-0.034,-0.034,0.0,0.034,-0.02,-0.02,0.039,0.005,-0.117,-0.122,-0.146,-0.059
0.398,-0.034,-0.044,-0.01,0.039,-0.015,-0.029,0.059,0.024,-0.083,-0.098,-0.132,-0.049
0.4,-0.02,-0.039,-0.02,0.029,0.0,-0.029,0.059,0.029,-0.078,-0.093,-0.122,-0.039
0.402,-0.02,-0.039,-0.02,0.029,0.0,-0.029,0.063,0.034,-0.073,-0.088,-0.127,-0.044
0.404,-0.024,-0.044,-0.02,0.034,-0.005,-0.034,0.078,0.049,-0.054,-0.088,-0.122,-0.039
0.406,-0.015,-0.034,-0.02,0.024,0.0,-0.029,0.083,0.054,-0.039,-0.078,-0.117,-0.044
0.408,-0.02,-0.029,-0.01,0.024,-0.005,-0.02,0.088,0.063,-0.034,-0.083,-0.117,-0.039
0.41,-0.015,-0.034,-0.02,0.024,0.0,-0.029,0.093,0.068,-0.02,-0.078,-0.127,-0.044
0.412,-0.02,-0.034,-0.015,0.029,-0.005,-0.024,0.093,0.068,-0.01,-0.063,-0.117,-0.039
0.414,-0.02,-0.044,-0.024,0.034,0.0,-0.034,0.093,0.073,-0.01,-0.059,-0.112,-0.034
0.416,-0.015,-0.044,-0.029,0.029,0.005,-0.039,0.098,0.068,0.0,-0.054,-0.112,-0.034
0.418,-0.015,-0.039,-0.024,0.029,0.005,-0.034,0.093,0.068,0.0,-0.044,-0.112,-0.034
0.42,-0.01,-0.029,-0.02,0.02,0.005,-0.024,0.093,0.068,0.0,-0.034,-0.102,-0.024
0.422,-0.005,-0.024,-0.02,0.015,0.005,-0.024,0.093,0.078,0.01,-0.034,-0.098,-0.02
0.424,-0.005,-0.034,-0.029,0.02,0.01,-0.034,0.093,0.083,0.01,-0.034,-0.098,-0.024
0.426,-0.005,-0.034,-0.029,0.02,0.01,-0.034,0.098,0.083,0.015,-0.029,-0.098,-0.02
0.428,-0.005,-0.034,-0.029,0.02,0.01,-0.034,0.098,0.098,0.024,-0.029,-0.088,-0.015
0.43,-0.01,-0.044,-0.034,0.029,0.01,-0.039,0.102,0.098,0.044,-0.029,-0.098,-0.02
0.432,-0.005,-0.044,-0.039,0.024,0.015,-0.044,0.112,0.102,0.044,-0.02,-0.088,-0.015
0.434,-0.015,-0.044,-0.029,0.029,0.005,-0.039,0.102,0.098,0.044,-0.02,-0.088,-0.015
0.436,-0.01,-0.039,-0.029,0.024,0.01,-0.034,0.098,0.098,0.049,-0.02,-0.078,-0.015
0.438,0.005,-0.02,-0.024,0.01,0.015,-0.024,0.098,0.093,0.044,-0.015,-0.078,-0.02
0.44,0.0,-0.015,-0.015,0.01,0.005,-0.015,0.093,0.093,0.044,-0.015,-0.068,-0.015
0.442,-0.005,-0.005,0.0,0.005,-0.005,-0.005,0.093,0.093,0.039,-0.02,-0.078,-0.024
0.444,0.0,0.0,0.0,0.0,0.0,0.0,0.093,0.098,0.044,-0.02,-0.093,-0.024
0.446,0.0,-0.01,-0.01,0.005,0.005,-0.01,0.093,0.102,0.044,-0.01,-0.088,-0.02
0.448,0.01,0.0,-0.01,-0.005,0.01,-0.005,0.102,0.122,0.054,-0.015,-0.083,-0.015
0.45,0.0,-0.005,-0.005,0.005,0.0,-0.005,0.107,0.137,0.068,-0.01,-0.083,-0.015
0.452,-0.005,-0.02,-0.015,0.015,0.005,-0.02,0.117,0.142,0.073,0.0,-0.078,-0.015
0.454,-0.005,-0.02,-0.015,0.015,0.005,-0.02,0.122,0.146,0.078,0.005,-0.068,-0.01
0.456,-0.01,-0.029,-0.02,0.02,0.005,-0.024,0.122,0.151,0.088,0.01,-0.068,-0.01
0.458,0.0,-0.02,-0.02,0.01,0.01,-0.02,0.127,0.156,0.093,0.02,-0.063,-0.005
0.46,0.0,-0.01,-0.01,0.005,0.005,-0.01,0.122,0.156,0.088,0.02,-0.054,0.0
0.462,-0.01,-0.01,0.0,0.01,-0.005,-0.005,0.127,0.161,0.088,0.02,-0.054,0.0
0.464,0.0,-0.015,-0.015,0.01,0.005,-0.015,0.132,0.171,0.093,0.024,-0.039,0.0
0.466,-0.005,-0.005,0.0,0.005,-0.005,-0.005,0.137,0.181,0.102,0.034,-0.039,0.01
0.468,0.005,0.005,0.0,-0.005,0.0,0.0,0.137,0.185,0.102,0.029,-0.044,0.01
0.47,0.005,0.005,0.0,-0.005,0.0,0.0,0.146,0.2,0.122,0.039,-0.034,0.01
0.472,0.0,-0.005,-0.005,0.005,0.0,-0.005,0.151,0.205,0.127,0.044,-0.029,0.02
0.474,0.005,-0.005,-0.01,0.0,0.005,-0.01,0.156,0.215,0.132,0.049,-0.02,0.029
0.476,0.015,0.005,-0.01,-0.01,0.01,-0.005,0.161,0.224,0.142,0.059,-0.015,0.029
0.478,0.015,0.0,-0.015,-0.005,0.015,-0.01,0.156,0.224,0.137,0.063,-0.02,0.029
0.48,0.01,0.01,0.0,-0.01,0.005,0.005,0.156,0.224,0.137,0.068,-0.005,0.039
0.482,0.015,0.005,-0.01,-0.01,0.01,-0.005,0.146,0.234,0.146,0.068,-0.01,0.039
0.484,0.01,0.01,0.0,-0.01,0.005,0.005,0.146,0.239,0.151,0.078,-0.01,0.039
0.486,0.01,0.015,0.005,-0.01,0.0,0.01,0.156,0.249,0.161,0.083,-0.005,0.049
0.488,0.015,0.015,0.0,-0.015,0.005,0.005,0.151,0.259,0.161,0.078,-0.005,0.044
0.49,0.02,0.024,0.005,-0.02,0.005,0.015,0.156,0.268,0.171,0.088,0.0,0.049
0.492,0.02,0.02,0.0,-0.02,0.01,0.01,0.151,0.278,0.19,0.098,0.02,0.054
0.494,0.015,0.024,0.01,-0.02,0.0,0.015,0.151,0.283,0.195,0.107,0.024,0.054
0.496,0.024,0.029,0.005,-0.024,0.01,0.015,0.151,0.303,0.205,0.112,0.02,0.059
0.498,0.02,0.029,0.01,-0.024,0.005,0.02,0.156,0.307,0.205,0.122,0.02,0.059
0.5,0.024,0.039,0.015,-0.029,0.005,0.024,0.151,0.298,0.205,0.127,0.034,0.068
0.502,0.024,0.044,0.02,-0.034,0.0,0.029,0.156,0.303,0.21,0.132,0.034,0.073
0.504,0.01,0.034,0.024,-0.02,-0.01,0.029,0.156,0.303,0.215,0.137,0.029,0.068
0.506,0.02,0.044,0.024,-0.029,-0.005,0.034,0.161,0.307,0.229,0.146,0.039,0.073
0.508,0.024,0.044,0.02,-0.034,0.0,0.029,0.166,0.317,0.249,0.151,0.049,0.078
0.51,0.02,0.039,0.02,-0.029,0.0,0.029,0.166,0.317,0.254,0.151,0.044,0.073
0.512,0.029,0.044,0.015,-0.034,0.005,0.029,0.176,0.327,0.268,0.166,0.059,0.083
0.514,0.029,0.049,0.02,-0.039,0.005,0.034,0.176,0.327,0.278,0.176,0.068,0.093
0.516,0.034,0.063,0.029,-0.049,0.0,0.044,0.181,0.332,0.293,0.185,0.078,0.102
0.518,0.039,0.068,0.029,-0.054,0.005,0.049,0.181,0.332,0.298,0.195,0.093,0.107
0.52,0.039,0.068,0.029,-0.054,0.005,0.049,0.181,0.327,0.298,0.2,0.098,0.117
0.522,0.044,0.073,0.029,-0.059,0.005,0.049,0.181,0.332,0.307,0.215,0.102,0.122
0.524,0.034,0.073,0.039,-0.054,-0.005,0.054,0.181,0.337,0.322,0.22,0.107,0.117
0.526,0.034,0.083,0.049,-0.059,-0.01,0.063,0.181,0.337,0.337,0.234,0.112,0.122
0.528,0.049,0.088,0.039,-0.068,0.005,0.063,0.176,0.356,0.351,0.244,0.127,0.132
0.53,0.044,0.088,0.044,-0.063,0.0,0.063,0.181,0.361,0.371,0.249,0.137,0.132
0.532,0.044,0.088,0.044,-0.063,0.0,0.063,0.181,0.366,0.381,0.264,0.132,0.137
0.534,0.049,0.098,0.049,-0.073,0.0,0.073,0.185,0.371,0.39,0.273,0.146,0.151
0.536,0.054,0.107,0.054,-0.078,0.0,0.078,0.181,0.381,0.4,0.283,0.151,0.161
0.538,0.063,0.122,0.059,-0.093,0.0,0.088,0.185,0.386,0.42,0.303,0.171,0.171
0.54,0.063,0.137,0.073,-0.098,-0.005,0.102,0.176,0.386,0.415,0.307,0.19,0.181
0.542,0.063,0.137,0.073,-0.098,-0.005,0.102,0.176,0.4,0.429,0.317,0.195,0.19
0.544,0.073,0.142,0.068,-0.107,0.0,0.102,0.185,0.405,0.444,0.342,0.215,0.205
0.546,0.068,0.151,0.083,-0.107,-0.01,0.117,0.185,0.405,0.454,0.346,0.215,0.21
0.548,0.068,0.146,0.078,-0.107,-0.005,0.112,0.185,0.41,0.459,0.356,0.229,0.22
0.55,0.063,0.151,0.088,-0.107,-0.015,0.117,0.185,0.415,0.483,0.366,0.234,0.22
0.552,0.068,0.156,0.088,-0.112,-0.01,0.122,0.181,0.405,0.478,0.376,0.234,0.22
0.554,0.078,0.171,0.093,-0.122,-0.01,0.132,0.176,0.415,0.493,0.39,0.259,0.239
0.556,0.083,0.181,0.098,-0.132,-0.01,0.137,0.171,0.415,0.493,0.4,0.264,0.239
0.558,0.083,0.185,0.102,-0.132,-0.01,0.142,0.171,0.41,0.503,0.41,0.268,0.244
0.56,0.088,0.2,0.112,-0.142,-0.015,0.156,0.171,0.41,0.503,0.42,0.283,0.259
0.562,0.088,0.2,0.112,-0.142,-0.015,0.156,0.156,0.405,0.498,0.415,0.283,0.264
0.564,0.088,0.195,0.107,-0.142,-0.01,0.151,0.156,0.4,0.498,0.425,0.298,0.273
0.566,0.093,0.205,0.112,-0.146,-0.01,0.156,0.156,0.4,0.498,0.429,0.303,0.273
0.568,0.088,0.205,0.117,-0.146,-0.015,0.161,0.146,0.4,0.493,0.429,0.307,0.283
0.57,0.093,0.215,0.122,-0.151,-0.015,0.166,0.142,0.395,0.498,0.429,0.303,0.278
0.572,0.083,0.205,0.122,-0.142,-0.02,0.161,0.137,0.39,0.493,0.439,0.307,0.283
0.574,0.083,0.21,0.127,-0.146,-0.024,0.166,0.132,0.39,0.488,0.439,0.317,0.293
0.576,0.088,0.224,0.137,-0.156,-0.024,0.181,0.127,0.386,0.483,0.434,0.322,0.298
0.578,0.088,0.215,0.127,-0.151,-0.02,0.171,0.117,0.381,0.473,0.434,0.317,0.303
0.58,0.093,0.22,0.127,-0.156,-0.02,0.171,0.112,0.376,0.464,0.439,0.327,0.312
0.582,0.093,0.229,0.137,-0.161,-0.024,0.181,0.102,0.366,0.449,0.429,0.342,0.312
0.584,0.088,0.229,0.142,-0.156,-0.029,0.185,0.098,0.351,0.439,0.42,0.317,0.303
0.586,0.102,0.239,0.137,-0.171,-0.02,0.185,0.093,0.337,0.429,0.415,0.317,0.298
0.588,0.098,0.239,0.142,-0.166,-0.024,0.19,0.083,0.327,0.415,0.4,0.307,0.293
0.59,0.088,0.229,0.142,-0.156,-0.029,0.185,0.083,0.317,0.415,0.4,0.307,0.293
0.592,0.088,0.229,0.142,-0.156,-0.029,0.185,0.078,0.303,0.405,0.4,0.307,0.298
0.594,0.073,0.22,0.146,-0.146,-0.039,0.181,0.073,0.288,0.39,0.39,0.303,0.303
0.596,0.073,0.224,0.151,-0.146,-0.039,0.185,0.059,0.268,0.376,0.381,0.298,0.293
0.598,0.078,0.224,0.146,-0.151,-0.034,0.185,0.049,0.249,0.361,0.381,0.298,0.298
0.6,0.078,0.229,0.151,-0.151,-0.039,0.19,0.039,0.229,0.337,0.371,0.288,0.293
0.602,0.083,0.239,0.156,-0.161,-0.039,0.195,0.029,0.215,0.317,0.351,0.278,0.283
0.604,0.073,0.244,0.171,-0.156,-0.049,0.205,0.024,0.19,0.303,0.337,0.268,0.273
0.606,0.073,0.234,0.161,-0.151,-0.044,0.195,0.02,0.181,0.303,0.337,0.268,0.278
0.608,0.068,0.229,0.161,-0.146,-0.049,0.195,0.024,0.166,0.278,0.322,0.259,0.273
0.61,0.068,0.22,0.151,-0.142,-0.044,0.185,0.02,0.151,0.264,0.303,0.239,0.259
0.612,0.068,0.21,0.142,-0.137,-0.039,0.176,0.024,0.132,0.254,0.303,0.229,0.259
0.614,0.068,0.215,0.146,-0.142,-0.039,0.181,0.02,0.117,0.234,0.288,0.229,0.259
0.616,0.059,0.21,0.151,-0.132,-0.049,0.181,0.02,0.102,0.21,0.268,0.215,0.249
0.618,0.059,0.2,0.142,-0.127,-0.044,0.171,0.01,0.078,0.19,0.259,0.2,0.229
0.62,0.049,0.185,0.137,-0.117,-0.044,0.161,0.005,0.059,0.161,0.244,0.185,0.224
0.622,0.044,0.166,0.122,-0.102,-0.039,0.142,0.0,0.044,0.151,0.224,0.171,0.21
0.624,0.044,0.171,0.127,-0.107,-0.044,0.146,-0.005,0.024,0.132,0.21,0.151,0.2
0.626,0.039,0.151,0.112,-0.093,-0.039,0.132,-0.005,0.015,0.112,0.2,0.142,0.195
0.628,0.049,0.156,0.107,-0.102,-0.029,0.132,-0.01,0.01,0.098,0.176,0.127,0.181
0.63,0.034,0.137,0.102,-0.083,-0.034,0.117,-0.005,-0.01,0.083,0.156,0.107,0.161
0.632,0.024,0.117,0.093,-0.068,-0.034,0.102,-0.005,-0.024,0.068,0.142,0.093,0.151
0.634,0.029,0.117,0.088,-0.073,-0.029,0.102,-0.005,-0.034,0.059,0.132,0.083,0.146
0.636,0.024,0.102,0.078,-0.063,-0.029,0.088,-0.015,-0.049,0.039,0.117,0.073,0.132
0.638,0.02,0.093,0.073,-0.054,-0.029,0.083,-0.02,-0.068,0.029,0.102,0.049,0.122
0.64,0.015,0.083,0.068,-0.049,-0.029,0.073,-0.034,-0.083,0.01,0.088,0.054,0.117
0.642,0.01,0.073,0.063,-0.039,-0.029,0.068,-0.044,-0.093,-0.01,0.063,0.015,0.098
0.644,0.01,0.078,0.068,-0.044,-0.029,0.073,-0.049,-0.102,-0.024,0.049,0.0,0.088
0.646,0.01,0.068,0.059,-0.039,-0.024,0.063,-0.049,-0.102,-0.029,0.039,-0.01,0.083
0.648,0.005,0.059,0.054,-0.029,-0.024,0.054,-0.054,-0.107,-0.049,0.02,-0.024,0.068
0.65,0.005,0.049,0.044,-0.024,-0.02,0.044,-0.054,-0.112,-0.059,0.005,-0.039,0.059
0.652,-0.005,0.034,0.039,-0.015,-0.024,0.034,-0.049,-0.117,-0.063,0.0,-0.044,0.054
0.654,0.0,0.024,0.024,-0.01,-0.015,0.024,-0.049,-0.127,-0.068,-0.005,-0.063,0.044
0.656,0.0,0.024,0.024,-0.01,-0.015,0.024,-0.049,-0.127,-0.083,-0.02,-0.063,0.039
0.658,-0.005,0.01,0.015,0.0,-0.01,0.01,-0.049,-0.137,-0.093,-0.024,-0.073,0.034
0.66,0.0,0.01,0.01,-0.005,-0.005,0.01,-0.059,-0.151,-0.112,-0.034,-0.088,0.029
0.662,-0.005,0.005,0.01,0.0,-0.01,0.005,-0.073,-0.156,-0.122,-0.044,-0.098,0.02
0.664,-0.01,0.005,0.015,0.005,-0.015,0.01,-0.073,-0.166,-0.132,-0.059,-0.112,0.01
0.666,-0.01,-0.01,0.0,0.01,-0.005,-0.005,-0.068,-0.171,-0.137,-0.063,-0.117,0.005
0.668,-0.02,-0.02,0.0,0.02,-0.01,-0.01,-0.068,-0.176,-0.146,-0.073,-0.117,0.005
0.67,-0.02,-0.02,0.0,0.02,-0.01,-0.01,-0.068,-0.181,-0.142,-0.078,-0.127,-0.005
0.672,-0.015,-0.01,0.005,0.015,-0.01,-0.005,-0.068,-0.19,-0.151,-0.083,-0.137,-0.01
0.674,-0.02,-0.024,-0.005,0.024,-0.01,-0.015,-0.073,-0.2,-0.156,-0.088,-0.137,-0.01
0.676,-0.015,-0.02,-0.005,0.02,-0.005,-0.015,-0.073,-0.2,-0.161,-0.093,-0.137,-0.01
0.678,-0.015,-0.029,-0.015,0.024,0.0,-0.024,-0.073,-0.21,-0.161,-0.088,-0.137,-0.01
0.68,-0.02,-0.029,-0.01,0.024,-0.005,-0.02,-0.078,-0.22,-0.176,-0.098,-0.142,-0.015
0.682,-0.01,-0.02,-0.01,0.015,0.0,-0.015,-0.083,-0.224,-0.181,-0.102,-0.151,-0.015
0.684,-0.01,-0.024,-0.015,0.02,0.0,-0.02,-0.088,-0.224,-0.181,-0.107,-0.156,-0.02
0.686,-0.015,-0.024,-0.01,0.02,-0.005,-0.02,-0.088,-0.234,-0.185,-0.107,-0.151,-0.02
0.688,-0.024,-0.02,0.005,0.024,-0.015,-0.01,-0.093,-0.249,-0.2,-0.127,-0.161,-0.024
0.69,-0.029,-0.039,-0.01,0.034,-0.01,-0.024,-0.083,-0.244,-0.195,-0.127,-0.166,-0.029
0.692,-0.024,-0.029,-0.005,0.029,-0.01,-0.02,-0.083,-0.249,-0.19,-0.122,-0.166,-0.024
0.694,-0.02,-0.029,-0.01,0.024,-0.005,-0.02,-0.088,-0.264,-0.205,-0.132,-0.171,-0.034
0.696,-0.02,-0.029,-0.01,0.024,-0.005,-0.02,-0.093,-0.273,-0.21,-0.137,-0.171,-0.034
0.698,-0.015,-0.029,-0.015,0.024,0.0,-0.024,-0.088,-0.278,-0.205,-0.122,-0.166,-0.024
0.7,-0.015,-0.024,-0.01,0.02,-0.005,-0.02,-0.093,-0.283,-0.21,-0.127,-0.166,-0.029
0.702,-0.015,-0.02,-0.005,0.02,-0.005,-0.015,-0.098,-0.288,-0.224,-0.142,-0.176,-0.039
0.704,-0.015,-0.024,-0.01,0.02,-0.005,-0.02,-0.088,-0.283,-0.215,-0.132,-0.166,-0.029
0.706,-0.024,-0.034,-0.01,0.029,-0.01,-0.024,-0.093,-0.288,-0.215,-0.132,-0.161,-0.029
0.708,-0.02,-0.034,-0.015,0.029,-0.005,-0.024,-0.098,-0.293,-0.215,-0.142,-0.161,-0.034
0.71,-0.029,-0.049,-0.02,0.039,-0.005,-0.034,-0.098,-0.298,-0.22,-0.146,-0.171,-0.044
0.712,-0.029,-0.049,-0.02,0.039,-0.005,-0.034,-0.098,-0.307,-0.22,-0.146,-0.161,-0.044
0.714,-0.024,-0.044,-0.02,0.034,-0.005,-0.034,-0.093,-0.303,-0.21,-0.142,-0.171,-0.039
0.716,-0.024,-0.034,-0.01,0.029,-0.01,-0.024,-0.102,-0.307,-0.22,-0.151,-0.176,-0.044
0.718,-0.02,-0.039,-0.02,0.029,0.0,-0.029,-0.098,-0.312,-0.215,-0.146,-0.176,-0.044
0.72,-0.015,-0.034,-0.02,0.024,0.0,-0.029,-0.107,-0.317,-0.22,-0.146,-0.176,-0.039
0.722,-0.02,-0.049,-0.029,0.034,0.005,-0.039,-0.102,-0.312,-0.22,-0.146,-0.176,-0.039
0.724,-0.02,-0.034,-0.015,0.029,-0.005,-0.024,-0.102,-0.307,-0.224,-0.142,-0.171,-0.039
0.726,-0.02,-0.039,-0.02,0.029,0.0,-0.029,-0.102,-0.312,-0.224,-0.142,-0.176,-0.044
0.728,-0.029,-0.039,-0.01,0.034,-0.01,-0.024,-0.107,-0.312,-0.224,-0.146,-0.171,-0.039
0.73,-0.029,-0.039,-0.01,0.034,-0.01,-0.024,-0.112,-0.317,-0.215,-0.146,-0.176,-0.044
0.732,-0.034,-0.034,0.0,0.034,-0.02,-0.02,-0.117,-0.327,-0.22,-0.146,-0.176,-0.044
0.734,-0.024,-0.039,-0.015,0.034,-0.005,-0.029,-0.127,-0.332,-0.224,-0.151,-0.181,-0.054
0.736,-0.024,-0.034,-0.01,0.029,-0.01,-0.024,-0.132,-0.332,-0.224,-0.151,-0.181,-0.054
0.738,-0.029,-0.044,-0.015,0.039,-0.01,-0.029,-0.132,-0.346,-0.224,-0.151,-0.185,-0.054
0.74,-0.024,-0.039,-0.015,0.034,-0.005,-0.029,-0.142,-0.346,-0.229,-0.146,-0.176,-0.049
0.742,-0.024,-0.039,-0.015,0.034,-0.005,-0.029,-0.146,-0.351,-0.234,-0.146,-0.185,-0.049
0.744,-0.024,-0.024,0.0,0.024,-0.015,-0.015,-0.142,-0.361,-0.229,-0.151,-0.185,-0.054
0.746,-0.024,-0.029,-0.005,0.029,-0.01,-0.02,-0.132,-0.361,-0.22,-0.146,-0.181,-0.044
0.748,-0.034,-0.029,0.005,0.034,-0.02,-0.015,-0.142,-0.376,-0.229,-0.156,-0.185,-0.049
0.75,-0.029,-0.029,0.0,0.029,-0.015,-0.015,-0.132,-0.371,-0.224,-0.151,-0.181,-0.049
0.752,-0.024,-0.029,-0.005,0.029,-0.01,-0.02,-0.132,-0.371,-0.215,-0.146,-0.176,-0.039
0.754,-0.029,-0.034,-0.005,0.034,-0.015,-0.02,-0.142,-0.376,-0.229,-0.151,-0.181,-0.049
0.756,-0.024,-0.024,0.0,0.024,-0.015,-0.015,-0.146,-0.381,-0.229,-0.156,-0.181,-0.049
0.758,-0.029,-0.029,0.0,0.029,-0.015,-0.015,-0.146,-0.386,-0.224,-0.142,-0.176,-0.039
0.76,-0.029,-0.029,0.0,0.029,-0.015,-0.015,-0.151,-0.39,-0.229,-0.146,-0.176,-0.039
0.762,-0.024,-0.029,-0.005,0.029,-0.01,-0.02,-0.156,-0.386,-0.229,-0.142,-0.181,-0.044
0.764,-0.029,-0.024,0.005,0.029,-0.02,-0.01,-0.156,-0.39,-0.234,-0.142,-0.176,-0.049
0.766,-0.029,-0.024,0.005,0.029,-0.02,-0.01,-0.151,-0.386,-0.224,-0.132,-0.166,-0.044
0.768,-0.024,-0.015,0.01,0.02,-0.02,-0.005,-0.166,-0.386,-0.229,-0.142,-0.171,-0.044
0.77,-0.024,-0.029,-0.005,0.029,-0.01,-0.02,-0.166,-0.381,-0.22,-0.142,-0.176,-0.044
0.772,-0.015,-0.02,-0.005,0.02,-0.005,-0.015,-0.171,-0.381,-0.22,-0.137,-0.171,-0.039
0.774,-0.015,-0.02,-0.005,0.02,-0.005,-0.015,-0.176,-0.386,-0.215,-0.137,-0.171,-0.039
0.776,-0.015,-0.02,-0.005,0.02,-0.005,-0.015,-0.181,-0.386,-0.22,-0.137,-0.176,-0.044
0.778,-0.024,-0.024,0.0,0.024,-0.015,-0.015,-0.171,-0.386,-0.215,-0.127,-0.171,-0.034
0.78,-0.029,-0.029,0.0,0.029,-0.015,-0.015,-0.181,-0.39,-0.22,-0.127,-0.166,-0.034
0.782,-0.024,-0.02,0.005,0.024,-0.015,-0.01,-0.181,-0.39,-0.22,-0.127,-0.166,-0.039
0.784,-0.024,-0.01,0.015,0.02,-0.02,0.0,-0.19,-0.39,-0.22,-0.132,-0.171,-0.044
0.786,-0.034,-0.02,0.015,0.029,-0.024,-0.005,-0.185,-0.386,-0.215,-0.122,-0.166,-0.034
0.788,-0.029,-0.015,0.015,0.024,-0.024,0.0,-0.185,-0.386,-0.21,-0.132,-0.166,-0.039
0.79,-0.029,-0.02,0.01,0.024,-0.02,-0.005,-0.185,-0.376,-0.2,-0.132,-0.171,-0.044
0.792,-0.02,-0.015,0.005,0.02,-0.015,-0.005,-0.185,-0.376,-0.195,-0.127,-0.166,-0.039
0.794,-0.015,-0.015,0.0,0.015,-0.01,-0.01,-0.19,-0.371,-0.19,-0.117,-0.156,-0.034
0.796,-0.02,-0.02,0.0,0.02,-0.01,-0.01,-0.2,-0.381,-0.185,-0.117,-0.142,-0.029
0.798,-0.015,-0.015,0.0,0.015,-0.01,-0.01,-0.2,-0.381,-0.185,-0.122,-0.156,-0.029
0.8,-0.024,-0.015,0.01,0.02,-0.02,-0.005,-0.2,-0.386,-0.185,-0.112,-0.161,-0.029
0.802,-0.02,-0.01,0.01,0.015,-0.015,0.0,-0.21,-0.386,-0.19,-0.122,-0.166,-0.029
0.804,-0.015,-0.01,0.005,0.015,-0.01,-0.005,-0.205,-0.381,-0.185,-0.117,-0.166,-0.034
0.806,-0.02,-0.02,0.0,0.02,-0.01,-0.01,-0.205,-0.381,-0.185,-0.117,-0.146,-0.029
0.808,-0.024,-0.024,0.0,0.024,-0.015,-0.015,-0.205,-0.386,-0.181,-0.112,-0.151,-0.024
0.81,-0.02,-0.029,-0.01,0.024,-0.005,-0.02,-0.195,-0.371,-0.171,-0.112,-0.156,-0.024
0.812,-0.02,-0.024,-0.005,0.024,-0.01,-0.015,-0.195,-0.381,-0.166,-0.112,-0.156,-0.024
0.814,-0.015,-0.024,-0.01,0.02,-0.005,-0.02,-0.185,-0.376,-0.161,-0.107,-0.151,-0.02
0.816,-0.02,-0.02,0.0,0.02,-0.01,-0.01,-0.195,-0.386,-0.166,-0.112,-0.151,-0.02
0.818,-0.015,-0.01,0.005,0.015,-0.01,-0.005,-0.195,-0.39,-0.166,-0.117,-0.156,-0.024
0.82,-0.005,0.0,0.005,0.005,-0.005,0.0,-0.205,-0.4,-0.176,-0.112,-0.156,-0.029
0.822,-0.01,-0.01,0.0,0.01,-0.005,-0.005,-0.205,-0.405,-0.176,-0.117,-0.156,-0.029
0.824,-0.015,-0.015,0.0,0.015,-0.01,-0.01,-0.205,-0.405,-0.176,-0.117,-0.156,-0.029
0.826,-0.015,-0.015,0.0,0.015,-0.01,-0.01,-0.2,-0.405,-0.176,-0.112,-0.156,-0.024
0.828,-0.02,-0.02,0.0,0.02,-0.01,-0.01,-0.2,-0.41,-0.176,-0.112,-0.151,-0.029
0.83,-0.015,-0.02,-0.005,0.02,-0.005,-0.015,-0.195,-0.41,-0.176,-0.122,-0.161,-0.034
0.832,-0.02,-0.024,-0.005,0.024,-0.01,-0.015,-0.19,-0.41,-0.166,-0.112,-0.156,-0.024
0.834,-0.015,-0.024,-0.01,0.02,-0.005,-0.02,-0.185,-0.42,-0.166,-0.107,-0.156,-0.024
0.836,-0.005,-0.02,-0.015,0.015,0.005,-0.02,-0.185,-0.415,-0.166,-0.107,-0.156,-0.024
0.838,-0.01,-0.029,-0.02,0.02,0.005,-0.024,-0.19,-0.425,-0.166,-0.102,-0.146,-0.024
0.84,-0.01,-0.024,-0.015,0.02,0.0,-0.02,-0.195,-0.429,-0.176,-0.107,-0.151,-0.024
0.842,-0.01,-0.02,-0.01,0.015,0.0,-0.015,-0.195,-0.42,-0.176,-0.112,-0.151,-0.024
0.844,-0.01,-0.015,-0.005,0.015,-0.005,-0.01,-0.195,-0.42,-0.181,-0.112,-0.151,-0.029
0.846,-0.015,-0.02,-0.005,0.02,-0.005,-0.015,-0.2,-0.425,-0.176,-0.117,-0.151,-0.029
0.848,-0.015,-0.015,0.0,0.015,-0.01,-0.01,-0.205,-0.425,-0.185,-0.122,-0.161,-0.034
0.85,-0.02,-0.024,-0.005,0.024,-0.01,-0.015,-0.2,-0.415,-0.181,-0.127,-0.166,-0.039
0.852,-0.015,-0.029,-0.015,0.024,0.0,-0.024,-0.195,-0.415,-0.181,-0.122,-0.156,-0.034
0.854,-0.015,-0.044,-0.029,0.029,0.005,-0.039,-0.19,-0.41,-0.181,-0.122,-0.151,-0.029
0.856,-0.01,-0.044,-0.034,0.029,0.01,-0.039,-0.19,-0.41,-0.181,-0.122,-0.156,-0.029
0.858,-0.01,-0.054,-0.044,0.034,0.015,-0.049,-0.185,-0.42,-0.19,-0.117,-0.151,-0.029
0.86,-0.015,-0.049,-0.034,0.034,0.01,-0.044,-0.19,-0.434,-0.19,-0.117,-0.151,-0.029
0.862,-0.005,-0.039,-0.034,0.024,0.015,-0.039,-0.19,-0.434,-0.195,-0.122,-0.156,-0.034
0.864,-0.02,-0.039,-0.02,0.029,0.0,-0.029,-0.19,-0.434,-0.2,-0.127,-0.161,-0.039
0.866,-0.024,-0.044,-0.02,0.034,-0.005,-0.034,-0.19,-0.434,-0.195,-0.127,-0.161,-0.034
0.868,-0.024,-0.034,-0.01,0.029,-0.01,-0.024,-0.19,-0.434,-0.205,-0.132,-0.161,-0.039
0.87,-0.029,-0.049,-0.02,0.039,-0.005,-0.034,-0.19,-0.429,-0.195,-0.137,-0.166,-0.049
0.872,-0.024,-0.044,-0.02,0.034,-0.005,-0.034,-0.195,-0.434,-0.195,-0.137,-0.166,-0.049
0.874,-0.029,-0.054,-0.024,0.044,-0.005,-0.039,-0.19,-0.429,-0.19,-0.132,-0.161,-0.044
0.876,-0.029,-0.059,-0.029,0.044,0.0,-0.044,-0.195,-0.434,-0.2,-0.137,-0.166,-0.049
0.878,-0.015,-0.059,-0.044,0.039,0.015,-0.054,-0.2,-0.439,-0.2,-0.137,-0.161,-0.049
0.88,-0.02,-0.049,-0.029,0.034,0.005,-0.039,-0.195,-0.439,-0.2,-0.132,-0.156,-0.044
0.882,-0.024,-0.049,-0.024,0.039,0.0,-0.039,-0.2,-0.434,-0.2,-0.137,-0.161,-0.044
0.884,-0.015,-0.044,-0.029,0.029,0.005,-0.039,-0.2,-0.429,-0.205,-0.137,-0.156,-0.044
0.886,-0.024,-0.059,-0.034,0.044,0.005,-0.049,-0.195,-0.429,-0.21,-0.142,-0.156,-0.044
0.888,-0.024,-0.049,-0.024,0.039,0.0,-0.039,-0.195,-0.434,-0.21,-0.151,-0.166,-0.054
0.89,-0.024,-0.039,-0.015,0.034,-0.005,-0.029,-0.19,-0.425,-0.205,-0.146,-0.166,-0.054
0.892,-0.029,-0.049,-0.02,0.039,-0.005,-0.034,-0.195,-0.429,-0.205,-0.146,-0.156,-0.049
0.894,-0.024,-0.054,-0.029,0.039,0.0,-0.044,-0.195,-0.429,-0.2,-0.142,-0.137,-0.044
0.896,-0.024,-0.054,-0.029,0.039,0.0,-0.044,-0.2,-0.429,-0.21,-0.146,-0.151,-0.049
0.898,-0.024,-0.059,-0.034,0.044,0.005,-0.049,-0.21,-0.429,-0.22,-0.146,-0.166,-0.049
0.9,-0.024,-0.049,-0.024,0.039,0.0,-0.039,-0.21,-0.429,-0.215,-0.142,-0.161,-0.049
0.902,-0.029,-0.059,-0.029,0.044,0.0,-0.044,-0.215,-0.425,-0.215,-0.146,-0.166,-0.054
0.904,-0.02,-0.044,-0.024,0.034,0.0,-0.034,-0.205,-0.425,-0.215,-0.146,-0.161,-0.054
0.906,-0.024,-0.049,-0.024,0.039,0.0,-0.039,-0.205,-0.425,-0.215,-0.146,-0.161,-0.054
0.908,-0.024,-0.054,-0.029,0.039,0.0,-0.044,-0.2,-0.42,-0.22,-0.142,-0.156,-0.049
0.91,-0.02,-0.054,-0.034,0.039,0.005,-0.044,-0.195,-0.41,-0.215,-0.146,-0.161,-0.054
0.912,-0.015,-0.049,-0.034,0.034,0.01,-0.044,-0.195,-0.415,-0.22,-0.151,-0.161,-0.054
0.914,-0.015,-0.059,-0.044,0.039,0.015,-0.054,-0.2,-0.42,-0.22,-0.146,-0.161,-0.054
0.916,-0.024,-0.054,-0.029,0.039,0.0,-0.044,-0.2,-0.42,-0.22,-0.146,-0.156,-0.049
0.918,-0.024,-0.059,-0.034,0.044,0.005,-0.049,-0.2,-0.425,-0.224,-0.151,-0.161,-0.059
0.92,-0.02,-0.049,-0.029,0.034,0.005,-0.039,-0.205,-0.429,-0.229,-0.146,-0.156,-0.054
0.922,-0.024,-0.059,-0.034,0.044,0.005,-0.049,-0.205,-0.42,-0.229,-0.146,-0.161,-0.049
0.924,-0.024,-0.059,-0.034,0.044,0.005,-0.049,-0.215,-0.425,-0.239,-0.156,-0.161,-0.059
0.926,-0.024,-0.059,-0.034,0.044,0.005,-0.049,-0.21,-0.425,-0.234,-0.161,-0.166,-0.059
0.928,-0.024,-0.063,-0.039,0.044,0.005,-0.054,-0.21,-0.425,-0.229,-0.171,-0.166,-0.063
0.93,-0.015,-0.063,-0.049,0.039,0.015,-0.059,-0.2,-0.41,-0.224,-0.161,-0.166,-0.059
0.932,-0.015,-0.059,-0.044,0.039,0.015,-0.054,-0.205,-0.42,-0.224,-0.166,-0.161,-0.059
0.934,-0.02,-0.063,-0.044,0.044,0.01,-0.054,-0.21,-0.42,-0.224,-0.166,-0.161,-0.059
0.936,-0.015,-0.054,-0.039,0.034,0.01,-0.049,-0.21,-0.425,-0.229,-0.171,-0.171,-0.063
0.938,-0.02,-0.063,-0.044,0.044,0.01,-0.054,-0.21,-0.425,-0.229,-0.171,-0.171,-0.063
0.94,-0.02,-0.063,-0.044,0.044,0.01,-0.054,-0.21,-0.434,-0.239,-0.166,-0.166,-0.059
0.942,-0.015,-0.068,-0.054,0.044,0.02,-0.063,-0.205,-0.425,-0.239,-0.171,-0.166,-0.063
0.944,-0.024,-0.068,-0.044,0.049,0.01,-0.059,-0.205,-0.429,-0.239,-0.171,-0.166,-0.068
0.946,-0.029,-0.068,-0.039,0.049,0.005,-0.054,-0.21,-0.429,-0.239,-0.171,-0.166,-0.063
0.948,-0.02,-0.049,-0.029,0.034,0.005,-0.039,-0.205,-0.425,-0.239,-0.176,-0.166,-0.063
0.95,-0.02,-0.063,-0.044,0.044,0.01,-0.054,-0.205,-0.415,-0.234,-0.181,-0.166,-0.063
0.952,-0.01,-0.059,-0.049,0.034,0.02,-0.054,-0.205,-0.415,-0.234,-0.176,-0.156,-0.059
0.954,-0.01,-0.063,-0.054,0.039,0.02,-0.059,-0.205,-0.42,-0.229,-0.181,-0.156,-0.063
0.956,-0.015,-0.068,-0.054,0.044,0.02,-0.063,-0.21,-0.42,-0.234,-0.181,-0.161,-0.063
0.958,-0.015,-0.063,-0.049,0.039,0.015,-0.059,-0.205,-0.415,-0.234,-0.176,-0.166,-0.073
0.96,-0.02,-0.054,-0.034,0.039,0.005,-0.044,-0.21,-0.425,-0.244,-0.176,-0.166,-0.073
0.962,-0.015,-0.063,-0.049,0.039,0.015,-0.059,-0.21,-0.42,-0.244,-0.176,-0.161,-0.073
0.964,-0.015,-0.063,-0.049,0.039,0.015,-0.059,-0.21,-0.42,-0.239,-0.176,-0.161,-0.068
0.966,-0.02,-0.078,-0.059,0.049,0.02,-0.068,-0.205,-0.42,-0.234,-0.176,-0.161,-0.068
0.968,-0.024,-0.068,-0.044,0.049,0.01,-0.059,-0.205,-0.42,-0.234,-0.181,-0.161,-0.073
0.97,-0.024,-0.073,-0.049,0.049,0.01,-0.063,-0.205,-0.405,-0.224,-0.181,-0.156,-0.068
0.972,-0.02,-0.073,-0.054,0.049,0.015,-0.063,-0.21,-0.405,-0.229,-0.176,-0.156,-0.068
0.974,-0.01,-0.063,-0.054,0.039,0.02,-0.059,-0.205,-0.405,-0.229,-0.176,-0.156,-0.068
0.976,-0.015,-0.063,-0.049,0.039,0.015,-0.059,-0.215,-0.405,-0.234,-0.185,-0.156,-0.073
0.978,-0.015,-0.063,-0.049,0.039,0.015,-0.059,-0.21,-0.405,-0.234,-0.185,-0.151,-0.068
0.98,-0.01,-0.054,-0.044,0.034,0.015,-0.049,-0.215,-0.415,-0.234,-0.181,-0.137,-0.073
0.982,-0.015,-0.054,-0.039,0.034,0.01,-0.049,-0.21,-0.415,-0.234,-0.185,-0.156,-0.078
0.984,-0.015,-0.044,-0.029,0.029,0.005,-0.039,-0.22,-0.415,-0.234,-0.19,-0.156,-0.078
0.986,-0.015,-0.059,-0.044,0.039,0.015,-0.054,-0.21,-0.415,-0.229,-0.185,-0.156,-0.078
0.988,-0.02,-0.059,-0.039,0.039,0.01,-0.049,-0.215,-0.415,-0.229,-0.185,-0.161,-0.078
0.99,-0.02,-0.068,-0.049,0.044,0.015,-0.059,-0.21,-0.41,-0.22,-0.185,-0.156,-0.073
0.992,-0.024,-0.078,-0.054,0.054,0.015,-0.068,-0.21,-0.41,-0.22,-0.185,-0.151,-0.068
0.994,-0.024,-0.078,-0.054,0.054,0.015,-0.068,-0.21,-0.41,-0.22,-0.185,-0.151,-0.073
0.996,-0.02,-0.068,-0.049,0.044,0.015,-0.059,-0.215,-0.405,-0.224,-0.19,-0.151,-0.073
0.998,-0.015,-0.068,-0.054,0.044,0.02,-0.063,-0.22,-0.405,-0.224,-0.185,-0.151,-0.073
1.0,-0.01,-0.054,-0.044,0.034,0.015,-0.049,-0.22,-0.41,-0.229,-0.181,-0.146,-0.073
1.002,-0.015,-0.059,-0.044,0.039,0.015,-0.054,-0.215,-0.405,-0.234,-0.185,-0.146,-0.073
1.004,-0.02,-0.059,-0.039,0.039,0.01,-0.049,-0.215,-0.4,-0.234,-0.185,-0.146,-0.078
1.006,-0.02,-0.063,-0.044,0.044,0.01,-0.054,-0.205,-0.395,-0.229,-0.181,-0.137,-0.078
1.008,-0.024,-0.073,-0.049,0.049,0.01,-0.063,-0.21,-0.395,-0.224,-0.185,-0.142,-0.083
1.01,-0.02,-0.068,-0.049,0.044,0.015,-0.059,-0.205,-0.39,-0.224,-0.185,-0.146,-0.078
1.012,-0.02,-0.063,-0.044,0.044,0.01,-0.054,-0.205,-0.39,-0.22,-0.181,-0.142,-0.078
1.014,-0.02,-0.063,-0.044,0.044,0.01,-0.054,-0.2,-0.39,-0.229,-0.185,-0.146,-0.083
1.016,-0.02,-0.063,-0.044,0.044,0.01,-0.054,-0.2,-0.386,-0.229,-0.185,-0.146,-0.083
1.018,-0.02,-0.068,-0.049,0.044,0.015,-0.059,-0.205,-0.386,-0.239,-0.181,-0.146,-0.083
1.02,-0.02,-0.059,-0.039,0.039,0.01,-0.049,-0.205,-0.381,-0.229,-0.171,-0.132,-0.078
1.022,-0.01,-0.054,-0.044,0.034,0.015,-0.049,-0.205,-0.371,-0.229,-0.171,-0.142,-0.078
1.024,-0.015,-0.059,-0.044,0.039,0.015,-0.054,-0.205,-0.371,-0.229,-0.171,-0.142,-0.083
1.026,-0.015,-0.054,-0.039,0.034,0.01,-0.049,-0.205,-0.376,-0.224,-0.166,-0.137,-0.078
1.028,-0.015,-0.049,-0.034,0.034,0.01,-0.044,-0.205,-0.366,-0.22,-0.171,-0.142,-0.083
1.03,-0.02,-0.068,-0.049,0.044,0.015,-0.059,-0.21,-0.366,-0.22,-0.171,-0.142,-0.078
1.032,-0.02,-0.063,-0.044,0.044,0.01,-0.054,-0.21,-0.371,-0.22,-0.171,-0.137,-0.088
1.034,-0.024,-0.063,-0.039,0.044,0.005,-0.054,-0.21,-0.366,-0.215,-0.171,-0.122,-0.088
1.036,-0.02,-0.068,-0.049,0.044,0.015,-0.059,-0.215,-0.361,-0.215,-0.171,-0.137,-0.083
1.038,-0.01,-0.068,-0.059,0.039,0.024,-0.063,-0.22,-0.361,-0.22,-0.171,-0.137,-0.083
1.04,-0.015,-0.059,-0.044,0.039,0.015,-0.054,-0.229,-0.371,-0.224,-0.166,-0.132,-0.088
1.042,-0.015,-0.059,-0.044,0.039,0.015,-0.054,-0.229,-0.361,-0.224,-0.161,-0.132,-0.083
1.044,-0.015,-0.054,-0.039,0.034,0.01,-0.049,-0.239,-0.361,-0.234,-0.166,-0.122,-0.093
1.046,-0.02,-0.059,-0.039,0.039,0.01,-0.049,-0.234,-0.361,-0.224,-0.161,-0.127,-0.088
1.048,-0.015,-0.059,-0.044,0.039,0.015,-0.054,-0.229,-0.346,-0.22,-0.156,-0.127,-0.088
1.05,-0.02,-0.063,-0.044,0.044,0.01,-0.054,-0.234,-0.346,-0.22,-0.161,-0.132,-0.088
1.052,-0.015,-0.063,-0.049,0.039,0.015,-0.059,-0.239,-0.351,-0.215,-0.166,-0.132,-0.093
1.054,-0.02,-0.063,-0.044,0.044,0.01,-0.054,-0.229,-0.351,-0.215,-0.166,-0.127,-0.088
1.056,-0.02,-0.068,-0.049,0.044,0.015,-0.059,-0.234,-0.346,-0.215,-0.166,-0.132,-0.093
1.058,-0.015,-0.063,-0.049,0.039,0.015,-0.059,-0.229,-0.342,-0.21,-0.161,-0.127,-0.093
1.06,-0.02,-0.059,-0.039,0.039,0.01,-0.049,-0.239,-0.337,-0.21,-0.166,-0.127,-0.088
1.062,-0.024,-0.063,-0.039,0.044,0.005,-0.054,-0.239,-0.332,-0.22,-0.166,-0.137,-0.093
1.064,-0.015,-0.059,-0.044,0.039,0.015,-0.054,-0.239,-0.327,-0.215,-0.161,-0.132,-0.093
1.066,-0.015,-0.054,-0.039,0.034,0.01,-0.049,-0.234,-0.327,-0.215,-0.166,-0.127,-0.093
1.068,-0.01,-0.059,-0.049,0.034,0.02,-0.054,-0.22,-0.327,-0.21,-0.161,-0.127,-0.088
1.07,-0.01,-0.063,-0.054,0.039,0.02,-0.059,-0.215,-0.312,-0.21,-0.156,-0.122,-0.083
1.072,-0.015,-0.068,-0.054,0.044,0.02,-0.063,-0.224,-0.312,-0.205,-0.156,-0.127,-0.088
1.074,-0.02,-0.068,-0.049,0.044,0.015,-0.059,-0.215,-0.307,-0.2,-0.142,-0.117,-0.078
1.076,-0.02,-0.068,-0.049,0.044,0.015,-0.059,-0.22,-0.303,-0.21,-0.142,-0.122,-0.083
1.078,-0.015,-0.063,-0.049,0.039,0.015,-0.059,-0.22,-0.303,-0.215,-0.146,-0.127,-0.088
1.08,-0.02,-0.054,-0.034,0.039,0.005,-0.044,-0.22,-0.303,-0.21,-0.142,-0.117,-0.083
1.082,-0.024,-0.054,-0.029,0.039,0.0,-0.044,-0.229,-0.303,-0.22,-0.146,-0.122,-0.098
1.084,-0.02,-0.068,-0.049,0.044,0.015,-0.059,-0.229,-0.298,-0.215,-0.142,-0.117,-0.093
1.086,-0.02,-0.068,-0.049,0.044,0.015,-0.059,-0.229,-0.288,-0.21,-0.137,-0.107,-0.083
1.088,-0.02,-0.059,-0.039,0.039,0.01,-0.049,-0.239,-0.293,-0.224,-0.142,-0.117,-0.093
1.09,-0.01,-0.059,-0.049,0.034,0.02,-0.054,-0.234,-0.283,-0.22,-0.137,-0.117,-0.088
1.092,-0.02,-0.068,-0.049,0.044,0.015,-0.059,-0.229,-0.273,-0.215,-0.132,-0.102,-0.088
1.094,-0.015,-0.063,-0.049,0.039,0.015,-0.059,-0.229,-0.278,-0.224,-0.142,-0.107,-0.093
1.096,-0.005,-0.054,-0.049,0.029,0.02,-0.054,-0.229,-0.273,-0.215,-0.137,-0.107,-0.088
1.098,-0.005,-0.059,-0.054,0.034,0.024,-0.059,-0.224,-0.283,-0.22,-0.137,-0.107,-0.093
1.1,-0.01,-0.059,-0.049,0.034,0.02,-0.054,-0.234,-0.298,-0.22,-0.142,-0.107,-0.098
1.102,-0.01,-0.068,-0.059,0.039,0.024,-0.063,-0.229,-0.298,-0.22,-0.137,-0.098,-0.093
1.104,-0.02,-0.063,-0.044,0.044,0.01,-0.054,-0.234,-0.303,-0.224,-0.146,-0.107,-0.098
1.106,-0.015,-0.059,-0.044,0.039,0.015,-0.054,-0.224,-0.293,-0.215,-0.142,-0.112,-0.093
1.108,-0.01,-0.059,-0.049,0.034,0.02,-0.054,-0.215,-0.288,-0.215,-0.142,-0.112,-0.098
1.11,-0.01,-0.059,-0.049,0.034,0.02,-0.054,-0.205,-0.278,-0.205,-0.142,-0.112,-0.093
1.112,0.0,-0.063,-0.063,0.034,0.029,-0.063,-0.2,-0.268,-0.195,-0.132,-0.098,-0.083
1.114,0.0,-0.059,-0.059,0.029,0.029,-0.059,-0.205,-0.268,-0.2,-0.132,-0.098,-0.093
1.116,0.0,-0.039,-0.039,0.02,0.02,-0.039,-0.2,-0.264,-0.185,-0.127,-0.078,-0.083
1.118,0.005,-0.034,-0.039,0.015,0.02,-0.039,-0.19,-0.254,-0.176,-0.117,-0.073,-0.078
1.12,0.0,-0.039,-0.039,0.02,0.02,-0.039,-0.19,-0.254,-0.176,-0.112,-0.073,-0.068
1.122,0.005,-0.024,-0.029,0.01,0.015,-0.029,-0.185,-0.234,-0.166,-0.102,-0.073,-0.068
1.124,0.0,-0.015,-0.015,0.01,0.005,-0.015,-0.176,-0.229,-0.156,-0.098,-0.073,-0.073
1.126,0.0,-0.01,-0.01,0.005,0.005,-0.01,-0.156,-0.224,-0.156,-0.093,-0.059,-0.068
1.128,0.005,-0.01,-0.015,0.005,0.01,-0.015,-0.142,-0.215,-0.151,-0.093,-0.054,-0.068
1.13,0.0,-0.01,-0.01,0.005,0.005,-0.01,-0.142,-0.21,-0.151,-0.093,-0.068,-0.073
1.132,0.005,0.005,0.0,-0.005,0.0,0.0,-0.142,-0.205,-0.142,-0.093,-0.068,-0.073
1.134,0.005,0.01,0.005,-0.005,0.0,0.005,-0.127,-0.2,-0.132,-0.083,-0.059,-0.073
1.136,0.005,0.0,-0.005,0.0,0.005,-0.005,-0.127,-0.19,-0.127,-0.078,-0.054,-0.068
1.138,0.015,0.005,-0.01,-0.01,0.01,-0.005,-0.122,-0.181,-0.132,-0.078,-0.054,-0.068
1.14,0.02,0.015,-0.005,-0.015,0.01,0.005,-0.142,-0.19,-0.142,-0.083,-0.059,-0.073
1.142,0.01,0.01,0.0,-0.01,0.005,0.005,-0.161,-0.2,-0.151,-0.083,-0.059,-0.078
1.144,0.005,0.005,0.0,-0.005,0.0,0.0,-0.176,-0.22,-0.156,-0.098,-0.063,-0.083
1.146,0.0,-0.005,-0.005,0.005,0.0,-0.005,-0.19,-0.239,-0.166,-0.098,-0.068,-0.083
1.148,0.005,0.0,-0.005,0.0,0.005,-0.005,-0.185,-0.224,-0.156,-0.098,-0.063,-0.083
1.15,0.015,0.005,-0.01,-0.01,0.01,-0.005,-0.185,-0.22,-0.151,-0.093,-0.059,-0.078
1.152,0.005,0.01,0.005,-0.005,0.0,0.005,-0.19,-0.22,-0.146,-0.088,-0.059,-0.073
1.154,0.02,0.024,0.005,-0.02,0.005,0.015,-0.19,-0.21,-0.142,-0.073,-0.044,-0.059
1.156,0.029,0.024,-0.005,-0.024,0.015,0.01,-0.176,-0.2,-0.127,-0.063,-0.029,-0.054
1.158,0.039,0.029,-0.01,-0.034,0.024,0.01,-0.166,-0.19,-0.117,-0.054,-0.024,-0.049
1.16,0.049,0.049,0.0,-0.049,0.024,0.024,-0.156,-0.181,-0.112,-0.049,-0.02,-0.049
1.162,0.054,0.044,-0.01,-0.049,0.029,0.015,-0.146,-0.176,-0.117,-0.049,-0.02,-0.049
1.164,0.054,0.044,-0.01,-0.049,0.029,0.015,-0.137,-0.171,-0.112,-0.049,-0.024,-0.054
1.166,0.049,0.039,-0.01,-0.044,0.029,0.015,-0.137,-0.176,-0.127,-0.059,-0.029,-0.059
1.168,0.039,0.024,-0.015,-0.029,0.024,0.005,-0.132,-0.181,-0.132,-0.068,-0.039,-0.063
1.17,0.044,0.02,-0.024,-0.029,0.034,-0.005,-0.122,-0.181,-0.122,-0.073,-0.044,-0.068
1.172,0.044,0.0,-0.044,-0.02,0.044,-0.024,-0.102,-0.171,-0.107,-0.073,-0.039,-0.068
1.174,0.029,-0.01,-0.039,-0.01,0.034,-0.024,-0.102,-0.161,-0.117,-0.073,-0.024,-0.068
1.176,0.034,-0.015,-0.049,-0.01,0.039,-0.034,-0.098,-0.156,-0.112,-0.073,-0.024,-0.068
1.178,0.034,-0.024,-0.059,-0.005,0.044,-0.044,-0.102,-0.161,-0.122,-0.073,-0.034,-0.073
1.18,0.039,-0.02,-0.059,-0.01,0.049,-0.039,-0.102,-0.161,-0.127,-0.073,-0.029,-0.073
1.182,0.029,-0.01,-0.039,-0.01,0.034,-0.024,-0.098,-0.151,-0.112,-0.063,-0.034,-0.073
1.184,0.029,-0.02,-0.049,-0.005,0.039,-0.034,-0.098,-0.156,-0.117,-0.063,-0.034,-0.073
1.186,0.029,-0.029,-0.059,0.0,0.044,-0.044,-0.102,-0.161,-0.122,-0.068,-0.034,-0.068
1.188,0.024,-0.029,-0.054,0.005,0.039,-0.044,-0.102,-0.156,-0.127,-0.073,-0.039,-0.078
1.19,0.024,-0.039,-0.063,0.01,0.044,-0.054,-0.102,-0.151,-0.132,-0.078,-0.044,-0.083
1.192,0.02,-0.049,-0.068,0.015,0.044,-0.059,-0.102,-0.146,-0.127,-0.083,-0.049,-0.093
1.194,0.01,-0.063,-0.073,0.029,0.039,-0.068,-0.102,-0.146,-0.132,-0.083,-0.034,-0.093
1.196,0.01,-0.059,-0.068,0.024,0.039,-0.063,-0.102,-0.146,-0.127,-0.083,-0.044,-0.093
1.198,0.015,-0.059,-0.073,0.024,0.044,-0.068,-0.112,-0.161,-0.146,-0.093,-0.063,-0.098
1.2,0.005,-0.059,-0.063,0.029,0.034,-0.063,-0.117,-0.176,-0.161,-0.102,-0.078,-0.102
1.202,0.01,-0.063,-0.073,0.029,0.039,-0.068,-0.122,-0.181,-0.166,-0.112,-0.078,-0.102
1.204,0.01,-0.068,-0.078,0.029,0.044,-0.073,-0.122,-0.176,-0.166,-0.117,-0.083,-0.112
1.206,0.005,-0.073,-0.078,0.034,0.039,-0.078,-0.112,-0.171,-0.156,-0.122,-0.083,-0.122
1.208,-0.01,-0.078,-0.068,0.044,0.029,-0.073,-0.098,-0.161,-0.156,-0.122,-0.088,-0.132
1.21,-0.02,-0.093,-0.073,0.059,0.024,-0.083,-0.093,-0.161,-0.161,-0.122,-0.093,-0.137
1.212,-0.015,-0.093,-0.078,0.054,0.029,-0.088,-0.088,-0.156,-0.156,-0.122,-0.083,-0.142
1.214,-0.024,-0.098,-0.073,0.063,0.024,-0.088,-0.093,-0.151,-0.161,-0.117,-0.083,-0.142
1.216,-0.024,-0.093,-0.068,0.059,0.02,-0.083,-0.093,-0.151,-0.161,-0.122,-0.088,-0.146
1.218,-0.02,-0.093,-0.073,0.059,0.024,-0.083,-0.093,-0.146,-0.156,-0.112,-0.083,-0.137
1.22,-0.02,-0.093,-0.073,0.059,0.024,-0.083,-0.093,-0.137,-0.161,-0.112,-0.083,-0.142
1.222,-0.02,-0.088,-0.068,0.054,0.024,-0.078,-0.088,-0.127,-0.156,-0.107,-0.078,-0.137
1.224,-0.01,-0.088,-0.078,0.049,0.034,-0.083,-0.098,-0.122,-0.156,-0.107,-0.078,-0.137
1.226,-0.015,-0.083,-0.068,0.049,0.024,-0.078,-0.093,-0.122,-0.156,-0.107,-0.083,-0.142
1.228,-0.015,-0.073,-0.059,0.044,0.02,-0.068,-0.093,-0.107,-0.151,-0.107,-0.083,-0.142
1.23,-0.01,-0.088,-0.078,0.049,0.034,-0.083,-0.093,-0.098,-0.142,-0.102,-0.073,-0.142
1.232,-0.015,-0.083,-0.068,0.049,0.024,-0.078,-0.093,-0.093,-0.137,-0.102,-0.078,-0.146
1.234,-0.005,-0.073,-0.068,0.039,0.029,-0.073,-0.093,-0.083,-0.132,-0.098,-0.073,-0.142
1.236,-0.01,-0.083,-0.073,0.049,0.029,-0.078,-0.093,-0.073,-0.127,-0.088,-0.068,-0.137
1.238,-0.015,-0.093,-0.078,0.054,0.029,-0.088,-0.093,-0.083,-0.127,-0.093,-0.068,-0.137
1.24,-0.02,-0.093,-0.073,0.059,0.024,-0.083,-0.093,-0.078,-0.127,-0.088,-0.068,-0.137
1.242,-0.024,-0.088,-0.063,0.059,0.02,-0.078,-0.093,-0.078,-0.132,-0.093,-0.073,-0.146
1.244,-0.015,-0.078,-0.063,0.049,0.024,-0.073,-0.088,-0.073,-0.127,-0.088,-0.068,-0.146
1.246,-0.02,-0.083,-0.063,0.054,0.02,-0.073,-0.088,-0.068,-0.127,-0.088,-0.063,-0.146
1.248,-0.02,-0.083,-0.063,0.054,0.02,-0.073,-0.083,-0.068,-0.127,-0.093,-0.063,-0.146
1.25,-0.015,-0.088,-0.073,0.054,0.029,-0.083,-0.083,-0.068,-0.122,-0.093,-0.063,-0.142
1.252,-0.015,-0.093,-0.078,0.054,0.029,-0.088,-0.088,-0.073,-0.117,-0.093,-0.063,-0.146
1.254,-0.015,-0.093,-0.078,0.054,0.029,-0.088,-0.078,-0.063,-0.112,-0.093,-0.059,-0.137
1.256,-0.015,-0.083,-0.068,0.049,0.024,-0.078,-0.078,-0.059,-0.107,-0.088,-0.049,-0.137
1.258,-0.015,-0.083,-0.068,0.049,0.024,-0.078,-0.083,-0.068,-0.112,-0.083,-0.054,-0.137
1.26,-0.02,-0.078,-0.059,0.049,0.02,-0.068,-0.078,-0.063,-0.112,-0.083,-0.059,-0.137
1.262,-0.024,-0.073,-0.049,0.049,0.01,-0.063,-0.078,-0.073,-0.122,-0.093,-0.059,-0.142
1.264,-0.024,-0.083,-0.059,0.054,0.015,-0.073,-0.078,-0.068,-0.117,-0.093,-0.068,-0.146
1.266,-0.02,-0.083,-0.063,0.054,0.02,-0.073,-0.068,-0.059,-0.112,-0.083,-0.063,-0.146
1.268,-0.029,-0.098,-0.068,0.063,0.02,-0.083,-0.049,-0.029,-0.098,-0.083,-0.063,-0.146
1.27,-0.029,-0.107,-0.078,0.068,0.024,-0.093,-0.034,-0.005,-0.083,-0.088,-0.073,-0.156
1.272,-0.029,-0.102,-0.073,0.068,0.02,-0.088,0.0,0.054,-0.039,-0.078,-0.083,-0.171
1.274,-0.029,-0.112,-0.083,0.073,0.024,-0.098,0.034,0.132,0.015,-0.049,-0.078,-0.176
1.276,-0.01,-0.122,-0.112,0.068,0.049,-0.117,0.083,0.244,0.098,-0.029,-0.083,-0.195
1.278,0.005,-0.137,-0.142,0.068,0.073,-0.142,0.137,0.376,0.19,0.015,-0.078,-0.2
1.28,0.02,-0.142,-0.161,0.063,0.088,-0.151,0.185,0.498,0.298,0.068,-0.068,-0.205
1.282,0.034,-0.117,-0.151,0.044,0.093,-0.137,0.239,0.605,0.41,0.142,-0.024,-0.19
1.284,0.054,-0.054,-0.107,0.0,0.078,-0.083,0.254,0.625,0.483,0.205,0.024,-0.156
1.286,0.088,0.01,-0.078,-0.049,0.083,-0.034,0.273,0.659,0.571,0.307,0.093,-0.093
1.288,0.122,0.088,-0.034,-0.102,0.078,0.024,0.288,0.693,0.683,0.439,0.205,-0.005
1.29,0.171,0.181,0.01,-0.176,0.078,0.093,0.288,0.722,0.786,0.561,0.327,0.098
1.292,0.249,0.239,-0.01,-0.244,0.127,0.112,0.293,0.8,0.908,0.708,0.488,0.22
1.294,0.312,0.293,-0.02,-0.303,0.166,0.137,0.259,0.839,1.039,0.922,0.712,0.376
1.296,0.381,0.361,-0.02,-0.371,0.2,0.171,0.166,0.727,1.088,1.132,0.956,0.561
1.298,0.444,0.415,-0.029,-0.429,0.234,0.19,-0.02,0.439,0.903,1.22,1.152,0.727
1.3,0.478,0.547,0.068,-0.512,0.205,0.307,-0.268,-0.024,0.595,1.298,1.371,0.937
1.302,0.468,0.747,0.278,-0.605,0.093,0.512,-0.454,-0.439,0.312,1.371,1.596,1.142
1.304,0.376,0.908,0.532,-0.639,-0.078,0.717,-0.59,-0.791,0.039,1.386,1.718,1.264
1.306,0.229,0.981,0.752,-0.605,-0.264,0.864,-0.673,-1.093,-0.205,1.298,1.674,1.254
1.308,0.083,0.859,0.776,-0.468,-0.346,0.815,-0.605,-1.21,-0.381,1.088,1.405,1.059
1.31,-0.054,0.649,0.703,-0.298,-0.381,0.673,-0.478,-1.132,-0.468,0.849,1.074,0.795
1.312,-0.151,0.547,0.698,-0.195,-0.425,0.62,-0.425,-1.098,-0.664,0.576,0.781,0.576
1.314,-0.215,0.488,0.703,-0.137,-0.459,0.595,-0.444,-1.147,-0.932,0.244,0.522,0.41
1.316,-0.254,0.444,0.698,-0.093,-0.478,0.571,-0.512,-1.157,-1.152,-0.132,0.215,0.224
1.318,-0.268,0.371,0.639,-0.049,-0.454,0.503,-0.581,-1.108,-1.318,-0.542,-0.127,0.015
1.32,-0.264,0.234,0.498,0.015,-0.381,0.366,-0.62,-1.025,-1.401,-0.83,-0.366,-0.151
1.322,-0.239,0.127,0.366,0.059,-0.303,0.244,-0.63,-0.947,-1.415,-0.952,-0.454,-0.229
1.324,-0.19,0.034,0.224,0.078,-0.21,0.127,-0.605,-0.854,-1.269,-0.878,-0.439,-0.254
1.326,-0.146,-0.044,0.102,0.098,-0.127,0.029,-0.571,-0.717,-1.083,-0.761,-0.395,-0.268
1.328,-0.112,-0.093,0.02,0.102,-0.068,-0.039,-0.498,-0.571,-0.869,-0.615,-0.342,-0.264
1.33,-0.083,-0.098,-0.015,0.093,-0.034,-0.059,-0.415,-0.434,-0.673,-0.483,-0.264,-0.239
1.332,-0.063,-0.068,-0.005,0.068,-0.029,-0.039,-0.376,-0.381,-0.566,-0.405,-0.224,-0.215
1.334,-0.044,-0.044,0.0,0.044,-0.024,-0.024,-0.317,-0.327,-0.468,-0.327,-0.181,-0.181
1.336,-0.044,-0.034,0.01,0.039,-0.029,-0.015,-0.249,-0.268,-0.361,-0.249,-0.122,-0.146
1.338,-0.044,-0.024,0.02,0.034,-0.034,-0.005,-0.176,-0.181,-0.259,-0.181,-0.078,-0.122
1.34,-0.039,0.005,0.044,0.02,-0.044,0.024,-0.107,-0.102,-0.171,-0.127,-0.049,-0.107
1.342,-0.034,0.02,0.054,0.01,-0.044,0.034,-0.049,-0.034,-0.098,-0.088,-0.02,-0.093
1.344,-0.02,0.02,0.039,0.0,-0.029,0.029,-0.01,0.02,-0.044,-0.049,0.0,-0.088
1.346,-0.015,0.02,0.034,0.0,-0.024,0.024,0.02,0.059,-0.005,-0.02,0.02,-0.078
1.348,-0.015,0.015,0.029,0.0,-0.024,0.02,0.029,0.078,0.015,-0.005,0.02,-0.088
1.35,-0.01,0.015,0.024,0.0,-0.02,0.02,0.039,0.093,0.034,0.005,0.029,-0.078
1.352,-0.01,0.015,0.024,0.0,-0.02,0.02,0.044,0.102,0.039,0.005,0.029,-0.078
1.354,-0.01,0.015,0.024,0.0,-0.02,0.02,0.049,0.117,0.049,0.015,0.029,-0.078
1.356,-0.005,0.01,0.015,0.0,-0.01,0.01,0.063,0.132,0.059,0.024,0.039,-0.073
1.358,-0.015,-0.005,0.01,0.01,-0.015,0.0,0.063,0.137,0.078,0.02,0.039,-0.073
1.36,-0.01,-0.005,0.005,0.01,-0.01,0.0,0.068,0.151,0.083,0.02,0.024,-0.078
1.362,-0.005,0.005,0.01,0.0,-0.01,0.005,0.073,0.151,0.098,0.029,0.034,-0.083
1.364,-0.005,-0.01,-0.005,0.01,0.0,-0.01,0.083,0.171,0.107,0.029,0.044,-0.073
1.366,-0.005,-0.01,-0.005,0.01,0.0,-0.01,0.088,0.181,0.117,0.039,0.054,-0.073
1.368,0.0,-0.01,-0.01,0.005,0.005,-0.01,0.083,0.181,0.117,0.049,0.049,-0.073
1.37,0.0,-0.01,-0.01,0.005,0.005,-0.01,0.093,0.181,0.122,0.059,0.054,-0.068
1.372,0.005,0.0,-0.005,0.0,0.005,-0.005,0.098,0.195,0.122,0.063,0.063,-0.059
1.374,0.0,0.0,0.0,0.0,0.0,0.0,0.102,0.205,0.122,0.063,0.059,-0.063
1.376,0.0,0.0,0.0,0.0,0.0,0.0,0.102,0.205,0.127,0.068,0.059,-0.063
1.378,0.0,0.01,0.01,-0.005,-0.005,0.01,0.102,0.215,0.132,0.059,0.063,-0.063
1.38,-0.005,0.01,0.015,0.0,-0.01,0.01,0.102,0.22,0.137,0.063,0.054,-0.068
1.382,0.0,0.005,0.005,0.0,-0.005,0.005,0.112,0.229,0.156,0.073,0.068,-0.063
1.384,0.0,0.0,0.0,0.0,0.0,0.0,0.117,0.234,0.166,0.073,0.083,-0.063
1.386,0.005,0.005,0.0,-0.005,0.0,0.0,0.112,0.234,0.171,0.073,0.068,-0.073
1.388,0.01,0.01,0.0,-0.01,0.005,0.005,0.112,0.244,0.171,0.088,0.078,-0.068
1.39,0.005,0.01,0.005,-0.005,0.0,0.005,0.112,0.239,0.171,0.093,0.083,-0.068
1.392,0.01,0.015,0.005,-0.01,0.0,0.01,0.112,0.239,0.171,0.093,0.083,-0.063
1.394,0.015,0.02,0.005,-0.015,0.005,0.01,0.127,0.254,0.181,0.107,0.088,-0.059
1.396,0.01,0.015,0.005,-0.01,0.0,0.01,0.127,0.244,0.181,0.102,0.083,-0.059
1.398,0.015,0.029,0.015,-0.02,0.0,0.02,0.132,0.249,0.19,0.107,0.088,-0.059
1.4,0.005,0.015,0.01,-0.01,-0.005,0.01,0.142,0.264,0.195,0.107,0.078,-0.063
1.402,0.005,0.005,0.0,-0.005,0.0,0.0,0.142,0.259,0.205,0.112,0.083,-0.063
1.404,0.01,0.01,0.0,-0.01,0.005,0.005,0.151,0.264,0.215,0.122,0.098,-0.054
1.406,0.005,0.005,0.0,-0.005,0.0,0.0,0.151,0.254,0.215,0.117,0.098,-0.063
1.408,0.015,0.01,-0.005,-0.01,0.01,0.0,0.146,0.264,0.215,0.122,0.093,-0.059
1.41,0.015,0.02,0.005,-0.015,0.005,0.01,0.151,0.264,0.224,0.137,0.112,-0.049
1.412,0.01,0.02,0.01,-0.015,0.0,0.015,0.142,0.273,0.224,0.137,0.112,-0.044
1.414,0.02,0.029,0.01,-0.024,0.005,0.02,0.151,0.283,0.234,0.142,0.117,-0.039
1.416,0.02,0.029,0.01,-0.024,0.005,0.02,0.151,0.288,0.244,0.151,0.127,-0.029
1.418,0.02,0.034,0.015,-0.024,0.0,0.024,0.156,0.288,0.249,0.146,0.122,-0.034
1.42,0.024,0.039,0.015,-0.029,0.005,0.024,0.161,0.303,0.254,0.142,0.117,-0.039
1.422,0.015,0.034,0.02,-0.024,-0.005,0.024,0.171,0.298,0.268,0.151,0.122,-0.039
1.424,0.02,0.039,0.02,-0.029,0.0,0.029,0.176,0.307,0.278,0.156,0.132,-0.034
1.426,0.024,0.039,0.015,-0.029,0.005,0.024,0.181,0.317,0.288,0.166,0.142,-0.029
1.428,0.02,0.034,0.015,-0.024,0.0,0.024,0.185,0.317,0.283,0.166,0.137,-0.034
1.43,0.02,0.044,0.024,-0.029,-0.005,0.034,0.181,0.327,0.298,0.181,0.151,-0.024
1.432,0.02,0.054,0.034,-0.034,-0.01,0.044,0.176,0.327,0.293,0.185,0.151,-0.024
1.434,0.02,0.059,0.039,-0.039,-0.01,0.049,0.181,0.342,0.298,0.195,0.156,-0.02
1.436,0.024,0.049,0.024,-0.034,0.0,0.034,0.195,0.351,0.312,0.205,0.166,-0.01
1.438,0.015,0.044,0.029,-0.029,-0.01,0.034,0.2,0.361,0.322,0.21,0.171,-0.005
1.44,0.02,0.054,0.034,-0.034,-0.01,0.044,0.2,0.371,0.327,0.21,0.166,-0.005
1.442,0.024,0.063,0.039,-0.044,-0.01,0.049,0.21,0.376,0.342,0.215,0.176,-0.005
1.444,0.024,0.063,0.039,-0.044,-0.01,0.049,0.205,0.376,0.342,0.215,0.181,-0.005
1.446,0.029,0.073,0.044,-0.049,-0.01,0.059,0.195,0.381,0.356,0.22,0.181,0.0
1.448,0.029,0.073,0.044,-0.049,-0.01,0.059,0.185,0.376,0.351,0.224,0.181,-0.01
1.45,0.024,0.078,0.054,-0.049,-0.015,0.063,0.181,0.376,0.356,0.234,0.19,0.0
1.452,0.029,0.078,0.049,-0.054,-0.01,0.063,0.19,0.39,0.361,0.244,0.205,0.015
1.454,0.029,0.078,0.049,-0.054,-0.01,0.063,0.2,0.41,0.371,0.259,0.224,0.02
1.456,0.039,0.078,0.039,-0.059,0.0,0.059,0.21,0.42,0.381,0.268,0.215,0.029
1.458,0.034,0.093,0.059,-0.063,-0.015,0.073,0.22,0.434,0.39,0.268,0.22,0.029
1.46,0.034,0.093,0.059,-0.063,-0.015,0.073,0.224,0.444,0.405,0.273,0.215,0.029
1.462,0.044,0.093,0.049,-0.068,-0.005,0.068,0.234,0.454,0.42,0.283,0.224,0.034
1.464,0.044,0.093,0.049,-0.068,-0.005,0.068,0.224,0.478,0.425,0.288,0.234,0.039
1.466,0.034,0.102,0.068,-0.068,-0.02,0.083,0.224,0.488,0.434,0.298,0.239,0.039
1.468,0.049,0.102,0.054,-0.073,-0.005,0.078,0.224,0.493,0.439,0.307,0.249,0.044
1.47,0.054,0.102,0.049,-0.078,0.0,0.073,0.215,0.493,0.449,0.317,0.264,0.049
1.472,0.049,0.107,0.059,-0.078,-0.005,0.083,0.224,0.508,0.464,0.337,0.273,0.063
1.474,0.049,0.102,0.054,-0.073,-0.005,0.078,0.22,0.517,0.473,0.351,0.283,0.068
1.476,0.049,0.112,0.063,-0.078,-0.01,0.088,0.229,0.522,0.478,0.356,0.288,0.073
1.478,0.054,0.122,0.068,-0.088,-0.01,0.093,0.234,0.532,0.498,0.361,0.293,0.083
1.48,0.063,0.127,0.063,-0.093,0.0,0.093,0.234,0.551,0.508,0.366,0.293,0.078
1.482,0.059,0.132,0.073,-0.093,-0.01,0.102,0.229,0.551,0.532,0.386,0.307,0.083
1.484,0.063,0.142,0.078,-0.102,-0.01,0.107,0.229,0.571,0.547,0.395,0.317,0.098
1.486,0.059,0.146,0.088,-0.102,-0.015,0.117,0.234,0.576,0.561,0.4,0.332,0.102
1.488,0.068,0.146,0.078,-0.107,-0.005,0.112,0.229,0.581,0.561,0.415,0.356,0.112
1.49,0.063,0.137,0.073,-0.098,-0.005,0.102,0.224,0.59,0.576,0.429,0.366,0.122
1.492,0.068,0.142,0.073,-0.102,-0.005,0.107,0.224,0.6,0.586,0.429,0.361,0.137
1.494,0.073,0.166,0.093,-0.117,-0.01,0.127,0.224,0.605,0.59,0.444,0.371,0.142
1.496,0.068,0.171,0.102,-0.117,-0.02,0.137,0.224,0.61,0.6,0.449,0.376,0.146
1.498,0.068,0.176,0.107,-0.122,-0.02,0.142,0.224,0.615,0.615,0.459,0.395,0.156
1.5,0.078,0.181,0.102,-0.127,-0.015,0.142,0.229,0.634,0.625,0.464,0.4,0.161
1.502,0.078,0.185,0.107,-0.132,-0.015,0.146,0.224,0.634,0.639,0.478,0.405,0.171
1.504,0.093,0.2,0.107,-0.146,-0.01,0.151,0.22,0.63,0.649,0.488,0.425,0.181
1.506,0.093,0.2,0.107,-0.146,-0.01,0.151,0.215,0.634,0.659,0.488,0.434,0.185
1.508,0.093,0.21,0.117,-0.151,-0.015,0.161,0.21,0.625,0.654,0.508,0.439,0.19
1.51,0.098,0.22,0.122,-0.156,-0.015,0.171,0.205,0.63,0.659,0.522,0.454,0.2
1.512,0.093,0.215,0.122,-0.151,-0.015,0.166,0.205,0.63,0.659,0.522,0.464,0.21
1.514,0.088,0.215,0.127,-0.151,-0.02,0.171,0.2,0.634,0.664,0.532,0.468,0.215
1.516,0.083,0.224,0.142,-0.151,-0.029,0.181,0.19,0.625,0.664,0.537,0.478,0.22
1.518,0.078,0.229,0.151,-0.151,-0.039,0.19,0.19,0.63,0.664,0.537,0.483,0.224
1.52,0.088,0.234,0.146,-0.161,-0.029,0.19,0.185,0.63,0.664,0.537,0.473,0.229
1.522,0.088,0.239,0.151,-0.161,-0.034,0.195,0.181,0.625,0.673,0.542,0.488,0.229
1.524,0.093,0.239,0.146,-0.166,-0.029,0.19,0.176,0.615,0.673,0.547,0.498,0.239
1.526,0.093,0.249,0.156,-0.171,-0.034,0.2,0.161,0.61,0.659,0.547,0.512,0.239
1.528,0.088,0.244,0.156,-0.166,-0.034,0.2,0.156,0.595,0.649,0.551,0.508,0.239
1.53,0.093,0.249,0.156,-0.171,-0.034,0.2,0.151,0.586,0.644,0.551,0.503,0.244
1.532,0.093,0.254,0.161,-0.171,-0.034,0.205,0.156,0.586,0.634,0.542,0.512,0.249
1.534,0.088,0.249,0.161,-0.166,-0.039,0.205,0.146,0.576,0.62,0.542,0.503,0.244
1.536,0.098,0.264,0.166,-0.181,-0.034,0.215,0.146,0.566,0.615,0.542,0.503,0.249
1.538,0.093,0.264,0.171,-0.176,-0.039,0.215,0.142,0.561,0.61,0.532,0.512,0.249
1.54,0.088,0.249,0.161,-0.166,-0.039,0.205,0.146,0.551,0.6,0.522,0.498,0.244
1.542,0.093,0.244,0.151,-0.166,-0.029,0.195,0.142,0.556,0.595,0.522,0.498,0.244
1.544,0.088,0.239,0.151,-0.161,-0.034,0.195,0.137,0.537,0.586,0.517,0.503,0.249
1.546,0.088,0.244,0.156,-0.166,-0.034,0.2,0.122,0.522,0.566,0.503,0.488,0.239
1.548,0.093,0.254,0.161,-0.171,-0.034,0.205,0.122,0.508,0.551,0.498,0.483,0.239
1.55,0.088,0.254,0.166,-0.171,-0.039,0.21,0.107,0.488,0.537,0.498,0.488,0.234
1.552,0.093,0.254,0.161,-0.171,-0.034,0.205,0.102,0.483,0.517,0.483,0.488,0.239
1.554,0.088,0.254,0.166,-0.171,-0.039,0.21,0.093,0.468,0.503,0.473,0.478,0.229
1.556,0.083,0.244,0.161,-0.161,-0.039,0.2,0.088,0.449,0.488,0.468,0.464,0.224
1.558,0.078,0.254,0.176,-0.166,-0.049,0.215,0.083,0.439,0.473,0.454,0.454,0.224
1.56,0.073,0.239,0.166,-0.156,-0.049,0.2,0.088,0.42,0.454,0.429,0.434,0.215
1.562,0.068,0.234,0.166,-0.151,-0.049,0.2,0.093,0.415,0.444,0.42,0.439,0.21
1.564,0.068,0.229,0.161,-0.146,-0.049,0.195,0.083,0.39,0.425,0.405,0.425,0.205
1.566,0.063,0.22,0.156,-0.142,-0.049,0.185,0.073,0.371,0.41,0.386,0.42,0.19
1.568,0.073,0.22,0.146,-0.146,-0.039,0.181,0.059,0.356,0.39,0.376,0.39,0.176
1.57,0.068,0.205,0.137,-0.137,-0.034,0.171,0.068,0.342,0.381,0.371,0.381,0.176
1.572,0.073,0.185,0.112,-0.127,-0.02,0.146,0.073,0.337,0.356,0.356,0.361,0.166
1.574,0.068,0.176,0.107,-0.122,-0.02,0.142,0.073,0.322,0.337,0.332,0.356,0.161
1.576,0.049,0.171,0.122,-0.107,-0.039,0.146,0.063,0.303,0.307,0.307,0.332,0.142
1.578,0.049,0.166,0.117,-0.107,-0.034,0.142,0.059,0.298,0.298,0.293,0.317,0.132
1.58,0.049,0.151,0.102,-0.098,-0.029,0.127,0.068,0.288,0.293,0.273,0.307,0.127
1.582,0.029,0.132,0.102,-0.078,-0.039,0.117,0.063,0.268,0.273,0.259,0.283,0.107
1.584,0.034,0.132,0.098,-0.083,-0.034,0.112,0.054,0.254,0.259,0.244,0.268,0.098
1.586,0.034,0.117,0.083,-0.073,-0.024,0.098,0.039,0.244,0.239,0.229,0.264,0.083
1.588,0.029,0.107,0.078,-0.068,-0.024,0.093,0.034,0.229,0.22,0.21,0.239,0.063
1.59,0.029,0.098,0.068,-0.063,-0.02,0.083,0.039,0.22,0.21,0.2,0.224,0.063
1.592,0.024,0.088,0.063,-0.054,-0.02,0.073,0.039,0.215,0.185,0.19,0.21,0.049
1.594,0.024,0.088,0.063,-0.054,-0.02,0.073,0.039,0.205,0.176,0.166,0.205,0.039
1.596,0.024,0.078,0.054,-0.049,-0.015,0.063,0.044,0.2,0.166,0.156,0.195,0.034
1.598,0.015,0.068,0.054,-0.039,-0.02,0.059,0.049,0.2,0.156,0.142,0.176,0.02
1.6,0.015,0.063,0.049,-0.039,-0.02,0.054,0.054,0.2,0.142,0.117,0.156,0.01
1.602,0.01,0.059,0.049,-0.034,-0.02,0.054,0.049,0.19,0.137,0.102,0.146,-0.005
1.604,0.01,0.044,0.034,-0.024,-0.015,0.039,0.054,0.181,0.127,0.098,0.142,-0.005
1.606,0.005,0.034,0.029,-0.02,-0.015,0.029,0.054,0.176,0.117,0.088,0.127,-0.02
1.608,0.0,0.02,0.02,-0.01,-0.01,0.02,0.059,0.166,0.107,0.073,0.107,-0.029
1.61,0.005,0.015,0.01,-0.01,-0.005,0.01,0.059,0.166,0.098,0.063,0.107,-0.034
1.612,0.0,0.005,0.005,0.0,-0.005,0.005,0.059,0.156,0.078,0.059,0.102,-0.039
1.614,-0.01,0.01,0.02,0.0,-0.015,0.015,0.059,0.146,0.068,0.044,0.093,-0.039
1.616,-0.005,0.015,0.02,-0.005,-0.015,0.015,0.054,0.142,0.059,0.029,0.078,-0.049
1.618,-0.01,0.01,0.02,0.0,-0.015,0.015,0.059,0.151,0.059,0.029,0.078,-0.049
1.62,-0.01,0.005,0.015,0.005,-0.015,0.01,0.063,0.142,0.054,0.015,0.063,-0.059
1.622,-0.01,-0.005,0.005,0.01,-0.01,0.0,0.068,0.146,0.049,0.01,0.068,-0.059
1.624,-0.01,-0.01,0.0,0.01,-0.005,-0.005,0.063,0.127,0.039,0.0,0.054,-0.073
1.626,-0.005,-0.01,-0.005,0.01,0.0,-0.01,0.063,0.132,0.034,0.0,0.049,-0.068
1.628,-0.01,-0.024,-0.015,0.02,0.0,-0.02,0.068,0.117,0.029,-0.005,0.049,-0.073
1.63,-0.015,-0.029,-0.015,0.024,0.0,-0.024,0.063,0.122,0.024,-0.005,0.044,-0.073
1.632,-0.01,-0.029,-0.02,0.02,0.005,-0.024,0.063,0.117,0.01,-0.01,0.034,-0.083
1.634,-0.015,-0.029,-0.015,0.024,0.0,-0.024,0.063,0.122,0.005,-0.015,0.034,-0.083
1.636,-0.01,-0.039,-0.029,0.024,0.01,-0.034,0.063,0.117,0.01,-0.015,0.034,-0.083
1.638,-0.015,-0.034,-0.02,0.024,0.0,-0.029,0.063,0.132,0.015,-0.015,0.039,-0.078
1.64,-0.015,-0.029,-0.015,0.024,0.0,-0.024,0.068,0.127,0.01,-0.024,0.024,-0.083
1.642,-0.01,-0.029,-0.02,0.02,0.005,-0.024,0.063,0.127,0.005,-0.029,0.02,-0.093
1.644,-0.015,-0.034,-0.02,0.024,0.0,-0.029,0.068,0.122,0.005,-0.029,0.024,-0.088
1.646,-0.02,-0.044,-0.024,0.034,0.0,-0.034,0.063,0.127,0.005,-0.024,0.024,-0.088
1.648,-0.01,-0.039,-0.029,0.024,0.01,-0.034,0.063,0.117,0.0,-0.024,0.024,-0.093
1.65,-0.01,-0.034,-0.024,0.024,0.005,-0.029,0.054,0.112,-0.005,-0.024,0.039,-0.093
1.652,-0.015,-0.039,-0.024,0.029,0.005,-0.034,0.059,0.107,-0.01,-0.024,0.029,-0.098
1.654,-0.015,-0.039,-0.024,0.029,0.005,-0.034,0.049,0.112,-0.02,-0.034,0.034,-0.098
1.656,-0.02,-0.049,-0.029,0.034,0.005,-0.039,0.049,0.107,-0.01,-0.034,0.02,-0.098
1.658,-0.015,-0.039,-0.024,0.029,0.005,-0.034,0.049,0.112,-0.01,-0.039,0.01,-0.098
1.66,-0.02,-0.029,-0.01,0.024,-0.005,-0.02,0.054,0.102,-0.01,-0.044,0.01,-0.098
1.662,-0.015,-0.034,-0.02,0.024,0.0,-0.029,0.054,0.102,-0.005,-0.044,0.015,-0.098
1.664,-0.01,-0.039,-0.029,0.024,0.01,-0.034,0.054,0.098,0.0,-0.044,0.01,-0.093
1.666,-0.02,-0.044,-0.024,0.034,0.0,-0.034,0.049,0.098,0.005,-0.039,0.005,-0.098
1.668,-0.01,-0.044,-0.034,0.029,0.01,-0.039,0.044,0.088,0.005,-0.039,0.005,-0.102
1.67,-0.005,-0.049,-0.044,0.029,0.02,-0.049,0.034,0.098,0.005,-0.039,0.02,-0.098
1.672,-0.005,-0.049,-0.044,0.029,0.02,-0.049,0.029,0.088,0.0,-0.039,0.01,-0.098
1.674,-0.015,-0.049,-0.034,0.034,0.01,-0.044,0.034,0.102,0.005,-0.039,0.0,-0.098
1.676,-0.02,-0.054,-0.034,0.039,0.005,-0.044,0.024,0.093,0.0,-0.039,0.005,-0.102
1.678,-0.02,-0.054,-0.034,0.039,0.005,-0.044,0.024,0.098,0.0,-0.039,-0.005,-0.102
1.68,-0.015,-0.049,-0.034,0.034,0.01,-0.044,0.034,0.102,0.0,-0.039,0.0,-0.098
1.682,-0.024,-0.054,-0.029,0.039,0.0,-0.044,0.034,0.107,0.005,-0.039,0.0,-0.102
1.684,-0.024,-0.054,-0.029,0.039,0.0,-0.044,0.034,0.102,0.01,-0.044,0.0,-0.098
1.686,-0.02,-0.044,-0.024,0.034,0.0,-0.034,0.024,0.102,0.01,-0.039,0.0,-0.098
1.688,-0.015,-0.049,-0.034,0.034,0.01,-0.044,0.015,0.093,0.005,-0.034,0.0,-0.098
1.69,-0.02,-0.044,-0.024,0.034,0.0,-0.034,0.015,0.098,0.01,-0.039,0.0,-0.093
1.692,-0.024,-0.049,-0.024,0.039,0.0,-0.039,0.02,0.093,0.01,-0.034,0.0,-0.093
1.694,-0.015,-0.049,-0.034,0.034,0.01,-0.044,0.02,0.102,0.015,-0.034,0.01,-0.088
1.696,-0.015,-0.049,-0.034,0.034,0.01,-0.044,0.024,0.093,0.015,-0.029,0.005,-0.088
1.698,-0.029,-0.054,-0.024,0.044,-0.005,-0.039,0.02,0.098,0.015,-0.039,-0.005,-0.093
1.7,-0.024,-0.054,-0.029,0.039,0.0,-0.044,0.034,0.098,0.02,-0.034,0.0,-0.093
1.702,-0.024,-0.049,-0.024,0.039,0.0,-0.039,0.029,0.093,0.015,-0.039,-0.005,-0.093
1.704,-0.02,-0.054,-0.034,0.039,0.005,-0.044,0.02,0.083,0.015,-0.044,-0.02,-0.098
1.706,-0.024,-0.049,-0.024,0.039,0.0,-0.039,0.029,0.093,0.024,-0.039,-0.005,-0.093
1.708,-0.024,-0.049,-0.024,0.039,0.0,-0.039,0.029,0.083,0.024,-0.029,-0.01,-0.093
1.71,-0.02,-0.049,-0.029,0.034,0.005,-0.039,0.034,0.093,0.029,-0.029,-0.005,-0.093
1.712,-0.02,-0.049,-0.029,0.034,0.005,-0.039,0.039,0.098,0.034,-0.024,0.0,-0.083
1.714,-0.02,-0.049,-0.029,0.034,0.005,-0.039,0.034,0.102,0.034,-0.029,-0.005,-0.088
1.716,-0.015,-0.039,-0.024,0.029,0.005,-0.034,0.039,0.102,0.034,-0.024,-0.015,-0.093
1.718,-0.015,-0.029,-0.015,0.024,0.0,-0.024,0.044,0.112,0.039,-0.034,-0.01,-0.093
1.72,-0.02,-0.039,-0.02,0.029,0.0,-0.029,0.044,0.112,0.039,-0.034,-0.005,-0.093
1.722,-0.01,-0.039,-0.029,0.024,0.01,-0.034,0.044,0.122,0.049,-0.029,0.0,-0.093
1.724,-0.015,-0.039,-0.024,0.029,0.005,-0.034,0.044,0.107,0.044,-0.029,-0.01,-0.098
1.726,-0.024,-0.044,-0.02,0.034,-0.005,-0.034,0.049,0.127,0.054,-0.029,-0.005,-0.098
1.728,-0.015,-0.039,-0.024,0.029,0.005,-0.034,0.044,0.117,0.054,-0.024,0.0,-0.098
1.73,-0.02,-0.049,-0.029,0.034,0.005,-0.039,0.039,0.127,0.054,-0.02,0.005,-0.093
1.732,-0.015,-0.044,-0.029,0.029,0.005,-0.039,0.044,0.122,0.059,-0.02,0.005,-0.088
1.734,-0.01,-0.049,-0.039,0.029,0.015,-0.044,0.039,0.132,0.059,-0.024,0.0,-0.088
1.736,-0.015,-0.039,-0.024,0.029,0.005,-0.034,0.044,0.127,0.059,-0.024,-0.005,-0.093
1.738,-0.01,-0.029,-0.02,0.02,0.005,-0.024,0.054,0.137,0.063,-0.02,0.015,-0.093
1.74,-0.015,-0.039,-0.024,0.029,0.005,-0.034,0.054,0.137,0.063,-0.02,0.015,-0.088
1.742,-0.02,-0.039,-0.02,0.029,0.0,-0.029,0.049,0.142,0.063,-0.024,0.0,-0.088
1.744,-0.015,-0.034,-0.02,0.024,0.0,-0.029,0.049,0.142,0.073,-0.015,0.005,-0.083
1.746,-0.02,-0.039,-0.02,0.029,0.0,-0.029,0.044,0.142,0.063,-0.024,0.0,-0.093
1.748,-0.015,-0.044,-0.029,0.029,0.005,-0.039,0.049,0.137,0.068,-0.02,0.0,-0.093
1.75,-0.02,-0.049,-0.029,0.034,0.005,-0.039,0.049,0.142,0.078,-0.015,0.01,-0.083
1.752,-0.015,-0.049,-0.034,0.034,0.01,-0.044,0.044,0.127,0.073,-0.01,0.005,-0.088
1.754,-0.015,-0.034,-0.02,0.024,0.0,-0.029,0.049,0.132,0.073,-0.02,0.01,-0.088
1.756,-0.015,-0.034,-0.02,0.024,0.0,-0.029,0.044,0.122,0.073,-0.02,0.005,-0.088
1.758,-0.015,-0.029,-0.015,0.024,0.0,-0.024,0.044,0.122,0.068,-0.015,0.005,-0.088
1.76,-0.01,-0.029,-0.02,0.02,0.005,-0.024,0.044,0.117,0.073,-0.01,0.015,-0.083
1.762,-0.02,-0.024,-0.005,0.024,-0.01,-0.015,0.044,0.117,0.073,-0.01,0.01,-0.088
1.764,-0.01,-0.015,-0.005,0.015,-0.005,-0.01,0.039,0.112,0.073,-0.01,0.005,-0.088
1.766,-0.024,-0.029,-0.005,0.029,-0.01,-0.02,0.034,0.112,0.073,-0.01,0.005,-0.088
1.768,-0.024,-0.049,-0.024,0.039,0.0,-0.039,0.044,0.107,0.073,-0.01,0.01,-0.083
1.77,-0.015,-0.044,-0.029,0.029,0.005,-0.039,0.044,0.112,0.078,0.0,0.015,-0.078
1.772,-0.015,-0.049,-0.034,0.034,0.01,-0.044,0.039,0.107,0.078,0.0,0.01,-0.078
1.774,-0.02,-0.044,-0.024,0.034,0.0,-0.034,0.029,0.107,0.078,-0.005,0.005,-0.083
1.776,-0.015,-0.044,-0.029,0.029,0.005,-0.039,0.034,0.098,0.073,-0.015,0.005,-0.083
1.778,-0.015,-0.049,-0.034,0.034,0.01,-0.044,0.034,0.102,0.078,-0.005,0.01,-0.078
1.78,-0.01,-0.044,-0.034,0.029,0.01,-0.039,0.034,0.093,0.078,-0.005,0.01,-0.078
1.782,-0.015,-0.039,-0.024,0.029,0.005,-0.034,0.034,0.093,0.078,-0.015,0.01,-0.078
1.784,-0.01,-0.034,-0.024,0.024,0.005,-0.029,0.024,0.073,0.068,-0.02,0.0,-0.088
1.786,-0.01,-0.034,-0.024,0.024,0.005,-0.029,0.029,0.083,0.073,-0.015,0.0,-0.088
1.788,-0.01,-0.039,-0.029,0.024,0.01,-0.034,0.024,0.073,0.073,-0.02,0.0,-0.083
1.79,-0.015,-0.034,-0.02,0.024,0.0,-0.029,0.015,0.073,0.073,-0.02,0.0,-0.083
1.792,-0.02,-0.044,-0.024,0.034,0.0,-0.034,0.015,0.068,0.068,-0.02,-0.005,-0.083
1.794,-0.02,-0.054,-0.034,0.039,0.005,-0.044,0.015,0.068,0.063,-0.029,-0.015,-0.083
1.796,-0.02,-0.049,-0.029,0.034,0.005,-0.039,0.015,0.068,0.063,-0.029,-0.01,-0.083
1.798,-0.02,-0.039,-0.02,0.029,0.0,-0.029,0.01,0.078,0.063,-0.034,-0.01,-0.083
1.8,-0.015,-0.044,-0.029,0.029,0.005,-0.039,0.01,0.083,0.059,-0.039,-0.015,-0.083
1.802,-0.01,-0.049,-0.039,0.029,0.015,-0.044,0.015,0.088,0.063,-0.034,-0.015,-0.083
1.804,-0.015,-0.063,-0.049,0.039,0.015,-0.059,0.01,0.073,0.063,-0.044,-0.01,-0.083
1.806,-0.01,-0.059,-0.049,0.034,0.02,-0.054,0.01,0.073,0.063,-0.039,-0.01,-0.078
1.808,0.0,-0.063,-0.063,0.034,0.029,-0.063,0.005,0.054,0.063,-0.034,-0.015,-0.078
1.81,-0.01,-0.059,-0.049,0.034,0.02,-0.054,0.005,0.049,0.059,-0.044,-0.005,-0.083
1.812,-0.01,-0.054,-0.044,0.034,0.015,-0.049,0.0,0.034,0.054,-0.039,-0.005,-0.083
1.814,-0.02,-0.059,-0.039,0.039,0.01,-0.049,-0.01,0.034,0.044,-0.044,-0.029,-0.088
1.816,-0.02,-0.068,-0.049,0.044,0.015,-0.059,-0.005,0.024,0.044,-0.049,-0.029,-0.088
1.818,-0.02,-0.063,-0.044,0.044,0.01,-0.054,0.0,0.034,0.054,-0.044,-0.029,-0.078
1.82,-0.02,-0.063,-0.044,0.044,0.01,-0.054,-0.005,0.024,0.044,-0.044,-0.029,-0.088
1.822,-0.02,-0.063,-0.044,0.044,0.01,-0.054,-0.005,0.029,0.044,-0.049,-0.034,-0.098
1.824,-0.01,-0.059,-0.049,0.034,0.02,-0.054,-0.005,0.029,0.039,-0.054,-0.034,-0.093
1.826,-0.01,-0.063,-0.054,0.039,0.02,-0.059,-0.01,0.024,0.034,-0.059,-0.044,-0.093
1.828,0.0,-0.059,-0.059,0.029,0.029,-0.059,0.0,0.029,0.034,-0.049,-0.029,-0.093
1.83,-0.01,-0.054,-0.044,0.034,0.015,-0.049,-0.005,0.02,0.024,-0.054,-0.029,-0.098
1.832,-0.02,-0.068,-0.049,0.044,0.015,-0.059,0.0,0.02,0.029,-0.054,-0.034,-0.093
1.834,-0.015,-0.068,-0.054,0.044,0.02,-0.063,0.005,0.024,0.029,-0.049,-0.039,-0.093
1.836,-0.024,-0.073,-0.049,0.049,0.01,-0.063,0.01,0.024,0.02,-0.054,-0.039,-0.098
1.838,-0.02,-0.073,-0.054,0.049,0.015,-0.063,0.01,0.02,0.015,-0.059,-0.044,-0.098
1.84,-0.024,-0.073,-0.049,0.049,0.01,-0.063,0.02,0.02,0.015,-0.054,-0.039,-0.093
1.842,-0.024,-0.078,-0.054,0.054,0.015,-0.068,0.01,0.01,0.005,-0.063,-0.054,-0.102
1.844,-0.024,-0.068,-0.044,0.049,0.01,-0.059,0.01,0.005,-0.005,-0.063,-0.059,-0.102
1.846,-0.024,-0.073,-0.049,0.049,0.01,-0.063,0.01,0.0,0.0,-0.063,-0.049,-0.098
1.848,-0.02,-0.063,-0.044,0.044,0.01,-0.054,0.005,0.005,-0.005,-0.054,-0.054,-0.098
1.85,-0.015,-0.059,-0.044,0.039,0.015,-0.054,0.01,0.0,-0.005,-0.059,-0.054,-0.098
1.852,-0.024,-0.059,-0.034,0.044,0.005,-0.049,0.01,-0.005,-0.015,-0.059,-0.059,-0.102
1.854,-0.015,-0.068,-0.054,0.044,0.02,-0.063,0.015,-0.005,-0.015,-0.068,-0.063,-0.098
1.856,-0.015,-0.068,-0.054,0.044,0.02,-0.063,0.02,0.0,-0.015,-0.059,-0.059,-0.098
1.858,-0.02,-0.073,-0.054,0.049,0.015,-0.063,0.015,-0.005,-0.024,-0.063,-0.068,-0.102
1.86,-0.02,-0.073,-0.054,0.049,0.015,-0.063,0.015,-0.005,-0.024,-0.059,-0.068,-0.098
1.862,-0.024,-0.093,-0.068,0.059,0.02,-0.083,0.02,-0.005,-0.02,-0.063,-0.063,-0.093
1.864,-0.024,-0.088,-0.063,0.059,0.02,-0.078,0.02,-0.01,-0.024,-0.068,-0.073,-0.098
1.866,-0.02,-0.083,-0.063,0.054,0.02,-0.073,0.015,-0.01,-0.029,-0.063,-0.073,-0.102
1.868,-0.02,-0.083,-0.063,0.054,0.02,-0.073,0.02,-0.015,-0.024,-0.068,-0.078,-0.098
1.87,-0.01,-0.083,-0.073,0.049,0.029,-0.078,0.02,-0.02,-0.024,-0.063,-0.068,-0.098
1.872,-0.015,-0.093,-0.078,0.054,0.029,-0.088,0.015,-0.024,-0.024,-0.068,-0.083,-0.102
1.874,-0.024,-0.098,-0.073,0.063,0.024,-0.088,0.015,-0.024,-0.024,-0.063,-0.078,-0.098
1.876,-0.024,-0.088,-0.063,0.059,0.02,-0.078,0.015,-0.02,-0.024,-0.068,-0.078,-0.098
1.878,-0.024,-0.083,-0.059,0.054,0.015,-0.073,0.01,-0.02,-0.029,-0.073,-0.088,-0.102
1.88,-0.029,-0.088,-0.059,0.059,0.015,-0.073,0.015,-0.02,-0.029,-0.068,-0.088,-0.098
1.882,-0.02,-0.093,-0.073,0.059,0.024,-0.083,0.01,-0.024,-0.029,-0.068,-0.088,-0.102
1.884,-0.029,-0.098,-0.068,0.063,0.02,-0.083,0.01,-0.029,-0.034,-0.073,-0.093,-0.107
1.886,-0.029,-0.102,-0.073,0.068,0.02,-0.088,0.02,-0.024,-0.034,-0.068,-0.093,-0.102
1.888,-0.029,-0.098,-0.068,0.063,0.02,-0.083,0.02,-0.034,-0.039,-0.078,-0.098,-0.112
1.89,-0.029,-0.102,-0.073,0.068,0.02,-0.088,0.02,-0.034,-0.034,-0.073,-0.093,-0.107
1.892,-0.029,-0.098,-0.068,0.063,0.02,-0.083,0.015,-0.039,-0.034,-0.078,-0.093,-0.107
1.894,-0.029,-0.098,-0.068,0.063,0.02,-0.083,0.015,-0.044,-0.039,-0.078,-0.102,-0.112
1.896,-0.029,-0.098,-0.068,0.063,0.02,-0.083,0.015,-0.044,-0.044,-0.073,-0.107,-0.107
1.898,-0.024,-0.088,-0.063,0.059,0.02,-0.078,0.024,-0.044,-0.039,-0.078,-0.102,-0.107
1.9,-0.029,-0.093,-0.063,0.063,0.015,-0.078,0.024,-0.049,-0.039,-0.073,-0.102,-0.107
1.902,-0.024,-0.093,-0.068,0.059,0.02,-0.083,0.02,-0.044,-0.034,-0.068,-0.107,-0.102
1.904,-0.024,-0.098,-0.073,0.063,0.024,-0.088,0.015,-0.054,-0.044,-0.068,-0.112,-0.107
1.906,-0.029,-0.102,-0.073,0.068,0.02,-0.088,0.02,-0.044,-0.039,-0.068,-0.107,-0.107
1.908,-0.024,-0.102,-0.078,0.063,0.024,-0.093,0.015,-0.059,-0.044,-0.068,-0.112,-0.112
1.91,-0.029,-0.102,-0.073,0.068,0.02,-0.088,0.005,-0.059,-0.044,-0.068,-0.112,-0.112
1.912,-0.034,-0.098,-0.063,0.068,0.015,-0.083,0.0,-0.073,-0.049,-0.068,-0.117,-0.112
1.914,-0.034,-0.102,-0.068,0.068,0.015,-0.088,0.005,-0.063,-0.044,-0.068,-0.107,-0.107
1.916,-0.034,-0.107,-0.073,0.073,0.02,-0.093,0.005,-0.068,-0.049,-0.068,-0.112,-0.107
1.918,-0.02,-0.093,-0.073,0.059,0.024,-0.083,0.005,-0.068,-0.054,-0.068,-0.117,-0.112
1.92,-0.029,-0.098,-0.068,0.063,0.02,-0.083,0.01,-0.063,-0.054,-0.073,-0.112,-0.112
1.922,-0.029,-0.112,-0.083,0.073,0.024,-0.098,0.02,-0.059,-0.049,-0.068,-0.112,-0.107
1.924,-0.024,-0.107,-0.083,0.068,0.029,-0.098,0.024,-0.063,-0.049,-0.063,-0.117,-0.107
1.926,-0.029,-0.107,-0.078,0.068,0.024,-0.093,0.024,-0.059,-0.049,-0.063,-0.112,-0.107
1.928,-0.034,-0.107,-0.073,0.073,0.02,-0.093,0.029,-0.063,-0.054,-0.073,-0.117,-0.107
1.93,-0.029,-0.112,-0.083,0.073,0.024,-0.098,0.029,-0.059,-0.059,-0.073,-0.122,-0.112
1.932,-0.034,-0.117,-0.083,0.078,0.024,-0.102,0.029,-0.068,-0.063,-0.073,-0.122,-0.112
1.934,-0.029,-0.112,-0.083,0.073,0.024,-0.098,0.029,-0.063,-0.068,-0.068,-0.122,-0.112
1.936,-0.029,-0.112,-0.083,0.073,0.024,-0.098,0.034,-0.059,-0.063,-0.078,-0.122,-0.112
1.938,-0.034,-0.102,-0.068,0.068,0.015,-0.088,0.034,-0.059,-0.068,-0.073,-0.127,-0.107
1.94,-0.029,-0.102,-0.073,0.068,0.02,-0.088,0.024,-0.068,-0.073,-0.078,-0.127,-0.107
1.942,-0.034,-0.112,-0.078,0.073,0.02,-0.098,0.024,-0.063,-0.073,-0.078,-0.117,-0.117
1.944,-0.029,-0.112,-0.083,0.073,0.024,-0.098,0.02,-0.073,-0.073,-0.083,-0.117,-0.112
1.946,-0.024,-0.102,-0.078,0.063,0.024,-0.093,0.015,-0.073,-0.073,-0.073,-0.127,-0.112
1.948,-0.034,-0.117,-0.083,0.078,0.024,-0.102,0.02,-0.073,-0.073,-0.073,-0.127,-0.107
1.95,-0.024,-0.107,-0.083,0.068,0.029,-0.098,0.01,-0.088,-0.078,-0.078,-0.137,-0.112
1.952,-0.029,-0.107,-0.078,0.068,0.024,-0.093,0.01,-0.088,-0.083,-0.088,-0.142,-0.112
1.954,-0.029,-0.112,-0.083,0.073,0.024,-0.098,0.015,-0.093,-0.088,-0.083,-0.142,-0.112
1.956,-0.024,-0.112,-0.088,0.068,0.029,-0.102,0.02,-0.088,-0.088,-0.078,-0.142,-0.112
1.958,-0.039,-0.107,-0.068,0.073,0.015,-0.088,0.02,-0.098,-0.088,-0.088,-0.142,-0.117
1.96,-0.034,-0.117,-0.083,0.078,0.024,-0.102,0.02,-0.093,-0.083,-0.083,-0.142,-0.107
1.962,-0.034,-0.122,-0.088,0.078,0.024,-0.107,0.024,-0.098,-0.078,-0.078,-0.142,-0.107
1.964,-0.034,-0.117,-0.083,0.078,0.024,-0.102,0.024,-0.098,-0.078,-0.088,-0.146,-0.112
1.966,-0.029,-0.107,-0.078,0.068,0.024,-0.093,0.024,-0.112,-0.083,-0.098,-0.146,-0.112
1.968,-0.034,-0.117,-0.083,0.078,0.024,-0.102,0.024,-0.112,-0.083,-0.088,-0.146,-0.107
1.97,-0.029,-0.122,-0.093,0.078,0.029,-0.107,0.015,-0.127,-0.083,-0.093,-0.146,-0.112
1.972,-0.029,-0.127,-0.098,0.078,0.034,-0.112,0.015,-0.117,-0.078,-0.078,-0.142,-0.107
1.974,-0.034,-0.127,-0.093,0.083,0.029,-0.112,0.005,-0.127,-0.078,-0.083,-0.156,-0.117
1.976,-0.029,-0.127,-0.098,0.078,0.034,-0.112,0.01,-0.117,-0.073,-0.083,-0.151,-0.112
1.978,-0.029,-0.117,-0.088,0.073,0.029,-0.102,-0.005,-0.127,-0.078,-0.088,-0.156,-0.117
1.98,-0.039,-0.127,-0.088,0.083,0.024,-0.107,-0.005,-0.132,-0.083,-0.088,-0.161,-0.122
1.982,-0.039,-0.122,-0.083,0.083,0.02,-0.102,0.0,-0.137,-0.073,-0.083,-0.161,-0.112
1.984,-0.034,-0.117,-0.083,0.078,0.024,-0.102,-0.005,-0.142,-0.078,-0.088,-0.161,-0.117
1.986,-0.029,-0.112,-0.083,0.073,0.024,-0.098,-0.005,-0.146,-0.073,-0.088,-0.156,-0.112
1.988,-0.034,-0.112,-0.078,0.073,0.02,-0.098,-0.005,-0.151,-0.068,-0.083,-0.156,-0.112
1.99,-0.034,-0.107,-0.073,0.073,0.02,-0.093,-0.01,-0.151,-0.078,-0.093,-0.166,-0.117
1.992,-0.034,-0.107,-0.073,0.073,0.02,-0.093,-0.01,-0.156,-0.083,-0.093,-0.166,-0.122
1.994,-0.034,-0.098,-0.063,0.068,0.015,-0.083,-0.015,-0.161,-0.083,-0.093,-0.161,-0.117
1.996,-0.029,-0.098,-0.068,0.063,0.02,-0.083,-0.015,-0.171,-0.088,-0.093,-0.166,-0.122
1.998,-0.024,-0.102,-0.078,0.063,0.024,-0.093,-0.01,-0.161,-0.083,-0.098,-0.161,-0.117
2.0,-0.034,-0.127,-0.093,0.083,0.029,-0.112,-0.01,-0.166,-0.078,-0.093,-0.161,-0.112
2.002,-0.039,-0.132,-0.093,0.088,0.024,-0.112,-0.005,-0.166,-0.068,-0.093,-0.151,-0.107
2.004,-0.029,-0.117,-0.088,0.073,0.029,-0.102,-0.01,-0.181,-0.078,-0.093,-0.161,-0.112
2.006,-0.034,-0.122,-0.088,0.078,0.024,-0.107,-0.01,-0.181,-0.073,-0.098,-0.166,-0.112
2.008,-0.024,-0.122,-0.098,0.073,0.034,-0.112,-0.005,-0.185,-0.078,-0.102,-0.161,-0.112
2.01,-0.029,-0.127,-0.098,0.078,0.034,-0.112,-0.015,-0.185,-0.078,-0.107,-0.161,-0.117
2.012,-0.039,-0.127,-0.088,0.083,0.024,-0.107,-0.015,-0.185,-0.078,-0.107,-0.171,-0.112
2.014,-0.029,-0.122,-0.093,0.078,0.029,-0.107,-0.015,-0.185,-0.078,-0.107,-0.171,-0.107
2.016,-0.034,-0.122,-0.088,0.078,0.024,-0.107,-0.01,-0.195,-0.088,-0.112,-0.176,-0.112
2.018,-0.029,-0.122,-0.093,0.078,0.029,-0.107,-0.005,-0.195,-0.093,-0.117,-0.181,-0.122
2.02,-0.034,-0.127,-0.093,0.083,0.029,-0.112,0.0,-0.19,-0.093,-0.112,-0.181,-0.117
2.022,-0.039,-0.127,-0.088,0.083,0.024,-0.107,0.0,-0.205,-0.098,-0.122,-0.181,-0.122
2.024,-0.034,-0.132,-0.098,0.083,0.029,-0.117,0.005,-0.205,-0.093,-0.112,-0.185,-0.122
2.026,-0.029,-0.142,-0.112,0.088,0.039,-0.127,0.005,-0.205,-0.088,-0.107,-0.176,-0.117
2.028,-0.039,-0.146,-0.107,0.093,0.034,-0.127,0.0,-0.215,-0.088,-0.112,-0.181,-0.117
2.03,-0.024,-0.142,-0.117,0.083,0.044,-0.132,-0.005,-0.22,-0.088,-0.117,-0.176,-0.117
2.032,-0.034,-0.137,-0.102,0.088,0.034,-0.122,-0.01,-0.215,-0.088,-0.122,-0.171,-0.112
2.034,-0.029,-0.127,-0.098,0.078,0.034,-0.112,-0.015,-0.224,-0.088,-0.127,-0.176,-0.112
2.036,-0.024,-0.127,-0.102,0.078,0.039,-0.117,-0.01,-0.22,-0.088,-0.122,-0.185,-0.112
2.038,-0.044,-0.137,-0.093,0.093,0.024,-0.117,-0.01,-0.215,-0.078,-0.122,-0.185,-0.107
2.04,-0.029,-0.137,-0.107,0.083,0.039,-0.122,-0.01,-0.215,-0.078,-0.122,-0.181,-0.107
2.042,-0.039,-0.137,-0.098,0.088,0.029,-0.117,-0.01,-0.22,-0.083,-0.122,-0.185,-0.112
2.044,-0.034,-0.132,-0.098,0.083,0.029,-0.117,0.0,-0.22,-0.083,-0.127,-0.185,-0.112
2.046,-0.029,-0.127,-0.098,0.078,0.034,-0.112,0.0,-0.224,-0.078,-0.127,-0.185,-0.112
2.048,-0.034,-0.142,-0.107,0.088,0.034,-0.127,0.005,-0.229,-0.078,-0.122,-0.185,-0.107
2.05,-0.034,-0.137,-0.102,0.088,0.034,-0.122,0.005,-0.224,-0.078,-0.122,-0.181,-0.107
2.052,-0.029,-0.137,-0.107,0.083,0.039,-0.122,0.0,-0.224,-0.083,-0.127,-0.185,-0.107
2.054,-0.034,-0.142,-0.107,0.088,0.034,-0.127,0.0,-0.229,-0.078,-0.127,-0.176,-0.102
2.056,-0.024,-0.122,-0.098,0.073,0.034,-0.112,-0.005,-0.229,-0.078,-0.132,-0.185,-0.112
2.058,-0.029,-0.122,-0.093,0.078,0.029,-0.107,-0.01,-0.229,-0.083,-0.137,-0.19,-0.112
2.06,-0.034,-0.122,-0.088,0.078,0.024,-0.107,-0.005,-0.229,-0.078,-0.132,-0.185,-0.112
2.062,-0.024,-0.122,-0.098,0.073,0.034,-0.112,-0.005,-0.229,-0.073,-0.132,-0.181,-0.112
2.064,-0.024,-0.132,-0.107,0.078,0.039,-0.122,-0.005,-0.229,-0.068,-0.132,-0.176,-0.112
2.066,-0.029,-0.127,-0.098,0.078,0.034,-0.112,-0.01,-0.224,-0.068,-0.127,-0.176,-0.112
2.068,-0.034,-0.127,-0.093,0.083,0.029,-0.112,-0.015,-0.229,-0.068,-0.127,-0.176,-0.112
2.07,-0.039,-0.127,-0.088,0.083,0.024,-0.107,-0.029,-0.244,-0.078,-0.132,-0.185,-0.122
2.072,-0.034,-0.132,-0.098,0.083,0.029,-0.117,-0.024,-0.239,-0.073,-0.127,-0.166,-0.122
2.074,-0.034,-0.137,-0.102,0.088,0.034,-0.122,-0.015,-0.239,-0.063,-0.122,-0.161,-0.112
2.076,-0.029,-0.137,-0.107,0.083,0.039,-0.122,-0.01,-0.244,-0.073,-0.122,-0.176,-0.112
2.078,-0.029,-0.132,-0.102,0.083,0.034,-0.117,-0.005,-0.234,-0.068,-0.117,-0.171,-0.107
2.08,-0.034,-0.132,-0.098,0.083,0.029,-0.117,-0.015,-0.239,-0.078,-0.122,-0.176,-0.117
2.082,-0.034,-0.112,-0.078,0.073,0.02,-0.098,-0.015,-0.249,-0.078,-0.122,-0.171,-0.117
2.084,-0.029,-0.117,-0.088,0.073,0.029,-0.102,-0.015,-0.244,-0.068,-0.117,-0.171,-0.117
2.086,-0.034,-0.127,-0.093,0.083,0.029,-0.112,-0.015,-0.244,-0.068,-0.117,-0.171,-0.117
2.088,-0.029,-0.122,-0.093,0.078,0.029,-0.107,-0.02,-0.244,-0.073,-0.122,-0.176,-0.122
2.09,-0.034,-0.122,-0.088,0.078,0.024,-0.107,-0.024,-0.254,-0.083,-0.127,-0.181,-0.127
2.092,-0.039,-0.132,-0.093,0.088,0.024,-0.112,-0.024,-0.244,-0.083,-0.122,-0.181,-0.122
2.094,-0.029,-0.127,-0.098,0.078,0.034,-0.112,-0.024,-0.244,-0.083,-0.122,-0.171,-0.117
2.096,-0.029,-0.122,-0.093,0.078,0.029,-0.107,-0.029,-0.239,-0.083,-0.127,-0.176,-0.122
2.098,-0.039,-0.127,-0.088,0.083,0.024,-0.107,-0.029,-0.244,-0.078,-0.117,-0.176,-0.117
2.1,-0.034,-0.132,-0.098,0.083,0.029,-0.117,-0.024,-0.239,-0.078,-0.112,-0.171,-0.117
2.102,-0.034,-0.127,-0.093,0.083,0.029,-0.112,-0.02,-0.244,-0.083,-0.117,-0.171,-0.117
2.104,-0.029,-0.122,-0.093,0.078,0.029,-0.107,-0.015,-0.239,-0.083,-0.117,-0.166,-0.117
2.106,-0.034,-0.122,-0.088,0.078,0.024,-0.107,-0.024,-0.239,-0.088,-0.112,-0.151,-0.127
2.108,-0.029,-0.127,-0.098,0.078,0.034,-0.112,-0.024,-0.229,-0.083,-0.112,-0.156,-0.122
2.11,-0.024,-0.127,-0.102,0.078,0.039,-0.117,-0.02,-0.234,-0.083,-0.112,-0.161,-0.117
2.112,-0.039,-0.117,-0.078,0.078,0.02,-0.098,-0.024,-0.229,-0.088,-0.112,-0.166,-0.127
2.114,-0.029,-0.117,-0.088,0.073,0.029,-0.102,-0.02,-0.224,-0.088,-0.107,-0.156,-0.122
2.116,-0.024,-0.112,-0.088,0.068,0.029,-0.102,-0.01,-0.224,-0.093,-0.112,-0.166,-0.127
2.118,-0.029,-0.122,-0.093,0.078,0.029,-0.107,-0.01,-0.224,-0.093,-0.122,-0.161,-0.127
2.12,-0.029,-0.117,-0.088,0.073,0.029,-0.102,-0.01,-0.224,-0.088,-0.117,-0.161,-0.122
2.122,-0.029,-0.117,-0.088,0.073,0.029,-0.102,-0.005,-0.224,-0.083,-0.122,-0.151,-0.122
2.124,-0.024,-0.112,-0.088,0.068,0.029,-0.102,-0.01,-0.229,-0.083,-0.122,-0.166,-0.117
2.126,-0.024,-0.102,-0.078,0.063,0.024,-0.093,-0.01,-0.229,-0.093,-0.122,-0.161,-0.122
2.128,-0.029,-0.112,-0.083,0.073,0.024,-0.098,-0.01,-0.229,-0.088,-0.122,-0.171,-0.122
2.13,-0.029,-0.107,-0.078,0.068,0.024,-0.093,-0.015,-0.239,-0.093,-0.127,-0.171,-0.127
2.132,-0.02,-0.102,-0.083,0.063,0.029,-0.093,-0.02,-0.239,-0.093,-0.127,-0.166,-0.127
2.134,-0.029,-0.107,-0.078,0.068,0.024,-0.093,-0.024,-0.239,-0.093,-0.127,-0.161,-0.127
2.136,-0.024,-0.112,-0.088,0.068,0.029,-0.102,-0.024,-0.249,-0.102,-0.127,-0.156,-0.127
2.138,-0.029,-0.122,-0.093,0.078,0.029,-0.107,-0.015,-0.234,-0.098,-0.127,-0.161,-0.117
2.14,-0.029,-0.112,-0.083,0.073,0.024,-0.098,-0.02,-0.234,-0.098,-0.127,-0.161,-0.122
2.142,-0.029,-0.112,-0.083,0.073,0.024,-0.098,-0.005,-0.224,-0.093,-0.127,-0.156,-0.122
2.144,-0.029,-0.117,-0.088,0.073,0.029,-0.102,0.0,-0.239,-0.093,-0.127,-0.161,-0.122
2.146,-0.02,-0.107,-0.088,0.063,0.034,-0.098,0.0,-0.229,-0.083,-0.127,-0.151,-0.122
2.148,-0.024,-0.107,-0.083,0.068,0.029,-0.098,-0.01,-0.239,-0.088,-0.127,-0.156,-0.122
2.15,-0.029,-0.098,-0.068,0.063,0.02,-0.083,0.0,-0.234,-0.088,-0.127,-0.151,-0.122
2.152,-0.02,-0.078,-0.059,0.049,0.02,-0.068,0.0,-0.244,-0.093,-0.127,-0.151,-0.117
2.154,-0.02,-0.068,-0.049,0.044,0.015,-0.059,0.0,-0.244,-0.088,-0.122,-0.146,-0.117
2.156,-0.02,-0.073,-0.054,0.049,0.015,-0.063,0.005,-0.239,-0.083,-0.107,-0.137,-0.112
2.158,-0.01,-0.063,-0.054,0.039,0.02,-0.059,0.0,-0.244,-0.083,-0.112,-0.122,-0.112
2.16,-0.02,-0.063,-0.044,0.044,0.01,-0.054,0.01,-0.244,-0.073,-0.107,-0.132,-0.112
2.162,-0.024,-0.059,-0.034,0.044,0.005,-0.049,0.01,-0.234,-0.063,-0.093,-0.127,-0.102
2.164,-0.024,-0.059,-0.034,0.044,0.005,-0.049,0.01,-0.239,-0.068,-0.093,-0.127,-0.102
2.166,-0.024,-0.059,-0.034,0.044,0.005,-0.049,0.0,-0.244,-0.073,-0.098,-0.127,-0.107
2.168,-0.015,-0.049,-0.034,0.034,0.01,-0.044,0.0,-0.244,-0.073,-0.098,-0.127,-0.107
2.17,-0.02,-0.039,-0.02,0.029,0.0,-0.029,0.005,-0.244,-0.063,-0.083,-0.117,-0.102
2.172,-0.015,-0.034,-0.02,0.024,0.0,-0.029,0.005,-0.239,-0.063,-0.088,-0.127,-0.107
2.174,-0.005,-0.024,-0.02,0.015,0.005,-0.024,0.005,-0.239,-0.063,-0.083,-0.117,-0.102
2.176,-0.015,-0.024,-0.01,0.02,-0.005,-0.02,0.01,-0.229,-0.059,-0.078,-0.102,-0.098
2.178,-0.015,-0.02,-0.005,0.02,-0.005,-0.015,0.01,-0.229,-0.059,-0.078,-0.102,-0.098
2.18,-0.02,-0.024,-0.005,0.024,-0.01,-0.015,0.0,-0.249,-0.063,-0.088,-0.112,-0.102
2.182,-0.01,-0.029,-0.02,0.02,0.005,-0.024,-0.024,-0.278,-0.078,-0.093,-0.117,-0.107
2.184,-0.01,-0.024,-0.015,0.02,0.0,-0.02,-0.044,-0.307,-0.093,-0.112,-0.122,-0.112
2.186,-0.015,-0.034,-0.02,0.024,0.0,-0.029,-0.044,-0.312,-0.098,-0.112,-0.127,-0.112
2.188,-0.02,-0.044,-0.024,0.034,0.0,-0.034,-0.039,-0.307,-0.093,-0.112,-0.122,-0.112
2.19,-0.015,-0.029,-0.015,0.024,0.0,-0.024,-0.034,-0.298,-0.088,-0.102,-0.112,-0.107
2.192,-0.015,-0.02,-0.005,0.02,-0.005,-0.015,-0.039,-0.298,-0.083,-0.098,-0.112,-0.107
2.194,0.0,0.01,0.01,-0.005,-0.005,0.01,-0.039,-0.288,-0.073,-0.088,-0.098,-0.093
2.196,0.01,0.015,0.005,-0.01,0.0,0.01,-0.044,-0.288,-0.068,-0.083,-0.098,-0.088
2.198,0.01,0.015,0.005,-0.01,0.0,0.01,-0.054,-0.283,-0.068,-0.078,-0.088,-0.083
2.2,0.029,0.024,-0.005,-0.024,0.015,0.01,-0.063,-0.278,-0.073,-0.083,-0.088,-0.083
2.202,0.029,0.015,-0.015,-0.02,0.02,0.0,-0.063,-0.268,-0.078,-0.078,-0.088,-0.078
2.204,0.029,0.01,-0.02,-0.02,0.024,-0.005,-0.068,-0.273,-0.088,-0.088,-0.098,-0.093
2.206,0.029,-0.01,-0.039,-0.01,0.034,-0.024,-0.063,-0.268,-0.098,-0.093,-0.098,-0.088
2.208,0.024,-0.029,-0.054,0.005,0.039,-0.044,-0.063,-0.264,-0.098,-0.102,-0.107,-0.088
2.21,0.02,-0.015,-0.034,0.0,0.024,-0.024,-0.063,-0.259,-0.098,-0.093,-0.102,-0.093
2.212,0.02,-0.015,-0.034,0.0,0.024,-0.024,-0.063,-0.254,-0.098,-0.098,-0.102,-0.088
2.214,0.02,-0.02,-0.039,0.0,0.029,-0.029,-0.054,-0.249,-0.093,-0.102,-0.102,-0.093
2.216,0.024,-0.029,-0.054,0.005,0.039,-0.044,-0.044,-0.239,-0.093,-0.098,-0.088,-0.093
2.218,0.02,-0.044,-0.063,0.015,0.039,-0.054,-0.034,-0.224,-0.083,-0.088,-0.093,-0.088
2.22,0.02,-0.039,-0.059,0.01,0.039,-0.049,-0.034,-0.22,-0.083,-0.093,-0.098,-0.093
2.222,0.02,-0.039,-0.059,0.01,0.039,-0.049,-0.029,-0.224,-0.083,-0.088,-0.098,-0.088
2.224,0.024,-0.034,-0.059,0.005,0.039,-0.049,-0.044,-0.234,-0.093,-0.088,-0.098,-0.088
2.226,0.024,-0.039,-0.063,0.01,0.044,-0.054,-0.039,-0.239,-0.093,-0.093,-0.098,-0.088
2.228,0.015,-0.059,-0.073,0.024,0.044,-0.068,-0.039,-0.244,-0.098,-0.093,-0.102,-0.093
2.23,0.01,-0.063,-0.073,0.029,0.039,-0.068,-0.049,-0.264,-0.117,-0.102,-0.117,-0.102
2.232,0.005,-0.068,-0.073,0.034,0.039,-0.073,-0.044,-0.259,-0.122,-0.107,-0.117,-0.107
2.234,-0.005,-0.083,-0.078,0.044,0.034,-0.083,-0.039,-0.254,-0.122,-0.107,-0.117,-0.107
2.236,0.0,-0.093,-0.093,0.049,0.044,-0.093,-0.054,-0.259,-0.127,-0.122,-0.127,-0.117
2.238,0.0,-0.083,-0.083,0.044,0.039,-0.083,-0.063,-0.268,-0.146,-0.132,-0.137,-0.127
2.24,0.0,-0.088,-0.088,0.044,0.044,-0.088,-0.063,-0.259,-0.146,-0.142,-0.146,-0.132
2.242,0.0,-0.098,-0.098,0.049,0.049,-0.098,-0.054,-0.259,-0.146,-0.142,-0.151,-0.137
2.244,-0.01,-0.102,-0.093,0.059,0.039,-0.098,-0.054,-0.264,-0.156,-0.151,-0.156,-0.146
2.246,-0.02,-0.117,-0.098,0.068,0.039,-0.107,-0.044,-0.254,-0.161,-0.142,-0.151,-0.146
2.248,-0.02,-0.117,-0.098,0.068,0.039,-0.107,-0.039,-0.249,-0.161,-0.142,-0.161,-0.156
2.25,-0.029,-0.117,-0.088,0.073,0.029,-0.102,-0.034,-0.259,-0.161,-0.132,-0.161,-0.156
2.252,-0.029,-0.117,-0.088,0.073,0.029,-0.102,-0.034,-0.249,-0.166,-0.137,-0.161,-0.151
2.254,-0.034,-0.117,-0.083,0.078,0.024,-0.102,-0.039,-0.244,-0.161,-0.142,-0.156,-0.156
2.256,-0.039,-0.132,-0.093,0.088,0.024,-0.112,-0.034,-0.234,-0.156,-0.137,-0.156,-0.151
2.258,-0.034,-0.122,-0.088,0.078,0.024,-0.107,-0.029,-0.234,-0.156,-0.137,-0.156,-0.151
2.26,-0.024,-0.112,-0.088,0.068,0.029,-0.102,-0.034,-0.234,-0.161,-0.142,-0.151,-0.156
2.262,-0.029,-0.107,-0.078,0.068,0.024,-0.093,-0.029,-0.234,-0.151,-0.137,-0.151,-0.146
2.264,-0.024,-0.098,-0.073,0.063,0.024,-0.088,-0.034,-0.234,-0.156,-0.137,-0.146,-0.146
2.266,-0.029,-0.102,-0.073,0.068,0.02,-0.088,-0.029,-0.224,-0.151,-0.137,-0.146,-0.142
2.268,-0.024,-0.107,-0.083,0.068,0.029,-0.098,-0.029,-0.215,-0.151,-0.137,-0.146,-0.146
2.27,-0.02,-0.107,-0.088,0.063,0.034,-0.098,-0.029,-0.215,-0.156,-0.137,-0.151,-0.146
2.272,-0.029,-0.117,-0.088,0.073,0.029,-0.102,-0.024,-0.205,-0.151,-0.142,-0.142,-0.142
2.274,-0.029,-0.122,-0.093,0.078,0.029,-0.107,-0.024,-0.195,-0.156,-0.146,-0.142,-0.146
2.276,-0.029,-0.132,-0.102,0.083,0.034,-0.117,-0.024,-0.19,-0.151,-0.142,-0.142,-0.146
2.278,-0.034,-0.132,-0.098,0.083,0.029,-0.117,-0.02,-0.185,-0.151,-0.132,-0.137,-0.142
2.28,-0.034,-0.127,-0.093,0.083,0.029,-0.112,-0.01,-0.171,-0.146,-0.132,-0.132,-0.137
2.282,-0.034,-0.117,-0.083,0.078,0.024,-0.102,-0.015,-0.176,-0.146,-0.132,-0.142,-0.151
2.284,-0.024,-0.102,-0.078,0.063,0.024,-0.093,-0.02,-0.166,-0.146,-0.132,-0.137,-0.146
2.286,-0.024,-0.112,-0.088,0.068,0.029,-0.102,-0.02,-0.156,-0.142,-0.132,-0.137,-0.146
2.288,-0.029,-0.112,-0.083,0.073,0.024,-0.098,-0.024,-0.142,-0.137,-0.132,-0.132,-0.146
2.29,-0.024,-0.098,-0.073,0.063,0.024,-0.088,-0.034,-0.137,-0.132,-0.127,-0.132,-0.146
2.292,-0.029,-0.107,-0.078,0.068,0.024,-0.093,-0.039,-0.127,-0.137,-0.132,-0.132,-0.146
2.294,-0.029,-0.107,-0.078,0.068,0.024,-0.093,-0.049,-0.117,-0.132,-0.132,-0.132,-0.146
2.296,-0.029,-0.112,-0.083,0.073,0.024,-0.098,-0.054,-0.112,-0.132,-0.132,-0.132,-0.146
2.298,-0.034,-0.117,-0.083,0.078,0.024,-0.102,-0.054,-0.107,-0.132,-0.137,-0.127,-0.146
2.3,-0.034,-0.112,-0.078,0.073,0.02,-0.098,-0.044,-0.098,-0.127,-0.132,-0.127,-0.146
2.302,-0.034,-0.107,-0.073,0.073,0.02,-0.093,-0.034,-0.083,-0.117,-0.132,-0.127,-0.151
2.304,-0.044,-0.117,-0.073,0.083,0.015,-0.098,-0.029,-0.068,-0.117,-0.137,-0.132,-0.151
2.306,-0.049,-0.127,-0.078,0.088,0.015,-0.102,-0.005,-0.034,-0.102,-0.127,-0.132,-0.151
2.308,-0.049,-0.127,-0.078,0.088,0.015,-0.102,0.015,0.0,-0.083,-0.127,-0.142,-0.166
2.31,-0.044,-0.127,-0.083,0.088,0.02,-0.107,0.039,0.063,-0.039,-0.122,-0.156,-0.185
2.312,-0.029,-0.137,-0.107,0.083,0.039,-0.122,0.078,0.156,0.02,-0.098,-0.151,-0.185
2.314,-0.024,-0.156,-0.132,0.093,0.054,-0.146,0.122,0.278,0.102,-0.068,-0.156,-0.2
2.316,-0.005,-0.156,-0.151,0.083,0.073,-0.156,0.171,0.4,0.195,-0.034,-0.151,-0.215
2.318,0.005,-0.166,-0.171,0.083,0.088,-0.171,0.22,0.522,0.298,0.02,-0.142,-0.22
2.32,0.029,-0.142,-0.171,0.059,0.098,-0.156,0.254,0.615,0.395,0.093,-0.107,-0.205
2.322,0.063,-0.073,-0.137,0.005,0.098,-0.107,0.273,0.649,0.473,0.176,-0.039,-0.151
2.324,0.093,-0.02,-0.112,-0.034,0.102,-0.068,0.293,0.703,0.586,0.298,0.059,-0.078
2.326,0.137,0.078,-0.059,-0.107,0.098,0.01,0.298,0.717,0.688,0.415,0.161,0.005
2.328,0.195,0.161,-0.034,-0.176,0.112,0.063,0.322,0.781,0.8,0.551,0.307,0.127
2.33,0.259,0.215,-0.044,-0.234,0.151,0.083,0.322,0.864,0.917,0.703,0.478,0.264
2.332,0.342,0.278,-0.063,-0.307,0.2,0.107,0.278,0.849,1.039,0.922,0.708,0.425
2.334,0.41,0.332,-0.078,-0.371,0.244,0.127,0.142,0.669,0.986,1.069,0.922,0.595
2.336,0.449,0.4,-0.049,-0.425,0.249,0.176,-0.049,0.303,0.742,1.137,1.122,0.776
2.338,0.478,0.571,0.093,-0.522,0.19,0.332,-0.268,-0.166,0.444,1.215,1.366,1.005
2.34,0.434,0.756,0.322,-0.595,0.054,0.537,-0.415,-0.551,0.166,1.274,1.557,1.186
2.342,0.327,0.898,0.571,-0.61,-0.122,0.732,-0.547,-0.893,-0.098,1.259,1.64,1.274
2.344,0.166,0.927,0.761,-0.547,-0.298,0.844,-0.586,-1.152,-0.312,1.142,1.527,1.22
2.346,0.015,0.752,0.737,-0.381,-0.361,0.742,-0.473,-1.181,-0.454,0.913,1.215,0.976
2.348,-0.098,0.571,0.669,-0.234,-0.386,0.62,-0.371,-1.088,-0.551,0.698,0.913,0.722
2.35,-0.185,0.493,0.678,-0.151,-0.434,0.586,-0.356,-1.098,-0.791,0.41,0.644,0.547
2.352,-0.249,0.459,0.708,-0.102,-0.478,0.581,-0.4,-1.137,-1.049,0.083,0.386,0.376
2.354,-0.298,0.405,0.703,-0.054,-0.503,0.551,-0.468,-1.118,-1.249,-0.303,0.059,0.181
2.356,-0.312,0.288,0.6,0.015,-0.459,0.444,-0.537,-1.035,-1.376,-0.654,-0.254,-0.029
2.358,-0.278,0.176,0.454,0.054,-0.366,0.312,-0.566,-0.966,-1.44,-0.888,-0.449,-0.176
2.36,-0.229,0.093,0.322,0.068,-0.278,0.205,-0.581,-0.893,-1.401,-0.947,-0.488,-0.224
2.362,-0.195,-0.005,0.19,0.102,-0.195,0.093,-0.566,-0.791,-1.244,-0.864,-0.473,-0.259
2.364,-0.146,-0.088,0.059,0.117,-0.102,-0.015,-0.503,-0.649,-1.039,-0.727,-0.425,-0.273
2.366,-0.117,-0.137,-0.02,0.127,-0.049,-0.078,-0.429,-0.503,-0.825,-0.581,-0.366,-0.259
2.368,-0.093,-0.122,-0.029,0.107,-0.034,-0.078,-0.371,-0.395,-0.673,-0.473,-0.307,-0.229
2.37,-0.068,-0.098,-0.029,0.083,-0.02,-0.063,-0.312,-0.332,-0.561,-0.39,-0.244,-0.19
2.372,-0.068,-0.078,-0.01,0.073,-0.029,-0.044,-0.264,-0.293,-0.473,-0.327,-0.205,-0.166
2.374,-0.054,-0.059,-0.005,0.059,-0.024,-0.034,-0.2,-0.22,-0.371,-0.249,-0.161,-0.142
2.376,-0.039,-0.034,0.005,0.039,-0.024,-0.015,-0.132,-0.127,-0.273,-0.185,-0.122,-0.122
2.378,-0.044,-0.029,0.015,0.039,-0.029,-0.01,-0.059,-0.044,-0.181,-0.137,-0.093,-0.107
2.38,-0.029,-0.024,0.005,0.029,-0.02,-0.01,-0.005,0.015,-0.102,-0.088,-0.063,-0.093
2.382,-0.02,-0.029,-0.01,0.024,-0.005,-0.02,0.029,0.059,-0.063,-0.054,-0.054,-0.088
2.384,-0.024,-0.029,-0.005,0.029,-0.01,-0.02,0.059,0.098,-0.029,-0.024,-0.039,-0.083
2.386,-0.024,-0.029,-0.005,0.029,-0.01,-0.02,0.068,0.102,-0.015,0.0,-0.034,-0.083
2.388,-0.029,-0.039,-0.01,0.034,-0.01,-0.024,0.068,0.117,0.0,0.015,-0.029,-0.078
2.39,-0.024,-0.039,-0.015,0.034,-0.005,-0.029,0.078,0.132,0.01,0.015,-0.024,-0.078
2.392,-0.02,-0.039,-0.02,0.029,0.0,-0.029,0.073,0.142,0.015,0.015,-0.029,-0.083
2.394,-0.029,-0.044,-0.015,0.039,-0.01,-0.029,0.083,0.151,0.024,0.02,-0.024,-0.078
2.396,-0.029,-0.044,-0.015,0.039,-0.01,-0.029,0.098,0.171,0.039,0.02,-0.029,-0.078
2.398,-0.02,-0.049,-0.029,0.034,0.005,-0.039,0.102,0.181,0.063,0.024,-0.024,-0.078
2.4,-0.015,-0.044,-0.029,0.029,0.005,-0.039,0.107,0.19,0.078,0.029,-0.02,-0.083
2.402,-0.01,-0.044,-0.034,0.029,0.01,-0.039,0.107,0.2,0.088,0.034,-0.015,-0.078
2.404,-0.01,-0.049,-0.039,0.029,0.015,-0.044,0.102,0.21,0.093,0.034,-0.015,-0.078
2.406,0.0,-0.049,-0.049,0.024,0.024,-0.049,0.102,0.205,0.098,0.049,-0.005,-0.078
2.408,0.01,-0.044,-0.054,0.02,0.029,-0.049,0.102,0.224,0.098,0.049,0.01,-0.073
2.41,0.005,-0.044,-0.049,0.02,0.024,-0.049,0.107,0.229,0.093,0.054,0.01,-0.073
2.412,-0.005,-0.044,-0.039,0.024,0.015,-0.044,0.112,0.239,0.102,0.054,0.015,-0.073
2.414,-0.02,-0.049,-0.029,0.034,0.005,-0.039,0.122,0.249,0.112,0.059,0.02,-0.063
2.416,-0.02,-0.044,-0.024,0.034,0.0,-0.034,0.122,0.259,0.117,0.054,0.01,-0.063
2.418,-0.01,-0.034,-0.024,0.024,0.005,-0.029,0.127,0.264,0.132,0.054,0.01,-0.073
2.42,-0.01,-0.044,-0.034,0.029,0.01,-0.039,0.132,0.273,0.151,0.059,0.02,-0.068
2.422,-0.01,-0.039,-0.029,0.024,0.01,-0.034,0.137,0.273,0.156,0.068,0.02,-0.063
2.424,-0.005,-0.039,-0.034,0.024,0.015,-0.039,0.132,0.273,0.161,0.068,0.024,-0.063
2.426,0.005,-0.029,-0.034,0.015,0.02,-0.034,0.132,0.273,0.171,0.078,0.049,-0.059
2.428,0.01,-0.024,-0.034,0.01,0.02,-0.029,0.142,0.288,0.166,0.083,0.039,-0.054
2.43,0.01,-0.024,-0.034,0.01,0.02,-0.029,0.137,0.288,0.166,0.083,0.034,-0.059
2.432,0.005,-0.02,-0.024,0.01,0.015,-0.024,0.137,0.293,0.171,0.078,0.029,-0.063
2.434,0.005,-0.02,-0.024,0.01,0.015,-0.024,0.142,0.298,0.176,0.083,0.034,-0.054
2.436,-0.005,-0.024,-0.02,0.015,0.005,-0.024,0.151,0.312,0.185,0.078,0.029,-0.054
2.438,0.0,-0.034,-0.034,0.02,0.015,-0.034,0.156,0.322,0.195,0.083,0.034,-0.059
2.44,0.0,-0.029,-0.029,0.015,0.015,-0.029,0.156,0.332,0.205,0.088,0.049,-0.054
2.442,-0.005,-0.024,-0.02,0.015,0.005,-0.024,0.146,0.332,0.21,0.088,0.059,-0.054
2.444,0.005,-0.024,-0.029,0.01,0.015,-0.029,0.146,0.342,0.22,0.098,0.049,-0.049
2.446,0.01,-0.034,-0.044,0.015,0.024,-0.039,0.146,0.337,0.224,0.107,0.063,-0.044
2.448,0.015,-0.02,-0.034,0.005,0.024,-0.029,0.142,0.337,0.229,0.107,0.063,-0.034
2.45,0.015,0.0,-0.015,-0.005,0.015,-0.01,0.137,0.346,0.229,0.112,0.068,-0.029
2.452,0.005,-0.02,-0.024,0.01,0.015,-0.024,0.142,0.351,0.244,0.122,0.078,-0.02
2.454,0.015,-0.01,-0.024,0.0,0.02,-0.02,0.146,0.361,0.249,0.122,0.078,-0.015
2.456,0.0,-0.015,-0.015,0.01,0.005,-0.015,0.156,0.376,0.259,0.117,0.078,-0.02
2.458,0.005,-0.02,-0.024,0.01,0.015,-0.024,0.161,0.386,0.273,0.127,0.068,-0.024
2.46,0.01,-0.02,-0.029,0.005,0.02,-0.024,0.166,0.4,0.288,0.142,0.083,-0.015
2.462,0.005,-0.01,-0.015,0.005,0.01,-0.015,0.176,0.4,0.283,0.142,0.083,-0.02
2.464,0.015,-0.005,-0.02,-0.005,0.015,-0.015,0.166,0.395,0.283,0.137,0.078,-0.024
2.466,0.015,-0.005,-0.02,-0.005,0.015,-0.015,0.166,0.415,0.298,0.151,0.093,-0.02
2.468,0.02,0.005,-0.015,-0.01,0.015,-0.005,0.156,0.415,0.298,0.151,0.093,-0.02
2.47,0.029,0.039,0.01,-0.034,0.01,0.024,0.151,0.42,0.293,0.151,0.093,-0.024
2.472,0.02,0.029,0.01,-0.024,0.005,0.02,0.156,0.434,0.303,0.161,0.102,-0.005
2.474,0.024,0.015,-0.01,-0.02,0.015,0.0,0.161,0.449,0.312,0.166,0.112,-0.005
2.476,0.034,0.024,-0.01,-0.029,0.02,0.005,0.171,0.459,0.327,0.166,0.117,0.005
2.478,0.024,0.024,0.0,-0.024,0.01,0.01,0.176,0.468,0.342,0.166,0.117,-0.005
2.48,0.024,0.02,-0.005,-0.02,0.015,0.005,0.176,0.473,0.351,0.171,0.122,0.0
2.482,0.024,0.02,-0.005,-0.02,0.015,0.005,0.185,0.473,0.366,0.181,0.122,0.0
2.484,0.005,0.01,0.005,-0.005,0.0,0.005,0.181,0.478,0.376,0.185,0.132,0.005
2.486,0.029,0.024,-0.005,-0.024,0.015,0.01,0.176,0.478,0.371,0.19,0.132,0.0
2.488,0.029,0.034,0.005,-0.029,0.01,0.02,0.185,0.483,0.381,0.205,0.142,0.015
2.49,0.034,0.039,0.005,-0.034,0.015,0.02,0.185,0.483,0.381,0.215,0.151,0.024
2.492,0.034,0.044,0.01,-0.039,0.01,0.024,0.2,0.498,0.395,0.224,0.166,0.034
2.494,0.034,0.044,0.01,-0.039,0.01,0.024,0.205,0.512,0.4,0.229,0.166,0.039
2.496,0.029,0.049,0.02,-0.039,0.005,0.034,0.215,0.522,0.42,0.234,0.171,0.044
2.498,0.039,0.054,0.015,-0.044,0.01,0.034,0.215,0.527,0.439,0.239,0.176,0.039
2.5,0.029,0.039,0.01,-0.034,0.01,0.024,0.22,0.537,0.444,0.249,0.176,0.044
2.502,0.039,0.049,0.01,-0.044,0.015,0.029,0.224,0.547,0.454,0.259,0.181,0.044
2.504,0.034,0.049,0.015,-0.039,0.01,0.029,0.22,0.542,0.459,0.264,0.185,0.044
2.506,0.044,0.049,0.005,-0.044,0.02,0.024,0.215,0.551,0.468,0.278,0.205,0.054
2.508,0.049,0.059,0.01,-0.054,0.02,0.034,0.22,0.561,0.483,0.298,0.22,0.078
2.51,0.049,0.068,0.02,-0.059,0.015,0.044,0.21,0.561,0.483,0.303,0.22,0.073
2.512,0.044,0.068,0.024,-0.054,0.01,0.044,0.205,0.561,0.483,0.307,0.224,0.073
2.514,0.054,0.083,0.029,-0.068,0.01,0.054,0.22,0.571,0.498,0.317,0.239,0.083
2.516,0.049,0.088,0.039,-0.068,0.005,0.063,0.224,0.586,0.517,0.317,0.239,0.088
2.518,0.059,0.093,0.034,-0.073,0.01,0.063,0.224,0.595,0.532,0.332,0.249,0.088
2.52,0.059,0.088,0.029,-0.073,0.015,0.059,0.229,0.605,0.551,0.346,0.259,0.102
2.522,0.059,0.093,0.034,-0.073,0.01,0.063,0.234,0.61,0.561,0.356,0.268,0.107
2.524,0.059,0.098,0.039,-0.078,0.01,0.068,0.224,0.61,0.571,0.366,0.278,0.107
2.526,0.059,0.102,0.044,-0.078,0.005,0.073,0.22,0.615,0.586,0.381,0.283,0.117
2.528,0.068,0.112,0.044,-0.088,0.01,0.078,0.224,0.625,0.59,0.4,0.303,0.137
2.53,0.068,0.122,0.054,-0.093,0.005,0.088,0.22,0.63,0.595,0.41,0.322,0.156
2.532,0.059,0.122,0.063,-0.088,-0.005,0.093,0.22,0.634,0.605,0.42,0.327,0.161
2.534,0.063,0.127,0.063,-0.093,0.0,0.093,0.224,0.649,0.62,0.429,0.342,0.171
2.536,0.063,0.132,0.068,-0.098,-0.005,0.098,0.229,0.659,0.634,0.444,0.346,0.181
2.538,0.068,0.142,0.073,-0.102,-0.005,0.107,0.234,0.664,0.644,0.449,0.351,0.176
2.54,0.073,0.151,0.078,-0.112,-0.005,0.112,0.234,0.673,0.659,0.468,0.361,0.181
2.542,0.078,0.156,0.078,-0.117,0.0,0.117,0.229,0.673,0.669,0.473,0.371,0.185
2.544,0.078,0.161,0.083,-0.117,-0.005,0.122,0.224,0.673,0.683,0.483,0.386,0.2
2.546,0.083,0.171,0.088,-0.127,-0.005,0.127,0.22,0.678,0.693,0.512,0.4,0.21
2.548,0.088,0.171,0.083,-0.127,0.0,0.127,0.21,0.683,0.688,0.512,0.415,0.22
2.55,0.093,0.185,0.093,-0.137,0.0,0.137,0.205,0.678,0.683,0.517,0.42,0.22
2.552,0.088,0.19,0.102,-0.137,-0.01,0.146,0.205,0.678,0.683,0.522,0.429,0.229
2.554,0.083,0.185,0.102,-0.132,-0.01,0.142,0.205,0.673,0.683,0.532,0.439,0.234
2.556,0.088,0.185,0.098,-0.137,-0.005,0.142,0.21,0.678,0.698,0.537,0.454,0.249
2.558,0.088,0.185,0.098,-0.137,-0.005,0.142,0.21,0.673,0.693,0.532,0.444,0.244
2.56,0.098,0.195,0.098,-0.146,0.0,0.146,0.22,0.673,0.703,0.542,0.454,0.259
2.562,0.098,0.2,0.102,-0.146,-0.005,0.151,0.215,0.669,0.698,0.542,0.459,0.264
2.564,0.093,0.205,0.112,-0.146,-0.01,0.156,0.21,0.664,0.703,0.542,0.478,0.268
2.566,0.107,0.215,0.107,-0.161,0.0,0.161,0.2,0.644,0.688,0.547,0.478,0.268
2.568,0.102,0.22,0.117,-0.161,-0.01,0.166,0.19,0.634,0.673,0.542,0.478,0.268
2.57,0.102,0.22,0.117,-0.161,-0.01,0.166,0.181,0.615,0.664,0.532,0.473,0.268
2.572,0.093,0.215,0.122,-0.151,-0.015,0.166,0.181,0.615,0.664,0.532,0.478,0.273
2.574,0.088,0.21,0.122,-0.146,-0.02,0.166,0.181,0.605,0.654,0.532,0.473,0.278
2.576,0.083,0.224,0.142,-0.151,-0.029,0.181,0.181,0.595,0.649,0.517,0.468,0.283
2.578,0.088,0.215,0.127,-0.151,-0.02,0.171,0.181,0.581,0.644,0.508,0.464,0.273
2.58,0.078,0.215,0.137,-0.146,-0.029,0.176,0.176,0.576,0.639,0.503,0.459,0.268
2.582,0.088,0.215,0.127,-0.151,-0.02,0.171,0.171,0.561,0.634,0.508,0.464,0.264
2.584,0.083,0.205,0.122,-0.142,-0.02,0.161,0.166,0.547,0.62,0.503,0.454,0.259
2.586,0.083,0.224,0.142,-0.151,-0.029,0.181,0.156,0.522,0.605,0.498,0.459,0.254
2.588,0.088,0.239,0.151,-0.161,-0.034,0.195,0.151,0.517,0.595,0.493,0.459,0.264
2.59,0.088,0.224,0.137,-0.156,-0.024,0.181,0.142,0.503,0.571,0.488,0.459,0.259
2.592,0.083,0.229,0.146,-0.156,-0.034,0.185,0.142,0.493,0.556,0.478,0.454,0.264
2.594,0.078,0.22,0.142,-0.146,-0.034,0.181,0.132,0.483,0.547,0.473,0.439,0.264
2.596,0.073,0.21,0.137,-0.142,-0.034,0.171,0.132,0.473,0.537,0.459,0.434,0.259
2.598,0.078,0.21,0.132,-0.142,-0.029,0.171,0.132,0.459,0.527,0.449,0.434,0.244
2.6,0.068,0.21,0.142,-0.137,-0.039,0.176,0.122,0.439,0.512,0.434,0.42,0.229
2.602,0.063,0.2,0.137,-0.132,-0.039,0.166,0.112,0.425,0.488,0.42,0.405,0.224
2.604,0.068,0.195,0.127,-0.132,-0.029,0.161,0.112,0.405,0.478,0.405,0.39,0.215
2.606,0.063,0.181,0.117,-0.122,-0.029,0.146,0.112,0.395,0.464,0.405,0.386,0.21
2.608,0.068,0.181,0.112,-0.122,-0.024,0.146,0.112,0.376,0.439,0.395,0.386,0.215
2.61,0.059,0.171,0.112,-0.112,-0.029,0.142,0.107,0.366,0.42,0.381,0.376,0.205
2.612,0.054,0.166,0.112,-0.107,-0.029,0.137,0.098,0.351,0.395,0.361,0.361,0.195
2.614,0.068,0.166,0.098,-0.117,-0.015,0.132,0.093,0.342,0.371,0.342,0.337,0.181
2.616,0.059,0.156,0.098,-0.107,-0.02,0.127,0.093,0.332,0.356,0.322,0.327,0.171
2.618,0.044,0.132,0.088,-0.088,-0.024,0.107,0.102,0.322,0.351,0.307,0.307,0.146
2.62,0.039,0.122,0.083,-0.078,-0.024,0.102,0.102,0.307,0.337,0.298,0.288,0.137
2.622,0.039,0.107,0.068,-0.073,-0.015,0.088,0.102,0.298,0.317,0.278,0.268,0.122
2.624,0.039,0.102,0.063,-0.068,-0.015,0.083,0.102,0.278,0.298,0.264,0.249,0.112
2.626,0.024,0.083,0.059,-0.054,-0.02,0.068,0.102,0.273,0.283,0.264,0.254,0.107
2.628,0.034,0.078,0.044,-0.054,-0.005,0.059,0.093,0.254,0.254,0.244,0.244,0.088
2.63,0.039,0.073,0.034,-0.054,0.0,0.054,0.093,0.259,0.234,0.224,0.22,0.083
2.632,0.024,0.059,0.034,-0.039,-0.005,0.044,0.098,0.249,0.22,0.215,0.21,0.073
2.634,0.024,0.054,0.029,-0.039,-0.005,0.039,0.098,0.254,0.21,0.2,0.195,0.063
2.636,0.029,0.049,0.02,-0.039,0.005,0.034,0.102,0.249,0.2,0.185,0.181,0.044
2.638,0.02,0.034,0.015,-0.024,0.0,0.024,0.102,0.244,0.185,0.166,0.156,0.024
2.64,0.02,0.024,0.005,-0.02,0.005,0.015,0.102,0.239,0.181,0.161,0.166,0.024
2.642,0.01,0.01,0.0,-0.01,0.005,0.005,0.102,0.239,0.176,0.156,0.151,0.02
2.644,0.015,0.0,-0.015,-0.005,0.015,-0.01,0.102,0.229,0.161,0.146,0.132,0.005
2.646,0.01,-0.005,-0.015,0.0,0.01,-0.01,0.102,0.229,0.151,0.146,0.127,0.005
2.648,0.005,-0.01,-0.015,0.005,0.01,-0.015,0.098,0.22,0.132,0.137,0.122,0.0
2.65,0.005,-0.01,-0.015,0.005,0.01,-0.015,0.098,0.215,0.127,0.117,0.117,-0.005
2.652,-0.005,0.0,0.005,0.005,-0.005,0.0,0.093,0.215,0.112,0.107,0.107,-0.02
2.654,0.0,-0.01,-0.01,0.005,0.005,-0.01,0.093,0.215,0.107,0.102,0.098,-0.015
2.656,0.0,-0.02,-0.02,0.01,0.01,-0.02,0.098,0.224,0.107,0.093,0.093,-0.029
2.658,0.005,-0.029,-0.034,0.015,0.02,-0.034,0.098,0.224,0.102,0.083,0.088,-0.034
2.66,0.005,-0.029,-0.034,0.015,0.02,-0.034,0.093,0.224,0.102,0.073,0.073,-0.044
2.662,0.0,-0.049,-0.049,0.024,0.024,-0.049,0.098,0.224,0.102,0.068,0.073,-0.049
2.664,-0.01,-0.059,-0.049,0.034,0.02,-0.054,0.107,0.229,0.102,0.068,0.073,-0.044
2.666,0.0,-0.049,-0.049,0.024,0.024,-0.049,0.102,0.215,0.083,0.059,0.068,-0.054
2.668,-0.015,-0.054,-0.039,0.034,0.01,-0.049,0.112,0.224,0.083,0.068,0.073,-0.049
2.67,-0.024,-0.063,-0.039,0.044,0.005,-0.054,0.117,0.22,0.078,0.063,0.073,-0.044
2.672,-0.015,-0.054,-0.039,0.034,0.01,-0.049,0.122,0.215,0.068,0.054,0.068,-0.054
2.674,-0.015,-0.059,-0.044,0.039,0.015,-0.054,0.122,0.224,0.059,0.054,0.059,-0.054
2.676,-0.01,-0.054,-0.044,0.034,0.015,-0.049,0.132,0.234,0.063,0.044,0.049,-0.059
2.678,-0.01,-0.054,-0.044,0.034,0.015,-0.049,0.142,0.234,0.068,0.034,0.044,-0.073
2.68,-0.02,-0.063,-0.044,0.044,0.01,-0.054,0.146,0.239,0.078,0.039,0.044,-0.073
2.682,-0.01,-0.063,-0.054,0.039,0.02,-0.059,0.142,0.244,0.073,0.039,0.049,-0.068
2.684,0.0,-0.054,-0.054,0.029,0.024,-0.054,0.142,0.249,0.073,0.039,0.054,-0.063
2.686,-0.005,-0.054,-0.049,0.029,0.02,-0.054,0.132,0.239,0.054,0.034,0.049,-0.073
2.688,-0.01,-0.044,-0.034,0.029,0.01,-0.039,0.132,0.249,0.049,0.039,0.044,-0.068
2.69,-0.015,-0.054,-0.039,0.034,0.01,-0.049,0.132,0.249,0.039,0.034,0.049,-0.068
2.692,-0.01,-0.059,-0.049,0.034,0.02,-0.054,0.132,0.254,0.034,0.034,0.044,-0.068
2.694,-0.01,-0.059,-0.049,0.034,0.02,-0.054,0.132,0.264,0.034,0.034,0.039,-0.073
2.696,-0.015,-0.063,-0.049,0.039,0.015,-0.059,0.137,0.259,0.034,0.024,0.034,-0.078
2.698,-0.005,-0.063,-0.059,0.034,0.024,-0.063,0.146,0.264,0.039,0.024,0.049,-0.063
2.7,-0.01,-0.068,-0.059,0.039,0.024,-0.063,0.142,0.254,0.039,0.024,0.034,-0.073
2.702,-0.015,-0.068,-0.054,0.044,0.02,-0.063,0.137,0.259,0.044,0.024,0.039,-0.073
2.704,-0.005,-0.063,-0.059,0.034,0.024,-0.063,0.137,0.249,0.044,0.024,0.039,-0.073
2.706,-0.015,-0.073,-0.059,0.044,0.02,-0.068,0.132,0.254,0.039,0.029,0.044,-0.068
2.708,-0.015,-0.073,-0.059,0.044,0.02,-0.068,0.127,0.254,0.034,0.029,0.044,-0.068
2.71,-0.015,-0.068,-0.054,0.044,0.02,-0.063,0.122,0.249,0.024,0.02,0.044,-0.068
2.712,-0.015,-0.073,-0.059,0.044,0.02,-0.068,0.122,0.244,0.02,0.015,0.034,-0.073
2.714,-0.005,-0.063,-0.059,0.034,0.024,-0.063,0.122,0.254,0.02,0.01,0.029,-0.073
2.716,-0.015,-0.068,-0.054,0.044,0.02,-0.063,0.137,0.268,0.029,0.01,0.034,-0.073
2.718,-0.02,-0.073,-0.054,0.049,0.015,-0.063,0.137,0.268,0.029,0.005,0.029,-0.083
2.72,-0.015,-0.063,-0.049,0.039,0.015,-0.059,0.137,0.268,0.034,0.015,0.029,-0.078
2.722,-0.015,-0.068,-0.054,0.044,0.02,-0.063,0.142,0.278,0.039,0.015,0.034,-0.078
2.724,-0.01,-0.059,-0.049,0.034,0.02,-0.054,0.142,0.273,0.044,0.015,0.034,-0.083
2.726,-0.005,-0.059,-0.054,0.034,0.024,-0.059,0.142,0.283,0.049,0.024,0.039,-0.068
2.728,-0.015,-0.063,-0.049,0.039,0.015,-0.059,0.137,0.278,0.044,0.024,0.039,-0.063
2.73,-0.01,-0.059,-0.049,0.034,0.02,-0.054,0.132,0.283,0.039,0.02,0.044,-0.063
2.732,-0.015,-0.063,-0.049,0.039,0.015,-0.059,0.127,0.283,0.039,0.015,0.034,-0.073
2.734,-0.015,-0.073,-0.059,0.044,0.02,-0.068,0.132,0.298,0.044,0.02,0.034,-0.068
2.736,-0.01,-0.068,-0.059,0.039,0.024,-0.063,0.132,0.303,0.054,0.015,0.029,-0.073
2.738,-0.015,-0.073,-0.059,0.044,0.02,-0.068,0.137,0.307,0.054,0.01,0.029,-0.078
2.74,-0.02,-0.073,-0.054,0.049,0.015,-0.063,0.137,0.303,0.063,0.005,0.02,-0.078
2.742,-0.01,-0.068,-0.059,0.039,0.024,-0.063,0.137,0.317,0.073,0.015,0.029,-0.073
2.744,-0.015,-0.063,-0.049,0.039,0.015,-0.059,0.137,0.303,0.073,0.005,0.029,-0.078
2.746,-0.005,-0.054,-0.049,0.029,0.02,-0.054,0.142,0.307,0.078,0.015,0.034,-0.068
2.748,0.0,-0.044,-0.044,0.024,0.02,-0.044,0.146,0.307,0.073,0.01,0.039,-0.068
2.75,0.0,-0.054,-0.054,0.029,0.024,-0.054,0.151,0.312,0.068,0.01,0.039,-0.063
2.752,0.0,-0.054,-0.054,0.029,0.024,-0.054,0.166,0.322,0.078,0.02,0.049,-0.059
2.754,-0.02,-0.063,-0.044,0.044,0.01,-0.054,0.171,0.332,0.088,0.024,0.049,-0.049
2.756,-0.02,-0.063,-0.044,0.044,0.01,-0.054,0.171,0.337,0.093,0.02,0.044,-0.054
2.758,-0.015,-0.063,-0.049,0.039,0.015,-0.059,0.166,0.342,0.102,0.024,0.039,-0.054
2.76,-0.02,-0.068,-0.049,0.044,0.015,-0.059,0.156,0.337,0.098,0.02,0.029,-0.063
2.762,-0.02,-0.068,-0.049,0.044,0.015,-0.059,0.161,0.346,0.112,0.024,0.063,-0.059
2.764,-0.015,-0.059,-0.044,0.039,0.015,-0.054,0.151,0.346,0.112,0.02,0.054,-0.059
2.766,-0.01,-0.054,-0.044,0.034,0.015,-0.049,0.151,0.346,0.117,0.029,0.044,-0.054
2.768,-0.01,-0.059,-0.049,0.034,0.02,-0.054,0.151,0.346,0.122,0.034,0.044,-0.054
2.77,-0.02,-0.063,-0.044,0.044,0.01,-0.054,0.142,0.337,0.112,0.034,0.049,-0.049
2.772,-0.01,-0.049,-0.039,0.029,0.015,-0.044,0.137,0.332,0.107,0.034,0.049,-0.054
2.774,-0.015,-0.049,-0.034,0.034,0.01,-0.044,0.151,0.342,0.117,0.044,0.054,-0.054
2.776,-0.015,-0.039,-0.024,0.029,0.005,-0.034,0.146,0.342,0.117,0.039,0.049,-0.049
2.778,-0.005,-0.039,-0.034,0.024,0.015,-0.039,0.146,0.346,0.127,0.039,0.049,-0.054
2.78,-0.015,-0.059,-0.044,0.039,0.015,-0.054,0.151,0.346,0.132,0.039,0.049,-0.049
2.782,-0.02,-0.068,-0.049,0.044,0.015,-0.059,0.156,0.342,0.137,0.039,0.049,-0.049
2.784,-0.01,-0.054,-0.044,0.034,0.015,-0.049,0.161,0.351,0.137,0.039,0.054,-0.044
2.786,-0.02,-0.063,-0.044,0.044,0.01,-0.054,0.151,0.346,0.132,0.039,0.054,-0.054
2.788,-0.02,-0.054,-0.034,0.039,0.005,-0.044,0.146,0.351,0.127,0.034,0.044,-0.054
2.79,-0.015,-0.059,-0.044,0.039,0.015,-0.054,0.151,0.351,0.127,0.034,0.044,-0.049
2.792,-0.02,-0.059,-0.039,0.039,0.01,-0.049,0.146,0.356,0.117,0.034,0.049,-0.044
2.794,-0.005,-0.054,-0.049,0.029,0.02,-0.054,0.151,0.361,0.117,0.034,0.044,-0.049
2.796,-0.005,-0.054,-0.049,0.029,0.02,-0.054,0.156,0.366,0.117,0.029,0.054,-0.044
2.798,0.0,-0.044,-0.044,0.024,0.02,-0.044,0.156,0.361,0.117,0.029,0.044,-0.049
2.8,-0.005,-0.049,-0.044,0.029,0.02,-0.049,0.166,0.366,0.122,0.029,0.044,-0.054
2.802,-0.015,-0.063,-0.049,0.039,0.015,-0.059,0.166,0.361,0.127,0.029,0.044,-0.049
2.804,-0.005,-0.054,-0.049,0.029,0.02,-0.054,0.171,0.366,0.127,0.034,0.054,-0.039
2.806,-0.005,-0.054,-0.049,0.029,0.02,-0.054,0.166,0.366,0.122,0.039,0.054,-0.034
2.808,-0.01,-0.059,-0.049,0.034,0.02,-0.054,0.161,0.371,0.122,0.034,0.044,-0.039
2.81,-0.01,-0.059,-0.049,0.034,0.02,-0.054,0.166,0.371,0.122,0.039,0.049,-0.034
2.812,-0.015,-0.054,-0.039,0.034,0.01,-0.049,0.171,0.371,0.117,0.044,0.054,-0.039
2.814,-0.005,-0.054,-0.049,0.029,0.02,-0.054,0.166,0.376,0.112,0.034,0.049,-0.044
2.816,-0.005,-0.049,-0.044,0.029,0.02,-0.049,0.181,0.386,0.122,0.034,0.049,-0.039
2.818,-0.015,-0.054,-0.039,0.034,0.01,-0.049,0.176,0.386,0.122,0.029,0.044,-0.039
2.82,-0.005,-0.054,-0.049,0.029,0.02,-0.054,0.176,0.381,0.122,0.034,0.029,-0.054
2.822,0.0,-0.044,-0.044,0.024,0.02,-0.044,0.171,0.381,0.122,0.029,0.029,-0.054
2.824,0.0,-0.044,-0.044,0.024,0.02,-0.044,0.171,0.371,0.122,0.024,0.029,-0.059
2.826,0.0,-0.049,-0.049,0.024,0.024,-0.049,0.181,0.366,0.117,0.029,0.029,-0.054
2.828,-0.005,-0.059,-0.054,0.034,0.024,-0.059,0.181,0.361,0.112,0.029,0.034,-0.054
2.83,-0.01,-0.059,-0.049,0.034,0.02,-0.054,0.181,0.361,0.107,0.024,0.034,-0.044
2.832,0.0,-0.044,-0.044,0.024,0.02,-0.044,0.181,0.361,0.107,0.029,0.034,-0.039
2.834,-0.005,-0.039,-0.034,0.024,0.015,-0.039,0.181,0.361,0.102,0.029,0.034,-0.039
2.836,0.0,-0.039,-0.039,0.02,0.02,-0.039,0.185,0.361,0.102,0.02,0.034,-0.039
2.838,-0.01,-0.049,-0.039,0.029,0.015,-0.044,0.19,0.356,0.098,0.02,0.034,-0.039
2.84,-0.01,-0.044,-0.034,0.029,0.01,-0.039,0.185,0.346,0.102,0.02,0.034,-0.044
2.842,-0.005,-0.039,-0.034,0.024,0.015,-0.039,0.185,0.342,0.102,0.015,0.029,-0.044
2.844,0.0,-0.049,-0.049,0.024,0.024,-0.049,0.181,0.332,0.098,0.005,0.029,-0.044
2.846,-0.005,-0.059,-0.054,0.034,0.024,-0.059,0.181,0.332,0.093,0.015,0.034,-0.039
2.848,0.0,-0.059,-0.059,0.029,0.029,-0.059,0.181,0.332,0.093,0.015,0.034,-0.039
2.85,-0.015,-0.063,-0.049,0.039,0.015,-0.059,0.171,0.332,0.083,0.01,0.024,-0.044
2.852,-0.015,-0.063,-0.049,0.039,0.015,-0.059,0.181,0.332,0.078,0.01,0.024,-0.049
2.854,-0.01,-0.068,-0.059,0.039,0.024,-0.063,0.176,0.332,0.078,0.005,0.02,-0.049
2.856,-0.01,-0.063,-0.054,0.039,0.02,-0.059,0.176,0.327,0.068,0.0,0.015,-0.049
2.858,0.005,-0.059,-0.063,0.029,0.034,-0.063,0.176,0.327,0.068,0.0,0.02,-0.049
2.86,-0.015,-0.068,-0.054,0.044,0.02,-0.063,0.185,0.327,0.078,0.005,0.024,-0.049
2.862,-0.02,-0.068,-0.049,0.044,0.015,-0.059,0.185,0.322,0.078,0.005,0.02,-0.049
2.864,0.0,-0.063,-0.063,0.034,0.029,-0.063,0.181,0.322,0.073,0.0,0.02,-0.049
2.866,0.0,-0.063,-0.063,0.034,0.029,-0.063,0.171,0.317,0.063,0.005,0.02,-0.054
2.868,-0.005,-0.054,-0.049,0.029,0.02,-0.054,0.171,0.317,0.054,-0.005,0.01,-0.049
2.87,-0.005,-0.059,-0.054,0.034,0.024,-0.059,0.166,0.312,0.049,-0.01,0.005,-0.054
2.872,-0.01,-0.054,-0.044,0.034,0.015,-0.049,0.166,0.307,0.044,-0.005,0.005,-0.054
2.874,-0.01,-0.054,-0.044,0.034,0.015,-0.049,0.166,0.307,0.039,-0.01,0.005,-0.063
2.876,-0.015,-0.063,-0.049,0.039,0.015,-0.059,0.161,0.303,0.034,-0.01,0.0,-0.068
2.878,-0.02,-0.078,-0.059,0.049,0.02,-0.068,0.171,0.312,0.034,-0.005,0.0,-0.063
2.88,-0.01,-0.068,-0.059,0.039,0.024,-0.063,0.176,0.312,0.034,-0.005,-0.005,-0.063
2.882,-0.01,-0.068,-0.059,0.039,0.024,-0.063,0.171,0.307,0.034,-0.01,-0.005,-0.063
2.884,0.0,-0.063,-0.063,0.034,0.029,-0.063,0.166,0.298,0.029,-0.01,-0.005,-0.063
2.886,0.0,-0.068,-0.068,0.034,0.034,-0.068,0.156,0.298,0.024,-0.005,-0.005,-0.063
2.888,-0.005,-0.054,-0.049,0.029,0.02,-0.054,0.156,0.288,0.015,-0.01,-0.01,-0.063
2.89,-0.005,-0.054,-0.049,0.029,0.02,-0.054,0.161,0.293,0.015,-0.01,-0.005,-0.059
2.892,-0.01,-0.063,-0.054,0.039,0.02,-0.059,0.161,0.283,0.01,-0.01,0.0,-0.054
2.894,-0.01,-0.063,-0.054,0.039,0.02,-0.059,0.156,0.278,0.01,-0.01,-0.01,-0.054
2.896,-0.01,-0.068,-0.059,0.039,0.024,-0.063,0.161,0.278,0.01,-0.015,-0.005,-0.049
2.898,-0.01,-0.073,-0.063,0.044,0.024,-0.068,0.161,0.278,0.005,-0.015,-0.01,-0.054
2.9,-0.005,-0.063,-0.059,0.034,0.024,-0.063,0.161,0.268,0.0,-0.015,-0.01,-0.054
2.902,-0.01,-0.063,-0.054,0.039,0.02,-0.059,0.166,0.264,-0.005,-0.015,0.0,-0.059
