time,I,II,III,aVR,aVL,aVF,V1,V2,V3,V4,V5,V6
0.0,-0.044,-0.029,0.015,0.039,-0.029,-0.01,0.005,-0.029,-0.088,-0.083,-0.063,-0.049
0.002,-0.024,-0.015,0.01,0.02,-0.02,-0.005,0.0,-0.029,-0.088,-0.083,-0.063,-0.044
0.004,-0.034,-0.024,0.01,0.029,-0.024,-0.01,-0.005,-0.034,-0.083,-0.083,-0.063,-0.044
0.006,-0.039,-0.034,0.005,0.039,-0.024,-0.015,0.0,-0.039,-0.088,-0.093,-0.068,-0.049
0.008,-0.049,-0.039,0.01,0.044,-0.029,-0.015,-0.005,-0.039,-0.093,-0.093,-0.068,-0.049
0.01,-0.059,-0.054,0.005,0.059,-0.034,-0.024,-0.015,-0.044,-0.102,-0.102,-0.078,-0.059
0.012,-0.054,-0.059,-0.005,0.059,-0.024,-0.034,-0.005,-0.044,-0.098,-0.102,-0.078,-0.059
0.014,-0.054,-0.059,-0.005,0.059,-0.024,-0.034,0.0,-0.044,-0.102,-0.098,-0.078,-0.059
0.016,-0.044,-0.054,-0.01,0.049,-0.02,-0.034,0.005,-0.034,-0.093,-0.098,-0.073,-0.054
0.018,-0.044,-0.049,-0.005,0.049,-0.02,-0.029,0.01,-0.029,-0.088,-0.098,-0.073,-0.054
0.02,-0.049,-0.054,-0.005,0.054,-0.024,-0.029,-0.005,-0.034,-0.098,-0.098,-0.078,-0.059
0.022,-0.044,-0.054,-0.01,0.049,-0.02,-0.034,0.0,-0.034,-0.093,-0.093,-0.068,-0.054
0.024,-0.039,-0.044,-0.005,0.044,-0.02,-0.024,0.0,-0.034,-0.093,-0.093,-0.068,-0.049
0.026,-0.039,-0.054,-0.015,0.049,-0.015,-0.034,0.0,-0.034,-0.093,-0.098,-0.078,-0.054
0.028,-0.039,-0.054,-0.015,0.049,-0.015,-0.034,-0.005,-0.034,-0.102,-0.098,-0.078,-0.054
0.03,-0.044,-0.059,-0.015,0.054,-0.015,-0.039,-0.005,-0.039,-0.102,-0.102,-0.078,-0.054
0.032,-0.044,-0.054,-0.01,0.049,-0.02,-0.034,0.005,-0.034,-0.098,-0.102,-0.078,-0.054
0.034,-0.039,-0.049,-0.01,0.044,-0.015,-0.029,0.0,-0.024,-0.093,-0.102,-0.083,-0.063
0.036,-0.054,-0.059,-0.005,0.059,-0.024,-0.034,0.005,-0.024,-0.098,-0.102,-0.083,-0.063
0.038,-0.063,-0.068,-0.005,0.068,-0.029,-0.039,0.0,-0.029,-0.098,-0.102,-0.083,-0.068
0.04,-0.068,-0.068,0.0,0.068,-0.034,-0.034,0.0,-0.029,-0.098,-0.098,-0.088,-0.068
0.042,-0.078,-0.073,0.005,0.078,-0.044,-0.034,0.0,-0.024,-0.093,-0.098,-0.078,-0.068
0.044,-0.059,-0.059,0.0,0.059,-0.029,-0.029,0.005,-0.029,-0.098,-0.102,-0.078,-0.068
0.046,-0.039,-0.039,0.0,0.039,-0.02,-0.02,0.01,-0.02,-0.083,-0.093,-0.068,-0.059
0.048,-0.024,-0.029,-0.005,0.029,-0.01,-0.02,0.01,-0.02,-0.088,-0.093,-0.068,-0.059
0.05,-0.024,-0.034,-0.01,0.029,-0.01,-0.024,0.01,-0.024,-0.088,-0.102,-0.073,-0.063
0.052,-0.034,-0.039,-0.005,0.039,-0.015,-0.024,0.005,-0.024,-0.093,-0.102,-0.073,-0.068
0.054,-0.049,-0.049,0.0,0.049,-0.024,-0.024,0.01,-0.02,-0.093,-0.102,-0.073,-0.068
0.056,-0.063,-0.054,0.01,0.059,-0.039,-0.024,0.015,-0.02,-0.093,-0.102,-0.073,-0.073
0.058,-0.063,-0.054,0.01,0.059,-0.039,-0.024,0.01,-0.024,-0.093,-0.102,-0.078,-0.073
0.06,-0.059,-0.044,0.015,0.054,-0.039,-0.015,0.01,-0.02,-0.083,-0.088,-0.068,-0.063
0.062,-0.063,-0.049,0.015,0.059,-0.039,-0.02,0.015,-0.015,-0.083,-0.088,-0.073,-0.059
0.064,-0.063,-0.049,0.015,0.059,-0.039,-0.02,0.01,-0.024,-0.093,-0.088,-0.078,-0.063
0.066,-0.049,-0.039,0.01,0.044,-0.029,-0.015,0.005,-0.024,-0.093,-0.088,-0.078,-0.059
0.068,-0.059,-0.054,0.005,0.059,-0.034,-0.024,0.01,-0.02,-0.088,-0.093,-0.073,-0.054
0.07,-0.059,-0.049,0.01,0.054,-0.034,-0.02,0.005,-0.024,-0.088,-0.098,-0.078,-0.054
0.072,-0.044,-0.039,0.005,0.044,-0.024,-0.02,0.01,-0.02,-0.083,-0.088,-0.073,-0.059
0.074,-0.049,-0.044,0.005,0.049,-0.029,-0.02,0.015,-0.02,-0.083,-0.088,-0.078,-0.059
0.076,-0.054,-0.039,0.015,0.049,-0.034,-0.015,0.015,-0.015,-0.088,-0.088,-0.073,-0.059
0.078,-0.049,-0.039,0.01,0.044,-0.029,-0.015,0.01,-0.024,-0.093,-0.093,-0.078,-0.063
0.08,-0.054,-0.044,0.01,0.049,-0.034,-0.02,0.01,-0.024,-0.093,-0.088,-0.073,-0.063
0.082,-0.059,-0.049,0.01,0.054,-0.034,-0.02,0.01,-0.024,-0.093,-0.093,-0.073,-0.059
0.084,-0.059,-0.054,0.005,0.059,-0.034,-0.024,0.01,-0.024,-0.093,-0.093,-0.073,-0.059
0.086,-0.059,-0.054,0.005,0.059,-0.034,-0.024,0.005,-0.034,-0.093,-0.093,-0.078,-0.063
0.088,-0.059,-0.054,0.005,0.059,-0.034,-0.024,0.01,-0.029,-0.093,-0.093,-0.068,-0.054
0.09,-0.054,-0.049,0.005,0.054,-0.029,-0.024,0.01,-0.029,-0.098,-0.093,-0.078,-0.054
0.092,-0.054,-0.049,0.005,0.054,-0.029,-0.024,0.005,-0.034,-0.098,-0.093,-0.073,-0.059
0.094,-0.059,-0.054,0.005,0.059,-0.034,-0.024,0.015,-0.029,-0.093,-0.088,-0.073,-0.054
0.096,-0.054,-0.049,0.005,0.054,-0.029,-0.024,0.015,-0.029,-0.098,-0.088,-0.068,-0.054
0.098,-0.049,-0.044,0.005,0.049,-0.029,-0.02,0.005,-0.034,-0.098,-0.098,-0.078,-0.059
0.1,-0.054,-0.044,0.01,0.049,-0.034,-0.02,0.01,-0.039,-0.098,-0.088,-0.068,-0.063
0.102,-0.054,-0.049,0.005,0.054,-0.029,-0.024,0.005,-0.044,-0.102,-0.093,-0.073,-0.059
0.104,-0.059,-0.059,0.0,0.059,-0.029,-0.029,-0.005,-0.044,-0.107,-0.098,-0.078,-0.063
0.106,-0.078,-0.073,0.005,0.078,-0.044,-0.034,-0.01,-0.063,-0.117,-0.107,-0.088,-0.073
0.108,-0.073,-0.078,-0.005,0.078,-0.034,-0.044,-0.005,-0.059,-0.117,-0.102,-0.083,-0.068
0.11,-0.054,-0.054,0.0,0.054,-0.029,-0.029,0.0,-0.054,-0.112,-0.098,-0.083,-0.063
0.112,-0.039,-0.049,-0.01,0.044,-0.015,-0.029,0.0,-0.054,-0.112,-0.098,-0.078,-0.063
0.114,-0.039,-0.039,0.0,0.039,-0.02,-0.02,0.005,-0.054,-0.112,-0.098,-0.078,-0.059
0.116,-0.039,-0.044,-0.005,0.044,-0.02,-0.024,0.0,-0.044,-0.117,-0.098,-0.078,-0.059
0.118,-0.049,-0.059,-0.01,0.054,-0.02,-0.034,0.0,-0.049,-0.117,-0.098,-0.078,-0.063
0.12,-0.044,-0.049,-0.005,0.049,-0.02,-0.029,0.0,-0.049,-0.117,-0.098,-0.078,-0.063
0.122,-0.049,-0.049,0.0,0.049,-0.024,-0.024,0.0,-0.054,-0.117,-0.098,-0.073,-0.054
0.124,-0.044,-0.049,-0.005,0.049,-0.02,-0.029,0.0,-0.054,-0.122,-0.098,-0.078,-0.059
0.126,-0.044,-0.049,-0.005,0.049,-0.02,-0.029,-0.005,-0.059,-0.122,-0.098,-0.078,-0.059
0.128,-0.039,-0.049,-0.01,0.044,-0.015,-0.029,-0.005,-0.063,-0.132,-0.098,-0.078,-0.059
0.13,-0.034,-0.044,-0.01,0.039,-0.015,-0.029,-0.005,-0.059,-0.122,-0.102,-0.078,-0.059
0.132,-0.039,-0.049,-0.01,0.044,-0.015,-0.029,-0.005,-0.063,-0.127,-0.098,-0.078,-0.063
0.134,-0.054,-0.059,-0.005,0.059,-0.024,-0.034,-0.01,-0.068,-0.142,-0.102,-0.088,-0.063
0.136,-0.059,-0.063,-0.005,0.063,-0.029,-0.034,-0.01,-0.063,-0.142,-0.102,-0.088,-0.063
0.138,-0.054,-0.059,-0.005,0.059,-0.024,-0.034,-0.01,-0.063,-0.142,-0.107,-0.088,-0.068
0.14,-0.044,-0.054,-0.01,0.049,-0.02,-0.034,-0.005,-0.068,-0.137,-0.102,-0.083,-0.068
0.142,-0.049,-0.059,-0.01,0.054,-0.02,-0.034,-0.005,-0.068,-0.142,-0.102,-0.083,-0.063
0.144,-0.049,-0.059,-0.01,0.054,-0.02,-0.034,-0.02,-0.078,-0.151,-0.112,-0.088,-0.068
0.146,-0.044,-0.049,-0.005,0.049,-0.02,-0.029,-0.02,-0.078,-0.146,-0.107,-0.088,-0.063
0.148,-0.044,-0.049,-0.005,0.049,-0.02,-0.029,-0.015,-0.078,-0.151,-0.112,-0.083,-0.063
0.15,-0.049,-0.049,0.0,0.049,-0.024,-0.024,-0.005,-0.073,-0.146,-0.112,-0.083,-0.059
0.152,-0.054,-0.054,0.0,0.054,-0.029,-0.029,-0.005,-0.073,-0.151,-0.112,-0.083,-0.063
0.154,-0.073,-0.063,0.01,0.068,-0.044,-0.029,-0.015,-0.078,-0.151,-0.117,-0.088,-0.068
0.156,-0.068,-0.063,0.005,0.068,-0.039,-0.029,-0.015,-0.083,-0.161,-0.122,-0.093,-0.073
0.158,-0.068,-0.068,0.0,0.068,-0.034,-0.034,-0.005,-0.078,-0.151,-0.122,-0.088,-0.068
0.16,-0.078,-0.073,0.005,0.078,-0.044,-0.034,-0.01,-0.083,-0.156,-0.117,-0.083,-0.073
0.162,-0.068,-0.059,0.01,0.063,-0.039,-0.024,-0.01,-0.083,-0.156,-0.112,-0.083,-0.063
0.164,-0.049,-0.039,0.01,0.044,-0.029,-0.015,-0.01,-0.073,-0.151,-0.107,-0.078,-0.063
0.166,-0.034,-0.029,0.005,0.034,-0.02,-0.015,-0.005,-0.078,-0.146,-0.107,-0.073,-0.059
0.168,-0.049,-0.044,0.005,0.049,-0.029,-0.02,-0.01,-0.083,-0.156,-0.117,-0.088,-0.063
0.17,-0.054,-0.049,0.005,0.054,-0.029,-0.024,-0.02,-0.093,-0.171,-0.122,-0.098,-0.073
0.172,-0.054,-0.054,0.0,0.054,-0.029,-0.029,-0.015,-0.093,-0.171,-0.122,-0.098,-0.073
0.174,-0.068,-0.068,0.0,0.068,-0.034,-0.034,-0.015,-0.098,-0.176,-0.122,-0.098,-0.073
0.176,-0.068,-0.068,0.0,0.068,-0.034,-0.034,-0.02,-0.098,-0.166,-0.122,-0.098,-0.073
0.178,-0.054,-0.059,-0.005,0.059,-0.024,-0.034,-0.024,-0.098,-0.166,-0.122,-0.093,-0.078
0.18,-0.063,-0.063,0.0,0.063,-0.034,-0.034,-0.029,-0.102,-0.171,-0.127,-0.098,-0.078
0.182,-0.078,-0.068,0.01,0.073,-0.044,-0.029,-0.029,-0.102,-0.171,-0.122,-0.098,-0.073
0.184,-0.063,-0.054,0.01,0.059,-0.039,-0.024,-0.024,-0.102,-0.171,-0.117,-0.093,-0.063
0.186,-0.039,-0.039,0.0,0.039,-0.02,-0.02,-0.02,-0.098,-0.166,-0.112,-0.088,-0.059
0.188,-0.049,-0.049,0.0,0.049,-0.024,-0.024,-0.02,-0.098,-0.176,-0.117,-0.093,-0.063
0.19,-0.054,-0.054,0.0,0.054,-0.029,-0.029,-0.024,-0.102,-0.181,-0.127,-0.098,-0.073
0.192,-0.054,-0.059,-0.005,0.059,-0.024,-0.034,-0.024,-0.102,-0.185,-0.132,-0.098,-0.073
0.194,-0.054,-0.059,-0.005,0.059,-0.024,-0.034,-0.024,-0.098,-0.181,-0.127,-0.098,-0.073
0.196,-0.063,-0.068,-0.005,0.068,-0.029,-0.039,-0.024,-0.107,-0.181,-0.132,-0.102,-0.078
0.198,-0.054,-0.054,0.0,0.054,-0.029,-0.029,-0.024,-0.102,-0.185,-0.127,-0.098,-0.073
0.2,-0.059,-0.068,-0.01,0.063,-0.024,-0.039,-0.024,-0.107,-0.181,-0.127,-0.098,-0.073
0.202,-0.059,-0.068,-0.01,0.063,-0.024,-0.039,-0.024,-0.107,-0.181,-0.122,-0.102,-0.073
0.204,-0.059,-0.059,0.0,0.059,-0.029,-0.029,-0.024,-0.102,-0.181,-0.122,-0.098,-0.068
0.206,-0.059,-0.063,-0.005,0.063,-0.029,-0.034,-0.029,-0.102,-0.185,-0.122,-0.098,-0.068
0.208,-0.054,-0.063,-0.01,0.059,-0.024,-0.039,-0.024,-0.102,-0.185,-0.127,-0.102,-0.068
0.21,-0.054,-0.059,-0.005,0.059,-0.024,-0.034,-0.024,-0.107,-0.181,-0.127,-0.098,-0.068
0.212,-0.059,-0.063,-0.005,0.063,-0.029,-0.034,-0.029,-0.112,-0.19,-0.132,-0.107,-0.078
0.214,-0.054,-0.063,-0.01,0.059,-0.024,-0.039,-0.024,-0.107,-0.185,-0.132,-0.107,-0.078
0.216,-0.054,-0.068,-0.015,0.063,-0.02,-0.044,-0.029,-0.107,-0.185,-0.132,-0.107,-0.078
0.218,-0.063,-0.073,-0.01,0.068,-0.029,-0.044,-0.034,-0.112,-0.2,-0.132,-0.107,-0.083
0.22,-0.068,-0.083,-0.015,0.078,-0.029,-0.049,-0.034,-0.112,-0.2,-0.137,-0.112,-0.078
0.222,-0.068,-0.078,-0.01,0.073,-0.029,-0.044,-0.029,-0.117,-0.195,-0.127,-0.102,-0.073
0.224,-0.059,-0.063,-0.005,0.063,-0.029,-0.034,-0.029,-0.112,-0.195,-0.122,-0.098,-0.068
0.226,-0.044,-0.049,-0.005,0.049,-0.02,-0.029,-0.02,-0.107,-0.195,-0.117,-0.088,-0.068
0.228,-0.049,-0.049,0.0,0.049,-0.024,-0.024,-0.02,-0.107,-0.195,-0.122,-0.093,-0.063
0.23,-0.049,-0.054,-0.005,0.054,-0.024,-0.029,-0.02,-0.112,-0.19,-0.127,-0.093,-0.068
0.232,-0.068,-0.068,0.0,0.068,-0.034,-0.034,-0.029,-0.117,-0.195,-0.132,-0.098,-0.073
0.234,-0.054,-0.063,-0.01,0.059,-0.024,-0.039,-0.024,-0.117,-0.195,-0.137,-0.102,-0.078
0.236,-0.049,-0.049,0.0,0.049,-0.024,-0.024,-0.024,-0.117,-0.195,-0.137,-0.107,-0.078
0.238,-0.059,-0.054,0.005,0.059,-0.034,-0.024,-0.024,-0.107,-0.195,-0.132,-0.102,-0.073
0.24,-0.068,-0.059,0.01,0.063,-0.039,-0.024,-0.02,-0.102,-0.195,-0.132,-0.102,-0.068
0.242,-0.068,-0.059,0.01,0.063,-0.039,-0.024,-0.02,-0.107,-0.2,-0.127,-0.098,-0.068
0.244,-0.068,-0.054,0.015,0.063,-0.044,-0.02,-0.024,-0.107,-0.2,-0.122,-0.098,-0.068
0.246,-0.059,-0.049,0.01,0.054,-0.034,-0.02,-0.024,-0.112,-0.2,-0.117,-0.093,-0.068
0.248,-0.054,-0.044,0.01,0.049,-0.034,-0.02,-0.02,-0.107,-0.2,-0.122,-0.093,-0.063
0.25,-0.054,-0.034,0.02,0.044,-0.039,-0.01,-0.02,-0.107,-0.195,-0.112,-0.088,-0.059
0.252,-0.054,-0.034,0.02,0.044,-0.039,-0.01,-0.02,-0.102,-0.19,-0.107,-0.088,-0.059
0.254,-0.054,-0.034,0.02,0.044,-0.039,-0.01,-0.02,-0.102,-0.185,-0.107,-0.093,-0.063
0.256,-0.054,-0.02,0.034,0.039,-0.044,0.005,-0.015,-0.093,-0.185,-0.102,-0.088,-0.059
0.258,-0.044,-0.01,0.034,0.029,-0.039,0.01,-0.015,-0.093,-0.185,-0.093,-0.078,-0.059
0.26,-0.039,-0.005,0.034,0.024,-0.039,0.015,-0.01,-0.088,-0.185,-0.093,-0.073,-0.049
0.262,-0.029,0.005,0.034,0.015,-0.034,0.02,-0.015,-0.093,-0.181,-0.088,-0.073,-0.049
0.264,-0.049,-0.005,0.044,0.029,-0.049,0.02,-0.015,-0.098,-0.185,-0.088,-0.073,-0.049
0.266,-0.054,0.0,0.054,0.029,-0.054,0.024,-0.015,-0.098,-0.185,-0.088,-0.073,-0.054
0.268,-0.059,0.0,0.059,0.029,-0.059,0.029,0.0,-0.083,-0.176,-0.083,-0.073,-0.039
0.27,-0.063,0.0,0.063,0.034,-0.063,0.029,0.0,-0.093,-0.181,-0.083,-0.078,-0.049
0.272,-0.044,0.01,0.054,0.02,-0.049,0.029,0.005,-0.088,-0.176,-0.078,-0.073,-0.049
0.274,-0.054,0.01,0.063,0.024,-0.059,0.034,0.015,-0.073,-0.166,-0.068,-0.063,-0.044
0.276,-0.059,0.01,0.068,0.024,-0.063,0.039,0.01,-0.078,-0.171,-0.078,-0.068,-0.054
0.278,-0.054,0.015,0.068,0.02,-0.063,0.039,0.015,-0.073,-0.166,-0.068,-0.063,-0.049
0.28,-0.034,0.024,0.059,0.005,-0.049,0.039,0.02,-0.068,-0.166,-0.059,-0.054,-0.039
0.282,-0.029,0.034,0.063,0.0,-0.049,0.049,0.015,-0.063,-0.161,-0.054,-0.049,-0.034
0.284,-0.034,0.029,0.063,0.005,-0.049,0.044,0.01,-0.073,-0.161,-0.054,-0.049,-0.034
0.286,-0.034,0.01,0.044,0.015,-0.039,0.024,-0.01,-0.083,-0.171,-0.059,-0.054,-0.039
0.288,-0.029,0.0,0.029,0.015,-0.029,0.015,-0.02,-0.083,-0.171,-0.063,-0.054,-0.034
0.29,-0.029,-0.01,0.02,0.02,-0.024,0.005,-0.029,-0.093,-0.181,-0.068,-0.059,-0.044
0.292,-0.024,-0.01,0.015,0.02,-0.02,0.0,-0.034,-0.098,-0.185,-0.073,-0.063,-0.044
0.294,-0.01,0.01,0.02,0.0,-0.015,0.015,-0.039,-0.098,-0.181,-0.073,-0.063,-0.049
0.296,0.0,0.01,0.01,-0.005,-0.005,0.01,-0.044,-0.098,-0.185,-0.073,-0.063,-0.049
0.298,0.01,0.024,0.015,-0.015,-0.005,0.02,-0.049,-0.098,-0.19,-0.068,-0.059,-0.049
0.3,0.015,0.02,0.005,-0.015,0.005,0.01,-0.044,-0.093,-0.185,-0.059,-0.059,-0.034
0.302,-0.005,0.005,0.01,0.0,-0.01,0.005,-0.039,-0.088,-0.181,-0.054,-0.054,-0.029
0.304,0.0,0.01,0.01,-0.005,-0.005,0.01,-0.059,-0.107,-0.195,-0.063,-0.063,-0.034
0.306,-0.02,-0.01,0.01,0.015,-0.015,0.0,-0.063,-0.112,-0.2,-0.073,-0.068,-0.034
0.308,-0.024,-0.02,0.005,0.024,-0.015,-0.01,-0.068,-0.122,-0.215,-0.073,-0.078,-0.034
0.31,-0.01,-0.015,-0.005,0.015,-0.005,-0.01,-0.078,-0.132,-0.224,-0.093,-0.088,-0.049
0.312,-0.005,-0.02,-0.015,0.015,0.005,-0.02,-0.088,-0.146,-0.239,-0.102,-0.098,-0.049
0.314,0.005,-0.02,-0.024,0.01,0.015,-0.024,-0.078,-0.142,-0.234,-0.102,-0.093,-0.049
0.316,0.005,-0.015,-0.02,0.005,0.01,-0.02,-0.078,-0.146,-0.239,-0.102,-0.093,-0.054
0.318,0.01,-0.015,-0.024,0.005,0.015,-0.02,-0.078,-0.142,-0.239,-0.102,-0.093,-0.049
0.32,0.01,-0.005,-0.015,0.0,0.01,-0.01,-0.073,-0.146,-0.234,-0.093,-0.088,-0.039
0.322,0.005,-0.005,-0.01,0.0,0.005,-0.01,-0.068,-0.137,-0.229,-0.088,-0.073,-0.029
0.324,0.01,-0.01,-0.02,0.0,0.015,-0.015,-0.073,-0.142,-0.239,-0.088,-0.073,-0.029
0.326,0.015,-0.01,-0.024,0.0,0.02,-0.02,-0.073,-0.146,-0.244,-0.088,-0.073,-0.029
0.328,0.01,-0.015,-0.024,0.005,0.015,-0.02,-0.073,-0.142,-0.239,-0.088,-0.078,-0.029
0.33,0.02,-0.01,-0.029,-0.005,0.024,-0.02,-0.063,-0.132,-0.234,-0.083,-0.063,-0.024
0.332,0.029,0.01,-0.02,-0.02,0.024,-0.005,-0.054,-0.127,-0.224,-0.078,-0.063,-0.015
0.334,0.01,0.005,-0.005,-0.005,0.005,0.0,-0.049,-0.122,-0.22,-0.073,-0.059,-0.015
0.336,0.0,-0.01,-0.01,0.005,0.005,-0.01,-0.059,-0.137,-0.229,-0.083,-0.068,-0.024
0.338,-0.005,-0.01,-0.005,0.01,0.0,-0.01,-0.063,-0.137,-0.229,-0.088,-0.063,-0.024
0.34,0.0,-0.01,-0.01,0.005,0.005,-0.01,-0.063,-0.142,-0.239,-0.083,-0.073,-0.024
0.342,-0.005,-0.015,-0.01,0.01,0.0,-0.015,-0.059,-0.132,-0.239,-0.083,-0.068,-0.029
0.344,-0.015,-0.024,-0.01,0.02,-0.005,-0.02,-0.063,-0.142,-0.249,-0.088,-0.073,-0.029
0.346,-0.024,-0.029,-0.005,0.029,-0.01,-0.02,-0.063,-0.146,-0.254,-0.093,-0.078,-0.039
0.348,-0.039,-0.034,0.005,0.039,-0.024,-0.015,-0.063,-0.146,-0.254,-0.098,-0.083,-0.044
0.35,-0.049,-0.054,-0.005,0.054,-0.024,-0.029,-0.063,-0.146,-0.259,-0.107,-0.088,-0.059
0.352,-0.054,-0.063,-0.01,0.059,-0.024,-0.039,-0.049,-0.146,-0.259,-0.117,-0.098,-0.063
0.354,-0.073,-0.088,-0.015,0.083,-0.029,-0.054,-0.044,-0.142,-0.268,-0.122,-0.107,-0.078
0.356,-0.073,-0.088,-0.015,0.083,-0.029,-0.054,-0.044,-0.151,-0.273,-0.132,-0.117,-0.083
0.358,-0.073,-0.083,-0.01,0.078,-0.034,-0.049,-0.044,-0.151,-0.273,-0.132,-0.117,-0.083
0.36,-0.073,-0.088,-0.015,0.083,-0.029,-0.054,-0.044,-0.151,-0.273,-0.132,-0.117,-0.088
0.362,-0.068,-0.093,-0.024,0.083,-0.024,-0.059,-0.044,-0.146,-0.278,-0.132,-0.117,-0.093
0.364,-0.063,-0.083,-0.02,0.073,-0.024,-0.054,-0.039,-0.146,-0.283,-0.127,-0.122,-0.088
0.366,-0.068,-0.088,-0.02,0.078,-0.024,-0.054,-0.044,-0.156,-0.288,-0.142,-0.132,-0.093
0.368,-0.063,-0.078,-0.015,0.073,-0.024,-0.049,-0.044,-0.156,-0.288,-0.142,-0.137,-0.093
0.37,-0.068,-0.093,-0.024,0.083,-0.024,-0.059,-0.044,-0.156,-0.288,-0.142,-0.132,-0.088
0.372,-0.063,-0.102,-0.039,0.083,-0.015,-0.073,-0.039,-0.156,-0.293,-0.142,-0.132,-0.083
0.374,-0.063,-0.102,-0.039,0.083,-0.015,-0.073,-0.034,-0.151,-0.288,-0.137,-0.132,-0.088
0.376,-0.068,-0.107,-0.039,0.088,-0.015,-0.073,-0.039,-0.151,-0.293,-0.146,-0.137,-0.093
0.378,-0.063,-0.107,-0.044,0.088,-0.01,-0.078,-0.029,-0.142,-0.283,-0.132,-0.127,-0.088
0.38,-0.083,-0.112,-0.029,0.098,-0.029,-0.073,-0.029,-0.146,-0.288,-0.137,-0.127,-0.088
0.382,-0.117,-0.142,-0.024,0.132,-0.049,-0.083,-0.044,-0.151,-0.298,-0.146,-0.137,-0.098
0.384,-0.088,-0.112,-0.024,0.102,-0.034,-0.068,-0.034,-0.146,-0.293,-0.137,-0.122,-0.088
0.386,-0.073,-0.088,-0.015,0.083,-0.029,-0.054,-0.029,-0.146,-0.298,-0.142,-0.122,-0.083
0.388,-0.078,-0.093,-0.015,0.088,-0.034,-0.054,-0.029,-0.146,-0.293,-0.137,-0.122,-0.083
0.39,-0.073,-0.098,-0.024,0.088,-0.024,-0.063,-0.02,-0.146,-0.288,-0.137,-0.122,-0.088
0.392,-0.083,-0.107,-0.024,0.098,-0.029,-0.068,-0.02,-0.146,-0.293,-0.137,-0.127,-0.088
0.394,-0.083,-0.102,-0.02,0.093,-0.034,-0.063,-0.02,-0.142,-0.293,-0.142,-0.132,-0.093
0.396,-0.088,-0.107,-0.02,0.098,-0.034,-0.063,-0.024,-0.142,-0.298,-0.142,-0.137,-0.098
0.398,-0.098,-0.117,-0.02,0.107,-0.039,-0.068,-0.02,-0.142,-0.293,-0.137,-0.127,-0.088
0.4,-0.078,-0.102,-0.024,0.093,-0.029,-0.063,-0.015,-0.137,-0.288,-0.137,-0.132,-0.088
0.402,-0.088,-0.107,-0.02,0.098,-0.034,-0.063,-0.015,-0.137,-0.293,-0.132,-0.127,-0.083
0.404,-0.093,-0.112,-0.02,0.102,-0.039,-0.068,-0.029,-0.146,-0.303,-0.137,-0.132,-0.098
0.406,-0.088,-0.112,-0.024,0.102,-0.034,-0.068,-0.02,-0.142,-0.298,-0.137,-0.127,-0.093
0.408,-0.098,-0.112,-0.015,0.107,-0.044,-0.063,-0.015,-0.142,-0.298,-0.137,-0.137,-0.098
0.41,-0.093,-0.107,-0.015,0.102,-0.039,-0.063,-0.02,-0.142,-0.303,-0.142,-0.137,-0.102
0.412,-0.093,-0.107,-0.015,0.102,-0.039,-0.063,-0.02,-0.146,-0.312,-0.142,-0.137,-0.102
0.414,-0.093,-0.102,-0.01,0.098,-0.044,-0.059,-0.01,-0.132,-0.298,-0.137,-0.127,-0.098
0.416,-0.083,-0.098,-0.015,0.093,-0.034,-0.059,-0.01,-0.137,-0.307,-0.132,-0.132,-0.098
0.418,-0.098,-0.117,-0.02,0.107,-0.039,-0.068,-0.01,-0.137,-0.307,-0.137,-0.127,-0.098
0.42,-0.102,-0.127,-0.024,0.117,-0.039,-0.078,-0.02,-0.137,-0.307,-0.142,-0.137,-0.102
0.422,-0.093,-0.117,-0.024,0.107,-0.034,-0.073,-0.02,-0.137,-0.307,-0.142,-0.132,-0.093
0.424,-0.093,-0.117,-0.024,0.107,-0.034,-0.073,-0.029,-0.146,-0.312,-0.146,-0.132,-0.102
0.426,-0.112,-0.132,-0.02,0.122,-0.049,-0.078,-0.024,-0.142,-0.303,-0.146,-0.127,-0.098
0.428,-0.102,-0.122,-0.02,0.112,-0.044,-0.073,-0.02,-0.137,-0.298,-0.142,-0.127,-0.098
0.43,-0.083,-0.102,-0.02,0.093,-0.034,-0.063,-0.015,-0.132,-0.298,-0.137,-0.127,-0.098
0.432,-0.068,-0.093,-0.024,0.083,-0.024,-0.059,-0.01,-0.122,-0.288,-0.127,-0.117,-0.088
0.434,-0.078,-0.102,-0.024,0.093,-0.029,-0.063,-0.015,-0.122,-0.288,-0.137,-0.122,-0.093
0.436,-0.093,-0.098,-0.005,0.098,-0.044,-0.054,-0.005,-0.117,-0.278,-0.132,-0.122,-0.093
0.438,-0.093,-0.078,0.015,0.088,-0.054,-0.034,0.005,-0.107,-0.273,-0.127,-0.122,-0.088
0.44,-0.117,-0.068,0.049,0.093,-0.083,-0.01,0.039,-0.083,-0.259,-0.122,-0.117,-0.088
0.442,-0.127,-0.054,0.073,0.093,-0.102,0.01,0.083,-0.039,-0.229,-0.112,-0.117,-0.093
0.444,-0.132,-0.049,0.083,0.093,-0.107,0.015,0.117,0.0,-0.205,-0.107,-0.112,-0.098
0.446,-0.102,-0.044,0.059,0.073,-0.083,0.005,0.117,0.02,-0.195,-0.093,-0.102,-0.088
0.448,-0.073,-0.039,0.034,0.059,-0.054,-0.005,0.132,0.063,-0.161,-0.068,-0.078,-0.068
0.45,-0.083,-0.049,0.034,0.068,-0.059,-0.01,0.156,0.122,-0.112,-0.02,-0.039,-0.039
0.452,-0.063,0.0,0.063,0.034,-0.063,0.029,0.185,0.205,-0.02,0.073,0.059,0.039
0.454,0.0,0.107,0.107,-0.054,-0.054,0.107,0.215,0.327,0.132,0.224,0.195,0.142
0.456,0.093,0.22,0.127,-0.156,-0.02,0.171,0.21,0.439,0.283,0.41,0.361,0.278
0.458,0.21,0.317,0.107,-0.264,0.049,0.21,0.185,0.551,0.429,0.59,0.551,0.444
0.46,0.342,0.425,0.083,-0.381,0.127,0.254,0.171,0.678,0.605,0.82,0.766,0.625
0.462,0.454,0.527,0.073,-0.488,0.19,0.298,0.176,0.805,0.781,1.044,0.976,0.781
0.464,0.576,0.63,0.054,-0.6,0.259,0.342,0.19,0.937,0.952,1.24,1.161,0.922
0.466,0.678,0.708,0.029,-0.693,0.322,0.366,0.151,0.986,1.078,1.41,1.318,1.054
0.468,0.756,0.761,0.005,-0.756,0.376,0.381,0.01,0.844,1.064,1.488,1.405,1.147
0.47,0.834,0.815,-0.02,-0.825,0.425,0.395,-0.195,0.527,0.878,1.42,1.401,1.2
0.472,0.849,0.781,-0.068,-0.815,0.459,0.356,-0.342,0.176,0.595,1.225,1.269,1.166
0.474,0.82,0.649,-0.171,-0.732,0.493,0.239,-0.405,-0.088,0.317,0.952,1.025,1.005
0.476,0.756,0.498,-0.259,-0.625,0.508,0.117,-0.381,-0.205,0.146,0.737,0.805,0.825
0.478,0.654,0.405,-0.249,-0.527,0.449,0.078,-0.322,-0.22,0.107,0.63,0.664,0.688
0.48,0.468,0.293,-0.176,-0.381,0.322,0.059,-0.273,-0.264,0.068,0.512,0.512,0.527
0.482,0.283,0.166,-0.117,-0.224,0.2,0.024,-0.268,-0.415,-0.102,0.312,0.327,0.356
0.484,0.117,0.044,-0.073,-0.078,0.093,-0.015,-0.283,-0.625,-0.376,0.02,0.078,0.185
0.486,-0.02,-0.073,-0.054,0.049,0.015,-0.063,-0.322,-0.859,-0.698,-0.303,-0.166,0.02
0.488,-0.117,-0.161,-0.044,0.142,-0.039,-0.102,-0.337,-1.01,-0.917,-0.527,-0.337,-0.107
0.49,-0.156,-0.224,-0.068,0.19,-0.044,-0.146,-0.322,-1.0,-0.966,-0.6,-0.41,-0.185
0.492,-0.176,-0.303,-0.127,0.239,-0.024,-0.215,-0.337,-0.937,-0.961,-0.62,-0.449,-0.239
0.494,-0.176,-0.342,-0.166,0.259,-0.005,-0.254,-0.356,-0.888,-0.947,-0.625,-0.464,-0.264
0.496,-0.161,-0.332,-0.171,0.249,0.005,-0.254,-0.346,-0.81,-0.888,-0.586,-0.444,-0.259
0.498,-0.161,-0.303,-0.142,0.234,-0.01,-0.224,-0.327,-0.703,-0.8,-0.527,-0.405,-0.244
0.5,-0.151,-0.268,-0.117,0.21,-0.02,-0.195,-0.298,-0.625,-0.712,-0.464,-0.361,-0.229
0.502,-0.137,-0.229,-0.093,0.185,-0.024,-0.161,-0.259,-0.532,-0.634,-0.4,-0.312,-0.205
0.504,-0.117,-0.19,-0.073,0.156,-0.024,-0.132,-0.215,-0.439,-0.551,-0.342,-0.268,-0.171
0.506,-0.073,-0.146,-0.073,0.112,0.0,-0.112,-0.166,-0.337,-0.468,-0.278,-0.22,-0.137
0.508,-0.054,-0.127,-0.073,0.093,0.01,-0.102,-0.112,-0.249,-0.395,-0.229,-0.181,-0.117
0.51,-0.059,-0.112,-0.054,0.088,-0.005,-0.083,-0.073,-0.181,-0.346,-0.195,-0.151,-0.102
0.512,-0.049,-0.093,-0.044,0.073,-0.005,-0.068,-0.049,-0.132,-0.312,-0.161,-0.137,-0.088
0.514,-0.054,-0.088,-0.034,0.073,-0.01,-0.063,-0.029,-0.107,-0.273,-0.137,-0.122,-0.088
0.516,-0.049,-0.078,-0.029,0.063,-0.01,-0.054,-0.01,-0.083,-0.254,-0.127,-0.102,-0.073
0.518,-0.054,-0.078,-0.024,0.068,-0.015,-0.054,-0.005,-0.068,-0.244,-0.122,-0.102,-0.068
0.52,-0.063,-0.078,-0.015,0.073,-0.024,-0.049,0.0,-0.063,-0.229,-0.122,-0.098,-0.068
0.522,-0.059,-0.068,-0.01,0.063,-0.024,-0.039,0.005,-0.059,-0.22,-0.112,-0.102,-0.068
0.524,-0.059,-0.068,-0.01,0.063,-0.024,-0.039,0.005,-0.059,-0.224,-0.117,-0.102,-0.073
0.526,-0.059,-0.078,-0.02,0.068,-0.02,-0.049,0.0,-0.054,-0.224,-0.117,-0.112,-0.078
0.528,-0.068,-0.078,-0.01,0.073,-0.029,-0.044,0.01,-0.044,-0.22,-0.117,-0.112,-0.083
0.53,-0.073,-0.078,-0.005,0.078,-0.034,-0.044,0.015,-0.039,-0.22,-0.117,-0.112,-0.083
0.532,-0.063,-0.063,0.0,0.063,-0.034,-0.034,0.024,-0.024,-0.215,-0.112,-0.112,-0.088
0.534,-0.068,-0.068,0.0,0.068,-0.034,-0.034,0.024,-0.024,-0.205,-0.107,-0.107,-0.088
0.536,-0.098,-0.098,0.0,0.098,-0.049,-0.049,0.02,-0.029,-0.21,-0.102,-0.112,-0.088
0.538,-0.078,-0.078,0.0,0.078,-0.039,-0.039,0.02,-0.024,-0.205,-0.098,-0.102,-0.078
0.54,-0.068,-0.073,-0.005,0.073,-0.034,-0.039,0.01,-0.029,-0.2,-0.093,-0.102,-0.078
0.542,-0.049,-0.059,-0.01,0.054,-0.02,-0.034,0.01,-0.029,-0.19,-0.088,-0.098,-0.068
0.544,-0.029,-0.039,-0.01,0.034,-0.01,-0.024,0.015,-0.02,-0.19,-0.083,-0.093,-0.063
0.546,-0.039,-0.049,-0.01,0.044,-0.015,-0.029,0.01,-0.02,-0.185,-0.088,-0.098,-0.073
0.548,-0.049,-0.059,-0.01,0.054,-0.02,-0.034,0.015,-0.015,-0.185,-0.088,-0.098,-0.073
0.55,-0.063,-0.068,-0.005,0.068,-0.029,-0.039,0.015,-0.01,-0.19,-0.093,-0.102,-0.078
0.552,-0.068,-0.073,-0.005,0.073,-0.034,-0.039,0.024,0.005,-0.181,-0.088,-0.107,-0.073
0.554,-0.063,-0.073,-0.01,0.068,-0.029,-0.044,0.034,0.005,-0.171,-0.078,-0.093,-0.068
0.556,-0.063,-0.073,-0.01,0.068,-0.029,-0.044,0.029,0.005,-0.176,-0.068,-0.093,-0.068
0.558,-0.059,-0.073,-0.015,0.068,-0.024,-0.044,0.024,0.005,-0.181,-0.073,-0.093,-0.063
0.56,-0.059,-0.068,-0.01,0.063,-0.024,-0.039,0.024,0.0,-0.166,-0.068,-0.088,-0.059
0.562,-0.054,-0.068,-0.015,0.063,-0.02,-0.044,0.024,-0.005,-0.166,-0.063,-0.088,-0.059
0.564,-0.049,-0.063,-0.015,0.059,-0.02,-0.039,0.02,-0.005,-0.176,-0.068,-0.088,-0.059
0.566,-0.059,-0.068,-0.01,0.063,-0.024,-0.039,0.02,0.0,-0.171,-0.073,-0.093,-0.068
0.568,-0.063,-0.073,-0.01,0.068,-0.029,-0.044,0.02,0.0,-0.171,-0.073,-0.098,-0.073
0.57,-0.054,-0.063,-0.01,0.059,-0.024,-0.039,0.029,0.005,-0.171,-0.073,-0.098,-0.073
0.572,-0.044,-0.054,-0.01,0.049,-0.02,-0.034,0.034,0.024,-0.161,-0.068,-0.098,-0.068
0.574,-0.044,-0.049,-0.005,0.049,-0.02,-0.029,0.049,0.034,-0.142,-0.054,-0.083,-0.059
0.576,-0.034,-0.039,-0.005,0.039,-0.015,-0.024,0.039,0.029,-0.146,-0.054,-0.088,-0.059
0.578,-0.039,-0.044,-0.005,0.044,-0.02,-0.024,0.034,0.029,-0.137,-0.054,-0.078,-0.049
0.58,-0.039,-0.049,-0.01,0.044,-0.015,-0.029,0.034,0.024,-0.137,-0.054,-0.078,-0.054
0.582,-0.049,-0.059,-0.01,0.054,-0.02,-0.034,0.029,0.015,-0.142,-0.049,-0.078,-0.054
0.584,-0.063,-0.063,0.0,0.063,-0.034,-0.034,0.015,0.02,-0.146,-0.054,-0.083,-0.049
0.586,-0.049,-0.049,0.0,0.049,-0.024,-0.024,0.02,0.024,-0.137,-0.054,-0.078,-0.049
0.588,-0.039,-0.034,0.005,0.039,-0.024,-0.015,0.024,0.029,-0.137,-0.049,-0.078,-0.044
0.59,-0.029,-0.029,0.0,0.029,-0.015,-0.015,0.029,0.034,-0.137,-0.049,-0.083,-0.049
0.592,-0.029,-0.034,-0.005,0.034,-0.015,-0.02,0.044,0.049,-0.132,-0.039,-0.073,-0.044
0.594,-0.034,-0.034,0.0,0.034,-0.02,-0.02,0.044,0.054,-0.122,-0.034,-0.068,-0.054
0.596,-0.029,-0.024,0.005,0.029,-0.02,-0.01,0.039,0.054,-0.112,-0.02,-0.059,-0.044
0.598,-0.034,-0.029,0.005,0.034,-0.02,-0.015,0.039,0.059,-0.107,-0.02,-0.054,-0.039
0.6,-0.039,-0.039,0.0,0.039,-0.02,-0.02,0.034,0.054,-0.102,-0.015,-0.049,-0.034
0.602,-0.024,-0.02,0.005,0.024,-0.015,-0.01,0.024,0.049,-0.112,-0.015,-0.049,-0.039
0.604,-0.015,-0.015,0.0,0.015,-0.01,-0.01,0.034,0.054,-0.112,-0.015,-0.049,-0.029
0.606,-0.015,-0.015,0.0,0.015,-0.01,-0.01,0.039,0.073,-0.102,-0.015,-0.049,-0.034
0.608,-0.02,-0.02,0.0,0.02,-0.01,-0.01,0.039,0.073,-0.098,-0.01,-0.054,-0.029
0.61,-0.024,-0.024,0.0,0.024,-0.015,-0.015,0.039,0.073,-0.098,-0.01,-0.054,-0.034
0.612,-0.015,-0.02,-0.005,0.02,-0.005,-0.015,0.054,0.083,-0.088,0.0,-0.044,-0.029
0.614,-0.015,-0.02,-0.005,0.02,-0.005,-0.015,0.049,0.088,-0.073,0.005,-0.039,-0.029
0.616,0.005,-0.01,-0.015,0.005,0.01,-0.015,0.059,0.098,-0.063,0.024,-0.024,-0.015
0.618,0.005,-0.005,-0.01,0.0,0.005,-0.01,0.059,0.102,-0.063,0.029,-0.02,-0.01
0.62,-0.024,-0.024,0.0,0.024,-0.015,-0.015,0.049,0.093,-0.068,0.024,-0.024,-0.01
0.622,-0.02,-0.024,-0.005,0.024,-0.01,-0.015,0.039,0.088,-0.073,0.024,-0.024,-0.01
0.624,-0.005,-0.015,-0.01,0.01,0.0,-0.015,0.044,0.088,-0.078,0.029,-0.02,-0.005
0.626,-0.01,-0.02,-0.01,0.015,0.0,-0.015,0.039,0.093,-0.073,0.024,-0.02,-0.015
0.628,-0.005,-0.015,-0.01,0.01,0.0,-0.015,0.044,0.098,-0.073,0.024,-0.024,-0.01
0.63,-0.005,-0.015,-0.01,0.01,0.0,-0.015,0.068,0.107,-0.063,0.024,-0.02,-0.015
0.632,-0.005,-0.015,-0.01,0.01,0.0,-0.015,0.088,0.112,-0.063,0.029,-0.02,-0.01
0.634,-0.005,-0.01,-0.005,0.01,0.0,-0.01,0.098,0.122,-0.049,0.039,-0.01,-0.005
0.636,-0.005,-0.01,-0.005,0.01,0.0,-0.01,0.102,0.122,-0.044,0.044,-0.005,0.0
0.638,0.005,-0.005,-0.01,0.0,0.005,-0.01,0.102,0.122,-0.044,0.054,0.0,0.0
0.64,-0.005,-0.01,-0.005,0.01,0.0,-0.01,0.093,0.127,-0.039,0.063,0.005,0.01
0.642,0.0,-0.005,-0.005,0.005,0.0,-0.005,0.083,0.112,-0.044,0.059,0.005,0.01
0.644,0.015,0.015,0.0,-0.015,0.005,0.005,0.098,0.132,-0.039,0.063,0.01,0.02
0.646,0.024,0.02,-0.005,-0.02,0.015,0.005,0.098,0.142,-0.024,0.068,0.015,0.02
0.648,0.024,0.029,0.005,-0.024,0.01,0.015,0.102,0.142,-0.024,0.068,0.015,0.024
0.65,0.024,0.024,0.0,-0.024,0.01,0.01,0.112,0.151,-0.02,0.078,0.02,0.02
0.652,0.02,0.02,0.0,-0.02,0.01,0.01,0.112,0.166,-0.015,0.078,0.02,0.02
0.654,0.029,0.034,0.005,-0.029,0.01,0.02,0.112,0.176,0.005,0.093,0.029,0.02
0.656,0.039,0.049,0.01,-0.044,0.015,0.029,0.122,0.181,0.01,0.107,0.044,0.034
0.658,0.034,0.044,0.01,-0.039,0.01,0.024,0.127,0.185,0.015,0.117,0.054,0.049
0.66,0.039,0.049,0.01,-0.044,0.015,0.029,0.127,0.19,0.02,0.122,0.059,0.054
0.662,0.049,0.059,0.01,-0.054,0.02,0.034,0.117,0.185,0.02,0.127,0.063,0.059
0.664,0.054,0.063,0.01,-0.059,0.02,0.034,0.112,0.185,0.015,0.127,0.059,0.063
0.666,0.063,0.068,0.005,-0.063,0.029,0.034,0.112,0.195,0.029,0.132,0.068,0.063
0.668,0.059,0.068,0.01,-0.063,0.024,0.039,0.112,0.205,0.034,0.132,0.073,0.073
0.67,0.073,0.078,0.005,-0.073,0.034,0.039,0.112,0.21,0.034,0.137,0.073,0.073
0.672,0.078,0.088,0.01,-0.083,0.034,0.049,0.117,0.215,0.034,0.142,0.078,0.078
0.674,0.068,0.083,0.015,-0.073,0.024,0.049,0.122,0.224,0.049,0.151,0.088,0.078
0.676,0.083,0.093,0.01,-0.088,0.034,0.049,0.127,0.229,0.054,0.166,0.098,0.083
0.678,0.078,0.088,0.01,-0.083,0.034,0.049,0.127,0.244,0.068,0.176,0.107,0.098
0.68,0.093,0.107,0.015,-0.098,0.039,0.059,0.122,0.254,0.083,0.185,0.117,0.102
0.682,0.102,0.112,0.01,-0.107,0.044,0.059,0.117,0.254,0.088,0.2,0.132,0.122
0.684,0.102,0.112,0.01,-0.107,0.044,0.059,0.117,0.254,0.088,0.2,0.132,0.132
0.686,0.107,0.107,0.0,-0.107,0.054,0.054,0.117,0.264,0.093,0.205,0.137,0.132
0.688,0.107,0.112,0.005,-0.107,0.049,0.059,0.107,0.264,0.093,0.21,0.142,0.137
0.69,0.122,0.122,0.0,-0.122,0.059,0.059,0.117,0.273,0.102,0.22,0.151,0.142
0.692,0.142,0.142,0.0,-0.142,0.068,0.068,0.122,0.288,0.117,0.229,0.161,0.156
0.694,0.132,0.142,0.01,-0.137,0.059,0.073,0.122,0.298,0.137,0.239,0.176,0.161
0.696,0.132,0.137,0.005,-0.132,0.063,0.068,0.122,0.298,0.137,0.254,0.181,0.166
0.698,0.146,0.142,-0.005,-0.142,0.073,0.068,0.127,0.307,0.142,0.259,0.19,0.181
0.7,0.151,0.142,-0.01,-0.146,0.078,0.063,0.117,0.312,0.151,0.264,0.195,0.185
0.702,0.161,0.156,-0.005,-0.156,0.083,0.073,0.112,0.307,0.151,0.264,0.2,0.185
0.704,0.166,0.171,0.005,-0.166,0.078,0.088,0.112,0.307,0.151,0.268,0.205,0.19
0.706,0.161,0.171,0.01,-0.166,0.073,0.088,0.112,0.312,0.156,0.273,0.205,0.19
0.708,0.176,0.181,0.005,-0.176,0.083,0.093,0.127,0.322,0.171,0.288,0.215,0.2
0.71,0.176,0.185,0.01,-0.181,0.083,0.098,0.117,0.327,0.171,0.283,0.21,0.2
0.712,0.181,0.195,0.015,-0.185,0.083,0.102,0.122,0.342,0.181,0.288,0.22,0.205
0.714,0.185,0.205,0.02,-0.195,0.083,0.112,0.122,0.351,0.2,0.298,0.234,0.215
0.716,0.185,0.2,0.015,-0.19,0.083,0.107,0.132,0.356,0.205,0.307,0.244,0.22
0.718,0.19,0.205,0.015,-0.195,0.088,0.107,0.127,0.356,0.21,0.307,0.249,0.215
0.72,0.19,0.21,0.02,-0.2,0.083,0.112,0.122,0.361,0.22,0.312,0.254,0.224
0.722,0.181,0.2,0.02,-0.19,0.078,0.107,0.122,0.351,0.224,0.317,0.254,0.224
0.724,0.176,0.19,0.015,-0.181,0.078,0.102,0.122,0.356,0.224,0.317,0.249,0.229
0.726,0.176,0.185,0.01,-0.181,0.083,0.098,0.112,0.351,0.22,0.307,0.239,0.22
0.728,0.176,0.185,0.01,-0.181,0.083,0.098,0.122,0.351,0.22,0.307,0.239,0.224
0.73,0.19,0.205,0.015,-0.195,0.088,0.107,0.127,0.366,0.229,0.312,0.244,0.229
0.732,0.185,0.195,0.01,-0.19,0.088,0.102,0.137,0.376,0.244,0.317,0.244,0.234
0.734,0.181,0.195,0.015,-0.185,0.083,0.102,0.127,0.381,0.249,0.322,0.254,0.229
0.736,0.181,0.21,0.029,-0.195,0.073,0.117,0.132,0.381,0.259,0.332,0.264,0.239
0.738,0.185,0.21,0.024,-0.195,0.078,0.117,0.137,0.381,0.254,0.337,0.259,0.234
0.74,0.195,0.22,0.024,-0.205,0.083,0.122,0.142,0.381,0.254,0.337,0.264,0.239
0.742,0.195,0.22,0.024,-0.205,0.083,0.122,0.137,0.376,0.254,0.332,0.259,0.229
0.744,0.19,0.21,0.02,-0.2,0.083,0.112,0.142,0.371,0.244,0.322,0.254,0.234
0.746,0.185,0.205,0.02,-0.195,0.083,0.112,0.142,0.361,0.244,0.317,0.244,0.224
0.748,0.171,0.2,0.029,-0.185,0.068,0.112,0.142,0.356,0.234,0.307,0.234,0.22
0.75,0.171,0.2,0.029,-0.185,0.068,0.112,0.146,0.361,0.229,0.298,0.224,0.215
0.752,0.156,0.185,0.029,-0.171,0.063,0.107,0.146,0.361,0.229,0.293,0.22,0.205
0.754,0.151,0.185,0.034,-0.166,0.059,0.107,0.146,0.356,0.229,0.298,0.215,0.2
0.756,0.142,0.181,0.039,-0.161,0.049,0.107,0.142,0.346,0.22,0.293,0.215,0.195
0.758,0.137,0.171,0.034,-0.151,0.049,0.102,0.142,0.332,0.22,0.283,0.205,0.19
0.76,0.156,0.181,0.024,-0.166,0.063,0.102,0.146,0.327,0.215,0.283,0.2,0.185
0.762,0.161,0.181,0.02,-0.171,0.068,0.098,0.142,0.317,0.21,0.273,0.2,0.181
0.764,0.146,0.156,0.01,-0.151,0.068,0.083,0.142,0.303,0.19,0.268,0.185,0.171
0.766,0.132,0.151,0.02,-0.142,0.054,0.083,0.127,0.293,0.181,0.259,0.176,0.161
0.768,0.112,0.137,0.024,-0.122,0.044,0.078,0.132,0.288,0.171,0.239,0.156,0.146
0.77,0.107,0.137,0.029,-0.122,0.039,0.083,0.137,0.288,0.166,0.234,0.151,0.142
0.772,0.112,0.142,0.029,-0.127,0.039,0.083,0.137,0.278,0.161,0.224,0.142,0.132
0.774,0.088,0.112,0.024,-0.098,0.029,0.068,0.142,0.268,0.156,0.224,0.137,0.122
0.776,0.078,0.107,0.029,-0.093,0.024,0.068,0.142,0.259,0.142,0.215,0.127,0.112
0.778,0.078,0.112,0.034,-0.093,0.02,0.073,0.132,0.239,0.137,0.205,0.117,0.107
0.78,0.054,0.083,0.029,-0.068,0.01,0.054,0.122,0.224,0.122,0.195,0.102,0.093
0.782,0.049,0.073,0.024,-0.059,0.01,0.049,0.112,0.2,0.107,0.176,0.088,0.083
0.784,0.049,0.068,0.02,-0.059,0.015,0.044,0.117,0.181,0.078,0.156,0.078,0.078
0.786,0.044,0.063,0.02,-0.054,0.01,0.039,0.107,0.166,0.068,0.151,0.068,0.059
0.788,0.039,0.063,0.024,-0.049,0.005,0.044,0.107,0.151,0.054,0.132,0.054,0.044
0.79,0.02,0.034,0.015,-0.024,0.0,0.024,0.102,0.137,0.044,0.117,0.039,0.024
0.792,0.01,0.02,0.01,-0.015,0.0,0.015,0.102,0.137,0.034,0.107,0.029,0.015
0.794,0.005,0.029,0.024,-0.015,-0.01,0.024,0.102,0.127,0.024,0.102,0.024,0.02
0.796,0.005,0.024,0.02,-0.015,-0.01,0.02,0.098,0.112,0.01,0.093,0.015,0.01
0.798,0.005,0.029,0.024,-0.015,-0.01,0.024,0.098,0.107,0.01,0.083,0.01,0.01
0.8,0.0,0.015,0.015,-0.005,-0.01,0.015,0.088,0.088,-0.01,0.068,-0.005,-0.005
0.802,-0.01,0.005,0.015,0.005,-0.015,0.01,0.078,0.068,-0.02,0.059,-0.01,-0.015
0.804,-0.02,-0.005,0.015,0.015,-0.02,0.005,0.073,0.054,-0.039,0.044,-0.02,-0.024
0.806,-0.039,-0.024,0.015,0.034,-0.029,-0.005,0.068,0.049,-0.039,0.039,-0.024,-0.034
0.808,-0.034,-0.024,0.01,0.029,-0.024,-0.01,0.068,0.039,-0.049,0.029,-0.039,-0.039
0.81,-0.029,-0.02,0.01,0.024,-0.02,-0.005,0.068,0.039,-0.059,0.02,-0.044,-0.044
0.812,-0.054,-0.044,0.01,0.049,-0.034,-0.02,0.063,0.029,-0.068,0.01,-0.059,-0.049
0.814,-0.049,-0.034,0.015,0.044,-0.034,-0.01,0.068,0.024,-0.068,0.01,-0.059,-0.054
0.816,-0.024,-0.015,0.01,0.02,-0.02,-0.005,0.063,0.024,-0.068,0.015,-0.054,-0.054
0.818,-0.02,-0.01,0.01,0.015,-0.015,0.0,0.063,0.02,-0.063,0.01,-0.049,-0.049
0.82,-0.034,-0.029,0.005,0.034,-0.02,-0.015,0.068,0.02,-0.078,0.005,-0.054,-0.054
0.822,-0.044,-0.044,0.0,0.044,-0.024,-0.024,0.059,0.005,-0.088,-0.005,-0.068,-0.063
0.824,-0.039,-0.039,0.0,0.039,-0.02,-0.02,0.054,0.005,-0.098,-0.01,-0.063,-0.059
0.826,-0.049,-0.044,0.005,0.049,-0.029,-0.02,0.054,-0.005,-0.102,-0.015,-0.073,-0.063
0.828,-0.049,-0.049,0.0,0.049,-0.024,-0.024,0.049,-0.005,-0.117,-0.02,-0.078,-0.063
0.83,-0.039,-0.039,0.0,0.039,-0.02,-0.02,0.049,-0.005,-0.112,-0.024,-0.073,-0.068
0.832,-0.049,-0.044,0.005,0.049,-0.029,-0.02,0.054,-0.005,-0.117,-0.024,-0.083,-0.073
0.834,-0.054,-0.054,0.0,0.054,-0.029,-0.029,0.049,-0.01,-0.117,-0.029,-0.083,-0.078
0.836,-0.049,-0.044,0.005,0.049,-0.029,-0.02,0.049,-0.01,-0.117,-0.029,-0.083,-0.083
0.838,-0.059,-0.049,0.01,0.054,-0.034,-0.02,0.049,-0.01,-0.117,-0.029,-0.083,-0.078
0.84,-0.054,-0.049,0.005,0.054,-0.029,-0.024,0.049,-0.015,-0.117,-0.029,-0.083,-0.078
0.842,-0.049,-0.049,0.0,0.049,-0.024,-0.024,0.044,-0.02,-0.117,-0.029,-0.083,-0.078
0.844,-0.054,-0.059,-0.005,0.059,-0.024,-0.034,0.044,-0.024,-0.127,-0.039,-0.083,-0.083
0.846,-0.059,-0.049,0.01,0.054,-0.034,-0.02,0.049,-0.024,-0.122,-0.034,-0.088,-0.083
0.848,-0.044,-0.039,0.005,0.044,-0.024,-0.02,0.044,-0.029,-0.132,-0.034,-0.088,-0.083
0.85,-0.049,-0.034,0.015,0.044,-0.034,-0.01,0.049,-0.02,-0.122,-0.034,-0.083,-0.083
0.852,-0.049,-0.039,0.01,0.044,-0.029,-0.015,0.044,-0.02,-0.127,-0.034,-0.093,-0.088
0.854,-0.054,-0.049,0.005,0.054,-0.029,-0.024,0.044,-0.024,-0.127,-0.034,-0.088,-0.093
0.856,-0.054,-0.044,0.01,0.049,-0.034,-0.02,0.049,-0.02,-0.122,-0.029,-0.088,-0.083
0.858,-0.059,-0.049,0.01,0.054,-0.034,-0.02,0.044,-0.015,-0.117,-0.034,-0.088,-0.093
0.86,-0.059,-0.049,0.01,0.054,-0.034,-0.02,0.049,-0.015,-0.117,-0.029,-0.088,-0.088
0.862,-0.054,-0.049,0.005,0.054,-0.029,-0.024,0.039,-0.02,-0.122,-0.034,-0.093,-0.093
0.864,-0.068,-0.068,0.0,0.068,-0.034,-0.034,0.044,-0.02,-0.137,-0.039,-0.093,-0.093
0.866,-0.088,-0.078,0.01,0.083,-0.049,-0.034,0.044,-0.024,-0.137,-0.044,-0.102,-0.102
0.868,-0.083,-0.078,0.005,0.083,-0.044,-0.039,0.044,-0.015,-0.137,-0.034,-0.098,-0.098
0.87,-0.078,-0.073,0.005,0.078,-0.044,-0.034,0.044,-0.015,-0.127,-0.039,-0.102,-0.102
0.872,-0.073,-0.059,0.015,0.068,-0.044,-0.024,0.054,-0.01,-0.127,-0.034,-0.102,-0.093
0.874,-0.063,-0.049,0.015,0.059,-0.039,-0.02,0.054,-0.005,-0.117,-0.029,-0.088,-0.088
0.876,-0.063,-0.044,0.02,0.054,-0.044,-0.015,0.044,-0.01,-0.117,-0.034,-0.093,-0.098
0.878,-0.059,-0.039,0.02,0.049,-0.039,-0.01,0.054,0.0,-0.112,-0.029,-0.088,-0.088
0.88,-0.059,-0.044,0.015,0.054,-0.039,-0.015,0.044,-0.01,-0.122,-0.034,-0.098,-0.093
0.882,-0.059,-0.044,0.015,0.054,-0.039,-0.015,0.034,-0.02,-0.127,-0.034,-0.098,-0.093
0.884,-0.059,-0.034,0.024,0.049,-0.044,-0.005,0.034,-0.015,-0.137,-0.034,-0.093,-0.093
0.886,-0.054,-0.039,0.015,0.049,-0.034,-0.015,0.039,-0.01,-0.127,-0.029,-0.093,-0.098
0.888,-0.049,-0.029,0.02,0.039,-0.034,-0.005,0.034,-0.015,-0.122,-0.029,-0.093,-0.107
0.89,-0.059,-0.034,0.024,0.049,-0.044,-0.005,0.034,-0.015,-0.122,-0.029,-0.093,-0.107
0.892,-0.059,-0.034,0.024,0.049,-0.044,-0.005,0.044,-0.005,-0.122,-0.034,-0.093,-0.107
0.894,-0.059,-0.039,0.02,0.049,-0.039,-0.01,0.049,0.0,-0.112,-0.029,-0.093,-0.098
0.896,-0.068,-0.039,0.029,0.054,-0.049,-0.005,0.034,-0.01,-0.122,-0.039,-0.098,-0.112
0.898,-0.063,-0.039,0.024,0.054,-0.044,-0.01,0.044,0.0,-0.112,-0.034,-0.093,-0.102
0.9,-0.054,-0.034,0.02,0.044,-0.039,-0.01,0.049,0.0,-0.112,-0.029,-0.093,-0.102
0.902,-0.054,-0.034,0.02,0.044,-0.039,-0.01,0.039,-0.01,-0.117,-0.029,-0.093,-0.107
0.904,-0.063,-0.039,0.024,0.054,-0.044,-0.01,0.029,-0.015,-0.132,-0.034,-0.093,-0.112
0.906,-0.068,-0.049,0.02,0.059,-0.044,-0.015,0.02,-0.02,-0.142,-0.049,-0.102,-0.117
0.908,-0.073,-0.049,0.024,0.063,-0.049,-0.015,0.02,-0.024,-0.142,-0.049,-0.102,-0.122
0.91,-0.068,-0.044,0.024,0.059,-0.049,-0.01,0.029,-0.015,-0.132,-0.039,-0.098,-0.112
0.912,-0.063,-0.034,0.029,0.049,-0.049,-0.005,0.034,-0.01,-0.132,-0.039,-0.093,-0.112
0.914,-0.063,-0.039,0.024,0.054,-0.044,-0.01,0.034,-0.01,-0.122,-0.039,-0.093,-0.107
0.916,-0.068,-0.044,0.024,0.059,-0.049,-0.01,0.029,-0.015,-0.127,-0.039,-0.093,-0.117
0.918,-0.083,-0.059,0.024,0.073,-0.054,-0.02,0.024,-0.02,-0.132,-0.039,-0.093,-0.112
0.92,-0.054,-0.044,0.01,0.049,-0.034,-0.02,0.029,-0.015,-0.127,-0.034,-0.088,-0.102
0.922,-0.049,-0.039,0.01,0.044,-0.029,-0.015,0.029,-0.015,-0.122,-0.029,-0.083,-0.098
0.924,-0.059,-0.049,0.01,0.054,-0.034,-0.02,0.024,-0.029,-0.137,-0.039,-0.093,-0.107
0.926,-0.049,-0.039,0.01,0.044,-0.029,-0.015,0.029,-0.02,-0.132,-0.034,-0.088,-0.098
0.928,-0.039,-0.034,0.005,0.039,-0.024,-0.015,0.029,-0.015,-0.127,-0.029,-0.083,-0.102
0.93,-0.049,-0.034,0.015,0.044,-0.034,-0.01,0.02,-0.01,-0.122,-0.029,-0.083,-0.107
0.932,-0.063,-0.044,0.02,0.054,-0.044,-0.015,0.024,-0.005,-0.122,-0.029,-0.083,-0.107
0.934,-0.068,-0.049,0.02,0.059,-0.044,-0.015,0.024,-0.005,-0.112,-0.029,-0.083,-0.107
0.936,-0.054,-0.029,0.024,0.044,-0.039,-0.005,0.02,-0.01,-0.122,-0.039,-0.088,-0.112
0.938,-0.049,-0.024,0.024,0.039,-0.039,0.0,0.02,-0.015,-0.122,-0.034,-0.083,-0.107
0.94,-0.049,-0.024,0.024,0.039,-0.039,0.0,0.015,-0.015,-0.122,-0.034,-0.083,-0.102
0.942,-0.034,-0.02,0.015,0.029,-0.024,-0.005,0.01,-0.02,-0.127,-0.029,-0.083,-0.102
0.944,-0.049,-0.034,0.015,0.044,-0.034,-0.01,0.01,-0.024,-0.137,-0.039,-0.088,-0.112
0.946,-0.054,-0.044,0.01,0.049,-0.034,-0.02,0.01,-0.029,-0.146,-0.049,-0.098,-0.117
0.948,-0.044,-0.034,0.01,0.039,-0.029,-0.015,0.015,-0.024,-0.137,-0.044,-0.093,-0.112
0.95,-0.054,-0.039,0.015,0.049,-0.034,-0.015,0.015,-0.024,-0.137,-0.044,-0.098,-0.117
0.952,-0.059,-0.044,0.015,0.054,-0.039,-0.015,0.02,-0.029,-0.142,-0.039,-0.093,-0.112
0.954,-0.068,-0.054,0.015,0.063,-0.044,-0.02,0.01,-0.034,-0.142,-0.049,-0.098,-0.112
0.956,-0.068,-0.049,0.02,0.059,-0.044,-0.015,0.01,-0.039,-0.142,-0.044,-0.093,-0.112
0.958,-0.049,-0.029,0.02,0.039,-0.034,-0.005,0.01,-0.034,-0.137,-0.034,-0.088,-0.098
0.96,-0.039,-0.02,0.02,0.029,-0.029,0.0,0.015,-0.029,-0.127,-0.034,-0.088,-0.102
0.962,-0.039,-0.024,0.015,0.034,-0.029,-0.005,0.015,-0.034,-0.127,-0.034,-0.083,-0.098
0.964,-0.049,-0.044,0.005,0.049,-0.029,-0.02,0.005,-0.034,-0.137,-0.039,-0.088,-0.102
0.966,-0.068,-0.054,0.015,0.063,-0.044,-0.02,0.005,-0.039,-0.137,-0.044,-0.098,-0.102
0.968,-0.059,-0.054,0.005,0.059,-0.034,-0.024,0.0,-0.044,-0.146,-0.054,-0.102,-0.112
0.97,-0.059,-0.049,0.01,0.054,-0.034,-0.02,0.0,-0.044,-0.146,-0.054,-0.102,-0.112
0.972,-0.068,-0.059,0.01,0.063,-0.039,-0.024,0.01,-0.039,-0.146,-0.054,-0.102,-0.117
0.974,-0.083,-0.068,0.015,0.078,-0.049,-0.029,0.005,-0.044,-0.146,-0.059,-0.107,-0.122
0.976,-0.098,-0.078,0.02,0.088,-0.059,-0.029,0.0,-0.054,-0.151,-0.059,-0.102,-0.127
0.978,-0.088,-0.068,0.02,0.078,-0.054,-0.024,-0.01,-0.059,-0.161,-0.059,-0.112,-0.127
0.98,-0.059,-0.049,0.01,0.054,-0.034,-0.02,-0.005,-0.054,-0.151,-0.054,-0.102,-0.112
0.982,-0.054,-0.044,0.01,0.049,-0.034,-0.02,-0.01,-0.059,-0.156,-0.059,-0.102,-0.102
0.984,-0.049,-0.034,0.015,0.044,-0.034,-0.01,0.0,-0.054,-0.151,-0.059,-0.098,-0.088
0.986,-0.054,-0.034,0.02,0.044,-0.039,-0.01,-0.005,-0.054,-0.151,-0.059,-0.102,-0.093
0.988,-0.059,-0.034,0.024,0.049,-0.044,-0.005,-0.005,-0.054,-0.151,-0.059,-0.102,-0.088
0.99,-0.059,-0.029,0.029,0.044,-0.044,0.0,-0.01,-0.054,-0.156,-0.059,-0.102,-0.083
0.992,-0.063,-0.044,0.02,0.054,-0.044,-0.015,-0.005,-0.054,-0.161,-0.063,-0.102,-0.083
0.994,-0.054,-0.034,0.02,0.044,-0.039,-0.01,-0.015,-0.063,-0.161,-0.063,-0.107,-0.093
0.996,-0.054,-0.029,0.024,0.044,-0.039,-0.005,-0.015,-0.063,-0.161,-0.059,-0.098,-0.083
0.998,-0.054,-0.034,0.02,0.044,-0.039,-0.01,-0.02,-0.063,-0.161,-0.059,-0.098,-0.083
1.0,-0.059,-0.044,0.015,0.054,-0.039,-0.015,-0.024,-0.063,-0.166,-0.063,-0.102,-0.088
1.002,-0.063,-0.044,0.02,0.054,-0.044,-0.015,-0.024,-0.063,-0.161,-0.063,-0.102,-0.083
1.004,-0.068,-0.054,0.015,0.063,-0.044,-0.02,-0.024,-0.063,-0.166,-0.068,-0.102,-0.078
1.006,-0.073,-0.049,0.024,0.063,-0.049,-0.015,-0.024,-0.068,-0.166,-0.073,-0.112,-0.083
1.008,-0.068,-0.049,0.02,0.059,-0.044,-0.015,-0.029,-0.073,-0.166,-0.073,-0.112,-0.083
1.01,-0.049,-0.029,0.02,0.039,-0.034,-0.005,-0.024,-0.063,-0.156,-0.063,-0.098,-0.073
1.012,-0.049,-0.029,0.02,0.039,-0.034,-0.005,-0.015,-0.059,-0.156,-0.063,-0.098,-0.078
1.014,-0.063,-0.034,0.029,0.049,-0.049,-0.005,-0.02,-0.059,-0.151,-0.063,-0.102,-0.083
1.016,-0.059,-0.034,0.024,0.049,-0.044,-0.005,-0.02,-0.059,-0.156,-0.063,-0.102,-0.078
1.018,-0.054,-0.034,0.02,0.044,-0.039,-0.01,-0.024,-0.063,-0.156,-0.068,-0.107,-0.078
1.02,-0.059,-0.029,0.029,0.044,-0.044,0.0,-0.02,-0.063,-0.156,-0.073,-0.107,-0.078
1.022,-0.063,-0.034,0.029,0.049,-0.049,-0.005,-0.029,-0.068,-0.161,-0.078,-0.107,-0.083
1.024,-0.068,-0.054,0.015,0.063,-0.044,-0.02,-0.029,-0.073,-0.166,-0.083,-0.107,-0.083
1.026,-0.063,-0.049,0.015,0.059,-0.039,-0.02,-0.034,-0.078,-0.166,-0.083,-0.117,-0.083
1.028,-0.059,-0.044,0.015,0.054,-0.039,-0.015,-0.039,-0.078,-0.171,-0.083,-0.117,-0.083
1.03,-0.059,-0.044,0.015,0.054,-0.039,-0.015,-0.039,-0.078,-0.166,-0.083,-0.117,-0.083
1.032,-0.068,-0.054,0.015,0.063,-0.044,-0.02,-0.034,-0.078,-0.166,-0.078,-0.112,-0.083
1.034,-0.088,-0.073,0.015,0.083,-0.054,-0.029,-0.039,-0.083,-0.171,-0.093,-0.122,-0.098
1.036,-0.088,-0.073,0.015,0.083,-0.054,-0.029,-0.039,-0.088,-0.176,-0.093,-0.122,-0.093
1.038,-0.073,-0.054,0.02,0.063,-0.049,-0.02,-0.034,-0.083,-0.166,-0.093,-0.117,-0.098
1.04,-0.049,-0.024,0.024,0.039,-0.039,0.0,-0.024,-0.068,-0.151,-0.073,-0.102,-0.078
1.042,-0.02,0.0,0.02,0.01,-0.02,0.01,-0.02,-0.068,-0.146,-0.063,-0.093,-0.068
1.044,-0.049,-0.015,0.034,0.034,-0.044,0.01,-0.034,-0.078,-0.151,-0.073,-0.093,-0.073
1.046,-0.063,-0.034,0.029,0.049,-0.049,-0.005,-0.039,-0.083,-0.161,-0.088,-0.112,-0.088
1.048,-0.078,-0.049,0.029,0.063,-0.054,-0.01,-0.039,-0.083,-0.166,-0.093,-0.117,-0.093
1.05,-0.083,-0.059,0.024,0.073,-0.054,-0.02,-0.039,-0.088,-0.171,-0.102,-0.127,-0.093
1.052,-0.078,-0.059,0.02,0.068,-0.049,-0.02,-0.034,-0.078,-0.166,-0.098,-0.117,-0.088
1.054,-0.063,-0.049,0.015,0.059,-0.039,-0.02,-0.034,-0.078,-0.156,-0.088,-0.112,-0.088
1.056,-0.063,-0.049,0.015,0.059,-0.039,-0.02,-0.034,-0.083,-0.161,-0.088,-0.112,-0.078
1.058,-0.059,-0.044,0.015,0.054,-0.039,-0.015,-0.034,-0.078,-0.156,-0.088,-0.107,-0.078
1.06,-0.068,-0.054,0.015,0.063,-0.044,-0.02,-0.039,-0.083,-0.161,-0.088,-0.117,-0.083
1.062,-0.073,-0.054,0.02,0.063,-0.049,-0.02,-0.044,-0.088,-0.161,-0.088,-0.117,-0.088
1.064,-0.063,-0.044,0.02,0.054,-0.044,-0.015,-0.039,-0.083,-0.156,-0.088,-0.107,-0.083
1.066,-0.063,-0.039,0.024,0.054,-0.044,-0.01,-0.049,-0.078,-0.156,-0.088,-0.112,-0.088
1.068,-0.054,-0.044,0.01,0.049,-0.034,-0.02,-0.049,-0.078,-0.156,-0.093,-0.117,-0.088
1.07,-0.073,-0.059,0.015,0.068,-0.044,-0.024,-0.049,-0.078,-0.161,-0.098,-0.127,-0.088
1.072,-0.083,-0.063,0.02,0.073,-0.054,-0.024,-0.049,-0.083,-0.171,-0.098,-0.132,-0.093
1.074,-0.073,-0.049,0.024,0.063,-0.049,-0.015,-0.049,-0.088,-0.166,-0.093,-0.127,-0.093
1.076,-0.068,-0.044,0.024,0.059,-0.049,-0.01,-0.044,-0.088,-0.166,-0.093,-0.117,-0.093
1.078,-0.059,-0.029,0.029,0.044,-0.044,0.0,-0.039,-0.083,-0.161,-0.083,-0.112,-0.088
1.08,-0.059,-0.029,0.029,0.044,-0.044,0.0,-0.044,-0.078,-0.161,-0.083,-0.112,-0.083
1.082,-0.068,-0.029,0.039,0.049,-0.054,0.005,-0.044,-0.078,-0.156,-0.083,-0.107,-0.078
1.084,-0.059,-0.02,0.039,0.039,-0.049,0.01,-0.029,-0.068,-0.142,-0.078,-0.098,-0.078
1.086,-0.059,-0.024,0.034,0.044,-0.049,0.005,-0.044,-0.073,-0.146,-0.088,-0.107,-0.088
1.088,-0.068,-0.034,0.034,0.054,-0.054,0.0,-0.044,-0.068,-0.146,-0.088,-0.107,-0.083
1.09,-0.059,-0.02,0.039,0.039,-0.049,0.01,-0.044,-0.063,-0.137,-0.083,-0.107,-0.078
1.092,-0.054,-0.015,0.039,0.034,-0.049,0.01,-0.034,-0.054,-0.127,-0.083,-0.102,-0.073
1.094,-0.039,0.0,0.039,0.02,-0.039,0.02,-0.029,-0.054,-0.127,-0.073,-0.102,-0.068
1.096,-0.034,0.005,0.039,0.015,-0.039,0.02,-0.024,-0.049,-0.117,-0.068,-0.088,-0.059
1.098,-0.054,0.0,0.054,0.029,-0.054,0.024,-0.029,-0.054,-0.122,-0.068,-0.088,-0.063
1.1,-0.044,0.01,0.054,0.02,-0.049,0.029,-0.024,-0.054,-0.122,-0.068,-0.088,-0.068
1.102,-0.044,0.015,0.059,0.015,-0.054,0.034,-0.02,-0.054,-0.117,-0.063,-0.078,-0.059
1.104,-0.054,0.01,0.063,0.024,-0.059,0.034,-0.015,-0.049,-0.112,-0.063,-0.073,-0.059
1.106,-0.059,0.015,0.073,0.024,-0.068,0.044,-0.02,-0.044,-0.112,-0.059,-0.078,-0.063
1.108,-0.049,0.029,0.078,0.01,-0.063,0.054,-0.015,-0.044,-0.112,-0.059,-0.078,-0.063
1.11,-0.054,0.024,0.078,0.015,-0.068,0.049,-0.01,-0.044,-0.107,-0.063,-0.078,-0.068
1.112,-0.059,0.015,0.073,0.024,-0.068,0.044,-0.005,-0.039,-0.107,-0.063,-0.078,-0.068
1.114,-0.049,0.02,0.068,0.015,-0.059,0.044,-0.01,-0.044,-0.107,-0.059,-0.083,-0.068
1.116,-0.034,0.029,0.063,0.005,-0.049,0.044,-0.015,-0.039,-0.107,-0.059,-0.073,-0.059
1.118,-0.029,0.039,0.068,-0.005,-0.049,0.054,-0.02,-0.039,-0.098,-0.049,-0.068,-0.059
1.12,-0.029,0.024,0.054,0.005,-0.044,0.039,-0.029,-0.044,-0.098,-0.049,-0.068,-0.059
1.122,-0.015,0.024,0.039,-0.005,-0.029,0.029,-0.044,-0.054,-0.107,-0.054,-0.068,-0.059
1.124,-0.02,0.015,0.034,0.005,-0.029,0.024,-0.054,-0.059,-0.112,-0.059,-0.073,-0.049
1.126,-0.02,0.01,0.029,0.005,-0.024,0.02,-0.068,-0.063,-0.117,-0.063,-0.078,-0.054
1.128,-0.024,0.005,0.029,0.01,-0.029,0.015,-0.073,-0.063,-0.112,-0.059,-0.078,-0.054
1.13,-0.024,0.0,0.024,0.015,-0.024,0.01,-0.083,-0.068,-0.112,-0.063,-0.083,-0.063
1.132,-0.005,0.015,0.02,-0.005,-0.015,0.015,-0.078,-0.054,-0.102,-0.063,-0.078,-0.063
1.134,-0.005,0.015,0.02,-0.005,-0.015,0.015,-0.078,-0.059,-0.107,-0.059,-0.078,-0.063
1.136,-0.01,0.01,0.02,0.0,-0.015,0.015,-0.083,-0.063,-0.112,-0.063,-0.078,-0.054
1.138,-0.024,0.0,0.024,0.015,-0.024,0.01,-0.093,-0.073,-0.127,-0.068,-0.083,-0.054
1.14,-0.029,-0.005,0.024,0.02,-0.029,0.01,-0.098,-0.083,-0.132,-0.083,-0.088,-0.059
1.142,-0.015,0.0,0.015,0.01,-0.015,0.005,-0.112,-0.093,-0.137,-0.083,-0.088,-0.063
1.144,-0.02,-0.005,0.015,0.015,-0.02,0.005,-0.112,-0.098,-0.142,-0.088,-0.093,-0.063
1.146,-0.02,-0.01,0.01,0.015,-0.015,0.0,-0.122,-0.112,-0.156,-0.098,-0.102,-0.068
1.148,0.0,0.005,0.005,0.0,-0.005,0.005,-0.112,-0.107,-0.156,-0.093,-0.098,-0.059
1.15,0.005,0.005,0.0,-0.005,0.0,0.0,-0.117,-0.102,-0.161,-0.093,-0.098,-0.054
1.152,0.015,0.01,-0.005,-0.01,0.01,0.0,-0.117,-0.098,-0.166,-0.093,-0.093,-0.054
1.154,0.024,0.02,-0.005,-0.02,0.015,0.005,-0.122,-0.102,-0.166,-0.093,-0.098,-0.059
1.156,0.01,0.01,0.0,-0.01,0.005,0.005,-0.117,-0.102,-0.171,-0.088,-0.088,-0.059
1.158,0.01,0.0,-0.01,-0.005,0.01,-0.005,-0.112,-0.102,-0.176,-0.088,-0.088,-0.059
1.16,0.01,0.0,-0.01,-0.005,0.01,-0.005,-0.112,-0.098,-0.176,-0.093,-0.088,-0.054
1.162,0.0,-0.005,-0.005,0.005,0.0,-0.005,-0.107,-0.093,-0.176,-0.093,-0.083,-0.049
1.164,0.01,0.0,-0.01,-0.005,0.01,-0.005,-0.107,-0.088,-0.176,-0.093,-0.078,-0.039
1.166,0.01,0.0,-0.01,-0.005,0.01,-0.005,-0.112,-0.093,-0.185,-0.098,-0.088,-0.049
1.168,0.005,-0.01,-0.015,0.005,0.01,-0.015,-0.117,-0.102,-0.2,-0.102,-0.093,-0.054
1.17,-0.005,-0.015,-0.01,0.01,0.0,-0.015,-0.117,-0.107,-0.21,-0.102,-0.093,-0.054
1.172,-0.02,-0.02,0.0,0.02,-0.01,-0.01,-0.117,-0.112,-0.22,-0.107,-0.093,-0.059
1.174,-0.029,-0.02,0.01,0.024,-0.02,-0.005,-0.117,-0.107,-0.205,-0.093,-0.083,-0.054
1.176,-0.039,-0.02,0.02,0.029,-0.029,0.0,-0.112,-0.102,-0.2,-0.088,-0.078,-0.059
1.178,-0.044,-0.024,0.02,0.034,-0.034,-0.005,-0.102,-0.098,-0.205,-0.093,-0.078,-0.059
1.18,-0.015,-0.005,0.01,0.01,-0.015,0.0,-0.098,-0.088,-0.205,-0.093,-0.073,-0.054
1.182,-0.024,-0.015,0.01,0.02,-0.02,-0.005,-0.102,-0.107,-0.224,-0.102,-0.093,-0.068
1.184,-0.054,-0.044,0.01,0.049,-0.034,-0.02,-0.112,-0.122,-0.239,-0.127,-0.112,-0.083
1.186,-0.068,-0.054,0.015,0.063,-0.044,-0.02,-0.107,-0.117,-0.239,-0.132,-0.122,-0.098
1.188,-0.078,-0.063,0.015,0.073,-0.049,-0.024,-0.117,-0.127,-0.249,-0.137,-0.127,-0.107
1.19,-0.093,-0.083,0.01,0.088,-0.054,-0.039,-0.117,-0.137,-0.259,-0.146,-0.137,-0.122
1.192,-0.098,-0.088,0.01,0.093,-0.054,-0.039,-0.107,-0.127,-0.249,-0.146,-0.137,-0.122
1.194,-0.098,-0.083,0.015,0.093,-0.059,-0.034,-0.102,-0.122,-0.254,-0.156,-0.142,-0.127
1.196,-0.063,-0.054,0.01,0.059,-0.039,-0.024,-0.098,-0.117,-0.254,-0.146,-0.132,-0.122
1.198,-0.044,-0.044,0.0,0.044,-0.024,-0.024,-0.098,-0.112,-0.254,-0.142,-0.127,-0.112
1.2,-0.044,-0.054,-0.01,0.049,-0.02,-0.034,-0.102,-0.107,-0.249,-0.137,-0.127,-0.112
1.202,-0.063,-0.073,-0.01,0.068,-0.029,-0.044,-0.102,-0.107,-0.254,-0.137,-0.127,-0.122
1.204,-0.078,-0.093,-0.015,0.088,-0.034,-0.054,-0.107,-0.117,-0.264,-0.156,-0.137,-0.122
1.206,-0.068,-0.088,-0.02,0.078,-0.024,-0.054,-0.112,-0.122,-0.268,-0.161,-0.142,-0.127
1.208,-0.063,-0.083,-0.02,0.073,-0.024,-0.054,-0.112,-0.122,-0.268,-0.156,-0.137,-0.132
1.21,-0.068,-0.083,-0.015,0.078,-0.029,-0.049,-0.102,-0.122,-0.268,-0.161,-0.142,-0.132
1.212,-0.068,-0.083,-0.015,0.078,-0.029,-0.049,-0.098,-0.117,-0.268,-0.176,-0.146,-0.127
1.214,-0.073,-0.083,-0.01,0.078,-0.034,-0.049,-0.107,-0.122,-0.278,-0.176,-0.151,-0.137
1.216,-0.073,-0.073,0.0,0.073,-0.039,-0.039,-0.112,-0.127,-0.283,-0.171,-0.142,-0.132
1.218,-0.078,-0.073,0.005,0.078,-0.044,-0.034,-0.112,-0.127,-0.278,-0.166,-0.137,-0.127
1.22,-0.073,-0.073,0.0,0.073,-0.039,-0.039,-0.127,-0.132,-0.278,-0.171,-0.146,-0.132
1.222,-0.083,-0.083,0.0,0.083,-0.044,-0.044,-0.112,-0.122,-0.268,-0.166,-0.137,-0.132
1.224,-0.078,-0.088,-0.01,0.083,-0.034,-0.049,-0.107,-0.117,-0.268,-0.171,-0.151,-0.137
1.226,-0.078,-0.088,-0.01,0.083,-0.034,-0.049,-0.112,-0.117,-0.273,-0.176,-0.156,-0.137
1.228,-0.068,-0.083,-0.015,0.078,-0.029,-0.049,-0.112,-0.122,-0.278,-0.176,-0.156,-0.142
1.23,-0.078,-0.093,-0.015,0.088,-0.034,-0.054,-0.102,-0.117,-0.278,-0.171,-0.151,-0.137
1.232,-0.073,-0.088,-0.015,0.083,-0.029,-0.054,-0.102,-0.112,-0.268,-0.171,-0.151,-0.132
1.234,-0.073,-0.078,-0.005,0.078,-0.034,-0.044,-0.102,-0.117,-0.268,-0.171,-0.146,-0.142
1.236,-0.078,-0.088,-0.01,0.083,-0.034,-0.049,-0.102,-0.117,-0.278,-0.176,-0.146,-0.146
1.238,-0.088,-0.093,-0.005,0.093,-0.044,-0.049,-0.107,-0.122,-0.288,-0.181,-0.151,-0.142
1.24,-0.093,-0.102,-0.01,0.098,-0.044,-0.059,-0.107,-0.117,-0.283,-0.176,-0.151,-0.142
1.242,-0.098,-0.107,-0.01,0.102,-0.044,-0.059,-0.112,-0.122,-0.288,-0.185,-0.156,-0.151
1.244,-0.107,-0.117,-0.01,0.112,-0.049,-0.063,-0.117,-0.127,-0.288,-0.185,-0.166,-0.146
1.246,-0.107,-0.117,-0.01,0.112,-0.049,-0.063,-0.117,-0.122,-0.283,-0.181,-0.161,-0.146
1.248,-0.088,-0.098,-0.01,0.093,-0.039,-0.054,-0.112,-0.122,-0.283,-0.181,-0.156,-0.146
1.25,-0.073,-0.078,-0.005,0.078,-0.034,-0.044,-0.098,-0.122,-0.283,-0.171,-0.151,-0.137
1.252,-0.078,-0.078,0.0,0.078,-0.039,-0.039,-0.098,-0.117,-0.283,-0.176,-0.161,-0.142
1.254,-0.073,-0.073,0.0,0.073,-0.039,-0.039,-0.088,-0.102,-0.268,-0.161,-0.142,-0.137
1.256,-0.073,-0.073,0.0,0.073,-0.039,-0.039,-0.093,-0.098,-0.264,-0.156,-0.137,-0.137
1.258,-0.093,-0.093,0.0,0.093,-0.049,-0.049,-0.102,-0.117,-0.278,-0.171,-0.146,-0.142
1.26,-0.088,-0.088,0.0,0.088,-0.044,-0.044,-0.107,-0.117,-0.283,-0.171,-0.151,-0.146
1.262,-0.088,-0.088,0.0,0.088,-0.044,-0.044,-0.102,-0.117,-0.283,-0.176,-0.151,-0.146
1.264,-0.073,-0.078,-0.005,0.078,-0.034,-0.044,-0.102,-0.112,-0.278,-0.166,-0.146,-0.137
1.266,-0.068,-0.083,-0.015,0.078,-0.029,-0.049,-0.098,-0.107,-0.278,-0.166,-0.146,-0.137
1.268,-0.083,-0.083,0.0,0.083,-0.044,-0.044,-0.093,-0.102,-0.273,-0.166,-0.146,-0.146
1.27,-0.083,-0.078,0.005,0.083,-0.044,-0.039,-0.073,-0.093,-0.273,-0.166,-0.146,-0.151
1.272,-0.098,-0.088,0.01,0.093,-0.054,-0.039,-0.049,-0.073,-0.268,-0.176,-0.161,-0.171
1.274,-0.122,-0.102,0.02,0.112,-0.073,-0.044,-0.015,-0.034,-0.244,-0.171,-0.171,-0.19
1.276,-0.127,-0.098,0.029,0.112,-0.078,-0.034,0.015,0.01,-0.215,-0.161,-0.171,-0.195
1.278,-0.112,-0.112,0.0,0.112,-0.059,-0.059,0.029,0.044,-0.205,-0.166,-0.176,-0.2
1.28,-0.093,-0.127,-0.034,0.112,-0.029,-0.083,0.044,0.078,-0.185,-0.156,-0.171,-0.2
1.282,-0.073,-0.098,-0.024,0.088,-0.024,-0.063,0.063,0.137,-0.132,-0.107,-0.127,-0.166
1.284,-0.039,-0.024,0.015,0.034,-0.029,-0.005,0.093,0.22,-0.044,-0.01,-0.029,-0.073
1.286,0.029,0.078,0.049,-0.054,-0.01,0.063,0.117,0.322,0.088,0.137,0.112,0.044
1.288,0.098,0.195,0.098,-0.146,0.0,0.146,0.122,0.439,0.249,0.322,0.293,0.195
1.29,0.181,0.293,0.112,-0.234,0.034,0.2,0.093,0.517,0.371,0.503,0.473,0.351
1.292,0.303,0.425,0.122,-0.361,0.088,0.273,0.059,0.62,0.527,0.732,0.703,0.547
1.294,0.42,0.551,0.132,-0.483,0.142,0.342,0.02,0.712,0.683,0.947,0.932,0.732
1.296,0.512,0.634,0.122,-0.571,0.195,0.376,0.034,0.839,0.834,1.152,1.122,0.893
1.298,0.62,0.737,0.117,-0.678,0.249,0.425,0.029,0.932,0.976,1.332,1.298,1.035
1.3,0.708,0.81,0.102,-0.756,0.303,0.454,-0.034,0.908,1.044,1.449,1.415,1.142
1.302,0.781,0.883,0.102,-0.83,0.337,0.493,-0.171,0.688,0.966,1.459,1.459,1.22
1.304,0.825,0.898,0.073,-0.859,0.376,0.483,-0.317,0.376,0.771,1.332,1.381,1.225
1.306,0.795,0.81,0.015,-0.8,0.39,0.41,-0.386,0.127,0.561,1.132,1.215,1.113
1.308,0.703,0.659,-0.044,-0.678,0.371,0.307,-0.386,-0.078,0.361,0.922,0.996,0.932
1.31,0.556,0.537,-0.02,-0.547,0.288,0.259,-0.317,-0.166,0.264,0.786,0.83,0.791
1.312,0.39,0.439,0.049,-0.415,0.171,0.244,-0.195,-0.156,0.273,0.688,0.688,0.615
1.314,0.234,0.327,0.093,-0.278,0.068,0.21,-0.161,-0.22,0.185,0.532,0.498,0.42
1.316,0.083,0.195,0.112,-0.137,-0.015,0.151,-0.171,-0.386,-0.039,0.273,0.268,0.234
1.318,-0.039,0.083,0.122,-0.02,-0.083,0.102,-0.185,-0.6,-0.361,-0.088,-0.015,0.049
1.32,-0.151,-0.039,0.112,0.098,-0.132,0.034,-0.205,-0.781,-0.639,-0.376,-0.254,-0.122
1.322,-0.195,-0.127,0.068,0.161,-0.132,-0.029,-0.229,-0.844,-0.756,-0.498,-0.356,-0.21
1.324,-0.2,-0.19,0.01,0.195,-0.107,-0.093,-0.259,-0.839,-0.795,-0.537,-0.4,-0.259
1.326,-0.205,-0.249,-0.044,0.229,-0.083,-0.146,-0.303,-0.815,-0.815,-0.561,-0.429,-0.283
1.328,-0.205,-0.298,-0.093,0.254,-0.059,-0.195,-0.307,-0.752,-0.791,-0.561,-0.444,-0.303
1.33,-0.19,-0.303,-0.112,0.249,-0.039,-0.21,-0.283,-0.683,-0.766,-0.561,-0.444,-0.322
1.332,-0.176,-0.273,-0.098,0.224,-0.039,-0.185,-0.303,-0.625,-0.722,-0.517,-0.41,-0.307
1.334,-0.161,-0.244,-0.083,0.205,-0.039,-0.166,-0.303,-0.581,-0.659,-0.478,-0.381,-0.298
1.336,-0.156,-0.229,-0.073,0.195,-0.044,-0.151,-0.273,-0.512,-0.605,-0.425,-0.337,-0.278
1.338,-0.127,-0.19,-0.063,0.161,-0.034,-0.127,-0.239,-0.425,-0.532,-0.376,-0.298,-0.249
1.34,-0.112,-0.166,-0.054,0.142,-0.029,-0.112,-0.21,-0.351,-0.439,-0.322,-0.264,-0.224
1.342,-0.112,-0.161,-0.049,0.137,-0.034,-0.107,-0.176,-0.283,-0.371,-0.273,-0.229,-0.2
1.344,-0.088,-0.132,-0.044,0.112,-0.024,-0.088,-0.146,-0.215,-0.322,-0.239,-0.205,-0.176
1.346,-0.073,-0.102,-0.029,0.088,-0.024,-0.068,-0.112,-0.142,-0.259,-0.195,-0.166,-0.156
1.348,-0.068,-0.093,-0.024,0.083,-0.024,-0.059,-0.093,-0.102,-0.22,-0.156,-0.137,-0.137
1.35,-0.054,-0.078,-0.024,0.068,-0.015,-0.054,-0.073,-0.083,-0.2,-0.146,-0.137,-0.132
1.352,-0.059,-0.078,-0.02,0.068,-0.02,-0.049,-0.063,-0.059,-0.195,-0.146,-0.127,-0.127
1.354,-0.059,-0.083,-0.024,0.073,-0.02,-0.054,-0.059,-0.054,-0.19,-0.142,-0.122,-0.117
1.356,-0.068,-0.088,-0.02,0.078,-0.024,-0.054,-0.054,-0.059,-0.19,-0.137,-0.122,-0.117
1.358,-0.073,-0.083,-0.01,0.078,-0.034,-0.049,-0.054,-0.054,-0.195,-0.137,-0.127,-0.122
1.36,-0.068,-0.078,-0.01,0.073,-0.029,-0.044,-0.049,-0.049,-0.185,-0.132,-0.122,-0.132
1.362,-0.054,-0.068,-0.015,0.063,-0.02,-0.044,-0.044,-0.044,-0.171,-0.132,-0.112,-0.122
1.364,-0.054,-0.073,-0.02,0.063,-0.02,-0.049,-0.044,-0.034,-0.171,-0.137,-0.122,-0.132
1.366,-0.044,-0.059,-0.015,0.054,-0.015,-0.039,-0.034,-0.02,-0.151,-0.132,-0.117,-0.127
1.368,-0.054,-0.068,-0.015,0.063,-0.02,-0.044,-0.034,-0.024,-0.146,-0.132,-0.117,-0.137
1.37,-0.068,-0.083,-0.015,0.078,-0.029,-0.049,-0.034,-0.02,-0.137,-0.122,-0.112,-0.127
1.372,-0.054,-0.068,-0.015,0.063,-0.02,-0.044,-0.034,-0.02,-0.117,-0.112,-0.102,-0.122
1.374,-0.054,-0.063,-0.01,0.059,-0.024,-0.039,-0.029,-0.02,-0.098,-0.102,-0.098,-0.112
1.376,-0.049,-0.063,-0.015,0.059,-0.02,-0.039,-0.029,-0.015,-0.102,-0.098,-0.093,-0.112
1.378,-0.054,-0.068,-0.015,0.063,-0.02,-0.044,-0.039,-0.024,-0.102,-0.107,-0.098,-0.117
1.38,-0.059,-0.073,-0.015,0.068,-0.024,-0.044,-0.049,-0.034,-0.107,-0.117,-0.112,-0.132
1.382,-0.068,-0.078,-0.01,0.073,-0.029,-0.044,-0.039,-0.024,-0.098,-0.117,-0.112,-0.122
1.384,-0.068,-0.078,-0.01,0.073,-0.029,-0.044,-0.044,-0.02,-0.098,-0.122,-0.117,-0.122
1.386,-0.068,-0.078,-0.01,0.073,-0.029,-0.044,-0.029,-0.01,-0.098,-0.122,-0.117,-0.127
1.388,-0.059,-0.068,-0.01,0.063,-0.024,-0.039,-0.024,-0.01,-0.093,-0.122,-0.107,-0.122
1.39,-0.063,-0.073,-0.01,0.068,-0.029,-0.044,-0.029,-0.005,-0.093,-0.107,-0.102,-0.112
1.392,-0.044,-0.054,-0.01,0.049,-0.02,-0.034,-0.024,-0.005,-0.083,-0.093,-0.093,-0.112
1.394,-0.039,-0.059,-0.02,0.049,-0.01,-0.039,-0.024,-0.01,-0.078,-0.093,-0.083,-0.112
1.396,-0.049,-0.068,-0.02,0.059,-0.015,-0.044,-0.034,-0.015,-0.088,-0.098,-0.088,-0.112
1.398,-0.054,-0.068,-0.015,0.063,-0.02,-0.044,-0.029,-0.005,-0.083,-0.093,-0.088,-0.107
1.4,-0.059,-0.073,-0.015,0.068,-0.024,-0.044,-0.039,-0.015,-0.083,-0.102,-0.098,-0.117
1.402,-0.063,-0.078,-0.015,0.073,-0.024,-0.049,-0.029,-0.01,-0.083,-0.098,-0.093,-0.112
1.404,-0.059,-0.068,-0.01,0.063,-0.024,-0.039,-0.024,0.0,-0.078,-0.098,-0.088,-0.107
1.406,-0.039,-0.054,-0.015,0.049,-0.015,-0.034,-0.015,0.01,-0.073,-0.098,-0.083,-0.107
1.408,-0.024,-0.039,-0.015,0.034,-0.005,-0.029,-0.01,0.02,-0.059,-0.088,-0.073,-0.107
1.41,-0.02,-0.039,-0.02,0.029,0.0,-0.029,-0.02,0.01,-0.063,-0.088,-0.073,-0.102
1.412,-0.034,-0.049,-0.015,0.044,-0.01,-0.034,-0.024,0.005,-0.063,-0.088,-0.073,-0.107
1.414,-0.039,-0.049,-0.01,0.044,-0.015,-0.029,-0.024,0.005,-0.059,-0.088,-0.073,-0.107
1.416,-0.034,-0.054,-0.02,0.044,-0.01,-0.039,-0.034,0.0,-0.059,-0.088,-0.073,-0.107
1.418,-0.039,-0.059,-0.02,0.049,-0.01,-0.039,-0.034,0.005,-0.063,-0.088,-0.078,-0.102
1.42,-0.034,-0.059,-0.024,0.049,-0.005,-0.044,-0.024,0.01,-0.049,-0.088,-0.078,-0.102
1.422,-0.039,-0.068,-0.029,0.054,-0.005,-0.049,-0.02,0.01,-0.054,-0.093,-0.078,-0.098
1.424,-0.029,-0.059,-0.029,0.044,0.0,-0.044,-0.02,0.015,-0.059,-0.088,-0.083,-0.098
1.426,-0.02,-0.054,-0.034,0.039,0.005,-0.044,-0.02,0.024,-0.044,-0.078,-0.073,-0.098
1.428,-0.02,-0.044,-0.024,0.034,0.0,-0.034,-0.01,0.034,-0.029,-0.054,-0.054,-0.088
1.43,-0.015,-0.039,-0.024,0.029,0.005,-0.034,-0.01,0.039,-0.029,-0.054,-0.049,-0.078
1.432,-0.01,-0.039,-0.029,0.024,0.01,-0.034,-0.01,0.039,-0.029,-0.059,-0.059,-0.073
1.434,-0.015,-0.039,-0.024,0.029,0.005,-0.034,-0.01,0.039,-0.02,-0.049,-0.049,-0.073
1.436,-0.015,-0.039,-0.024,0.029,0.005,-0.034,-0.015,0.034,-0.024,-0.049,-0.049,-0.073
1.438,-0.024,-0.049,-0.024,0.039,0.0,-0.039,-0.015,0.029,-0.034,-0.059,-0.059,-0.073
1.44,-0.015,-0.044,-0.029,0.029,0.005,-0.039,-0.015,0.029,-0.029,-0.063,-0.054,-0.083
1.442,-0.02,-0.044,-0.024,0.034,0.0,-0.034,-0.01,0.029,-0.039,-0.059,-0.044,-0.078
1.444,-0.02,-0.039,-0.02,0.029,0.0,-0.029,-0.015,0.039,-0.034,-0.059,-0.044,-0.073
1.446,-0.02,-0.034,-0.015,0.029,-0.005,-0.024,0.0,0.059,-0.01,-0.044,-0.044,-0.073
1.448,-0.024,-0.044,-0.02,0.034,-0.005,-0.034,-0.005,0.054,-0.015,-0.044,-0.039,-0.073
1.45,-0.024,-0.044,-0.02,0.034,-0.005,-0.034,-0.005,0.059,-0.01,-0.039,-0.034,-0.063
1.452,-0.02,-0.044,-0.024,0.034,0.0,-0.034,-0.015,0.063,-0.015,-0.039,-0.039,-0.068
1.454,-0.02,-0.044,-0.024,0.034,0.0,-0.034,-0.015,0.049,-0.015,-0.034,-0.039,-0.068
1.456,-0.01,-0.034,-0.024,0.024,0.005,-0.029,-0.01,0.054,-0.01,-0.029,-0.029,-0.059
1.458,-0.01,-0.029,-0.02,0.02,0.005,-0.024,-0.01,0.059,-0.02,-0.034,-0.029,-0.063
1.46,0.005,-0.01,-0.015,0.005,0.01,-0.015,-0.01,0.063,-0.015,-0.029,-0.029,-0.068
1.462,0.01,0.0,-0.01,-0.005,0.01,-0.005,0.005,0.073,0.0,-0.01,-0.01,-0.049
1.464,0.0,-0.015,-0.015,0.01,0.005,-0.015,0.0,0.073,0.0,-0.02,-0.015,-0.049
1.466,0.02,0.0,-0.02,-0.01,0.02,-0.01,0.0,0.083,0.015,-0.015,-0.015,-0.049
1.468,0.015,-0.005,-0.02,-0.005,0.015,-0.015,0.005,0.083,0.01,-0.01,-0.015,-0.049
1.47,0.01,-0.01,-0.02,0.0,0.015,-0.015,0.005,0.083,0.015,0.0,-0.01,-0.039
1.472,0.029,0.0,-0.029,-0.015,0.029,-0.015,0.005,0.088,0.024,0.01,-0.01,-0.044
1.474,0.034,-0.005,-0.039,-0.015,0.034,-0.024,0.01,0.093,0.029,0.015,0.01,-0.039
1.476,0.034,0.0,-0.034,-0.015,0.034,-0.02,0.01,0.098,0.054,0.015,0.01,-0.029
1.478,0.024,-0.01,-0.034,-0.005,0.029,-0.024,0.005,0.098,0.078,0.015,0.01,-0.029
1.48,0.015,-0.015,-0.029,0.0,0.02,-0.024,-0.01,0.098,0.112,0.015,0.005,-0.039
1.482,0.024,-0.005,-0.029,-0.01,0.024,-0.02,0.005,0.112,0.166,0.029,0.024,-0.02
1.484,0.024,-0.005,-0.029,-0.01,0.024,-0.02,0.005,0.117,0.22,0.024,0.029,-0.015
1.486,0.029,0.0,-0.029,-0.015,0.029,-0.015,0.005,0.117,0.283,0.024,0.024,-0.024
1.488,0.039,0.015,-0.024,-0.024,0.029,-0.005,0.01,0.122,0.371,0.044,0.039,-0.02
1.49,0.029,0.01,-0.02,-0.02,0.024,-0.005,0.015,0.127,0.449,0.049,0.049,-0.005
1.492,0.039,0.015,-0.024,-0.024,0.029,-0.005,0.01,0.132,0.503,0.049,0.044,-0.005
1.494,0.049,0.024,-0.024,-0.034,0.034,0.0,0.005,0.132,0.556,0.059,0.054,0.0
1.496,0.049,0.029,-0.02,-0.039,0.034,0.005,0.01,0.127,0.586,0.063,0.054,0.01
1.498,0.063,0.039,-0.024,-0.049,0.044,0.005,0.005,0.127,0.6,0.063,0.054,0.02
1.5,0.073,0.044,-0.029,-0.059,0.049,0.005,0.0,0.142,0.63,0.073,0.063,0.024
1.502,0.078,0.049,-0.029,-0.063,0.054,0.01,0.005,0.142,0.644,0.083,0.068,0.029
1.504,0.073,0.044,-0.029,-0.059,0.049,0.005,0.01,0.156,0.654,0.088,0.073,0.034
1.506,0.054,0.024,-0.029,-0.039,0.039,-0.005,0.015,0.161,0.664,0.078,0.078,0.034
1.508,0.054,0.024,-0.029,-0.039,0.039,-0.005,0.0,0.161,0.678,0.083,0.083,0.034
1.51,0.068,0.044,-0.024,-0.054,0.044,0.01,0.01,0.171,0.693,0.102,0.098,0.054
1.512,0.102,0.073,-0.029,-0.088,0.063,0.02,0.01,0.181,0.708,0.117,0.107,0.063
1.514,0.112,0.083,-0.029,-0.098,0.068,0.024,0.015,0.19,0.727,0.132,0.127,0.078
1.516,0.098,0.073,-0.024,-0.083,0.059,0.024,0.005,0.185,0.732,0.132,0.132,0.083
1.518,0.098,0.078,-0.02,-0.088,0.059,0.029,0.01,0.19,0.732,0.132,0.127,0.088
1.52,0.112,0.093,-0.02,-0.102,0.063,0.034,0.015,0.195,0.742,0.146,0.132,0.088
1.522,0.122,0.098,-0.024,-0.107,0.073,0.034,0.024,0.2,0.752,0.161,0.146,0.098
1.524,0.137,0.112,-0.024,-0.122,0.078,0.044,0.024,0.21,0.761,0.166,0.151,0.112
1.526,0.146,0.127,-0.02,-0.137,0.083,0.054,0.029,0.22,0.766,0.166,0.156,0.112
1.528,0.142,0.122,-0.02,-0.132,0.078,0.049,0.024,0.22,0.781,0.176,0.166,0.122
1.53,0.142,0.112,-0.029,-0.127,0.083,0.039,0.015,0.22,0.781,0.176,0.166,0.122
1.532,0.151,0.127,-0.024,-0.137,0.088,0.049,0.01,0.229,0.791,0.185,0.171,0.127
1.534,0.156,0.137,-0.02,-0.146,0.088,0.059,0.015,0.229,0.805,0.195,0.181,0.132
1.536,0.161,0.151,-0.01,-0.156,0.083,0.068,0.015,0.224,0.8,0.195,0.185,0.137
1.538,0.161,0.156,-0.005,-0.156,0.083,0.073,0.015,0.234,0.81,0.2,0.195,0.142
1.54,0.166,0.156,-0.01,-0.161,0.088,0.073,0.015,0.239,0.825,0.2,0.2,0.137
1.542,0.171,0.161,-0.01,-0.166,0.088,0.073,0.02,0.239,0.83,0.205,0.205,0.146
1.544,0.176,0.166,-0.01,-0.171,0.093,0.078,0.02,0.249,0.834,0.215,0.205,0.146
1.546,0.176,0.171,-0.005,-0.171,0.088,0.083,0.015,0.254,0.844,0.215,0.205,0.146
1.548,0.171,0.171,0.0,-0.171,0.083,0.083,0.02,0.249,0.849,0.22,0.21,0.151
1.55,0.171,0.176,0.005,-0.171,0.083,0.088,0.015,0.249,0.849,0.224,0.215,0.156
1.552,0.166,0.176,0.01,-0.171,0.078,0.093,0.02,0.259,0.864,0.229,0.22,0.171
1.554,0.181,0.181,0.0,-0.181,0.088,0.088,0.02,0.259,0.869,0.239,0.229,0.181
1.556,0.19,0.19,0.0,-0.19,0.093,0.093,0.024,0.254,0.859,0.234,0.229,0.19
1.558,0.19,0.19,0.0,-0.19,0.093,0.093,0.024,0.264,0.864,0.229,0.224,0.185
1.56,0.181,0.176,-0.005,-0.176,0.093,0.083,0.02,0.264,0.864,0.224,0.215,0.181
1.562,0.176,0.161,-0.015,-0.166,0.093,0.073,0.01,0.249,0.854,0.22,0.21,0.176
1.564,0.171,0.161,-0.01,-0.166,0.088,0.073,0.015,0.259,0.864,0.22,0.22,0.181
1.566,0.181,0.171,-0.01,-0.176,0.093,0.078,0.02,0.264,0.864,0.22,0.215,0.176
1.568,0.2,0.2,0.0,-0.2,0.098,0.098,0.039,0.273,0.878,0.239,0.239,0.195
1.57,0.19,0.2,0.01,-0.195,0.088,0.102,0.044,0.278,0.888,0.249,0.249,0.205
1.572,0.181,0.19,0.01,-0.185,0.083,0.098,0.034,0.273,0.878,0.239,0.239,0.195
1.574,0.195,0.2,0.005,-0.195,0.093,0.102,0.029,0.259,0.874,0.234,0.234,0.195
1.576,0.185,0.195,0.01,-0.19,0.088,0.102,0.034,0.254,0.869,0.239,0.234,0.195
1.578,0.181,0.2,0.02,-0.19,0.078,0.107,0.044,0.264,0.869,0.234,0.229,0.19
1.58,0.171,0.195,0.024,-0.181,0.073,0.107,0.039,0.259,0.859,0.224,0.22,0.185
1.582,0.161,0.195,0.034,-0.176,0.063,0.112,0.054,0.264,0.874,0.229,0.224,0.185
1.584,0.166,0.2,0.034,-0.181,0.063,0.117,0.054,0.264,0.878,0.229,0.22,0.185
1.586,0.161,0.19,0.029,-0.176,0.063,0.107,0.054,0.259,0.874,0.205,0.205,0.171
1.588,0.156,0.181,0.024,-0.166,0.063,0.102,0.054,0.254,0.878,0.205,0.2,0.166
1.59,0.146,0.171,0.024,-0.156,0.059,0.098,0.054,0.244,0.864,0.2,0.19,0.161
1.592,0.127,0.146,0.02,-0.137,0.054,0.083,0.044,0.234,0.859,0.185,0.176,0.146
1.594,0.117,0.142,0.024,-0.127,0.044,0.083,0.044,0.224,0.859,0.185,0.171,0.137
1.596,0.107,0.127,0.02,-0.117,0.044,0.073,0.049,0.22,0.849,0.181,0.161,0.132
1.598,0.127,0.146,0.02,-0.137,0.054,0.083,0.054,0.22,0.844,0.166,0.156,0.127
1.6,0.132,0.156,0.024,-0.142,0.054,0.088,0.063,0.215,0.839,0.166,0.151,0.122
1.602,0.112,0.127,0.015,-0.117,0.049,0.068,0.059,0.205,0.83,0.151,0.146,0.117
1.604,0.088,0.112,0.024,-0.098,0.029,0.068,0.054,0.195,0.825,0.142,0.137,0.102
1.606,0.078,0.107,0.029,-0.093,0.024,0.068,0.054,0.185,0.815,0.132,0.117,0.083
1.608,0.073,0.107,0.034,-0.088,0.02,0.068,0.059,0.181,0.815,0.127,0.117,0.078
1.61,0.073,0.102,0.029,-0.088,0.02,0.063,0.059,0.171,0.81,0.127,0.107,0.073
1.612,0.059,0.093,0.034,-0.073,0.01,0.063,0.068,0.171,0.81,0.117,0.098,0.063
1.614,0.073,0.098,0.024,-0.083,0.024,0.059,0.068,0.161,0.81,0.112,0.093,0.063
1.616,0.073,0.088,0.015,-0.078,0.029,0.049,0.063,0.137,0.791,0.102,0.073,0.049
1.618,0.044,0.059,0.015,-0.049,0.015,0.034,0.049,0.117,0.771,0.078,0.059,0.029
1.62,0.034,0.044,0.01,-0.039,0.01,0.024,0.044,0.102,0.761,0.063,0.044,0.015
1.622,0.029,0.039,0.01,-0.034,0.01,0.024,0.054,0.098,0.752,0.054,0.029,0.015
1.624,0.015,0.024,0.01,-0.02,0.0,0.015,0.044,0.083,0.742,0.039,0.024,0.005
1.626,0.015,0.024,0.01,-0.02,0.0,0.015,0.044,0.078,0.732,0.029,0.01,-0.01
1.628,0.005,0.015,0.01,-0.01,-0.005,0.01,0.044,0.063,0.722,0.024,0.005,-0.02
1.63,0.0,0.015,0.015,-0.005,-0.01,0.015,0.044,0.054,0.717,0.02,0.0,-0.024
1.632,0.0,0.015,0.015,-0.005,-0.01,0.015,0.039,0.049,0.703,0.01,-0.01,-0.029
1.634,-0.015,0.0,0.015,0.01,-0.015,0.005,0.029,0.029,0.693,-0.005,-0.024,-0.044
1.636,-0.01,0.0,0.01,0.005,-0.01,0.005,0.024,0.02,0.683,-0.01,-0.029,-0.049
1.638,-0.005,0.005,0.01,0.0,-0.01,0.005,0.029,0.02,0.673,-0.015,-0.034,-0.054
1.64,-0.02,-0.015,0.005,0.02,-0.015,-0.005,0.029,0.01,0.659,-0.024,-0.039,-0.059
1.642,-0.02,-0.015,0.005,0.02,-0.015,-0.005,0.034,-0.005,0.644,-0.034,-0.049,-0.068
1.644,-0.02,-0.02,0.0,0.02,-0.01,-0.01,0.029,-0.005,0.639,-0.044,-0.054,-0.073
1.646,-0.034,-0.024,0.01,0.029,-0.024,-0.01,0.024,-0.01,0.63,-0.054,-0.068,-0.078
1.648,-0.029,-0.02,0.01,0.024,-0.02,-0.005,0.024,-0.02,0.63,-0.054,-0.068,-0.078
1.65,-0.034,-0.024,0.01,0.029,-0.024,-0.01,0.02,-0.024,0.615,-0.049,-0.068,-0.078
1.652,-0.029,-0.02,0.01,0.024,-0.02,-0.005,0.02,-0.024,0.61,-0.059,-0.073,-0.078
1.654,-0.039,-0.034,0.005,0.039,-0.024,-0.015,0.015,-0.039,0.6,-0.068,-0.083,-0.088
1.656,-0.039,-0.034,0.005,0.039,-0.024,-0.015,0.015,-0.049,0.586,-0.068,-0.083,-0.088
1.658,-0.034,-0.034,0.0,0.034,-0.02,-0.02,0.015,-0.049,0.576,-0.073,-0.083,-0.093
1.66,-0.049,-0.049,0.0,0.049,-0.024,-0.024,0.01,-0.054,0.571,-0.083,-0.098,-0.098
1.662,-0.063,-0.073,-0.01,0.068,-0.029,-0.044,0.01,-0.059,0.566,-0.088,-0.098,-0.102
1.664,-0.073,-0.073,0.0,0.073,-0.039,-0.039,0.01,-0.059,0.561,-0.088,-0.098,-0.102
1.666,-0.059,-0.049,0.01,0.054,-0.034,-0.02,0.02,-0.044,0.566,-0.083,-0.098,-0.098
1.668,-0.039,-0.024,0.015,0.034,-0.029,-0.005,0.024,-0.039,0.576,-0.073,-0.088,-0.088
1.67,-0.049,-0.029,0.02,0.039,-0.034,-0.005,0.029,-0.044,0.571,-0.073,-0.083,-0.088
1.672,-0.049,-0.039,0.01,0.044,-0.029,-0.015,0.015,-0.063,0.547,-0.088,-0.102,-0.102
1.674,-0.049,-0.049,0.0,0.049,-0.024,-0.024,0.02,-0.063,0.551,-0.088,-0.102,-0.102
1.676,-0.059,-0.054,0.005,0.059,-0.034,-0.024,0.02,-0.063,0.542,-0.088,-0.102,-0.102
1.678,-0.039,-0.039,0.0,0.039,-0.02,-0.02,0.02,-0.063,0.537,-0.088,-0.102,-0.098
1.68,-0.029,-0.024,0.005,0.029,-0.02,-0.01,0.024,-0.054,0.551,-0.078,-0.098,-0.093
1.682,-0.039,-0.034,0.005,0.039,-0.024,-0.015,0.024,-0.054,0.547,-0.083,-0.098,-0.098
1.684,-0.044,-0.034,0.01,0.039,-0.029,-0.015,0.02,-0.054,0.537,-0.088,-0.102,-0.107
1.686,-0.059,-0.049,0.01,0.054,-0.034,-0.02,0.015,-0.054,0.532,-0.102,-0.112,-0.112
1.688,-0.063,-0.054,0.01,0.059,-0.039,-0.024,0.015,-0.054,0.532,-0.098,-0.112,-0.112
1.69,-0.049,-0.044,0.005,0.049,-0.029,-0.02,0.01,-0.054,0.537,-0.098,-0.107,-0.107
1.692,-0.049,-0.039,0.01,0.044,-0.029,-0.015,0.015,-0.049,0.532,-0.088,-0.112,-0.102
1.694,-0.044,-0.034,0.01,0.039,-0.029,-0.015,0.015,-0.049,0.532,-0.093,-0.112,-0.107
1.696,-0.039,-0.034,0.005,0.039,-0.024,-0.015,0.01,-0.059,0.522,-0.098,-0.112,-0.107
1.698,-0.054,-0.049,0.005,0.054,-0.029,-0.024,0.005,-0.063,0.517,-0.102,-0.117,-0.112
1.7,-0.054,-0.044,0.01,0.049,-0.034,-0.02,0.01,-0.054,0.517,-0.102,-0.117,-0.112
1.702,-0.049,-0.039,0.01,0.044,-0.029,-0.015,0.01,-0.059,0.508,-0.102,-0.112,-0.107
1.704,-0.044,-0.034,0.01,0.039,-0.029,-0.015,0.005,-0.059,0.503,-0.102,-0.117,-0.112
1.706,-0.039,-0.029,0.01,0.034,-0.024,-0.01,0.015,-0.049,0.512,-0.098,-0.112,-0.107
1.708,-0.044,-0.029,0.015,0.039,-0.029,-0.01,0.01,-0.049,0.508,-0.098,-0.112,-0.107
1.71,-0.054,-0.039,0.015,0.049,-0.034,-0.015,0.005,-0.059,0.503,-0.098,-0.117,-0.112
1.712,-0.068,-0.049,0.02,0.059,-0.044,-0.015,0.005,-0.054,0.498,-0.102,-0.112,-0.117
1.714,-0.068,-0.049,0.02,0.059,-0.044,-0.015,0.01,-0.059,0.503,-0.098,-0.112,-0.107
1.716,-0.039,-0.02,0.02,0.029,-0.029,0.0,0.02,-0.049,0.508,-0.088,-0.102,-0.098
1.718,-0.029,-0.015,0.015,0.024,-0.024,0.0,0.02,-0.049,0.503,-0.093,-0.107,-0.098
1.72,-0.039,-0.02,0.02,0.029,-0.029,0.0,0.015,-0.049,0.498,-0.098,-0.107,-0.102
1.722,-0.039,-0.029,0.01,0.034,-0.024,-0.01,0.015,-0.054,0.493,-0.098,-0.107,-0.102
1.724,-0.044,-0.044,0.0,0.044,-0.024,-0.024,0.005,-0.054,0.478,-0.102,-0.112,-0.107
1.726,-0.044,-0.049,-0.005,0.049,-0.02,-0.029,0.01,-0.049,0.483,-0.102,-0.112,-0.102
1.728,-0.034,-0.029,0.005,0.034,-0.02,-0.015,0.02,-0.039,0.498,-0.093,-0.102,-0.098
1.73,-0.029,-0.029,0.0,0.029,-0.015,-0.015,0.02,-0.039,0.493,-0.078,-0.098,-0.093
1.732,-0.034,-0.034,0.0,0.034,-0.02,-0.02,0.02,-0.039,0.493,-0.083,-0.098,-0.093
1.734,-0.039,-0.039,0.0,0.039,-0.02,-0.02,0.015,-0.044,0.483,-0.088,-0.107,-0.098
1.736,-0.034,-0.034,0.0,0.034,-0.02,-0.02,0.015,-0.049,0.478,-0.083,-0.098,-0.093
1.738,-0.034,-0.034,0.0,0.034,-0.02,-0.02,0.024,-0.044,0.478,-0.078,-0.093,-0.088
1.74,-0.059,-0.049,0.01,0.054,-0.034,-0.02,0.015,-0.049,0.468,-0.088,-0.102,-0.098
1.742,-0.059,-0.059,0.0,0.059,-0.029,-0.029,0.015,-0.054,0.464,-0.083,-0.098,-0.093
1.744,-0.049,-0.049,0.0,0.049,-0.024,-0.024,0.015,-0.049,0.459,-0.088,-0.102,-0.093
1.746,-0.049,-0.044,0.005,0.049,-0.029,-0.02,0.02,-0.039,0.464,-0.078,-0.098,-0.088
1.748,-0.044,-0.039,0.005,0.044,-0.024,-0.02,0.02,-0.044,0.459,-0.078,-0.098,-0.088
1.75,-0.044,-0.049,-0.005,0.049,-0.02,-0.029,0.01,-0.049,0.454,-0.083,-0.102,-0.093
1.752,-0.029,-0.029,0.0,0.029,-0.015,-0.015,0.01,-0.054,0.449,-0.083,-0.098,-0.093
1.754,-0.029,-0.029,0.0,0.029,-0.015,-0.015,0.02,-0.049,0.459,-0.078,-0.098,-0.083
1.756,-0.029,-0.029,0.0,0.029,-0.015,-0.015,0.005,-0.059,0.444,-0.083,-0.098,-0.083
1.758,-0.044,-0.039,0.005,0.044,-0.024,-0.02,0.005,-0.068,0.425,-0.093,-0.107,-0.093
1.76,-0.054,-0.044,0.01,0.049,-0.034,-0.02,-0.005,-0.063,0.425,-0.098,-0.112,-0.098
1.762,-0.054,-0.039,0.015,0.049,-0.034,-0.015,0.0,-0.059,0.425,-0.093,-0.112,-0.098
1.764,-0.044,-0.039,0.005,0.044,-0.024,-0.02,0.0,-0.059,0.415,-0.093,-0.102,-0.098
1.766,-0.059,-0.054,0.005,0.059,-0.034,-0.024,0.0,-0.059,0.415,-0.098,-0.107,-0.102
1.768,-0.063,-0.044,0.02,0.054,-0.044,-0.015,0.0,-0.059,0.41,-0.088,-0.102,-0.098
1.77,-0.039,-0.024,0.015,0.034,-0.029,-0.005,0.01,-0.054,0.415,-0.078,-0.093,-0.088
1.772,-0.034,-0.02,0.015,0.029,-0.024,-0.005,0.01,-0.054,0.415,-0.078,-0.093,-0.088
1.774,-0.024,-0.01,0.015,0.02,-0.02,0.0,0.01,-0.054,0.415,-0.078,-0.093,-0.083
1.776,-0.034,-0.024,0.01,0.029,-0.024,-0.01,0.0,-0.063,0.4,-0.083,-0.093,-0.078
1.778,-0.044,-0.044,0.0,0.044,-0.024,-0.024,0.0,-0.068,0.386,-0.088,-0.102,-0.088
1.78,-0.029,-0.034,-0.005,0.034,-0.015,-0.02,0.0,-0.068,0.381,-0.093,-0.107,-0.083
1.782,-0.049,-0.044,0.005,0.049,-0.029,-0.02,0.005,-0.068,0.376,-0.093,-0.107,-0.093
1.784,-0.049,-0.049,0.0,0.049,-0.024,-0.024,0.0,-0.073,0.371,-0.098,-0.107,-0.093
1.786,-0.039,-0.039,0.0,0.039,-0.02,-0.02,0.005,-0.063,0.376,-0.088,-0.102,-0.083
1.788,-0.039,-0.039,0.0,0.039,-0.02,-0.02,0.0,-0.063,0.371,-0.093,-0.107,-0.088
1.79,-0.034,-0.034,0.0,0.034,-0.02,-0.02,0.005,-0.068,0.371,-0.088,-0.102,-0.088
1.792,-0.039,-0.039,0.0,0.039,-0.02,-0.02,0.005,-0.068,0.356,-0.088,-0.098,-0.093
1.794,-0.044,-0.034,0.01,0.039,-0.029,-0.015,0.01,-0.068,0.351,-0.088,-0.098,-0.093
1.796,-0.029,-0.02,0.01,0.024,-0.02,-0.005,0.01,-0.068,0.356,-0.083,-0.093,-0.078
1.798,-0.034,-0.029,0.005,0.034,-0.02,-0.015,0.01,-0.068,0.351,-0.083,-0.098,-0.078
1.8,-0.034,-0.034,0.0,0.034,-0.02,-0.02,0.005,-0.078,0.342,-0.093,-0.107,-0.088
1.802,-0.044,-0.039,0.005,0.044,-0.024,-0.02,0.005,-0.078,0.332,-0.093,-0.107,-0.093
1.804,-0.059,-0.054,0.005,0.059,-0.034,-0.024,0.005,-0.083,0.327,-0.098,-0.107,-0.093
1.806,-0.049,-0.049,0.0,0.049,-0.024,-0.024,0.005,-0.078,0.322,-0.098,-0.112,-0.093
1.808,-0.054,-0.063,-0.01,0.059,-0.024,-0.039,0.005,-0.083,0.317,-0.102,-0.112,-0.093
1.81,-0.063,-0.083,-0.02,0.073,-0.024,-0.054,0.0,-0.088,0.307,-0.107,-0.122,-0.102
1.812,-0.059,-0.078,-0.02,0.068,-0.02,-0.049,0.0,-0.088,0.303,-0.107,-0.117,-0.093
1.814,-0.054,-0.063,-0.01,0.059,-0.024,-0.039,0.0,-0.088,0.307,-0.107,-0.117,-0.088
1.816,-0.039,-0.049,-0.01,0.044,-0.015,-0.029,0.0,-0.088,0.303,-0.098,-0.107,-0.083
1.818,-0.044,-0.044,0.0,0.044,-0.024,-0.024,0.005,-0.088,0.303,-0.093,-0.102,-0.078
1.82,-0.039,-0.049,-0.01,0.044,-0.015,-0.029,0.005,-0.093,0.298,-0.102,-0.107,-0.083
1.822,-0.034,-0.039,-0.005,0.039,-0.015,-0.024,0.005,-0.093,0.298,-0.098,-0.107,-0.078
1.824,-0.039,-0.049,-0.01,0.044,-0.015,-0.029,0.005,-0.098,0.283,-0.102,-0.107,-0.083
1.826,-0.054,-0.059,-0.005,0.059,-0.024,-0.034,0.005,-0.093,0.278,-0.107,-0.112,-0.083
1.828,-0.039,-0.049,-0.01,0.044,-0.015,-0.029,0.005,-0.093,0.278,-0.102,-0.107,-0.083
1.83,-0.039,-0.049,-0.01,0.044,-0.015,-0.029,0.0,-0.093,0.268,-0.107,-0.107,-0.083
1.832,-0.039,-0.049,-0.01,0.044,-0.015,-0.029,0.005,-0.093,0.273,-0.107,-0.107,-0.083
1.834,-0.039,-0.049,-0.01,0.044,-0.015,-0.029,0.01,-0.088,0.273,-0.102,-0.107,-0.078
1.836,-0.034,-0.044,-0.01,0.039,-0.015,-0.029,0.005,-0.093,0.264,-0.102,-0.107,-0.068
1.838,-0.039,-0.044,-0.005,0.044,-0.02,-0.024,0.005,-0.093,0.259,-0.107,-0.112,-0.068
1.84,-0.044,-0.054,-0.01,0.049,-0.02,-0.034,0.0,-0.093,0.254,-0.102,-0.107,-0.073
1.842,-0.039,-0.049,-0.01,0.044,-0.015,-0.029,0.005,-0.093,0.249,-0.102,-0.107,-0.073
1.844,-0.039,-0.044,-0.005,0.044,-0.02,-0.024,0.01,-0.093,0.249,-0.102,-0.107,-0.073
1.846,-0.054,-0.054,0.0,0.054,-0.029,-0.029,0.01,-0.088,0.239,-0.102,-0.107,-0.073
1.848,-0.054,-0.054,0.0,0.054,-0.029,-0.029,0.015,-0.088,0.244,-0.102,-0.107,-0.073
1.85,-0.054,-0.054,0.0,0.054,-0.029,-0.029,0.01,-0.088,0.234,-0.102,-0.107,-0.073
1.852,-0.054,-0.054,0.0,0.054,-0.029,-0.029,0.005,-0.093,0.229,-0.112,-0.112,-0.083
1.854,-0.059,-0.059,0.0,0.059,-0.029,-0.029,0.005,-0.093,0.229,-0.112,-0.112,-0.078
1.856,-0.063,-0.063,0.0,0.063,-0.034,-0.034,0.0,-0.098,0.22,-0.107,-0.112,-0.078
1.858,-0.049,-0.049,0.0,0.049,-0.024,-0.024,0.0,-0.098,0.215,-0.112,-0.107,-0.078
1.86,-0.039,-0.044,-0.005,0.044,-0.02,-0.024,0.005,-0.093,0.215,-0.107,-0.112,-0.078
1.862,-0.044,-0.049,-0.005,0.049,-0.02,-0.029,0.0,-0.098,0.21,-0.112,-0.112,-0.078
1.864,-0.049,-0.049,0.0,0.049,-0.024,-0.024,0.005,-0.093,0.205,-0.107,-0.112,-0.073
1.866,-0.049,-0.054,-0.005,0.054,-0.024,-0.029,0.01,-0.088,0.2,-0.112,-0.107,-0.078
1.868,-0.054,-0.063,-0.01,0.059,-0.024,-0.039,0.005,-0.098,0.195,-0.112,-0.112,-0.083
1.87,-0.063,-0.059,0.005,0.063,-0.034,-0.029,-0.005,-0.102,0.185,-0.117,-0.112,-0.083
1.872,-0.068,-0.054,0.015,0.063,-0.044,-0.02,0.005,-0.098,0.185,-0.112,-0.107,-0.083
1.874,-0.044,-0.034,0.01,0.039,-0.029,-0.015,0.01,-0.098,0.185,-0.098,-0.107,-0.073
1.876,-0.029,-0.02,0.01,0.024,-0.02,-0.005,0.005,-0.102,0.19,-0.102,-0.102,-0.063
1.878,-0.049,-0.034,0.015,0.044,-0.034,-0.01,0.005,-0.102,0.176,-0.107,-0.107,-0.068
1.88,-0.054,-0.044,0.01,0.049,-0.034,-0.02,0.005,-0.102,0.176,-0.107,-0.117,-0.073
1.882,-0.054,-0.044,0.01,0.049,-0.034,-0.02,0.01,-0.102,0.176,-0.102,-0.112,-0.073
1.884,-0.063,-0.054,0.01,0.059,-0.039,-0.024,0.01,-0.107,0.161,-0.107,-0.117,-0.083
1.886,-0.059,-0.049,0.01,0.054,-0.034,-0.02,0.015,-0.098,0.161,-0.107,-0.112,-0.083
1.888,-0.049,-0.044,0.005,0.049,-0.029,-0.02,0.005,-0.102,0.161,-0.107,-0.117,-0.093
1.89,-0.054,-0.044,0.01,0.049,-0.034,-0.02,0.005,-0.102,0.156,-0.102,-0.112,-0.093
1.892,-0.049,-0.039,0.01,0.044,-0.029,-0.015,0.01,-0.102,0.146,-0.102,-0.112,-0.098
1.894,-0.049,-0.044,0.005,0.049,-0.029,-0.02,0.005,-0.107,0.142,-0.107,-0.112,-0.098
1.896,-0.059,-0.049,0.01,0.054,-0.034,-0.02,0.0,-0.107,0.142,-0.107,-0.112,-0.102
1.898,-0.063,-0.054,0.01,0.059,-0.039,-0.024,0.0,-0.107,0.137,-0.112,-0.112,-0.102
1.9,-0.063,-0.059,0.005,0.063,-0.034,-0.029,0.0,-0.107,0.127,-0.117,-0.122,-0.107
1.902,-0.059,-0.044,0.015,0.054,-0.039,-0.015,0.005,-0.102,0.127,-0.112,-0.117,-0.102
1.904,-0.054,-0.034,0.02,0.044,-0.039,-0.01,0.005,-0.098,0.137,-0.107,-0.112,-0.098
1.906,-0.049,-0.024,0.024,0.039,-0.039,0.0,0.015,-0.083,0.142,-0.102,-0.107,-0.093
1.908,-0.044,-0.024,0.02,0.034,-0.034,-0.005,0.024,-0.083,0.142,-0.088,-0.102,-0.098
1.91,-0.054,-0.029,0.024,0.044,-0.039,-0.005,0.02,-0.088,0.137,-0.093,-0.102,-0.098
1.912,-0.049,-0.024,0.024,0.039,-0.039,0.0,0.024,-0.083,0.142,-0.088,-0.093,-0.093
1.914,-0.034,-0.015,0.02,0.024,-0.029,0.0,0.029,-0.073,0.142,-0.083,-0.083,-0.083
1.916,-0.039,-0.015,0.024,0.029,-0.034,0.005,0.02,-0.083,0.132,-0.083,-0.088,-0.083
1.918,-0.039,-0.01,0.029,0.024,-0.034,0.01,0.024,-0.083,0.132,-0.078,-0.088,-0.083
1.92,-0.054,-0.024,0.029,0.039,-0.044,0.0,0.02,-0.088,0.127,-0.088,-0.093,-0.093
1.922,-0.059,-0.024,0.034,0.044,-0.049,0.005,0.02,-0.088,0.127,-0.083,-0.088,-0.088
1.924,-0.039,-0.005,0.034,0.024,-0.039,0.015,0.034,-0.083,0.122,-0.073,-0.083,-0.083
1.926,-0.034,0.0,0.034,0.02,-0.034,0.015,0.034,-0.073,0.127,-0.068,-0.078,-0.078
1.928,-0.029,0.01,0.039,0.01,-0.034,0.024,0.039,-0.078,0.127,-0.063,-0.083,-0.078
1.93,-0.039,0.015,0.054,0.015,-0.049,0.034,0.044,-0.078,0.127,-0.063,-0.078,-0.068
1.932,-0.029,0.024,0.054,0.005,-0.044,0.039,0.049,-0.068,0.137,-0.054,-0.068,-0.059
1.934,-0.034,0.039,0.073,0.0,-0.054,0.054,0.054,-0.063,0.137,-0.049,-0.063,-0.054
1.936,-0.034,0.039,0.073,0.0,-0.054,0.054,0.054,-0.063,0.137,-0.049,-0.059,-0.054
1.938,-0.029,0.039,0.068,-0.005,-0.049,0.054,0.054,-0.063,0.127,-0.049,-0.059,-0.059
1.94,-0.024,0.039,0.063,-0.005,-0.044,0.049,0.054,-0.059,0.132,-0.039,-0.059,-0.059
1.942,-0.029,0.029,0.059,0.0,-0.044,0.044,0.054,-0.063,0.117,-0.044,-0.063,-0.059
1.944,-0.02,0.029,0.049,-0.005,-0.034,0.039,0.054,-0.059,0.112,-0.044,-0.063,-0.054
1.946,-0.024,0.02,0.044,0.005,-0.034,0.029,0.049,-0.063,0.107,-0.044,-0.063,-0.054
1.948,-0.029,0.005,0.034,0.015,-0.034,0.02,0.039,-0.068,0.112,-0.044,-0.063,-0.054
1.95,-0.01,0.01,0.02,0.0,-0.015,0.015,0.029,-0.073,0.112,-0.049,-0.063,-0.044
1.952,-0.015,-0.005,0.01,0.01,-0.015,0.0,0.01,-0.083,0.093,-0.059,-0.073,-0.054
1.954,-0.005,0.0,0.005,0.005,-0.005,0.0,0.0,-0.093,0.083,-0.059,-0.073,-0.054
1.956,0.01,0.005,-0.005,-0.005,0.005,0.0,0.0,-0.088,0.088,-0.044,-0.068,-0.044
1.958,0.0,0.005,0.005,0.0,-0.005,0.005,0.015,-0.078,0.093,-0.039,-0.059,-0.034
1.96,-0.005,0.005,0.01,0.0,-0.01,0.005,0.01,-0.068,0.088,-0.039,-0.054,-0.039
1.962,-0.015,0.0,0.015,0.01,-0.015,0.005,0.005,-0.073,0.078,-0.044,-0.054,-0.039
1.964,-0.024,-0.01,0.015,0.02,-0.02,0.0,-0.01,-0.088,0.068,-0.049,-0.063,-0.049
1.966,-0.024,-0.02,0.005,0.024,-0.015,-0.01,-0.005,-0.083,0.063,-0.054,-0.063,-0.049
1.968,-0.015,-0.015,0.0,0.015,-0.01,-0.01,-0.01,-0.098,0.054,-0.059,-0.073,-0.049
1.97,-0.005,-0.01,-0.005,0.01,0.0,-0.01,-0.02,-0.107,0.039,-0.068,-0.073,-0.049
1.972,0.02,0.0,-0.02,-0.01,0.02,-0.01,-0.02,-0.112,0.029,-0.063,-0.073,-0.049
1.974,0.015,0.005,-0.01,-0.01,0.01,-0.005,-0.029,-0.122,0.024,-0.068,-0.073,-0.044
1.976,0.015,0.005,-0.01,-0.01,0.01,-0.005,-0.029,-0.127,0.015,-0.068,-0.073,-0.044
1.978,0.01,0.0,-0.01,-0.005,0.01,-0.005,-0.034,-0.127,0.01,-0.078,-0.073,-0.044
1.98,0.024,0.005,-0.02,-0.015,0.02,-0.01,-0.02,-0.117,0.015,-0.068,-0.068,-0.039
1.982,0.029,0.02,-0.01,-0.024,0.02,0.005,-0.015,-0.107,0.024,-0.059,-0.059,-0.029
1.984,0.029,0.005,-0.024,-0.015,0.024,-0.01,-0.01,-0.112,0.015,-0.059,-0.059,-0.034
1.986,0.015,-0.01,-0.024,0.0,0.02,-0.02,-0.015,-0.117,0.005,-0.063,-0.063,-0.034
1.988,0.01,-0.01,-0.02,0.0,0.015,-0.015,-0.02,-0.117,0.01,-0.054,-0.063,-0.034
1.99,0.0,-0.005,-0.005,0.005,0.0,-0.005,-0.024,-0.117,0.005,-0.054,-0.059,-0.029
1.992,0.005,0.0,-0.005,0.0,0.005,-0.005,-0.015,-0.112,0.01,-0.049,-0.049,-0.024
1.994,0.01,0.005,-0.005,-0.005,0.005,0.0,-0.015,-0.112,0.005,-0.049,-0.049,-0.02
1.996,0.024,0.02,-0.005,-0.02,0.015,0.005,-0.024,-0.127,-0.005,-0.054,-0.049,-0.02
1.998,0.02,0.015,-0.005,-0.015,0.01,0.005,-0.02,-0.122,-0.01,-0.054,-0.049,-0.015
2.0,-0.005,-0.005,0.0,0.005,-0.005,-0.005,-0.024,-0.127,-0.02,-0.059,-0.063,-0.024
2.002,-0.01,-0.01,0.0,0.01,-0.005,-0.005,-0.02,-0.127,-0.02,-0.063,-0.063,-0.024
2.004,-0.01,-0.01,0.0,0.01,-0.005,-0.005,-0.01,-0.122,-0.02,-0.054,-0.054,-0.024
2.006,-0.02,-0.015,0.005,0.02,-0.015,-0.005,-0.01,-0.122,-0.024,-0.059,-0.063,-0.034
2.008,-0.02,-0.02,0.0,0.02,-0.01,-0.01,0.0,-0.112,-0.02,-0.054,-0.063,-0.034
2.01,-0.024,-0.029,-0.005,0.029,-0.01,-0.02,-0.005,-0.122,-0.034,-0.063,-0.073,-0.044
2.012,-0.039,-0.039,0.0,0.039,-0.02,-0.02,-0.01,-0.132,-0.049,-0.078,-0.083,-0.059
2.014,-0.044,-0.039,0.005,0.044,-0.024,-0.02,-0.005,-0.132,-0.049,-0.078,-0.088,-0.059
2.016,-0.049,-0.054,-0.005,0.054,-0.024,-0.029,0.0,-0.137,-0.063,-0.088,-0.098,-0.063
2.018,-0.068,-0.078,-0.01,0.073,-0.029,-0.044,-0.005,-0.142,-0.068,-0.098,-0.102,-0.073
2.02,-0.073,-0.088,-0.015,0.083,-0.029,-0.054,0.0,-0.142,-0.073,-0.093,-0.112,-0.078
2.022,-0.078,-0.098,-0.02,0.088,-0.029,-0.059,0.0,-0.142,-0.088,-0.098,-0.112,-0.083
2.024,-0.063,-0.083,-0.02,0.073,-0.024,-0.054,-0.005,-0.142,-0.088,-0.102,-0.122,-0.083
2.026,-0.059,-0.078,-0.02,0.068,-0.02,-0.049,0.005,-0.132,-0.083,-0.098,-0.112,-0.078
2.028,-0.054,-0.073,-0.02,0.063,-0.02,-0.049,0.0,-0.137,-0.088,-0.098,-0.112,-0.083
2.03,-0.049,-0.078,-0.029,0.063,-0.01,-0.054,0.005,-0.137,-0.088,-0.093,-0.107,-0.078
2.032,-0.063,-0.088,-0.024,0.078,-0.02,-0.059,0.0,-0.142,-0.093,-0.098,-0.112,-0.078
2.034,-0.059,-0.078,-0.02,0.068,-0.02,-0.049,0.0,-0.137,-0.098,-0.093,-0.107,-0.073
2.036,-0.068,-0.088,-0.02,0.078,-0.024,-0.054,-0.005,-0.142,-0.102,-0.098,-0.107,-0.078
2.038,-0.088,-0.112,-0.024,0.102,-0.034,-0.068,-0.005,-0.151,-0.117,-0.102,-0.117,-0.078
2.04,-0.068,-0.098,-0.029,0.083,-0.02,-0.063,0.01,-0.137,-0.112,-0.093,-0.112,-0.073
2.042,-0.063,-0.093,-0.029,0.078,-0.02,-0.063,0.015,-0.137,-0.112,-0.098,-0.112,-0.073
2.044,-0.068,-0.088,-0.02,0.078,-0.024,-0.054,0.01,-0.137,-0.117,-0.102,-0.112,-0.073
2.046,-0.049,-0.073,-0.024,0.063,-0.015,-0.049,0.02,-0.127,-0.112,-0.093,-0.102,-0.068
2.048,-0.054,-0.078,-0.024,0.068,-0.015,-0.054,0.01,-0.132,-0.117,-0.102,-0.107,-0.073
2.05,-0.063,-0.088,-0.024,0.078,-0.02,-0.059,0.02,-0.132,-0.117,-0.093,-0.102,-0.068
2.052,-0.068,-0.093,-0.024,0.083,-0.024,-0.059,0.015,-0.137,-0.122,-0.102,-0.112,-0.078
2.054,-0.073,-0.083,-0.01,0.078,-0.034,-0.049,0.015,-0.127,-0.122,-0.093,-0.107,-0.068
2.056,-0.049,-0.059,-0.01,0.054,-0.02,-0.034,0.029,-0.127,-0.117,-0.088,-0.102,-0.054
2.058,-0.044,-0.063,-0.02,0.054,-0.015,-0.044,0.029,-0.127,-0.122,-0.088,-0.107,-0.059
2.06,-0.073,-0.088,-0.015,0.083,-0.029,-0.054,0.024,-0.132,-0.137,-0.098,-0.117,-0.073
2.062,-0.083,-0.093,-0.01,0.088,-0.039,-0.054,0.024,-0.142,-0.142,-0.102,-0.117,-0.073
2.064,-0.068,-0.083,-0.015,0.078,-0.029,-0.049,0.029,-0.132,-0.142,-0.088,-0.117,-0.073
2.066,-0.078,-0.088,-0.01,0.083,-0.034,-0.049,0.039,-0.127,-0.137,-0.088,-0.112,-0.068
2.068,-0.088,-0.093,-0.005,0.093,-0.044,-0.049,0.034,-0.127,-0.142,-0.083,-0.107,-0.063
2.07,-0.078,-0.093,-0.015,0.088,-0.034,-0.054,0.034,-0.132,-0.142,-0.088,-0.107,-0.063
2.072,-0.073,-0.093,-0.02,0.083,-0.029,-0.059,0.034,-0.137,-0.146,-0.088,-0.102,-0.059
2.074,-0.073,-0.098,-0.024,0.088,-0.024,-0.063,0.029,-0.142,-0.156,-0.083,-0.107,-0.059
2.076,-0.054,-0.078,-0.024,0.068,-0.015,-0.054,0.029,-0.137,-0.156,-0.083,-0.102,-0.059
2.078,-0.054,-0.068,-0.015,0.063,-0.02,-0.044,0.039,-0.127,-0.146,-0.073,-0.093,-0.049
2.08,-0.068,-0.078,-0.01,0.073,-0.029,-0.044,0.039,-0.122,-0.142,-0.073,-0.093,-0.049
2.082,-0.059,-0.073,-0.015,0.068,-0.024,-0.044,0.039,-0.122,-0.142,-0.073,-0.093,-0.054
2.084,-0.054,-0.073,-0.02,0.063,-0.02,-0.049,0.034,-0.127,-0.146,-0.078,-0.098,-0.054
2.086,-0.073,-0.093,-0.02,0.083,-0.029,-0.059,0.029,-0.132,-0.151,-0.088,-0.107,-0.063
2.088,-0.073,-0.098,-0.024,0.088,-0.024,-0.063,0.034,-0.127,-0.151,-0.083,-0.107,-0.063
2.09,-0.068,-0.083,-0.015,0.078,-0.029,-0.049,0.029,-0.132,-0.156,-0.088,-0.107,-0.063
2.092,-0.068,-0.083,-0.015,0.078,-0.029,-0.049,0.029,-0.127,-0.156,-0.078,-0.102,-0.059
2.094,-0.063,-0.068,-0.005,0.068,-0.029,-0.039,0.039,-0.117,-0.142,-0.068,-0.093,-0.049
2.096,-0.083,-0.078,0.005,0.083,-0.044,-0.039,0.049,-0.112,-0.137,-0.063,-0.088,-0.049
2.098,-0.107,-0.059,0.049,0.083,-0.078,-0.005,0.073,-0.093,-0.127,-0.068,-0.088,-0.049
2.1,-0.127,-0.059,0.068,0.093,-0.098,0.005,0.107,-0.063,-0.107,-0.073,-0.102,-0.068
2.102,-0.127,-0.049,0.078,0.088,-0.102,0.015,0.146,-0.015,-0.083,-0.068,-0.102,-0.078
2.104,-0.102,-0.039,0.063,0.073,-0.083,0.01,0.166,0.015,-0.063,-0.063,-0.107,-0.078
2.106,-0.088,-0.044,0.044,0.068,-0.068,0.0,0.176,0.049,-0.044,-0.054,-0.098,-0.068
2.108,-0.073,-0.049,0.024,0.063,-0.049,-0.015,0.2,0.102,0.0,-0.015,-0.073,-0.049
2.11,-0.054,-0.005,0.049,0.029,-0.054,0.02,0.224,0.176,0.073,0.059,0.0,0.01
2.112,-0.024,0.059,0.083,-0.015,-0.054,0.068,0.254,0.268,0.181,0.171,0.107,0.098
2.114,0.034,0.166,0.132,-0.098,-0.049,0.146,0.283,0.395,0.342,0.356,0.283,0.229
2.116,0.122,0.278,0.156,-0.2,-0.02,0.215,0.273,0.498,0.498,0.547,0.464,0.381
2.118,0.234,0.386,0.151,-0.307,0.039,0.268,0.249,0.605,0.654,0.752,0.669,0.556
2.12,0.371,0.522,0.151,-0.444,0.107,0.337,0.229,0.737,0.849,1.005,0.908,0.756
2.122,0.478,0.639,0.161,-0.556,0.156,0.4,0.249,0.874,1.035,1.23,1.132,0.927
2.124,0.571,0.732,0.161,-0.649,0.205,0.444,0.254,0.981,1.205,1.454,1.327,1.078
2.126,0.678,0.82,0.142,-0.747,0.268,0.478,0.166,0.966,1.298,1.61,1.484,1.2
2.128,0.766,0.898,0.132,-0.83,0.317,0.512,-0.005,0.752,1.235,1.664,1.576,1.308
2.13,0.825,0.937,0.112,-0.878,0.356,0.522,-0.205,0.41,1.03,1.586,1.557,1.357
2.132,0.825,0.874,0.049,-0.849,0.386,0.459,-0.342,0.083,0.752,1.381,1.41,1.298
2.134,0.8,0.742,-0.059,-0.771,0.429,0.342,-0.381,-0.137,0.508,1.147,1.186,1.132
2.136,0.717,0.61,-0.107,-0.664,0.41,0.249,-0.342,-0.21,0.395,0.976,0.996,0.976
2.138,0.571,0.508,-0.063,-0.537,0.317,0.22,-0.273,-0.205,0.386,0.883,0.859,0.834
2.14,0.4,0.386,-0.015,-0.39,0.205,0.185,-0.239,-0.283,0.293,0.722,0.669,0.649
2.142,0.239,0.254,0.015,-0.244,0.112,0.132,-0.244,-0.459,0.049,0.444,0.415,0.449
2.144,0.088,0.117,0.029,-0.102,0.029,0.073,-0.273,-0.673,-0.278,0.098,0.142,0.264
2.146,-0.044,-0.024,0.02,0.034,-0.034,-0.005,-0.307,-0.903,-0.62,-0.264,-0.142,0.078
2.148,-0.142,-0.137,0.005,0.142,-0.073,-0.068,-0.317,-1.005,-0.83,-0.478,-0.322,-0.059
2.15,-0.161,-0.21,-0.049,0.185,-0.059,-0.132,-0.298,-0.961,-0.839,-0.532,-0.39,-0.142
2.152,-0.142,-0.268,-0.127,0.205,-0.01,-0.2,-0.317,-0.888,-0.815,-0.532,-0.41,-0.176
2.154,-0.151,-0.307,-0.156,0.229,0.0,-0.234,-0.337,-0.839,-0.8,-0.532,-0.42,-0.205
2.156,-0.156,-0.307,-0.151,0.234,-0.005,-0.229,-0.312,-0.756,-0.727,-0.478,-0.39,-0.2
2.158,-0.137,-0.254,-0.117,0.195,-0.01,-0.185,-0.298,-0.664,-0.639,-0.42,-0.356,-0.185
2.16,-0.117,-0.22,-0.102,0.171,-0.01,-0.161,-0.273,-0.595,-0.571,-0.376,-0.322,-0.171
2.162,-0.102,-0.19,-0.088,0.146,-0.01,-0.142,-0.22,-0.508,-0.503,-0.327,-0.278,-0.146
2.164,-0.083,-0.156,-0.073,0.122,-0.005,-0.117,-0.171,-0.415,-0.42,-0.268,-0.229,-0.122
2.166,-0.078,-0.142,-0.063,0.112,-0.01,-0.102,-0.117,-0.327,-0.342,-0.22,-0.195,-0.107
2.168,-0.093,-0.146,-0.054,0.122,-0.02,-0.102,-0.083,-0.254,-0.293,-0.176,-0.166,-0.098
2.17,-0.083,-0.122,-0.039,0.102,-0.024,-0.083,-0.029,-0.181,-0.234,-0.132,-0.132,-0.068
2.172,-0.049,-0.078,-0.029,0.063,-0.01,-0.054,-0.01,-0.132,-0.181,-0.098,-0.112,-0.049
2.174,-0.049,-0.068,-0.02,0.059,-0.015,-0.044,0.01,-0.107,-0.151,-0.078,-0.093,-0.039
2.176,-0.049,-0.059,-0.01,0.054,-0.02,-0.034,0.029,-0.083,-0.142,-0.054,-0.083,-0.029
2.178,-0.034,-0.049,-0.015,0.044,-0.01,-0.034,0.049,-0.059,-0.117,-0.044,-0.068,-0.02
2.18,-0.039,-0.054,-0.015,0.049,-0.015,-0.034,0.054,-0.059,-0.112,-0.044,-0.068,-0.02
2.182,-0.044,-0.054,-0.01,0.049,-0.02,-0.034,0.049,-0.059,-0.122,-0.044,-0.073,-0.029
2.184,-0.039,-0.049,-0.01,0.044,-0.015,-0.029,0.059,-0.054,-0.122,-0.049,-0.073,-0.029
2.186,-0.039,-0.059,-0.02,0.049,-0.01,-0.039,0.059,-0.049,-0.112,-0.054,-0.083,-0.034
2.188,-0.039,-0.054,-0.015,0.049,-0.015,-0.034,0.059,-0.044,-0.117,-0.049,-0.083,-0.039
2.19,-0.049,-0.054,-0.005,0.054,-0.024,-0.029,0.063,-0.034,-0.112,-0.039,-0.078,-0.039
2.192,-0.049,-0.054,-0.005,0.054,-0.024,-0.029,0.073,-0.02,-0.098,-0.039,-0.073,-0.034
2.194,-0.059,-0.059,0.0,0.059,-0.029,-0.029,0.068,-0.029,-0.093,-0.034,-0.078,-0.039
2.196,-0.063,-0.068,-0.005,0.068,-0.029,-0.039,0.063,-0.034,-0.102,-0.034,-0.068,-0.039
2.198,-0.068,-0.063,0.005,0.068,-0.039,-0.029,0.063,-0.024,-0.093,-0.029,-0.068,-0.024
2.2,-0.049,-0.044,0.005,0.049,-0.029,-0.02,0.059,-0.024,-0.093,-0.034,-0.068,-0.024
2.202,-0.049,-0.044,0.005,0.049,-0.029,-0.02,0.054,-0.034,-0.098,-0.034,-0.073,-0.034
2.204,-0.044,-0.044,0.0,0.044,-0.024,-0.024,0.054,-0.024,-0.102,-0.034,-0.063,-0.024
2.206,-0.059,-0.054,0.005,0.059,-0.034,-0.024,0.059,-0.02,-0.098,-0.039,-0.073,-0.034
2.208,-0.054,-0.044,0.01,0.049,-0.034,-0.02,0.063,-0.015,-0.098,-0.034,-0.073,-0.039
2.21,-0.044,-0.034,0.01,0.039,-0.029,-0.015,0.063,-0.005,-0.098,-0.029,-0.073,-0.039
2.212,-0.039,-0.034,0.005,0.039,-0.024,-0.015,0.073,0.005,-0.088,-0.029,-0.068,-0.029
2.214,-0.044,-0.034,0.01,0.039,-0.029,-0.015,0.068,0.0,-0.083,-0.024,-0.068,-0.034
2.216,-0.054,-0.044,0.01,0.049,-0.034,-0.02,0.068,0.0,-0.083,-0.015,-0.059,-0.029
2.218,-0.063,-0.044,0.02,0.054,-0.044,-0.015,0.059,-0.005,-0.083,-0.024,-0.063,-0.024
2.22,-0.044,-0.039,0.005,0.044,-0.024,-0.02,0.054,-0.01,-0.083,-0.024,-0.059,-0.024
2.222,-0.054,-0.049,0.005,0.054,-0.029,-0.024,0.049,-0.015,-0.088,-0.024,-0.063,-0.029
2.224,-0.059,-0.068,-0.01,0.063,-0.024,-0.039,0.044,-0.01,-0.088,-0.029,-0.063,-0.029
2.226,-0.049,-0.049,0.0,0.049,-0.024,-0.024,0.049,0.0,-0.083,-0.024,-0.068,-0.029
2.228,-0.039,-0.029,0.01,0.034,-0.024,-0.01,0.068,0.015,-0.078,-0.015,-0.054,-0.024
2.23,-0.024,-0.02,0.005,0.024,-0.015,-0.01,0.078,0.024,-0.068,-0.01,-0.049,-0.02
2.232,-0.034,-0.029,0.005,0.034,-0.02,-0.015,0.083,0.029,-0.063,-0.015,-0.049,-0.02
2.234,-0.049,-0.039,0.01,0.044,-0.029,-0.015,0.078,0.024,-0.059,-0.01,-0.054,-0.02
2.236,-0.044,-0.029,0.015,0.039,-0.029,-0.01,0.073,0.024,-0.063,0.0,-0.039,-0.015
2.238,-0.039,-0.029,0.01,0.034,-0.024,-0.01,0.068,0.024,-0.063,-0.005,-0.039,-0.01
2.24,-0.049,-0.039,0.01,0.044,-0.029,-0.015,0.059,0.02,-0.068,-0.005,-0.039,-0.01
2.242,-0.049,-0.034,0.015,0.044,-0.034,-0.01,0.059,0.015,-0.073,-0.005,-0.039,-0.015
2.244,-0.049,-0.034,0.015,0.044,-0.034,-0.01,0.059,0.02,-0.073,-0.015,-0.039,-0.02
2.246,-0.049,-0.039,0.01,0.044,-0.029,-0.015,0.063,0.029,-0.068,-0.015,-0.049,-0.029
2.248,-0.039,-0.024,0.015,0.034,-0.029,-0.005,0.068,0.039,-0.063,-0.005,-0.039,-0.029
2.25,-0.034,-0.02,0.015,0.029,-0.024,-0.005,0.078,0.054,-0.049,0.0,-0.034,-0.02
2.252,-0.024,-0.01,0.015,0.02,-0.02,0.0,0.083,0.063,-0.039,0.015,-0.024,-0.01
2.254,-0.029,-0.02,0.01,0.024,-0.02,-0.005,0.073,0.059,-0.034,0.015,-0.029,-0.015
2.256,-0.044,-0.029,0.015,0.039,-0.029,-0.01,0.068,0.049,-0.039,0.015,-0.024,-0.015
2.258,-0.034,-0.02,0.015,0.029,-0.024,-0.005,0.068,0.059,-0.029,0.02,-0.015,-0.005
2.26,-0.015,-0.005,0.01,0.01,-0.015,0.0,0.068,0.059,-0.034,0.034,-0.01,0.0
2.262,-0.02,-0.01,0.01,0.015,-0.015,0.0,0.063,0.054,-0.034,0.029,-0.02,0.0
2.264,-0.02,-0.015,0.005,0.02,-0.015,-0.005,0.063,0.054,-0.039,0.024,-0.02,-0.005
2.266,-0.034,-0.024,0.01,0.029,-0.024,-0.01,0.063,0.063,-0.039,0.02,-0.02,-0.005
2.268,-0.029,-0.015,0.015,0.024,-0.024,0.0,0.068,0.068,-0.029,0.029,-0.015,-0.005
2.27,0.0,0.0,0.0,0.0,0.0,0.0,0.083,0.083,-0.015,0.049,-0.005,0.005
2.272,-0.005,-0.005,0.0,0.005,-0.005,-0.005,0.088,0.093,-0.005,0.049,0.0,0.01
2.274,-0.015,-0.01,0.005,0.015,-0.01,-0.005,0.083,0.098,0.0,0.054,0.005,0.01
2.276,-0.029,-0.015,0.015,0.024,-0.024,0.0,0.073,0.083,-0.015,0.054,0.0,0.005
2.278,-0.015,-0.01,0.005,0.015,-0.01,-0.005,0.078,0.088,0.0,0.054,0.01,0.02
2.28,0.01,0.005,-0.005,-0.005,0.005,0.0,0.078,0.093,0.005,0.068,0.024,0.024
2.282,0.015,0.015,0.0,-0.015,0.005,0.005,0.073,0.093,0.005,0.068,0.024,0.024
2.284,0.01,0.015,0.005,-0.01,0.0,0.01,0.078,0.098,0.005,0.063,0.02,0.029
2.286,-0.005,-0.005,0.0,0.005,-0.005,-0.005,0.078,0.102,0.01,0.063,0.02,0.029
2.288,-0.015,-0.01,0.005,0.015,-0.01,-0.005,0.078,0.112,0.005,0.068,0.02,0.024
2.29,0.0,0.005,0.005,0.0,-0.005,0.005,0.088,0.127,0.024,0.078,0.024,0.039
2.292,0.005,0.0,-0.005,0.0,0.005,-0.005,0.088,0.127,0.024,0.078,0.029,0.034
2.294,0.005,0.005,0.0,-0.005,0.0,0.0,0.078,0.127,0.029,0.083,0.029,0.034
2.296,0.01,0.01,0.0,-0.01,0.005,0.005,0.078,0.127,0.034,0.093,0.039,0.044
2.298,0.0,0.005,0.005,0.0,-0.005,0.005,0.078,0.132,0.039,0.093,0.044,0.054
2.3,0.024,0.02,-0.005,-0.02,0.015,0.005,0.078,0.132,0.044,0.098,0.054,0.059
2.302,0.02,0.02,0.0,-0.02,0.01,0.01,0.073,0.127,0.039,0.098,0.054,0.059
2.304,0.015,0.02,0.005,-0.015,0.005,0.01,0.083,0.137,0.044,0.102,0.059,0.063
2.306,0.02,0.015,-0.005,-0.015,0.01,0.005,0.078,0.142,0.049,0.093,0.054,0.059
2.308,0.024,0.02,-0.005,-0.02,0.015,0.005,0.078,0.146,0.049,0.098,0.059,0.059
2.31,0.029,0.034,0.005,-0.029,0.01,0.02,0.088,0.161,0.063,0.117,0.068,0.073
2.312,0.024,0.029,0.005,-0.024,0.01,0.015,0.093,0.171,0.073,0.122,0.078,0.073
2.314,0.02,0.029,0.01,-0.024,0.005,0.02,0.088,0.171,0.078,0.127,0.083,0.078
2.316,0.029,0.039,0.01,-0.034,0.01,0.024,0.088,0.171,0.083,0.137,0.088,0.083
2.318,0.049,0.059,0.01,-0.054,0.02,0.034,0.093,0.181,0.093,0.146,0.102,0.098
2.32,0.063,0.068,0.005,-0.063,0.029,0.034,0.083,0.181,0.098,0.151,0.112,0.098
2.322,0.068,0.068,0.0,-0.068,0.034,0.034,0.088,0.19,0.102,0.161,0.117,0.102
2.324,0.049,0.059,0.01,-0.054,0.02,0.034,0.083,0.19,0.102,0.161,0.122,0.107
2.326,0.044,0.049,0.005,-0.044,0.02,0.024,0.078,0.195,0.107,0.156,0.117,0.102
2.328,0.049,0.054,0.005,-0.049,0.02,0.029,0.078,0.2,0.112,0.171,0.132,0.107
2.33,0.039,0.054,0.015,-0.044,0.01,0.034,0.078,0.21,0.117,0.176,0.132,0.112
2.332,0.059,0.068,0.01,-0.063,0.024,0.039,0.088,0.22,0.127,0.181,0.142,0.122
2.334,0.083,0.098,0.015,-0.088,0.034,0.054,0.088,0.234,0.146,0.205,0.166,0.132
2.336,0.093,0.107,0.015,-0.098,0.039,0.059,0.083,0.234,0.151,0.215,0.166,0.142
2.338,0.093,0.112,0.02,-0.102,0.034,0.063,0.093,0.244,0.166,0.22,0.181,0.156
2.34,0.093,0.112,0.02,-0.102,0.034,0.063,0.088,0.244,0.161,0.22,0.185,0.161
2.342,0.117,0.132,0.015,-0.122,0.049,0.073,0.083,0.249,0.171,0.234,0.195,0.171
2.344,0.127,0.142,0.015,-0.132,0.054,0.078,0.088,0.268,0.171,0.234,0.205,0.185
2.346,0.122,0.137,0.015,-0.127,0.054,0.073,0.083,0.268,0.176,0.244,0.2,0.185
2.348,0.117,0.137,0.02,-0.127,0.049,0.078,0.083,0.278,0.185,0.254,0.21,0.19
2.35,0.117,0.142,0.024,-0.127,0.044,0.083,0.088,0.283,0.19,0.259,0.21,0.19
2.352,0.127,0.151,0.024,-0.137,0.049,0.088,0.093,0.293,0.2,0.268,0.22,0.195
2.354,0.127,0.151,0.024,-0.137,0.049,0.088,0.093,0.298,0.215,0.278,0.229,0.2
2.356,0.117,0.142,0.024,-0.127,0.044,0.083,0.083,0.293,0.215,0.283,0.229,0.21
2.358,0.142,0.161,0.02,-0.151,0.059,0.088,0.093,0.303,0.22,0.293,0.244,0.22
2.36,0.166,0.181,0.015,-0.171,0.073,0.098,0.093,0.303,0.229,0.298,0.249,0.229
2.362,0.151,0.176,0.024,-0.161,0.063,0.098,0.078,0.303,0.224,0.293,0.244,0.224
2.364,0.142,0.161,0.02,-0.151,0.059,0.088,0.088,0.307,0.224,0.303,0.259,0.239
2.366,0.161,0.185,0.024,-0.171,0.068,0.102,0.098,0.322,0.239,0.312,0.264,0.244
2.368,0.171,0.19,0.02,-0.181,0.073,0.102,0.098,0.332,0.249,0.322,0.268,0.254
2.37,0.151,0.181,0.029,-0.166,0.059,0.102,0.098,0.342,0.254,0.317,0.268,0.254
2.372,0.156,0.176,0.02,-0.166,0.068,0.098,0.102,0.342,0.249,0.317,0.268,0.254
2.374,0.161,0.185,0.024,-0.171,0.068,0.102,0.098,0.346,0.268,0.322,0.283,0.259
2.376,0.151,0.185,0.034,-0.166,0.059,0.107,0.093,0.346,0.264,0.332,0.288,0.268
2.378,0.181,0.21,0.029,-0.195,0.073,0.117,0.093,0.346,0.264,0.332,0.293,0.268
2.38,0.185,0.215,0.029,-0.2,0.078,0.122,0.098,0.351,0.268,0.342,0.298,0.268
2.382,0.181,0.21,0.029,-0.195,0.073,0.117,0.093,0.346,0.268,0.337,0.293,0.264
2.384,0.195,0.224,0.029,-0.21,0.083,0.127,0.102,0.351,0.268,0.337,0.298,0.273
2.386,0.215,0.244,0.029,-0.229,0.093,0.137,0.102,0.361,0.278,0.342,0.298,0.278
2.388,0.2,0.229,0.029,-0.215,0.083,0.127,0.102,0.361,0.278,0.342,0.298,0.278
2.39,0.181,0.215,0.034,-0.195,0.073,0.122,0.102,0.366,0.273,0.337,0.293,0.273
2.392,0.171,0.205,0.034,-0.185,0.068,0.117,0.107,0.371,0.273,0.332,0.293,0.268
2.394,0.161,0.21,0.049,-0.185,0.054,0.127,0.098,0.366,0.283,0.332,0.293,0.264
2.396,0.176,0.229,0.054,-0.2,0.059,0.142,0.112,0.371,0.288,0.351,0.307,0.278
2.398,0.19,0.234,0.044,-0.21,0.073,0.137,0.112,0.371,0.283,0.342,0.303,0.278
2.4,0.19,0.229,0.039,-0.21,0.073,0.132,0.112,0.361,0.283,0.337,0.303,0.278
2.402,0.181,0.224,0.044,-0.2,0.068,0.132,0.102,0.351,0.273,0.327,0.293,0.268
2.404,0.166,0.205,0.039,-0.185,0.063,0.122,0.102,0.351,0.259,0.317,0.278,0.268
2.406,0.166,0.21,0.044,-0.185,0.059,0.127,0.107,0.356,0.259,0.307,0.268,0.259
2.408,0.151,0.195,0.044,-0.171,0.054,0.117,0.112,0.351,0.259,0.307,0.268,0.254
2.41,0.142,0.195,0.054,-0.166,0.044,0.122,0.117,0.346,0.254,0.307,0.268,0.254
2.412,0.151,0.2,0.049,-0.176,0.049,0.122,0.122,0.351,0.254,0.303,0.264,0.244
2.414,0.151,0.195,0.044,-0.171,0.054,0.117,0.117,0.342,0.254,0.298,0.264,0.239
2.416,0.146,0.19,0.044,-0.166,0.049,0.117,0.117,0.327,0.244,0.293,0.259,0.239
2.418,0.137,0.19,0.054,-0.161,0.039,0.122,0.122,0.327,0.239,0.288,0.254,0.234
2.42,0.117,0.181,0.063,-0.146,0.024,0.122,0.112,0.312,0.234,0.273,0.244,0.224
2.422,0.112,0.166,0.054,-0.137,0.029,0.107,0.102,0.293,0.21,0.259,0.229,0.21
2.424,0.102,0.146,0.044,-0.122,0.029,0.093,0.102,0.283,0.195,0.244,0.215,0.2
2.426,0.098,0.142,0.044,-0.117,0.024,0.093,0.107,0.278,0.19,0.234,0.2,0.195
2.428,0.107,0.156,0.049,-0.132,0.029,0.102,0.098,0.264,0.181,0.229,0.19,0.181
2.43,0.112,0.161,0.049,-0.137,0.029,0.102,0.107,0.268,0.176,0.224,0.195,0.181
2.432,0.107,0.156,0.049,-0.132,0.029,0.102,0.098,0.249,0.161,0.205,0.181,0.166
2.434,0.088,0.137,0.049,-0.112,0.02,0.093,0.098,0.234,0.161,0.195,0.171,0.156
2.436,0.063,0.122,0.059,-0.093,0.0,0.088,0.098,0.224,0.146,0.19,0.156,0.151
2.438,0.054,0.112,0.059,-0.083,-0.005,0.083,0.088,0.21,0.137,0.176,0.142,0.142
2.44,0.044,0.093,0.049,-0.068,-0.005,0.068,0.083,0.19,0.122,0.161,0.132,0.127
2.442,0.034,0.078,0.044,-0.054,-0.005,0.059,0.078,0.171,0.098,0.146,0.122,0.112
2.444,0.044,0.088,0.044,-0.063,0.0,0.063,0.083,0.161,0.083,0.137,0.112,0.107
2.446,0.024,0.073,0.049,-0.049,-0.015,0.059,0.083,0.151,0.083,0.122,0.098,0.098
2.448,0.01,0.059,0.049,-0.034,-0.02,0.054,0.078,0.137,0.063,0.107,0.088,0.083
2.45,0.01,0.054,0.044,-0.029,-0.02,0.049,0.078,0.122,0.049,0.098,0.078,0.073
2.452,0.005,0.044,0.039,-0.024,-0.02,0.039,0.068,0.112,0.039,0.078,0.059,0.059
2.454,0.02,0.054,0.034,-0.034,-0.01,0.044,0.073,0.102,0.039,0.083,0.059,0.059
2.456,0.015,0.049,0.034,-0.029,-0.01,0.039,0.063,0.088,0.02,0.068,0.049,0.059
2.458,0.0,0.034,0.034,-0.015,-0.02,0.034,0.049,0.068,0.0,0.049,0.034,0.044
2.46,-0.01,0.02,0.029,-0.005,-0.02,0.024,0.049,0.059,-0.005,0.044,0.034,0.039
2.462,-0.01,0.015,0.024,0.0,-0.02,0.02,0.044,0.039,-0.024,0.029,0.02,0.029
2.464,-0.005,0.01,0.015,0.0,-0.01,0.01,0.039,0.029,-0.039,0.02,0.005,0.024
2.466,-0.01,0.0,0.01,0.005,-0.01,0.005,0.044,0.029,-0.044,0.015,0.0,0.015
2.468,-0.02,-0.005,0.015,0.015,-0.02,0.005,0.039,0.02,-0.054,0.0,-0.01,0.005
2.47,-0.024,-0.005,0.02,0.015,-0.024,0.005,0.044,0.015,-0.059,-0.005,-0.015,-0.005
2.472,-0.049,-0.029,0.02,0.039,-0.034,-0.005,0.039,0.015,-0.059,-0.015,-0.02,-0.01
2.474,-0.078,-0.049,0.029,0.063,-0.054,-0.01,0.034,0.0,-0.068,-0.02,-0.029,-0.02
2.476,-0.059,-0.039,0.02,0.049,-0.039,-0.01,0.034,-0.005,-0.073,-0.02,-0.024,-0.015
2.478,-0.039,-0.02,0.02,0.029,-0.029,0.0,0.029,-0.01,-0.078,-0.024,-0.029,-0.015
2.48,-0.015,-0.005,0.01,0.01,-0.015,0.0,0.034,-0.01,-0.068,-0.015,-0.02,-0.005
2.482,-0.015,-0.005,0.01,0.01,-0.015,0.0,0.034,-0.02,-0.083,-0.02,-0.024,-0.01
2.484,-0.044,-0.034,0.01,0.039,-0.029,-0.015,0.024,-0.029,-0.098,-0.034,-0.044,-0.02
2.486,-0.054,-0.044,0.01,0.049,-0.034,-0.02,0.02,-0.029,-0.098,-0.049,-0.049,-0.029
2.488,-0.054,-0.054,0.0,0.054,-0.029,-0.029,0.01,-0.039,-0.107,-0.054,-0.054,-0.034
2.49,-0.059,-0.049,0.01,0.054,-0.034,-0.02,0.02,-0.029,-0.107,-0.054,-0.054,-0.034
2.492,-0.044,-0.034,0.01,0.039,-0.029,-0.015,0.024,-0.024,-0.098,-0.049,-0.049,-0.029
2.494,-0.049,-0.034,0.015,0.044,-0.034,-0.01,0.02,-0.034,-0.098,-0.049,-0.054,-0.034
2.496,-0.049,-0.034,0.015,0.044,-0.034,-0.01,0.024,-0.029,-0.102,-0.049,-0.049,-0.029
2.498,-0.063,-0.039,0.024,0.054,-0.044,-0.01,0.02,-0.029,-0.102,-0.049,-0.049,-0.029
2.5,-0.063,-0.044,0.02,0.054,-0.044,-0.015,0.02,-0.039,-0.107,-0.054,-0.054,-0.034
2.502,-0.063,-0.044,0.02,0.054,-0.044,-0.015,0.02,-0.044,-0.112,-0.054,-0.054,-0.034
2.504,-0.063,-0.049,0.015,0.059,-0.039,-0.02,0.02,-0.039,-0.117,-0.054,-0.059,-0.034
2.506,-0.049,-0.034,0.015,0.044,-0.034,-0.01,0.029,-0.034,-0.107,-0.054,-0.054,-0.034
2.508,-0.024,-0.024,0.0,0.024,-0.015,-0.015,0.034,-0.029,-0.107,-0.054,-0.049,-0.034
2.51,-0.049,-0.044,0.005,0.049,-0.029,-0.02,0.034,-0.029,-0.112,-0.054,-0.054,-0.039
2.512,-0.059,-0.059,0.0,0.059,-0.029,-0.029,0.024,-0.034,-0.107,-0.068,-0.063,-0.044
2.514,-0.059,-0.054,0.005,0.059,-0.034,-0.024,0.024,-0.039,-0.107,-0.063,-0.059,-0.049
2.516,-0.054,-0.049,0.005,0.054,-0.029,-0.024,0.02,-0.039,-0.117,-0.063,-0.063,-0.044
2.518,-0.059,-0.049,0.01,0.054,-0.034,-0.02,0.029,-0.034,-0.107,-0.059,-0.059,-0.039
2.52,-0.063,-0.059,0.005,0.063,-0.034,-0.029,0.024,-0.039,-0.107,-0.059,-0.063,-0.039
2.522,-0.059,-0.044,0.015,0.054,-0.039,-0.015,0.02,-0.039,-0.112,-0.059,-0.063,-0.039
2.524,-0.059,-0.054,0.005,0.059,-0.034,-0.024,0.024,-0.034,-0.117,-0.063,-0.063,-0.039
2.526,-0.073,-0.059,0.015,0.068,-0.044,-0.024,0.02,-0.034,-0.112,-0.068,-0.068,-0.049
2.528,-0.073,-0.063,0.01,0.068,-0.044,-0.029,0.029,-0.024,-0.107,-0.059,-0.059,-0.049
2.53,-0.083,-0.073,0.01,0.078,-0.049,-0.034,0.029,-0.029,-0.117,-0.063,-0.068,-0.059
2.532,-0.073,-0.063,0.01,0.068,-0.044,-0.029,0.029,-0.024,-0.112,-0.063,-0.068,-0.059
2.534,-0.059,-0.044,0.015,0.054,-0.039,-0.015,0.039,-0.02,-0.098,-0.049,-0.059,-0.049
2.536,-0.044,-0.029,0.015,0.039,-0.029,-0.01,0.044,-0.015,-0.098,-0.044,-0.049,-0.039
2.538,-0.039,-0.029,0.01,0.034,-0.024,-0.01,0.044,-0.015,-0.098,-0.049,-0.054,-0.039
2.54,-0.054,-0.044,0.01,0.049,-0.034,-0.02,0.034,-0.024,-0.098,-0.059,-0.059,-0.044
2.542,-0.063,-0.054,0.01,0.059,-0.039,-0.024,0.034,-0.029,-0.107,-0.063,-0.059,-0.044
2.544,-0.059,-0.054,0.005,0.059,-0.034,-0.024,0.029,-0.024,-0.112,-0.059,-0.059,-0.044
2.546,-0.054,-0.049,0.005,0.054,-0.029,-0.024,0.029,-0.02,-0.102,-0.059,-0.059,-0.049
2.548,-0.054,-0.049,0.005,0.054,-0.029,-0.024,0.039,-0.015,-0.098,-0.054,-0.054,-0.044
2.55,-0.059,-0.049,0.01,0.054,-0.034,-0.02,0.039,-0.01,-0.098,-0.049,-0.054,-0.044
2.552,-0.068,-0.059,0.01,0.063,-0.039,-0.024,0.034,-0.01,-0.093,-0.059,-0.059,-0.049
2.554,-0.068,-0.054,0.015,0.063,-0.044,-0.02,0.034,-0.015,-0.088,-0.054,-0.054,-0.054
2.556,-0.054,-0.044,0.01,0.049,-0.034,-0.02,0.034,-0.02,-0.093,-0.059,-0.049,-0.049
2.558,-0.063,-0.054,0.01,0.059,-0.039,-0.024,0.029,-0.015,-0.093,-0.054,-0.049,-0.044
2.56,-0.063,-0.054,0.01,0.059,-0.039,-0.024,0.034,-0.02,-0.093,-0.054,-0.054,-0.044
2.562,-0.054,-0.054,0.0,0.054,-0.029,-0.029,0.029,-0.029,-0.098,-0.063,-0.054,-0.049
2.564,-0.059,-0.059,0.0,0.059,-0.029,-0.029,0.029,-0.02,-0.102,-0.059,-0.059,-0.044
2.566,-0.059,-0.059,0.0,0.059,-0.029,-0.029,0.029,-0.024,-0.093,-0.063,-0.059,-0.054
2.568,-0.059,-0.049,0.01,0.054,-0.034,-0.02,0.029,-0.024,-0.093,-0.063,-0.059,-0.054
2.57,-0.063,-0.044,0.02,0.054,-0.044,-0.015,0.034,-0.015,-0.093,-0.059,-0.054,-0.049
2.572,-0.063,-0.049,0.015,0.059,-0.039,-0.02,0.034,-0.01,-0.088,-0.059,-0.054,-0.049
2.574,-0.083,-0.063,0.02,0.073,-0.054,-0.024,0.029,-0.02,-0.083,-0.059,-0.054,-0.049
2.576,-0.083,-0.059,0.024,0.073,-0.054,-0.02,0.029,-0.02,-0.088,-0.059,-0.049,-0.049
2.578,-0.059,-0.044,0.015,0.054,-0.039,-0.015,0.034,-0.01,-0.078,-0.049,-0.034,-0.039
2.58,-0.044,-0.034,0.01,0.039,-0.029,-0.015,0.029,-0.02,-0.078,-0.049,-0.034,-0.044
2.582,-0.054,-0.039,0.015,0.049,-0.034,-0.015,0.02,-0.029,-0.088,-0.054,-0.039,-0.049
2.584,-0.059,-0.054,0.005,0.059,-0.034,-0.024,0.02,-0.029,-0.098,-0.059,-0.044,-0.049
2.586,-0.059,-0.059,0.0,0.059,-0.029,-0.029,0.024,-0.024,-0.093,-0.054,-0.039,-0.049
2.588,-0.059,-0.063,-0.005,0.063,-0.029,-0.034,0.024,-0.029,-0.093,-0.059,-0.049,-0.054
2.59,-0.059,-0.063,-0.005,0.063,-0.029,-0.034,0.02,-0.029,-0.093,-0.068,-0.049,-0.054
2.592,-0.063,-0.063,0.0,0.063,-0.034,-0.034,0.015,-0.024,-0.098,-0.063,-0.049,-0.059
2.594,-0.073,-0.063,0.01,0.068,-0.044,-0.029,0.015,-0.034,-0.088,-0.063,-0.044,-0.059
2.596,-0.063,-0.054,0.01,0.059,-0.039,-0.024,0.02,-0.029,-0.093,-0.059,-0.044,-0.049
2.598,-0.049,-0.034,0.015,0.044,-0.034,-0.01,0.02,-0.024,-0.088,-0.054,-0.034,-0.044
2.6,-0.044,-0.029,0.015,0.039,-0.029,-0.01,0.024,-0.029,-0.093,-0.054,-0.029,-0.039
2.602,-0.049,-0.034,0.015,0.044,-0.034,-0.01,0.015,-0.044,-0.093,-0.063,-0.044,-0.044
2.604,-0.049,-0.039,0.01,0.044,-0.029,-0.015,0.02,-0.034,-0.098,-0.059,-0.044,-0.039
2.606,-0.039,-0.044,-0.005,0.044,-0.02,-0.024,0.015,-0.044,-0.098,-0.063,-0.049,-0.054
2.608,-0.039,-0.039,0.0,0.039,-0.02,-0.02,0.015,-0.044,-0.098,-0.063,-0.049,-0.054
2.61,-0.049,-0.049,0.0,0.049,-0.024,-0.024,0.005,-0.044,-0.098,-0.068,-0.054,-0.054
2.612,-0.054,-0.054,0.0,0.054,-0.029,-0.029,0.005,-0.044,-0.102,-0.068,-0.054,-0.059
2.614,-0.054,-0.054,0.0,0.054,-0.029,-0.029,0.0,-0.054,-0.102,-0.073,-0.054,-0.059
2.616,-0.054,-0.059,-0.005,0.059,-0.024,-0.034,0.0,-0.059,-0.107,-0.078,-0.054,-0.059
2.618,-0.039,-0.039,0.0,0.039,-0.02,-0.02,0.0,-0.049,-0.098,-0.073,-0.044,-0.049
2.62,-0.054,-0.044,0.01,0.049,-0.034,-0.02,0.005,-0.054,-0.102,-0.068,-0.044,-0.044
2.622,-0.068,-0.054,0.015,0.063,-0.044,-0.02,0.0,-0.063,-0.102,-0.073,-0.049,-0.049
2.624,-0.078,-0.059,0.02,0.068,-0.049,-0.02,0.005,-0.063,-0.107,-0.068,-0.044,-0.044
2.626,-0.068,-0.054,0.015,0.063,-0.044,-0.02,0.005,-0.054,-0.102,-0.068,-0.044,-0.049
2.628,-0.054,-0.044,0.01,0.049,-0.034,-0.02,0.01,-0.054,-0.102,-0.068,-0.044,-0.049
2.63,-0.054,-0.044,0.01,0.049,-0.034,-0.02,0.01,-0.054,-0.098,-0.073,-0.049,-0.049
2.632,-0.063,-0.054,0.01,0.059,-0.039,-0.024,0.005,-0.054,-0.107,-0.073,-0.059,-0.059
2.634,-0.073,-0.054,0.02,0.063,-0.049,-0.02,0.005,-0.059,-0.102,-0.073,-0.059,-0.059
2.636,-0.068,-0.059,0.01,0.063,-0.039,-0.024,0.0,-0.063,-0.112,-0.078,-0.059,-0.059
2.638,-0.063,-0.059,0.005,0.063,-0.034,-0.029,0.0,-0.063,-0.107,-0.078,-0.054,-0.054
2.64,-0.044,-0.044,0.0,0.044,-0.024,-0.024,0.005,-0.063,-0.112,-0.083,-0.054,-0.049
2.642,-0.049,-0.049,0.0,0.049,-0.024,-0.024,0.0,-0.068,-0.112,-0.088,-0.059,-0.054
2.644,-0.054,-0.063,-0.01,0.059,-0.024,-0.039,0.0,-0.068,-0.117,-0.088,-0.059,-0.054
2.646,-0.049,-0.054,-0.005,0.054,-0.024,-0.029,0.0,-0.068,-0.112,-0.088,-0.059,-0.054
2.648,-0.049,-0.054,-0.005,0.054,-0.024,-0.029,0.005,-0.073,-0.117,-0.088,-0.063,-0.054
2.65,-0.044,-0.049,-0.005,0.049,-0.02,-0.029,0.005,-0.063,-0.112,-0.088,-0.059,-0.054
2.652,-0.049,-0.054,-0.005,0.054,-0.024,-0.029,0.005,-0.059,-0.112,-0.083,-0.063,-0.054
2.654,-0.054,-0.059,-0.005,0.059,-0.024,-0.034,0.0,-0.068,-0.112,-0.088,-0.063,-0.059
2.656,-0.059,-0.063,-0.005,0.063,-0.029,-0.034,-0.005,-0.073,-0.117,-0.093,-0.068,-0.068
2.658,-0.073,-0.078,-0.005,0.078,-0.034,-0.044,-0.015,-0.078,-0.127,-0.098,-0.068,-0.068
2.66,-0.083,-0.083,0.0,0.083,-0.044,-0.044,-0.005,-0.078,-0.117,-0.088,-0.063,-0.063
2.662,-0.059,-0.068,-0.01,0.063,-0.024,-0.039,0.0,-0.078,-0.112,-0.088,-0.063,-0.063
2.664,-0.059,-0.068,-0.01,0.063,-0.024,-0.039,0.005,-0.073,-0.117,-0.088,-0.059,-0.054
2.666,-0.054,-0.059,-0.005,0.059,-0.024,-0.034,0.005,-0.068,-0.107,-0.088,-0.059,-0.054
2.668,-0.054,-0.059,-0.005,0.059,-0.024,-0.034,0.005,-0.068,-0.102,-0.088,-0.054,-0.049
2.67,-0.054,-0.063,-0.01,0.059,-0.024,-0.039,-0.005,-0.073,-0.117,-0.098,-0.068,-0.063
2.672,-0.044,-0.063,-0.02,0.054,-0.015,-0.044,-0.01,-0.078,-0.122,-0.102,-0.073,-0.073
2.674,-0.054,-0.063,-0.01,0.059,-0.024,-0.039,-0.01,-0.083,-0.112,-0.102,-0.068,-0.073
2.676,-0.059,-0.068,-0.01,0.063,-0.024,-0.039,-0.005,-0.078,-0.117,-0.098,-0.063,-0.068
2.678,-0.059,-0.068,-0.01,0.063,-0.024,-0.039,-0.01,-0.083,-0.122,-0.102,-0.068,-0.068
2.68,-0.078,-0.088,-0.01,0.083,-0.034,-0.049,-0.015,-0.088,-0.127,-0.102,-0.068,-0.073
2.682,-0.078,-0.078,0.0,0.078,-0.039,-0.039,-0.02,-0.107,-0.137,-0.112,-0.073,-0.083
2.684,-0.068,-0.063,0.005,0.068,-0.039,-0.029,-0.015,-0.098,-0.132,-0.107,-0.073,-0.078
2.686,-0.059,-0.068,-0.01,0.063,-0.024,-0.039,-0.01,-0.093,-0.127,-0.107,-0.073,-0.073
2.688,-0.063,-0.073,-0.01,0.068,-0.029,-0.044,-0.015,-0.093,-0.132,-0.107,-0.073,-0.073
2.69,-0.054,-0.059,-0.005,0.059,-0.024,-0.034,-0.005,-0.083,-0.122,-0.112,-0.068,-0.073
2.692,-0.054,-0.049,0.005,0.054,-0.029,-0.024,0.0,-0.078,-0.117,-0.107,-0.068,-0.068
2.694,-0.054,-0.049,0.005,0.054,-0.029,-0.024,0.0,-0.083,-0.112,-0.107,-0.063,-0.068
2.696,-0.054,-0.059,-0.005,0.059,-0.024,-0.034,-0.005,-0.088,-0.122,-0.112,-0.068,-0.068
2.698,-0.054,-0.063,-0.01,0.059,-0.024,-0.039,-0.015,-0.093,-0.122,-0.117,-0.073,-0.073
2.7,-0.063,-0.073,-0.01,0.068,-0.029,-0.044,-0.02,-0.102,-0.127,-0.122,-0.078,-0.078
2.702,-0.054,-0.068,-0.015,0.063,-0.02,-0.044,-0.02,-0.107,-0.132,-0.117,-0.078,-0.078
2.704,-0.054,-0.068,-0.015,0.063,-0.02,-0.044,-0.02,-0.102,-0.132,-0.122,-0.078,-0.083
2.706,-0.063,-0.063,0.0,0.063,-0.034,-0.034,-0.02,-0.098,-0.127,-0.122,-0.078,-0.088
2.708,-0.054,-0.063,-0.01,0.059,-0.024,-0.039,-0.015,-0.093,-0.122,-0.112,-0.068,-0.078
2.71,-0.049,-0.059,-0.01,0.054,-0.02,-0.034,-0.015,-0.093,-0.132,-0.122,-0.083,-0.083
2.712,-0.063,-0.073,-0.01,0.068,-0.029,-0.044,-0.02,-0.093,-0.132,-0.127,-0.088,-0.088
2.714,-0.073,-0.063,0.01,0.068,-0.044,-0.029,-0.015,-0.098,-0.127,-0.122,-0.083,-0.088
2.716,-0.068,-0.068,0.0,0.068,-0.034,-0.034,-0.015,-0.093,-0.122,-0.117,-0.078,-0.078
2.718,-0.078,-0.068,0.01,0.073,-0.044,-0.029,-0.02,-0.098,-0.137,-0.127,-0.083,-0.083
2.72,-0.073,-0.073,0.0,0.073,-0.039,-0.039,-0.02,-0.102,-0.137,-0.127,-0.088,-0.083
2.722,-0.063,-0.073,-0.01,0.068,-0.029,-0.044,-0.02,-0.107,-0.137,-0.122,-0.083,-0.083
2.724,-0.054,-0.063,-0.01,0.059,-0.024,-0.039,-0.02,-0.098,-0.132,-0.122,-0.083,-0.083
2.726,-0.054,-0.054,0.0,0.054,-0.029,-0.029,-0.02,-0.102,-0.132,-0.122,-0.088,-0.088
2.728,-0.068,-0.068,0.0,0.068,-0.034,-0.034,-0.024,-0.102,-0.137,-0.127,-0.088,-0.093
2.73,-0.073,-0.078,-0.005,0.078,-0.034,-0.044,-0.02,-0.093,-0.127,-0.122,-0.088,-0.093
2.732,-0.083,-0.083,0.0,0.083,-0.044,-0.044,-0.024,-0.093,-0.127,-0.132,-0.083,-0.093
2.734,-0.078,-0.083,-0.005,0.083,-0.039,-0.044,-0.029,-0.107,-0.137,-0.137,-0.088,-0.102
2.736,-0.059,-0.054,0.005,0.059,-0.034,-0.024,-0.024,-0.102,-0.132,-0.132,-0.078,-0.093
2.738,-0.044,-0.049,-0.005,0.049,-0.02,-0.029,-0.02,-0.098,-0.117,-0.117,-0.068,-0.083
2.74,-0.039,-0.059,-0.02,0.049,-0.01,-0.039,-0.02,-0.098,-0.112,-0.117,-0.063,-0.078
2.742,-0.054,-0.068,-0.015,0.063,-0.02,-0.044,-0.015,-0.098,-0.117,-0.112,-0.063,-0.078
2.744,-0.063,-0.059,0.005,0.063,-0.034,-0.029,-0.024,-0.102,-0.127,-0.127,-0.078,-0.088
2.746,-0.059,-0.049,0.01,0.054,-0.034,-0.02,-0.02,-0.098,-0.117,-0.122,-0.073,-0.088
2.748,-0.054,-0.044,0.01,0.049,-0.034,-0.02,-0.015,-0.093,-0.112,-0.117,-0.068,-0.083
2.75,-0.049,-0.024,0.024,0.039,-0.039,0.0,-0.015,-0.093,-0.112,-0.117,-0.068,-0.088
2.752,-0.044,-0.039,0.005,0.044,-0.024,-0.02,-0.01,-0.083,-0.102,-0.107,-0.063,-0.083
2.754,-0.044,-0.029,0.015,0.039,-0.029,-0.01,-0.01,-0.088,-0.093,-0.112,-0.059,-0.078
2.756,-0.034,-0.01,0.024,0.024,-0.029,0.005,-0.005,-0.083,-0.093,-0.107,-0.054,-0.073
2.758,-0.039,-0.01,0.029,0.024,-0.034,0.01,-0.01,-0.083,-0.098,-0.107,-0.054,-0.068
2.76,-0.044,-0.015,0.029,0.029,-0.039,0.005,-0.02,-0.093,-0.107,-0.112,-0.054,-0.073
2.762,-0.054,-0.01,0.044,0.034,-0.049,0.015,-0.01,-0.093,-0.107,-0.107,-0.049,-0.068
2.764,-0.059,-0.02,0.039,0.039,-0.049,0.01,-0.005,-0.088,-0.098,-0.107,-0.054,-0.063
2.766,-0.063,-0.015,0.049,0.039,-0.059,0.015,-0.005,-0.088,-0.098,-0.107,-0.054,-0.073
2.768,-0.054,-0.005,0.049,0.029,-0.054,0.02,-0.005,-0.088,-0.102,-0.112,-0.059,-0.073
2.77,-0.073,-0.01,0.063,0.044,-0.068,0.024,0.01,-0.078,-0.098,-0.107,-0.054,-0.068
2.772,-0.068,0.0,0.068,0.034,-0.068,0.034,0.015,-0.063,-0.078,-0.098,-0.049,-0.073
2.774,-0.059,0.01,0.068,0.024,-0.063,0.039,0.015,-0.068,-0.078,-0.098,-0.044,-0.068
2.776,-0.054,0.005,0.059,0.024,-0.059,0.029,0.02,-0.063,-0.073,-0.098,-0.044,-0.063
2.778,-0.044,0.02,0.063,0.015,-0.054,0.039,0.024,-0.059,-0.068,-0.093,-0.034,-0.059
2.78,-0.039,0.02,0.059,0.01,-0.049,0.039,0.01,-0.063,-0.068,-0.093,-0.034,-0.054
2.782,-0.039,0.015,0.054,0.015,-0.049,0.034,0.005,-0.073,-0.078,-0.093,-0.039,-0.059
2.784,-0.044,0.0,0.044,0.024,-0.044,0.02,-0.005,-0.073,-0.078,-0.098,-0.044,-0.063
2.786,-0.044,-0.02,0.024,0.034,-0.034,0.0,-0.015,-0.073,-0.078,-0.098,-0.044,-0.059
2.788,-0.044,-0.034,0.01,0.039,-0.029,-0.015,-0.029,-0.083,-0.093,-0.107,-0.054,-0.068
2.79,-0.044,-0.039,0.005,0.044,-0.024,-0.02,-0.034,-0.078,-0.088,-0.107,-0.054,-0.068
2.792,-0.01,-0.01,0.0,0.01,-0.005,-0.005,-0.029,-0.073,-0.073,-0.093,-0.039,-0.054
2.794,0.005,-0.01,-0.015,0.005,0.01,-0.015,-0.029,-0.078,-0.078,-0.093,-0.039,-0.059
2.796,0.0,-0.015,-0.015,0.01,0.005,-0.015,-0.039,-0.088,-0.088,-0.098,-0.044,-0.063
2.798,0.0,-0.01,-0.01,0.005,0.005,-0.01,-0.044,-0.088,-0.078,-0.098,-0.039,-0.054
2.8,0.005,0.0,-0.005,0.0,0.005,-0.005,-0.044,-0.083,-0.078,-0.093,-0.034,-0.049
2.802,-0.005,-0.015,-0.01,0.01,0.0,-0.015,-0.049,-0.098,-0.088,-0.098,-0.039,-0.054
2.804,-0.015,-0.039,-0.024,0.029,0.005,-0.034,-0.059,-0.107,-0.102,-0.112,-0.049,-0.063
2.806,-0.015,-0.049,-0.034,0.034,0.01,-0.044,-0.063,-0.112,-0.107,-0.117,-0.059,-0.073
2.808,-0.01,-0.044,-0.034,0.029,0.01,-0.039,-0.063,-0.117,-0.112,-0.127,-0.063,-0.078
2.81,0.015,-0.024,-0.039,0.005,0.024,-0.034,-0.073,-0.127,-0.117,-0.132,-0.068,-0.078
2.812,0.005,-0.039,-0.044,0.02,0.024,-0.044,-0.078,-0.137,-0.127,-0.137,-0.068,-0.073
2.814,-0.005,-0.049,-0.044,0.029,0.02,-0.049,-0.083,-0.142,-0.142,-0.137,-0.073,-0.083
2.816,0.0,-0.044,-0.044,0.024,0.02,-0.044,-0.088,-0.146,-0.142,-0.142,-0.073,-0.083
2.818,0.005,-0.034,-0.039,0.015,0.02,-0.039,-0.088,-0.146,-0.132,-0.137,-0.063,-0.078
2.82,0.015,-0.024,-0.039,0.005,0.024,-0.034,-0.078,-0.137,-0.127,-0.132,-0.054,-0.068
2.822,0.02,-0.034,-0.054,0.01,0.034,-0.044,-0.073,-0.137,-0.122,-0.132,-0.059,-0.068
2.824,0.024,-0.029,-0.054,0.005,0.039,-0.044,-0.068,-0.122,-0.117,-0.127,-0.054,-0.063
2.826,0.029,-0.024,-0.054,0.0,0.039,-0.039,-0.063,-0.117,-0.107,-0.122,-0.049,-0.059
2.828,0.024,-0.024,-0.049,0.0,0.034,-0.039,-0.063,-0.112,-0.107,-0.117,-0.044,-0.059
2.83,0.024,-0.015,-0.039,-0.005,0.029,-0.029,-0.063,-0.112,-0.107,-0.117,-0.044,-0.049
2.832,0.0,-0.029,-0.029,0.015,0.015,-0.029,-0.068,-0.117,-0.112,-0.122,-0.044,-0.059
2.834,-0.02,-0.039,-0.02,0.029,0.0,-0.029,-0.073,-0.127,-0.117,-0.122,-0.044,-0.059
2.836,-0.01,-0.029,-0.02,0.02,0.005,-0.024,-0.063,-0.127,-0.107,-0.117,-0.044,-0.049
2.838,-0.015,-0.039,-0.024,0.029,0.005,-0.034,-0.073,-0.137,-0.112,-0.122,-0.049,-0.063
2.84,-0.029,-0.054,-0.024,0.044,-0.005,-0.039,-0.068,-0.137,-0.117,-0.132,-0.054,-0.068
2.842,-0.034,-0.063,-0.029,0.049,-0.005,-0.049,-0.059,-0.137,-0.112,-0.132,-0.059,-0.068
2.844,-0.039,-0.059,-0.02,0.049,-0.01,-0.039,-0.068,-0.132,-0.117,-0.132,-0.063,-0.073
2.846,-0.054,-0.068,-0.015,0.063,-0.02,-0.044,-0.068,-0.137,-0.112,-0.137,-0.068,-0.078
2.848,-0.054,-0.073,-0.02,0.063,-0.02,-0.049,-0.063,-0.146,-0.127,-0.146,-0.078,-0.093
2.85,-0.068,-0.088,-0.02,0.078,-0.024,-0.054,-0.063,-0.146,-0.127,-0.156,-0.093,-0.102
2.852,-0.063,-0.083,-0.02,0.073,-0.024,-0.054,-0.059,-0.146,-0.132,-0.156,-0.098,-0.102
2.854,-0.054,-0.078,-0.024,0.068,-0.015,-0.054,-0.049,-0.142,-0.127,-0.156,-0.088,-0.107
2.856,-0.044,-0.073,-0.029,0.059,-0.01,-0.054,-0.049,-0.142,-0.132,-0.161,-0.093,-0.107
2.858,-0.054,-0.093,-0.039,0.073,-0.01,-0.068,-0.054,-0.151,-0.137,-0.166,-0.098,-0.117
2.86,-0.068,-0.112,-0.044,0.093,-0.015,-0.078,-0.054,-0.156,-0.146,-0.181,-0.107,-0.132
2.862,-0.068,-0.102,-0.034,0.088,-0.02,-0.068,-0.054,-0.161,-0.146,-0.185,-0.112,-0.132
2.864,-0.083,-0.112,-0.029,0.098,-0.029,-0.073,-0.054,-0.151,-0.151,-0.185,-0.112,-0.132
2.866,-0.078,-0.117,-0.039,0.098,-0.02,-0.078,-0.059,-0.156,-0.156,-0.195,-0.127,-0.146
2.868,-0.059,-0.102,-0.044,0.083,-0.01,-0.073,-0.049,-0.151,-0.142,-0.185,-0.122,-0.142
2.87,-0.063,-0.102,-0.039,0.083,-0.015,-0.073,-0.044,-0.151,-0.142,-0.185,-0.122,-0.142
2.872,-0.073,-0.112,-0.039,0.093,-0.02,-0.078,-0.044,-0.146,-0.137,-0.176,-0.117,-0.132
2.874,-0.073,-0.107,-0.034,0.093,-0.02,-0.073,-0.044,-0.151,-0.142,-0.181,-0.122,-0.137
2.876,-0.078,-0.112,-0.034,0.098,-0.024,-0.073,-0.044,-0.151,-0.142,-0.181,-0.117,-0.137
