time,I,II,III,aVR,aVL,aVF,V1,V2,V3,V4,V5,V6
0.0,-0.059,-0.059,0.0,0.059,-0.029,-0.029,0.059,0.137,0.01,0.02,0.054,0.127
0.002,-0.073,-0.068,0.005,0.073,-0.039,-0.034,0.059,0.146,0.015,0.02,0.049,0.132
0.004,-0.059,-0.044,0.015,0.054,-0.039,-0.015,0.059,0.142,0.01,0.015,0.034,0.107
0.006,-0.054,0.01,0.063,0.024,-0.059,0.034,0.044,0.142,-0.005,-0.005,0.015,0.073
0.008,-0.039,0.015,0.054,0.015,-0.049,0.034,0.024,0.137,-0.01,-0.015,-0.015,0.024
0.01,-0.029,0.024,0.054,0.005,-0.044,0.039,0.034,0.142,0.005,-0.01,0.0,0.024
0.012,-0.029,0.039,0.068,-0.005,-0.049,0.054,0.039,0.142,0.01,0.0,0.015,0.044
0.014,-0.01,0.049,0.059,-0.02,-0.034,0.054,0.039,0.137,0.0,-0.02,0.02,0.044
0.016,-0.005,0.044,0.049,-0.02,-0.029,0.044,0.063,0.166,0.029,0.015,0.049,0.098
0.018,-0.005,0.024,0.029,-0.01,-0.02,0.024,0.078,0.19,0.054,0.049,0.078,0.137
0.02,-0.005,0.01,0.015,0.0,-0.01,0.01,0.073,0.181,0.059,0.054,0.083,0.146
0.022,-0.005,0.015,0.02,-0.005,-0.015,0.015,0.078,0.19,0.063,0.059,0.088,0.146
0.024,-0.034,0.005,0.039,0.015,-0.039,0.02,0.088,0.215,0.083,0.088,0.107,0.161
0.026,-0.054,0.02,0.073,0.02,-0.063,0.044,0.088,0.22,0.093,0.093,0.088,0.137
0.028,-0.02,0.049,0.068,-0.015,-0.044,0.059,0.073,0.215,0.083,0.078,0.054,0.093
0.03,-0.029,0.049,0.078,-0.01,-0.054,0.063,0.063,0.22,0.088,0.088,0.059,0.102
0.032,-0.039,0.063,0.102,-0.01,-0.073,0.083,0.054,0.224,0.098,0.088,0.073,0.107
0.034,-0.02,0.078,0.098,-0.029,-0.059,0.088,0.059,0.234,0.107,0.098,0.083,0.102
0.036,0.005,0.005,0.0,-0.005,0.0,0.0,0.083,0.268,0.146,0.132,0.137,0.146
0.038,0.02,0.01,-0.01,-0.015,0.015,0.0,0.083,0.268,0.151,0.137,0.156,0.185
0.04,0.02,0.029,0.01,-0.024,0.005,0.02,0.068,0.264,0.146,0.122,0.146,0.166
0.042,0.029,0.015,-0.015,-0.02,0.02,0.0,0.073,0.268,0.146,0.117,0.151,0.166
0.044,0.024,0.034,0.01,-0.029,0.005,0.02,0.078,0.283,0.156,0.127,0.166,0.151
0.046,0.02,0.054,0.034,-0.034,-0.01,0.044,0.073,0.293,0.171,0.137,0.161,0.132
0.048,0.01,0.078,0.068,-0.044,-0.029,0.073,0.068,0.293,0.176,0.142,0.142,0.093
0.05,-0.005,0.093,0.098,-0.044,-0.054,0.093,0.088,0.322,0.21,0.176,0.161,0.098
0.052,0.0,0.098,0.098,-0.049,-0.049,0.098,0.083,0.332,0.229,0.185,0.146,0.102
0.054,0.015,0.137,0.122,-0.073,-0.054,0.127,0.078,0.332,0.229,0.185,0.142,0.122
0.056,0.039,0.117,0.078,-0.078,-0.02,0.098,0.078,0.351,0.249,0.205,0.171,0.161
0.058,0.059,0.098,0.039,-0.078,0.01,0.068,0.059,0.337,0.244,0.2,0.176,0.19
0.06,0.029,0.088,0.059,-0.059,-0.015,0.073,0.063,0.356,0.259,0.22,0.176,0.205
0.062,0.029,0.088,0.059,-0.059,-0.015,0.073,0.088,0.381,0.288,0.239,0.2,0.224
0.064,0.044,0.132,0.088,-0.088,-0.024,0.107,0.068,0.371,0.288,0.234,0.205,0.205
0.066,0.049,0.161,0.112,-0.102,-0.034,0.137,0.044,0.371,0.283,0.22,0.19,0.176
0.068,0.049,0.132,0.083,-0.088,-0.02,0.107,0.044,0.381,0.298,0.229,0.2,0.161
0.07,0.059,0.098,0.039,-0.078,0.01,0.068,0.054,0.39,0.317,0.249,0.215,0.171
0.072,0.068,0.112,0.044,-0.088,0.01,0.078,0.059,0.4,0.337,0.273,0.22,0.176
0.074,0.088,0.161,0.073,-0.122,0.005,0.117,0.073,0.415,0.366,0.303,0.249,0.195
0.076,0.083,0.185,0.102,-0.132,-0.01,0.142,0.063,0.425,0.371,0.307,0.273,0.234
0.078,0.059,0.176,0.117,-0.117,-0.029,0.146,0.044,0.41,0.376,0.303,0.278,0.254
0.08,0.054,0.176,0.122,-0.112,-0.034,0.146,0.044,0.415,0.386,0.312,0.293,0.278
0.082,0.088,0.176,0.088,-0.132,0.0,0.132,0.059,0.434,0.4,0.327,0.327,0.307
0.084,0.117,0.176,0.059,-0.146,0.029,0.117,0.059,0.439,0.42,0.346,0.327,0.298
0.086,0.112,0.185,0.073,-0.146,0.02,0.127,0.063,0.454,0.425,0.351,0.303,0.264
0.088,0.127,0.195,0.068,-0.161,0.029,0.132,0.044,0.449,0.425,0.342,0.283,0.224
0.09,0.098,0.185,0.088,-0.142,0.005,0.137,0.054,0.454,0.449,0.361,0.303,0.234
0.092,0.083,0.224,0.142,-0.151,-0.029,0.181,0.073,0.473,0.473,0.39,0.332,0.259
0.094,0.098,0.234,0.137,-0.166,-0.02,0.185,0.068,0.468,0.473,0.395,0.342,0.273
0.096,0.112,0.234,0.122,-0.171,-0.005,0.176,0.059,0.459,0.468,0.395,0.356,0.303
0.098,0.107,0.249,0.142,-0.176,-0.02,0.195,0.054,0.459,0.483,0.415,0.381,0.342
0.1,0.107,0.229,0.122,-0.166,-0.01,0.176,0.054,0.464,0.493,0.41,0.386,0.346
0.102,0.132,0.239,0.107,-0.185,0.01,0.171,0.049,0.444,0.483,0.4,0.371,0.327
0.104,0.122,0.239,0.117,-0.181,0.0,0.176,0.044,0.449,0.493,0.41,0.371,0.322
0.106,0.107,0.224,0.117,-0.166,-0.005,0.171,0.044,0.449,0.493,0.41,0.356,0.283
0.108,0.117,0.229,0.112,-0.171,0.0,0.171,0.034,0.444,0.488,0.4,0.332,0.244
0.11,0.137,0.22,0.083,-0.176,0.024,0.151,0.02,0.42,0.473,0.381,0.303,0.205
0.112,0.142,0.215,0.073,-0.176,0.034,0.142,0.02,0.415,0.488,0.386,0.322,0.224
0.114,0.156,0.215,0.059,-0.185,0.049,0.137,0.029,0.415,0.498,0.395,0.337,0.268
0.116,0.146,0.19,0.044,-0.166,0.049,0.117,0.034,0.42,0.498,0.4,0.346,0.298
0.118,0.132,0.195,0.063,-0.161,0.034,0.127,0.044,0.41,0.493,0.405,0.356,0.332
0.12,0.112,0.205,0.093,-0.156,0.01,0.146,0.039,0.405,0.483,0.395,0.351,0.342
0.122,0.093,0.229,0.137,-0.161,-0.024,0.181,0.039,0.39,0.473,0.386,0.337,0.337
0.124,0.068,0.229,0.161,-0.146,-0.049,0.195,0.054,0.39,0.468,0.395,0.332,0.342
0.126,0.068,0.2,0.132,-0.132,-0.034,0.166,0.044,0.371,0.454,0.371,0.307,0.327
0.128,0.054,0.2,0.146,-0.127,-0.049,0.171,0.034,0.342,0.415,0.337,0.264,0.283
0.13,0.024,0.156,0.132,-0.088,-0.054,0.142,0.044,0.327,0.395,0.327,0.254,0.283
0.132,0.029,0.117,0.088,-0.073,-0.029,0.102,0.039,0.312,0.386,0.317,0.249,0.303
0.134,0.059,0.151,0.093,-0.102,-0.02,0.122,0.029,0.288,0.361,0.293,0.244,0.327
0.136,0.059,0.146,0.088,-0.102,-0.015,0.117,0.024,0.254,0.332,0.268,0.239,0.332
0.138,0.068,0.137,0.068,-0.102,0.0,0.102,0.024,0.229,0.293,0.244,0.22,0.332
0.14,0.088,0.137,0.049,-0.112,0.02,0.093,0.015,0.21,0.273,0.215,0.21,0.337
0.142,0.044,0.127,0.083,-0.083,-0.02,0.102,0.015,0.2,0.254,0.21,0.22,0.342
0.144,0.049,0.127,0.078,-0.088,-0.015,0.102,0.01,0.176,0.22,0.176,0.171,0.293
0.146,0.073,0.146,0.073,-0.107,0.0,0.107,-0.005,0.142,0.185,0.142,0.107,0.254
0.148,0.034,0.151,0.117,-0.093,-0.044,0.132,0.01,0.142,0.166,0.122,0.083,0.234
0.15,0.01,0.137,0.127,-0.073,-0.059,0.132,0.02,0.127,0.146,0.102,0.088,0.205
0.152,0.005,0.112,0.107,-0.059,-0.054,0.107,0.015,0.117,0.122,0.088,0.093,0.195
0.154,-0.015,0.112,0.127,-0.049,-0.073,0.117,0.01,0.102,0.112,0.073,0.088,0.205
0.156,-0.024,0.088,0.112,-0.029,-0.068,0.098,0.01,0.093,0.102,0.068,0.078,0.22
0.158,-0.029,0.054,0.083,-0.01,-0.059,0.068,0.01,0.078,0.098,0.073,0.054,0.22
0.16,-0.044,0.049,0.093,0.0,-0.068,0.068,0.01,0.068,0.083,0.049,0.029,0.2
0.162,-0.039,0.059,0.098,-0.01,-0.068,0.078,0.024,0.068,0.073,0.054,0.034,0.205
0.164,-0.044,0.049,0.093,0.0,-0.068,0.068,0.034,0.063,0.059,0.044,0.02,0.195
0.166,-0.029,0.078,0.107,-0.024,-0.068,0.093,0.015,0.034,0.034,0.024,-0.015,0.171
0.168,-0.029,0.083,0.112,-0.024,-0.073,0.098,0.005,0.02,0.02,0.005,-0.034,0.142
0.17,-0.059,0.059,0.117,0.0,-0.088,0.088,-0.015,0.0,-0.01,-0.01,-0.044,0.127
0.172,-0.059,0.083,0.142,-0.01,-0.102,0.112,-0.005,-0.005,-0.005,-0.005,-0.029,0.156
0.174,-0.059,0.063,0.122,0.0,-0.093,0.093,-0.015,-0.015,-0.02,-0.024,-0.015,0.171
0.176,-0.068,0.024,0.093,0.024,-0.083,0.059,-0.01,-0.01,-0.015,-0.02,0.015,0.185
0.178,-0.044,0.02,0.063,0.015,-0.054,0.039,-0.02,-0.02,-0.02,-0.02,0.029,0.195
0.18,-0.054,0.005,0.059,0.024,-0.059,0.029,-0.005,-0.015,-0.02,-0.029,0.029,0.195
0.182,-0.059,-0.01,0.049,0.034,-0.054,0.02,0.029,0.005,-0.005,-0.005,0.049,0.215
0.184,-0.029,0.029,0.059,0.0,-0.044,0.044,0.02,0.0,-0.015,-0.015,0.015,0.185
0.186,-0.034,0.029,0.063,0.005,-0.049,0.044,-0.015,-0.029,-0.039,-0.034,-0.029,0.146
0.188,-0.078,-0.01,0.068,0.044,-0.073,0.029,-0.029,-0.039,-0.054,-0.054,-0.059,0.122
0.19,-0.107,-0.024,0.083,0.068,-0.098,0.029,-0.005,-0.024,-0.039,-0.044,-0.054,0.146
0.192,-0.107,-0.024,0.083,0.068,-0.098,0.029,0.005,-0.024,-0.044,-0.039,-0.054,0.146
0.194,-0.054,0.01,0.063,0.024,-0.059,0.034,0.0,-0.034,-0.059,-0.049,-0.039,0.137
0.196,-0.049,0.015,0.063,0.02,-0.059,0.039,0.01,-0.034,-0.059,-0.044,-0.02,0.166
0.198,-0.044,0.01,0.054,0.02,-0.049,0.029,0.0,-0.044,-0.059,-0.039,-0.01,0.185
0.2,-0.059,-0.02,0.039,0.039,-0.049,0.01,0.0,-0.039,-0.063,-0.054,-0.015,0.176
0.202,-0.044,-0.044,0.0,0.044,-0.024,-0.024,0.0,-0.044,-0.068,-0.054,-0.024,0.171
0.204,-0.034,-0.02,0.015,0.029,-0.024,-0.005,-0.015,-0.054,-0.088,-0.073,-0.059,0.151
0.206,-0.02,-0.02,0.0,0.02,-0.01,-0.01,-0.029,-0.059,-0.093,-0.083,-0.083,0.127
0.208,-0.049,-0.024,0.024,0.039,-0.039,0.0,-0.02,-0.044,-0.078,-0.068,-0.083,0.132
0.21,-0.088,-0.01,0.078,0.049,-0.083,0.034,0.0,-0.034,-0.068,-0.049,-0.078,0.151
0.212,-0.083,0.005,0.088,0.039,-0.088,0.044,0.015,-0.039,-0.059,-0.049,-0.063,0.156
0.214,-0.083,0.015,0.098,0.034,-0.093,0.054,0.015,-0.039,-0.059,-0.049,-0.044,0.166
0.216,-0.073,0.01,0.083,0.034,-0.078,0.044,0.01,-0.049,-0.078,-0.059,-0.039,0.166
0.218,-0.054,0.015,0.068,0.02,-0.063,0.039,0.005,-0.054,-0.068,-0.054,-0.015,0.166
0.22,-0.029,0.034,0.063,0.0,-0.049,0.049,-0.005,-0.059,-0.078,-0.063,-0.015,0.146
0.222,-0.034,-0.005,0.029,0.02,-0.034,0.01,0.01,-0.063,-0.083,-0.068,-0.024,0.127
0.224,-0.054,-0.005,0.049,0.029,-0.054,0.02,0.01,-0.059,-0.093,-0.078,-0.039,0.107
0.226,-0.078,0.015,0.093,0.034,-0.088,0.054,0.005,-0.059,-0.093,-0.088,-0.078,0.088
0.228,-0.083,-0.005,0.078,0.044,-0.083,0.034,0.01,-0.044,-0.093,-0.083,-0.093,0.088
0.23,-0.029,0.005,0.034,0.015,-0.034,0.02,0.005,-0.049,-0.093,-0.083,-0.093,0.107
0.232,-0.024,-0.01,0.015,0.02,-0.02,0.0,-0.01,-0.063,-0.102,-0.098,-0.098,0.093
0.234,-0.039,0.005,0.044,0.02,-0.044,0.024,-0.015,-0.063,-0.102,-0.098,-0.078,0.093
0.236,-0.044,0.01,0.054,0.02,-0.049,0.029,-0.015,-0.068,-0.102,-0.088,-0.059,0.107
0.238,-0.039,0.029,0.068,0.005,-0.054,0.049,-0.02,-0.078,-0.107,-0.088,-0.034,0.107
0.24,-0.049,0.024,0.073,0.015,-0.063,0.049,0.0,-0.059,-0.093,-0.083,-0.02,0.112
0.242,-0.063,-0.029,0.034,0.049,-0.049,0.0,0.024,-0.029,-0.073,-0.054,-0.01,0.132
0.244,-0.068,-0.044,0.024,0.059,-0.049,-0.01,0.02,-0.034,-0.083,-0.059,-0.024,0.127
0.246,-0.068,-0.015,0.054,0.044,-0.063,0.02,0.005,-0.054,-0.093,-0.063,-0.063,0.102
0.248,-0.088,0.0,0.088,0.044,-0.088,0.044,-0.005,-0.054,-0.102,-0.083,-0.117,0.073
0.25,-0.063,0.015,0.078,0.024,-0.073,0.044,-0.005,-0.054,-0.102,-0.078,-0.112,0.073
0.252,-0.054,0.034,0.088,0.01,-0.073,0.059,-0.01,-0.059,-0.102,-0.098,-0.098,0.068
0.254,-0.073,-0.01,0.063,0.044,-0.068,0.024,-0.01,-0.068,-0.112,-0.102,-0.088,0.063
0.256,-0.083,-0.029,0.054,0.059,-0.068,0.01,-0.015,-0.078,-0.122,-0.107,-0.083,0.059
0.258,-0.093,-0.015,0.078,0.054,-0.088,0.029,-0.01,-0.078,-0.122,-0.093,-0.054,0.068
0.26,-0.059,-0.01,0.049,0.034,-0.054,0.02,0.005,-0.063,-0.107,-0.088,-0.049,0.063
0.262,-0.049,0.0,0.049,0.024,-0.049,0.024,0.0,-0.063,-0.117,-0.093,-0.073,0.034
0.264,-0.059,0.024,0.083,0.02,-0.073,0.054,-0.02,-0.083,-0.146,-0.132,-0.127,-0.024
0.266,-0.029,0.063,0.093,-0.015,-0.063,0.078,0.0,-0.068,-0.132,-0.122,-0.146,-0.039
0.268,-0.044,0.059,0.102,-0.005,-0.073,0.078,-0.005,-0.073,-0.132,-0.127,-0.171,-0.054
0.27,-0.073,0.034,0.107,0.02,-0.093,0.068,0.005,-0.063,-0.127,-0.112,-0.166,-0.049
0.272,-0.073,-0.015,0.059,0.044,-0.068,0.02,0.005,-0.068,-0.127,-0.122,-0.171,-0.073
0.274,-0.059,-0.015,0.044,0.039,-0.054,0.015,0.005,-0.063,-0.117,-0.112,-0.142,-0.102
0.276,-0.068,-0.005,0.063,0.039,-0.068,0.029,0.0,-0.063,-0.122,-0.107,-0.122,-0.132
0.278,-0.044,-0.005,0.039,0.024,-0.044,0.015,0.005,-0.068,-0.117,-0.093,-0.083,-0.132
0.28,-0.034,-0.01,0.024,0.024,-0.029,0.005,0.015,-0.059,-0.107,-0.088,-0.049,-0.137
0.282,-0.039,0.005,0.044,0.02,-0.044,0.024,0.015,-0.063,-0.117,-0.093,-0.059,-0.156
0.284,-0.063,0.01,0.073,0.029,-0.068,0.039,0.01,-0.054,-0.117,-0.093,-0.068,-0.171
0.286,-0.073,-0.01,0.063,0.044,-0.068,0.024,0.0,-0.059,-0.122,-0.102,-0.073,-0.195
0.288,-0.034,0.01,0.044,0.015,-0.039,0.024,-0.01,-0.063,-0.117,-0.102,-0.078,-0.205
0.29,-0.024,0.044,0.068,-0.01,-0.049,0.054,-0.01,-0.063,-0.117,-0.093,-0.098,-0.215
0.292,-0.059,0.044,0.102,0.01,-0.083,0.073,-0.005,-0.063,-0.107,-0.098,-0.088,-0.224
0.294,-0.073,0.029,0.102,0.024,-0.088,0.063,0.01,-0.059,-0.102,-0.088,-0.054,-0.224
0.296,-0.063,-0.01,0.054,0.039,-0.059,0.02,0.01,-0.073,-0.122,-0.098,-0.049,-0.234
0.298,-0.059,0.015,0.073,0.024,-0.068,0.044,0.015,-0.068,-0.117,-0.093,-0.015,-0.2
0.3,-0.059,0.034,0.093,0.015,-0.078,0.063,0.0,-0.068,-0.107,-0.093,-0.01,-0.19
0.302,-0.054,0.034,0.088,0.01,-0.073,0.059,-0.02,-0.078,-0.127,-0.107,-0.049,-0.244
0.304,-0.054,0.029,0.083,0.015,-0.068,0.054,0.005,-0.068,-0.117,-0.093,-0.073,-0.278
0.306,-0.054,0.024,0.078,0.015,-0.068,0.049,0.02,-0.049,-0.098,-0.073,-0.059,-0.303
0.308,-0.044,0.044,0.088,0.0,-0.068,0.063,0.005,-0.063,-0.117,-0.102,-0.073,-0.337
0.31,-0.044,0.078,0.122,-0.015,-0.083,0.098,-0.005,-0.073,-0.127,-0.107,-0.078,-0.346
0.312,-0.049,0.039,0.088,0.005,-0.068,0.063,0.0,-0.063,-0.112,-0.098,-0.054,-0.327
0.314,-0.039,0.005,0.044,0.02,-0.044,0.024,0.0,-0.063,-0.117,-0.107,-0.054,-0.342
0.316,-0.049,0.0,0.049,0.024,-0.049,0.024,-0.015,-0.083,-0.137,-0.132,-0.063,-0.332
0.318,-0.049,0.005,0.054,0.024,-0.054,0.029,-0.015,-0.078,-0.127,-0.122,-0.039,-0.303
0.32,-0.044,-0.005,0.039,0.024,-0.044,0.015,-0.005,-0.068,-0.107,-0.098,-0.039,-0.337
0.322,-0.049,-0.029,0.02,0.039,-0.034,-0.005,0.005,-0.063,-0.098,-0.073,-0.049,-0.381
0.324,-0.063,-0.044,0.02,0.054,-0.044,-0.015,0.01,-0.059,-0.102,-0.073,-0.068,-0.444
0.326,-0.063,-0.01,0.054,0.039,-0.059,0.02,0.0,-0.063,-0.107,-0.083,-0.088,-0.512
0.328,-0.083,-0.01,0.073,0.049,-0.078,0.029,0.0,-0.059,-0.102,-0.073,-0.088,-0.547
0.33,-0.059,-0.01,0.049,0.034,-0.054,0.02,0.005,-0.068,-0.112,-0.083,-0.083,-0.561
0.332,-0.068,-0.01,0.059,0.039,-0.063,0.024,0.0,-0.073,-0.117,-0.102,-0.098,-0.547
0.334,-0.044,0.01,0.054,0.02,-0.049,0.029,-0.01,-0.088,-0.122,-0.107,-0.093,-0.542
0.336,-0.015,0.024,0.039,-0.005,-0.029,0.029,-0.01,-0.088,-0.122,-0.098,-0.063,-0.522
0.338,-0.039,0.005,0.044,0.02,-0.044,0.024,-0.02,-0.088,-0.117,-0.093,-0.029,-0.493
0.34,-0.068,-0.005,0.063,0.039,-0.068,0.029,-0.02,-0.088,-0.117,-0.093,-0.02,-0.503
0.342,-0.078,0.01,0.088,0.034,-0.083,0.049,-0.015,-0.088,-0.117,-0.083,-0.029,-0.522
0.344,-0.068,0.02,0.088,0.024,-0.078,0.054,-0.015,-0.088,-0.122,-0.088,-0.049,-0.551
0.346,-0.063,0.01,0.073,0.029,-0.068,0.039,-0.015,-0.093,-0.127,-0.093,-0.098,-0.6
0.348,-0.039,0.0,0.039,0.02,-0.039,0.02,-0.01,-0.088,-0.127,-0.098,-0.142,-0.639
0.35,-0.029,0.02,0.049,0.005,-0.039,0.034,-0.015,-0.088,-0.127,-0.098,-0.137,-0.654
0.352,-0.02,0.034,0.054,-0.005,-0.039,0.044,-0.005,-0.083,-0.112,-0.083,-0.102,-0.649
0.354,-0.024,0.024,0.049,0.0,-0.039,0.034,-0.01,-0.083,-0.107,-0.088,-0.098,-0.634
0.356,-0.024,0.005,0.029,0.01,-0.029,0.015,-0.024,-0.088,-0.107,-0.093,-0.098,-0.605
0.358,-0.029,0.005,0.034,0.015,-0.034,0.02,-0.02,-0.093,-0.117,-0.088,-0.098,-0.586
0.36,-0.049,0.015,0.063,0.02,-0.059,0.039,-0.015,-0.102,-0.122,-0.112,-0.107,-0.61
0.362,-0.063,0.059,0.122,0.005,-0.093,0.088,-0.024,-0.102,-0.127,-0.107,-0.107,-0.639
0.364,-0.068,0.078,0.146,-0.005,-0.107,0.112,-0.029,-0.107,-0.127,-0.107,-0.102,-0.664
0.366,-0.073,0.059,0.132,0.01,-0.102,0.093,-0.02,-0.098,-0.117,-0.107,-0.102,-0.688
0.368,-0.044,0.02,0.063,0.015,-0.054,0.039,-0.015,-0.098,-0.122,-0.112,-0.117,-0.727
0.37,-0.068,-0.01,0.059,0.039,-0.063,0.024,-0.015,-0.107,-0.132,-0.112,-0.117,-0.737
0.372,-0.083,-0.015,0.068,0.049,-0.078,0.024,0.005,-0.093,-0.117,-0.107,-0.088,-0.717
0.374,-0.083,-0.01,0.073,0.049,-0.078,0.029,-0.005,-0.102,-0.122,-0.112,-0.088,-0.688
0.376,-0.073,-0.015,0.059,0.044,-0.068,0.02,0.0,-0.093,-0.117,-0.107,-0.068,-0.63
0.378,-0.088,-0.02,0.068,0.054,-0.078,0.024,-0.005,-0.102,-0.112,-0.107,-0.063,-0.595
0.38,-0.068,0.01,0.078,0.029,-0.073,0.044,0.005,-0.102,-0.117,-0.107,-0.093,-0.61
0.382,-0.049,0.024,0.073,0.015,-0.063,0.049,0.0,-0.093,-0.122,-0.098,-0.107,-0.625
0.384,-0.049,0.029,0.078,0.01,-0.063,0.054,0.005,-0.088,-0.117,-0.093,-0.102,-0.659
0.386,-0.044,0.02,0.063,0.015,-0.054,0.039,-0.01,-0.107,-0.142,-0.112,-0.117,-0.722
0.388,-0.029,0.029,0.059,0.0,-0.044,0.044,-0.02,-0.112,-0.146,-0.127,-0.122,-0.761
0.39,-0.068,0.015,0.083,0.029,-0.078,0.049,-0.024,-0.117,-0.151,-0.127,-0.117,-0.752
0.392,-0.088,-0.02,0.068,0.054,-0.078,0.024,-0.02,-0.102,-0.127,-0.107,-0.098,-0.727
0.394,-0.078,-0.02,0.059,0.049,-0.068,0.02,-0.005,-0.088,-0.102,-0.088,-0.088,-0.678
0.396,-0.083,-0.015,0.068,0.049,-0.078,0.024,-0.01,-0.098,-0.112,-0.093,-0.088,-0.649
0.398,-0.068,-0.005,0.063,0.039,-0.068,0.029,-0.01,-0.102,-0.117,-0.093,-0.088,-0.63
0.4,-0.034,0.02,0.054,0.01,-0.044,0.034,-0.02,-0.112,-0.127,-0.107,-0.102,-0.639
0.402,-0.044,0.015,0.059,0.015,-0.054,0.034,-0.02,-0.117,-0.132,-0.112,-0.117,-0.664
0.404,-0.059,0.029,0.088,0.015,-0.073,0.059,-0.02,-0.117,-0.137,-0.122,-0.117,-0.688
0.406,-0.044,0.029,0.073,0.01,-0.059,0.049,-0.029,-0.137,-0.156,-0.142,-0.132,-0.727
0.408,-0.054,0.0,0.054,0.029,-0.054,0.024,-0.029,-0.137,-0.151,-0.142,-0.146,-0.766
0.41,-0.049,0.029,0.078,0.01,-0.063,0.054,-0.024,-0.146,-0.146,-0.142,-0.146,-0.761
0.412,-0.083,0.005,0.088,0.039,-0.088,0.044,-0.015,-0.132,-0.142,-0.142,-0.122,-0.742
0.414,-0.083,-0.039,0.044,0.063,-0.063,0.0,-0.005,-0.117,-0.117,-0.112,-0.088,-0.703
0.416,-0.049,-0.024,0.024,0.039,-0.039,0.0,-0.024,-0.127,-0.132,-0.117,-0.098,-0.678
0.418,-0.054,-0.015,0.039,0.034,-0.049,0.01,-0.034,-0.137,-0.151,-0.137,-0.117,-0.664
0.42,-0.049,0.01,0.059,0.02,-0.054,0.034,-0.034,-0.137,-0.151,-0.132,-0.117,-0.654
0.422,-0.039,0.01,0.049,0.015,-0.044,0.029,-0.024,-0.137,-0.142,-0.127,-0.107,-0.654
0.424,-0.054,0.02,0.073,0.02,-0.063,0.044,-0.005,-0.137,-0.146,-0.122,-0.107,-0.688
0.426,-0.059,0.02,0.078,0.02,-0.068,0.049,0.0,-0.132,-0.146,-0.127,-0.117,-0.717
0.428,-0.059,0.005,0.063,0.029,-0.063,0.034,-0.02,-0.142,-0.161,-0.146,-0.156,-0.752
0.43,-0.073,-0.01,0.063,0.044,-0.068,0.024,-0.015,-0.132,-0.146,-0.142,-0.166,-0.761
0.432,-0.073,0.01,0.083,0.034,-0.078,0.044,-0.015,-0.127,-0.146,-0.132,-0.137,-0.732
0.434,-0.088,-0.01,0.078,0.049,-0.083,0.034,-0.024,-0.142,-0.151,-0.142,-0.132,-0.717
0.436,-0.078,-0.02,0.059,0.049,-0.068,0.02,-0.02,-0.137,-0.146,-0.132,-0.122,-0.688
0.438,-0.068,-0.024,0.044,0.049,-0.059,0.01,-0.024,-0.127,-0.142,-0.117,-0.098,-0.649
0.44,-0.054,0.0,0.054,0.029,-0.054,0.024,-0.029,-0.132,-0.142,-0.127,-0.112,-0.649
0.442,-0.015,0.054,0.068,-0.02,-0.044,0.059,-0.034,-0.146,-0.156,-0.146,-0.142,-0.669
0.444,-0.024,0.039,0.063,-0.005,-0.044,0.049,-0.015,-0.137,-0.151,-0.132,-0.142,-0.683
0.446,-0.049,0.029,0.078,0.01,-0.063,0.054,-0.01,-0.137,-0.142,-0.122,-0.122,-0.698
0.448,-0.068,0.024,0.093,0.024,-0.083,0.059,-0.029,-0.146,-0.151,-0.142,-0.137,-0.727
0.45,-0.049,0.01,0.059,0.02,-0.054,0.034,-0.024,-0.146,-0.156,-0.142,-0.137,-0.722
0.452,-0.039,0.024,0.063,0.01,-0.054,0.044,-0.02,-0.146,-0.156,-0.137,-0.132,-0.703
0.454,-0.059,0.01,0.068,0.024,-0.063,0.039,-0.015,-0.137,-0.146,-0.127,-0.122,-0.669
0.456,-0.068,-0.039,0.029,0.054,-0.049,-0.005,-0.01,-0.137,-0.142,-0.107,-0.107,-0.634
0.458,-0.054,-0.024,0.029,0.039,-0.044,0.0,-0.01,-0.132,-0.142,-0.102,-0.078,-0.595
0.46,-0.063,-0.01,0.054,0.039,-0.059,0.02,-0.02,-0.142,-0.146,-0.112,-0.078,-0.595
0.462,-0.054,-0.024,0.029,0.039,-0.044,0.0,-0.01,-0.137,-0.142,-0.117,-0.078,-0.6
0.464,-0.034,-0.049,-0.015,0.044,-0.01,-0.034,-0.005,-0.122,-0.137,-0.107,-0.088,-0.605
0.466,-0.039,-0.024,0.015,0.034,-0.029,-0.005,-0.01,-0.122,-0.137,-0.112,-0.102,-0.63
0.468,-0.039,0.015,0.054,0.015,-0.049,0.034,-0.02,-0.137,-0.142,-0.122,-0.132,-0.664
0.47,-0.063,0.015,0.078,0.024,-0.073,0.044,-0.02,-0.137,-0.146,-0.127,-0.127,-0.669
0.472,-0.049,-0.005,0.044,0.029,-0.049,0.02,-0.01,-0.137,-0.146,-0.127,-0.127,-0.659
0.474,-0.054,-0.005,0.049,0.029,-0.054,0.02,-0.015,-0.137,-0.151,-0.127,-0.122,-0.649
0.476,-0.068,-0.049,0.02,0.059,-0.044,-0.015,-0.02,-0.142,-0.146,-0.122,-0.107,-0.61
0.478,-0.049,-0.054,-0.005,0.054,-0.024,-0.029,-0.015,-0.127,-0.137,-0.107,-0.083,-0.542
0.48,-0.044,-0.024,0.02,0.034,-0.034,-0.005,-0.029,-0.137,-0.142,-0.122,-0.107,-0.556
0.482,-0.044,-0.01,0.034,0.029,-0.039,0.01,-0.024,-0.146,-0.142,-0.122,-0.107,-0.571
0.484,-0.044,-0.029,0.015,0.039,-0.029,-0.01,-0.015,-0.137,-0.142,-0.107,-0.098,-0.59
0.486,-0.044,-0.024,0.02,0.034,-0.034,-0.005,-0.029,-0.132,-0.142,-0.112,-0.093,-0.615
0.488,-0.029,-0.01,0.02,0.02,-0.024,0.005,-0.039,-0.146,-0.161,-0.137,-0.107,-0.654
0.49,-0.024,-0.015,0.01,0.02,-0.02,-0.005,-0.034,-0.146,-0.161,-0.137,-0.117,-0.659
0.492,-0.049,-0.034,0.015,0.044,-0.034,-0.01,-0.034,-0.151,-0.161,-0.137,-0.122,-0.615
0.494,-0.078,-0.034,0.044,0.059,-0.063,0.005,-0.029,-0.151,-0.161,-0.132,-0.122,-0.547
0.496,-0.054,-0.024,0.029,0.039,-0.044,0.0,-0.015,-0.142,-0.142,-0.112,-0.117,-0.483
0.498,-0.059,-0.049,0.01,0.054,-0.034,-0.02,0.0,-0.122,-0.122,-0.088,-0.073,-0.405
0.5,-0.068,-0.059,0.01,0.063,-0.039,-0.024,0.0,-0.122,-0.132,-0.098,-0.063,-0.371
0.502,-0.083,-0.049,0.034,0.068,-0.059,-0.01,-0.01,-0.127,-0.137,-0.107,-0.063,-0.371
0.504,-0.073,-0.044,0.029,0.059,-0.054,-0.01,-0.01,-0.132,-0.132,-0.098,-0.068,-0.381
0.506,-0.073,-0.034,0.039,0.054,-0.059,0.0,-0.005,-0.122,-0.122,-0.088,-0.073,-0.371
0.508,-0.083,-0.02,0.063,0.054,-0.073,0.02,-0.02,-0.127,-0.132,-0.102,-0.102,-0.381
0.51,-0.068,-0.005,0.063,0.039,-0.068,0.029,-0.015,-0.122,-0.127,-0.102,-0.107,-0.356
0.512,-0.039,-0.029,0.01,0.034,-0.024,-0.01,-0.024,-0.137,-0.146,-0.117,-0.122,-0.351
0.514,-0.049,-0.034,0.015,0.044,-0.034,-0.01,-0.024,-0.127,-0.132,-0.107,-0.098,-0.332
0.516,-0.044,-0.02,0.024,0.034,-0.034,0.0,-0.015,-0.127,-0.127,-0.098,-0.059,-0.307
0.518,-0.044,-0.01,0.034,0.029,-0.039,0.01,-0.024,-0.137,-0.137,-0.107,-0.049,-0.307
0.52,-0.034,-0.02,0.015,0.029,-0.024,-0.005,-0.029,-0.146,-0.146,-0.107,-0.059,-0.327
0.522,-0.039,-0.039,0.0,0.039,-0.02,-0.02,-0.02,-0.137,-0.142,-0.102,-0.063,-0.322
0.524,-0.029,-0.063,-0.034,0.049,0.0,-0.049,-0.024,-0.151,-0.146,-0.107,-0.068,-0.303
0.526,-0.02,-0.039,-0.02,0.029,0.0,-0.029,-0.034,-0.146,-0.151,-0.117,-0.093,-0.298
0.528,-0.034,-0.015,0.02,0.024,-0.029,0.0,-0.029,-0.142,-0.151,-0.117,-0.122,-0.273
0.53,-0.083,-0.039,0.044,0.063,-0.063,0.0,-0.015,-0.132,-0.137,-0.102,-0.107,-0.239
0.532,-0.088,-0.034,0.054,0.063,-0.073,0.01,-0.015,-0.127,-0.137,-0.107,-0.098,-0.22
0.534,-0.059,-0.015,0.044,0.039,-0.054,0.015,-0.02,-0.127,-0.132,-0.112,-0.083,-0.166
0.536,-0.063,-0.034,0.029,0.049,-0.049,-0.005,-0.005,-0.117,-0.122,-0.102,-0.059,-0.107
0.538,-0.054,-0.029,0.024,0.044,-0.039,-0.005,-0.01,-0.127,-0.137,-0.107,-0.034,-0.068
0.54,-0.039,-0.039,0.0,0.039,-0.02,-0.02,-0.015,-0.137,-0.142,-0.112,-0.034,-0.059
0.542,-0.049,-0.044,0.005,0.049,-0.029,-0.02,-0.01,-0.142,-0.146,-0.117,-0.039,-0.039
0.544,-0.068,-0.054,0.015,0.063,-0.044,-0.02,-0.005,-0.137,-0.146,-0.112,-0.049,-0.015
0.546,-0.073,-0.049,0.024,0.063,-0.049,-0.015,-0.015,-0.137,-0.146,-0.117,-0.063,-0.015
0.548,-0.078,-0.034,0.044,0.059,-0.063,0.005,-0.024,-0.142,-0.156,-0.127,-0.107,-0.039
0.55,-0.049,-0.049,0.0,0.049,-0.024,-0.024,-0.024,-0.142,-0.151,-0.127,-0.112,-0.034
0.552,-0.034,-0.044,-0.01,0.039,-0.015,-0.029,-0.01,-0.132,-0.137,-0.112,-0.102,-0.024
0.554,-0.029,-0.039,-0.01,0.034,-0.01,-0.024,-0.01,-0.127,-0.132,-0.107,-0.122,-0.02
0.556,-0.054,-0.059,-0.005,0.059,-0.024,-0.034,-0.015,-0.132,-0.137,-0.107,-0.098,-0.024
0.558,-0.054,-0.034,0.02,0.044,-0.039,-0.01,-0.01,-0.132,-0.137,-0.093,-0.068,0.015
0.56,-0.039,-0.044,-0.005,0.044,-0.02,-0.024,-0.005,-0.122,-0.122,-0.083,-0.059,0.024
0.562,-0.039,-0.044,-0.005,0.044,-0.02,-0.024,-0.01,-0.127,-0.142,-0.102,-0.063,0.029
0.564,-0.068,-0.029,0.039,0.049,-0.054,0.005,-0.005,-0.132,-0.142,-0.098,-0.054,0.024
0.566,-0.063,0.005,0.068,0.029,-0.068,0.034,-0.01,-0.132,-0.142,-0.102,-0.054,-0.005
0.568,-0.063,0.0,0.063,0.034,-0.063,0.029,-0.005,-0.127,-0.127,-0.102,-0.063,-0.029
0.57,-0.044,0.01,0.054,0.02,-0.049,0.029,-0.015,-0.137,-0.142,-0.132,-0.073,-0.044
0.572,-0.049,-0.024,0.024,0.039,-0.039,0.0,-0.005,-0.127,-0.137,-0.122,-0.063,-0.029
0.574,-0.049,-0.044,0.005,0.049,-0.029,-0.02,-0.02,-0.137,-0.137,-0.122,-0.068,-0.015
0.576,-0.059,-0.054,0.005,0.059,-0.034,-0.024,-0.034,-0.142,-0.142,-0.122,-0.083,0.0
0.578,-0.054,-0.078,-0.024,0.068,-0.015,-0.054,-0.029,-0.132,-0.142,-0.112,-0.068,0.044
0.58,-0.073,-0.068,0.005,0.073,-0.039,-0.034,-0.029,-0.137,-0.142,-0.107,-0.063,0.078
0.582,-0.068,-0.083,-0.015,0.078,-0.029,-0.049,-0.02,-0.132,-0.137,-0.098,-0.088,0.088
0.584,-0.024,-0.054,-0.029,0.039,0.0,-0.044,-0.005,-0.117,-0.132,-0.083,-0.088,0.078
0.586,-0.029,-0.029,0.0,0.029,-0.015,-0.015,0.0,-0.117,-0.132,-0.088,-0.068,0.063
0.588,-0.029,-0.039,-0.01,0.034,-0.01,-0.024,-0.029,-0.142,-0.156,-0.122,-0.093,0.0
0.59,-0.029,-0.029,0.0,0.029,-0.015,-0.015,-0.02,-0.137,-0.146,-0.117,-0.093,-0.005
0.592,-0.029,-0.039,-0.01,0.034,-0.01,-0.024,-0.01,-0.127,-0.142,-0.112,-0.098,-0.01
0.594,-0.005,-0.054,-0.049,0.029,0.02,-0.054,-0.02,-0.137,-0.146,-0.117,-0.112,-0.005
0.596,-0.02,-0.068,-0.049,0.044,0.015,-0.059,-0.024,-0.142,-0.146,-0.112,-0.112,0.02
0.598,-0.039,-0.068,-0.029,0.054,-0.005,-0.049,-0.02,-0.137,-0.142,-0.102,-0.098,0.049
0.6,-0.059,-0.054,0.005,0.059,-0.034,-0.024,-0.015,-0.132,-0.137,-0.093,-0.083,0.063
0.602,-0.073,-0.034,0.039,0.054,-0.059,0.0,-0.005,-0.127,-0.132,-0.093,-0.078,0.088
0.604,-0.068,-0.044,0.024,0.059,-0.049,-0.01,-0.01,-0.132,-0.142,-0.093,-0.088,0.054
0.606,-0.049,-0.068,-0.02,0.059,-0.015,-0.044,0.005,-0.112,-0.127,-0.078,-0.068,0.044
0.608,-0.044,-0.073,-0.029,0.059,-0.01,-0.054,-0.005,-0.117,-0.132,-0.093,-0.078,0.01
0.61,-0.054,-0.059,-0.005,0.059,-0.024,-0.034,-0.02,-0.132,-0.142,-0.112,-0.098,-0.015
0.612,-0.044,-0.015,0.029,0.029,-0.039,0.005,-0.015,-0.132,-0.146,-0.102,-0.088,0.0
0.614,-0.044,-0.044,0.0,0.044,-0.024,-0.024,-0.015,-0.127,-0.132,-0.093,-0.073,0.0
0.616,-0.02,-0.073,-0.054,0.049,0.015,-0.063,-0.02,-0.132,-0.142,-0.102,-0.078,0.0
0.618,-0.044,-0.059,-0.015,0.054,-0.015,-0.039,-0.01,-0.127,-0.142,-0.112,-0.063,0.024
0.62,-0.059,-0.068,-0.01,0.063,-0.024,-0.039,0.0,-0.127,-0.142,-0.102,-0.049,0.029
0.622,-0.015,-0.044,-0.029,0.029,0.005,-0.039,-0.015,-0.132,-0.146,-0.112,-0.078,0.01
0.624,-0.02,-0.059,-0.039,0.039,0.01,-0.049,0.0,-0.122,-0.137,-0.098,-0.088,0.015
0.626,-0.059,-0.078,-0.02,0.068,-0.02,-0.049,0.015,-0.112,-0.132,-0.098,-0.102,0.02
0.628,-0.063,-0.049,0.015,0.059,-0.039,-0.02,0.005,-0.117,-0.142,-0.102,-0.127,0.005
0.63,-0.078,-0.063,0.015,0.073,-0.049,-0.024,0.0,-0.117,-0.137,-0.102,-0.132,0.015
0.632,-0.059,-0.073,-0.015,0.068,-0.024,-0.044,0.015,-0.102,-0.122,-0.088,-0.122,0.024
0.634,-0.015,-0.063,-0.049,0.039,0.015,-0.059,0.005,-0.107,-0.127,-0.093,-0.107,0.02
0.636,-0.029,-0.054,-0.024,0.044,-0.005,-0.039,-0.01,-0.122,-0.132,-0.102,-0.093,0.015
0.638,-0.039,-0.044,-0.005,0.044,-0.02,-0.024,-0.005,-0.122,-0.137,-0.093,-0.063,0.034
0.64,-0.059,-0.059,0.0,0.059,-0.029,-0.029,0.005,-0.107,-0.122,-0.068,-0.034,0.034
0.642,-0.078,-0.117,-0.039,0.098,-0.02,-0.078,0.015,-0.107,-0.112,-0.068,-0.029,0.034
0.644,-0.098,-0.117,-0.02,0.107,-0.039,-0.068,-0.005,-0.117,-0.132,-0.083,-0.063,0.015
0.646,-0.068,-0.083,-0.015,0.078,-0.029,-0.049,-0.015,-0.112,-0.137,-0.098,-0.093,0.01
0.648,-0.044,-0.059,-0.015,0.054,-0.015,-0.039,-0.02,-0.122,-0.146,-0.122,-0.127,-0.005
0.65,-0.044,-0.049,-0.005,0.049,-0.02,-0.029,-0.01,-0.117,-0.142,-0.112,-0.117,0.015
0.652,-0.024,-0.059,-0.034,0.044,0.005,-0.049,-0.01,-0.127,-0.142,-0.107,-0.112,0.01
0.654,-0.034,-0.073,-0.039,0.054,0.0,-0.059,0.0,-0.117,-0.137,-0.102,-0.098,0.02
0.656,-0.029,-0.044,-0.015,0.039,-0.01,-0.029,-0.005,-0.122,-0.137,-0.102,-0.083,0.024
0.658,-0.024,-0.044,-0.02,0.034,-0.005,-0.034,-0.005,-0.112,-0.132,-0.088,-0.063,0.029
0.66,-0.044,-0.068,-0.024,0.059,-0.01,-0.049,0.0,-0.102,-0.122,-0.073,-0.054,0.034
0.662,-0.059,-0.088,-0.029,0.073,-0.015,-0.059,0.01,-0.093,-0.112,-0.073,-0.059,0.034
0.664,-0.059,-0.068,-0.01,0.063,-0.024,-0.039,0.005,-0.098,-0.112,-0.078,-0.078,0.015
0.666,-0.063,-0.044,0.02,0.054,-0.044,-0.015,0.0,-0.098,-0.122,-0.093,-0.102,0.005
0.668,-0.049,-0.044,0.005,0.049,-0.029,-0.02,0.015,-0.088,-0.117,-0.083,-0.122,0.015
0.67,-0.024,-0.039,-0.015,0.034,-0.005,-0.029,0.034,-0.078,-0.112,-0.073,-0.112,0.029
0.672,-0.024,-0.044,-0.02,0.034,-0.005,-0.034,0.029,-0.083,-0.112,-0.083,-0.107,0.039
0.674,-0.054,-0.049,0.005,0.054,-0.029,-0.024,0.034,-0.073,-0.107,-0.093,-0.088,0.059
0.676,-0.02,-0.015,0.005,0.02,-0.015,-0.005,0.049,-0.054,-0.093,-0.078,-0.049,0.078
0.678,-0.01,-0.024,-0.015,0.02,0.0,-0.02,0.039,-0.063,-0.107,-0.073,-0.034,0.078
0.68,-0.005,-0.024,-0.02,0.015,0.005,-0.024,0.024,-0.068,-0.107,-0.068,-0.039,0.063
0.682,-0.015,-0.029,-0.015,0.024,0.0,-0.024,0.02,-0.068,-0.098,-0.063,-0.039,0.063
0.684,-0.034,-0.044,-0.01,0.039,-0.015,-0.029,0.024,-0.068,-0.102,-0.068,-0.054,0.049
0.686,-0.029,-0.029,0.0,0.029,-0.015,-0.015,0.02,-0.078,-0.112,-0.083,-0.078,0.039
0.688,0.0,-0.044,-0.044,0.024,0.02,-0.044,0.02,-0.083,-0.117,-0.093,-0.122,0.029
0.69,-0.005,-0.054,-0.049,0.029,0.02,-0.054,0.029,-0.078,-0.112,-0.088,-0.132,0.034
0.692,-0.024,-0.044,-0.02,0.034,-0.005,-0.034,0.034,-0.068,-0.107,-0.073,-0.122,0.054
0.694,0.005,-0.029,-0.034,0.015,0.02,-0.034,0.015,-0.073,-0.107,-0.073,-0.102,0.059
0.696,0.005,-0.029,-0.034,0.015,0.02,-0.034,0.02,-0.063,-0.088,-0.054,-0.059,0.078
0.698,-0.005,-0.024,-0.02,0.015,0.005,-0.024,0.02,-0.068,-0.093,-0.054,-0.034,0.088
0.7,-0.005,-0.024,-0.02,0.015,0.005,-0.024,0.005,-0.073,-0.098,-0.054,-0.02,0.083
0.702,-0.01,-0.01,0.0,0.01,-0.005,-0.005,0.0,-0.078,-0.102,-0.063,-0.024,0.078
0.704,-0.005,-0.034,-0.029,0.02,0.01,-0.034,0.005,-0.078,-0.102,-0.063,-0.044,0.068
0.706,0.034,-0.034,-0.068,0.0,0.049,-0.054,0.0,-0.078,-0.107,-0.073,-0.068,0.059
0.708,0.034,-0.034,-0.068,0.0,0.049,-0.054,-0.005,-0.078,-0.107,-0.073,-0.093,0.039
0.71,0.02,-0.049,-0.068,0.015,0.044,-0.059,-0.005,-0.078,-0.098,-0.068,-0.102,0.039
0.712,0.01,-0.054,-0.063,0.024,0.034,-0.059,-0.015,-0.078,-0.098,-0.063,-0.098,0.049
0.714,0.005,-0.059,-0.063,0.029,0.034,-0.063,-0.02,-0.083,-0.102,-0.068,-0.088,0.034
0.716,-0.015,-0.073,-0.059,0.044,0.02,-0.068,-0.029,-0.083,-0.107,-0.068,-0.059,0.034
0.718,-0.005,-0.044,-0.039,0.024,0.015,-0.044,-0.02,-0.078,-0.098,-0.054,-0.034,0.088
0.72,-0.015,-0.034,-0.02,0.024,0.0,-0.029,-0.015,-0.083,-0.102,-0.044,-0.029,0.093
0.722,-0.015,-0.054,-0.039,0.034,0.01,-0.049,-0.024,-0.093,-0.112,-0.063,-0.054,0.063
0.724,-0.005,-0.044,-0.039,0.024,0.015,-0.044,-0.029,-0.102,-0.132,-0.093,-0.073,0.029
0.726,-0.015,-0.029,-0.015,0.024,0.0,-0.024,-0.024,-0.112,-0.146,-0.112,-0.098,-0.01
0.728,-0.005,-0.01,-0.005,0.01,0.0,-0.01,-0.02,-0.117,-0.146,-0.107,-0.098,-0.039
0.73,-0.01,-0.029,-0.02,0.02,0.005,-0.024,-0.005,-0.112,-0.137,-0.093,-0.078,-0.039
0.732,-0.024,-0.054,-0.029,0.039,0.0,-0.044,-0.01,-0.112,-0.142,-0.098,-0.073,-0.029
0.734,0.005,-0.073,-0.078,0.034,0.039,-0.078,-0.005,-0.107,-0.137,-0.093,-0.059,0.0
0.736,-0.015,-0.098,-0.083,0.059,0.034,-0.093,-0.01,-0.102,-0.127,-0.083,-0.068,0.02
0.738,-0.059,-0.112,-0.054,0.088,-0.005,-0.083,-0.005,-0.102,-0.122,-0.083,-0.073,0.054
0.74,-0.029,-0.088,-0.059,0.059,0.015,-0.073,-0.01,-0.107,-0.132,-0.088,-0.078,0.049
0.742,-0.024,-0.078,-0.054,0.054,0.015,-0.068,-0.01,-0.117,-0.132,-0.093,-0.093,0.039
0.744,-0.024,-0.083,-0.059,0.054,0.015,-0.073,-0.015,-0.122,-0.142,-0.102,-0.102,0.015
0.746,-0.01,-0.083,-0.073,0.049,0.029,-0.078,-0.024,-0.142,-0.161,-0.132,-0.122,-0.029
0.748,-0.024,-0.112,-0.088,0.068,0.029,-0.102,-0.01,-0.132,-0.156,-0.122,-0.122,-0.059
0.75,-0.039,-0.132,-0.093,0.088,0.024,-0.112,-0.01,-0.132,-0.161,-0.117,-0.132,-0.078
0.752,-0.063,-0.132,-0.068,0.098,0.0,-0.102,-0.015,-0.132,-0.166,-0.127,-0.142,-0.093
0.754,-0.063,-0.132,-0.068,0.098,0.0,-0.102,-0.02,-0.151,-0.181,-0.137,-0.142,-0.083
0.756,-0.063,-0.122,-0.059,0.093,-0.005,-0.093,-0.029,-0.161,-0.19,-0.127,-0.137,-0.049
0.758,-0.054,-0.112,-0.059,0.083,0.0,-0.088,-0.02,-0.132,-0.166,-0.107,-0.107,-0.015
0.76,-0.059,-0.132,-0.073,0.098,0.005,-0.102,-0.005,-0.112,-0.146,-0.098,-0.102,0.01
0.762,-0.049,-0.117,-0.068,0.083,0.01,-0.093,-0.015,-0.127,-0.156,-0.102,-0.112,0.01
0.764,-0.034,-0.107,-0.073,0.073,0.02,-0.093,-0.024,-0.142,-0.171,-0.117,-0.137,-0.029
0.766,-0.029,-0.088,-0.059,0.059,0.015,-0.073,-0.029,-0.142,-0.171,-0.127,-0.146,-0.054
0.768,-0.059,-0.098,-0.039,0.078,-0.01,-0.068,-0.02,-0.137,-0.171,-0.127,-0.156,-0.088
0.77,-0.063,-0.098,-0.034,0.083,-0.015,-0.068,-0.015,-0.132,-0.161,-0.117,-0.146,-0.093
0.772,-0.063,-0.093,-0.029,0.078,-0.02,-0.063,-0.02,-0.132,-0.161,-0.122,-0.146,-0.083
0.774,-0.049,-0.098,-0.049,0.073,0.0,-0.073,-0.01,-0.127,-0.161,-0.122,-0.132,-0.054
0.776,-0.059,-0.102,-0.044,0.083,-0.01,-0.073,-0.005,-0.132,-0.166,-0.112,-0.132,-0.034
0.778,-0.063,-0.122,-0.059,0.093,-0.005,-0.093,-0.01,-0.132,-0.161,-0.117,-0.132,-0.005
0.78,-0.059,-0.117,-0.059,0.088,0.0,-0.088,-0.02,-0.142,-0.161,-0.122,-0.132,-0.005
0.782,-0.054,-0.122,-0.068,0.088,0.005,-0.098,-0.015,-0.137,-0.161,-0.117,-0.127,0.0
0.784,-0.049,-0.127,-0.078,0.088,0.015,-0.102,-0.01,-0.127,-0.166,-0.122,-0.132,-0.02
0.786,-0.049,-0.107,-0.059,0.078,0.005,-0.083,-0.005,-0.127,-0.166,-0.117,-0.137,-0.044
0.788,-0.063,-0.098,-0.034,0.083,-0.015,-0.068,-0.005,-0.132,-0.166,-0.122,-0.142,-0.073
0.79,-0.073,-0.083,-0.01,0.078,-0.034,-0.049,-0.005,-0.132,-0.171,-0.122,-0.151,-0.098
0.792,-0.029,-0.054,-0.024,0.044,-0.005,-0.039,-0.02,-0.146,-0.181,-0.142,-0.171,-0.117
0.794,-0.005,-0.034,-0.029,0.02,0.01,-0.034,-0.034,-0.166,-0.2,-0.171,-0.185,-0.127
0.796,-0.015,-0.063,-0.049,0.039,0.015,-0.059,-0.024,-0.156,-0.185,-0.156,-0.176,-0.093
0.798,-0.024,-0.083,-0.059,0.054,0.015,-0.073,-0.02,-0.146,-0.181,-0.146,-0.146,-0.054
0.8,-0.039,-0.142,-0.102,0.093,0.029,-0.122,0.005,-0.117,-0.151,-0.117,-0.107,-0.01
0.802,-0.044,-0.19,-0.146,0.117,0.049,-0.171,0.024,-0.102,-0.132,-0.088,-0.098,-0.01
0.804,-0.049,-0.151,-0.102,0.102,0.024,-0.127,0.0,-0.117,-0.151,-0.102,-0.117,-0.044
0.806,-0.059,-0.122,-0.063,0.093,0.0,-0.093,-0.01,-0.132,-0.161,-0.117,-0.142,-0.083
0.808,-0.063,-0.107,-0.044,0.088,-0.01,-0.078,-0.015,-0.132,-0.166,-0.127,-0.166,-0.117
0.81,-0.054,-0.107,-0.054,0.083,0.0,-0.083,0.0,-0.122,-0.161,-0.117,-0.156,-0.132
0.812,-0.063,-0.107,-0.044,0.088,-0.01,-0.078,0.02,-0.107,-0.166,-0.117,-0.137,-0.107
0.814,-0.039,-0.098,-0.059,0.068,0.01,-0.078,0.034,-0.122,-0.205,-0.132,-0.146,-0.117
0.816,-0.063,-0.098,-0.034,0.083,-0.015,-0.068,0.039,-0.122,-0.239,-0.151,-0.151,-0.102
0.818,-0.068,-0.107,-0.039,0.088,-0.015,-0.073,0.073,-0.088,-0.249,-0.151,-0.137,-0.078
0.82,-0.078,-0.098,-0.02,0.088,-0.029,-0.059,0.122,-0.02,-0.239,-0.146,-0.132,-0.093
0.822,-0.078,-0.078,0.0,0.078,-0.039,-0.039,0.176,0.083,-0.171,-0.088,-0.093,-0.068
0.824,-0.078,-0.02,0.059,0.049,-0.068,0.02,0.224,0.215,-0.054,-0.005,-0.049,-0.049
0.826,-0.059,0.015,0.073,0.024,-0.068,0.044,0.268,0.376,0.112,0.132,0.015,-0.059
0.828,-0.015,0.034,0.049,-0.01,-0.034,0.039,0.273,0.493,0.337,0.303,0.093,-0.049
0.83,0.044,0.093,0.049,-0.068,-0.005,0.068,0.254,0.571,0.605,0.512,0.2,0.024
0.832,0.073,0.137,0.063,-0.102,0.005,0.098,0.22,0.669,0.952,0.771,0.356,0.122
0.834,0.151,0.205,0.054,-0.176,0.049,0.127,0.142,0.771,1.342,1.064,0.532,0.244
0.836,0.264,0.283,0.02,-0.273,0.122,0.151,0.039,0.834,1.762,1.362,0.717,0.361
0.838,0.386,0.366,-0.02,-0.376,0.2,0.171,-0.073,0.869,2.196,1.654,0.903,0.508
0.84,0.493,0.473,-0.02,-0.483,0.254,0.224,-0.205,0.795,2.552,1.884,1.069,0.644
0.842,0.566,0.551,-0.015,-0.556,0.288,0.268,-0.356,0.639,2.733,1.991,1.166,0.737
0.844,0.625,0.532,-0.093,-0.576,0.356,0.22,-0.503,0.478,2.743,1.898,1.137,0.742
0.846,0.634,0.429,-0.205,-0.532,0.42,0.112,-0.63,0.351,2.586,1.674,1.005,0.659
0.848,0.6,0.317,-0.283,-0.459,0.439,0.015,-0.717,0.156,2.279,1.42,0.878,0.576
0.85,0.556,0.224,-0.332,-0.39,0.444,-0.054,-0.805,-0.137,1.776,1.098,0.732,0.517
0.852,0.449,0.19,-0.259,-0.317,0.351,-0.034,-0.83,-0.464,1.132,0.712,0.561,0.449
0.854,0.322,0.127,-0.195,-0.224,0.259,-0.034,-0.786,-0.742,0.498,0.376,0.386,0.361
0.856,0.234,0.049,-0.185,-0.142,0.21,-0.068,-0.717,-0.961,-0.054,0.078,0.224,0.254
0.858,0.171,-0.039,-0.21,-0.063,0.19,-0.127,-0.654,-1.064,-0.415,-0.156,0.083,0.19
0.86,0.146,-0.132,-0.278,-0.005,0.21,-0.205,-0.6,-1.025,-0.537,-0.283,-0.029,0.098
0.862,0.107,-0.142,-0.249,0.02,0.176,-0.195,-0.537,-0.917,-0.532,-0.332,-0.098,0.024
0.864,0.063,-0.156,-0.22,0.049,0.142,-0.19,-0.478,-0.8,-0.508,-0.346,-0.132,-0.029
0.866,0.034,-0.137,-0.171,0.054,0.102,-0.156,-0.425,-0.678,-0.454,-0.332,-0.171,-0.088
0.868,0.005,-0.093,-0.098,0.044,0.049,-0.098,-0.376,-0.576,-0.405,-0.303,-0.19,-0.142
0.87,-0.01,-0.083,-0.073,0.049,0.029,-0.078,-0.278,-0.434,-0.298,-0.22,-0.146,-0.127
0.872,0.0,-0.078,-0.078,0.039,0.039,-0.078,-0.171,-0.273,-0.181,-0.127,-0.098,-0.098
0.874,-0.029,-0.073,-0.044,0.054,0.005,-0.059,-0.112,-0.181,-0.127,-0.078,-0.083,-0.078
0.876,-0.015,-0.078,-0.063,0.049,0.024,-0.073,-0.078,-0.151,-0.117,-0.068,-0.068,-0.078
0.878,-0.034,-0.098,-0.063,0.068,0.015,-0.083,-0.024,-0.102,-0.093,-0.054,-0.029,-0.034
0.88,-0.059,-0.093,-0.034,0.078,-0.015,-0.063,0.015,-0.068,-0.088,-0.049,-0.015,-0.005
0.882,-0.039,-0.063,-0.024,0.054,-0.01,-0.044,0.015,-0.078,-0.112,-0.073,-0.024,-0.024
0.884,-0.039,-0.059,-0.02,0.049,-0.01,-0.039,0.005,-0.083,-0.132,-0.083,-0.039,-0.054
0.886,-0.059,-0.029,0.029,0.044,-0.044,0.0,0.0,-0.078,-0.137,-0.088,-0.063,-0.088
0.888,-0.054,-0.044,0.01,0.049,-0.034,-0.02,0.005,-0.068,-0.137,-0.088,-0.073,-0.117
0.89,-0.059,-0.098,-0.039,0.078,-0.01,-0.068,0.005,-0.068,-0.132,-0.088,-0.107,-0.142
0.892,-0.049,-0.098,-0.049,0.073,0.0,-0.073,0.0,-0.073,-0.142,-0.098,-0.132,-0.156
0.894,-0.078,-0.078,0.0,0.078,-0.039,-0.039,0.01,-0.068,-0.151,-0.102,-0.137,-0.161
0.896,-0.083,-0.088,-0.005,0.088,-0.039,-0.049,0.039,-0.059,-0.142,-0.093,-0.112,-0.127
0.898,-0.063,-0.073,-0.01,0.068,-0.029,-0.044,0.039,-0.054,-0.137,-0.083,-0.093,-0.093
0.9,-0.044,-0.059,-0.015,0.054,-0.015,-0.039,0.029,-0.049,-0.156,-0.102,-0.107,-0.098
0.902,-0.044,-0.078,-0.034,0.063,-0.005,-0.059,0.039,-0.034,-0.142,-0.088,-0.098,-0.078
0.904,-0.083,-0.083,0.0,0.083,-0.044,-0.044,0.073,-0.005,-0.112,-0.063,-0.083,-0.068
0.906,-0.088,-0.102,-0.015,0.098,-0.039,-0.059,0.068,-0.005,-0.117,-0.068,-0.098,-0.102
0.908,-0.083,-0.073,0.01,0.078,-0.049,-0.034,0.049,-0.02,-0.137,-0.088,-0.112,-0.151
0.91,-0.059,-0.034,0.024,0.049,-0.044,-0.005,0.029,-0.044,-0.146,-0.093,-0.117,-0.171
0.912,-0.029,-0.034,-0.005,0.034,-0.015,-0.02,0.024,-0.039,-0.151,-0.102,-0.122,-0.176
0.914,-0.039,-0.063,-0.024,0.054,-0.01,-0.044,0.044,-0.029,-0.137,-0.093,-0.112,-0.146
0.916,-0.039,-0.093,-0.054,0.068,0.005,-0.073,0.063,-0.02,-0.132,-0.088,-0.098,-0.122
0.918,-0.063,-0.098,-0.034,0.083,-0.015,-0.068,0.073,-0.024,-0.132,-0.088,-0.083,-0.088
0.92,-0.063,-0.059,0.005,0.063,-0.034,-0.029,0.073,-0.01,-0.142,-0.098,-0.093,-0.083
0.922,-0.088,-0.068,0.02,0.078,-0.054,-0.024,0.073,-0.005,-0.127,-0.088,-0.083,-0.078
0.924,-0.102,-0.102,0.0,0.102,-0.054,-0.054,0.088,0.015,-0.107,-0.063,-0.063,-0.068
0.926,-0.093,-0.083,0.01,0.088,-0.054,-0.039,0.063,0.005,-0.117,-0.078,-0.083,-0.107
0.928,-0.098,-0.078,0.02,0.088,-0.059,-0.029,0.059,0.01,-0.127,-0.088,-0.098,-0.146
0.93,-0.078,-0.078,0.0,0.078,-0.039,-0.039,0.059,0.015,-0.107,-0.078,-0.093,-0.151
0.932,-0.059,-0.059,0.0,0.059,-0.029,-0.029,0.039,0.0,-0.127,-0.098,-0.107,-0.171
0.934,-0.063,-0.073,-0.01,0.068,-0.029,-0.044,0.044,-0.005,-0.137,-0.107,-0.112,-0.161
0.936,-0.054,-0.098,-0.044,0.078,-0.005,-0.073,0.063,0.01,-0.112,-0.088,-0.083,-0.122
0.938,-0.044,-0.093,-0.049,0.068,0.0,-0.073,0.073,0.02,-0.102,-0.063,-0.059,-0.078
0.94,-0.068,-0.078,-0.01,0.073,-0.029,-0.044,0.083,0.015,-0.112,-0.073,-0.068,-0.059
0.942,-0.078,-0.088,-0.01,0.083,-0.034,-0.049,0.068,0.01,-0.127,-0.078,-0.093,-0.059
0.944,-0.098,-0.102,-0.005,0.102,-0.049,-0.054,0.059,0.01,-0.127,-0.083,-0.102,-0.073
0.946,-0.073,-0.073,0.0,0.073,-0.039,-0.039,0.059,0.015,-0.122,-0.078,-0.102,-0.098
0.948,-0.049,-0.063,-0.015,0.059,-0.02,-0.039,0.049,0.01,-0.127,-0.093,-0.117,-0.137
0.95,-0.073,-0.078,-0.005,0.078,-0.034,-0.044,0.054,0.015,-0.112,-0.078,-0.107,-0.132
0.952,-0.063,-0.054,0.01,0.059,-0.039,-0.024,0.063,0.02,-0.112,-0.078,-0.107,-0.137
0.954,-0.059,-0.049,0.01,0.054,-0.034,-0.02,0.054,0.015,-0.117,-0.083,-0.112,-0.127
0.956,-0.054,-0.078,-0.024,0.068,-0.015,-0.054,0.063,0.02,-0.117,-0.088,-0.098,-0.102
0.958,-0.068,-0.093,-0.024,0.083,-0.024,-0.059,0.088,0.039,-0.098,-0.068,-0.068,-0.059
0.96,-0.068,-0.102,-0.034,0.088,-0.02,-0.068,0.107,0.054,-0.093,-0.063,-0.063,-0.049
0.962,-0.054,-0.088,-0.034,0.073,-0.01,-0.063,0.098,0.054,-0.093,-0.054,-0.063,-0.034
0.964,-0.039,-0.093,-0.054,0.068,0.005,-0.073,0.083,0.049,-0.098,-0.059,-0.078,-0.068
0.966,-0.054,-0.088,-0.034,0.073,-0.01,-0.063,0.068,0.049,-0.107,-0.073,-0.093,-0.098
0.968,-0.049,-0.044,0.005,0.049,-0.029,-0.02,0.063,0.054,-0.112,-0.078,-0.093,-0.122
0.97,-0.044,-0.049,-0.005,0.049,-0.02,-0.029,0.059,0.039,-0.112,-0.083,-0.098,-0.142
0.972,-0.073,-0.034,0.039,0.054,-0.059,0.0,0.063,0.044,-0.098,-0.063,-0.068,-0.117
0.974,-0.078,-0.068,0.01,0.073,-0.044,-0.029,0.088,0.063,-0.083,-0.049,-0.059,-0.098
0.976,-0.049,-0.107,-0.059,0.078,0.005,-0.083,0.102,0.073,-0.073,-0.039,-0.049,-0.078
0.978,-0.044,-0.102,-0.059,0.073,0.005,-0.083,0.098,0.078,-0.073,-0.034,-0.029,-0.044
0.98,-0.078,-0.102,-0.024,0.093,-0.029,-0.063,0.098,0.083,-0.083,-0.039,-0.024,-0.034
0.982,-0.034,-0.073,-0.039,0.054,0.0,-0.059,0.102,0.078,-0.083,-0.039,-0.024,-0.034
0.984,0.0,-0.034,-0.034,0.02,0.015,-0.034,0.073,0.054,-0.107,-0.078,-0.054,-0.063
0.986,-0.039,-0.063,-0.024,0.054,-0.01,-0.044,0.063,0.059,-0.117,-0.088,-0.088,-0.088
0.988,-0.054,-0.054,0.0,0.054,-0.029,-0.029,0.088,0.088,-0.093,-0.063,-0.102,-0.088
0.99,-0.063,-0.044,0.02,0.054,-0.044,-0.015,0.093,0.093,-0.068,-0.029,-0.107,-0.083
0.992,-0.059,-0.029,0.029,0.044,-0.044,0.0,0.088,0.098,-0.063,-0.024,-0.107,-0.078
0.994,-0.034,-0.005,0.029,0.02,-0.034,0.01,0.083,0.083,-0.083,-0.049,-0.093,-0.078
0.996,-0.039,-0.029,0.01,0.034,-0.024,-0.01,0.083,0.083,-0.083,-0.049,-0.054,-0.083
0.998,-0.049,-0.093,-0.044,0.073,-0.005,-0.068,0.093,0.102,-0.068,-0.029,-0.005,-0.063
1.0,-0.039,-0.073,-0.034,0.059,-0.005,-0.054,0.098,0.117,-0.068,-0.024,0.01,-0.063
1.002,-0.049,-0.029,0.02,0.039,-0.034,-0.005,0.102,0.117,-0.063,-0.024,-0.01,-0.068
1.004,-0.054,-0.029,0.024,0.044,-0.039,-0.005,0.098,0.117,-0.059,-0.029,-0.034,-0.068
1.006,-0.034,-0.034,0.0,0.034,-0.02,-0.02,0.093,0.112,-0.063,-0.034,-0.063,-0.073
1.008,-0.049,-0.049,0.0,0.049,-0.024,-0.024,0.112,0.127,-0.059,-0.034,-0.078,-0.068
1.01,-0.054,-0.059,-0.005,0.059,-0.024,-0.034,0.112,0.137,-0.044,-0.02,-0.063,-0.063
1.012,-0.063,-0.083,-0.02,0.073,-0.024,-0.054,0.107,0.146,-0.029,-0.015,-0.063,-0.063
1.014,-0.044,-0.054,-0.01,0.049,-0.02,-0.034,0.122,0.156,-0.02,-0.01,-0.044,-0.063
1.016,-0.029,-0.02,0.01,0.024,-0.02,-0.005,0.112,0.146,-0.029,-0.02,-0.039,-0.044
1.018,-0.039,-0.039,0.0,0.039,-0.02,-0.02,0.098,0.142,-0.034,-0.015,-0.024,0.005
1.02,-0.01,-0.01,0.0,0.01,-0.005,-0.005,0.102,0.151,-0.02,0.0,0.01,0.054
1.022,-0.005,-0.024,-0.02,0.015,0.005,-0.024,0.117,0.166,-0.005,0.015,0.034,0.098
1.024,0.0,-0.034,-0.034,0.02,0.015,-0.034,0.107,0.166,-0.015,0.005,0.015,0.107
1.026,-0.015,-0.015,0.0,0.015,-0.01,-0.01,0.093,0.166,-0.015,0.01,-0.02,0.102
1.028,-0.034,-0.024,0.01,0.029,-0.024,-0.01,0.093,0.171,0.0,0.015,-0.039,0.098
1.03,-0.044,-0.015,0.029,0.029,-0.039,0.005,0.102,0.181,0.01,0.024,-0.029,0.117
1.032,-0.044,-0.02,0.024,0.034,-0.034,0.0,0.112,0.19,0.024,0.034,-0.01,0.127
1.034,0.0,-0.044,-0.044,0.024,0.02,-0.044,0.107,0.195,0.024,0.034,-0.01,0.122
1.036,0.0,-0.02,-0.02,0.01,0.01,-0.02,0.098,0.195,0.024,0.034,0.0,0.117
1.038,0.01,-0.01,-0.02,0.0,0.015,-0.015,0.102,0.2,0.034,0.044,0.024,0.132
1.04,0.01,0.024,0.015,-0.015,-0.005,0.02,0.093,0.205,0.024,0.034,0.034,0.137
1.042,0.01,0.044,0.034,-0.024,-0.015,0.039,0.083,0.2,0.024,0.034,0.049,0.137
1.044,-0.024,0.0,0.024,0.015,-0.024,0.01,0.098,0.224,0.049,0.054,0.059,0.156
1.046,-0.005,0.0,0.005,0.005,-0.005,0.0,0.107,0.244,0.063,0.063,0.044,0.166
1.048,0.02,0.02,0.0,-0.02,0.01,0.01,0.107,0.249,0.068,0.059,0.024,0.166
1.05,0.01,0.02,0.01,-0.015,0.0,0.015,0.117,0.264,0.083,0.078,0.029,0.176
1.052,-0.015,0.049,0.063,-0.015,-0.039,0.054,0.117,0.268,0.088,0.083,0.029,0.181
1.054,-0.029,0.029,0.059,0.0,-0.044,0.044,0.127,0.273,0.102,0.098,0.049,0.195
1.056,-0.02,-0.01,0.01,0.015,-0.015,0.0,0.122,0.283,0.117,0.102,0.078,0.2
1.058,0.015,0.0,-0.015,-0.005,0.015,-0.01,0.127,0.298,0.132,0.117,0.117,0.229
1.06,0.005,0.039,0.034,-0.02,-0.015,0.034,0.137,0.312,0.137,0.127,0.132,0.254
1.062,0.02,0.059,0.039,-0.039,-0.01,0.049,0.132,0.312,0.151,0.142,0.142,0.268
1.064,0.034,0.059,0.024,-0.044,0.005,0.039,0.132,0.327,0.156,0.142,0.137,0.278
1.066,0.059,0.078,0.02,-0.068,0.02,0.049,0.127,0.332,0.166,0.142,0.117,0.249
1.068,0.054,0.102,0.049,-0.078,0.0,0.073,0.112,0.332,0.171,0.137,0.102,0.224
1.07,0.02,0.122,0.102,-0.068,-0.044,0.112,0.102,0.342,0.19,0.156,0.112,0.22
1.072,0.02,0.093,0.073,-0.054,-0.029,0.083,0.117,0.366,0.215,0.171,0.132,0.22
1.074,0.049,0.107,0.059,-0.078,-0.005,0.083,0.107,0.361,0.215,0.166,0.142,0.229
1.076,0.039,0.083,0.044,-0.059,-0.005,0.063,0.107,0.366,0.215,0.166,0.156,0.229
1.078,0.078,0.093,0.015,-0.083,0.029,0.054,0.107,0.366,0.229,0.185,0.185,0.259
1.08,0.083,0.107,0.024,-0.093,0.029,0.063,0.093,0.371,0.239,0.21,0.205,0.283
1.082,0.024,0.073,0.049,-0.049,-0.015,0.059,0.102,0.395,0.264,0.229,0.224,0.317
1.084,0.054,0.098,0.044,-0.073,0.005,0.068,0.122,0.42,0.288,0.239,0.229,0.332
1.086,0.073,0.127,0.054,-0.098,0.01,0.088,0.127,0.429,0.303,0.244,0.22,0.322
1.088,0.063,0.151,0.088,-0.107,-0.015,0.117,0.127,0.444,0.327,0.268,0.2,0.303
1.09,0.078,0.166,0.088,-0.122,-0.005,0.127,0.117,0.449,0.337,0.283,0.205,0.293
1.092,0.083,0.161,0.078,-0.122,0.0,0.117,0.107,0.444,0.342,0.283,0.215,0.283
1.094,0.088,0.137,0.049,-0.112,0.02,0.093,0.112,0.459,0.361,0.298,0.239,0.303
1.096,0.054,0.132,0.078,-0.093,-0.015,0.102,0.117,0.459,0.371,0.312,0.254,0.312
1.098,0.054,0.122,0.068,-0.088,-0.01,0.093,0.117,0.468,0.386,0.322,0.283,0.337
1.1,0.107,0.156,0.049,-0.132,0.029,0.102,0.102,0.454,0.371,0.312,0.283,0.346
1.102,0.107,0.185,0.078,-0.146,0.015,0.132,0.107,0.459,0.386,0.337,0.312,0.371
1.104,0.102,0.205,0.102,-0.151,0.0,0.151,0.117,0.468,0.41,0.351,0.312,0.376
1.106,0.132,0.205,0.073,-0.166,0.029,0.137,0.112,0.478,0.42,0.356,0.312,0.381
1.108,0.146,0.2,0.054,-0.171,0.044,0.127,0.102,0.478,0.42,0.356,0.293,0.361
1.11,0.142,0.22,0.078,-0.181,0.029,0.146,0.102,0.478,0.434,0.361,0.264,0.342
1.112,0.137,0.224,0.088,-0.181,0.024,0.156,0.107,0.488,0.454,0.376,0.283,0.356
1.114,0.161,0.22,0.059,-0.19,0.049,0.137,0.093,0.483,0.459,0.386,0.317,0.366
1.116,0.171,0.229,0.059,-0.2,0.054,0.142,0.098,0.483,0.464,0.405,0.346,0.371
1.118,0.127,0.215,0.088,-0.171,0.02,0.151,0.102,0.488,0.478,0.42,0.371,0.395
1.12,0.132,0.224,0.093,-0.176,0.02,0.156,0.102,0.488,0.473,0.415,0.376,0.405
1.122,0.156,0.229,0.073,-0.19,0.039,0.151,0.093,0.483,0.478,0.405,0.361,0.4
1.124,0.132,0.21,0.078,-0.171,0.024,0.142,0.088,0.478,0.478,0.4,0.346,0.386
1.126,0.137,0.229,0.093,-0.181,0.02,0.161,0.083,0.478,0.488,0.41,0.337,0.381
1.128,0.132,0.244,0.112,-0.185,0.01,0.176,0.073,0.468,0.488,0.41,0.327,0.351
1.13,0.112,0.224,0.112,-0.166,0.0,0.166,0.083,0.468,0.493,0.415,0.322,0.332
1.132,0.137,0.234,0.098,-0.185,0.02,0.166,0.073,0.459,0.498,0.415,0.327,0.322
1.134,0.142,0.229,0.088,-0.185,0.024,0.156,0.078,0.454,0.493,0.415,0.337,0.327
1.136,0.142,0.22,0.078,-0.181,0.029,0.146,0.098,0.449,0.488,0.415,0.351,0.346
1.138,0.151,0.22,0.068,-0.185,0.039,0.142,0.078,0.42,0.464,0.4,0.342,0.346
1.14,0.122,0.195,0.073,-0.156,0.024,0.132,0.083,0.429,0.459,0.395,0.337,0.371
1.142,0.098,0.156,0.059,-0.127,0.02,0.107,0.083,0.415,0.439,0.376,0.317,0.361
1.144,0.122,0.166,0.044,-0.142,0.039,0.102,0.073,0.381,0.415,0.346,0.288,0.332
1.146,0.132,0.2,0.068,-0.166,0.029,0.132,0.059,0.351,0.386,0.317,0.254,0.288
1.148,0.127,0.215,0.088,-0.171,0.02,0.151,0.059,0.337,0.366,0.307,0.239,0.249
1.15,0.093,0.195,0.102,-0.142,-0.005,0.146,0.054,0.322,0.351,0.288,0.22,0.215
1.152,0.073,0.161,0.088,-0.117,-0.01,0.122,0.059,0.303,0.332,0.273,0.2,0.215
1.154,0.088,0.142,0.054,-0.112,0.015,0.098,0.068,0.288,0.312,0.268,0.205,0.22
1.156,0.059,0.127,0.068,-0.093,-0.005,0.098,0.073,0.283,0.298,0.254,0.22,0.234
1.158,0.068,0.122,0.054,-0.093,0.005,0.088,0.063,0.264,0.273,0.234,0.244,0.268
1.16,0.063,0.112,0.049,-0.088,0.005,0.078,0.049,0.234,0.239,0.21,0.215,0.254
1.162,0.039,0.088,0.049,-0.063,-0.005,0.068,0.049,0.22,0.234,0.22,0.2,0.249
1.164,0.01,0.093,0.083,-0.049,-0.039,0.088,0.059,0.21,0.224,0.21,0.161,0.229
1.166,-0.01,0.093,0.102,-0.039,-0.059,0.098,0.054,0.181,0.19,0.181,0.112,0.176
1.168,0.0,0.088,0.088,-0.044,-0.044,0.088,0.063,0.166,0.161,0.156,0.093,0.132
1.17,0.02,0.093,0.073,-0.054,-0.029,0.083,0.063,0.151,0.146,0.137,0.083,0.098
1.172,-0.005,0.059,0.063,-0.024,-0.034,0.059,0.054,0.142,0.132,0.122,0.083,0.083
1.174,-0.005,0.044,0.049,-0.02,-0.029,0.044,0.063,0.137,0.122,0.127,0.088,0.093
1.176,0.005,0.044,0.039,-0.024,-0.02,0.039,0.063,0.122,0.112,0.112,0.083,0.122
1.178,0.005,0.039,0.034,-0.02,-0.015,0.034,0.059,0.102,0.093,0.107,0.073,0.146
1.18,-0.005,0.0,0.005,0.005,-0.005,0.0,0.063,0.102,0.083,0.107,0.083,0.166
1.182,-0.005,-0.034,-0.029,0.02,0.01,-0.034,0.063,0.093,0.073,0.102,0.083,0.166
1.184,0.01,0.01,0.0,-0.01,0.005,0.005,0.044,0.059,0.039,0.059,0.059,0.132
1.186,0.005,0.059,0.054,-0.029,-0.024,0.054,0.024,0.034,0.01,0.02,0.029,0.093
1.188,-0.024,0.054,0.078,-0.015,-0.054,0.063,0.02,0.029,0.0,0.015,0.0,0.044
1.19,-0.044,0.034,0.078,0.005,-0.063,0.054,0.024,0.034,0.01,0.024,0.0,0.049
1.192,-0.015,0.0,0.015,0.01,-0.015,0.005,0.02,0.024,-0.01,0.005,-0.005,0.044
1.194,-0.029,-0.034,-0.005,0.034,-0.015,-0.02,0.034,0.029,0.0,0.01,0.0,0.059
1.196,-0.024,-0.015,0.01,0.02,-0.02,-0.005,0.024,0.02,-0.01,0.01,0.005,0.073
1.198,-0.024,-0.005,0.02,0.015,-0.024,0.005,0.02,0.01,-0.024,0.005,0.01,0.093
1.2,-0.039,0.01,0.049,0.015,-0.044,0.029,0.01,0.0,-0.034,-0.005,0.015,0.112
1.202,-0.029,0.01,0.039,0.01,-0.034,0.024,0.01,-0.01,-0.044,-0.015,0.005,0.112
1.204,0.005,0.015,0.01,-0.01,-0.005,0.01,0.01,-0.01,-0.054,-0.029,-0.005,0.093
1.206,0.073,0.044,-0.029,-0.059,0.049,0.005,0.005,-0.005,-0.054,-0.02,-0.005,0.078
1.208,0.063,0.034,-0.029,-0.049,0.044,0.0,0.005,-0.01,-0.054,-0.029,-0.02,0.044
1.21,0.005,-0.024,-0.029,0.01,0.015,-0.029,0.015,-0.01,-0.049,-0.024,-0.015,0.029
1.212,-0.063,-0.059,0.005,0.063,-0.034,-0.029,0.024,-0.005,-0.039,-0.015,0.005,0.039
1.214,-0.063,-0.068,-0.005,0.068,-0.029,-0.039,0.034,0.005,-0.034,-0.01,0.005,0.039
1.216,-0.054,-0.068,-0.015,0.063,-0.02,-0.044,0.024,-0.005,-0.034,-0.02,0.0,0.034
1.218,-0.054,-0.073,-0.02,0.063,-0.02,-0.049,0.039,-0.005,-0.029,-0.015,0.02,0.083
1.22,-0.024,-0.039,-0.015,0.034,-0.005,-0.029,0.034,0.0,-0.039,-0.02,0.02,0.093
1.222,-0.015,0.015,0.029,0.0,-0.024,0.02,0.02,-0.015,-0.044,-0.02,0.005,0.083
1.224,-0.034,0.0,0.034,0.02,-0.034,0.015,0.01,-0.029,-0.063,-0.044,-0.01,0.073
1.226,-0.015,0.0,0.015,0.01,-0.015,0.005,0.0,-0.054,-0.083,-0.073,-0.034,0.039
1.228,-0.005,0.005,0.01,0.0,-0.01,0.005,0.02,-0.034,-0.068,-0.054,-0.029,0.024
1.23,-0.044,-0.044,0.0,0.044,-0.024,-0.024,0.054,0.005,-0.029,-0.01,0.005,0.034
1.232,-0.044,-0.068,-0.024,0.059,-0.01,-0.049,0.049,0.0,-0.029,-0.02,0.0,0.024
1.234,-0.049,-0.049,0.0,0.049,-0.024,-0.024,0.029,-0.015,-0.049,-0.034,-0.029,0.015
1.236,-0.044,-0.039,0.005,0.044,-0.024,-0.02,0.039,-0.02,-0.049,-0.029,-0.029,0.029
1.238,-0.024,-0.034,-0.01,0.029,-0.01,-0.024,0.039,-0.015,-0.039,-0.02,-0.01,0.063
1.24,-0.039,-0.049,-0.01,0.044,-0.015,-0.029,0.044,-0.005,-0.044,-0.024,-0.005,0.083
1.242,-0.063,-0.068,-0.005,0.068,-0.029,-0.039,0.029,-0.015,-0.054,-0.034,-0.015,0.073
1.244,-0.044,-0.039,0.005,0.044,-0.024,-0.02,0.02,-0.029,-0.073,-0.054,-0.024,0.044
1.246,-0.039,-0.029,0.01,0.034,-0.024,-0.01,0.02,-0.034,-0.078,-0.063,-0.034,0.02
1.248,-0.039,-0.02,0.02,0.029,-0.029,0.0,0.015,-0.039,-0.088,-0.073,-0.039,-0.01
1.25,-0.039,-0.024,0.015,0.034,-0.029,-0.005,0.02,-0.044,-0.083,-0.073,-0.044,-0.024
1.252,-0.024,-0.01,0.015,0.02,-0.02,0.0,0.02,-0.039,-0.083,-0.073,-0.044,-0.024
1.254,-0.02,-0.005,0.015,0.015,-0.02,0.005,0.024,-0.039,-0.088,-0.078,-0.049,-0.01
1.256,-0.029,-0.024,0.005,0.029,-0.02,-0.01,0.029,-0.039,-0.083,-0.063,-0.049,0.01
1.258,-0.029,-0.029,0.0,0.029,-0.015,-0.015,0.01,-0.039,-0.083,-0.054,-0.054,0.034
1.26,-0.029,-0.024,0.005,0.029,-0.02,-0.01,0.01,-0.039,-0.093,-0.068,-0.054,0.044
1.262,-0.039,-0.073,-0.034,0.059,-0.005,-0.054,0.034,-0.024,-0.068,-0.054,-0.024,0.063
1.264,-0.034,-0.044,-0.01,0.039,-0.015,-0.029,0.02,-0.044,-0.093,-0.073,-0.039,0.034
1.266,-0.044,-0.024,0.02,0.034,-0.034,-0.005,0.015,-0.044,-0.102,-0.078,-0.039,0.015
1.268,-0.015,0.02,0.034,0.0,-0.024,0.024,0.015,-0.044,-0.102,-0.078,-0.054,-0.02
1.27,-0.015,0.024,0.039,-0.005,-0.029,0.029,0.029,-0.029,-0.078,-0.059,-0.049,-0.024
1.272,-0.015,-0.039,-0.024,0.029,0.005,-0.034,0.034,-0.02,-0.068,-0.044,-0.044,-0.02
1.274,0.005,-0.049,-0.054,0.024,0.029,-0.054,0.024,-0.02,-0.073,-0.049,-0.044,-0.02
1.276,0.02,-0.024,-0.044,0.005,0.029,-0.034,0.02,-0.034,-0.083,-0.059,-0.039,-0.005
1.278,0.0,-0.024,-0.024,0.015,0.01,-0.024,0.01,-0.044,-0.093,-0.068,-0.044,0.02
1.28,-0.024,-0.044,-0.02,0.034,-0.005,-0.034,0.034,-0.034,-0.093,-0.063,-0.029,0.054
1.282,-0.039,-0.083,-0.044,0.063,0.0,-0.063,0.054,-0.015,-0.078,-0.059,-0.01,0.073
1.284,-0.049,-0.059,-0.01,0.054,-0.02,-0.034,0.039,-0.024,-0.093,-0.073,-0.015,0.063
1.286,-0.034,-0.029,0.005,0.034,-0.02,-0.015,0.039,-0.024,-0.088,-0.059,-0.024,0.034
1.288,-0.01,-0.039,-0.029,0.024,0.01,-0.034,0.029,-0.034,-0.093,-0.063,-0.049,-0.015
1.29,-0.034,-0.054,-0.02,0.044,-0.01,-0.039,0.024,-0.034,-0.083,-0.054,-0.044,-0.02
1.292,-0.034,-0.024,0.01,0.029,-0.024,-0.01,0.039,-0.02,-0.073,-0.044,-0.029,-0.015
1.294,-0.049,-0.02,0.029,0.034,-0.039,0.005,0.029,-0.02,-0.078,-0.049,-0.029,-0.005
1.296,-0.034,-0.01,0.024,0.024,-0.029,0.005,0.044,-0.01,-0.063,-0.034,-0.015,0.02
1.298,-0.02,-0.02,0.0,0.02,-0.01,-0.01,0.049,-0.015,-0.063,-0.029,-0.005,0.059
1.3,-0.01,-0.024,-0.015,0.02,0.0,-0.02,0.039,-0.015,-0.078,-0.039,-0.015,0.059
1.302,-0.024,-0.01,0.015,0.02,-0.02,0.0,0.054,-0.01,-0.068,-0.024,0.0,0.073
1.304,-0.024,-0.01,0.015,0.02,-0.02,0.0,0.068,0.005,-0.044,-0.01,0.02,0.078
1.306,0.0,0.039,0.039,-0.02,-0.02,0.039,0.073,0.015,-0.044,-0.01,0.02,0.068
1.308,-0.01,0.059,0.068,-0.024,-0.039,0.063,0.063,0.0,-0.054,-0.034,0.005,0.029
1.31,-0.02,0.034,0.054,-0.005,-0.039,0.044,0.078,0.005,-0.044,-0.015,0.02,0.02
1.312,-0.005,0.015,0.02,-0.005,-0.015,0.015,0.093,0.034,-0.015,0.01,0.034,0.029
1.314,-0.024,0.029,0.054,0.0,-0.039,0.039,0.078,0.034,-0.015,0.005,0.034,0.044
1.316,-0.02,0.039,0.059,-0.01,-0.039,0.049,0.088,0.049,0.0,0.02,0.054,0.083
1.318,0.0,0.093,0.093,-0.044,-0.049,0.093,0.098,0.054,0.015,0.039,0.063,0.117
1.32,-0.01,0.073,0.083,-0.029,-0.049,0.078,0.098,0.059,0.01,0.039,0.073,0.137
1.322,0.015,0.068,0.054,-0.039,-0.02,0.059,0.088,0.054,0.02,0.049,0.093,0.151
1.324,0.044,0.083,0.039,-0.063,0.0,0.059,0.078,0.054,0.024,0.049,0.093,0.137
1.326,0.034,0.088,0.054,-0.059,-0.01,0.068,0.068,0.049,0.005,0.029,0.063,0.112
1.328,0.024,0.112,0.088,-0.068,-0.034,0.098,0.059,0.039,-0.005,0.024,0.039,0.063
1.33,0.015,0.088,0.073,-0.049,-0.029,0.078,0.068,0.059,0.034,0.049,0.063,0.068
1.332,-0.024,0.063,0.088,-0.02,-0.059,0.073,0.073,0.068,0.034,0.044,0.054,0.063
1.334,-0.015,0.093,0.107,-0.039,-0.063,0.098,0.068,0.054,0.015,0.029,0.039,0.049
1.336,0.01,0.098,0.088,-0.054,-0.039,0.093,0.068,0.049,0.01,0.029,0.044,0.054
1.338,0.0,0.073,0.073,-0.034,-0.039,0.073,0.073,0.049,0.005,0.024,0.059,0.078
1.34,0.015,0.049,0.034,-0.029,-0.01,0.039,0.063,0.039,-0.01,0.01,0.063,0.083
1.342,0.01,0.015,0.005,-0.01,0.0,0.01,0.083,0.044,-0.005,0.02,0.083,0.098
1.344,-0.005,0.029,0.034,-0.01,-0.02,0.029,0.088,0.039,0.005,0.024,0.073,0.093
1.346,0.01,0.044,0.034,-0.024,-0.015,0.039,0.068,0.02,-0.02,0.0,0.034,0.068
1.348,0.024,0.068,0.044,-0.044,-0.01,0.054,0.054,-0.005,-0.044,-0.029,-0.02,0.024
1.35,-0.005,0.049,0.054,-0.02,-0.029,0.049,0.063,-0.01,-0.049,-0.034,-0.029,0.015
1.352,-0.015,0.015,0.029,0.0,-0.024,0.02,0.073,-0.005,-0.044,-0.029,-0.034,0.02
1.354,-0.005,0.024,0.029,-0.01,-0.02,0.024,0.083,-0.015,-0.049,-0.024,-0.029,0.005
1.356,-0.044,0.024,0.068,0.01,-0.059,0.044,0.073,-0.02,-0.059,-0.034,-0.015,0.0
1.358,-0.054,0.034,0.088,0.01,-0.073,0.059,0.063,-0.02,-0.068,-0.039,0.015,0.015
1.36,0.01,0.068,0.059,-0.039,-0.024,0.063,0.054,-0.029,-0.068,-0.044,0.029,0.01
1.362,-0.01,0.024,0.034,-0.005,-0.024,0.029,0.063,-0.024,-0.063,-0.034,0.044,0.029
1.364,-0.02,0.015,0.034,0.005,-0.029,0.024,0.063,-0.024,-0.063,-0.039,0.039,0.039
1.366,-0.005,0.02,0.024,-0.005,-0.015,0.02,0.054,-0.024,-0.068,-0.039,0.01,0.029
1.368,-0.005,0.01,0.015,0.0,-0.01,0.01,0.039,-0.049,-0.083,-0.063,-0.034,0.0
1.37,0.01,0.01,0.0,-0.01,0.005,0.005,0.029,-0.063,-0.088,-0.068,-0.049,-0.01
1.372,-0.005,-0.01,-0.005,0.01,0.0,-0.01,0.029,-0.054,-0.078,-0.063,-0.059,-0.01
1.374,-0.024,-0.02,0.005,0.024,-0.015,-0.01,0.024,-0.059,-0.078,-0.059,-0.039,-0.015
1.376,-0.024,-0.005,0.02,0.015,-0.024,0.005,0.024,-0.054,-0.083,-0.054,-0.01,-0.015
1.378,-0.015,-0.02,-0.005,0.02,-0.005,-0.015,0.024,-0.063,-0.093,-0.063,0.01,-0.005
1.38,-0.02,-0.039,-0.02,0.029,0.0,-0.029,0.02,-0.068,-0.098,-0.068,0.024,-0.01
1.382,-0.015,-0.029,-0.015,0.024,0.0,-0.024,0.01,-0.068,-0.093,-0.068,0.024,-0.01
1.384,-0.029,-0.029,0.0,0.029,-0.015,-0.015,0.015,-0.063,-0.088,-0.073,0.015,0.005
1.386,-0.02,-0.015,0.005,0.02,-0.015,-0.005,0.015,-0.063,-0.088,-0.073,-0.015,0.0
1.388,-0.015,-0.01,0.005,0.015,-0.01,-0.005,-0.005,-0.073,-0.098,-0.088,-0.044,-0.015
1.39,-0.024,-0.024,0.0,0.024,-0.015,-0.015,0.0,-0.078,-0.088,-0.073,-0.044,-0.01
1.392,-0.015,-0.02,-0.005,0.02,-0.005,-0.015,0.0,-0.088,-0.093,-0.083,-0.034,-0.015
1.394,-0.015,-0.034,-0.02,0.024,0.0,-0.029,-0.02,-0.083,-0.093,-0.088,-0.015,-0.029
1.396,-0.039,-0.039,0.0,0.039,-0.02,-0.02,-0.015,-0.083,-0.098,-0.098,-0.01,-0.034
1.398,0.01,-0.039,-0.049,0.015,0.029,-0.044,-0.015,-0.098,-0.107,-0.112,0.0,-0.029
1.4,0.015,-0.083,-0.098,0.034,0.054,-0.093,-0.029,-0.102,-0.112,-0.107,-0.01,-0.034
1.402,-0.01,-0.063,-0.054,0.039,0.02,-0.059,0.0,-0.088,-0.098,-0.078,-0.01,-0.024
1.404,-0.005,-0.054,-0.049,0.029,0.02,-0.054,-0.005,-0.098,-0.107,-0.083,-0.039,-0.039
1.406,0.015,-0.034,-0.049,0.01,0.029,-0.044,-0.024,-0.117,-0.127,-0.112,-0.068,-0.044
1.408,-0.005,0.0,0.005,0.005,-0.005,0.0,-0.024,-0.112,-0.127,-0.107,-0.088,-0.049
1.41,0.0,-0.015,-0.015,0.01,0.005,-0.015,-0.029,-0.122,-0.127,-0.117,-0.107,-0.068
1.412,-0.015,-0.044,-0.029,0.029,0.005,-0.039,-0.039,-0.122,-0.132,-0.122,-0.107,-0.073
1.414,-0.015,-0.049,-0.034,0.034,0.01,-0.044,-0.034,-0.117,-0.122,-0.112,-0.073,-0.063
1.416,-0.015,-0.039,-0.024,0.029,0.005,-0.034,-0.044,-0.122,-0.127,-0.117,-0.063,-0.078
1.418,0.0,-0.034,-0.034,0.02,0.015,-0.034,-0.034,-0.117,-0.107,-0.102,-0.02,-0.059
1.42,-0.005,-0.049,-0.044,0.029,0.02,-0.049,-0.02,-0.112,-0.112,-0.107,0.005,-0.054
1.422,-0.015,-0.059,-0.044,0.039,0.015,-0.054,-0.005,-0.102,-0.102,-0.088,0.024,-0.039
1.424,-0.01,-0.039,-0.029,0.024,0.01,-0.034,-0.005,-0.107,-0.107,-0.088,0.0,-0.049
1.426,-0.015,-0.024,-0.01,0.02,-0.005,-0.02,-0.039,-0.127,-0.132,-0.117,-0.049,-0.073
1.428,-0.005,-0.024,-0.02,0.015,0.005,-0.024,-0.049,-0.137,-0.137,-0.127,-0.088,-0.078
1.43,-0.015,-0.034,-0.02,0.024,0.0,-0.029,-0.029,-0.132,-0.122,-0.117,-0.083,-0.068
1.432,-0.039,-0.039,0.0,0.039,-0.02,-0.02,-0.029,-0.122,-0.122,-0.117,-0.073,-0.063
1.434,-0.029,-0.015,0.015,0.024,-0.024,0.0,-0.044,-0.137,-0.132,-0.132,-0.078,-0.088
1.436,-0.029,-0.054,-0.024,0.044,-0.005,-0.039,-0.029,-0.127,-0.117,-0.117,-0.044,-0.078
1.438,-0.024,-0.078,-0.054,0.054,0.015,-0.068,-0.034,-0.127,-0.122,-0.107,-0.015,-0.068
1.44,-0.02,-0.034,-0.015,0.029,-0.005,-0.024,-0.068,-0.146,-0.142,-0.127,-0.024,-0.093
1.442,0.02,-0.029,-0.049,0.005,0.034,-0.039,-0.044,-0.132,-0.122,-0.107,0.0,-0.068
1.444,0.01,-0.049,-0.059,0.02,0.034,-0.054,-0.02,-0.112,-0.102,-0.093,0.0,-0.063
1.446,0.0,-0.024,-0.024,0.015,0.01,-0.024,-0.034,-0.122,-0.117,-0.112,-0.039,-0.073
1.448,-0.015,-0.024,-0.01,0.02,-0.005,-0.02,-0.044,-0.132,-0.127,-0.127,-0.083,-0.102
1.45,-0.039,-0.054,-0.015,0.049,-0.015,-0.034,-0.02,-0.107,-0.098,-0.098,-0.068,-0.088
1.452,-0.044,-0.063,-0.02,0.054,-0.015,-0.044,-0.015,-0.112,-0.107,-0.102,-0.073,-0.083
1.454,-0.029,-0.063,-0.034,0.049,0.0,-0.049,-0.02,-0.127,-0.127,-0.122,-0.073,-0.098
1.456,-0.01,-0.049,-0.039,0.029,0.015,-0.044,-0.015,-0.127,-0.132,-0.117,-0.049,-0.102
1.458,-0.039,-0.083,-0.044,0.063,0.0,-0.063,0.005,-0.142,-0.151,-0.117,-0.015,-0.073
1.46,-0.073,-0.088,-0.015,0.083,-0.029,-0.054,0.01,-0.171,-0.21,-0.151,-0.015,-0.073
1.462,-0.044,-0.059,-0.015,0.054,-0.015,-0.039,0.029,-0.166,-0.244,-0.156,-0.01,-0.073
1.464,-0.02,-0.01,0.01,0.015,-0.015,0.0,0.059,-0.137,-0.254,-0.166,-0.039,-0.083
1.466,-0.063,0.029,0.093,0.02,-0.078,0.059,0.112,-0.049,-0.215,-0.137,-0.044,-0.083
1.468,-0.083,0.054,0.137,0.015,-0.112,0.093,0.176,0.083,-0.112,-0.059,-0.024,-0.078
1.47,-0.063,0.063,0.127,0.0,-0.098,0.093,0.224,0.254,0.054,0.068,0.029,-0.049
1.472,-0.015,0.098,0.112,-0.039,-0.063,0.102,0.259,0.42,0.254,0.205,0.117,0.005
1.474,0.024,0.156,0.132,-0.088,-0.054,0.142,0.259,0.556,0.527,0.405,0.244,0.059
1.476,0.112,0.21,0.098,-0.161,0.005,0.151,0.224,0.703,0.878,0.664,0.405,0.142
1.478,0.234,0.293,0.059,-0.264,0.088,0.176,0.142,0.849,1.288,0.947,0.581,0.244
1.48,0.342,0.327,-0.015,-0.332,0.176,0.156,0.059,1.0,1.737,1.24,0.756,0.342
1.482,0.439,0.42,-0.02,-0.429,0.229,0.2,-0.049,1.108,2.186,1.537,0.937,0.468
1.484,0.561,0.571,0.01,-0.566,0.273,0.288,-0.205,1.127,2.577,1.786,1.103,0.61
1.486,0.639,0.649,0.01,-0.644,0.312,0.327,-0.381,1.025,2.796,1.923,1.21,0.717
1.488,0.703,0.678,-0.024,-0.688,0.361,0.327,-0.537,0.888,2.835,1.908,1.2,0.752
1.49,0.717,0.542,-0.176,-0.63,0.444,0.181,-0.664,0.732,2.655,1.688,1.083,0.708
1.492,0.712,0.459,-0.254,-0.586,0.483,0.102,-0.766,0.522,2.328,1.415,0.961,0.639
1.494,0.678,0.4,-0.278,-0.537,0.478,0.059,-0.878,0.171,1.83,1.103,0.839,0.576
1.496,0.561,0.342,-0.22,-0.449,0.39,0.059,-0.932,-0.239,1.171,0.732,0.698,0.512
1.498,0.405,0.273,-0.132,-0.337,0.268,0.068,-0.893,-0.59,0.556,0.405,0.561,0.473
1.5,0.327,0.156,-0.171,-0.239,0.249,-0.01,-0.839,-0.878,0.054,0.127,0.4,0.39
1.502,0.249,0.054,-0.195,-0.151,0.22,-0.073,-0.766,-1.039,-0.293,-0.093,0.229,0.264
1.504,0.2,-0.01,-0.21,-0.093,0.205,-0.112,-0.683,-1.035,-0.449,-0.239,0.063,0.137
1.506,0.151,-0.063,-0.215,-0.044,0.181,-0.142,-0.595,-0.922,-0.468,-0.303,-0.054,0.034
1.508,0.102,-0.073,-0.176,-0.015,0.137,-0.127,-0.503,-0.776,-0.434,-0.307,-0.088,-0.044
1.51,0.078,-0.044,-0.122,-0.015,0.098,-0.083,-0.415,-0.605,-0.356,-0.268,-0.073,-0.059
1.512,0.078,-0.015,-0.093,-0.029,0.083,-0.054,-0.327,-0.468,-0.278,-0.215,-0.049,-0.059
1.514,0.063,-0.01,-0.073,-0.024,0.068,-0.044,-0.254,-0.356,-0.195,-0.161,-0.02,-0.039
1.516,0.039,-0.005,-0.044,-0.015,0.039,-0.024,-0.176,-0.254,-0.127,-0.102,0.015,-0.015
1.518,0.015,-0.01,-0.024,0.0,0.02,-0.02,-0.107,-0.171,-0.083,-0.063,0.044,0.02
1.52,0.024,0.015,-0.01,-0.02,0.015,0.0,-0.083,-0.142,-0.078,-0.063,0.034,0.02
1.522,0.029,0.029,0.0,-0.029,0.015,0.015,-0.059,-0.112,-0.063,-0.054,0.015,0.015
1.524,0.034,0.039,0.005,-0.034,0.015,0.02,-0.044,-0.098,-0.068,-0.068,-0.01,-0.015
1.526,0.039,0.029,-0.01,-0.034,0.024,0.01,-0.044,-0.102,-0.093,-0.083,-0.029,-0.039
1.528,0.049,0.015,-0.034,-0.029,0.039,-0.01,-0.039,-0.098,-0.102,-0.093,-0.039,-0.073
1.53,0.039,0.039,0.0,-0.039,0.02,0.02,-0.039,-0.088,-0.112,-0.107,-0.044,-0.098
1.532,0.005,0.0,-0.005,0.0,0.005,-0.005,-0.029,-0.078,-0.112,-0.093,-0.029,-0.098
1.534,0.005,-0.044,-0.049,0.02,0.024,-0.049,-0.015,-0.068,-0.093,-0.088,-0.01,-0.078
1.536,0.024,-0.024,-0.049,0.0,0.034,-0.039,-0.024,-0.083,-0.117,-0.102,-0.015,-0.078
1.538,0.005,-0.024,-0.029,0.01,0.015,-0.029,-0.015,-0.073,-0.107,-0.093,-0.015,-0.049
1.54,0.0,-0.024,-0.024,0.015,0.01,-0.024,0.0,-0.059,-0.093,-0.073,-0.015,-0.029
1.542,-0.005,-0.01,-0.005,0.01,0.0,-0.01,-0.005,-0.073,-0.102,-0.088,-0.029,-0.039
1.544,0.01,-0.029,-0.039,0.01,0.024,-0.034,0.005,-0.054,-0.102,-0.093,-0.034,-0.049
1.546,0.029,-0.029,-0.059,0.0,0.044,-0.044,-0.005,-0.054,-0.107,-0.098,-0.054,-0.073
1.548,0.01,-0.044,-0.054,0.02,0.029,-0.049,-0.015,-0.063,-0.117,-0.112,-0.078,-0.122
1.55,0.015,-0.049,-0.063,0.02,0.039,-0.059,-0.005,-0.059,-0.102,-0.098,-0.063,-0.112
1.552,0.039,-0.01,-0.049,-0.015,0.044,-0.029,-0.005,-0.049,-0.102,-0.093,-0.063,-0.112
1.554,0.01,-0.02,-0.029,0.005,0.02,-0.024,-0.005,-0.054,-0.093,-0.088,-0.049,-0.107
1.556,-0.015,-0.044,-0.029,0.029,0.005,-0.039,0.005,-0.049,-0.098,-0.083,-0.029,-0.098
1.558,-0.029,-0.049,-0.02,0.039,-0.005,-0.034,0.005,-0.049,-0.093,-0.083,-0.029,-0.102
1.56,-0.02,-0.034,-0.015,0.029,-0.005,-0.024,0.015,-0.049,-0.093,-0.078,-0.015,-0.098
1.562,-0.02,-0.044,-0.024,0.034,0.0,-0.034,0.029,-0.044,-0.088,-0.078,0.01,-0.088
1.564,-0.015,-0.034,-0.02,0.024,0.0,-0.029,0.024,-0.034,-0.093,-0.083,0.0,-0.078
1.566,-0.02,-0.034,-0.015,0.029,-0.005,-0.024,0.02,-0.039,-0.098,-0.093,-0.039,-0.093
1.568,-0.02,-0.015,0.005,0.02,-0.015,-0.005,0.01,-0.044,-0.098,-0.093,-0.068,-0.107
1.57,-0.005,-0.029,-0.024,0.02,0.01,-0.029,0.01,-0.044,-0.098,-0.102,-0.083,-0.112
1.572,-0.02,-0.024,-0.005,0.024,-0.01,-0.015,0.0,-0.039,-0.098,-0.102,-0.083,-0.127
1.574,-0.01,0.005,0.015,0.005,-0.015,0.01,0.0,-0.049,-0.098,-0.098,-0.073,-0.122
1.576,-0.01,-0.01,0.0,0.01,-0.005,-0.005,0.015,-0.034,-0.088,-0.078,-0.039,-0.102
1.578,0.01,-0.059,-0.068,0.024,0.039,-0.063,0.029,-0.01,-0.068,-0.063,0.0,-0.073
1.58,0.02,-0.068,-0.088,0.024,0.054,-0.078,0.029,-0.015,-0.068,-0.059,0.01,-0.078
1.582,0.029,-0.039,-0.068,0.005,0.049,-0.054,0.01,-0.039,-0.093,-0.088,-0.01,-0.098
1.584,0.059,-0.01,-0.068,-0.024,0.063,-0.039,0.0,-0.044,-0.112,-0.107,-0.029,-0.107
1.586,0.024,-0.039,-0.063,0.01,0.044,-0.054,0.01,-0.029,-0.093,-0.093,-0.044,-0.102
1.588,-0.01,-0.029,-0.02,0.02,0.005,-0.024,0.01,-0.02,-0.088,-0.083,-0.059,-0.117
1.59,0.0,-0.034,-0.034,0.02,0.015,-0.034,0.01,-0.015,-0.078,-0.073,-0.054,-0.102
1.592,0.01,-0.034,-0.044,0.015,0.024,-0.039,0.01,-0.005,-0.078,-0.078,-0.049,-0.102
1.594,0.005,0.005,0.0,-0.005,0.0,0.0,0.01,-0.015,-0.073,-0.078,-0.039,-0.112
1.596,0.029,0.02,-0.01,-0.024,0.02,0.005,-0.015,-0.029,-0.088,-0.078,-0.034,-0.117
1.598,0.0,0.0,0.0,0.0,0.0,0.0,0.005,-0.015,-0.078,-0.068,-0.01,-0.088
1.6,0.0,-0.015,-0.015,0.01,0.005,-0.015,0.02,0.0,-0.068,-0.054,0.015,-0.063
1.602,0.024,-0.005,-0.029,-0.01,0.024,-0.02,0.029,-0.005,-0.068,-0.059,0.01,-0.049
1.604,0.039,0.0,-0.039,-0.02,0.039,-0.02,0.029,0.0,-0.078,-0.068,-0.005,-0.063
1.606,0.02,0.015,-0.005,-0.015,0.01,0.005,0.029,0.01,-0.073,-0.063,-0.024,-0.093
1.608,0.005,0.024,0.02,-0.015,-0.01,0.02,0.015,0.005,-0.078,-0.073,-0.039,-0.127
1.61,-0.024,-0.02,0.005,0.024,-0.015,-0.01,0.01,0.01,-0.073,-0.078,-0.039,-0.137
1.612,-0.005,-0.024,-0.02,0.015,0.005,-0.024,0.005,0.015,-0.073,-0.083,-0.034,-0.146
1.614,-0.015,-0.024,-0.01,0.02,-0.005,-0.02,0.024,0.02,-0.054,-0.063,-0.024,-0.127
1.616,-0.029,-0.024,0.005,0.029,-0.02,-0.01,0.034,0.024,-0.054,-0.049,-0.005,-0.083
1.618,-0.005,0.0,0.005,0.005,-0.005,0.0,0.049,0.039,-0.049,-0.049,0.0,-0.044
1.62,0.01,0.02,0.01,-0.015,0.0,0.015,0.049,0.044,-0.049,-0.039,0.0,-0.034
1.622,-0.01,0.015,0.024,0.0,-0.02,0.02,0.034,0.029,-0.054,-0.049,0.005,-0.034
1.624,0.02,0.015,-0.005,-0.015,0.01,0.005,0.029,0.029,-0.063,-0.063,-0.01,-0.049
1.626,0.034,0.054,0.02,-0.044,0.005,0.034,0.039,0.034,-0.054,-0.063,-0.02,-0.078
1.628,-0.01,0.039,0.049,-0.015,-0.029,0.044,0.034,0.029,-0.068,-0.078,-0.039,-0.117
1.63,-0.005,0.005,0.01,0.0,-0.01,0.005,0.034,0.039,-0.054,-0.054,-0.02,-0.122
1.632,0.005,0.005,0.0,-0.005,0.0,0.0,0.024,0.044,-0.059,-0.068,-0.034,-0.137
1.634,-0.005,-0.015,-0.01,0.01,0.0,-0.015,0.039,0.063,-0.039,-0.044,-0.02,-0.117
1.636,0.02,-0.024,-0.044,0.005,0.029,-0.034,0.049,0.063,-0.034,-0.039,-0.01,-0.093
1.638,0.01,-0.015,-0.024,0.005,0.015,-0.02,0.049,0.068,-0.029,-0.034,0.01,-0.049
1.64,0.005,-0.005,-0.01,0.0,0.005,-0.01,0.049,0.073,-0.029,-0.039,0.02,-0.029
1.642,0.01,0.005,-0.005,-0.005,0.005,0.0,0.054,0.088,-0.015,-0.029,0.034,-0.015
1.644,0.01,0.01,0.0,-0.01,0.005,0.005,0.054,0.088,-0.024,-0.039,0.024,-0.024
1.646,0.02,0.039,0.02,-0.029,0.0,0.029,0.044,0.093,-0.015,-0.024,0.01,-0.039
1.648,0.044,0.024,-0.02,-0.034,0.029,0.0,0.029,0.083,-0.029,-0.054,-0.024,-0.073
1.65,0.015,-0.02,-0.034,0.005,0.024,-0.029,0.024,0.088,-0.034,-0.059,-0.039,-0.088
1.652,-0.01,-0.029,-0.02,0.02,0.005,-0.024,0.024,0.093,-0.024,-0.049,-0.044,-0.088
1.654,0.005,-0.01,-0.015,0.005,0.01,-0.015,0.054,0.122,0.02,-0.01,-0.015,-0.068
1.656,0.024,-0.015,-0.039,-0.005,0.029,-0.029,0.054,0.122,0.015,-0.01,0.005,-0.063
1.658,0.068,0.015,-0.054,-0.039,0.059,-0.02,0.059,0.127,0.024,-0.005,0.034,-0.049
1.66,0.063,0.039,-0.024,-0.049,0.044,0.005,0.049,0.122,0.02,-0.015,0.034,-0.054
1.662,0.039,0.039,0.0,-0.039,0.02,0.02,0.059,0.132,0.029,0.005,0.044,-0.039
1.664,0.024,0.024,0.0,-0.024,0.01,0.01,0.073,0.146,0.029,0.005,0.039,-0.024
1.666,0.029,0.029,0.0,-0.029,0.015,0.015,0.063,0.146,0.034,0.005,0.01,-0.044
1.668,0.054,0.068,0.015,-0.059,0.02,0.039,0.063,0.146,0.039,0.005,-0.02,-0.068
1.67,0.039,0.063,0.024,-0.049,0.005,0.044,0.054,0.151,0.034,-0.005,-0.029,-0.054
1.672,0.054,0.068,0.015,-0.059,0.02,0.039,0.054,0.161,0.049,0.005,-0.01,-0.054
1.674,0.049,0.068,0.02,-0.059,0.015,0.044,0.059,0.171,0.063,0.034,0.024,-0.034
1.676,0.039,0.034,-0.005,-0.034,0.02,0.015,0.063,0.181,0.073,0.039,0.044,-0.034
1.678,0.024,0.024,0.0,-0.024,0.01,0.01,0.078,0.205,0.098,0.063,0.078,-0.024
1.68,0.024,0.029,0.005,-0.024,0.01,0.015,0.088,0.215,0.107,0.073,0.102,-0.005
1.682,0.024,0.049,0.024,-0.034,0.0,0.034,0.102,0.22,0.107,0.078,0.107,0.015
1.684,0.044,0.083,0.039,-0.063,0.0,0.059,0.088,0.22,0.093,0.063,0.098,0.02
1.686,0.044,0.068,0.024,-0.054,0.01,0.044,0.078,0.234,0.112,0.073,0.088,0.0
1.688,0.063,0.068,0.005,-0.063,0.029,0.034,0.054,0.224,0.102,0.063,0.059,-0.049
1.69,0.068,0.063,-0.005,-0.063,0.034,0.029,0.054,0.229,0.107,0.068,0.063,-0.063
1.692,0.102,0.068,-0.034,-0.083,0.068,0.015,0.054,0.234,0.117,0.068,0.073,-0.063
1.694,0.137,0.078,-0.059,-0.107,0.098,0.01,0.049,0.244,0.137,0.093,0.088,-0.034
1.696,0.122,0.063,-0.059,-0.093,0.088,0.0,0.063,0.254,0.156,0.107,0.098,-0.015
1.698,0.063,0.078,0.015,-0.068,0.024,0.044,0.088,0.288,0.19,0.146,0.137,0.049
1.7,0.088,0.098,0.01,-0.093,0.039,0.054,0.093,0.303,0.2,0.151,0.156,0.078
1.702,0.098,0.078,-0.02,-0.088,0.059,0.029,0.098,0.307,0.205,0.166,0.161,0.088
1.704,0.088,0.083,-0.005,-0.083,0.044,0.039,0.102,0.322,0.22,0.161,0.156,0.073
1.706,0.098,0.112,0.015,-0.102,0.039,0.063,0.073,0.317,0.229,0.161,0.142,0.059
1.708,0.112,0.142,0.029,-0.127,0.039,0.083,0.063,0.317,0.224,0.156,0.127,0.02
1.71,0.146,0.146,0.0,-0.146,0.073,0.073,0.059,0.332,0.244,0.166,0.137,0.01
1.712,0.132,0.142,0.01,-0.137,0.059,0.073,0.059,0.346,0.264,0.185,0.151,0.01
1.714,0.132,0.166,0.034,-0.146,0.049,0.098,0.054,0.346,0.273,0.195,0.161,0.015
1.716,0.117,0.132,0.015,-0.122,0.049,0.073,0.063,0.361,0.293,0.21,0.181,0.049
1.718,0.093,0.102,0.01,-0.098,0.039,0.054,0.068,0.371,0.307,0.234,0.185,0.093
1.72,0.107,0.146,0.039,-0.127,0.034,0.093,0.068,0.381,0.322,0.249,0.2,0.127
1.722,0.107,0.142,0.034,-0.122,0.034,0.088,0.054,0.386,0.342,0.268,0.224,0.146
1.724,0.112,0.137,0.024,-0.122,0.044,0.078,0.068,0.4,0.346,0.278,0.229,0.151
1.726,0.122,0.137,0.015,-0.127,0.054,0.073,0.078,0.41,0.366,0.273,0.234,0.137
1.728,0.151,0.161,0.01,-0.156,0.068,0.083,0.083,0.429,0.381,0.293,0.239,0.117
1.73,0.142,0.166,0.024,-0.151,0.059,0.093,0.088,0.439,0.4,0.298,0.254,0.117
1.732,0.151,0.195,0.044,-0.171,0.054,0.117,0.083,0.439,0.405,0.307,0.268,0.122
1.734,0.171,0.224,0.054,-0.195,0.059,0.137,0.059,0.429,0.41,0.312,0.264,0.132
1.736,0.176,0.21,0.034,-0.19,0.068,0.122,0.059,0.434,0.429,0.327,0.278,0.156
1.738,0.19,0.224,0.034,-0.205,0.078,0.127,0.044,0.434,0.429,0.342,0.303,0.2
1.74,0.2,0.249,0.049,-0.224,0.073,0.146,0.029,0.415,0.425,0.337,0.288,0.205
1.742,0.195,0.273,0.078,-0.234,0.059,0.176,0.039,0.425,0.434,0.337,0.288,0.205
1.744,0.185,0.229,0.044,-0.205,0.068,0.137,0.054,0.464,0.454,0.361,0.312,0.22
1.746,0.166,0.161,-0.005,-0.161,0.083,0.078,0.054,0.459,0.468,0.361,0.312,0.195
1.748,0.176,0.19,0.015,-0.181,0.078,0.102,0.044,0.454,0.468,0.361,0.298,0.156
1.75,0.166,0.239,0.073,-0.2,0.044,0.156,0.044,0.459,0.473,0.371,0.298,0.142
1.752,0.2,0.268,0.068,-0.234,0.063,0.166,0.034,0.459,0.483,0.381,0.298,0.142
1.754,0.205,0.259,0.054,-0.229,0.073,0.156,0.039,0.464,0.503,0.405,0.317,0.176
1.756,0.171,0.259,0.088,-0.215,0.039,0.171,0.044,0.459,0.503,0.4,0.327,0.195
1.758,0.185,0.264,0.078,-0.224,0.054,0.171,0.039,0.449,0.498,0.39,0.332,0.22
1.76,0.181,0.259,0.078,-0.22,0.049,0.166,0.044,0.439,0.503,0.395,0.351,0.239
1.762,0.181,0.259,0.078,-0.22,0.049,0.166,0.034,0.429,0.493,0.395,0.351,0.239
1.764,0.2,0.254,0.054,-0.224,0.073,0.151,0.024,0.415,0.468,0.371,0.332,0.21
1.766,0.185,0.215,0.029,-0.2,0.078,0.122,0.02,0.405,0.459,0.351,0.298,0.171
1.768,0.181,0.215,0.034,-0.195,0.073,0.122,0.039,0.41,0.464,0.361,0.283,0.142
1.77,0.185,0.224,0.039,-0.205,0.073,0.132,0.049,0.4,0.444,0.337,0.264,0.117
1.772,0.176,0.181,0.005,-0.176,0.083,0.093,0.054,0.39,0.434,0.332,0.268,0.102
1.774,0.195,0.19,-0.005,-0.19,0.098,0.093,0.049,0.371,0.42,0.332,0.264,0.098
1.776,0.185,0.2,0.015,-0.19,0.083,0.107,0.039,0.346,0.395,0.312,0.239,0.083
1.778,0.151,0.161,0.01,-0.156,0.068,0.083,0.039,0.332,0.376,0.307,0.239,0.102
1.78,0.137,0.156,0.02,-0.146,0.059,0.088,0.049,0.327,0.371,0.307,0.234,0.122
1.782,0.132,0.161,0.029,-0.146,0.049,0.093,0.044,0.303,0.346,0.283,0.215,0.117
1.784,0.102,0.181,0.078,-0.142,0.01,0.127,0.039,0.278,0.312,0.259,0.195,0.088
1.786,0.073,0.151,0.078,-0.112,-0.005,0.112,0.034,0.244,0.278,0.224,0.166,0.059
1.788,0.044,0.122,0.078,-0.083,-0.02,0.098,0.034,0.234,0.259,0.195,0.151,0.015
1.79,0.078,0.142,0.063,-0.107,0.005,0.102,0.034,0.224,0.244,0.195,0.137,-0.005
1.792,0.063,0.127,0.063,-0.093,0.0,0.093,0.034,0.215,0.229,0.181,0.117,-0.024
1.794,0.039,0.068,0.029,-0.054,0.005,0.049,0.034,0.195,0.21,0.171,0.112,-0.024
1.796,0.024,0.083,0.059,-0.054,-0.02,0.068,0.029,0.176,0.185,0.151,0.098,-0.01
1.798,0.029,0.078,0.049,-0.054,-0.01,0.063,0.039,0.166,0.176,0.137,0.112,0.015
1.8,0.049,0.088,0.039,-0.068,0.005,0.063,0.039,0.142,0.151,0.127,0.102,0.01
1.802,0.029,0.068,0.039,-0.049,-0.005,0.054,0.034,0.122,0.132,0.117,0.093,0.0
1.804,0.02,0.054,0.034,-0.034,-0.01,0.044,0.029,0.102,0.112,0.093,0.078,-0.01
1.806,0.044,0.107,0.063,-0.073,-0.01,0.083,0.024,0.088,0.088,0.063,0.049,-0.039
1.808,0.044,0.127,0.083,-0.083,-0.02,0.102,0.015,0.063,0.059,0.044,0.024,-0.083
1.81,0.024,0.068,0.044,-0.044,-0.01,0.054,0.034,0.063,0.059,0.049,0.02,-0.098
1.812,0.02,0.073,0.054,-0.044,-0.02,0.063,0.024,0.059,0.044,0.034,0.0,-0.112
1.814,0.034,0.068,0.034,-0.049,0.0,0.049,0.005,0.034,0.029,0.015,-0.02,-0.132
1.816,0.015,0.063,0.049,-0.039,-0.02,0.054,-0.005,0.024,0.015,0.015,-0.01,-0.102
1.818,0.005,0.01,0.005,-0.005,0.0,0.005,0.02,0.034,0.024,0.024,0.02,-0.054
1.82,0.005,-0.029,-0.034,0.015,0.02,-0.034,0.02,0.024,0.015,0.02,0.02,-0.039
1.822,-0.01,-0.005,0.005,0.01,-0.01,0.0,0.02,0.01,0.005,0.01,0.02,-0.049
1.824,-0.015,0.0,0.015,0.01,-0.015,0.005,0.015,0.005,-0.015,-0.01,0.015,-0.063
1.826,0.01,0.01,0.0,-0.01,0.005,0.005,0.0,-0.01,-0.024,-0.02,-0.01,-0.078
1.828,0.024,0.054,0.029,-0.039,-0.005,0.039,-0.015,-0.02,-0.039,-0.039,-0.054,-0.132
1.83,0.01,0.034,0.024,-0.02,-0.01,0.029,0.0,-0.015,-0.029,-0.029,-0.044,-0.142
1.832,0.015,0.024,0.01,-0.02,0.0,0.015,-0.005,-0.015,-0.029,-0.029,-0.049,-0.146
1.834,0.024,0.005,-0.02,-0.015,0.02,-0.01,0.01,-0.015,-0.024,-0.029,-0.039,-0.132
1.836,0.0,-0.024,-0.024,0.015,0.01,-0.024,0.01,-0.01,-0.02,-0.024,-0.034,-0.107
1.838,-0.015,-0.039,-0.024,0.029,0.005,-0.034,0.024,-0.005,-0.02,-0.02,-0.01,-0.063
1.84,-0.034,-0.015,0.02,0.024,-0.029,0.0,0.02,-0.015,-0.024,-0.02,-0.015,-0.054
1.842,-0.024,-0.015,0.01,0.02,-0.02,-0.005,0.015,-0.015,-0.029,-0.02,-0.02,-0.059
1.844,-0.015,-0.005,0.01,0.01,-0.015,0.0,-0.005,-0.024,-0.024,-0.02,-0.034,-0.078
1.846,-0.015,-0.005,0.01,0.01,-0.015,0.0,-0.024,-0.029,-0.044,-0.034,-0.044,-0.102
1.848,0.0,0.015,0.015,-0.005,-0.01,0.015,-0.01,-0.034,-0.049,-0.049,-0.059,-0.137
1.85,0.005,0.024,0.02,-0.015,-0.01,0.02,0.0,-0.029,-0.044,-0.039,-0.044,-0.142
1.852,-0.01,0.024,0.034,-0.005,-0.024,0.029,0.005,-0.029,-0.049,-0.039,-0.049,-0.151
1.854,-0.039,0.0,0.039,0.02,-0.039,0.02,0.0,-0.039,-0.059,-0.044,-0.054,-0.142
1.856,-0.02,-0.01,0.01,0.015,-0.015,0.0,-0.005,-0.039,-0.054,-0.044,-0.049,-0.127
1.858,-0.01,-0.039,-0.029,0.024,0.01,-0.034,-0.015,-0.049,-0.063,-0.049,-0.044,-0.093
1.86,0.01,-0.034,-0.044,0.015,0.024,-0.039,0.005,-0.029,-0.044,-0.034,-0.024,-0.059
1.862,0.005,-0.015,-0.02,0.005,0.01,-0.02,0.005,-0.039,-0.059,-0.049,-0.039,-0.054
1.864,-0.005,0.01,0.015,0.0,-0.01,0.01,-0.01,-0.054,-0.083,-0.063,-0.049,-0.068
1.866,-0.029,-0.02,0.01,0.024,-0.02,-0.005,-0.005,-0.054,-0.078,-0.068,-0.059,-0.078
1.868,-0.024,0.0,0.024,0.015,-0.024,0.01,-0.01,-0.049,-0.083,-0.068,-0.073,-0.112
1.87,0.005,0.015,0.01,-0.01,-0.005,0.01,-0.02,-0.059,-0.098,-0.088,-0.078,-0.132
1.872,0.0,-0.034,-0.034,0.02,0.015,-0.034,0.005,-0.044,-0.088,-0.078,-0.054,-0.112
1.874,-0.024,-0.044,-0.02,0.034,-0.005,-0.034,0.034,-0.02,-0.063,-0.054,-0.029,-0.083
1.876,-0.029,-0.024,0.005,0.029,-0.02,-0.01,0.049,-0.01,-0.044,-0.024,0.0,-0.063
1.878,-0.034,-0.039,-0.005,0.039,-0.015,-0.024,0.044,-0.015,-0.049,-0.029,0.01,-0.049
1.88,-0.015,-0.02,-0.005,0.02,-0.005,-0.015,0.02,-0.029,-0.063,-0.039,-0.005,-0.063
1.882,-0.01,-0.034,-0.024,0.024,0.005,-0.029,0.02,-0.034,-0.073,-0.044,-0.005,-0.078
1.884,0.0,-0.054,-0.054,0.029,0.024,-0.054,0.0,-0.044,-0.093,-0.063,-0.024,-0.073
1.886,-0.029,-0.049,-0.02,0.039,-0.005,-0.034,0.015,-0.024,-0.073,-0.059,-0.034,-0.049
1.888,-0.049,-0.059,-0.01,0.054,-0.02,-0.034,0.01,-0.029,-0.078,-0.068,-0.063,-0.078
1.89,-0.024,-0.024,0.0,0.024,-0.015,-0.015,0.01,-0.039,-0.083,-0.073,-0.083,-0.073
1.892,-0.039,-0.02,0.02,0.029,-0.029,0.0,0.005,-0.049,-0.083,-0.063,-0.083,-0.083
1.894,-0.034,-0.044,-0.01,0.039,-0.015,-0.029,0.0,-0.054,-0.093,-0.078,-0.083,-0.088
1.896,-0.005,-0.024,-0.02,0.015,0.005,-0.024,0.0,-0.049,-0.088,-0.063,-0.054,-0.078
1.898,0.005,-0.029,-0.034,0.015,0.02,-0.034,0.005,-0.049,-0.083,-0.059,-0.02,-0.059
1.9,0.01,-0.044,-0.054,0.02,0.029,-0.049,0.02,-0.044,-0.083,-0.054,-0.01,-0.059
1.902,0.02,-0.029,-0.049,0.005,0.034,-0.039,0.01,-0.054,-0.102,-0.063,-0.024,-0.068
1.904,0.039,-0.015,-0.054,-0.01,0.044,-0.034,0.0,-0.054,-0.102,-0.068,-0.049,-0.073
1.906,-0.015,-0.024,-0.01,0.02,-0.005,-0.02,0.01,-0.034,-0.088,-0.068,-0.054,-0.059
1.908,-0.054,-0.02,0.034,0.039,-0.044,0.005,0.024,-0.02,-0.078,-0.059,-0.068,-0.059
1.91,-0.083,-0.015,0.068,0.049,-0.078,0.024,0.029,-0.015,-0.068,-0.059,-0.073,-0.063
1.912,-0.073,-0.02,0.054,0.049,-0.063,0.015,0.029,-0.015,-0.063,-0.049,-0.059,-0.049
1.914,-0.049,-0.034,0.015,0.044,-0.034,-0.01,0.039,-0.015,-0.049,-0.029,-0.039,-0.034
1.916,-0.044,-0.034,0.01,0.039,-0.029,-0.015,0.044,-0.015,-0.049,-0.029,-0.034,-0.044
1.918,-0.039,-0.029,0.01,0.034,-0.024,-0.01,0.039,-0.015,-0.054,-0.029,-0.01,-0.034
1.92,-0.044,-0.029,0.015,0.039,-0.029,-0.01,0.044,-0.01,-0.054,-0.029,0.0,-0.024
1.922,-0.015,-0.024,-0.01,0.02,-0.005,-0.02,0.034,-0.01,-0.049,-0.029,0.0,-0.015
1.924,-0.01,-0.015,-0.005,0.015,-0.005,-0.01,0.024,-0.029,-0.068,-0.044,-0.024,-0.029
1.926,-0.029,-0.015,0.015,0.024,-0.024,0.0,0.02,-0.034,-0.078,-0.063,-0.059,-0.044
1.928,-0.015,0.005,0.02,0.005,-0.02,0.01,0.02,-0.044,-0.078,-0.063,-0.078,-0.063
1.93,-0.02,0.005,0.024,0.01,-0.024,0.015,0.01,-0.049,-0.083,-0.068,-0.088,-0.059
1.932,-0.01,-0.015,-0.005,0.015,-0.005,-0.01,0.01,-0.034,-0.073,-0.054,-0.083,-0.059
1.934,-0.015,-0.015,0.0,0.015,-0.01,-0.01,0.02,-0.034,-0.068,-0.049,-0.068,-0.044
1.936,-0.02,-0.029,-0.01,0.024,-0.005,-0.02,0.01,-0.034,-0.068,-0.059,-0.044,-0.049
1.938,-0.005,-0.02,-0.015,0.015,0.005,-0.02,0.005,-0.044,-0.083,-0.063,-0.02,-0.039
1.94,-0.005,-0.005,0.0,0.005,-0.005,-0.005,0.005,-0.054,-0.083,-0.059,-0.005,-0.034
1.942,-0.054,-0.044,0.01,0.049,-0.034,-0.02,0.034,-0.029,-0.054,-0.024,0.02,0.0
1.944,-0.024,-0.024,0.0,0.024,-0.015,-0.015,0.044,-0.024,-0.049,-0.024,0.015,0.005
1.946,0.005,0.01,0.005,-0.005,0.0,0.005,0.024,-0.034,-0.063,-0.039,-0.024,-0.02
1.948,-0.005,0.005,0.01,0.0,-0.01,0.005,0.005,-0.044,-0.073,-0.054,-0.078,-0.049
1.95,-0.029,-0.005,0.024,0.02,-0.029,0.01,0.01,-0.029,-0.063,-0.059,-0.102,-0.044
1.952,-0.063,-0.029,0.034,0.049,-0.049,0.0,0.024,-0.024,-0.049,-0.034,-0.088,-0.034
1.954,-0.049,-0.01,0.039,0.029,-0.044,0.015,0.024,-0.024,-0.039,-0.024,-0.073,-0.029
1.956,-0.044,-0.01,0.034,0.029,-0.039,0.01,0.02,-0.024,-0.044,-0.029,-0.044,-0.015
1.958,-0.039,-0.034,0.005,0.039,-0.024,-0.015,0.01,-0.034,-0.054,-0.039,-0.015,-0.01
1.96,-0.054,-0.049,0.005,0.054,-0.029,-0.024,0.01,-0.039,-0.063,-0.044,-0.005,-0.02
1.962,-0.039,-0.02,0.02,0.029,-0.029,0.0,0.015,-0.044,-0.059,-0.034,0.0,-0.02
1.964,-0.034,-0.005,0.029,0.02,-0.034,0.01,0.015,-0.034,-0.054,-0.039,-0.015,-0.02
1.966,-0.044,-0.024,0.02,0.034,-0.034,-0.005,0.015,-0.029,-0.059,-0.049,-0.039,-0.029
1.968,0.0,0.0,0.0,0.0,0.0,0.0,0.0,-0.039,-0.063,-0.054,-0.078,-0.049
1.97,0.01,0.005,-0.005,-0.005,0.005,0.0,0.005,-0.044,-0.063,-0.049,-0.107,-0.049
1.972,-0.02,-0.015,0.005,0.02,-0.015,-0.005,0.005,-0.059,-0.068,-0.049,-0.102,-0.039
1.974,-0.044,-0.049,-0.005,0.049,-0.02,-0.029,0.015,-0.044,-0.059,-0.039,-0.083,-0.044
1.976,-0.054,-0.059,-0.005,0.059,-0.024,-0.034,0.01,-0.039,-0.054,-0.039,-0.063,-0.044
1.978,-0.029,-0.068,-0.039,0.049,0.005,-0.054,0.015,-0.044,-0.054,-0.039,-0.034,-0.024
1.98,-0.049,-0.059,-0.01,0.054,-0.02,-0.034,0.024,-0.034,-0.044,-0.029,-0.01,-0.01
1.982,-0.054,-0.024,0.029,0.039,-0.044,0.0,0.02,-0.039,-0.044,-0.024,-0.005,-0.015
1.984,-0.034,0.0,0.034,0.02,-0.034,0.015,0.01,-0.039,-0.059,-0.044,-0.024,-0.015
1.986,-0.01,0.015,0.024,0.0,-0.02,0.02,0.005,-0.044,-0.068,-0.059,-0.054,-0.029
1.988,-0.005,0.0,0.005,0.005,-0.005,0.0,-0.02,-0.068,-0.083,-0.073,-0.098,-0.063
1.99,-0.024,-0.005,0.02,0.015,-0.024,0.005,-0.02,-0.068,-0.083,-0.078,-0.102,-0.054
1.992,-0.029,0.01,0.039,0.01,-0.034,0.024,-0.02,-0.068,-0.078,-0.083,-0.102,-0.054
1.994,-0.039,-0.015,0.024,0.029,-0.034,0.005,-0.005,-0.049,-0.059,-0.054,-0.078,-0.044
1.996,-0.029,-0.015,0.015,0.024,-0.024,0.0,0.005,-0.044,-0.049,-0.039,-0.039,-0.029
1.998,-0.029,-0.02,0.01,0.024,-0.02,-0.005,0.01,-0.049,-0.054,-0.034,-0.015,-0.015
2.0,-0.063,-0.024,0.039,0.044,-0.054,0.005,0.005,-0.054,-0.054,-0.034,-0.01,-0.02
2.002,-0.054,-0.01,0.044,0.034,-0.049,0.015,0.015,-0.049,-0.054,-0.039,-0.015,-0.02
2.004,-0.015,-0.029,-0.015,0.024,0.0,-0.024,0.005,-0.054,-0.063,-0.054,-0.044,-0.024
2.006,0.0,-0.02,-0.02,0.01,0.01,-0.02,-0.01,-0.063,-0.078,-0.078,-0.078,-0.039
2.008,-0.034,-0.01,0.024,0.024,-0.029,0.005,0.005,-0.054,-0.068,-0.063,-0.102,-0.044
2.01,-0.063,-0.029,0.034,0.049,-0.049,0.0,-0.01,-0.054,-0.063,-0.059,-0.107,-0.049
2.012,-0.049,-0.024,0.024,0.039,-0.039,0.0,-0.024,-0.068,-0.078,-0.063,-0.112,-0.054
2.014,-0.015,0.005,0.02,0.005,-0.02,0.01,0.0,-0.054,-0.073,-0.059,-0.093,-0.049
2.016,-0.034,-0.015,0.02,0.024,-0.029,0.0,-0.01,-0.068,-0.078,-0.063,-0.073,-0.044
2.018,-0.049,-0.034,0.015,0.044,-0.034,-0.01,0.0,-0.049,-0.059,-0.039,-0.029,-0.01
2.02,-0.044,-0.039,0.005,0.044,-0.024,-0.02,0.01,-0.044,-0.049,-0.034,-0.02,-0.01
2.022,-0.054,-0.039,0.015,0.049,-0.034,-0.015,0.0,-0.063,-0.073,-0.049,-0.044,-0.029
2.024,-0.024,-0.01,0.015,0.02,-0.02,0.0,-0.024,-0.068,-0.088,-0.068,-0.059,-0.029
2.026,-0.034,-0.024,0.01,0.029,-0.024,-0.01,0.0,-0.054,-0.068,-0.054,-0.063,-0.024
2.028,-0.049,-0.01,0.039,0.029,-0.044,0.015,-0.005,-0.059,-0.078,-0.063,-0.093,-0.039
2.03,-0.034,0.01,0.044,0.015,-0.039,0.024,-0.015,-0.078,-0.098,-0.078,-0.112,-0.054
2.032,-0.015,0.005,0.02,0.005,-0.02,0.01,-0.02,-0.088,-0.098,-0.083,-0.107,-0.059
2.034,0.01,0.015,0.005,-0.01,0.0,0.01,-0.034,-0.098,-0.098,-0.083,-0.107,-0.068
2.036,-0.01,0.005,0.015,0.005,-0.015,0.01,-0.02,-0.078,-0.093,-0.083,-0.088,-0.059
2.038,-0.029,0.0,0.029,0.015,-0.029,0.015,-0.01,-0.073,-0.088,-0.068,-0.054,-0.034
2.04,-0.044,0.005,0.049,0.02,-0.049,0.024,-0.005,-0.073,-0.083,-0.059,-0.034,-0.02
2.042,-0.059,-0.054,0.005,0.059,-0.034,-0.024,-0.01,-0.078,-0.078,-0.054,-0.039,-0.024
2.044,-0.054,-0.063,-0.01,0.059,-0.024,-0.039,-0.015,-0.078,-0.083,-0.068,-0.049,-0.024
2.046,-0.063,-0.039,0.024,0.054,-0.044,-0.01,0.0,-0.073,-0.083,-0.073,-0.063,-0.02
2.048,-0.088,-0.034,0.054,0.063,-0.073,0.01,-0.005,-0.078,-0.078,-0.068,-0.088,-0.034
2.05,-0.093,-0.054,0.039,0.073,-0.068,-0.01,0.0,-0.068,-0.063,-0.049,-0.088,-0.029
2.052,-0.078,-0.039,0.039,0.059,-0.059,0.0,0.01,-0.059,-0.059,-0.054,-0.083,-0.015
2.054,-0.049,-0.01,0.039,0.029,-0.044,0.015,0.0,-0.068,-0.068,-0.059,-0.073,-0.024
2.056,-0.015,-0.015,0.0,0.015,-0.01,-0.01,-0.005,-0.073,-0.078,-0.063,-0.049,-0.02
2.058,-0.029,-0.029,0.0,0.029,-0.015,-0.015,0.01,-0.063,-0.063,-0.044,-0.01,-0.005
2.06,-0.02,-0.015,0.005,0.02,-0.015,-0.005,0.005,-0.073,-0.073,-0.054,-0.005,-0.015
2.062,-0.034,-0.015,0.02,0.024,-0.029,0.0,-0.029,-0.093,-0.093,-0.068,-0.034,-0.039
2.064,-0.059,-0.02,0.039,0.039,-0.049,0.01,-0.024,-0.088,-0.088,-0.068,-0.068,-0.039
2.066,-0.049,0.005,0.054,0.024,-0.054,0.029,-0.02,-0.083,-0.088,-0.073,-0.083,-0.039
2.068,-0.063,-0.01,0.054,0.039,-0.059,0.02,-0.015,-0.088,-0.083,-0.068,-0.098,-0.059
2.07,-0.059,-0.059,0.0,0.059,-0.029,-0.029,0.0,-0.078,-0.073,-0.063,-0.102,-0.049
2.072,-0.029,-0.054,-0.024,0.044,-0.005,-0.039,0.005,-0.063,-0.068,-0.059,-0.098,-0.039
2.074,-0.024,-0.015,0.01,0.02,-0.02,-0.005,-0.02,-0.088,-0.088,-0.073,-0.102,-0.059
2.076,-0.068,-0.029,0.039,0.049,-0.054,0.005,-0.029,-0.093,-0.098,-0.078,-0.088,-0.059
2.078,-0.078,-0.01,0.068,0.044,-0.073,0.029,-0.02,-0.088,-0.093,-0.063,-0.049,-0.034
2.08,-0.059,-0.005,0.054,0.034,-0.059,0.024,-0.005,-0.088,-0.083,-0.054,-0.02,-0.015
2.082,-0.024,-0.029,-0.005,0.029,-0.01,-0.02,-0.02,-0.093,-0.098,-0.068,-0.02,-0.02
2.084,-0.02,-0.005,0.015,0.015,-0.02,0.005,-0.029,-0.102,-0.102,-0.073,-0.039,-0.024
2.086,-0.044,0.01,0.054,0.02,-0.049,0.029,-0.024,-0.098,-0.102,-0.083,-0.059,-0.024
2.088,-0.034,0.01,0.044,0.015,-0.039,0.024,-0.024,-0.088,-0.102,-0.093,-0.098,-0.039
2.09,-0.034,-0.015,0.02,0.024,-0.029,0.0,-0.039,-0.093,-0.102,-0.093,-0.132,-0.059
2.092,-0.044,-0.024,0.02,0.034,-0.034,-0.005,-0.02,-0.088,-0.088,-0.078,-0.117,-0.059
2.094,-0.073,-0.034,0.039,0.054,-0.059,0.0,-0.024,-0.088,-0.088,-0.073,-0.088,-0.049
2.096,-0.078,-0.044,0.034,0.063,-0.059,-0.005,0.0,-0.063,-0.063,-0.049,-0.049,-0.02
2.098,-0.044,-0.02,0.024,0.034,-0.034,0.0,0.0,-0.068,-0.054,-0.029,-0.024,0.0
2.1,-0.039,-0.005,0.034,0.024,-0.039,0.015,-0.02,-0.098,-0.088,-0.059,-0.039,-0.02
2.102,-0.049,0.005,0.054,0.024,-0.054,0.029,-0.015,-0.083,-0.093,-0.073,-0.044,-0.01
2.104,-0.039,0.029,0.068,0.005,-0.054,0.049,-0.015,-0.083,-0.083,-0.078,-0.044,-0.02
2.106,-0.039,0.02,0.059,0.01,-0.049,0.039,-0.02,-0.093,-0.093,-0.073,-0.073,-0.02
2.108,-0.044,0.01,0.054,0.02,-0.049,0.029,-0.024,-0.098,-0.102,-0.083,-0.112,-0.044
2.11,-0.049,-0.01,0.039,0.029,-0.044,0.015,-0.029,-0.088,-0.098,-0.083,-0.132,-0.054
2.112,-0.029,-0.029,0.0,0.029,-0.015,-0.015,-0.015,-0.083,-0.078,-0.068,-0.107,-0.039
2.114,-0.049,-0.024,0.024,0.039,-0.039,0.0,-0.01,-0.073,-0.073,-0.049,-0.083,-0.029
2.116,-0.049,-0.02,0.029,0.034,-0.039,0.005,-0.015,-0.078,-0.083,-0.059,-0.068,-0.034
2.118,-0.029,-0.034,-0.005,0.034,-0.015,-0.02,-0.02,-0.083,-0.088,-0.054,-0.039,-0.02
2.12,-0.039,-0.068,-0.029,0.054,-0.005,-0.049,-0.02,-0.088,-0.093,-0.063,-0.039,-0.024
2.122,-0.059,-0.059,0.0,0.059,-0.029,-0.029,-0.015,-0.083,-0.088,-0.068,-0.039,-0.02
2.124,-0.063,-0.005,0.059,0.034,-0.063,0.024,-0.02,-0.088,-0.093,-0.083,-0.059,-0.02
2.126,-0.068,0.01,0.078,0.029,-0.073,0.044,-0.029,-0.093,-0.107,-0.093,-0.088,-0.034
2.128,-0.054,-0.005,0.049,0.029,-0.054,0.02,-0.02,-0.078,-0.088,-0.078,-0.102,-0.044
2.13,-0.034,-0.005,0.029,0.02,-0.034,0.01,-0.029,-0.093,-0.098,-0.083,-0.112,-0.054
2.132,-0.049,-0.02,0.029,0.034,-0.039,0.005,-0.034,-0.102,-0.107,-0.088,-0.112,-0.054
2.134,-0.024,-0.005,0.02,0.015,-0.024,0.005,-0.024,-0.093,-0.098,-0.078,-0.093,-0.039
2.136,-0.034,0.0,0.034,0.02,-0.034,0.015,-0.015,-0.078,-0.083,-0.068,-0.063,-0.024
2.138,-0.073,-0.054,0.02,0.063,-0.049,-0.02,-0.01,-0.073,-0.073,-0.049,-0.039,-0.005
2.14,-0.059,-0.063,-0.005,0.063,-0.029,-0.034,-0.015,-0.083,-0.088,-0.059,-0.044,-0.015
2.142,-0.054,-0.054,0.0,0.054,-0.029,-0.029,-0.024,-0.083,-0.088,-0.059,-0.049,-0.02
2.144,-0.059,-0.054,0.005,0.059,-0.034,-0.024,-0.034,-0.098,-0.098,-0.078,-0.068,-0.044
2.146,-0.024,-0.005,0.02,0.015,-0.024,0.005,-0.044,-0.112,-0.117,-0.088,-0.088,-0.044
2.148,-0.015,0.015,0.029,0.0,-0.024,0.02,-0.015,-0.098,-0.102,-0.088,-0.102,-0.039
2.15,-0.02,-0.02,0.0,0.02,-0.01,-0.01,-0.01,-0.093,-0.098,-0.073,-0.102,-0.039
2.152,-0.015,0.005,0.02,0.005,-0.02,0.01,-0.02,-0.093,-0.098,-0.083,-0.107,-0.044
2.154,-0.039,0.0,0.039,0.02,-0.039,0.02,-0.034,-0.102,-0.098,-0.088,-0.102,-0.039
2.156,-0.049,-0.015,0.034,0.034,-0.044,0.01,-0.024,-0.093,-0.088,-0.078,-0.078,-0.039
2.158,-0.073,-0.049,0.024,0.063,-0.049,-0.015,-0.01,-0.073,-0.078,-0.054,-0.034,-0.005
2.16,-0.054,-0.049,0.005,0.054,-0.029,-0.024,-0.029,-0.088,-0.083,-0.063,-0.044,-0.015
2.162,0.0,-0.044,-0.044,0.024,0.02,-0.044,-0.039,-0.098,-0.093,-0.073,-0.044,-0.024
2.164,-0.024,-0.039,-0.015,0.034,-0.005,-0.029,-0.02,-0.083,-0.078,-0.059,-0.039,-0.015
2.166,-0.039,-0.01,0.029,0.024,-0.034,0.01,-0.024,-0.088,-0.088,-0.059,-0.059,-0.024
2.168,-0.024,0.015,0.039,0.005,-0.034,0.024,-0.039,-0.102,-0.107,-0.098,-0.112,-0.054
2.17,-0.005,-0.005,0.0,0.005,-0.005,-0.005,-0.049,-0.107,-0.107,-0.098,-0.122,-0.059
2.172,0.01,0.005,-0.005,-0.005,0.005,0.0,-0.044,-0.098,-0.093,-0.083,-0.107,-0.049
2.174,-0.034,-0.015,0.02,0.024,-0.029,0.0,-0.02,-0.083,-0.078,-0.059,-0.078,-0.024
2.176,-0.054,-0.029,0.024,0.044,-0.039,-0.005,-0.005,-0.078,-0.073,-0.054,-0.054,-0.015
2.178,-0.088,-0.039,0.049,0.063,-0.068,0.005,-0.02,-0.098,-0.088,-0.063,-0.044,-0.015
2.18,-0.049,-0.005,0.044,0.029,-0.049,0.02,-0.034,-0.098,-0.093,-0.073,-0.049,-0.029
2.182,-0.039,0.0,0.039,0.02,-0.039,0.02,-0.039,-0.102,-0.088,-0.078,-0.044,-0.02
2.184,-0.044,0.005,0.049,0.02,-0.049,0.024,-0.034,-0.098,-0.093,-0.073,-0.054,-0.024
2.186,-0.063,-0.005,0.059,0.034,-0.063,0.024,-0.029,-0.098,-0.098,-0.078,-0.078,-0.034
2.188,-0.054,0.01,0.063,0.024,-0.059,0.034,-0.039,-0.102,-0.102,-0.088,-0.107,-0.049
2.19,-0.034,0.015,0.049,0.01,-0.044,0.029,-0.044,-0.107,-0.102,-0.088,-0.122,-0.063
2.192,-0.049,-0.039,0.01,0.044,-0.029,-0.015,-0.039,-0.083,-0.088,-0.073,-0.112,-0.044
2.194,-0.049,-0.068,-0.02,0.059,-0.015,-0.044,-0.034,-0.083,-0.088,-0.073,-0.093,-0.029
2.196,-0.049,-0.068,-0.02,0.059,-0.015,-0.044,-0.034,-0.083,-0.078,-0.068,-0.078,-0.029
2.198,-0.083,-0.039,0.044,0.063,-0.063,0.0,-0.01,-0.063,-0.063,-0.044,-0.034,0.0
2.2,-0.068,-0.029,0.039,0.049,-0.054,0.005,-0.024,-0.078,-0.083,-0.059,-0.029,0.0
2.202,-0.059,-0.029,0.029,0.044,-0.044,0.0,-0.024,-0.073,-0.073,-0.059,-0.029,0.0
2.204,-0.049,-0.015,0.034,0.034,-0.044,0.01,-0.029,-0.083,-0.098,-0.078,-0.054,-0.015
2.206,-0.054,-0.039,0.015,0.049,-0.034,-0.015,-0.02,-0.088,-0.098,-0.078,-0.063,-0.015
2.208,-0.049,-0.044,0.005,0.049,-0.029,-0.02,-0.02,-0.088,-0.078,-0.073,-0.078,-0.034
2.21,-0.039,-0.024,0.015,0.034,-0.029,-0.005,-0.024,-0.088,-0.078,-0.063,-0.088,-0.034
2.212,-0.034,-0.015,0.02,0.024,-0.029,0.0,-0.039,-0.112,-0.102,-0.083,-0.112,-0.054
2.214,-0.029,-0.02,0.01,0.024,-0.02,-0.005,-0.039,-0.102,-0.098,-0.078,-0.107,-0.049
2.216,-0.02,-0.029,-0.01,0.024,-0.005,-0.02,-0.039,-0.093,-0.088,-0.073,-0.098,-0.049
2.218,-0.034,-0.044,-0.01,0.039,-0.015,-0.029,-0.029,-0.083,-0.088,-0.063,-0.068,-0.024
2.22,-0.054,-0.029,0.024,0.044,-0.039,-0.005,-0.024,-0.088,-0.083,-0.054,-0.039,0.0
2.222,-0.063,-0.044,0.02,0.054,-0.044,-0.015,-0.015,-0.083,-0.078,-0.044,-0.034,0.005
2.224,-0.049,-0.049,0.0,0.049,-0.024,-0.024,-0.024,-0.088,-0.083,-0.059,-0.059,-0.02
2.226,-0.039,-0.034,0.005,0.039,-0.024,-0.015,-0.034,-0.093,-0.093,-0.068,-0.078,-0.02
2.228,-0.063,-0.039,0.024,0.054,-0.044,-0.01,-0.039,-0.102,-0.093,-0.083,-0.107,-0.034
2.23,-0.059,-0.024,0.034,0.044,-0.049,0.005,-0.015,-0.088,-0.078,-0.063,-0.102,-0.024
2.232,-0.054,0.005,0.059,0.024,-0.059,0.029,-0.02,-0.088,-0.083,-0.068,-0.098,-0.034
2.234,-0.059,-0.005,0.054,0.034,-0.059,0.024,-0.029,-0.088,-0.083,-0.063,-0.088,-0.029
2.236,-0.059,-0.015,0.044,0.039,-0.054,0.015,-0.024,-0.083,-0.073,-0.054,-0.078,-0.024
2.238,-0.049,-0.039,0.01,0.044,-0.029,-0.015,-0.015,-0.078,-0.073,-0.054,-0.063,-0.02
2.24,-0.015,-0.034,-0.02,0.024,0.0,-0.029,-0.029,-0.098,-0.088,-0.063,-0.059,-0.029
2.242,-0.01,-0.02,-0.01,0.015,0.0,-0.015,-0.029,-0.098,-0.083,-0.049,-0.044,-0.015
2.244,-0.029,-0.01,0.02,0.02,-0.024,0.005,-0.015,-0.083,-0.083,-0.049,-0.049,-0.02
2.246,-0.029,-0.005,0.024,0.02,-0.029,0.01,-0.015,-0.083,-0.083,-0.049,-0.059,-0.024
2.248,-0.044,-0.015,0.029,0.029,-0.039,0.005,-0.029,-0.088,-0.083,-0.059,-0.083,-0.034
2.25,-0.063,-0.029,0.034,0.049,-0.049,0.0,-0.024,-0.088,-0.098,-0.078,-0.093,-0.044
2.252,-0.049,-0.005,0.044,0.029,-0.049,0.02,-0.034,-0.098,-0.102,-0.088,-0.102,-0.054
2.254,-0.049,-0.02,0.029,0.034,-0.039,0.005,-0.029,-0.093,-0.088,-0.068,-0.088,-0.044
2.256,-0.039,-0.024,0.015,0.034,-0.029,-0.005,-0.029,-0.093,-0.078,-0.063,-0.068,-0.034
2.258,-0.015,-0.044,-0.029,0.029,0.005,-0.039,-0.034,-0.088,-0.078,-0.054,-0.049,-0.02
2.26,-0.01,-0.054,-0.044,0.034,0.015,-0.049,-0.034,-0.083,-0.088,-0.049,-0.049,-0.024
2.262,-0.024,-0.034,-0.01,0.029,-0.01,-0.024,-0.029,-0.083,-0.078,-0.039,-0.039,-0.01
2.264,-0.034,-0.01,0.024,0.024,-0.029,0.005,-0.029,-0.088,-0.083,-0.054,-0.054,-0.02
2.266,-0.054,-0.015,0.039,0.034,-0.049,0.01,-0.024,-0.083,-0.083,-0.059,-0.063,-0.024
2.268,-0.063,-0.02,0.044,0.044,-0.054,0.01,-0.029,-0.088,-0.083,-0.063,-0.088,-0.044
2.27,-0.039,-0.034,0.005,0.039,-0.024,-0.015,-0.024,-0.088,-0.083,-0.068,-0.102,-0.049
2.272,-0.034,-0.024,0.01,0.029,-0.024,-0.01,-0.029,-0.083,-0.083,-0.073,-0.102,-0.054
2.274,-0.078,-0.049,0.029,0.063,-0.054,-0.01,-0.024,-0.088,-0.078,-0.063,-0.088,-0.039
2.276,-0.044,-0.068,-0.024,0.059,-0.01,-0.049,-0.039,-0.102,-0.093,-0.073,-0.093,-0.049
2.278,-0.029,-0.068,-0.039,0.049,0.005,-0.054,-0.029,-0.102,-0.093,-0.068,-0.059,-0.029
2.28,-0.015,-0.044,-0.029,0.029,0.005,-0.039,-0.034,-0.098,-0.093,-0.063,-0.039,-0.015
2.282,-0.02,-0.015,0.005,0.02,-0.015,-0.005,-0.029,-0.098,-0.088,-0.059,-0.029,-0.005
2.284,-0.029,0.005,0.034,0.015,-0.034,0.02,-0.024,-0.088,-0.083,-0.063,-0.044,-0.005
2.286,-0.024,-0.005,0.02,0.015,-0.024,0.005,-0.044,-0.102,-0.102,-0.078,-0.078,-0.029
2.288,-0.02,-0.01,0.01,0.015,-0.015,0.0,-0.054,-0.107,-0.102,-0.083,-0.102,-0.059
2.29,-0.029,0.01,0.039,0.01,-0.034,0.024,-0.044,-0.102,-0.093,-0.083,-0.107,-0.049
2.292,-0.024,0.02,0.044,0.005,-0.034,0.029,-0.034,-0.098,-0.102,-0.078,-0.107,-0.054
2.294,-0.029,-0.02,0.01,0.024,-0.02,-0.005,-0.034,-0.107,-0.102,-0.073,-0.098,-0.054
2.296,-0.054,-0.039,0.015,0.049,-0.034,-0.015,-0.02,-0.088,-0.078,-0.063,-0.063,-0.034
2.298,-0.049,-0.049,0.0,0.049,-0.024,-0.024,-0.01,-0.073,-0.068,-0.049,-0.029,-0.01
2.3,-0.02,-0.02,0.0,0.02,-0.01,-0.01,-0.01,-0.078,-0.073,-0.049,-0.029,-0.01
2.302,-0.049,0.0,0.049,0.024,-0.049,0.024,-0.024,-0.093,-0.093,-0.063,-0.029,-0.015
2.304,-0.063,-0.005,0.059,0.034,-0.063,0.024,-0.034,-0.098,-0.098,-0.073,-0.034,-0.01
2.306,-0.054,-0.02,0.034,0.039,-0.044,0.005,-0.039,-0.098,-0.102,-0.083,-0.054,-0.02
2.308,-0.039,-0.015,0.024,0.029,-0.034,0.005,-0.054,-0.107,-0.107,-0.088,-0.098,-0.054
2.31,-0.039,0.01,0.049,0.015,-0.044,0.029,-0.029,-0.098,-0.093,-0.073,-0.093,-0.044
2.312,-0.059,0.015,0.073,0.024,-0.068,0.044,-0.024,-0.093,-0.088,-0.068,-0.088,-0.044
2.314,-0.063,-0.02,0.044,0.044,-0.054,0.01,-0.024,-0.102,-0.093,-0.068,-0.083,-0.049
2.316,-0.059,-0.049,0.01,0.054,-0.034,-0.02,-0.024,-0.098,-0.088,-0.063,-0.054,-0.039
2.318,-0.034,-0.078,-0.044,0.059,0.005,-0.063,-0.024,-0.088,-0.073,-0.054,-0.024,-0.01
2.32,-0.029,-0.073,-0.044,0.054,0.005,-0.059,-0.024,-0.093,-0.088,-0.059,-0.029,-0.015
2.322,-0.02,-0.029,-0.01,0.024,-0.005,-0.02,-0.02,-0.098,-0.088,-0.059,-0.024,-0.005
2.324,-0.02,-0.024,-0.005,0.024,-0.01,-0.015,-0.02,-0.107,-0.098,-0.068,-0.029,-0.005
2.326,-0.015,-0.024,-0.01,0.02,-0.005,-0.02,-0.029,-0.107,-0.098,-0.078,-0.054,-0.015
2.328,-0.01,0.0,0.01,0.005,-0.01,0.005,-0.039,-0.107,-0.107,-0.093,-0.088,-0.044
2.33,-0.034,0.01,0.044,0.015,-0.039,0.024,-0.029,-0.102,-0.102,-0.093,-0.098,-0.044
2.332,-0.049,0.02,0.068,0.015,-0.059,0.044,-0.005,-0.083,-0.083,-0.063,-0.098,-0.02
2.334,-0.054,-0.02,0.034,0.039,-0.044,0.005,-0.015,-0.083,-0.083,-0.059,-0.088,-0.029
2.336,-0.024,-0.034,-0.01,0.029,-0.01,-0.024,-0.034,-0.098,-0.093,-0.068,-0.073,-0.039
2.338,-0.02,-0.049,-0.029,0.034,0.005,-0.039,-0.049,-0.107,-0.098,-0.078,-0.049,-0.029
2.34,-0.039,-0.034,0.005,0.039,-0.024,-0.015,-0.039,-0.093,-0.098,-0.068,-0.044,-0.02
2.342,-0.02,-0.005,0.015,0.015,-0.02,0.005,-0.029,-0.093,-0.088,-0.068,-0.044,-0.015
2.344,-0.034,-0.02,0.015,0.029,-0.024,-0.005,-0.039,-0.102,-0.098,-0.073,-0.059,-0.029
2.346,-0.059,-0.054,0.005,0.059,-0.034,-0.024,-0.024,-0.093,-0.093,-0.073,-0.059,-0.015
2.348,-0.044,-0.039,0.005,0.044,-0.024,-0.02,-0.015,-0.083,-0.083,-0.063,-0.068,-0.02
2.35,-0.039,-0.029,0.01,0.034,-0.024,-0.01,-0.029,-0.093,-0.093,-0.078,-0.088,-0.039
2.352,-0.039,0.01,0.049,0.015,-0.044,0.029,-0.02,-0.088,-0.078,-0.063,-0.078,-0.024
2.354,-0.034,0.015,0.049,0.01,-0.044,0.029,-0.02,-0.083,-0.078,-0.073,-0.068,-0.015
2.356,-0.02,-0.029,-0.01,0.024,-0.005,-0.02,-0.024,-0.083,-0.088,-0.073,-0.044,-0.005
2.358,-0.02,-0.02,0.0,0.02,-0.01,-0.01,-0.034,-0.088,-0.088,-0.063,-0.02,0.0
2.36,-0.044,-0.005,0.039,0.024,-0.044,0.015,-0.039,-0.093,-0.088,-0.054,-0.01,0.01
2.362,-0.054,-0.029,0.024,0.044,-0.039,-0.005,-0.02,-0.083,-0.073,-0.054,-0.015,0.005
2.364,-0.029,-0.024,0.005,0.029,-0.02,-0.01,-0.034,-0.093,-0.098,-0.078,-0.054,-0.015
2.366,-0.044,-0.034,0.01,0.039,-0.029,-0.015,-0.029,-0.093,-0.093,-0.068,-0.068,-0.015
2.368,-0.049,-0.024,0.024,0.039,-0.039,0.0,-0.029,-0.102,-0.098,-0.073,-0.088,-0.039
2.37,-0.049,-0.029,0.02,0.039,-0.034,-0.005,-0.044,-0.107,-0.102,-0.083,-0.102,-0.054
2.372,-0.02,-0.039,-0.02,0.029,0.0,-0.029,-0.039,-0.102,-0.098,-0.078,-0.093,-0.063
2.374,0.029,-0.015,-0.044,-0.005,0.034,-0.029,-0.029,-0.107,-0.102,-0.078,-0.078,-0.044
2.376,0.0,-0.024,-0.024,0.015,0.01,-0.024,-0.024,-0.102,-0.093,-0.073,-0.059,-0.034
2.378,-0.02,-0.063,-0.044,0.044,0.01,-0.054,0.0,-0.078,-0.073,-0.049,-0.029,0.0
2.38,-0.015,-0.034,-0.02,0.024,0.0,-0.029,-0.01,-0.073,-0.073,-0.039,-0.01,0.01
2.382,-0.02,-0.015,0.005,0.02,-0.015,-0.005,-0.01,-0.083,-0.078,-0.044,-0.015,0.01
2.384,-0.015,0.01,0.024,0.005,-0.02,0.015,-0.02,-0.083,-0.088,-0.068,-0.029,0.0
2.386,-0.049,0.0,0.049,0.024,-0.049,0.024,-0.02,-0.093,-0.098,-0.078,-0.044,-0.015
2.388,-0.068,-0.01,0.059,0.039,-0.063,0.024,-0.024,-0.098,-0.098,-0.078,-0.054,-0.029
2.39,-0.049,-0.01,0.039,0.029,-0.044,0.015,-0.034,-0.098,-0.102,-0.088,-0.078,-0.044
2.392,-0.039,-0.044,-0.005,0.044,-0.02,-0.024,-0.029,-0.088,-0.098,-0.083,-0.083,-0.039
2.394,-0.039,-0.059,-0.02,0.049,-0.01,-0.039,-0.034,-0.093,-0.098,-0.078,-0.088,-0.039
2.396,-0.029,-0.039,-0.01,0.034,-0.01,-0.024,-0.044,-0.102,-0.107,-0.083,-0.068,-0.029
2.398,-0.02,-0.039,-0.02,0.029,0.0,-0.029,-0.044,-0.098,-0.093,-0.068,-0.049,-0.01
2.4,-0.02,-0.02,0.0,0.02,-0.01,-0.01,-0.039,-0.098,-0.093,-0.059,-0.049,-0.005
2.402,-0.024,-0.005,0.02,0.015,-0.024,0.005,-0.039,-0.098,-0.093,-0.059,-0.044,-0.005
2.404,-0.02,-0.029,-0.01,0.024,-0.005,-0.02,-0.024,-0.093,-0.088,-0.054,-0.034,0.005
2.406,-0.02,-0.02,0.0,0.02,-0.01,-0.01,-0.034,-0.088,-0.098,-0.063,-0.059,-0.015
2.408,-0.073,-0.005,0.068,0.039,-0.073,0.029,-0.029,-0.078,-0.083,-0.063,-0.063,-0.029
2.41,-0.054,0.005,0.059,0.024,-0.059,0.029,-0.039,-0.088,-0.093,-0.078,-0.088,-0.044
2.412,-0.044,0.039,0.083,0.005,-0.063,0.059,-0.049,-0.102,-0.112,-0.093,-0.102,-0.063
2.414,-0.049,0.015,0.063,0.02,-0.059,0.039,-0.039,-0.098,-0.107,-0.098,-0.098,-0.054
2.416,-0.034,-0.029,0.005,0.034,-0.02,-0.015,-0.034,-0.098,-0.102,-0.088,-0.073,-0.039
2.418,-0.034,-0.073,-0.039,0.054,0.0,-0.059,-0.034,-0.093,-0.093,-0.068,-0.039,-0.02
2.42,-0.039,-0.098,-0.059,0.068,0.01,-0.078,-0.015,-0.073,-0.073,-0.049,-0.015,0.005
2.422,-0.024,-0.049,-0.024,0.039,0.0,-0.039,-0.02,-0.083,-0.083,-0.049,-0.024,-0.005
2.424,-0.029,-0.01,0.02,0.02,-0.024,0.005,-0.024,-0.102,-0.107,-0.068,-0.039,-0.01
2.426,-0.024,-0.005,0.02,0.015,-0.024,0.005,-0.029,-0.107,-0.112,-0.083,-0.054,-0.024
2.428,-0.034,-0.029,0.005,0.034,-0.02,-0.015,-0.02,-0.088,-0.098,-0.073,-0.063,-0.034
2.43,-0.044,-0.024,0.02,0.034,-0.034,-0.005,-0.029,-0.098,-0.102,-0.088,-0.083,-0.049
2.432,-0.039,-0.02,0.02,0.029,-0.029,0.0,-0.039,-0.098,-0.102,-0.088,-0.073,-0.044
2.434,-0.054,-0.049,0.005,0.054,-0.029,-0.024,-0.02,-0.088,-0.098,-0.078,-0.059,-0.034
2.436,-0.039,-0.059,-0.02,0.049,-0.01,-0.039,-0.024,-0.083,-0.088,-0.063,-0.039,-0.024
2.438,-0.024,-0.054,-0.029,0.039,0.0,-0.044,-0.029,-0.083,-0.083,-0.063,-0.024,-0.015
2.44,-0.034,-0.049,-0.015,0.044,-0.01,-0.034,-0.044,-0.098,-0.102,-0.078,-0.034,-0.02
2.442,-0.02,-0.044,-0.024,0.034,0.0,-0.034,-0.024,-0.083,-0.093,-0.059,-0.02,-0.005
2.444,0.0,-0.029,-0.029,0.015,0.015,-0.029,-0.034,-0.088,-0.098,-0.068,-0.029,-0.01
2.446,-0.02,-0.01,0.01,0.015,-0.015,0.0,-0.039,-0.093,-0.102,-0.083,-0.054,-0.015
2.448,-0.034,0.0,0.034,0.02,-0.034,0.015,-0.049,-0.107,-0.107,-0.088,-0.078,-0.034
2.45,-0.024,0.01,0.034,0.01,-0.029,0.02,-0.039,-0.107,-0.102,-0.083,-0.083,-0.049
2.452,-0.039,-0.01,0.029,0.024,-0.034,0.01,-0.034,-0.102,-0.107,-0.083,-0.093,-0.049
2.454,-0.054,-0.024,0.029,0.039,-0.044,0.0,-0.029,-0.098,-0.102,-0.083,-0.078,-0.054
2.456,-0.044,-0.039,0.005,0.044,-0.024,-0.02,-0.029,-0.098,-0.098,-0.073,-0.068,-0.044
2.458,-0.024,-0.059,-0.034,0.044,0.005,-0.049,-0.005,-0.088,-0.078,-0.054,-0.02,-0.01
2.46,-0.024,-0.039,-0.015,0.034,-0.005,-0.029,-0.015,-0.093,-0.083,-0.059,-0.02,-0.015
2.462,-0.039,-0.02,0.02,0.029,-0.029,0.0,-0.024,-0.098,-0.098,-0.068,-0.024,-0.015
2.464,-0.039,-0.029,0.01,0.034,-0.024,-0.01,-0.034,-0.102,-0.112,-0.073,-0.039,-0.02
2.466,-0.039,-0.049,-0.01,0.044,-0.015,-0.029,-0.029,-0.093,-0.102,-0.068,-0.044,-0.015
2.468,-0.034,-0.059,-0.024,0.049,-0.005,-0.044,-0.01,-0.068,-0.083,-0.054,-0.049,-0.01
2.47,-0.005,-0.034,-0.029,0.02,0.01,-0.034,-0.02,-0.088,-0.098,-0.078,-0.073,-0.039
2.472,-0.01,-0.024,-0.015,0.02,0.0,-0.02,-0.039,-0.107,-0.107,-0.093,-0.083,-0.049
2.474,-0.029,-0.024,0.005,0.029,-0.02,-0.01,-0.029,-0.098,-0.102,-0.083,-0.059,-0.044
2.476,-0.029,-0.029,0.0,0.029,-0.015,-0.015,-0.02,-0.102,-0.107,-0.078,-0.039,-0.034
2.478,-0.015,-0.059,-0.044,0.039,0.015,-0.054,-0.005,-0.093,-0.088,-0.068,-0.005,-0.005
2.48,-0.039,-0.068,-0.029,0.054,-0.005,-0.049,-0.005,-0.093,-0.078,-0.054,0.005,0.02
2.482,-0.049,-0.078,-0.029,0.063,-0.01,-0.054,-0.029,-0.112,-0.107,-0.073,-0.02,0.0
2.484,-0.02,-0.044,-0.024,0.034,0.0,-0.034,-0.049,-0.122,-0.117,-0.088,-0.034,-0.015
2.486,-0.02,-0.015,0.005,0.02,-0.015,-0.005,-0.049,-0.112,-0.107,-0.093,-0.044,-0.024
2.488,-0.024,-0.005,0.02,0.015,-0.024,0.005,-0.054,-0.117,-0.117,-0.098,-0.068,-0.049
2.49,-0.029,-0.024,0.005,0.029,-0.02,-0.01,-0.034,-0.107,-0.102,-0.083,-0.068,-0.054
2.492,-0.054,-0.044,0.01,0.049,-0.034,-0.02,-0.02,-0.102,-0.088,-0.068,-0.063,-0.039
2.494,-0.034,-0.049,-0.015,0.044,-0.01,-0.034,-0.024,-0.098,-0.088,-0.073,-0.059,-0.039
2.496,-0.015,-0.034,-0.02,0.024,0.0,-0.029,-0.029,-0.098,-0.098,-0.068,-0.049,-0.029
2.498,-0.005,-0.015,-0.01,0.01,0.0,-0.015,-0.034,-0.102,-0.098,-0.068,-0.024,-0.005
2.5,0.0,-0.015,-0.015,0.01,0.005,-0.015,-0.044,-0.117,-0.102,-0.078,-0.02,-0.015
2.502,-0.039,-0.024,0.015,0.034,-0.029,-0.005,-0.044,-0.117,-0.102,-0.073,-0.024,0.0
2.504,-0.063,-0.015,0.049,0.039,-0.059,0.015,-0.034,-0.112,-0.112,-0.083,-0.029,0.0
2.506,-0.044,-0.005,0.039,0.024,-0.044,0.015,-0.034,-0.112,-0.107,-0.088,-0.034,-0.015
2.508,-0.044,-0.044,0.0,0.044,-0.024,-0.024,-0.029,-0.112,-0.112,-0.098,-0.068,-0.029
2.51,-0.044,-0.054,-0.01,0.049,-0.02,-0.034,-0.034,-0.112,-0.117,-0.093,-0.078,-0.049
2.512,-0.015,-0.034,-0.02,0.024,0.0,-0.029,-0.034,-0.102,-0.112,-0.088,-0.073,-0.044
2.514,-0.024,-0.044,-0.02,0.034,-0.005,-0.034,-0.029,-0.098,-0.102,-0.078,-0.049,-0.039
2.516,0.01,-0.049,-0.059,0.02,0.034,-0.054,-0.015,-0.098,-0.102,-0.073,-0.029,-0.024
2.518,0.015,-0.039,-0.054,0.015,0.034,-0.049,0.0,-0.078,-0.078,-0.044,0.01,0.005
2.52,-0.005,-0.024,-0.02,0.015,0.005,-0.024,-0.005,-0.083,-0.088,-0.063,0.005,-0.01
2.522,0.024,-0.039,-0.063,0.01,0.044,-0.054,-0.024,-0.102,-0.102,-0.078,-0.01,-0.015
2.524,0.015,-0.044,-0.059,0.015,0.034,-0.054,-0.049,-0.117,-0.127,-0.093,-0.024,-0.029
2.526,0.005,-0.063,-0.068,0.029,0.034,-0.068,-0.039,-0.112,-0.117,-0.078,-0.024,-0.029
2.528,-0.015,-0.049,-0.034,0.034,0.01,-0.044,-0.034,-0.107,-0.112,-0.083,-0.049,-0.044
2.53,-0.039,-0.044,-0.005,0.044,-0.02,-0.024,-0.049,-0.112,-0.112,-0.088,-0.073,-0.049
2.532,-0.059,-0.059,0.0,0.059,-0.029,-0.029,-0.034,-0.098,-0.098,-0.078,-0.068,-0.044
2.534,-0.068,-0.068,0.0,0.068,-0.034,-0.034,-0.015,-0.088,-0.088,-0.063,-0.059,-0.039
2.536,-0.073,-0.044,0.029,0.059,-0.054,-0.01,-0.02,-0.093,-0.088,-0.059,-0.049,-0.034
2.538,-0.054,-0.049,0.005,0.054,-0.029,-0.024,-0.01,-0.083,-0.073,-0.039,-0.01,0.005
2.54,-0.054,-0.049,0.005,0.054,-0.029,-0.024,-0.01,-0.083,-0.068,-0.034,0.02,0.02
2.542,-0.034,-0.054,-0.02,0.044,-0.01,-0.039,-0.024,-0.088,-0.083,-0.054,0.0,0.0
2.544,-0.024,-0.039,-0.015,0.034,-0.005,-0.029,-0.034,-0.107,-0.112,-0.088,-0.02,-0.02
2.546,-0.054,-0.024,0.029,0.039,-0.044,0.0,-0.034,-0.107,-0.117,-0.088,-0.039,-0.024
2.548,-0.039,-0.029,0.01,0.034,-0.024,-0.01,-0.034,-0.102,-0.107,-0.088,-0.059,-0.039
2.55,-0.034,-0.044,-0.01,0.039,-0.015,-0.029,-0.044,-0.102,-0.107,-0.083,-0.083,-0.049
2.552,-0.054,-0.054,0.0,0.054,-0.029,-0.029,-0.034,-0.102,-0.112,-0.088,-0.093,-0.059
2.554,-0.034,-0.054,-0.02,0.044,-0.01,-0.039,-0.044,-0.107,-0.112,-0.088,-0.088,-0.054
2.556,-0.024,-0.029,-0.005,0.029,-0.01,-0.02,-0.044,-0.117,-0.117,-0.093,-0.083,-0.063
2.558,-0.029,-0.039,-0.01,0.034,-0.01,-0.024,-0.039,-0.098,-0.098,-0.068,-0.044,-0.034
2.56,0.0,-0.029,-0.029,0.015,0.015,-0.029,-0.02,-0.098,-0.098,-0.063,-0.015,-0.01
2.562,-0.02,-0.044,-0.024,0.034,0.0,-0.034,-0.024,-0.093,-0.102,-0.063,-0.01,-0.01
2.564,-0.02,-0.029,-0.01,0.024,-0.005,-0.02,-0.024,-0.098,-0.102,-0.068,-0.015,0.005
2.566,0.005,-0.015,-0.02,0.005,0.01,-0.02,-0.024,-0.102,-0.112,-0.078,-0.029,-0.01
2.568,-0.015,-0.044,-0.029,0.029,0.005,-0.039,-0.029,-0.102,-0.107,-0.078,-0.049,-0.034
2.57,-0.01,-0.034,-0.024,0.024,0.005,-0.029,-0.024,-0.083,-0.093,-0.068,-0.049,-0.034
2.572,-0.015,-0.044,-0.029,0.029,0.005,-0.039,-0.015,-0.088,-0.093,-0.073,-0.054,-0.034
2.574,-0.02,-0.049,-0.029,0.034,0.005,-0.039,-0.02,-0.098,-0.093,-0.068,-0.044,-0.029
2.576,-0.01,-0.024,-0.015,0.02,0.0,-0.02,-0.015,-0.088,-0.088,-0.068,-0.02,-0.024
2.578,-0.029,-0.034,-0.005,0.034,-0.015,-0.02,-0.024,-0.093,-0.093,-0.063,-0.01,-0.01
2.58,-0.015,0.015,0.029,0.0,-0.024,0.02,-0.015,-0.093,-0.083,-0.054,0.015,0.015
2.582,-0.01,0.005,0.015,0.005,-0.015,0.01,0.0,-0.078,-0.073,-0.039,0.029,0.034
2.584,-0.024,-0.005,0.02,0.015,-0.024,0.005,0.01,-0.063,-0.068,-0.034,0.015,0.029
2.586,-0.02,0.02,0.039,0.0,-0.029,0.029,-0.005,-0.068,-0.083,-0.049,-0.02,0.005
2.588,0.02,0.039,0.02,-0.029,0.0,0.029,-0.01,-0.083,-0.098,-0.068,-0.039,-0.024
2.59,0.02,0.01,-0.01,-0.015,0.015,0.0,-0.01,-0.078,-0.098,-0.078,-0.044,-0.034
2.592,-0.024,0.015,0.039,0.005,-0.034,0.024,-0.005,-0.078,-0.088,-0.068,-0.044,-0.034
2.594,-0.039,-0.005,0.034,0.024,-0.039,0.015,0.005,-0.068,-0.073,-0.059,-0.029,-0.02
2.596,-0.034,-0.01,0.024,0.024,-0.029,0.005,0.0,-0.063,-0.068,-0.044,-0.02,-0.015
2.598,-0.029,0.0,0.029,0.015,-0.029,0.015,0.005,-0.049,-0.059,-0.034,0.015,0.024
2.6,-0.02,0.005,0.024,0.01,-0.024,0.015,0.005,-0.063,-0.063,-0.039,0.02,0.024
2.602,-0.005,0.024,0.029,-0.01,-0.02,0.024,-0.005,-0.073,-0.068,-0.044,0.015,0.024
2.604,0.01,0.024,0.015,-0.015,-0.005,0.02,-0.005,-0.068,-0.073,-0.044,0.01,0.02
2.606,0.015,0.005,-0.01,-0.01,0.01,-0.005,-0.015,-0.073,-0.068,-0.044,0.005,0.024
2.608,0.02,0.049,0.029,-0.034,-0.005,0.039,-0.024,-0.083,-0.083,-0.059,-0.029,-0.01
2.61,0.02,0.049,0.029,-0.034,-0.005,0.039,-0.034,-0.078,-0.078,-0.059,-0.039,-0.029
2.612,0.024,0.029,0.005,-0.024,0.01,0.015,-0.02,-0.063,-0.068,-0.049,-0.024,-0.02
2.614,0.0,-0.015,-0.015,0.01,0.005,-0.015,-0.024,-0.068,-0.068,-0.049,-0.015,-0.015
2.616,-0.024,-0.073,-0.049,0.049,0.01,-0.063,-0.02,-0.063,-0.059,-0.034,0.005,0.0
2.618,-0.005,-0.054,-0.049,0.029,0.02,-0.054,-0.015,-0.054,-0.049,-0.024,0.029,0.024
2.62,0.0,-0.015,-0.015,0.01,0.005,-0.015,-0.034,-0.063,-0.059,-0.034,0.024,0.02
2.622,0.01,0.0,-0.01,-0.005,0.01,-0.005,-0.039,-0.063,-0.063,-0.039,0.02,0.015
2.624,0.02,0.015,-0.005,-0.015,0.01,0.005,-0.039,-0.068,-0.073,-0.044,0.015,0.01
2.626,0.02,0.01,-0.01,-0.015,0.015,0.0,-0.034,-0.068,-0.068,-0.039,0.02,0.015
2.628,0.054,0.01,-0.044,-0.029,0.049,-0.02,-0.049,-0.093,-0.093,-0.059,-0.01,-0.02
2.63,0.034,-0.005,-0.039,-0.015,0.034,-0.024,-0.039,-0.078,-0.083,-0.063,-0.02,-0.024
2.632,0.015,0.0,-0.015,-0.005,0.015,-0.01,-0.044,-0.083,-0.088,-0.068,-0.029,-0.024
2.634,0.044,-0.005,-0.049,-0.02,0.044,-0.029,-0.054,-0.102,-0.102,-0.088,-0.029,-0.039
2.636,0.059,-0.01,-0.068,-0.024,0.063,-0.039,-0.054,-0.107,-0.102,-0.088,-0.039,-0.029
2.638,0.005,-0.059,-0.063,0.029,0.034,-0.063,-0.044,-0.093,-0.078,-0.059,0.0,0.01
2.64,0.005,-0.068,-0.073,0.034,0.039,-0.073,-0.039,-0.102,-0.088,-0.054,0.005,0.02
2.642,-0.005,-0.059,-0.054,0.034,0.024,-0.059,-0.039,-0.102,-0.093,-0.059,-0.005,0.01
2.644,0.01,-0.024,-0.034,0.01,0.02,-0.029,-0.049,-0.112,-0.102,-0.073,-0.02,-0.01
2.646,0.01,0.01,0.0,-0.01,0.005,0.005,-0.063,-0.132,-0.122,-0.098,-0.044,-0.024
2.648,0.02,0.005,-0.015,-0.01,0.015,-0.005,-0.068,-0.132,-0.127,-0.102,-0.063,-0.044
2.65,0.034,0.015,-0.02,-0.024,0.024,-0.005,-0.063,-0.137,-0.127,-0.102,-0.063,-0.054
2.652,-0.01,-0.039,-0.029,0.024,0.01,-0.034,-0.044,-0.122,-0.107,-0.088,-0.044,-0.039
2.654,-0.015,-0.068,-0.054,0.044,0.02,-0.063,-0.034,-0.112,-0.093,-0.073,-0.024,-0.024
2.656,0.005,-0.073,-0.078,0.034,0.039,-0.078,-0.039,-0.117,-0.107,-0.083,-0.029,-0.02
2.658,-0.029,-0.083,-0.054,0.059,0.01,-0.068,-0.034,-0.107,-0.102,-0.073,-0.01,0.005
2.66,-0.054,-0.078,-0.024,0.068,-0.015,-0.054,-0.029,-0.102,-0.102,-0.073,-0.01,0.01
2.662,-0.015,-0.073,-0.059,0.044,0.02,-0.068,-0.044,-0.137,-0.132,-0.102,-0.024,-0.015
2.664,-0.02,-0.073,-0.054,0.049,0.015,-0.063,-0.049,-0.142,-0.137,-0.102,-0.029,-0.029
2.666,-0.029,-0.054,-0.024,0.044,-0.005,-0.039,-0.044,-0.137,-0.132,-0.102,-0.039,-0.034
2.668,-0.029,-0.034,-0.005,0.034,-0.015,-0.02,-0.054,-0.137,-0.137,-0.107,-0.059,-0.054
2.67,-0.024,-0.039,-0.015,0.034,-0.005,-0.029,-0.044,-0.137,-0.137,-0.107,-0.073,-0.068
2.672,-0.054,-0.068,-0.015,0.063,-0.02,-0.044,-0.049,-0.146,-0.151,-0.122,-0.078,-0.083
2.674,-0.073,-0.093,-0.02,0.083,-0.029,-0.059,-0.044,-0.137,-0.142,-0.102,-0.059,-0.059
2.676,-0.059,-0.078,-0.02,0.068,-0.02,-0.049,-0.024,-0.122,-0.122,-0.083,-0.034,-0.039
2.678,-0.088,-0.083,0.005,0.088,-0.049,-0.039,-0.015,-0.112,-0.112,-0.068,-0.005,-0.01
2.68,-0.083,-0.068,0.015,0.078,-0.049,-0.029,-0.024,-0.117,-0.112,-0.073,0.0,-0.005
2.682,-0.044,-0.059,-0.015,0.054,-0.015,-0.039,-0.034,-0.122,-0.117,-0.083,-0.015,-0.01
2.684,-0.049,-0.059,-0.01,0.054,-0.02,-0.034,-0.044,-0.137,-0.137,-0.102,-0.034,-0.034
2.686,-0.044,-0.044,0.0,0.044,-0.024,-0.024,-0.039,-0.142,-0.142,-0.112,-0.054,-0.044
2.688,-0.029,-0.054,-0.024,0.044,-0.005,-0.039,-0.044,-0.146,-0.146,-0.127,-0.073,-0.073
2.69,-0.015,-0.083,-0.068,0.049,0.024,-0.078,-0.029,-0.137,-0.132,-0.117,-0.063,-0.059
2.692,-0.029,-0.078,-0.049,0.054,0.01,-0.063,-0.029,-0.132,-0.132,-0.102,-0.059,-0.054
2.694,-0.063,-0.078,-0.015,0.073,-0.024,-0.049,-0.034,-0.142,-0.137,-0.117,-0.059,-0.059
2.696,-0.063,-0.068,-0.005,0.068,-0.029,-0.039,-0.039,-0.146,-0.146,-0.127,-0.068,-0.059
2.698,-0.049,-0.063,-0.015,0.059,-0.02,-0.039,-0.054,-0.151,-0.146,-0.122,-0.054,-0.039
2.7,-0.039,-0.059,-0.02,0.049,-0.01,-0.039,-0.049,-0.146,-0.146,-0.117,-0.044,-0.044
2.702,-0.02,-0.044,-0.024,0.034,0.0,-0.034,-0.034,-0.142,-0.137,-0.117,-0.039,-0.034
2.704,-0.029,-0.039,-0.01,0.034,-0.01,-0.024,-0.034,-0.142,-0.137,-0.117,-0.039,-0.029
2.706,-0.049,-0.098,-0.049,0.073,0.0,-0.073,-0.029,-0.132,-0.137,-0.102,-0.039,-0.034
2.708,-0.054,-0.083,-0.029,0.068,-0.015,-0.059,-0.024,-0.127,-0.137,-0.102,-0.049,-0.068
2.71,-0.068,-0.083,-0.015,0.078,-0.029,-0.049,-0.024,-0.127,-0.137,-0.107,-0.054,-0.088
2.712,-0.059,-0.063,-0.005,0.063,-0.029,-0.034,-0.034,-0.127,-0.142,-0.112,-0.059,-0.107
2.714,-0.029,-0.049,-0.02,0.039,-0.005,-0.034,-0.024,-0.132,-0.137,-0.102,-0.059,-0.088
2.716,-0.024,-0.063,-0.039,0.044,0.005,-0.054,-0.02,-0.127,-0.127,-0.098,-0.054,-0.068
2.718,-0.02,-0.029,-0.01,0.024,-0.005,-0.02,-0.034,-0.132,-0.137,-0.102,-0.054,-0.039
2.72,-0.034,-0.073,-0.039,0.054,0.0,-0.059,-0.029,-0.122,-0.127,-0.093,-0.044,-0.005
2.722,-0.024,-0.093,-0.068,0.059,0.02,-0.083,-0.015,-0.117,-0.117,-0.088,-0.034,0.005
2.724,-0.024,-0.034,-0.01,0.029,-0.01,-0.024,-0.015,-0.127,-0.137,-0.102,-0.044,-0.024
2.726,-0.029,-0.015,0.015,0.024,-0.024,0.0,-0.02,-0.146,-0.171,-0.122,-0.054,-0.049
2.728,-0.044,-0.034,0.01,0.039,-0.029,-0.015,0.005,-0.132,-0.2,-0.137,-0.068,-0.078
2.73,-0.054,-0.024,0.029,0.039,-0.044,0.0,0.034,-0.117,-0.205,-0.142,-0.078,-0.117
2.732,-0.063,-0.044,0.02,0.054,-0.044,-0.015,0.083,-0.059,-0.2,-0.132,-0.083,-0.127
2.734,-0.068,-0.01,0.059,0.039,-0.063,0.024,0.132,0.024,-0.161,-0.102,-0.054,-0.112
2.736,-0.088,0.0,0.088,0.044,-0.088,0.044,0.19,0.142,-0.068,-0.029,-0.005,-0.063
2.738,-0.098,0.024,0.122,0.039,-0.112,0.073,0.239,0.278,0.078,0.078,0.068,0.01
2.74,-0.073,0.068,0.142,0.005,-0.107,0.102,0.264,0.415,0.264,0.239,0.146,0.088
2.742,-0.015,0.098,0.112,-0.039,-0.063,0.102,0.254,0.512,0.503,0.42,0.254,0.146
2.744,0.054,0.127,0.073,-0.088,-0.01,0.098,0.215,0.615,0.786,0.634,0.386,0.224
2.746,0.156,0.229,0.073,-0.19,0.039,0.151,0.127,0.688,1.098,0.844,0.503,0.264
2.748,0.268,0.307,0.039,-0.288,0.112,0.171,0.029,0.756,1.449,1.069,0.62,0.307
2.75,0.405,0.376,-0.029,-0.39,0.215,0.171,-0.093,0.805,1.82,1.303,0.766,0.39
2.752,0.522,0.439,-0.083,-0.478,0.303,0.176,-0.239,0.766,2.157,1.518,0.932,0.498
2.754,0.581,0.468,-0.112,-0.522,0.346,0.176,-0.376,0.669,2.377,1.664,1.064,0.634
2.756,0.61,0.493,-0.117,-0.551,0.361,0.185,-0.522,0.547,2.406,1.635,1.098,0.732
2.758,0.654,0.415,-0.239,-0.532,0.444,0.088,-0.639,0.429,2.289,1.464,1.015,0.717
2.76,0.683,0.303,-0.381,-0.493,0.532,-0.039,-0.737,0.259,2.025,1.215,0.869,0.659
2.762,0.644,0.21,-0.434,-0.425,0.537,-0.112,-0.839,-0.024,1.615,0.937,0.737,0.605
2.764,0.537,0.185,-0.351,-0.361,0.444,-0.083,-0.883,-0.337,1.078,0.625,0.595,0.561
2.766,0.439,0.166,-0.273,-0.303,0.356,-0.054,-0.859,-0.639,0.527,0.337,0.459,0.468
2.768,0.332,0.088,-0.244,-0.21,0.288,-0.078,-0.8,-0.893,0.02,0.063,0.283,0.312
2.77,0.273,-0.02,-0.293,-0.127,0.283,-0.156,-0.761,-1.069,-0.376,-0.19,0.102,0.161
2.772,0.244,-0.068,-0.312,-0.088,0.278,-0.19,-0.673,-1.078,-0.551,-0.317,-0.005,0.063
2.774,0.181,-0.112,-0.293,-0.034,0.234,-0.205,-0.595,-0.971,-0.551,-0.351,-0.078,0.005
2.776,0.083,-0.146,-0.229,0.034,0.156,-0.19,-0.498,-0.805,-0.478,-0.322,-0.102,-0.005
2.778,0.063,-0.127,-0.19,0.034,0.127,-0.161,-0.425,-0.654,-0.415,-0.298,-0.102,0.015
2.78,0.073,-0.107,-0.181,0.02,0.127,-0.146,-0.366,-0.532,-0.361,-0.264,-0.102,0.02
2.782,0.029,-0.068,-0.098,0.02,0.063,-0.083,-0.288,-0.42,-0.283,-0.195,-0.063,0.054
2.784,0.024,-0.039,-0.063,0.01,0.044,-0.054,-0.229,-0.327,-0.224,-0.161,-0.039,0.049
2.786,0.054,-0.005,-0.059,-0.024,0.054,-0.034,-0.156,-0.229,-0.161,-0.107,-0.015,0.034
2.788,0.044,0.01,-0.034,-0.024,0.039,-0.015,-0.122,-0.181,-0.142,-0.098,-0.01,-0.005
2.79,-0.01,-0.015,-0.005,0.015,-0.005,-0.01,-0.093,-0.146,-0.132,-0.098,-0.02,-0.039
2.792,-0.024,-0.02,0.005,0.024,-0.015,-0.01,-0.068,-0.132,-0.137,-0.107,-0.034,-0.063
2.794,-0.01,-0.024,-0.015,0.02,0.0,-0.02,-0.034,-0.107,-0.122,-0.093,-0.024,-0.044
2.796,-0.015,-0.034,-0.02,0.024,0.0,-0.029,-0.029,-0.112,-0.132,-0.098,-0.029,-0.029
2.798,-0.015,-0.059,-0.044,0.039,0.015,-0.054,-0.015,-0.102,-0.132,-0.098,-0.02,0.02
2.8,-0.034,-0.078,-0.044,0.059,0.005,-0.063,-0.01,-0.112,-0.146,-0.102,-0.029,0.029
2.802,-0.049,-0.083,-0.034,0.068,-0.01,-0.059,0.0,-0.107,-0.142,-0.102,-0.034,0.029
2.804,-0.039,-0.044,-0.005,0.044,-0.02,-0.024,0.0,-0.088,-0.137,-0.098,-0.024,0.02
2.806,-0.029,-0.049,-0.02,0.039,-0.005,-0.034,0.005,-0.078,-0.137,-0.098,-0.015,0.01
2.808,-0.029,-0.034,-0.005,0.034,-0.015,-0.02,0.015,-0.088,-0.142,-0.112,-0.029,-0.039
2.81,-0.029,-0.049,-0.02,0.039,-0.005,-0.034,0.0,-0.093,-0.151,-0.127,-0.039,-0.059
2.812,-0.039,-0.063,-0.024,0.054,-0.01,-0.044,0.0,-0.102,-0.171,-0.137,-0.059,-0.083
2.814,-0.039,-0.034,0.005,0.039,-0.024,-0.015,0.005,-0.083,-0.166,-0.127,-0.059,-0.068
2.816,-0.024,-0.029,-0.005,0.029,-0.01,-0.02,0.01,-0.073,-0.146,-0.117,-0.063,-0.049
2.818,-0.034,-0.049,-0.015,0.044,-0.01,-0.034,0.01,-0.063,-0.146,-0.117,-0.059,-0.024
2.82,-0.029,-0.068,-0.039,0.049,0.005,-0.054,0.015,-0.059,-0.146,-0.112,-0.059,-0.01
2.822,-0.039,-0.083,-0.044,0.063,0.0,-0.063,0.0,-0.068,-0.146,-0.117,-0.073,-0.02
2.824,-0.024,-0.073,-0.049,0.049,0.01,-0.063,0.01,-0.073,-0.156,-0.122,-0.083,-0.029
2.826,0.0,-0.049,-0.049,0.024,0.024,-0.049,0.015,-0.063,-0.156,-0.122,-0.073,-0.029
2.828,-0.01,-0.068,-0.059,0.039,0.024,-0.063,0.02,-0.063,-0.146,-0.117,-0.073,-0.049
2.83,-0.039,-0.083,-0.044,0.063,0.0,-0.063,0.024,-0.054,-0.137,-0.117,-0.068,-0.049
2.832,-0.078,-0.078,0.0,0.078,-0.039,-0.039,0.01,-0.063,-0.161,-0.137,-0.088,-0.044
2.834,-0.083,-0.063,0.02,0.073,-0.054,-0.024,0.02,-0.049,-0.151,-0.132,-0.088,-0.049
2.836,-0.044,-0.044,0.0,0.044,-0.024,-0.024,0.02,-0.044,-0.142,-0.122,-0.083,-0.044
2.838,-0.01,-0.044,-0.034,0.029,0.01,-0.039,0.015,-0.049,-0.146,-0.122,-0.063,-0.029
2.84,-0.01,-0.054,-0.044,0.034,0.015,-0.049,0.029,-0.039,-0.142,-0.112,-0.059,-0.015
2.842,-0.034,-0.039,-0.005,0.039,-0.015,-0.024,0.015,-0.049,-0.151,-0.122,-0.059,-0.024
2.844,-0.039,-0.02,0.02,0.029,-0.029,0.0,0.02,-0.044,-0.146,-0.117,-0.054,-0.015
2.846,-0.029,-0.02,0.01,0.024,-0.02,-0.005,0.024,-0.034,-0.142,-0.122,-0.039,-0.01
2.848,-0.034,-0.005,0.029,0.02,-0.034,0.01,0.01,-0.049,-0.146,-0.137,-0.054,-0.034
2.85,-0.024,-0.039,-0.015,0.034,-0.005,-0.029,0.0,-0.049,-0.156,-0.137,-0.068,-0.049
2.852,-0.029,-0.059,-0.029,0.044,0.0,-0.044,0.015,-0.034,-0.142,-0.112,-0.073,-0.044
2.854,-0.044,-0.088,-0.044,0.068,0.0,-0.068,0.029,-0.029,-0.132,-0.088,-0.073,-0.015
2.856,-0.024,-0.049,-0.024,0.039,0.0,-0.039,0.039,-0.024,-0.132,-0.088,-0.078,-0.015
2.858,-0.01,-0.034,-0.024,0.024,0.005,-0.029,0.039,-0.02,-0.137,-0.093,-0.063,0.01
2.86,-0.024,-0.049,-0.024,0.039,0.0,-0.039,0.039,-0.02,-0.127,-0.102,-0.059,0.0
2.862,-0.049,-0.049,0.0,0.049,-0.024,-0.024,0.029,-0.024,-0.142,-0.107,-0.059,-0.02
2.864,-0.044,-0.049,-0.005,0.049,-0.02,-0.029,0.029,-0.039,-0.142,-0.112,-0.063,-0.029
2.866,-0.044,-0.049,-0.005,0.049,-0.02,-0.029,0.059,-0.02,-0.127,-0.093,-0.054,-0.024
2.868,-0.073,-0.059,0.015,0.068,-0.044,-0.024,0.068,-0.015,-0.127,-0.102,-0.068,-0.039
2.87,-0.093,-0.078,0.015,0.088,-0.054,-0.034,0.049,-0.02,-0.137,-0.112,-0.093,-0.054
2.872,-0.034,-0.044,-0.01,0.039,-0.015,-0.029,0.049,-0.015,-0.132,-0.112,-0.088,-0.039
2.874,-0.024,-0.034,-0.01,0.029,-0.01,-0.024,0.039,-0.015,-0.137,-0.107,-0.083,-0.024
2.876,-0.024,-0.054,-0.029,0.039,0.0,-0.044,0.024,-0.02,-0.137,-0.112,-0.078,-0.034
2.878,-0.024,-0.059,-0.034,0.044,0.005,-0.049,0.01,-0.015,-0.137,-0.107,-0.054,-0.015
2.88,-0.039,-0.049,-0.01,0.044,-0.015,-0.029,0.015,-0.01,-0.132,-0.098,-0.034,-0.01
2.882,-0.054,-0.054,0.0,0.054,-0.029,-0.029,0.024,-0.005,-0.117,-0.093,-0.029,-0.005
2.884,-0.034,-0.039,-0.005,0.039,-0.015,-0.024,0.034,-0.005,-0.117,-0.088,-0.024,0.005
2.886,-0.034,-0.029,0.005,0.034,-0.02,-0.015,0.044,0.005,-0.122,-0.093,-0.034,0.005
2.888,-0.054,-0.034,0.02,0.044,-0.039,-0.01,0.054,0.005,-0.117,-0.093,-0.068,-0.02
2.89,-0.039,-0.044,-0.005,0.044,-0.02,-0.024,0.034,-0.01,-0.132,-0.107,-0.107,-0.049
2.892,-0.01,-0.049,-0.039,0.029,0.015,-0.044,0.049,0.01,-0.122,-0.102,-0.098,-0.044
