time,I,II,III,aVR,aVL,aVF,V1,V2,V3,V4,V5,V6
0.0,-0.001294437620619386,-0.0008556452068501026,0.00043879241376928345,0.0010750414137347445,-0.0008556452068501026,-0.00021939620688464173,0.0014918942068155637,-0.000636248999965461,-0.0010750414137347445,-0.002150082827469489,-0.0055726636548699,-0.0036419770342850525
0.002,-0.00904206778198516,-0.005976960059278327,0.0030651077227068346,0.007509513920631745,-0.005976960059278327,-0.0015325538613534173,0.010421366257203237,-0.00444440619792491,-0.007509513920631745,-0.01501902784126349,-0.038926868078376795,-0.025440394098466722
0.004,-0.028359792318829236,-0.01874630339719221,0.00961348892163703,0.023553047858010726,-0.01874630339719221,-0.004806744460818515,0.0326858623335659,-0.013939558936373692,-0.023553047858010726,-0.04710609571602145,-0.12209130930479029,-0.07979195804958734
0.006,-0.05329350008514257,-0.0352279068359417,0.018065593249200873,0.044260703460542145,-0.0352279068359417,-0.009032796624600437,0.061423017047282966,-0.02619511021134126,-0.044260703460542145,-0.08852140692108429,-0.22943303426485107,-0.14994442396836724
0.008,-0.06837039969591757,-0.04497459681245071,0.02337386326277841,0.056672498254184155,-0.04530369112277767,-0.011368807131406474,0.07869008459693727,-0.03360578968104424,-0.05656280015074183,-0.11356439271525295,-0.29434036479259434,-0.19214477920874787
0.01,-0.06685566554779536,-0.042660174212613027,0.024042235949047013,0.05475791988020419,-0.04495900500464314,-0.009798914875561053,0.07619995199758785,-0.03286125933705197,-0.053991642949527484,-0.1110483936217618,-0.28781930591762755,-0.18656982717142678
0.012,-0.05825366575374947,-0.033699915952676913,0.02407307535499072,0.045976790853213184,-0.04091003264390468,-0.005066758209308516,0.06401372627847088,-0.028633157743368397,-0.043573418622803936,-0.09676032616724488,-0.25078696782122656,-0.1590933998632902
0.014,-0.0545239388509594,-0.027008451090440522,0.026612208098058827,0.04076619497069996,-0.040557646027341174,-0.00020854894335878282,0.05552607873137604,-0.026799902147081736,-0.036249796658399745,-0.09056518656600035,-0.23473017742616414,-0.14437353980352263
0.016,-0.057245604140443725,-0.026054654676822955,0.030054068750480105,0.0416391595982891,-0.04374411437389813,0.0021049547756090262,0.053291416849539745,-0.028247367935185837,-0.03617415223947052,-0.09508591874175398,-0.246447177146995,-0.14947569983651665
0.018,-0.060574285169269125,-0.027329861967553826,0.032264531714159196,0.043875445875343796,-0.046472640478820326,0.002597194603476509,0.051717669083979186,-0.030649776219014026,-0.040508542298916705,-0.10061491434895552,-0.2608871291711434,-0.15920757408006478
0.02,-0.06070179233278713,-0.025925340891046457,0.03426977562080984,0.04307322938887587,-0.04746503714138293,0.004391807752507046,0.04679250359413612,-0.03311582146199994,-0.04534659474504013,-0.1008267059086973,-0.2620926371430146,-0.16168086794262884
0.022,-0.05895504983339999,-0.021687183130664422,0.03722507218771124,0.03993529551286759,-0.048107358274289996,0.008172062761422419,0.039268502148433145,-0.03677365142714376,-0.0487541195623463,-0.09792533701141017,-0.2562098579538601,-0.15903555670218564
0.024,-0.058051264751594084,-0.01885386369105788,0.039232701531273305,0.03833292021281748,-0.04901829397447416,0.010685373761656717,0.03125965319259589,-0.04212351975099488,-0.050097625904794045,-0.09620473846525467,-0.25432231456317816,-0.15814443064043884
0.026,-0.05857169628809177,-0.02017443191335672,0.038023054002865514,0.04024851400212409,-0.04951603235289664,0.009267518350772561,0.024115763122357997,-0.047935361347508657,-0.04959923277624851,-0.09586572451722437,-0.2571839409617792,-0.16032221577305306
0.028,-0.05931309414768653,-0.023645487406588617,0.03472283340780673,0.04369545463101135,-0.04928793156258404,0.005592476931572679,0.01931770221205887,-0.05247025164898441,-0.04807881370400573,-0.09447958715584598,-0.25871995708068324,-0.16225820394791646
0.03,-0.059383217756301336,-0.025579002428589633,0.03257029141790903,0.04549550381553484,-0.04887017687995847,0.003374673064423604,0.018027096044356303,-0.054612321635550236,-0.04616385760407142,-0.09200710679424152,-0.2568364148703983,-0.16202257589797914
0.032,-0.059012168409851344,-0.02518844951867193,0.03267691675289221,0.045014617346857626,-0.04866926651425923,0.0036546491674015903,0.019056623773511475,-0.054327682900445505,-0.04435715500924575,-0.09105810501245873,-0.25528232938087453,-0.16081571191142674
0.034,-0.0587966852571208,-0.025180009092512216,0.03266326808202262,0.04443705657611504,-0.04819644565092525,0.003759389074810205,0.01886169432777109,-0.05332490061823341,-0.04348616366159664,-0.09289120062897284,-0.25671700102702616,-0.1603518781441246
0.036,-0.058896248395944165,-0.028122038873932248,0.029873612222590586,0.04576712533640404,-0.04669879929237364,0.0009316739559695908,0.014220650752946422,-0.054648449435797324,-0.044249748549546095,-0.09602327075590095,-0.25877782795283194,-0.16078843589993574
0.038,-0.05906139677963222,-0.032896343487377015,0.02518753173185953,0.048390044497989886,-0.04455285274455001,-0.0038371917534398827,0.005278623044134701,-0.059813365371251,-0.04655473871019425,-0.09831378517099701,-0.2580502273827213,-0.16125201100881134
0.04,-0.059085945933286435,-0.03567500993161643,0.022367966699508544,0.049968566460112614,-0.04329303808184589,-0.006675528378266739,-0.004372611509949288,-0.06657283062815973,-0.04957051625812378,-0.09885488733545793,-0.2549352258281791,-0.1612359422032887
0.042,-0.059007546678462086,-0.034019073699749804,0.023955815668512015,0.049103471695111284,-0.04405200405689887,-0.005051467638212424,-0.011628940044006076,-0.0705780509363389,-0.052314285371624865,-0.09826276391928455,-0.25264524491552875,-0.16097529186121134
0.044,-0.058956701980181124,-0.029114613012277,0.028849916017367562,0.04647586950258174,-0.046346042960466426,-0.0001298265421153166,-0.016818648027441787,-0.06931813636243962,-0.054193109236741366,-0.09779756569199069,-0.2528186697577249,-0.1608594665456116
0.046,-0.05886550200274808,-0.024825248510387487,0.033061788343633054,0.043965597459503666,-0.048041036542016725,0.004075439082513053,-0.021492123292483855,-0.06480247391961863,-0.05547461813469195,-0.09834433964609042,-0.2542299378597372,-0.16094635119609688
0.048,-0.0584429626139737,-0.02448014155169429,0.032990769601416566,0.04313209296635178,-0.047008629840252475,0.00387653687390068,-0.025397459615325125,-0.06199546240649493,-0.057106434859206655,-0.09986282662838361,-0.25545342784389796,-0.16127045723319047
0.05,-0.057907329829824584,-0.027515385758906847,0.029514379233499734,0.0441832966321259,-0.044031481523906055,-0.0001518151082198476,-0.027208047604891077,-0.06364892618628551,-0.058908447669211134,-0.10115753217927882,-0.25666806298103745,-0.1625862195988855
0.052,-0.0581993727753398,-0.030150285998425567,0.027368985983631286,0.045891762724323396,-0.04262153516172789,-0.003270227562595515,-0.026587066659347087,-0.06754922709192542,-0.058863548797013554,-0.10085972030725324,-0.2582705406561943,-0.16580451329098148
0.054,-0.059491319275147725,-0.029640103191179656,0.02929701563736678,0.04647886902146625,-0.044667094197186084,-0.0019214729277224922,-0.024711253222774177,-0.06973383794318733,-0.0561475122884932,-0.09947505283264682,-0.2595328960257769,-0.17000244452318355
0.056,-0.060757691985605385,-0.02685656314030067,0.03331462791497374,0.045425299208977914,-0.04846540290797869,0.0022738267683240815,-0.023149499885720713,-0.06890032877524722,-0.05314478799943903,-0.09917709705979245,-0.25945562695758595,-0.17235552695898143
0.058,-0.06155118517107609,-0.025287426528803444,0.03572032125897529,0.044458968364633325,-0.051306863979391854,0.00444452338434928,-0.022052937464657016,-0.06625577104853352,-0.052434396073230256,-0.10077991504194048,-0.2575510518746659,-0.17080913537008768
0.06,-0.06235025844241567,-0.02764170619902415,0.03446421466498816,0.04556887234492487,-0.05175995635807365,0.001674685700848564,-0.02043199531695699,-0.06291625817026573,-0.05363455962735002,-0.10260088198100485,-0.2538789750985146,-0.1660788873642264
0.062,-0.06315259820697461,-0.03258475714148827,0.03066172383976269,0.04824745516264813,-0.05022468067017024,-0.0038168761616234493,-0.01862327641538905,-0.05970563637932493,-0.05465022287871069,-0.10295743530738255,-0.24976946011841156,-0.1612087649277022
0.064,-0.06343309363668825,-0.035956973675550535,0.027655567870669435,0.05010472517228026,-0.048530521378385705,-0.007239938162351786,-0.01814847162602495,-0.05790254939847265,-0.05451094071283166,-0.10217219379051388,-0.24748628277488832,-0.15932732164236346
0.066,-0.06316289807351774,-0.035737983293779876,0.027469704757301542,0.04996027503853576,-0.048148622352341706,-0.006748404021257567,-0.018612945119507538,-0.058049475836742324,-0.05389343923368565,-0.10157325737514304,-0.247921079440117,-0.16157438095908816
0.068,-0.0628536059757096,-0.033868571116603935,0.028911725043131522,0.04890986608890492,-0.048810657009320475,-0.004719881863564054,-0.017466246053927163,-0.058941484394833606,-0.0536716311454023,-0.10181089963627896,-0.2499204687027255,-0.16698997107991176
0.07,-0.06284016288509763,-0.03301976265935332,0.02976068993172734,0.04844785261888445,-0.04935610957715029,-0.003943065426517527,-0.013579749842284676,-0.05875148413298069,-0.05390123189171108,-0.10285431033573351,-0.25209742044318806,-0.17318992895440866
0.072,-0.06280412877197261,-0.033600135267178644,0.02921496639294143,0.04867376076339918,-0.0490529270069642,-0.004754247753830659,-0.008665501852250247,-0.057017106881207556,-0.05413181829030057,-0.10460786600337776,-0.25376780880705724,-0.17702196085330293
0.074,-0.061708130374414444,-0.03444836785760426,0.027297441670005865,0.04853863748383291,-0.047295478421793144,-0.006277680647816681,-0.004256064993161038,-0.05560374759942128,-0.054116802375188046,-0.10656609502390695,-0.25454057903197047,-0.17625220481578152
0.076,-0.05871488634625408,-0.035144849600445185,0.023582061456110266,0.04757364463607002,-0.04324946486894073,-0.008554093500300038,7.243874667781361e-05,-0.05671652204899041,-0.05387416185896705,-0.10781604232039486,-0.25440871768132245,-0.1714963454661363
0.078,-0.05484242755742459,-0.0363995723575311,0.01842806097916734,0.046881211533689626,-0.03751305828283905,-0.011884379728203531,0.004265278132617703,-0.059537729004900335,-0.053162281684455893,-0.10836300041588758,-0.2539521169267607,-0.16621825964356027
0.08,-0.05264458814885544,-0.038198540221351114,0.014410486183578713,0.04760466540191116,-0.03318731868719369,-0.014864651477679265,0.006479362932177484,-0.06098815821079083,-0.05157131419526861,-0.10913565163237185,-0.25365832984578285,-0.16400828561246908
0.082,-0.05356619690133531,-0.03893053227456449,0.014483975220340693,0.049075354711714,-0.033469294277566494,-0.01483849216734826,0.005486195988692284,-0.05999604335157138,-0.04951049745590268,-0.10964930187471011,-0.25314698867885843,-0.16559117080822436
0.084,-0.05653587259903228,-0.03732947679579668,0.018733902094518987,0.04976784932287639,-0.03825769157786636,-0.01087689945759528,0.002442861138782061,-0.058468601684064515,-0.048232558963505666,-0.10785192544256393,-0.2516792262643021,-0.16888077666963966
0.086,-0.059296813745501116,-0.034505493479957766,0.023913032908697212,0.049363567400538474,-0.04392570952495339,-0.00561183586513774,-0.00013781325664152919,-0.058276804118193117,-0.048332322439637004,-0.10374823886823169,-0.24956975683724167,-0.1713569243448941
0.088,-0.060669277346142095,-0.033050006280685135,0.026632639499515456,0.048880520228965586,-0.04690834346010698,-0.0031005508525998376,-0.00018978579271277033,-0.05950134293268283,-0.049157469282712675,-0.1004768876481809,-0.2484214840640538,-0.1719394226850036
0.09,-0.0613402913349692,-0.034673608568075845,0.0261643639154076,0.049458972850739,-0.0468652593804221,-0.005136970807124485,0.002657797980235361,-0.06130876581126636,-0.05024896982264514,-0.10028769420614353,-0.24981810418022185,-0.1712817854780619
0.092,-0.06228943813697014,-0.038979931987768585,0.02370626898390838,0.05137972081297052,-0.045578926794287,-0.010188981450506032,0.006380042773837,-0.06285925304926208,-0.05232374849230597,-0.10190718288288227,-0.25384883123319135,-0.1706753528405539
0.094,-0.06326677479723436,-0.04356943350511468,0.02083707540273786,0.05367205060363,-0.04438115342813084,-0.014948062709093815,0.007507066068018979,-0.0634550888244849,-0.05588016048891487,-0.10285918064670657,-0.25842859467883056,-0.17070510549674575
0.096,-0.06375037821218252,-0.04553273879656261,0.01951816057077381,0.05488134510927795,-0.044059588056326426,-0.016491940306583523,0.0045337641871522755,-0.06293868747827838,-0.059779230722104774,-0.1025741061222924,-0.26053689489008774,-0.17103405047812262
0.098,-0.06467966260443335,-0.04358706177178907,0.02203255666604697,0.0546225575257294,-0.04598636711491588,-0.013649673714401364,9.175041676791774e-05,-0.06237122148307888,-0.06249270814409077,-0.10252448776564,-0.2586657824935824,-0.1711745608943156
0.1,-0.06759796277625081,-0.03887677550331608,0.0291224519460304,0.0538685512789805,-0.051168711274280736,-0.0073547080275013065,-0.001993990825115604,-0.06359986403300308,-0.06406072930580804,-0.1040358492321481,-0.25402177889915484,-0.17106416771346936
0.102,-0.07185130625698656,-0.03412360124546785,0.03771958018547785,0.053611659057602304,-0.05768397795158577,-0.0006437705408124807,-0.00095538554076857,-0.0671990803853544,-0.06563345164240159,-0.10647260665969263,-0.24997348661678692,-0.17093551062110468
0.104,-0.07461351345239942,-0.031463536537747194,0.043004564189460796,0.05388423073101378,-0.06146896283690805,0.0032484472161694927,0.0012746834349456958,-0.07117094779995353,-0.06749580967930538,-0.10808319796151894,-0.24960146278015566,-0.17093430331899132
0.106,-0.07444211508079907,-0.030573558628184297,0.043798380554802924,0.054154050265197845,-0.06096703272407609,0.004072935490950169,0.003212024333670551,-0.07230885047077791,-0.06869582589271545,-0.10854153749106923,-0.25249241552485874,-0.17100384062612298
0.108,-0.0729126230088774,-0.029855440440827368,0.04309248857227481,0.054136117898693104,-0.058749292346059356,0.004116928025767689,0.004519565260223592,-0.06916419127157054,-0.0686381617508698,-0.10929454836084185,-0.25507311751109,-0.1710376800795956
0.11,-0.0721997412368099,-0.02880396952908696,0.04344814203240071,0.05387136122976683,-0.057937122631776215,0.004844209943439275,0.004643893847077156,-0.06402156261615664,-0.06797507464178275,-0.11105554280336016,-0.25461578557691317,-0.17101589623954525
0.112,-0.07244204860152824,-0.027707395766888403,0.04474083211325322,0.05304081752798995,-0.05899665946652542,0.006027928895799729,0.0032374630339216635,-0.06117788818032088,-0.06765219600361613,-0.11285075208176161,-0.2516676651016311,-0.17098702881523944
0.114,-0.07173729472965314,-0.02625767070884602,0.04547645530554556,0.05080097106114777,-0.05996347084492204,0.007113386231257474,0.0020455271127342257,-0.06296495813457577,-0.06784510183284785,-0.11436947379127671,-0.24878271038615013,-0.17098512965375942
0.116,-0.06850561713511452,-0.02402490601202196,0.04461872738604472,0.04711159823637803,-0.05871437617057727,0.007864027740122674,0.0038107109824803906,-0.06817427475153788,-0.0681133504727249,-0.11691343402100096,-0.2478316146744503,-0.1708902779616874
0.118,-0.0639693619166157,-0.02149577358383064,0.04296066241037334,0.04372051088881526,-0.05548097296214275,0.00847205802095026,0.008362242161954409,-0.07374684377378476,-0.06813811694449433,-0.12053163360711881,-0.24853517004523012,-0.17024182678314373
0.12,-0.06146200574601728,-0.019740794356783747,0.04263583957125933,0.04264755464453752,-0.05305598517362728,0.009404019159851193,0.012580359600057728,-0.07708774894154947,-0.06780678380118159,-0.12279423045227361,-0.24936257688749444,-0.16860051159071493
0.122,-0.06311915091337247,-0.01932193298998309,0.04495796096735504,0.044145766045881975,-0.0540271211201296,0.010900141537413536,0.01516504510985155,-0.07684444892901152,-0.06654746987045505,-0.12255370833137472,-0.24941271919283872,-0.16648103441469247
0.124,-0.06798642280571258,-0.019785271979643214,0.049329024217400506,0.04683859778567181,-0.058220641795425764,0.012837096438575817,0.018443797152513482,-0.07275125858476349,-0.06363666070557752,-0.12234249331567551,-0.24900141203192264,-0.16520255256670344
0.126,-0.07286155501224258,-0.020227671009100903,0.05361766726619892,0.049050729040696114,-0.06278990771620088,0.014686543423925374,0.0245791798924595,-0.06650381503581339,-0.05978294058606579,-0.12451469178462402,-0.24877806111932735,-0.16533406853300495
0.128,-0.07489001945286165,-0.01999773284645574,0.0557956558497415,0.04970670000555331,-0.06491360070054356,0.01584977995469614,0.03251011340635579,-0.06173761813461792,-0.057032712611167935,-0.12754429567590755,-0.24889385862268026,-0.1662843765888852
0.13,-0.07402851478779482,-0.01844916700301348,0.056398864318423454,0.04862173080966156,-0.06478722467300177,0.016884382267491543,0.03976460273069287,-0.06084079158971533,-0.0567802796337851,-0.12860406087814247,-0.24907030123917343,-0.16791281580165518
0.132,-0.07256537369821058,-0.01506798842476128,0.05804395041688351,0.046389086380380404,-0.06500166361873984,0.019261629002466456,0.0452610693928378,-0.06252751888019663,-0.05890792593767912,-0.1275579100279503,-0.24909137945340434,-0.17095492351312402
0.134,-0.07225927429526846,-0.010917737508271626,0.0614659986353656,0.044186681388161134,-0.06679280730570741,0.022836658650102912,0.04899301166850882,-0.06386980246849716,-0.06200929635010454,-0.12642171794329943,-0.24900525473251142,-0.17489863438538783
0.136,-0.0730985132441655,-0.00867580940874705,0.06426229120507528,0.04339457228899126,-0.06877358569244985,0.025234916714888353,0.05126037690038488,-0.0634652793119588,-0.06403552313308196,-0.12652782203256388,-0.2489526484175636,-0.177224502118313
0.138,-0.07487383394130463,-0.010249299072669997,0.06447551270070775,0.04501158182387966,-0.06975999974828011,0.0246916614853818,0.05367996709214236,-0.06136021814214922,-0.06402831890132499,-0.12779946865826278,-0.2489745205436393,-0.1758030917893654
0.14,-0.07803445331359703,-0.01493190624702257,0.06310848850181529,0.04895527426838302,-0.07056669855605029,0.022071877085579186,0.05860797494298107,-0.057477932035171125,-0.06300685497431335,-0.12984505947653713,-0.24901367170374428,-0.17114738163999507
0.142,-0.08195555109653425,-0.019764507751462383,0.06227236684424476,0.053373976217103,-0.07206651326249379,0.019697946164777283,0.066566827733844,-0.05234457796554472,-0.06238168867100287,-0.13242322522730485,-0.24902043474924346,-0.16624475137789246
0.144,-0.08464668390103845,-0.022070878724357913,0.06258986785921733,0.05586969945335697,-0.07359799524914601,0.018925414475147607,0.07592916267808901,-0.04801043918386469,-0.06212856185365548,-0.13508364787498822,-0.24900229951006195,-0.16408774166910137
0.146,-0.0858293710961758,-0.022452846500984044,0.06319660093109539,0.056567324266183196,-0.07452892849742303,0.018915053806500916,0.08485597969885908,-0.045625591777387606,-0.06132711504682241,-0.13705112501192798,-0.24898994659990084,-0.1647931571763338
0.148,-0.08775149842930899,-0.02392201073250873,0.06331655638588782,0.05808583074514315,-0.07555264684597181,0.017928116165827377,0.09233225531074185,-0.043617433858797044,-0.06021707585493918,-0.137730388315111,-0.24899394306692932,-0.16564770601773474
0.15,-0.09132707413389356,-0.027378815741461445,0.06304410252649813,0.0613946968998705,-0.07718579389445512,0.01580468491384392,0.09851043156880822,-0.040619657392742786,-0.060302800483252234,-0.13735766886995196,-0.24900259326493449,-0.16447464391954694
0.152,-0.09427724536625799,-0.030506450264475463,0.06265107473935835,0.06431505859640844,-0.07844313981317763,0.013960792222035136,0.10475141904643756,-0.0378077170631522,-0.06177210055757069,-0.13660296677145428,-0.24878514789034897,-0.16217581023880268
0.154,-0.09456291379651036,-0.032067355941340074,0.06152433559375954,0.06525341958710039,-0.0779620869550774,0.012616321663310514,0.11171254688575832,-0.036080472840306556,-0.06224523550152091,-0.13508932441150626,-0.24746820144232584,-0.16073205496242104
0.156,-0.0931524651073944,-0.03393001662683974,0.05871054996241025,0.06554845593650607,-0.07569430910366692,0.010182485975366884,0.11744111818013103,-0.03396118184465415,-0.05954123241458601,-0.1313930565228282,-0.24430083459660829,-0.15980125524523492
0.158,-0.09224850958769161,-0.037279876670566,0.054940553537911385,0.06679989985070157,-0.07314706992803018,0.0064122482840599515,0.11929993965080275,-0.030585318345317098,-0.05487752511265655,-0.12569164668866037,-0.2407320559467091,-0.1578965011905765
0.16,-0.09233467875410507,-0.04015793053657614,0.05236470366006137,0.06825962334315334,-0.07177056374312822,0.003522459929977612,0.11698176225833899,-0.02783737238078228,-0.05140020606067466,-0.12097444142484648,-0.23959624874604732,-0.1556234047587105
0.162,-0.09165945604197828,-0.040532249945284426,0.05123732588530318,0.06808298645660016,-0.07087967245667233,0.002767194682813771,0.11176437786067069,-0.027429772769269053,-0.050140471107942466,-0.11984257181317948,-0.24065338041289752,-0.1547941925936914
0.164,-0.08852702358698185,-0.03931274473876339,0.049174858952055624,0.06585168532290518,-0.0684109363349912,0.002429307094162731,0.10476265143167701,-0.028067596094288317,-0.04969268889084289,-0.12140252652985278,-0.2401140746399268,-0.15554209765435628
0.166,-0.08413175263387808,-0.03905564707174275,0.04499999751521209,0.06326604436135808,-0.06448755379682887,0.0005713309125080976,0.0976286409988296,-0.02728573543465304,-0.049074273315749366,-0.12281149421167675,-0.2363911490209398,-0.15640958508704098
0.168,-0.08180297442642694,-0.04072993783732512,0.041057769830374485,0.06247742395910456,-0.062147859522900556,-0.0019306390708558998,0.0919510752294524,-0.024907192903124067,-0.048638622705033524,-0.12248408806972645,-0.2326455714374795,-0.1562274596486159
0.17,-0.08243510104987277,-0.042149675555440545,0.04031914610679878,0.06339240051644068,-0.06312209568645444,-0.002226848034095432,0.0860410567919279,-0.02303726491738579,-0.04884917341340886,-0.1203677726734197,-0.23202245941132013,-0.15446175715067764
0.172,-0.08276161741268308,-0.040313050131076965,0.04247287813440941,0.0633217356404919,-0.06502136143788849,0.0007648177020149771,0.07515370902947055,-0.023023850741515327,-0.04982604215114637,-0.11676560040278704,-0.23357990311501148,-0.15094804620075652
0.174,-0.07982735834073927,-0.03558852131868554,0.044232070367026755,0.06034410141055306,-0.06446108915394323,0.004334106849027444,0.05687675763918901,-0.024006794792568228,-0.05157589732074758,-0.11281774821443998,-0.23413347018554406,-0.14676533121017096
0.176,-0.07476811691165339,-0.031238500705086644,0.04353508141086096,0.055697067991263886,-0.06122566556857877,0.00529974103937722,0.03446459358030119,-0.024740916451977592,-0.053568542561937174,-0.110354038945598,-0.23208921529589283,-0.14387787415189698
0.178,-0.0702569384936208,-0.028401077277075942,0.04200494583420383,0.051488680343535986,-0.057646709161847116,0.004594039983067405,0.013512878056340306,-0.025779901657008435,-0.054615750399356504,-0.10920680863454202,-0.22851920464001665,-0.1428458286276152
0.18,-0.0668335997546761,-0.025164815006737368,0.042156456213193874,0.04799284029676104,-0.0553186935070622,0.005646901126824405,-0.0033556235196107913,-0.028642874279163223,-0.053838109143206345,-0.10669425637013594,-0.22538063215773882,-0.14251798164604942
0.182,-0.06392523572939587,-0.021040061561221686,0.04379407090444959,0.04487777367507789,-0.05415911301324802,0.008917331612845771,-0.01795074891645014,-0.03282019427570965,-0.05154142980930897,-0.10171067284893943,-0.22372428519046575,-0.1420710121340338
0.184,-0.062302213841331555,-0.01836458175854376,0.04509531675811034,0.043082663766385566,-0.053903249841559336,0.011542534812787475,-0.03362680253022347,-0.03579536873476199,-0.04892217690532575,-0.09683927624563485,-0.2234544362190904,-0.14162754996697682
0.186,-0.06353476831677368,-0.018563867003079243,0.04610044043391052,0.04374143440925311,-0.05511994710605921,0.012098600541637795,-0.0510376805038593,-0.03708377773033083,-0.046647792837357566,-0.09426649551011806,-0.22385310404240438,-0.1410329233485525
0.188,-0.06772985045171988,-0.020099912444997543,0.04861618482373886,0.046373368729184176,-0.05831299568206314,0.012325498298100562,-0.06679951789166352,-0.03961543723152233,-0.044413276550135966,-0.09253469842940124,-0.2240896996658886,-0.13963403770362312
0.19,-0.07251469142165373,-0.02069802746667287,0.05274224028935878,0.04892577446802074,-0.06236239855489456,0.013876791059165967,-0.07677791951089609,-0.04541202097535131,-0.0424543627069661,-0.08967375377728433,-0.22354030511810916,-0.1376124356936919
0.192,-0.07486478755304396,-0.019570950508736754,0.05626539236807121,0.04929660186300551,-0.06526406338695409,0.01624118428194608,-0.07980946582090526,-0.0515049455509009,-0.040902112466251,-0.08605811616054677,-0.22205634857807088,-0.1364462947461439
0.194,-0.07420557969184435,-0.017102734597573614,0.058107418037951136,0.047002762165833094,-0.06667929502458601,0.018519708948409635,-0.07708076746707246,-0.05025269124750136,-0.035835558390180024,-0.08124560839648635,-0.2202956648081844,-0.13777392272881397
0.196,-0.07277330024625797,-0.013636957840540408,0.060011145198162655,0.043546663400043206,-0.06822640987419402,0.021236588679097154,-0.06869291217463487,-0.03246451183912152,-0.01867912049813392,-0.07065818490164058,-0.21942086214030473,-0.14232791497815014
0.198,-0.07319522013301366,-0.009069522976910062,0.06464397842257957,0.04105763837176809,-0.07160255018393083,0.02594860526934481,-0.052925661518553706,0.007401319691682874,0.01811741847462045,-0.04869799029966661,-0.22011497299983251,-0.14977821757245138
0.2,-0.07673769401980893,-0.0027566896629692608,0.07406193834384278,0.040194560281423375,-0.07783891230811961,0.03437266341794884,-0.02927274122889574,0.0653389596132356,0.07422555718447106,-0.015477124294612784,-0.22180947465723705,-0.1592277841810773
0.202,-0.082435223303556,0.00711353362895847,0.08938297172356749,0.03873933919886685,-0.08720239933783319,0.04790257692592879,-0.0011960217039087345,0.12644624629934303,0.1383505987657183,0.02138426211840928,-0.22178852936332874,-0.16856431592074045
0.204,-0.08644988453232129,0.022409977116141806,0.10873200173685801,0.033154762397311535,-0.09777828506730656,0.06585130774491814,0.023631087833269875,0.17258981423654288,0.19267426545680125,0.05439067588142726,-0.21390334476762943,-0.1718480943685761
0.206,-0.08440755011460432,0.04037116430094879,0.12479768922528274,0.02326930851307616,-0.10464226655990098,0.08255607076417942,0.03755589918099988,0.19673112535024323,0.2261713550167741,0.08614471777342873,-0.1889727862419212,-0.15989199582970642
0.208,-0.07560266758762654,0.05203975753861974,0.12771842630653754,0.013865811042718168,-0.10233538534010281,0.0887544202002941,0.041593587668984175,0.21175986451280115,0.24740716528552364,0.13009194305095823,-0.13806752280806706,-0.12664568294532605
0.21,-0.06177783273719138,0.05079776311296978,0.1126019445316118,0.008294467003555746,-0.08826594047987889,0.07970948148537363,0.04684449144269641,0.24146804959061102,0.2817074158778345,0.2022018390347554,-0.05499388783242889,-0.07162020235194433
0.212,-0.0405745617997781,0.04180555772301028,0.08232980534156158,0.001661075512208031,-0.06223728655478512,0.060398851014543,0.0607856782557748,0.29835366093964427,0.35076014964288477,0.31415248371630833,0.06704345753894235,0.008742457843648075
0.214,-0.004171305612658794,0.03868164903542007,0.042671895535505835,-0.016175538452281063,-0.023701885935128522,0.04005986780590379,0.07457098052738012,0.369067792375188,0.45297311941073237,0.4721168919997109,0.24121145351028805,0.12881573110697775
0.216,0.05292929694020114,0.052285819654179895,-0.0010780905315035223,-0.051743080161503106,0.02690958906069671,0.025263874853053158,0.07006129786603889,0.42357045081934724,0.5641191789279383,0.6736883853360116,0.48098648210756556,0.30499424251599994
0.218,0.12617334033061542,0.08470309388064193,-0.04207276405889032,-0.1035656059014728,0.08383772625419184,0.019960023031652556,0.039489326646700476,0.44114109551639746,0.6564802382110129,0.8999012057265058,0.7787698088330969,0.5348992291332042
0.22,0.20227327297588277,0.13013870998012472,-0.07247875256697915,-0.16367974630156548,0.1366487712720284,0.026269647498222526,-0.004565843961750358,0.4280905777517416,0.7190562076068358,1.118104696572477,1.096456001902579,0.7889733602002789
0.222,0.2681042050583239,0.17920450588600956,-0.08871267315626699,-0.22197034414301736,0.1770890757837642,0.042425511294026934,-0.039639350899340876,0.41134344014729324,0.7639551669685933,1.3059383607281518,1.3904518989814934,1.030025771087303
0.224,0.3183418764061234,0.2252806611027473,-0.09264049929659206,-0.271643500381868,0.20374337421509675,0.06418146305313445,-0.05175256024902358,0.4175243532345246,0.8134649926442599,1.4677558292634967,1.6419831943941727,1.2382917674170593
0.226,0.3552322333093577,0.26787096383382986,-0.08717781991409075,-0.3119415089782529,0.2195081837169344,0.08915631702076761,-0.041559529540950074,0.4548237016294528,0.8758966032507414,1.612594875759132,1.8491678047176503,1.4084649120887707
0.228,0.3821552320244229,0.30764806672438383,-0.07463238812115168,-0.34455371389541156,0.2268509993200364,0.11585146612542543,-0.01774771320033876,0.5064040555366103,0.9302904337090513,1.718989234012819,1.9931885341462556,1.527197192886237
0.23,0.3972026411113852,0.3368947765756141,-0.06047202289998362,-0.3658825729003772,0.22695190149322916,0.13723878077291993,0.010285453455981731,0.5413732093886203,0.9356694148326559,1.7360163602028171,2.0299060818229817,1.5659074171788587
0.232,0.392280085963817,0.3352849283386978,-0.057008743739948464,-0.3625741565275323,0.22229913060406095,0.13722676706997747,0.03790540657775297,0.537509296411526,0.8591828738875752,1.6239542230070048,1.922714723447181,1.4980374223789088
0.234,0.35818576583203826,0.2812002257398552,-0.07692503581746063,-0.31863562159797987,0.21551266403036612,0.09961906572501514,0.06613218818988632,0.48849141325397955,0.696152485607564,1.3875375974346884,1.6736499702465615,1.3184004035634505
0.236,0.2888304320862133,0.17456990837718014,-0.11436675133987413,-0.23038545755670725,0.20051487246871758,0.028024280261348032,0.0953984831223375,0.38990983435832327,0.4622413309676094,1.057075449657843,1.3052513697404076,1.0401712205004234
0.238,0.18271859098294133,0.043452816570834524,-0.13974687059486926,-0.11159031169023974,0.16071632352252294,-0.04920163776802968,0.12427152940386985,0.24196377249769324,0.17615213759154388,0.6400167803781459,0.8169325870324503,0.6760133586480707
0.24,0.04959392011985274,-0.07749492166784958,-0.1278751831972632,0.015133017484615811,0.087733098541975,-0.10318578406388859,0.15334520031441348,0.07282606121335349,-0.13796546504933221,0.12575806773357834,0.20059455660358605,0.24219455157781525
0.242,-0.08307047656322379,-0.16427530135795768,-0.08188812660326739,0.12450978978109435,-0.002554597038730975,-0.12365166250154078,0.17510167008106448,-0.07387890481908643,-0.4386001095789781,-0.43632554192246986,-0.469823882534511,-0.20276897361593527
0.244,-0.18277912235258142,-0.19868197067730883,-0.016115367014034165,0.1915710961679157,-0.08547928908707074,-0.10797370403864566,0.16321577235548013,-0.18827206339431762,-0.6753575364534175,-0.8977646934223078,-1.004464599941061,-0.5472592204846278
0.246,-0.23735626827389705,-0.17194930378144815,0.06558953369525067,0.20569544083539787,-0.15263275042283783,-0.053598216478292715,0.09558016476139969,-0.3002759899595908,-0.8197117704086297,-1.1132244655071868,-1.2319217327716458,-0.7021678870335379
0.248,-0.26016123932414054,-0.10531602327906699,0.15505006303507546,0.18396791503629842,-0.207584542363972,0.024278945948126546,-0.01276505095538287,-0.42864409154809635,-0.8891598076547358,-1.0917673283057703,-1.1780971767650565,-0.6932739793804665
0.25,-0.2684250762807767,-0.04580138895326495,0.22263272683838858,0.15827813375553523,-0.24513290646271998,0.08748679593824481,-0.12047319122342652,-0.5536227725954299,-0.9313873151781041,-0.9925687276148266,-1.04380379469472,-0.6363444166721
0.252,-0.26519735832573443,-0.025009386265000846,0.24008385363878482,0.14592135640051906,-0.2525683136525885,0.10660789382476672,-0.2005688192391063,-0.6443216099481514,-0.9743811962425103,-0.9491970679837646,-0.9859207114418628,-0.611134535441151
0.254,-0.24552806161500731,-0.031232222278800677,0.21426284050369515,0.13904546718726352,-0.23019568600374582,0.09081239836234092,-0.25422442976976317,-0.6873589198723351,-1.000371280909508,-0.9498703244094082,-0.9853183955471717,-0.6001454171122609
0.256,-0.2132527871822364,-0.03283870954684184,0.1805754340786079,0.12409649110848205,-0.1974718510588681,0.07335476546108605,-0.28945841458461047,-0.6856889698341723,-0.9782932418904344,-0.9137325114020981,-0.9467448840100132,-0.5579893472231788
0.258,-0.18347115360069505,-0.02145478316701092,0.1623879667022614,0.10413676110485265,-0.17395950114705294,0.07016324159208222,-0.3030413680973554,-0.6496759468158739,-0.9097019827990505,-0.8229237311718376,-0.8503170613057276,-0.49086418904329027
0.26,-0.16689203551208914,-0.018620403149868833,0.14869896159187884,0.09473519752608442,-0.15961536276207233,0.06478757372045553,-0.28854820801293757,-0.5962145372278124,-0.8293597438417233,-0.7317529120100799,-0.7570357848127451,-0.4404811007432994
0.262,-0.1593007829700788,-0.04308523277751738,0.11644926445153064,0.10294014895429912,-0.1404261243257664,0.03601726060538865,-0.2537939299756393,-0.5466888337688344,-0.7679281084055709,-0.6819977375857053,-0.7123652181911291,-0.4234594101437001
0.264,-0.15159910418921108,-0.0871428439074445,0.06439565052597458,0.12063505363359606,-0.1108113032614413,-0.012674234521226638,-0.2188374154531334,-0.5147262879305555,-0.7261897768231421,-0.6598305369469517,-0.6994953059894584,-0.4202301997617328
0.266,-0.14281096747820948,-0.12817684895412063,0.014362708446109516,0.1362645955939704,-0.08115933973340941,-0.05866366329489069,-0.19555466369459315,-0.4923704359006959,-0.6834883953740779,-0.629817405647639,-0.6790458601769516,-0.41000084033157425
0.268,-0.13715514484035396,-0.15177499548441742,-0.01502260994384141,0.1446976722289678,-0.06320235388146633,-0.08552133701699668,-0.1774627659704185,-0.45494074603122936,-0.6208062606130861,-0.5761349932565278,-0.6368417231659202,-0.3910668869318947
0.27,-0.1348603318922127,-0.15778307795199167,-0.023428961073629625,0.1463471830097453,-0.05747759966577236,-0.09316239731790592,-0.15115750031057848,-0.38536931726627394,-0.5329230997142835,-0.5036075491051869,-0.5830258603307215,-0.36886909375506394
0.272,-0.13177460774351613,-0.15096637471561306,-0.019722911844106298,0.14216873096797167,-0.05743364264747329,-0.08809322271939768,-0.11083104054665262,-0.2909575867196836,-0.4266560552099684,-0.4200794171538609,-0.5252499390488635,-0.34083023301296644
0.274,-0.12432071136935426,-0.1343458398261489,-0.010422957968593525,0.13158337686783095,-0.05811265391129681,-0.07466862728916414,-0.06124668121844596,-0.1956900376450961,-0.31615708218280775,-0.3309027006319694,-0.4601944225182996,-0.29966728776100526
0.276,-0.11172608773886798,-0.1113846690757482,0.00020311992859700837,0.11467711287086509,-0.057419249067416585,-0.05687969357331002,-0.013212223028052285,-0.12138493683940677,-0.21908325936217857,-0.24413170294656808,-0.3882432584086007,-0.24663266805717304
0.278,-0.09614042833300745,-0.08843965619818944,0.007798453921197329,0.09490897458169606,-0.05418824878466939,-0.04081499218772852,0.023327815987926406,-0.07630576409505917,-0.1496417359939815,-0.17222218731729405,-0.3229039253299794,-0.19510286898874257
0.28,-0.08181991192640868,-0.0714288001181454,0.010653318295794825,0.07775741603831075,-0.048811133651210044,-0.030883630371266478,0.04658953201501873,-0.05484180545310225,-0.1102742057268226,-0.12570226057597197,-0.2791517373911796,-0.15926744408576643
0.282,-0.0726723680898285,-0.06113633502044144,0.012013167783792694,0.06661081933462026,-0.04434098988072069,-0.025622607527803445,0.06309094224534594,-0.043624479078395645,-0.09015941715563215,-0.1050258097068902,-0.2588624440309925,-0.14202561235107966
0.284,-0.07050815689574204,-0.053316524219276906,0.017893841213831807,0.06110014973753693,-0.045303793448114006,-0.019170067769801496,0.07882387340349586,-0.030870839104100527,-0.07410673464729019,-0.10019604527132235,-0.2533202804302743,-0.1367919716247641
0.286,-0.07487768450490312,-0.04290780006986921,0.03261511400177605,0.05850527356753714,-0.05436449632757965,-0.006359723530243603,0.0940340841566315,-0.013832872853845104,-0.05428778497703128,-0.09882395738886564,-0.2540078597646497,-0.13753970001590926
0.288,-0.08268320605458004,-0.0286207290685202,0.054302326858614844,0.05594999960811066,-0.06897745428764128,0.012387302418674626,0.10709342084076193,0.002731754499194693,-0.032634552484512074,-0.0931731579597152,-0.25617393406300676,-0.14167264841857805
0.29,-0.08899049219075836,-0.015151688209117564,0.07368993346560493,0.05279180650584353,-0.08183273786330568,0.029486885602622907,0.11766279248791889,0.014478858830182465,-0.013794422514204792,-0.08163183906851408,-0.25715030616297163,-0.14617516722980828
0.292,-0.09085563801525255,-0.009563780107220837,0.08108819708291154,0.05112635001177612,-0.08668338430045083,0.03609982232852565,0.12612297878500642,0.021246854526667882,-0.00014820051905194644,-0.06787987644798678,-0.2555591494613071,-0.14748261760610618
0.294,-0.09037304847704909,-0.013403909532757321,0.07694229495488675,0.052787360918548826,-0.08455851682002716,0.031833026138908614,0.13403853173724464,0.024525760446819863,0.0076563358671763605,-0.057999224132635196,-0.25121546573058606,-0.14494130426159507
0.296,-0.09189351772019065,-0.020322656508262295,0.07166583392811633,0.056616312058309734,-0.0823920575409588,0.025526580021377036,0.14309370381502803,0.0252613108123229,0.010201767934521306,-0.05473800652769404,-0.24468012287101712,-0.14091681626262306
0.298,-0.09605329466655053,-0.02332353491995029,0.07276810601617434,0.05965701450725204,-0.08447209436235846,0.02457448543479632,0.1519234550441885,0.024485945578578545,0.009408846295871373,-0.05474942152468798,-0.23672577184951685,-0.1373931552596687
0.3,-0.09909452081811938,-0.02215387146592815,0.07678683724300711,0.06046152962031637,-0.08796452525182358,0.02703837766103511,0.1579911974799841,0.023652427480896757,0.007091379962690757,-0.05323615340880869,-0.22882583941932758,-0.13437254932582385
0.302,-0.09881191767128412,-0.021798022819107442,0.07664298367951292,0.06066597079679148,-0.08850478676950732,0.026531005200755537,0.1628677804919136,0.02358215031344883,0.003765410662635756,-0.04977198714727243,-0.22387599132086855,-0.13137616420727366
0.304,-0.09788205068179329,-0.025652774537715313,0.07179815706025341,0.06293606254501773,-0.08654685481782,0.021284005699885387,0.17083960162732456,0.02408992154326321,-0.0003890462635899065,-0.04742981210205572,-0.22407708175967828,-0.12866755962757528
0.306,-0.09939682421129117,-0.032380877843943355,0.06680198765842733,0.06751274368312983,-0.0851852184881015,0.014852403084417045,0.18199202336555864,0.02519900972258465,-0.003557871592966256,-0.04776322304933353,-0.2277316469211999,-0.1268893945853748
0.308,-0.10227209771675048,-0.038441946092142444,0.0640011625172583,0.07180990483991619,-0.0850457341221943,0.010423810361500186,0.19113379393226984,0.02782866717973188,-0.0025737217103817198,-0.049202612786720896,-0.23056142756145726,-0.12658442245360485
0.31,-0.1036435807013061,-0.04113277195167159,0.06298000361122681,0.07330605355872695,-0.08512805061823815,0.008844785520326696,0.19366395179701693,0.031728217012678334,0.0034017124667689636,-0.04964962031399106,-0.23043933985815343,-0.12814575528159208
0.312,-0.1034287720060056,-0.039609680636518894,0.06429534101211369,0.07211364051484731,-0.08613963628155691,0.010681667452936368,0.1889547242496155,0.034039106472367124,0.010822054816434072,-0.048380292757797434,-0.22878742423144618,-0.13109728961903494
0.314,-0.10391049798837547,-0.035589937619166845,0.06852759389987972,0.0707684446711294,-0.08921589810140895,0.015606926511348663,0.17885743156554956,0.03308783006416314,0.01530369078731392,-0.04554147605267771,-0.22741946837793178,-0.13308282975275365
0.316,-0.10572118718093539,-0.032566790567291774,0.07305445293840064,0.07119491975182794,-0.09271993216575708,0.020455418526423342,0.16592438891652875,0.03178502993393281,0.016082893929103635,-0.04158354539717266,-0.22648214362237842,-0.13157530834749132
0.318,-0.10639431761783588,-0.032463925381556964,0.07363242887442131,0.07223684327335293,-0.09311804849098824,0.02149103638358754,0.15246019067104252,0.03323308276234043,0.0157969359962974,-0.0371819320767459,-0.22618827524458066,-0.12714507250197574
0.32,-0.10365480847578273,-0.03395322620621802,0.06918661940434173,0.07149055127950353,-0.08909066671239455,0.01848339908019708,0.13935624732231808,0.035150663613355844,0.016936967180716883,-0.03289653156152742,-0.22756225286930573,-0.12294938701792668
0.322,-0.09885931101776041,-0.03478252911272851,0.06325479260724012,0.06883473310063666,-0.08345425177981333,0.014651108957797154,0.12588815562647512,0.03262559555847503,0.019322163152751107,-0.029428970505743352,-0.22996085344278758,-0.12115305888924785
0.324,-0.09533049315781507,-0.03418095694984232,0.06016899745920173,0.06609991860857843,-0.08008578197620858,0.012843074001447501,0.11129902221829774,0.024904891875066674,0.020744610673645077,-0.027686361919377872,-0.23076400200555433,-0.12128916368053559
0.326,-0.09422595196492417,-0.03223640037472363,0.06117426184061584,0.064034535135547,-0.08003678018364334,0.013549172473505218,0.09614815499503467,0.016482314607682142,0.01942680105784081,-0.027367348434938335,-0.2284560669833921,-0.12136890693413796
0.328,-0.09448501032331713,-0.028865949876374544,0.06502426840901049,0.06219558811918449,-0.0820918876031286,0.016406810986724415,0.08198505089067595,0.011787254088702747,0.01588919383527364,-0.026652404084165967,-0.2240862591421946,-0.11994043872173049
0.33,-0.09550326177728792,-0.024936867896829855,0.06988866751267223,0.06107672057203015,-0.08508980139249708,0.020751526556818195,0.07051138793341942,0.010839836018801889,0.012887132271331399,-0.02438677947696262,-0.22000303407643712,-0.11756330754666189
0.332,-0.09715308582305962,-0.022575695935739302,0.07359346800369902,0.06157034796203999,-0.08787016402171335,0.024545071705159065,0.06293291510596433,0.011067023670687577,0.012931274825685806,-0.021346282192789643,-0.2177455401156002,-0.11583973272635922
0.334,-0.09851869316784272,-0.02276330416774992,0.07459362606753722,0.06298567693369458,-0.08910990843071168,0.025715247691457385,0.059176829789588346,0.011797366739437461,0.016120137372598937,-0.018760618472077027,-0.21678048399510474,-0.1148002079152315
0.336,-0.09860974969903674,-0.024082328122911077,0.07343392335740163,0.06364839671279249,-0.08855306368736003,0.02454280664994056,0.05752334278334501,0.014528780073558553,0.021070515075816563,-0.01694835347271092,-0.2157035580725333,-0.11305024049896811
0.338,-0.0973482291853921,-0.024685848024111473,0.07170273850629721,0.06277866244123606,-0.08701267518050146,0.022824076210598225,0.05554595686900208,0.019391530245109874,0.026225251981989363,-0.01611356759613002,-0.2139080658977782,-0.11082355996945838
0.34,-0.09527524447186832,-0.02428668616829615,0.07005872105000556,0.060878063006198455,-0.08514386798793497,0.021474100703483677,0.05218814548718733,0.024292238577745824,0.029870701553646392,-0.016698485699046698,-0.21137431866032338,-0.11009695716427571
0.342,-0.09326618713243849,-0.023767807679370253,0.06851025023939133,0.05907903243207412,-0.08338397165802802,0.02039980252656217,0.04885315868049003,0.027556076898132647,0.03129577743971315,-0.01753108299554453,-0.20853689739694672,-0.11129859541283077
0.344,-0.09216506100356343,-0.02373392634578426,0.06739866722663096,0.058324750836819275,-0.08229237507519352,0.019696620313196037,0.047556450992374176,0.029118588338737,0.03194338049687144,-0.015986178154064435,-0.20652676675370785,-0.11262243143902442
0.346,-0.09171877400571513,-0.024109098237558853,0.0666096324935892,0.058615602880607486,-0.08160572211090589,0.01950878808723844,0.048320726040234206,0.02949955665986783,0.03373032412679159,-0.01175753051177988,-0.20585970045168323,-0.11259401559968794
0.348,-0.09069440538362913,-0.024603793724731707,0.06525106649088669,0.05903345967263755,-0.08007656698273619,0.019482817329072265,0.049289386219347954,0.02903652058564009,0.036928650424018154,-0.007587527216719353,-0.20555728205849233,-0.1114676581490676
0.35,-0.08879726252506093,-0.02421747254630106,0.06407589292021036,0.05839090790820011,-0.07789440933901277,0.020021177075799257,0.04856357374475051,0.02751805570871202,0.040776337706970305,-0.005049065045921952,-0.20443189331804487,-0.11075521237952521
0.352,-0.08730440042337678,-0.020865179292313126,0.0663459413792098,0.055881342358238315,-0.07772786023507071,0.023203180462306548,0.04489359106923884,0.024596251053209728,0.04482978446656977,-0.002962196828602561,-0.2023446192721414,-0.11199280028737031
0.354,-0.08721271581079271,-0.013809114401745278,0.07355564636775773,0.05185130613821963,-0.08124634858407104,0.03009535934236858,0.03778329686484471,0.02145665818071172,0.048534383560922635,-0.000574124575127637,-0.20011192659934482,-0.11458591702883454
0.356,-0.08795207181314829,-0.005752671971759504,0.0823274331326086,0.047838957761953044,-0.08627882337246051,0.03816490338314072,0.02848695555672442,0.02056793253594398,0.05103381192777166,0.0011890202503729351,-0.19821961451048545,-0.11545629399729626
0.358,-0.08839244357519241,-0.0003897291795560828,0.08799131960840292,0.04516151601060393,-0.08928835353900003,0.04362294149343913,0.02009834728292869,0.022464591972993515,0.052379594103022856,0.0024881049231121207,-0.19554098196791164,-0.11235868919586794
0.36,-0.08821549247917557,0.001161776777334006,0.08930479380162062,0.043938813353476755,-0.08925466440591806,0.045212712401434166,0.015138119764487992,0.024732389156841762,0.05350227766123563,0.005512796107055303,-0.19081027958865593,-0.10657274038218405
0.362,-0.08789131453539031,0.0004920438177552135,0.08835455720673924,0.043662518578948636,-0.0879516638493335,0.044509436381528725,0.013054234861298492,0.025180339353646372,0.05499438719646508,0.010958171784408471,-0.18550870852920298,-0.10164659379778881
0.364,-0.08761173950005711,-0.0005325929994975103,0.08710442561453394,0.04383749693740768,-0.08701445137410002,0.043338224682174034,0.01082326805093823,0.024428837548642265,0.05705924398378486,0.016211971161479297,-0.18274779195363516,-0.09986861522644427
0.366,-0.08644599471368436,-0.0018929425315506055,0.08458071573388773,0.044059019393119875,-0.08542356333075915,0.04132198691321836,0.006713663398351244,0.025004437083379065,0.060037279766685506,0.01943341423616411,-0.1828711509869277,-0.09982607936305446
0.368,-0.0831653431636863,-0.004690572854651951,0.07847421064930683,0.04399620502536097,-0.08101200191129278,0.03679801391630528,0.002953008447616093,0.02843973593126549,0.06395065328692508,0.02245467196648793,-0.18248336045080374,-0.09824613442455178
0.37,-0.07825166971128837,-0.008071794350914804,0.07016453585146623,0.04325463852879623,-0.07470589015634893,0.030656577787654137,0.0031120008760937433,0.03325313538689975,0.06774495059482064,0.026934217896834416,-0.17826924298407082,-0.0944420399415727
0.372,-0.07398803560059693,-0.009098147755389654,0.06488287193336295,0.04155116837644899,-0.07061790141712135,0.02670875063991855,0.007739752152225246,0.03682627560298279,0.07014615739812621,0.031102270803101024,-0.17029185434614322,-0.09071265360919743
0.374,-0.07211470809516707,-0.006880256701819241,0.06523947012558297,0.03945096608475911,-0.07086386857533157,0.026933670208866438,0.01441445792768511,0.0393276131093114,0.07120595785636889,0.03257075191576618,-0.16131663822009032,-0.08827396193840412
0.376,-0.0723256474148966,-0.004267290761808651,0.06806458146050196,0.0383246833427441,-0.07301369271010989,0.028997588029504258,0.02053770695017329,0.04308777768567412,0.07152475203606268,0.03138975998312835,-0.15416062941597358,-0.08601437259427158
0.378,-0.0730004219335466,-0.0043435335520472995,0.06867906222444106,0.03901288444285069,-0.07330614578050103,0.02937017095041389,0.02443162514587217,0.048093111295965434,0.07091800127302014,0.029613346185349734,-0.1502702659408426,-0.08337189993608043
0.38,-0.07260622501701397,-0.006907971749207454,0.0658262839528815,0.04059619317711651,-0.07044336751162508,0.027306337123954694,0.02579752296081304,0.051939205260529996,0.07008526943252563,0.030045169828758555,-0.14957088565207777,-0.0811915462875827
0.382,-0.0707054236712603,-0.008609101542517095,0.062422044288711544,0.040716705307025425,-0.06644953393837562,0.025637888799639037,0.0268701112823633,0.05448272827140584,0.07219170448574262,0.03491897999347194,-0.1504843973053169,-0.07976596108161813
0.384,-0.06833557798807399,-0.00632766457097787,0.0624315008567803,0.03801551051487408,-0.06474021011634742,0.027676007611174426,0.03078666164301233,0.05862686625282302,0.07964697656003437,0.04380834448454493,-0.15051097683623338,-0.07859043065984293
0.386,-0.06707817765307504,-0.000633491343383455,0.06670162217918786,0.03411365563790948,-0.06681829650445034,0.03323594086957388,0.03705597121661368,0.06603180254921481,0.08962721666543652,0.053108326320934394,-0.14764493542964055,-0.0776978681131339
0.388,-0.06735443760656969,0.004905373147952747,0.07223426769268312,0.031680940790434244,-0.07073507435949425,0.03884152350810871,0.04137104405406614,0.0749499577898766,0.09614986520580342,0.05902804596114199,-0.14189099279330403,-0.07729592768114646
0.39,-0.06814241690064712,0.007285432356574391,0.07528135354330465,0.03138636829776897,-0.07308983459070878,0.041326049294389745,0.0413655603935598,0.08247301732552043,0.09735926740638631,0.061115008978534634,-0.13518368711385859,-0.07624216912843551
0.392,-0.06829632569437678,0.006163752461936737,0.07439645735297234,0.03214964356578173,-0.0724339023905742,0.04010818322561827,0.03981500622950384,0.08703029586066813,0.09733400936435678,0.06226022266775653,-0.12923886988403505,-0.07262262305116511
0.394,-0.06735193179607037,0.0038346089200835477,0.0712328586608917,0.0326520120727021,-0.0703186335059007,0.03707199880181664,0.041062066266580606,0.08872834284024447,0.09971020919168967,0.06556182004734795,-0.12430122675584569,-0.06663438117996326
0.396,-0.0652366431622723,0.0033290529556474617,0.06860048569937283,0.03166071944530614,-0.06871277574238081,0.034788202003135316,0.046241798551439596,0.08872986805183895,0.10346650019917408,0.07168244074671133,-0.12006009077513975,-0.061253654696314344
0.398,-0.061962809809175595,0.005889668293518049,0.06770142973865229,0.028520418004735947,-0.06751268638708725,0.03459172791980851,0.05295991819717188,0.08887050770232982,0.10629670927773817,0.07881201743805069,-0.11666033576363216,-0.05885224010024434
0.4,-0.057900828766094314,0.010460320912570832,0.0678507216898291,0.023974439856423925,-0.06564048892458627,0.03627071704499814,0.058480228938151746,0.09088725280263596,0.10855577658196602,0.08455854021264496,-0.1149116297334931,-0.05881569674748289
0.402,-0.054291873150194014,0.014715166454352854,0.06808834594344018,0.020038848883681307,-0.06336511222417787,0.03854512309210182,0.061767220982573236,0.09488232018841969,0.11217417986075176,0.08825007227044222,-0.11523307373718933,-0.05911584333744858
0.404,-0.0526639921163026,0.016463004823063128,0.06797703243558843,0.018591163372645984,-0.06200114094595723,0.039733631222190834,0.06295830082845942,0.09945110490330984,0.11775250252407,0.0913643880017507,-0.11582855404220883,-0.05819441916573412
0.406,-0.05303815746456752,0.015188080729244324,0.0671276658785933,0.019732526342869296,-0.0616068542527167,0.03889578275719234,0.06314309183887436,0.10466524954409623,0.12438451243824239,0.09527451036337692,-0.1131240389976637,-0.054882784770413674
0.408,-0.05346397924410772,0.012407089387706209,0.0650162364865971,0.021655196247291446,-0.060545775626238356,0.036615394564185236,0.06474012852692733,0.11270788105971914,0.13127281907610377,0.09970457706322103,-0.1054425772135756,-0.04877062005073392
0.41,-0.052148681160615815,0.010723485440236257,0.06226913114825235,0.022155406695469584,-0.05816304140691494,0.03497088379107317,0.06969137662792968,0.12337067425008852,0.13776781815104516,0.10386181358924007,-0.09596524896346281,-0.04174397388226536
0.412,-0.04951619259594159,0.012121190263184346,0.06110798862063221,0.02034617771502075,-0.056273773738327704,0.03601863558862407,0.07729087217572637,0.13248885140289435,0.14260160591757684,0.10737296428690135,-0.09003825345613528,-0.03707605130025808
0.414,-0.047210846018318875,0.015760692143416258,0.06235534516750039,0.01722800597341321,-0.05626340889443863,0.03886528282251272,0.08526205538026307,0.1379466531528693,0.1454396010330901,0.10996093467350684,-0.08870496896772212,-0.03534123877781082
0.416,-0.045745002332522156,0.018178435941148742,0.06335240961843853,0.014725153545223453,-0.05662779711725654,0.03971000535416238,0.09195061779960585,0.14321385727047886,0.14874756406574444,0.11231167387899078,-0.08736321245820339,-0.03325294704881297
0.418,-0.04447298125132856,0.017163727511268455,0.06139537361607931,0.014014212046650116,-0.05531324414829513,0.03668658545786575,0.09678009695647728,0.15155022431364282,0.1551833654260538,0.11689137677126628,-0.08206751476755185,-0.0284148269572708
0.42,-0.04304699163070059,0.014053916463335783,0.057211257731399616,0.01475313347453738,-0.052306525022039786,0.03231395335148352,0.10016790155316183,0.16089605312738045,0.16343317971000676,0.12512426668427504,-0.07415630501920749,-0.022905893914532183
0.422,-0.041882778115626074,0.011426206472713902,0.05349465381741596,0.01597160994667049,-0.04909928994408381,0.029764886099460586,0.10321921999303717,0.16777366643304803,0.169909543087259,0.1347019919432007,-0.06702263002024339,-0.020228411556557725
0.424,-0.04176987702101656,0.010806941126519651,0.05259365500803939,0.01696952615779082,-0.04777021146827781,0.029842760780075948,0.10633267007284516,0.17220451455237165,0.1740056430301609,0.14215642496346736,-0.06139815198957462,-0.020749963874604323
0.426,-0.04291484355151132,0.012791273283143641,0.055473285298971824,0.017102512906944138,-0.049669551066735124,0.03215509556025312,0.10881205382241896,0.1761044285032583,0.17819296400541648,0.14627305705827534,-0.05593244175133373,-0.02170872652372211
0.428,-0.04395704426147383,0.016950313904818468,0.06041114147616177,0.01576476057874022,-0.05312231528892396,0.03601879664345026,0.11026445386629828,0.1801964739173139,0.18371718252772598,0.14799084876101667,-0.04980975782008055,-0.020593901829127115
0.43,-0.04240288930185741,0.021766457249249308,0.06358710811940271,0.012491290223204854,-0.054045112174153975,0.04003209552898042,0.11084104686085687,0.18422560571629146,0.18943869547559972,0.1489866922133553,-0.042408916074809726,-0.017441127930856063
0.432,-0.037007454340432684,0.025900302807876564,0.06274950648581758,0.007122157695203092,-0.05035307418624041,0.042835024559238724,0.11064095134688579,0.18804470118620706,0.19433253860032662,0.15048113207393843,-0.032930540703951704,-0.013859652004310207
0.434,-0.030078178198305723,0.028746862694889606,0.05950927295992309,0.0012083470556275965,-0.04462078079639472,0.044022049254667246,0.11031257043427393,0.19193350180740287,0.19878604972516487,0.15280963591069385,-0.022943866192856533,-0.01056597490224054
0.436,-0.025607549538240182,0.029824256278885772,0.056745885079926686,-0.002149944411512437,-0.040916723949022446,0.043499431486561956,0.11093130262415075,0.1966801320693715,0.20334289853365278,0.1557536400727147,-0.01636421196266542,-0.006543837017895359
0.438,-0.024624464871141248,0.028871287753740548,0.054824270545925514,-0.0017544633450269028,-0.04004290161144781,0.040973041496483883,0.11283268425403067,0.20270256023121358,0.20733584936132687,0.15873773075811956,-0.014614075493751509,-0.00024483694790027787
0.44,-0.024817645179330737,0.02669999958806875,0.05252441090401676,7.112902043950922e-05,-0.040007918671752775,0.03721034503978467,0.11598004322458715,0.20908654019716288,0.20982875924620636,0.16185939606281013,-0.014566161535737058,0.008637046709971924
0.442,-0.02431137465434145,0.025635007487047324,0.050754584996524646,0.00023573044306191796,-0.03987927407055699,0.03511239773950571,0.1209034989769453,0.21455461108642243,0.21166980090694185,0.16663241538170792,-0.012271266387463722,0.01807709867039482
0.444,-0.02331247413776683,0.027889732385536117,0.051963451174172046,-0.0019077114557815062,-0.04045435846686111,0.03745038721908884,0.12784940489900856,0.21896899845001982,0.21499456588978658,0.17377650340880985,-0.006379429736627435,0.02503087176416399
0.446,-0.022954828424424062,0.03251195500078001,0.056058851427885296,-0.004214644231917663,-0.042175467895550774,0.043141422466375874,0.13549566493684467,0.2231349516717855,0.22066828742267616,0.18100225679292842,0.0022230047533618666,0.028427916765405965
0.448,-0.02389555160504042,0.03589643268264988,0.06009066432870367,-0.004535224374109563,-0.0443525997782733,0.04780652736047151,0.14189803507034646,0.22781225456370147,0.22744921175127747,0.18510874925581156,0.012005567358930252,0.03003767439093896
0.45,-0.02528207844954033,0.036462842316327154,0.061919577200683654,-0.0035400612198871265,-0.04571596435051592,0.048722981077883004,0.1468810148244848,0.2334826219049088,0.23366237585493824,0.18624779160001267,0.02132227386170026,0.032444302477031846
0.452,-0.025721235790557195,0.03634513632145111,0.062320222033863705,-0.0033372688880418232,-0.04564840588372623,0.047656304040827005,0.15229105344886065,0.24039028127511428,0.23906087731943448,0.18858163311949103,0.02849673079568746,0.03685559191220257
0.454,-0.025941588178347692,0.03770342638249968,0.06389290307526503,-0.00399814487563493,-0.04578801348912662,0.048225260146291776,0.15940728955969652,0.24822402460854068,0.2445245897304399,0.196230369046144,0.032454023126938514,0.04247203243745593
0.456,-0.028022992614461107,0.04025775790563008,0.06834067537773868,-0.004123576967468368,-0.048708834670072115,0.0518085016163647,0.16692583533122257,0.2562868175439706,0.25050799387869777,0.20921594958920456,0.0341474225572788,0.047461102929783915
0.458,-0.030894620981706315,0.0432463834681798,0.07401872952827011,-0.004297650224275145,-0.05349166244807228,0.05671505229007067,0.17208384327106335,0.26450756724457286,0.2571615249559732,0.22306244889971336,0.03720921010077715,0.050665985435436066
0.46,-0.03030105294092897,0.046990318890730125,0.0770723570452813,-0.0068076470218376645,-0.05554636636728343,0.0604930454875267,0.1736938291319223,0.27376992263126837,0.26484649501320084,0.23269198291819204,0.04476654268848271,0.05242708358991699
0.462,-0.02529091921823115,0.051455556853280425,0.07642881178278686,-0.011716755419231999,-0.05314777769136892,0.06239197496251424,0.17308996224156167,0.28445274683695887,0.27275043220687234,0.23826409739847274,0.055559806912177614,0.0539080008117404
0.464,-0.020518493713019902,0.05548668306475726,0.07563495423309397,-0.016122845978908038,-0.05030817534429716,0.06362337499277235,0.17150607826547584,0.29499639423929624,0.27908024566324835,0.24545553509464285,0.06612704109697709,0.0567026858256657
0.466,-0.019402224845539336,0.05855688228461636,0.07772362627972558,-0.018280833711909993,-0.05047027130832393,0.06558748619186594,0.16836318246145646,0.3027835046940789,0.28417311374419646,0.25777956289250903,0.07562546807002658,0.0630018288354347
0.468,-0.01915996400627888,0.061741416237581746,0.08090819397394433,-0.02003955133491725,-0.051526198872051274,0.0684257590849782,0.16274689349826915,0.30631866107642247,0.2904571607791186,0.27183655618491326,0.08562721587652203,0.07381040169315396
0.47,-0.015182459197575514,0.0661738003705409,0.08148210417547007,-0.024037028308218293,-0.04951719046140371,0.07137202293673399,0.15393304802431948,0.30663493313048273,0.29825727246961864,0.28231551407808797,0.09663770671968121,0.08647903691528054
0.472,-0.007154136385229182,0.07162889566817035,0.07884699214802575,-0.030501799471038787,-0.044118168238025106,0.07390951926882296,0.14067770895220053,0.30732557702715235,0.30490598260480184,0.2883293724100642,0.10716436352680592,0.09647732708237101
0.474,0.0009430371210518126,0.0770006410899391,0.07602271125642199,-0.037504881531167426,-0.03880914813336783,0.07607815001045003,0.12319462559955327,0.31235391902090603,0.30908496999894763,0.2934356481520033,0.1161038584280278,0.10243517149555328
0.476,0.005696934166303405,0.08122632409449992,0.07547793287004634,-0.042883375330003935,-0.03651804669918697,0.07768571637991618,0.10509063626532096,0.32239844784584926,0.3131590487477783,0.3012685908793046,0.12425046936453854,0.1069401164263216
0.478,0.008229557968475106,0.08378405142526289,0.07554857054208845,-0.04595919179721924,-0.035824857554549,0.07806199797313547,0.09066134499356011,0.33398883394206796,0.31981251477605355,0.3114738811433799,0.13231959872041393,0.11199269651785562
0.48,0.01230336633285215,0.08557285785241055,0.07327265369745455,-0.04819745060265149,-0.03304725052311886,0.07756590054484545,0.08101502641678815,0.3430914001010446,0.3284980148460085,0.3203697673388436,0.13935172994881548,0.11696669813131194
0.482,0.01871744566898939,0.08888140211915913,0.07004786059828534,-0.05171973374414952,-0.027996888557828132,0.0783259223971516,0.07454781143530041,0.3486002996237122,0.3364560452480206,0.3259793925836005,0.14464399693638397,0.12120963663111518
0.484,0.023936961142867412,0.09492745436961225,0.07067860377544698,-0.05686119352115534,-0.024884794721580717,0.08205013402738022,0.07010250302808652,0.35187284257264406,0.3419528468160043,0.3299222322467984,0.14960123351032317,0.1255751389171405
0.486,0.02439888277737823,0.10228567289246807,0.07760607950679362,-0.061713212134828506,-0.027579634525753367,0.08838419182524623,0.06730228526786702,0.3543777247691856,0.3456816662702687,0.3335871837390345,0.15672843239188347,0.1313019994303804
0.488,0.020289018392877944,0.10881503338037643,0.08872728065437839,-0.0642791811646725,-0.03567418978285478,0.09595882395259449,0.06476031067041499,0.35685858260224695,0.3493680197489882,0.33607805856232265,0.1671444111704287,0.13888285870362158
0.49,0.015361979668698539,0.11391050419090745,0.09932950003791427,-0.06479943800262083,-0.04452187352273573,0.10331969950122327,0.06080387720773734,0.3599218216298798,0.35355802858058244,0.337257660854423,0.17845476492768686,0.14742158229545985
0.492,0.013938787045611092,0.11815934785142465,0.10504807636538228,-0.0654503686704767,-0.0487713428785813,0.108967508664114,0.05575858643105728,0.36393261798171106,0.35707816516124546,0.33922903898186846,0.18590819961908073,0.15450572796821516
0.494,0.017750746320364687,0.12156977138168962,0.10411093447706388,-0.06785018580415235,-0.046257319225372615,0.1114713202965903,0.052054541031277865,0.3679219874467354,0.3583057442485136,0.34314515504718185,0.1870393411294861,0.15792530929006957
0.496,0.025071256047069158,0.12332481250536781,0.09803344607982388,-0.07174525230995575,-0.03889979442490045,0.11007272258534867,0.05129469891394365,0.3701992143395823,0.3568994816224171,0.34738837383665433,0.18451668176883715,0.1582110351600563
0.498,0.032143659700487534,0.12375912501505879,0.09134947599820405,-0.0758820170190545,-0.031227923357302328,0.1063890583136172,0.05140840989197194,0.3711113751601316,0.35470565964257184,0.3501693687947516,0.18385392146598256,0.15824228616152541
0.5,0.03597204955516995,0.12524550084378472,0.08925530748383893,-0.07943891111302205,-0.02762484714928017,0.10465361368555268,0.04904197208282837,0.3734235574717277,0.35415338304422483,0.35170798709274875,0.18824559366025012,0.15972165849974393
0.502,0.037088276034872684,0.12992486539348577,0.09296957519955917,-0.08301261714613985,-0.02881120004224079,0.10786015770034871,0.044576618088151575,0.3790247609416112,0.35554432336331687,0.3528390070372384,0.19584378865902452,0.16161712689060298
0.504,0.03872513703984219,0.1369386046237694,0.09828716074508996,-0.08766294816325403,-0.031204795017828888,0.11410292987835763,0.041251648121487544,0.3868241833702334,0.35754312778273406,0.35321161760331843,0.20246946385794562,0.16272111073505105
0.506,0.04222028578832063,0.14277809117221263,0.10052098814319527,-0.09246548087804216,-0.03123733602632081,0.11871950461150585,0.040181886351369676,0.39415022599289085,0.35981816401109007,0.3520644728160638,0.2057537823429234,0.16363128379031397
0.508,0.045033015905311724,0.14499459476415413,0.09990393677948428,-0.09479771811236548,-0.029491477223662587,0.11989548694430796,0.04002738232997226,0.3987621500343936,0.36277162620575226,0.34933278413074786,0.20607442822405336,0.16511819330872715
0.51,0.04407458585919317,0.14479514248732026,0.10071309913409313,-0.09352917485912657,-0.029479149652742037,0.12034947047885827,0.04076022856774633,0.3993346305981137,0.36517459392761115,0.34516113628681677,0.20517602773386745,0.1664778886629133
0.512,0.039378069648233364,0.14475905874605433,0.10538691741094997,-0.09028981230691835,-0.03312102220563971,0.12286161661395345,0.044171549967839216,0.39589815764185016,0.3647900282368147,0.3401675242047953,0.20448681702521038,0.16672958095270965
0.514,0.034206497454522214,0.1452039612790567,0.11086158228683814,-0.08765596182226548,-0.03826423732026078,0.12600323492992663,0.05013184667114688,0.3905087924899164,0.36133620717702514,0.3363017967695218,0.2039675510765086,0.1661391749541278
0.516,0.03194393301971174,0.1444105709317461,0.11200099458102364,-0.08686194783277106,-0.040962304820234365,0.1260907819435831,0.05516479238501918,0.38504519817500743,0.35643217143530115,0.3351791791631002,0.20246496119104557,0.16557291294135423
0.518,0.032855201239762793,0.141254185808306,0.10763618036697971,-0.08690210707778903,-0.03967173513637509,0.12196668063643329,0.05632211672312076,0.3785247011537336,0.35063203461269093,0.3356831363677861,0.19913334635111793,0.1648945803879194
0.52,0.034469710334831254,0.13645766374393517,0.10130747357820648,-0.08594615227456018,-0.03625774348774506,0.11601502782021399,0.054602663443561614,0.3698031540535647,0.3429433094055293,0.33486145572362747,0.19432764198752858,0.16267201696082378
0.522,0.03482092489731003,0.13205755931341726,0.0970126266340835,-0.08370796750996042,-0.033455689442204915,0.11146649470619645,0.052992050667062904,0.3609629627545291,0.33324798395464533,0.3304512002049064,0.1891470708987614,0.15750395082966295
0.524,0.03435943281134085,0.12962136100770236,0.0954374706742817,-0.08152041561114529,-0.03198441379492675,0.10945783369679857,0.05226646710069528,0.35442934122336767,0.32277827868962067,0.32180661019508167,0.18397651168071288,0.14965336787661793
0.526,0.034937259451889205,0.1286783466198906,0.09394884705041252,-0.08039398647607474,-0.030121838077963353,0.10831304251269992,0.05018977738361764,0.34939666847858514,0.31263389856626717,0.3107254856204801,0.17836481030918863,0.14188300805992
0.528,0.03701949451773953,0.12771262032242292,0.09070739095674046,-0.08010792543507057,-0.02691751617208817,0.106243815509679,0.045250832420406964,0.3436739027040648,0.30384443031507685,0.30190157001399126,0.1727459147894512,0.1380304094462109
0.53,0.03830929938391145,0.12607630435219278,0.08766379291996004,-0.07976740679676465,-0.02473019107954629,0.10388536355234525,0.04020182506952235,0.3364696324178978,0.297511549235599,0.2992747331462035,0.16856575596737292,0.13920815240302475
0.532,0.03673391666487709,0.12416440853777169,0.08737313463060668,-0.07883504048536272,-0.025985449370547767,0.10275790656083207,0.03951626995903166,0.3280538557802491,0.29292963068149663,0.30116368739620614,0.1666436758559546,0.14195476336659618
0.534,0.03367334749611428,0.12292018019279954,0.08927522341599586,-0.07768953686903163,-0.029204405128724457,0.10313924887270319,0.04294981887414646,0.3181632431720012,0.28640405672516406,0.3008949809982405,0.16581119344411482,0.1410458357836088
0.536,0.03158765570843156,0.12291094174179558,0.09136799512287405,-0.0765884913155766,-0.03138977632612982,0.1044673843014151,0.04502704231492627,0.3054142888850909,0.27407655360762695,0.2927300953136454,0.1621890852914975,0.1337736158318759
0.538,0.03005128832652259,0.12288768939471428,0.0928642191768279,-0.0746480851899579,-0.032307015759385195,0.10575641763210829,0.04254471680404968,0.288911725514705,0.25713708488561515,0.2767641951881125,0.15195925217802653,0.12212733552807382
0.54,0.026613949884288432,0.12072229460574742,0.09421809525425935,-0.07096452692695489,-0.034026928774743656,0.10586953490337578,0.03876364107015837,0.2699234860590202,0.24172393381860194,0.2577804597561966,0.1365857243463804,0.11085992743261404
0.542,0.01996167745407288,0.11598207736671036,0.09633431702756141,-0.06562518479659565,-0.03818113978629666,0.10474491877599931,0.03764920720859201,0.25057315109788436,0.2310681212099276,0.24057240610526195,0.12197586279334853,0.1023884989512599
0.544,0.010983063342543797,0.10990981916378635,0.09935467945530982,-0.05903300637841026,-0.044586590188704305,0.10324507904263226,0.03798504338366596,0.23209372996700767,0.22122602125094212,0.22729652283527635,0.11122617920582789,0.09440171738724192
0.546,0.002387664579549807,0.10375966184811425,0.10163744540827213,-0.05212949169236973,-0.05084025849931221,0.1015711457987473,0.03670396672741902,0.21534676309120585,0.20773415336181003,0.21700677007774255,0.10146232306567664,0.08332641614730643
0.548,-0.002812131126413834,0.09818282527090981,0.10097111259977665,-0.046780862721118595,-0.05372413144938653,0.09886557275737017,0.03463763368028363,0.20146157577105578,0.19265479366114524,0.20654424301858487,0.08882542517356003,0.06915437619288228
0.55,-0.00386894198258399,0.09277481822102862,0.0964934308615953,-0.0436280125079493,-0.05217882122295138,0.09397603874515414,0.03493783311280628,0.1908787489285734,0.18169389296756017,0.1940499368318553,0.07420690829180324,0.05593841701638495
0.552,-0.003012032954423847,0.0859668305245369,0.08891248425483067,-0.04066409541822769,-0.048062839168129465,0.08636398904801855,0.03779806763523583,0.18212115792117042,0.1766232388952959,0.18179683675125,0.06247839621748022,0.04752693713911279
0.554,-0.003499811821640056,0.0766673544756482,0.08019231916191277,-0.03551357431227529,-0.04424815715336752,0.07697906504381051,0.04022032117188729,0.17229847674803464,0.17303748643862848,0.17313886774432818,0.05663286997543573,0.04360647202109226
0.556,-0.0073528387228117735,0.06579426907428913,0.07307439652837198,-0.027906718056883578,-0.04288272947115796,0.06805275088104086,0.04037224356001928,0.15966076308712115,0.16508419989700748,0.16707816271971146,0.05443142068159031,0.04048409755974573
0.558,-0.014562542673460271,0.05546319529714086,0.06970099898854842,-0.019197224848362893,-0.044853576072084914,0.06158110587440858,0.03997933813648518,0.1453277923544916,0.15094359099157253,0.15874712579094022,0.05150562480792132,0.034787542702939434
0.56,-0.023694700707984694,0.04749054467736062,0.07073208919102394,-0.010842598707709374,-0.0499217482119483,0.058407806099902794,0.042456947831070874,0.1315764094140133,0.13371840556613762,0.1454313207756905,0.04593952151324115,0.025892199308952958
0.562,-0.032581353341695485,0.042941656543791194,0.07525141615932505,-0.004085197288849202,-0.056576126357759764,0.05834631956038629,0.04949039951034942,0.11945139031708436,0.11826371099169586,0.1299116992818988,0.03827646751410128,0.015666606598403687
0.564,-0.039194867854349225,0.041602923755932636,0.08083245083135839,0.00028327270502888965,-0.06224873102147703,0.060091359159132045,0.059461014918564814,0.10917124905524583,0.10740239305089323,0.11695885175399158,0.0290517991561191,0.006212738040558902
0.566,-0.04298658466070319,0.04178187024208493,0.08492729725722331,0.0024365733658603356,-0.06527534708438817,0.06170230784110771,0.06936211810978908,0.10165660636410957,0.10067652746080832,0.10802431481981355,0.018883522446435687,-0.001774962740653692
0.568,-0.045194907876528335,0.04161613966102402,0.08687559092313937,0.00329085592236287,-0.06651821949014577,0.0621973515286731,0.07744022518506673,0.09798433545715839,0.09591354954855154,0.10108220993075769,0.009439627701097469,-0.008072170181879596
0.57,-0.047652084218282584,0.04008023681904133,0.08767970683205542,0.004273001589780889,-0.06803762224966599,0.061849367826180335,0.08289274919458677,0.09704039106881557,0.09092956466885428,0.09435788113001155,0.0018866317802481694,-0.012185738213538334
0.572,-0.050946455972170554,0.036722966519850776,0.08758724306799194,0.006805795875787475,-0.07027639065439378,0.06048677215736414,0.08505947292437734,0.09539799694362018,0.08408963730301038,0.08758894188975691,-0.004481910124532339,-0.014977270663919125
0.574,-0.05351243296665291,0.031081963489315634,0.08444069319857975,0.011205365888538142,-0.07088117708930562,0.05642140884133922,0.08511413381696249,0.09079653964351238,0.07440697707823454,0.08030166562074845,-0.010631103664305776,-0.01943218005793752
0.576,-0.05368879978978613,0.022735343771445825,0.07599791831815059,0.016673503163290804,-0.06725676801286533,0.04808642966596585,0.08665979687340039,0.08402538103124721,0.062157321622575167,0.07164324978932587,-0.01617871529079991,-0.028006132088488633
0.578,-0.05260762614795301,0.012843066794568972,0.0647164390765304,0.021946826439856498,-0.06084478593304254,0.037229472854642766,0.09218127401135522,0.07610792287905697,0.04980545022351327,0.06211959513050871,-0.020784449556380057,-0.03938991461880218
0.58,-0.05331784483940194,0.004793455187398736,0.057422964516517995,0.025769989506290177,-0.056829814678410674,0.029166895428624606,0.09949043262474837,0.06627420070285961,0.040603716913007064,0.05354401986524082,-0.025841488769835917,-0.0493087079028376
0.582,-0.057523298771398515,0.0016880242157864614,0.05896798924578346,0.027918599738774617,-0.05901405528749416,0.02846348393206479,0.10357622147879202,0.05504175565374948,0.0350276869792215,0.04715017733858171,-0.03324575329186392,-0.05507902327414456
0.584,-0.06429670596500471,0.00329023608472094,0.06775754042841366,0.029634501475442464,-0.06651896299393556,0.03428279788698382,0.10222668965794766,0.046146512600418625,0.030279938414879606,0.04280427936075442,-0.0429916848818853,-0.05811085327957979
0.586,-0.07089184551441542,0.005679090657831324,0.07678688020944538,0.032379253884041524,-0.07452740063134385,0.04023549527239878,0.09844351364534742,0.042056055701576917,0.02421441000965355,0.03943487898110731,-0.05265839419184377,-0.061323317804416924
0.588,-0.07474095943354413,0.004849497598948073,0.07961132917995077,0.03629058453187678,-0.07808283053177348,0.04049712278575121,0.09707774010907644,0.04028095200797418,0.01786118685376374,0.03545389118879474,-0.05975959934107459,-0.06575295275908645
0.59,-0.07633069606834278,0.0009337924349406771,0.07715996604077537,0.04035206468434604,-0.07736395607804354,0.036316006874507825,0.10062919033902643,0.036925587134995885,0.013118444883980809,0.029359794416027055,-0.06494927607911699,-0.07103140609735904
0.592,-0.07958923011844071,-0.003161858154943304,0.07638772286842242,0.044400653408304555,-0.07800067454437219,0.033586505563330336,0.10858089027892144,0.03166823393689418,0.009462956140735904,0.020856403834330132,-0.07136699621767781,-0.07747310396919459
0.594,-0.08745727079260801,-0.006255785801970316,0.08138182505045406,0.04960907016289779,-0.08417429735772712,0.03491253109881023,0.11886839552401764,0.02703292858693055,0.004609118384517059,0.011605451936664915,-0.08000995997352851,-0.08511442364574878
0.596,-0.09756264493608872,-0.009013155111047338,0.08907655873475791,0.05580306935574205,-0.09344240605261077,0.037738576175941674,0.12906112604663655,0.0239173459603119,-0.001757186852520413,0.003884958477909867,-0.0881861280679916,-0.09179293270359062
0.598,-0.10427397139646455,-0.011628651743046635,0.09355599556827081,0.06038214296724527,-0.09978043953738629,0.038644975649994244,0.13756181523074387,0.019953625718166532,-0.0072216704676747,-0.0016222291013177463,-0.09342801416912504,-0.09505587695054117
0.6,-0.1050576201075359,-0.01447670235975671,0.0916960384471047,0.061896068972701855,-0.09996425360119635,0.036150442554514384,0.14473688372465843,0.013011217385329383,-0.010451572188225166,-0.0056281811503458,-0.0961670730031801,-0.09570819226282691
0.602,-0.10310623377314214,-0.019342818737033064,0.08472888326109103,0.06287242059685898,-0.09588748027701155,0.03054228580064845,0.1521165644684347,0.00478546760178304,-0.013213667507834545,-0.008675804130578524,-0.09787447485847477,-0.09706098637305956
0.604,-0.10307554339609996,-0.02769740011446949,0.07591174336593894,0.06679032321947463,-0.09142435469338726,0.02299907961464349,0.1602622251718896,-0.0011746921430286364,-0.01775833882316657,-0.011016074553853733,-0.0993097624807403,-0.10044725498127591
0.606,-0.10571317370735701,-0.03861307408121472,0.06728446073022806,0.07357530171842742,-0.08816407629826464,0.014510455835048614,0.16817749579452973,-0.0037268203457323894,-0.02453682721359734,-0.012912335513772407,-0.10116464641818444,-0.10396671507084884
0.608,-0.10812502454536407,-0.049604717856622176,0.05879266147393645,0.08019416759672751,-0.08481207171294557,0.005360317963528684,0.1741424247096456,-0.003875455041443086,-0.03238638897812266,-0.013954069518127457,-0.10398334600258075,-0.10591814933960735
0.61,-0.10825641844456585,-0.05886438064793482,0.05003104322857038,0.0846021278231918,-0.08012423615684953,-0.00404849375162843,0.1764743006250701,-0.0019060759523318609,-0.03884416601665936,-0.013086169678505557,-0.10688566067217083,-0.10667577661414605
0.612,-0.10703760280859345,-0.06589288856140368,0.041860990862455885,0.08732926764708,-0.07510797965482799,-0.01239755417061159,0.17432116487010055,0.0020666828841884024,-0.04177003181231414,-0.010297245102447899,-0.10843236690078861,-0.1072883427331583
0.614,-0.1064566928358154,-0.07032874694110258,0.0364337960135888,0.08954539140696109,-0.07210219513010988,-0.017757917292589288,0.16740828613569222,0.005209692905899561,-0.042778719168206664,-0.007734910957561239,-0.10923563095069123,-0.10876163792056011
0.616,-0.1074321041623584,-0.07132069229977762,0.03595585231095911,0.09110414219889196,-0.07255032132094752,-0.018719475859607634,0.15501272540379726,0.0028827107001762717,-0.04646145211779696,-0.008571448812678977,-0.11165339198282205,-0.11192615463789311
0.618,-0.10959756363110273,-0.06880091541561384,0.04057623069150939,0.09122974040423132,-0.07600012492599162,-0.0157423121068008,0.13712059340693597,-0.006071113301720911,-0.05399672625206558,-0.014432070741842131,-0.11630256348646878,-0.11597785554891518
0.62,-0.11179085267200092,-0.06408525352947128,0.04779534644738727,0.08978002217579249,-0.08071977465170485,-0.010707940171422856,0.11588374210093949,-0.01742713775644446,-0.06091210394023924,-0.023967813944466235,-0.1211134316076198,-0.11871436906942723
0.622,-0.11270962147994158,-0.05802254549551774,0.0551235227980879,0.0867509946653923,-0.0850941005709379,-0.004457591197038031,0.09420876566450814,-0.026695129706869613,-0.0635963201874371,-0.03415658493788932,-0.12460171236363932,-0.11984711020859229
0.624,-0.11176184800701523,-0.050232105924470305,0.06202735778545619,0.08189718984063972,-0.08847054797681793,0.0035896797003212365,0.07444976296900664,-0.033308557350820125,-0.06421384953838989,-0.04220770794706015,-0.1277424112938151,-0.1217224547153927
0.626,-0.10956361493474241,-0.041334904049134376,0.06846111363412315,0.07610727553501892,-0.0908474018927761,0.012717601540886546,0.05832462124141974,-0.038166781539486654,-0.06660698299544678,-0.04663918645502785,-0.13166123519773543,-0.12519393463997172
0.628,-0.10768829084730462,-0.03394245887209955,0.07366832592823551,0.07181782752759977,-0.09253155236554622,0.019953967999431367,0.04563442601119529,-0.04066568208447177,-0.07058168326749642,-0.04786270281711835,-0.13530384117864483,-0.1272963397420405
0.63,-0.10698913575532724,-0.030520623454896048,0.07631056923117419,0.07046824126687543,-0.09340588492038131,0.02242109938576683,0.034374922176523534,-0.04037861208080678,-0.07238305110281194,-0.046947757315788076,-0.13606619306897635,-0.12464208283394336
0.632,-0.10618624950694566,-0.031708365946855964,0.07445906647791596,0.07092602604757244,-0.09201284341641018,0.019410382348677008,0.024143147798740803,-0.0389084250398637,-0.06952794311602199,-0.04414114465781076,-0.132170569510827,-0.1178339247869196
0.634,-0.10393969060139154,-0.036450172544609964,0.06770625273638198,0.07173278657693494,-0.08747081673132573,0.012731750941480824,0.01719599706036634,-0.0382392737536314,-0.06415278548975371,-0.04036294889722531,-0.12486705039729767,-0.11141556648602667
0.636,-0.10143429196276671,-0.04276586353662092,0.05920155271050211,0.07317876906289814,-0.08178696235886261,0.005473320952024978,0.014670826310018797,-0.03867770467806281,-0.06082105340514876,-0.03860472884706174,-0.11788787307234892,-0.10929473715168155
0.638,-0.1006804707929493,-0.04916396986451486,0.05238863980051369,0.07618071195814782,-0.07757997312957211,-0.0006771600606494982,0.014151164079422894,-0.039253396062410725,-0.0612948435704566,-0.041557406274022844,-0.113612974782619,-0.11103420766377746
0.64,-0.1015909967679139,-0.055367030374030846,0.04719666427614958,0.08027970017993658,-0.0750761401711186,-0.006384250894991274,0.012230806069248324,-0.039185642780301566,-0.06326723313835977,-0.04842159412410873,-0.1109652028130258,-0.11360916052444948
0.642,-0.1024072263525685,-0.06090437575625979,0.04212270788040857,0.08351470668210867,-0.07324407853191406,-0.012062912399919487,0.008222451355022592,-0.03823697319421716,-0.06402740620391927,-0.055309618410488,-0.10828729083082383,-0.11547643277280303
0.644,-0.10184793227489168,-0.06402970624046349,0.03778379912325594,0.0842671001311382,-0.07173555900437387,-0.015829286847637694,0.004718665756230568,-0.03621797683737982,-0.0633484905660241,-0.05900921903733141,-0.1063915565873122,-0.11728968079273769
0.646,-0.10003174199061615,-0.06314403074054592,0.036337548109307685,0.08268550137555883,-0.07081141265272756,-0.015284151929401059,0.00478630768822913,-0.03287327322466476,-0.06261109412621764,-0.059566997602024795,-0.10738272940731206,-0.119680945267679
0.648,-0.09811493461542754,-0.058862842760317995,0.038665313086225075,0.08012543243859456,-0.07089301984370502,-0.010623713531487274,0.008459856719994628,-0.028448889309732807,-0.0626254563345902,-0.0589936692127279,-0.11161103587174752,-0.12204244915568463
0.65,-0.09725959278099199,-0.05419423642169414,0.04284201554751024,0.07802343515917527,-0.07201452993392264,-0.005256766695628957,0.01218084886473893,-0.024367651506575667,-0.06303312957872147,-0.058736240699504866,-0.11665113454403596,-0.12365953838649621
0.652,-0.09756539584384259,-0.051929453360897035,0.04576362329560144,0.0771289545281778,-0.07337860691179036,-0.0026254266738786817,0.012530534981156619,-0.022479513036479062,-0.06321996882620251,-0.058703352089878875,-0.11948913341787469,-0.12468377631106695
0.654,-0.09815470936421578,-0.05131988112296631,0.04701220032275703,0.07672193386891969,-0.07440594305773356,-0.0021356541381178946,0.00963643638483556,-0.023013876412483678,-0.06308692771496324,-0.05758281817074133,-0.11909868355069532,-0.12467546833297599
0.656,-0.09829972480122112,-0.04884454989864282,0.04947834484181979,0.07500115625637627,-0.07560060074874272,8.847797971677881e-05,0.005609424430193457,-0.02416874744329029,-0.06292149067330569,-0.05428735103742095,-0.11634160358037549,-0.12186506001085698
0.658,-0.09806035171189283,-0.043194279084794805,0.05476177780108091,0.07136728763550085,-0.07738720354419684,0.005676165999851713,0.0013706140194557727,-0.024021846471222782,-0.06291507319200748,-0.049837267452624845,-0.11294357922511315,-0.11616529749625645
0.66,-0.0976479287194176,-0.03725873656134213,0.06020598547587618,0.06762585656877984,-0.07911967076958908,0.011605808582345837,-0.0030709518422104886,-0.022025828265704647,-0.06280482481044039,-0.046474437436465045,-0.11077385300947747,-0.11088357776862702
0.662,-0.0963716519519221,-0.03413383392792917,0.061930143726384994,0.06564182876763966,-0.0795592561185689,0.014157747241222944,-0.006304750427952901,-0.018593117742105605,-0.06155843906392752,-0.04448076638520567,-0.11007769974048931,-0.10873064096155952
0.664,-0.09321981393164369,-0.03371371568965888,0.05912108567239003,0.0649065618973025,-0.07777728195752676,0.01292446985250234,-0.006059215339923882,-0.01434273069258089,-0.057929065334283644,-0.04223167633081447,-0.10876075951036238,-0.10802015065226353
0.666,-0.08903206827560306,-0.03410144550722524,0.05468226215687869,0.06395629436703722,-0.07443209687951156,0.010370455221046272,-0.0029709518534560284,-0.010474102609771548,-0.052451451630145585,-0.03946997321905833,-0.10490703595203607,-0.105235595467893
0.668,-0.08642826354294728,-0.03406207032081325,0.05237480110567381,0.06270820150448107,-0.07188146540223823,0.009115585582849096,-0.0010802218470041675,-0.008598481476126008,-0.04781565764810818,-0.0378343173071814,-0.09925477735978748,-0.1000008588152953
0.67,-0.08664100332853014,-0.033215397699109,0.05355933958428988,0.061749686305295516,-0.07168874414385004,0.010111769205527057,-0.002588309978236658,-0.009015395496600971,-0.04547441403968278,-0.038117245040732155,-0.09434979577715319,-0.09581454174183689
0.672,-0.08810436676757746,-0.0314838207952186,0.0566873128632667,0.06083535253455292,-0.07289338995554162,0.012591448405186159,-0.0045667049247829165,-0.010191918929226263,-0.04354183867817245,-0.039039764830211376,-0.09202541395817757,-0.0960954970140637
0.674,-0.08876310728805109,-0.029442158496414662,0.059283097009614066,0.059605445789295906,-0.07363437847952306,0.014946783110146954,-0.002463496414804299,-0.010602684463175662,-0.039952153006181275,-0.03866475173894004,-0.0921053800834656,-0.10006655267535736
0.676,-0.08809216285505624,-0.028140190269693457,0.05989757006942768,0.058493231257802626,-0.07325305188690882,0.015896821456380508,0.004616884375542578,-0.009858575616411012,-0.03543290473076481,-0.03590170724049177,-0.09280852460126757,-0.10351644926921838
0.678,-0.08620497242464459,-0.027524322261100485,0.05869687394600008,0.05758837043928112,-0.0720653368506306,0.015591739780327267,0.012809162956687391,-0.007357278691956308,-0.03152381320184674,-0.031020751945414378,-0.09191004679447982,-0.1037609206141945
0.68,-0.08300884270231226,-0.02593408391578336,0.05723288241190416,0.05575010813156044,-0.07053902307106932,0.015647758770617644,0.017305185893378254,-0.0017008168917415588,-0.028132264253096916,-0.025367016586611866,-0.08838007037261437,-0.10220768170918818
0.682,-0.07973601371090552,-0.022038621524451896,0.058040733082973486,0.0523227690866968,-0.06997563245841185,0.017778686225582204,0.01720199620155033,0.006693067822615851,-0.024837167439867885,-0.020243178735765,-0.08381950990400919,-0.10188226539515423
0.684,-0.07875724138133619,-0.01678061682743486,0.06241416365892102,0.04885063044772757,-0.07181514073184252,0.021842739587360344,0.016330298752744523,0.01406401607157922,-0.02208975478146542,-0.0157169147569795,-0.08102276616847398,-0.10381720547593562
0.686,-0.07972806288577042,-0.01318729248983104,0.0669375380825505,0.04748680349308086,-0.074153139195816,0.02482549271512374,0.019001073603519218,0.01660393046827741,-0.019580623448878235,-0.010844289582919595,-0.08013595408014937,-0.10591296681001384
0.688,-0.07906190176029651,-0.013892738443570739,0.06562224203361774,0.04828461363114138,-0.0724100855202066,0.023194257879646445,0.025215413090983296,0.014790187191781684,-0.01632072786105547,-0.0056662524590107306,-0.07841208396842679,-0.10504634308958767
0.69,-0.07532548403545815,-0.018006620390919256,0.058081991768701074,0.049417685409936164,-0.06610034869795738,0.017580833549860734,0.031095706758434455,0.013253942694310393,-0.013173328744171712,-0.002311387706853365,-0.07476983972733854,-0.10028498299969853
0.692,-0.07142328446892408,-0.02151273594688771,0.05100989825433446,0.04946793355948681,-0.060430217752334855,0.012827220567007667,0.03380841664162767,0.016176387465468057,-0.011689998121334467,-0.0023918603607055774,-0.07167975644952156,-0.09340836868273587
0.694,-0.06952435902958393,-0.021793272920626425,0.04890907113634914,0.04828625156229989,-0.05875902858488232,0.011838312988367846,0.03405571608903908,0.023710771081418593,-0.010417156906818688,-0.00400899818161758,-0.07136367207388361,-0.08688407634173904
0.696,-0.0679008906338275,-0.020125796526768144,0.04881620192920445,0.046309715896645995,-0.058441941500556684,0.012442386484475109,0.03381726877314519,0.0326422798695233,-0.0065443924585918516,-0.0037613073394214495,-0.07283594014877758,-0.08260246177495559
0.698,-0.06485676228425695,-0.019114830828328273,0.04666766118404915,0.044318427843907535,-0.056273517577631216,0.011672708117056941,0.03402527693732215,0.038675760979404575,-0.0009656274665309555,-0.0011911295826936077,-0.07378601668450706,-0.08139338228080416
0.7,-0.061999374372920885,-0.01950754237121559,0.04343367237871219,0.04328334488796477,-0.05337199570875447,0.009860689579766452,0.0350905543902582,0.03934718837066759,0.0024384872468180335,0.0011802478967655155,-0.07346874358326387,-0.08245209320300703
0.702,-0.0614689458067644,-0.020243084403769485,0.04223809911763257,0.04346124672491816,-0.05242671612227184,0.009004890783828674,0.038042530809442796,0.0373276646681809,0.002499139095154549,0.0019466065362754002,-0.07280004737782585,-0.08421480026366404
0.704,-0.06271192991951427,-0.020383320342902585,0.043366046642239364,0.0440816149464283,-0.053499593774384534,0.00955062368431146,0.04331436854682859,0.03895913636889009,0.0020800048244579094,0.0024365918225631063,-0.07264998543378162,-0.08595293460878675
0.706,-0.06358161304172036,-0.020050519105093742,0.04452037314670037,0.04420911712901263,-0.05448404580677035,0.010314046317078534,0.04876228383950456,0.04713715905980998,0.0035533006590784855,0.0039033261581068414,-0.07294172317542502,-0.08754115199910573
0.708,-0.06306513477817932,-0.019595775903662873,0.0443229960690665,0.04334348099276985,-0.05410079950551952,0.010704077154754325,0.0515345484683585,0.057865539871625765,0.006525140846458809,0.005590978782980718,-0.07316293279008514,-0.08862129490900596
0.71,-0.06232600880203601,-0.018351661887505737,0.04463362475829525,0.04147764731990498,-0.0536901746109034,0.012166270883500948,0.05254620468375002,0.06572263690001245,0.010630719133744011,0.006614503576556712,-0.0729998733109313,-0.08917490817403033
0.712,-0.06338954077071278,-0.015238809921180482,0.04872998196697504,0.039367515038168925,-0.0558838026854358,0.01652337117051374,0.05623473034790801,0.06981156515773956,0.01656694562867816,0.007597315716176326,-0.0721971557218473,-0.08965724615197496
0.714,-0.06641081473500143,-0.011052137841754895,0.056111281547822967,0.03821526849543483,-0.060722762131242704,0.022536095413698356,0.0648936830678521,0.07229526735139669,0.023017573962221236,0.009160434214763192,-0.07051937702479116,-0.08985371547785065
0.716,-0.06892350189997437,-0.008427502826412126,0.06152454985117969,0.03840197018723166,-0.06458780852964437,0.02619560976110942,0.07612064036023805,0.07453859611085051,0.026729868836775635,0.010516354045180237,-0.06846666066414427,-0.0889213986097616
0.718,-0.06859326569385639,-0.008629683015330483,0.06110630860600853,0.03909044628901611,-0.0644409336844253,0.025339540719461193,0.08652249021075502,0.07702231901394269,0.027380463852534828,0.010834476243426422,-0.06723996328071453,-0.08641263716635418
0.72,-0.06576465343261911,-0.010099370583574688,0.056725461671156045,0.039355376409720394,-0.061275743031015996,0.02190980673883494,0.09481853353310153,0.08007244390661981,0.02847884978832054,0.010991853470440115,-0.06735978148474696,-0.08257349148404107
0.722,-0.06284908550802693,-0.0106571996415464,0.053145981116308194,0.0390127027220245,-0.058490285084423436,0.019368815306877528,0.10077721401771507,0.0830508893108464,0.03190555333456423,0.012843765866413028,-0.0680568462875848,-0.07877296183426202
0.724,-0.06191927386931948,-0.009769215642220025,0.053095404755973484,0.038320225794349995,-0.05839622608823747,0.019447568814839025,0.1045092243850493,0.08474074838716565,0.035110936775858206,0.016479591592245896,-0.06847204263018647,-0.07757443561557055
0.726,-0.06325338239213332,-0.008866806835899714,0.05538513452440724,0.03799955010062252,-0.0606429590920625,0.02116202606321784,0.10795962873460743,0.08454255356408096,0.03499695416206095,0.018847781771711324,-0.06891033663557429,-0.08085430988489915
0.728,-0.0657546616621055,-0.00999380638142554,0.05678984192696189,0.03930083925644942,-0.06309992642082196,0.022164521362530533,0.11380748076136585,0.08255396990229176,0.03198495733792199,0.01680628644157683,-0.07027702032029645,-0.08747433700094963
0.73,-0.06795000239178142,-0.013240014224649042,0.055724617835417274,0.04231432763117797,-0.06400930204979609,0.02131815227299349,0.12147020658842633,0.08004674691848744,0.02944953929401786,0.01160485721886987,-0.07237807196240177,-0.09335204866161097
0.732,-0.06881171186783533,-0.01586528697960533,0.05391567331175966,0.04484314256565423,-0.06355719535428678,0.019979363496486064,0.1271630450648603,0.07939171846798422,0.029851889362049425,0.007902538049134959,-0.07390657014350226,-0.09493180855384718
0.734,-0.06844015104305674,-0.014938869394243222,0.054335840309038284,0.04460167921475169,-0.06347306942261752,0.020581603568273953,0.1287636068510511,0.081338308164659,0.03149282199744079,0.007979813532666118,-0.0746183982952361,-0.09316336434041927
0.736,-0.06782002681431688,-0.010394212378447782,0.05794412814963814,0.041820106275096476,-0.06503096627589373,0.02403421966270607,0.12835273132969927,0.08369286584289208,0.030426340342509805,0.009247275752473628,-0.07625118926659401,-0.09255133225725448
0.738,-0.06768790481224705,-0.0052906005839471314,0.06250019050144054,0.03887421052216064,-0.0674968183900388,0.028412371644920175,0.12944816563850786,0.08412042543639402,0.02609659566584973,0.007900213185218434,-0.08039133472675954,-0.09534747771706417
0.74,-0.06805670868944418,-0.0029775140254990943,0.0649238713911267,0.037791426250358084,-0.06909551460035213,0.030723201563678523,0.1328643822839941,0.08227749258659714,0.02224494248063954,0.0033080764721922992,-0.08630034621799917,-0.09898100034152975
0.742,-0.06901837694283894,-0.0038258200722519854,0.06505771549986392,0.03857403657267899,-0.06964343173586277,0.030295529002580222,0.13673405924515847,0.07842749603253166,0.02141821904309884,-0.002207887354523996,-0.09151184338673002,-0.10047428421021146
0.744,-0.07137564729929499,-0.005437228152549538,0.06594835111156687,0.04011644599273091,-0.07116015752341125,0.029486727785362148,0.14044945258963878,0.07242691829391569,0.02194118423627838,-0.006683479184294893,-0.09407362856634022,-0.10032540334099488
0.746,-0.07576414818980917,-0.005821339052433249,0.0700183011663149,0.04195856152136771,-0.07533428824157713,0.030757963998655557,0.14526505374011653,0.06534020884763508,0.021365181527937975,-0.009635516672396956,-0.0940219375827472,-0.10024937757676003
0.748,-0.08163202305211069,-0.005377336336651942,0.07628572702403238,0.04452598977634203,-0.08143249172641269,0.033961167639629974,0.1504812563121135,0.06009315461623167,0.019580441898731163,-0.011028182645836163,-0.09318662733622742,-0.10039233538934515
0.75,-0.08789717947217941,-0.0061649877887793225,0.08170633589970075,0.048500977317655375,-0.08731996764737619,0.03673743766219549,0.1532913966705571,0.05859696960909561,0.01690017235590956,-0.011570878794410325,-0.09387818591860693,-0.10117058603049413
0.752,-0.09374941656880571,-0.009546262821457286,0.08417399278501711,0.0538670539865122,-0.09148473475579118,0.0370394697673744,0.15321755845513754,0.05891158798759379,0.012416370466165935,-0.013099979926307454,-0.09710157896511817,-0.10443494788008076
0.754,-0.09807240625135241,-0.01410873419141766,0.08396383117716724,0.05883033744506714,-0.0935191922371072,0.03517206369303441,0.15313667136085496,0.056980193972249266,0.006588280029967421,-0.016620174827358315,-0.10140033286728259,-0.10993930263027796
0.756,-0.09965715774884651,-0.016876076881741697,0.08279704622689536,0.06097282087889614,-0.09366020998240018,0.03322030537280622,0.15555384995121002,0.05127357154635592,0.002174671813067696,-0.020881670092907458,-0.10461153634205214,-0.11433268762687007
0.758,-0.09885879320748585,-0.017229113386836543,0.08161527363777236,0.060217790584804864,-0.09240240869723118,0.032192024643258196,0.16036492223849994,0.04493014442654861,0.000620939224429302,-0.02439258792518717,-0.1071397904231453,-0.11643011928277397
0.76,-0.09761906122034092,-0.017923202828081113,0.07953748993118642,0.05919203227986225,-0.09020842431274566,0.03062253310775356,0.16539278884978528,0.042561577959938104,0.0005077420929992768,-0.02753086634212011,-0.11110497411761072,-0.1192817500852559
0.762,-0.09737264452306044,-0.021496140982742367,0.07538927679759139,0.06024036115772631,-0.08750130844350568,0.02679192674594374,0.16715215655063287,0.04430906768068036,0.0002529601042581019,-0.031218800185523653,-0.11609139398651586,-0.12446219064916086
0.764,-0.0979012277077561,-0.02729241446334907,0.06970519441791567,0.06322434185687616,-0.08484633681417209,0.021273083397883384,0.16327483664326195,0.045292652253959245,-0.00017285007742937796,-0.03521991261142801,-0.11901808388654278,-0.12892868968630644
0.766,-0.0983774058320813,-0.032526669282009674,0.06471726950987203,0.06639114793159641,-0.08306341832441641,0.016418847351225355,0.15535852030773786,0.04285970783660786,-0.0002650206305813539,-0.03929317519417178,-0.1185522935852058,-0.13008033281637962
0.768,-0.09880424446177238,-0.035079892514589414,0.06274627605163458,0.0683008254691606,-0.08307601858295738,0.014047805174969749,0.14690199493726847,0.04037160690642719,-4.4517392864416747e-05,-0.0440360618841125,-0.11675741163523919,-0.12967048319475358
0.77,-0.09976857040325249,-0.035006525502601145,0.06423243375357711,0.06867176809139512,-0.08495276846767831,0.014078508609745419,0.13904728854293946,0.041326002689060184,1.5345131405128704e-05,-0.04931448418471156,-0.11606357687272048,-0.13042400506723537
0.772,-0.10064490447184511,-0.03397567498941474,0.06651559241169969,0.06808114243300784,-0.08669460401145014,0.014893286916975253,0.13101184577678884,0.0442082786886278,-0.0008994402100345252,-0.05369983612858093,-0.1165690318285419,-0.13190147692348134
0.774,-0.09915142874394539,-0.03350128144839511,0.06551112703655715,0.0670088435424923,-0.0851108953157757,0.014679103776448214,0.12304721466493404,0.04554875833527294,-0.0039624176570998764,-0.05562153573956734,-0.11647585068663845,-0.1314001068355963
0.776,-0.09417315172321591,-0.03367482866681856,0.06018290715082646,0.06530941965253613,-0.0793765087951172,0.012908070360892853,0.11605811284638534,0.044680584633065595,-0.009382948524840345,-0.054253867110078055,-0.11406284225458312,-0.12762295730718337
0.778,-0.08832578252564724,-0.033397964600829194,0.05463121570423939,0.0628955006847802,-0.07299059887818005,0.011107793596047412,0.10933577928226439,0.04349919314379447,-0.01484111266848002,-0.05066001071380818,-0.10919797596686576,-0.12267798361080556
0.78,-0.08534460899207617,-0.03167995734409217,0.05361503215846243,0.06029175939601865,-0.07018208532702791,0.011434166569141924,0.10121262242952415,0.04360825296092701,-0.017228114444972045,-0.04777793580966207,-0.10347315760136976,-0.11981811175872294
0.782,-0.0851474620346608,-0.02871948928324511,0.05655978781939031,0.057997212090961925,-0.07095566401057647,0.01384496766291298,0.09170670356376306,0.04551121778021872,-0.016248123255675432,-0.04752599632044379,-0.09902101181470628,-0.11911253918450093
0.784,-0.084488363634098,-0.025698470289612387,0.05888699873838857,0.055980418193942345,-0.07205684926710659,0.015949956929235485,0.08263671929391547,0.04912918096694184,-0.014608361591375291,-0.04908902730499586,-0.09706115403458397,-0.11773155138915162
0.786,-0.08237609492806594,-0.02376712338466262,0.0585865318587817,0.05428625060471526,-0.07194873111679814,0.016092271011904705,0.07524372191859864,0.053198497766172415,-0.014959813322094923,-0.051439503492827145,-0.09721908252813222,-0.11558259386162566
0.788,-0.08090665735360328,-0.02299455622594385,0.05784852744332744,0.053188850459180564,-0.07174775803673004,0.015254881366387044,0.06914184632672858,0.05527212492354546,-0.01785626562358132,-0.05548744181631176,-0.09783762654820959,-0.1168839237529547
0.79,-0.08048161830573465,-0.02161125134814053,0.05885188442061731,0.051997281103942763,-0.07185314931484502,0.015827429276732065,0.06296343456333098,0.053662347150008574,-0.021757052461633893,-0.06131867842619553,-0.09686954614457433,-0.12339162346821353
0.792,-0.07866452191296432,-0.01748535751451414,0.06120488465109551,0.04924173520706285,-0.07100995764428573,0.019029771768384465,0.05461005631191838,0.04905428460921955,-0.023964502617734976,-0.0652798679875861,-0.09345777467073181,-0.13004579191761226
0.794,-0.07475371019312244,-0.011577776085855414,0.06319830224708323,0.04523469948739513,-0.06892629812461909,0.0232864695233879,0.04244316226007015,0.04438681086929463,-0.022524720630973882,-0.06339837159794605,-0.0895927107480821,-0.13110060005840812
0.796,-0.07154822590861198,-0.007659093272968665,0.06388579837336798,0.042405811752373075,-0.06731740680186682,0.025774981241792526,0.028241261128040446,0.042810575436373254,-0.018039212052516802,-0.05642282414952575,-0.08866591197132123,-0.12712761364446212
0.798,-0.07130757734788314,-0.007246370733104928,0.0640474137990977,0.04180827521783483,-0.06786033642492578,0.025991706936401557,0.017366041921994455,0.04444423349095105,-0.012950462211865485,-0.04847030448617765,-0.09119071071936606,-0.12284114478903119
0.8,-0.0728783591993956,-0.007719566904274489,0.06515402369197197,0.04162218806261133,-0.07034898143876504,0.026173865099617624,0.013567622662496389,0.04562155429290773,-0.009374854351708399,-0.04250853505914212,-0.09400458037503401,-0.12113081664801362
0.802,-0.07372656162546007,-0.006586996147642948,0.06714481393507196,0.040245202236641645,-0.07286018204291904,0.02776360457450818,0.014322334138702904,0.04254750706983541,-0.008601114372292799,-0.03963387172601579,-0.09446123372972119,-0.12149417490357287
0.804,-0.07292282603468665,-0.004671350957832063,0.06825658406366673,0.0386693263554892,-0.07349550793637229,0.029665855259898812,0.013613623451082541,0.035045090969552495,-0.011043848787253882,-0.04017928871586279,-0.09320586559305241,-0.12198613648793537
0.806,-0.07179269387867324,-0.003961636708175613,0.06783063330331647,0.03874931236363718,-0.07255900795762245,0.030614829986689032,0.009129006824138522,0.026426255206643184,-0.015312511529457196,-0.042895870378840975,-0.09251771636682111,-0.12079099548874936
0.808,-0.07205103980243478,-0.0046330599842855594,0.06741498930429637,0.04039322908501175,-0.0721560183894017,0.030842261658902866,0.00412685197894147,0.020539327415636254,-0.018936068633716573,-0.045052438251216256,-0.09374409989466392,-0.11722256616331807
0.81,-0.0730190475713702,-0.005486591818616988,0.06755319826811161,0.041477252456810804,-0.07255559287810369,0.030592776542376483,0.0019582691357991735,0.018504348361758793,-0.02054560014935193,-0.04510464945565852,-0.09610583413491146,-0.11280684386225459
0.812,-0.07217684701787346,-0.005928818475558201,0.06638040449718652,0.040476826060721595,-0.07129212004089458,0.02942097071881033,0.0018407984000212469,0.018187808100129366,-0.020717627691807513,-0.04412218008406423,-0.09742457649804781,-0.11032170649678108
0.814,-0.06919462707926788,-0.005850070610160888,0.06367313521987718,0.038056618873010185,-0.06763906042715072,0.028074333432832176,0.001297872741883618,0.017008807182753313,-0.021369648492413466,-0.044298832791327514,-0.09761836071700011,-0.11071360153806878
0.816,-0.06675070649797041,-0.004382272835488923,0.06279101424001168,0.03567648945267386,-0.06491017806355444,0.028874617478997527,-0.00011317543113926444,0.014302946047371522,-0.024086262667591833,-0.046886179880603375,-0.10012364693166013,-0.11230676863065878
0.818,-0.06681679547471038,-0.0009022790061934122,0.06616941250074701,0.0341027147559103,-0.06633874376399392,0.032746101976095454,-0.0014936370662667392,0.011615894090914904,-0.028140661369236035,-0.0510963902640537,-0.1067450001852265,-0.11364362475538582
0.82,-0.06854334453003096,0.0033611655344775505,0.07187854213549937,0.03340009188217204,-0.07100230319395207,0.03747285145581443,-0.0027978037217521027,0.011160127119875594,-0.031057285330679456,-0.05443895811381703,-0.11385583701549692,-0.11543276176964745
0.822,-0.06955800032525129,0.006700979599574325,0.07611339445832087,0.032810705142619384,-0.07486013088914793,0.04023176348506912,-0.004321588585061168,0.012738996201207973,-0.031159229854908887,-0.054820695286310096,-0.11677950493231708,-0.1186316838730268
0.824,-0.06804300584720892,0.009325729627189592,0.07730578131481962,0.03089803089463233,-0.07493388414055399,0.04094536936891547,-0.0054840490837278575,0.013439407677126067,-0.028594143346227643,-0.052843893361809745,-0.11512697183975223,-0.12203059889944795
0.826,-0.06454883984773743,0.012876288392685934,0.07749320748806279,0.027182353281075634,-0.07253277296914538,0.04223146196586422,-0.0055118231641919785,0.01169681420756762,-0.02502870159315537,-0.05137688851396001,-0.1121424684222321,-0.12359283364831669
0.828,-0.06179487681875432,0.017767734167643177,0.07975020697657902,0.023220019997002232,-0.07163173201498717,0.04602057797660304,-0.004098538511215409,0.009599008910594415,-0.022699378798278547,-0.05200894889270192,-0.11056658154365846,-0.12342269725485094
0.83,-0.061498289991350756,0.021795099917190194,0.08360095922587465,0.02115599238442454,-0.07339259492107299,0.05049844992045239,-0.0007794075913813536,0.01030625670103323,-0.022248733595688276,-0.05263365030259784,-0.10993991589885312,-0.12315020933273114
0.832,-0.06227905538850189,0.021568965730771397,0.08408780646980744,0.02175137473886992,-0.0741253817320345,0.05112072973162672,0.00461666047373447,0.014506694920899276,-0.022104287438861087,-0.050426046683595675,-0.10827520148013632,-0.12265099299030809
0.834,-0.06176695837085224,0.015767569877830866,0.07731607433110116,0.024195986953912323,-0.07022201321641153,0.04541118257020719,0.0106378761893752,0.01954180363642452,-0.020990743872498975,-0.04712796245333901,-0.10585251453605089,-0.11991969093254862
0.836,-0.059776639825403016,0.006913904024818354,0.06592367243882474,0.02718379142953408,-0.06323449591374015,0.03602706067456055,0.015292874431216574,0.022193689195899324,-0.01972784349440458,-0.04826698569508233,-0.10498601023190678,-0.11446461835023655
0.838,-0.058266804401696994,-0.0012255026588559221,0.056251835544006125,0.0300048400787228,-0.05770497901831898,0.0276285881682625,0.01816092055864601,0.022630518667579022,-0.019886984841342117,-0.05563501576611104,-0.10622938724756394,-0.10873282260974473
0.84,-0.0587804442372089,-0.007401556374517519,0.0512402318495518,0.032923839963382384,-0.055846206043221616,0.021879498496638537,0.019862957024630597,0.023939343178461987,-0.021644248342752935,-0.06383543718787098,-0.10765003734565233,-0.10563955790570619
0.842,-0.06093123178530935,-0.012287867435073516,0.04933535772379902,0.03624569952252048,-0.05670332808719066,0.017679973867268352,0.02059508664571763,0.02718058571657328,-0.023293766106548798,-0.06672867880232317,-0.10775476290019295,-0.1057057989794433
0.844,-0.0629722241988675,-0.015617437188693817,0.04849791849866979,0.039106946799416474,-0.058305499321977095,0.014680921862873808,0.02062454104188315,0.029469149491920577,-0.023155763625180775,-0.06469326119048638,-0.10724327153699188,-0.1072542657368989
0.846,-0.06323259176632766,-0.01648857679375025,0.047770516281641015,0.040197233186451894,-0.058757582460486596,0.013676347164005462,0.02131906375039349,0.028155105651365125,-0.02225787593285955,-0.06332916994867437,-0.10813517934683446,-0.10919310336812924
0.848,-0.0614685597075999,-0.0155071142408852,0.046484556760422846,0.03958550414261413,-0.05713097635314112,0.014419421749923472,0.024075238666084485,0.024558590856774035,-0.023377383834067764,-0.06645047100195957,-0.1116026174904601,-0.11209436947776676
0.85,-0.05915451717779659,-0.01428508355293008,0.0448800184488656,0.03858034847960282,-0.05460348858168156,0.01557072981121296,0.028148035331753515,0.021845886458260633,-0.02647629548175411,-0.07203269387772755,-0.11615129182554727,-0.11581494218849692
0.852,-0.058051477280781826,-0.01296128125394464,0.04489044846056501,0.037777772505643764,-0.053703376342006386,0.016866743661534924,0.03139574262332394,0.02096258372725076,-0.028236212875240623,-0.07532213036173153,-0.11875606752222505,-0.11833019658739774
0.854,-0.058333196344773214,-0.010104787965448453,0.048122157364126235,0.03643384691904179,-0.05549479097888292,0.019362088356348405,0.03346042061753248,0.02063873813831609,-0.02768067492247416,-0.07468109414474763,-0.1183470498853126,-0.11832749491544156
0.856,-0.058441469121905475,-0.005483720098146462,0.053005081716732044,0.03393769376454404,-0.057894381603664544,0.022884155460687176,0.0358009719292273,0.02007798677860064,-0.028127589202828443,-0.07264043760730647,-0.11678937784878791,-0.1170121439813484
0.858,-0.0570977201278709,-0.0012413266193865612,0.055934045724253735,0.031045944901490426,-0.0579902781314856,0.025292839495505693,0.03868473008434096,0.01967285808526697,-0.03165099575448755,-0.0719395107471706,-0.11619266542741152,-0.11641929496132324
0.86,-0.05532515635238779,0.00017670394624128471,0.05551355122761174,0.029527981601653545,-0.05607285159804459,0.025266661242987914,0.04104575095376712,0.01995973535866519,-0.03584787315471573,-0.07246630611683397,-0.11683499612659289,-0.11742584757369948
0.862,-0.05532409682076896,-0.0017329636450682034,0.053554879692737895,0.030572863227907685,-0.055137087000392805,0.02379569452001781,0.04313999661912753,0.021433620877521434,-0.037574028838564075,-0.07189087662993844,-0.11807048937388281,-0.11961239239096386
0.864,-0.05696002619111258,-0.005483471950993718,0.05145299056425253,0.03321306045213015,-0.0557631211331839,0.021842017235559837,0.0466336115540273,0.0243735335047245,-0.036493080562325975,-0.06856572925450878,-0.11969730583867133,-0.12180073855568307
0.866,-0.057599942290223666,-0.009582318479627256,0.04800418961643849,0.03527171024512797,-0.054921347817058826,0.018478553314577945,0.05194541098210491,0.02741059308225041,-0.034433338396603716,-0.06391426078120403,-0.12149100258670789,-0.12270637457424054
0.868,-0.056380026942118286,-0.01421688868583993,0.04202677920878986,0.03647554293038602,-0.05114099217172295,0.012799021899631023,0.05729606227338981,0.028182742478301184,-0.033257767290146636,-0.0611834865589302,-0.12262180954814048,-0.12175502485128799
0.87,-0.05560582863722093,-0.020181092154471954,0.034947485198251416,0.03873766386313297,-0.046805001689360935,0.006047317139710686,0.06084253192586702,0.02715862190886522,-0.03343338186632848,-0.06169812517727962,-0.12259735384818424,-0.11945245638363519
0.872,-0.05653516532372389,-0.026462339679205943,0.029161961635938004,0.04250184654850413,-0.043943912894294876,0.0003384138882604452,0.06300766532446421,0.02779652337458498,-0.03409505852022422,-0.06408879231299991,-0.12199810075621481,-0.11714442944102456
0.874,-0.05713229468532465,-0.030524032979554614,0.02546589140697022,0.04537080595958405,-0.041793510158320224,-0.0035158521112731394,0.06583618285963933,0.03084230578516291,-0.03433860705810526,-0.0670132377875333,-0.12168728186132907,-0.11612055076931983
0.876,-0.05578174416312145,-0.031429152627313155,0.02335227751067324,0.04551466371331607,-0.03966067919811547,-0.005853301337021467,0.07031176003834508,0.03202892221525061,-0.03432893532989319,-0.07042998189019574,-0.12206905245025827,-0.11658571167035
0.878,-0.05430087626610321,-0.03073000202471838,0.022914663402388475,0.04407888618554055,-0.03898734014049806,-0.006470563458692822,0.07584835229647371,0.027639143079862115,-0.035402087049902435,-0.07452675201803467,-0.1235191244366868,-0.11794316599178295
0.88,-0.05526293142347596,-0.02946160425315498,0.025322686537220227,0.043129864176966425,-0.04137510056124998,-0.004087517735535021,0.08145727341865808,0.019632471110630458,-0.0386853914939648,-0.07895807934021801,-0.12616785438188752,-0.11975973628802589
0.882,-0.05817228624823488,-0.02666765958922442,0.03094158127266597,0.04282356306679893,-0.046070000020492885,0.0017233827426755765,0.08478637468070097,0.013402887209711719,-0.04304603049106015,-0.08266031752671554,-0.12863784594659872,-0.12159221366049042
0.884,-0.060432712450739716,-0.021753407756719325,0.038128291320317434,0.041810580981702865,-0.05071482635000326,0.009033418255679082,0.08296143627582754,0.011403522759365976,-0.04588004912041826,-0.08454509348261578,-0.12911613001729758,-0.12296753876202884
0.886,-0.061444778561875704,-0.016048768832843882,0.04527815763780251,0.03980834027386467,-0.054435173535778925,0.015489365606836086,0.07831654155052338,0.010516675917073415,-0.04689137267376998,-0.08540831007226522,-0.12826785064872495,-0.12484947744510781
0.888,-0.06321566695781808,-0.011524798628415565,0.052268724019795355,0.03824446696920418,-0.05829969791579983,0.0204346542493401,0.07863351561457647,0.0067327474473922,-0.048653774418600255,-0.08760125809094736,-0.12873941134000663,-0.12906702712123155
0.89,-0.06651028549914638,-0.00928709095301002,0.05832208214274052,0.0381757138173437,-0.06230706071376248,0.023858166047851313,0.08761310019567599,0.0009554034949885992,-0.05224657648867133,-0.09159159524250114,-0.131725366384165,-0.13448053473493116
0.892,-0.06952086533799451,-0.009359886863151503,0.06134856236728602,0.039295619007863804,-0.06478245403810882,0.02517183227026078,0.09975381639706339,-0.002668807509032327,-0.05548958611134098,-0.09519893640303756,-0.13624660743240097,-0.13685068606743198
0.894,-0.07171888124004096,-0.011516778324554172,0.06110269136567417,0.04171847094267993,-0.06574522491316985,0.024056515622032173,0.1072098995911974,-0.0032061308209093992,-0.05699325045325254,-0.09684656324012013,-0.14136644884567406,-0.13458199393813056
0.896,-0.07522147376559632,-0.015777974748300123,0.05988437604215262,0.046430822955273066,-0.06752805089112128,0.021097853263148687,0.10830906776957341,-0.0036730728455593924,-0.05849479034106813,-0.09681313454251358,-0.14671985586337494,-0.1311338359060738
0.898,-0.07998174598826398,-0.021283318387304278,0.05873061806957999,0.05242818356844596,-0.07034957424186464,0.017257471031593988,0.1075602447791831,-0.0055074979685897155,-0.06135793803253967,-0.0957117027058788,-0.15106169558867363,-0.13019738661716138
0.9,-0.08203222039076945,-0.025881197955983603,0.0560036415426042,0.056314400517504144,-0.0707455977743459,0.01329329915577323,0.10839344860892886,-0.007059156830453396,-0.0640746898813635,-0.09469816355439495,-0.1527325071740909,-0.13155364179493514
0.902,-0.07979174933326581,-0.028212791957954914,0.05148598982127254,0.05674457601090429,-0.06713286619283079,0.009841214443040175,0.10857925620568148,-0.008279465567279766,-0.0651587510438103,-0.09615245936228266,-0.15189806660267224,-0.13274862905510426
0.904,-0.07761035217936646,-0.028894896783665577,0.04874095010624798,0.05630139631963155,-0.06354176526400424,0.007926192267092489,0.1047712526942101,-0.011902675358765642,-0.06574409152352734,-0.10113102565940468,-0.15080820907551268,-0.1326012456875839
0.906,-0.07948111678310003,-0.029057282964168134,0.0504839366245104,0.05743062850498685,-0.06425863974614865,0.008263085878272097,0.09882042052103356,-0.018524583429456353,-0.067658870599397,-0.10687379943567385,-0.15186711697602157,-0.13199124470593923
0.908,-0.08339612154404336,-0.029004737027618018,0.0544066047003845,0.05921541780606276,-0.06795366418054678,0.009962451944139148,0.09567072521994675,-0.025021749144899737,-0.07087976564086455,-0.10955274469384683,-0.15592597990236037,-0.13238259197680624
0.91,-0.08508058570841917,-0.028214708519732346,0.05684086759550595,0.059260248440904856,-0.07066090472042376,0.011675898443292828,0.09569520794592859,-0.029218352340263754,-0.07418979815259295,-0.1093155446001146,-0.16187551156048693,-0.13428472069606157
0.912,-0.08386774507978682,-0.02574545117313828,0.05810216903927089,0.056850023295345546,-0.07157217689635728,0.013856361832057944,0.09254693764314181,-0.032705842868126736,-0.07730517951243365,-0.11045829872567214,-0.16759682744856555,-0.13677866756613813
0.914,-0.08231234449053737,-0.0207601851760334,0.06155617166953695,0.053235383193890894,-0.07289625962925762,0.01833437088197957,0.07982750091182572,-0.03845559273538899,-0.08115137195714393,-0.11621712751030686,-0.17129177566007522,-0.1386979601970438
0.916,-0.08197816505471692,-0.013128482381556597,0.06886255715073382,0.0494392606401198,-0.0760410154865493,0.025817129694161566,0.058037941921755626,-0.04729300057316866,-0.08603082823748102,-0.12484173880500125,-0.1723171515783548,-0.14005156379943606
0.918,-0.08167428688679183,-0.004111982768118394,0.07756625845775879,0.04501193017902849,-0.07991747926118802,0.034436693213444856,0.033461587525408704,-0.056401529474474486,-0.09026869858039233,-0.13163024859329198,-0.17154336589214858,-0.14136969552239725
0.92,-0.08015618523053757,0.0034762524047269533,0.08362730180535438,0.03992737296627841,-0.08276077058941683,0.040989139559082996,0.011333736351641754,-0.06150327908825835,-0.09163737718825839,-0.1338801910640514,-0.17075064842832527,-0.14238448776533894
0.922,-0.07876702773756328,0.0068982697149942655,0.08566068749260639,0.03638182639922694,-0.08429139204015837,0.04364107653292021,-0.007814599590429405,-0.06135191938515918,-0.09046136421618042,-0.13284919210647025,-0.17132146328426245,-0.1424384347684419
0.924,-0.07877888215441356,0.005571637961729656,0.08435112113245681,0.03651065238162157,-0.08419364251441586,0.04242185227201669,-0.025490868177100057,-0.05872624935736732,-0.08976614236409698,-0.13126142474152505,-0.17316214996403131,-0.14111586367806664
0.926,-0.07827050316396174,0.0007533983535078059,0.0790486439118682,0.03945295021333178,-0.08045760472150344,0.03746540069955776,-0.0420385704932704,-0.056247626542716096,-0.09121662683120342,-0.12981580072132265,-0.17421123207294387,-0.13782699206525637
0.928,-0.07541209940222113,-0.00615894657921959,0.0693854793028523,0.04268849711826001,-0.072912316715713,0.02922589464795362,-0.056546424837193326,-0.05364540699212553,-0.09276409253196657,-0.12717169201553738,-0.17199714204106295,-0.13250630709423908
0.93,-0.07224534859778856,-0.013911818916532936,0.058659901964272544,0.04515301738722234,-0.06575895643247583,0.02008627633883361,-0.06755271193738956,-0.05036106200400619,-0.09176655600856207,-0.12330675061339247,-0.16669022137022174,-0.12721856389258743
0.932,-0.07160758508193897,-0.02077310430593568,0.05123409480679982,0.047487522047302874,-0.06280027922669135,0.013296433580997075,-0.07384946374128835,-0.047894645270547244,-0.08858472409636818,-0.12047317398717693,-0.1610820473354597,-0.12486023601966992
0.934,-0.07211587814265,-0.024875983328562917,0.04736418868819644,0.04951882480422652,-0.06226609086644233,0.01000854887676684,-0.0753624666322228,-0.047574359848306956,-0.0852043649900244,-0.11979841183827108,-0.15735963918219867,-0.12576161028959998
0.936,-0.06949611669337646,-0.025307862303647205,0.04383576867655879,0.04910462450954625,-0.059472737035677056,0.008647829187994893,-0.07332777047518224,-0.048104628801998464,-0.08212748709522917,-0.11958044834714097,-0.15582517905960186,-0.12745788239419165
0.938,-0.06276349163991074,-0.021827629117232634,0.040345773285421827,0.04453059825419619,-0.053845849402052615,0.008457837138351115,-0.0706737052369434,-0.047005522677823444,-0.07898306019456197,-0.11823090791608376,-0.15622684779396334,-0.12786818018071888
0.94,-0.05595068025452252,-0.013622145462218165,0.04185631234341355,0.03670189117926878,-0.05027395319697814,0.012377955316666198,-0.07081651891646425,-0.04343531836372769,-0.07638186401911716,-0.11657570441388428,-0.15833941092857834,-0.12739079377988122
0.942,-0.05331442264771963,-0.0011451786005791957,0.05176013471351034,0.028475618881455757,-0.05295815051113713,0.022990146179122067,-0.07397488786471568,-0.038787207962703456,-0.07515461612642337,-0.11588882686574775,-0.16121366393692557,-0.12834388487744716
