time,I,II,III,aVR,aVL,aVF,V1,V2,V3,V4,V5,V6
0.0,-0.00835899548230485,-0.0005265508965231401,0.007810504965093244,0.004497622241135155,-0.008139599275420207,0.0036419770342850525,0.004387924137692834,0.010816232999412836,0.010377440585643553,0.0037516751377273737,-0.0005265508965231401,-0.0014918942068155637
0.002,-0.056986166393503485,-0.0037878273706905222,0.053067023257366085,0.030781105157779588,-0.055365854049396215,0.02458474889161662,0.030124526330545204,0.07500641484751186,0.0723800995385743,0.026206671029143435,-0.0036781292672482015,-0.010640762464087879
0.004,-0.171836725037708,-0.011995308947002646,0.15951399703075883,0.09312851193856221,-0.1666144156185443,0.07337620557653973,0.09223736374223745,0.23272426447188843,0.22628558137640054,0.08208563217655429,-0.011645884809406759,-0.03432811429836164
0.006,-0.3032941149011618,-0.021717112516670876,0.28115439716811275,0.16459923298142248,-0.2938276170708944,0.12857180526223747,0.168113742821214,0.4304978582076261,0.42248293650041197,0.15336545103966379,-0.02288378124348704,-0.06721543464566283
0.008,-0.35469581335328615,-0.024066090217699558,0.3303741824642175,0.1916159085266673,-0.34458683831056824,0.15122413638072607,0.20906643777665326,0.5408764463678957,0.5358701743788933,0.19389486647610799,-0.032841375551245486,-0.09154910920985806
0.01,-0.311185657964707,-0.01479101979907338,0.29642031162577126,0.1644983550851753,-0.30608089139535266,0.1387909917803636,0.20186795753154682,0.5184803901916301,0.5166292353257825,0.1852164062238586,-0.03815060637638283,-0.09643277966107484
0.012,-0.2562998514163586,0.0015436160638167928,0.25796732446616566,0.12797134017876002,-0.2593358299464543,0.1283183753456695,0.1814552515706363,0.4519231277466961,0.4492730993011035,0.15998306300888207,-0.037088576991583716,-0.08849144072670577
0.014,-0.2503636256662133,0.01899837065788774,0.26927195664818243,0.11587982113964888,-0.2614256234186908,0.14323372443789262,0.1791820262490258,0.43609648252750755,0.43175897154308784,0.15599481603961093,-0.030136839970186267,-0.0808260955109553
0.016,-0.27834732182157296,0.032142270353944805,0.30996278780927516,0.12379069373026366,-0.294966761652559,0.17022668200315386,0.19295287052065166,0.47101141360605125,0.4667656572435472,0.17232549827020952,-0.02264983195786082,-0.07902337170058081
0.018,-0.30914117299862,0.03301937456768388,0.34122278920200977,0.13989496947783606,-0.32580461741058964,0.18622986887860374,0.20616913880797302,0.5022234932331402,0.49590475673815443,0.18309506536519213,-0.02084712474057415,-0.07929073648336966
0.02,-0.33191592512810875,0.01973140786112805,0.35063960690317825,0.15888002459004044,-0.34239138385356005,0.184362785216194,0.21092996675529896,0.5026401897129581,0.4896030821781012,0.17699480182248647,-0.023195911610495366,-0.07599505664672584
0.022,-0.3435802585405083,0.004060038446883348,0.3470174303648564,0.17260599903281487,-0.3466076353125,0.17460402504121383,0.21083596692859619,0.48890937276500845,0.469839822360389,0.16803976284337022,-0.02153586297582907,-0.06840694647386435
0.024,-0.34323754391541694,-0.0005512689485664465,0.3426175227535149,0.17392340286535585,-0.3435643344738604,0.16969629307677458,0.2113022564576971,0.48330279721734065,0.46509887453437565,0.1726132752109137,-0.011944065465906479,-0.060495669496130014
0.026,-0.3331509926014123,0.00466644444535799,0.33804330195030363,0.16507497642528257,-0.33540797847135584,0.16990806183033355,0.21095248366031372,0.4857337305114289,0.47496475722248477,0.18874514019597122,4.455287770317132e-05,-0.05723105737031514
0.028,-0.3179696577027745,0.006088615066003635,0.3242085891000962,0.15581475052170723,-0.3209457064669957,0.16403214705517277,0.20469094742430202,0.4830823503824638,0.48102848004861404,0.20037810648315357,0.004075300181598223,-0.061569758482253184
0.03,-0.3067249334252205,-0.002168463590483121,0.30449400914584335,0.15406565196128663,-0.30646753406284605,0.15007350924813992,0.19449883043918267,0.4725310277811828,0.474727771723445,0.19608167588086764,-0.007263726548795394,-0.07116178345968031
0.032,-0.30485910107973396,-0.007691886184024967,0.2969374787211878,0.1563043216865929,-0.3026867268903742,0.14302016148684982,0.19036604289436843,0.46656317875961756,0.4656335580568157,0.18008758006096454,-0.030624773260176867,-0.07868487364660064
0.034,-0.3043307724929988,0.0014940457177975868,0.30547207775186275,0.15208348854776735,-0.30650285250227244,0.15157119889201162,0.19875891292146902,0.475941095621703,0.4667438229268115,0.16586782971980144,-0.05073655005201175,-0.07848706464876433
0.036,-0.29272066434800004,0.019457879040697682,0.3117970137194186,0.13774913294433574,-0.3029340694015692,0.1639053223964149,0.2168029019625145,0.49680439995608994,0.47975226192778464,0.16325703672632222,-0.05181687010415756,-0.06965504394030361
0.038,-0.27206135370464224,0.0329359780156656,0.3047750952465831,0.12066074351426334,-0.2888858571682165,0.16725931543086425,0.23664680107474428,0.5171584318179805,0.49629090467161485,0.17291079455540417,-0.0319103572231424,-0.053490710096938565
0.04,-0.2614842086199517,0.033450456853026056,0.29495385429806564,0.11458888043225297,-0.279592666634718,0.16259281290995692,0.24748013588968404,0.526219652758237,0.5063336376454196,0.1873441770149809,-0.005575218816311735,-0.03526773542489273
0.042,-0.2727887455652314,0.02008501054220941,0.2929983060403927,0.12647861563874788,-0.2850354626471476,0.15539231730682768,0.24030184449561184,0.5184376787678516,0.5044840989463956,0.19628605831223142,0.008795491534502986,-0.024592409898037994
0.044,-0.2883205763651244,0.007073869074428751,0.29545105729513466,0.141178804119665,-0.29369275127841543,0.15086649551702846,0.2215014514475924,0.5007727143425124,0.49487599473406446,0.196085373387708,0.006187870917862607,-0.02536981133152077
0.046,-0.28167762975248717,0.015694220220421898,0.29733415921824935,0.13465698432924983,-0.2904655799516304,0.1560775146902398,0.21127278373506903,0.49108035622703183,0.48937621697814687,0.19329893637241735,-0.001768500719031331,-0.029894369668354327
0.048,-0.25684849181793207,0.045633653306061735,0.3024333604711002,0.10791176701610944,-0.28038455135158885,0.1726306776226517,0.22004899207728856,0.4996875640999139,0.4968251169084473,0.19674473622059035,-0.0015870101033226603,-0.028462495280863337
0.05,-0.24262233260390662,0.07329564402819176,0.3159148560449355,0.08671480913910215,-0.2805294878965649,0.19251890501703797,0.23867641556164496,0.5196477836062809,0.5145739790669657,0.2083070503850147,0.007871209481292102,-0.020504623992112423
0.052,-0.2501547565453902,0.08326163536455021,0.3334413736264411,0.08524395161674081,-0.29327820389315795,0.2064382686178475,0.2539784711108799,0.5369625782808568,0.5308610176795877,0.2216651996750267,0.017572873874247635,-0.014173319328509137
0.054,-0.26424317196118596,0.0782726519933389,0.3425513968995015,0.09517021497769898,-0.3041907605157847,0.20874436350842213,0.26005843047249605,0.5417508062688723,0.5346728282750901,0.22805831808065813,0.019943478825864516,-0.0174894183011066
0.056,-0.27776337755876923,0.06009412177646963,0.33798171283105494,0.11151458501738855,-0.30774891263057946,0.19706711123624343,0.25593691355430154,0.5330493637498197,0.5253098497143777,0.22494080470587657,0.015278808580586278,-0.029564995233901936
0.058,-0.29967734308579513,0.030711512983081803,0.330705449539476,0.1370348108952811,-0.3148575911803842,0.1782221093504526,0.24594598734449352,0.5216159852022539,0.5145816526359759,0.2197550717430556,0.01028308673780923,-0.03964013212820714
0.06,-0.32103929843234313,0.010793786100483961,0.33225439467525775,0.1569563307844042,-0.32703336070172506,0.168838024292554,0.24084158148753024,0.5232525151602175,0.5171377107982197,0.22263617242588324,0.01291886608689728,-0.03660951490181939
0.062,-0.3112376799059443,0.024417783243780033,0.33591629208573304,0.14453151250945945,-0.3252167052999159,0.17776448786965515,0.24763631409765552,0.5421731350074774,0.5350439604527577,0.23461829929698647,0.02458960312044212,-0.021543113522569417
0.064,-0.25988200759622065,0.06518345499025208,0.32506496115178474,0.09820412979149336,-0.2951312512790782,0.19333991334830763,0.25991797506922465,0.5647117693037396,0.5538505983039144,0.24400842099737396,0.034331299090211195,-0.009055506171058353
0.066,-0.19548350988993257,0.10223666921098751,0.2977262959346579,0.04751951335087514,-0.24924892013004457,0.19874834848766296,0.26600827991033427,0.5741385087056349,0.5582904393821373,0.23760796013089439,0.02761346413111339,-0.011155487422491915
0.068,-0.1598048857229524,0.11575908909411974,0.27595708899100607,0.02293492223593346,-0.21942813351172125,0.1947247796586227,0.26435742435802806,0.5697715192477646,0.5510829099276803,0.21853122644357548,0.007417763369226886,-0.020256409346640122
0.07,-0.17240708473131838,0.10854584147365959,0.2817486640149905,0.0327861951670421,-0.227523582624458,0.1936161094676254,0.262136169295666,0.565873332730829,0.5485817809803807,0.20555347838825486,-0.004540299951725051,-0.018400143449125324
0.072,-0.21193760353725796,0.08956297417641493,0.30223625546664107,0.061954464879598894,-0.2576415494853366,0.19376339641066856,0.2607765522312289,0.5707064019125088,0.5564731734495473,0.2090592798792056,0.0030009223165391543,-0.004121459501061181
0.074,-0.23992361980897053,0.06189625840295221,0.30205266568018213,0.089769185511927,-0.27276168492757624,0.17960277080815612,0.25559683252363774,0.576147280908835,0.5627624419072992,0.2192789784723492,0.016337274667982807,0.005875445127056347
0.076,-0.25034153178531643,0.026739206555286867,0.276879417378516,0.11301407050426322,-0.26649334222764764,0.15009699284165048,0.2478982206152559,0.5722451976691219,0.5590311436528983,0.22487784322839677,0.02117508822875126,0.003372004177666288
0.078,-0.2713948750585094,-0.00557052911979008,0.26559948389340593,0.14068939370349193,-0.2715479092411095,0.12953026437321816,0.2451695805157565,0.5635761086374219,0.5557226095232313,0.23201961850732386,0.025394554951985997,0.0004145171377780623
0.08,-0.31284111071363396,-0.012464959869464724,0.30034582626271145,0.16566145523217649,-0.30893437082839936,0.1440398592851485,0.25205230478332813,0.5658401322214467,0.5699509076054184,0.2559067068479102,0.04637462664581782,0.012677668653344666
0.082,-0.34245579962596695,0.021230823676246468,0.3636706544683026,0.16352136642960752,-0.35424319816240113,0.19173166086824928,0.2653521168425687,0.5861930283081147,0.601244238162977,0.29371734102505115,0.08129002832259208,0.0393258859514662
0.084,-0.32458919577811146,0.07819238831664388,0.4025141096560526,0.12519941211982932,-0.36376255921128553,0.2381971055243018,0.2745688052401797,0.6109731980498542,0.6261175686319771,0.31733439083691256,0.10319585322128566,0.06144528505137902
0.086,-0.26470746254510397,0.11794163820909867,0.382192719316695,0.07428613254792661,-0.3234795252429606,0.24739952694931033,0.2714897622521011,0.6212907210068292,0.6248549373371078,0.30631351739862916,0.09447609076914425,0.06296350474899821
0.088,-0.20889406872533606,0.11545158613969124,0.32401948139197073,0.046959489955334756,-0.2668395084086467,0.2179909967997672,0.26018088609397944,0.616352671806408,0.6065245817797069,0.2771166594060636,0.07049090194494129,0.04916297161568819
0.09,-0.20040311309483336,0.0823581952752504,0.282650823540489,0.059387787652930416,-0.24195083062430903,0.18198426044414967,0.2502473506946961,0.6093248408418787,0.5950190373021566,0.2617702910919633,0.05753510865810548,0.03631982397239562
0.092,-0.23713676192971428,0.052343647221600516,0.2893230209311485,0.09351750179950571,-0.2632102077628934,0.17045267014378293,0.24460358377644853,0.6072438111081546,0.5995105552699268,0.26970004097624584,0.062168105152614304,0.031473805901064696
0.094,-0.2779223790726292,0.05102627885075197,0.3286034798593977,0.11519823461338964,-0.3029667618738572,0.1885464403125292,0.2417216897560759,0.608493810330696,0.6118579965937373,0.2877153229408708,0.07467802955604622,0.032967354311464546
0.096,-0.28851304594007166,0.07624283984042667,0.36444777913102383,0.10760584664026877,-0.3265487036720794,0.2183869425168076,0.2416531380950419,0.612444423591735,0.6237225166124332,0.30393142888160934,0.08806300966776745,0.03980629297044418
0.098,-0.2691513891102743,0.1046286199576005,0.3737384357039357,0.08260971215374588,-0.3223096721727579,0.23741493588430723,0.24242060216897893,0.6186613904703017,0.6317908471803105,0.31373913012456633,0.0995321840011992,0.04887826513227959
0.1,-0.23946951053082405,0.11760396228013124,0.35721544860374904,0.06033359021056459,-0.2999420439802936,0.23626496280712767,0.23891588501367766,0.6217943415636741,0.6313408668110511,0.31165196088496294,0.10249698982237383,0.05223779578417343
0.102,-0.21511852152100575,0.11626745111924476,0.33146197109457237,0.04899192366456846,-0.2753338363033009,0.22311519091886292,0.23003103771880815,0.6168999361308484,0.6185135225132167,0.29463293363611165,0.09097351038838437,0.04606340224577686
0.104,-0.2042629729339324,0.11107785822774974,0.3151820534816971,0.04723326364588322,-0.26192763283378195,0.2123133092902374,0.22099024354260052,0.607580631737773,0.6001104526096624,0.27260786920953917,0.07132539850341595,0.036485747219803404
0.106,-0.2104761557358529,0.10993419608792052,0.3200165012878354,0.05181684898569571,-0.26727892821819954,0.21365655938752026,0.21883373457916594,0.6043865200574554,0.5928740320956167,0.26521749217999824,0.06187071044138554,0.034415385847433096
0.108,-0.23032105348457022,0.11858465333571308,0.34846597694217507,0.057438321621288604,-0.2909782644827398,0.23153351342606726,0.2285341016818696,0.6151663265467889,0.6081749311313852,0.28392408931283847,0.07660217504410374,0.04812880894784843
0.11,-0.25341114580182433,0.1370645657482936,0.39022615402790983,0.05904144155882783,-0.32296496740221287,0.2614604702416452,0.24762998864237531,0.6353332965623132,0.637136721571167,0.31750199657822314,0.1085282617012202,0.075709670634903
0.112,-0.2687039393042436,0.1530243630653964,0.42164533957676525,0.057840864589307324,-0.3459602736383476,0.2858608500313224,0.2633454369588643,0.6490605095905536,0.6555824721926036,0.3390331395070892,0.13305828179887558,0.10234150961146271
0.114,-0.273844598656771,0.15194824385539282,0.4255848937984789,0.060512878460935074,-0.35006889005811803,0.28836004697112444,0.26409750362590523,0.6452554357499762,0.6488806183539209,0.3326946810059212,0.13329469121313114,0.11337432351480564
0.116,-0.27439999694083445,0.1365524598688673,0.41044728637989847,0.06894634165668984,-0.34256038930101484,0.27357906323423853,0.2532642602948435,0.6289910013698204,0.6265685778272467,0.3090513797969465,0.11737769079686997,0.10996312140653926
0.118,-0.27034692281459,0.12565260923490465,0.39536592693092665,0.0736583118529296,-0.3335093971865553,0.26035989785109237,0.2435244285423489,0.6125042187893954,0.6071820702314333,0.2880802825462318,0.10360914545519499,0.10354268657235434
0.12,-0.2558276317431951,0.13024971568660748,0.38562973359172187,0.06532644290151733,-0.32229955714983444,0.2574672448543635,0.24148096667351468,0.6012557699017324,0.597201849954652,0.2756661381140082,0.09572026788422824,0.09811433665908326
0.122,-0.23549879739986926,0.14084228079401265,0.37621243719542113,0.050078716196818925,-0.30771132135038953,0.25793736624503916,0.24442174226565153,0.5935888437337653,0.5907914237060867,0.2644800299719875,0.08393772202754111,0.08797597253596419
0.124,-0.2263048856134786,0.14319363727606124,0.3694631177183116,0.04366497914403529,-0.29924648206302606,0.2555875842459947,0.2475269613484989,0.5882155762883924,0.5825271149133855,0.25080944637771585,0.0659101927135953,0.07166418139084407
0.126,-0.23737520688617894,0.13678068783543987,0.3738089971957545,0.05174965273061822,-0.30674929444415044,0.2543162465162581,0.2484424220936648,0.5861773847642913,0.5741770930852159,0.2416403209978453,0.05377841263544951,0.057899926697434635
0.128,-0.2555580688666616,0.13294706158577632,0.38775193101406025,0.0624759912249882,-0.3235099481573,0.2593262350720956,0.24649903401935502,0.5860783352680868,0.5703279026809736,0.24506640834206872,0.05862191967787528,0.054972114401064955
0.13,-0.2585169287242894,0.14131882492938064,0.3990979183535671,0.0599288451561999,-0.33149150094990365,0.26944451367909816,0.2410101622255613,0.5815032899282344,0.5699240039369696,0.2582615619175999,0.07562979114171614,0.061483905758561636
0.132,-0.24098464276114723,0.16057611653660678,0.40130407729082945,0.04214740641254164,-0.3237252165729382,0.2804537450933294,0.2320730695847145,0.5673593529171681,0.5657391556429325,0.267971676948902,0.08814627690909008,0.07029186924783241
0.134,-0.21930091280966696,0.17965144631848787,0.39914320479327303,0.0224043453524281,-0.3107966666582308,0.28887344880193794,0.22274871682346825,0.548023635141836,0.5534587674625291,0.26229281386795633,0.08451950638425584,0.0755208879103669
0.136,-0.20995561456580936,0.18679190290222256,0.39695834624922016,0.0141231956512695,-0.30416169341758187,0.2910807143416889,0.21749617226300083,0.5333092551393342,0.5364190929715539,0.24108264449156927,0.06892657893584196,0.07429917726589064
0.138,-0.21711639608693797,0.17754891335224754,0.39455185748911004,0.02142290131290052,-0.30658133424405354,0.2849502549747119,0.21822943789006213,0.526650346425515,0.5206271409835621,0.21693597068081233,0.055925595045574,0.06878441211940244
0.14,-0.24333235493354258,0.15603893956726717,0.3989287533713897,0.044076193656160716,-0.32255239887226383,0.27591957280835455,0.22444587002713196,0.523993344017313,0.5108171071180301,0.2069665010097566,0.05809093927975441,0.068485032244997
0.142,-0.29137626410603884,0.13276592510149984,0.42365457996648326,0.07901359554559431,-0.3592913477103596,0.276103931929054,0.23448974103780196,0.5219932088543664,0.5095313940358674,0.21879912253607545,0.07771684434932233,0.08236964214735504
0.144,-0.34577210375941136,0.11961123653541794,0.46513709741227877,0.11303994946864643,-0.4066512275260128,0.2901521423147846,0.2429558956496772,0.519041792780293,0.5129241040225322,0.24074452707543206,0.10284861484606014,0.10487129016115228
0.146,-0.3719895794176839,0.12070725712994643,0.4926414351892004,0.12673126960505374,-0.4325574286245807,0.3048713778751226,0.24156177730926387,0.5108501194876639,0.509961186323466,0.25009645210498455,0.11268937516557982,0.11716413351994252
0.148,-0.34989284081148414,0.12888050247646204,0.47859868786671955,0.11283803036424171,-0.41429409258295846,0.3023119109029203,0.2285592042180363,0.49347248719981784,0.49261342440783956,0.23501044557190343,0.09622107281494727,0.10710433887560335
0.15,-0.29892326262089647,0.13541060863884383,0.4339504176297535,0.08438520226627438,-0.3672318530226374,0.28306028586969934,0.21252827752238726,0.4701059691229688,0.4653784457383359,0.20523293898724287,0.0652166241401173,0.0829116361624165
0.152,-0.2579286837647608,0.1407745310607912,0.3983862546812451,0.0602403428917285,-0.32974081548912554,0.26750782111609855,0.2021048226115982,0.44997893326547383,0.4410881307292029,0.18072355963794248,0.04324606856769256,0.06436413986881341
0.154,-0.24988316477451716,0.1500476518035931,0.39990589998925063,0.05032427030401874,-0.3266181117740763,0.27309414578806834,0.19927210024584815,0.4403745528937818,0.42911483985033944,0.17346675815156634,0.04365274263259761,0.06475882939510158
0.156,-0.2744592788229995,0.1604364206672908,0.43505046149978993,0.05705459086885684,-0.3561481605920589,0.29684879428289374,0.2037546890053661,0.43985704467814973,0.4283300689518783,0.18046251017374032,0.060589959370417584,0.08246970338815889
0.158,-0.3158560285752935,0.16198366773806516,0.47793465154491016,0.0774421402772726,-0.3980460154002172,0.3197148575691459,0.21270710412837954,0.43882829434122667,0.42904438386637006,0.1900022805998904,0.078127389760535,0.10536772452451386
0.16,-0.34916356869397913,0.1500666928246736,0.499216336830734,0.10050035589053966,-0.4253981811297807,0.32376954518417833,0.2174852769196176,0.4289032426479845,0.4216103040303508,0.19020012745650086,0.08392779109488747,0.12085116463335677
0.162,-0.3577170564063493,0.12979087512245782,0.4875704302535711,0.11522126696223774,-0.4239557828832054,0.30663814750704377,0.2117843594191977,0.41135460526250417,0.4043613563707742,0.17426797290682547,0.07484431841003321,0.12368903665020896
0.164,-0.34797678882396793,0.10931538118365895,0.4576278499429859,0.12119891017419314,-0.404050309464886,0.2812060991265074,0.19981323728619735,0.39362744649156045,0.38331526279871275,0.14604300912377635,0.05570886542363341,0.11697278599184867
0.166,-0.3361579294018231,0.09525346156297232,0.43201812214818264,0.12306912287425986,-0.3852831145043518,0.2623597654642891,0.18999532382730658,0.3801119831125903,0.3652481740684359,0.12000783854266324,0.036309592660171856,0.10736624501138912
0.168,-0.3285815316222671,0.09135801263474708,0.42067602678191324,0.12145720002565136,-0.3761174006861876,0.25595291038954765,0.18607764044141226,0.3704718625740385,0.35259034682894314,0.10866311838126178,0.025642474341681737,0.10067379667530453
0.17,-0.3259616093107363,0.09410641166952516,0.42080809040339345,0.11843192100102566,-0.3755076710952624,0.25803352315216027,0.18619557837457715,0.36375000533806123,0.3432099034576071,0.10947327401924008,0.024656233813329983,0.09971166067797908
0.172,-0.33092543621373943,0.09318601148146158,0.4247600292320022,0.12108412116268936,-0.38046795775348274,0.25952559197031616,0.18496759276184999,0.3583928473233675,0.3328146645238197,0.10840487392723129,0.025640605755153742,0.10269913257821513
0.174,-0.33881678139170385,0.08326507673643287,0.4225940585449655,0.1299171093527718,-0.38326080986749345,0.25290566115608965,0.1781492965242865,0.3505470331351949,0.3194611489991272,0.0969677677601566,0.02188029677119363,0.10465722534000681
0.176,-0.3390637602359229,0.07069839575512066,0.4101752079771232,0.13596857295331413,-0.3765104747416334,0.2394323366965255,0.16882888882497973,0.33782127430139414,0.3065688561869093,0.08198644755536881,0.01582822699525733,0.10284428232373588
0.178,-0.33102533138584794,0.06334542970075625,0.39467495195809715,0.13489146998278037,-0.36377679369329624,0.22710644298515203,0.16415197919881733,0.32227713586289064,0.29776447618620944,0.07457306266783412,0.013172740424641003,0.09869138855290614
0.18,-0.3182015330255176,0.05959256142241034,0.3778476395681907,0.12970436111105144,-0.3482323247221808,0.21660648578150354,0.16327176674532154,0.30567533751081916,0.2889786966667051,0.07265263274291828,0.01103723783450486,0.09241257243263067
0.182,-0.2987146404296099,0.05240366842277765,0.3508531468943606,0.12314498181722061,-0.32499008566092713,0.19998941085641692,0.15760806471049638,0.2877346835459203,0.27365430625913845,0.06487274028837356,0.0015581172864432254,0.08192625611692404
0.184,-0.2878609091905229,0.03853380188277327,0.32598315732738314,0.1243201212666668,-0.30764797500064556,0.18115627836603965,0.147649085962577,0.2737570822393224,0.2578396261206012,0.05388820128211534,-0.009937222905974498,0.07211512866018523
0.186,-0.321199433717168,0.01863256011415497,0.33954459450872077,0.15080456624525904,-0.3314774227535812,0.17813771636478204,0.14616914472665,0.2737454091243719,0.25738413484883843,0.05976932886730244,-0.004951808187797502,0.07477814808371408
0.188,-0.4011411767401076,-0.005401960570440664,0.3957737922393857,0.20318526905597142,-0.3993784234743078,0.19407992818647263,0.1572247812889094,0.2860340654692386,0.2731511362212455,0.08933571166229777,0.020249799331175555,0.09046737282844555
0.19,-0.47333225539773127,-0.02670069453340752,0.44703598242245285,0.25075344554958007,-0.46048335938880813,0.20891369369828297,0.16720897147075472,0.29326633845294836,0.2840763039353977,0.11822569232329967,0.04293607277805167,0.10274357008491765
0.192,-0.49105524059114425,-0.034326486597403574,0.45733244819626356,0.2640561741494147,-0.47414897002416245,0.2103681523314802,0.16585209746780002,0.2842655540771111,0.27516965475545374,0.11985616917783021,0.042922643524092856,0.10022376406153807
0.194,-0.47137185321777,-0.0258053774173084,0.44607141228215563,0.24998913128890532,-0.45928529638220356,0.20925476321555925,0.16109036475690397,0.2684696909426707,0.256891714393786,0.09934464353302994,0.02844345435740714,0.090870434612263
0.196,-0.4556778246696969,-0.012561050165045598,0.4434168999829996,0.23528146320500287,-0.45119233675756326,0.21439595025824554,0.16329354997096773,0.25969844534988384,0.2460697604043863,0.08241609692525827,0.02034109595901383,0.08575498814287968
0.198,-0.4491230072914735,-0.0067060693215406425,0.44273869504264973,0.2291165333918958,-0.447927876630627,0.21634754834373007,0.1690088741853185,0.25779801832176824,0.2433752744489302,0.08107113512027311,0.023447076557915045,0.08270349194541202
0.2,-0.43488153102131216,-0.008377274900627438,0.4269906405616933,0.22317672829714472,-0.4323945971980132,0.2072224546394,0.17124741695852613,0.25593619919008753,0.24092270890903753,0.08581839975545194,0.026976580254444795,0.07577881270959927
0.202,-0.4199146856368807,-0.012497570054493012,0.40775934212686354,0.21791096416736808,-0.4147792870998024,0.19562697819765734,0.17278478830172783,0.25443754770913773,0.23769581100506615,0.08440453404688307,0.023495185630016225,0.06879041043287061
0.204,-0.4284701944488482,-0.021964303909051717,0.4063783085588325,0.22659684906201258,-0.41838302297846,0.1901865400598651,0.17850488295421146,0.25670177365501007,0.23596127575779238,0.0747805135347876,0.015362108926767003,0.06823964598745688
0.206,-0.4625630693429508,-0.04156876756773743,0.420581147368111,0.2527907992385635,-0.44292455787228086,0.18705839985130684,0.1861891655308064,0.2607945936226058,0.23432111800740954,0.06484755103440526,0.009603525817250469,0.0728986440135755
0.208,-0.49500311296897365,-0.06257222037043735,0.4320981862586227,0.278812171675304,-0.46541355509595467,0.18190351323119908,0.19167122275533696,0.26244828137171605,0.23220501971325866,0.06619571956406615,0.013197018544422085,0.07878153523010431
0.21,-0.49649035922657825,-0.06978540787388676,0.4264782243801913,0.28270733580915025,-0.4636890221582574,0.175466479032851,0.19187320469244495,0.2582601847443086,0.2308077518393126,0.08156597493562283,0.026014691839123284,0.08359855117730616
0.212,-0.46060145704368327,-0.06230484085258682,0.3980142986629371,0.2610412603738789,-0.43152967054160174,0.16531386634629405,0.18307239024232505,0.2460472470849853,0.22840372027590156,0.0989106863822376,0.03795330124216875,0.08332333305290689
0.214,-0.41167841816937106,-0.05463176271957698,0.3566858301004858,0.23326653848956128,-0.3863292424051739,0.14910142189858758,0.1686871067667629,0.2299644932627397,0.22334027529980904,0.10397529049814275,0.03906144241928129,0.07528316732483697
0.216,-0.38557422600430646,-0.05840778489602588,0.32678924358509687,0.22283467258979714,-0.35848296172273547,0.132947159387775,0.16233161898963744,0.21923130869333107,0.21674917835418825,0.09314376809528169,0.027858968056561788,0.06285521200749368
0.218,-0.39264618390360695,-0.07033584531050913,0.3219830508421562,0.23265125954704646,-0.3599244542924784,0.1247486328908909,0.17066666864751506,0.21602462294910643,0.20837705821921987,0.07298117125798156,0.009645559590472837,0.05115047175040775
0.22,-0.41354111669714255,-0.07976049915110112,0.33360519063539423,0.247385512496471,-0.37631009566925283,0.1252199852582908,0.1838920909197867,0.21411412047341435,0.19953235215540155,0.057567816763837154,-0.0038719223290053823,0.04496919628191574
0.222,-0.4355304012012817,-0.08356356957746947,0.35198196650561114,0.2596693288231439,-0.3963419809952638,0.13174788291546338,0.19234848387542883,0.21230941626954597,0.19970235683928006,0.06329945192843747,0.002043212715292425,0.05139050989921798
0.224,-0.4660651589498239,-0.08771984461670553,0.37844248328924385,0.2770920889725426,-0.4245475033883401,0.14285814966753707,0.19801623383960115,0.21712316115461247,0.2168063656477218,0.09344435213020724,0.02984630488128796,0.07292382414141325
0.226,-0.5061710372929512,-0.09661244260417437,0.40960395527607035,0.3025770411639609,-0.4597499254440778,0.15461251507199544,0.20443549996387714,0.22970310065792124,0.24126660754435925,0.12932850448205727,0.061561976682069634,0.09842037199523045
0.228,-0.5392079224663378,-0.10813576241256255,0.43104388924262205,0.32611594003844974,-0.486482652170443,0.1601873145493888,0.20952332511670443,0.2404218501922484,0.2517500320995945,0.14506363111277903,0.07491366860642318,0.11074264612844209
0.23,-0.5511767037481325,-0.11859131266706427,0.4325472442483919,0.33800877036670274,-0.49310065584523255,0.15613808044755037,0.2101225740021414,0.23844565995909467,0.2375964334877238,0.13084146865238305,0.06467994751219919,0.10339643210719891
0.232,-0.5433208992176253,-0.12571214805623718,0.4176055897928922,0.337462406588953,-0.48217257208961756,0.14560147420126945,0.20594840967567427,0.22301515029922056,0.20991269352700437,0.10109023357888014,0.04457056017498334,0.08508351688094522
0.234,-0.5270893043345027,-0.12673687359799768,0.40037159442119485,0.32927682359785604,-0.4658567989090649,0.13682229189830733,0.20122956833652872,0.20592880985645787,0.19100965485934263,0.08156159308931098,0.032258550311687936,0.07032908723163506
0.236,-0.5165296799728146,-0.1192827724312653,0.3972797236535255,0.31986209844109836,-0.4587809304008332,0.13881653801219512,0.2025991287316809,0.20134149846631222,0.1939070643445753,0.08581318635047519,0.03421301612377564,0.06786139882494074
0.238,-0.5160737497145182,-0.10605499969437124,0.41014482082978365,0.31276948154512824,-0.4643576654840283,0.15147745454872757,0.20913790954045833,0.21005566074097226,0.2103348486069203,0.10270656101439544,0.04186685240396888,0.07433681377828358
0.24,-0.515620728894169,-0.09561468490465182,0.42032502877615796,0.3068257973099989,-0.4688988258139064,0.16160913403350557,0.2091429251764256,0.21809123297735147,0.21986310794570266,0.110813669904785,0.042016207875686655,0.07805650218282217
0.242,-0.5090639982166012,-0.09529578919458398,0.41418964781958445,0.30283916132690647,-0.4627088056114103,0.15825729244587566,0.19610790006210238,0.21506248937461747,0.212761665809164,0.10372240990945343,0.03188993844815062,0.07227597282675932
0.244,-0.5055269431707405,-0.10408158317485328,0.40170494543156615,0.30565583331472546,-0.4548349343973669,0.14658741779458162,0.18042437001619901,0.20659870303580283,0.19931353864869172,0.09302891990830256,0.021098983835800743,0.06315444706839261
0.246,-0.5096317932490231,-0.11500913101449699,0.39462149663973534,0.3141440928246452,-0.4531065322590494,0.13684556117286562,0.17500300417478093,0.20254694061788087,0.19313302908687457,0.08874773703841586,0.018328114637811175,0.06048564134556513
0.248,-0.5085776172752158,-0.12291344389453007,0.3856487119607462,0.3182349169150731,-0.4480105463698563,0.12885127695021711,0.17812858733474649,0.2018918923914566,0.19347220730322776,0.0887500815767527,0.02215422866243121,0.06440642293983112
0.25,-0.4922798335051738,-0.1265535268953644,0.36596670045182794,0.3116244523696528,-0.4307416812062942,0.11832173711468684,0.17933254606359927,0.19686451396834115,0.19058985173200363,0.08736606483537987,0.02582214150284491,0.06638353241955484
0.252,-0.47068440734980616,-0.125245465609151,0.3457760030894486,0.29966070349816876,-0.4109065407842253,0.10971728917194601,0.1743442764479571,0.18541796901487542,0.1811810544712809,0.08380939727166237,0.02493530677736828,0.06114019882767528
0.254,-0.45978865565219895,-0.11883946193776322,0.34093458307749985,0.29102963934614806,-0.4032647226293193,0.11080416401952958,0.1673892150987291,0.17310390812871534,0.1707766085218766,0.08047334558401616,0.020113827604030413,0.0531244026321004
0.256,-0.4629628705336739,-0.11201680028632156,0.35047861420147486,0.2895078127518703,-0.40861941205219265,0.11885212353631022,0.16336641857884898,0.16537586671644022,0.16429813274323896,0.07831153260227455,0.01530052544277876,0.04986252646670149
0.258,-0.4732291879588924,-0.11378329551674886,0.3588834571641668,0.2956438703850479,-0.4166333213073382,0.12150503843831047,0.16283357792819708,0.16164796246910143,0.15995333599496275,0.07535784191020788,0.012790803747467482,0.051617028689677526
0.26,-0.48150812154294725,-0.12790942121828133,0.3532180083097676,0.30670926652821456,-0.41753923780460706,0.11062836703604499,0.16322951190643578,0.15691279730390947,0.15294158837755567,0.06969452281291635,0.010891011491135213,0.052165675041845876
0.262,-0.47560927748765314,-0.14582627935546744,0.3295610396542999,0.31231221813743787,-0.40347153021333265,0.08918378402719096,0.16134864799314394,0.1482080095434407,0.1426684405547301,0.06288822060676796,0.007474829333797808,0.04815605213395983
0.264,-0.44686197782038695,-0.15677463175714332,0.28996418241762134,0.3027860573024114,-0.37014672453623404,0.063957521746655,0.15519202043029245,0.13759868123623747,0.13369145502809734,0.057577335778760556,0.002639790108858812,0.04143990570227497
0.266,-0.41198186189141905,-0.16308706851033397,0.2488778260389879,0.28787722241162583,-0.3321887196116692,0.04087916255288866,0.14739457593568395,0.12992962762104207,0.13055517649739598,0.05443393918405665,-0.0014128745318359496,0.0352847006031113
0.268,-0.40792254823195995,-0.17237569978305922,0.23560030200849996,0.29007182102767926,-0.3226950120338733,0.030503958975845978,0.14580807023148862,0.13061606716730467,0.13496507602606406,0.0559013760400815,0.00024985193528058436,0.034828153115481535
0.27,-0.4422984266061242,-0.17790966881216538,0.2644307513154512,0.30994618077283115,-0.3534190978357981,0.04305943985463741,0.1546096871103368,0.14117087886472177,0.1456635338900011,0.06628947875466212,0.01167494445158573,0.04492120958011936
0.272,-0.47179450916709903,-0.16551643476497144,0.30627203183332463,0.3188264359428867,-0.3889927492067214,0.07074296866313101,0.16548350333142883,0.15332081621984744,0.1568683480005643,0.08198642849789115,0.027815530302865932,0.06089610210363437
0.274,-0.45514921300482897,-0.13839861881131016,0.3167248959681099,0.2975217128663622,-0.38655529627896246,0.08952888197067378,0.1653535544090208,0.154476119956866,0.16020925681092782,0.09027741301159072,0.03617638972287698,0.06899481898582256
0.276,-0.4085100414263737,-0.11759668521800912,0.29090401090745854,0.26428819207680404,-0.3509070562951887,0.08658249110955535,0.15373722751867322,0.1426294421211853,0.15266493140082657,0.08379400030453574,0.03000564360282858,0.0616565145958913
0.278,-0.38392474820111877,-0.11702518055901635,0.26690898500851273,0.25204441493693125,-0.3266661408473421,0.07434842871210609,0.14430641992809104,0.12908191994129917,0.14023080340721888,0.06833422939609371,0.014953927044627925,0.04664743263968683
0.28,-0.40075539459772597,-0.12910895244269163,0.2716779778913528,0.26694832444303956,-0.33744442345215786,0.07038483572137288,0.1462856353479898,0.12330344843257451,0.1314330637737593,0.054518355506245154,0.002321970774946308,0.03718091033905211
0.282,-0.4249181104826304,-0.1384722473874836,0.28657664109412256,0.2841946883621791,-0.3573855067056028,0.07328472099793498,0.15273977651988974,0.12186841680678766,0.12888320274019513,0.04746738057132029,-0.0025254363381846594,0.0362157649760304
0.284,-0.42351204091972977,-0.1434208428220165,0.2804131299805243,0.28590235117158913,-0.35404268247318005,0.06824524164646957,0.15304083528770426,0.11691205651602107,0.1280488640317023,0.04363782885854485,-0.005739581046809232,0.034852908083585175
0.286,-0.40969748437463654,-0.15387817623212632,0.25626152541965114,0.28348019396703816,-0.33471520492818874,0.051255858131417184,0.14928281254686643,0.1100428868634375,0.12453658802165524,0.03746608649318055,-0.014593028305635471,0.026893410917179922
0.288,-0.4122555491320878,-0.17040656746597363,0.2422377199451291,0.29243873638570184,-0.3280559657268037,0.03558117378929887,0.15129354419716176,0.10968207086125893,0.12053447791412816,0.03166755925093944,-0.02323796489778271,0.018277509632550093
0.29,-0.428458682746185,-0.18047755834291085,0.24828503878165603,0.305782159422599,-0.3388822784558633,0.03274403727956536,0.1599976356378095,0.11584107301134629,0.12009292833062295,0.03374585143492243,-0.020469005800254046,0.017430362702527964
0.292,-0.4365632541803418,-0.17656189828133642,0.2602781734807052,0.30828682539607705,-0.34958057618406574,0.04009787217414354,0.16790171300695544,0.11926434467457593,0.12278889856367745,0.04346116267718534,-0.007283893504615508,0.02448696060234671
0.294,-0.4356655732377919,-0.1639188990235757,0.2719378199498311,0.3012905383779754,-0.3553694973808959,0.052245050577072266,0.17444472856840487,0.11775630465921745,0.12767195665599917,0.054107680774670736,0.0068499864207304285,0.03557576607783981
0.296,-0.4406288593506858,-0.1496575505793595,0.2909911970858075,0.2958924673528943,-0.3667689284576571,0.06957418790379348,0.18638360562065975,0.11944748146913028,0.1357091649131897,0.062438444867591966,0.01842368325693215,0.048529602327635195
0.298,-0.44735746780213126,-0.1353794316440196,0.3118890300266036,0.29161896634735035,-0.37986959472508397,0.0881111617699968,0.20244068304402094,0.1268363629094128,0.1438678102376601,0.06814594770650664,0.028233654127873813,0.05949273951894413
0.3,-0.433805893592329,-0.12120982109597832,0.31253550573323413,0.2779645551620072,-0.37374100704367735,0.09575720484178823,0.21081808517580644,0.13069846487004694,0.14566163321889503,0.06924010581142094,0.032388056819533,0.06257429859177116
0.302,-0.3955834215305107,-0.10976418271155812,0.28583579284522964,0.25379006579211894,-0.3422172136257824,0.08702457628225493,0.20409683847906337,0.12388960295585694,0.14051890263667732,0.06578560496125624,0.0271248183605333,0.057359724818246506
0.304,-0.3586986295753264,-0.10527215971349435,0.2534673178718128,0.23371302853338297,-0.30773234183830883,0.07143185585322911,0.1886715768124148,0.11255897400577909,0.13546993614533165,0.06295655738566404,0.018032765130644886,0.050912661332543366
0.306,-0.35003019108305333,-0.11055525392562728,0.23948578251473043,0.2322606796100652,-0.295382002592651,0.061272939850640994,0.17741386277661778,0.10794735880121077,0.13551158061556431,0.06352498774399583,0.013528286789348922,0.049010250862233276
0.308,-0.3674490441244871,-0.12406052282694233,0.24337155376355185,0.24749171641199935,-0.3051382288005089,0.05771596503762245,0.17700874799000563,0.11135129548920156,0.13760721894465522,0.06270567667986159,0.013277668673458453,0.0496446935428918
0.31,-0.38706819780968704,-0.13905935739309142,0.2479948196260747,0.2642848511262232,-0.3178119385474851,0.05420055091075516,0.18478036280647023,0.11485114914776486,0.13726351540327475,0.05799344774125915,0.01251806700855745,0.04849083340425641
0.312,-0.39159966262883283,-0.1473538675053625,0.2442483397160745,0.2702274530378283,-0.31979055291247266,0.048400365670935495,0.19472930697370544,0.11416646236425733,0.13630297100115482,0.05685935163410164,0.012475325233663254,0.046110500947624686
0.314,-0.38458761622718834,-0.1476939789312942,0.23690249764714785,0.26675546649365994,-0.31351547115925926,0.04318707847195993,0.20216328625041677,0.11211274280059377,0.13819457263427948,0.06367097413945534,0.01643629575547642,0.044614580369734674
0.316,-0.37977685428649305,-0.14715675360725275,0.23262294426583777,0.2645198323291361,-0.3081790011121429,0.03985718792861393,0.2051994252370032,0.11200689091174934,0.14038722290313124,0.06765775259518146,0.020042470750072348,0.04217848831340116
0.318,-0.3804685840815527,-0.1474590708474567,0.2330060370555257,0.26590401301137584,-0.30698347459366665,0.03945574759464641,0.2069105765372634,0.11471343102336,0.13943091728160337,0.05930272668275579,0.017390083050732728,0.03770825051544322
0.32,-0.3738699107797325,-0.13901421186636143,0.23485248698676506,0.25907572239979904,-0.30349855753792687,0.04495282706469047,0.21155244449292798,0.11877996799431947,0.13845957140987908,0.04978279839716753,0.013756633204289758,0.035898141179302887
0.322,-0.34861920234689714,-0.1178071594956238,0.23079046606111955,0.2357356706875877,-0.28920251636448374,0.05402474433390638,0.2157960780039686,0.12000166372321207,0.14149512329934802,0.05624236730145159,0.019328543492614883,0.04040866667222618
0.324,-0.3165177608979648,-0.09730772739702963,0.21908064382443063,0.20861375623879608,-0.26869786454356887,0.058885471264337824,0.21312184299109346,0.1158662031017948,0.1458493839756912,0.0752165576466363,0.03237323752018169,0.04711719124929154
0.326,-0.3077845467615471,-0.09491994093149082,0.21253790875710724,0.20237276650160918,-0.26223965612250644,0.05727829440100657,0.2065435726804165,0.1100058856198197,0.1458203737850814,0.08640914880041477,0.03936821229448414,0.04910483983069209
0.328,-0.33448108042915004,-0.11120293483756677,0.22285483412485993,0.22395876236685383,-0.28076550940216843,0.05450867206321397,0.20534473368522796,0.10784859386143308,0.14084684215878002,0.07956719974189272,0.03211267670203637,0.04486605413258996
0.33,-0.3718410913700414,-0.12722745525693469,0.2443573640947766,0.25113326765869426,-0.3094018649633404,0.056909016855031594,0.21350499255167818,0.11250665108079358,0.1381641054783599,0.06722458266036856,0.01915244400061457,0.0408458279214476
0.332,-0.3877202357679938,-0.125293241265715,0.2624527040489376,0.2582156067616007,-0.3258036058755622,0.0662874403506765,0.22819537594171105,0.12431751225475884,0.14442271598921624,0.06666865671830594,0.014982809683977218,0.04426678125690718
0.334,-0.3734751559642059,-0.11015839256991006,0.26348491597159884,0.2430484520974454,-0.31926447168719246,0.07413111988542104,0.24187226454692096,0.13645570668790066,0.1536583765951839,0.0749275430067691,0.01953524386379712,0.05141502332686383
0.336,-0.34536092710201,-0.1037652012737473,0.2417684968614188,0.2250454437228925,-0.294810359631091,0.06692301357733525,0.2464481327551574,0.1380096679673449,0.1533055293258151,0.07441522617968445,0.019900708208834855,0.05121506968360758
0.338,-0.3299969612934516,-0.11962278223643545,0.21050207118408523,0.2246904626495851,-0.2719987424026542,0.043879511671484496,0.2418442289634827,0.1285379655430253,0.1433330340883583,0.06137505563612844,0.01215286450136431,0.04246472475272664
0.34,-0.33595984939888285,-0.14668437670289458,0.1891827593341302,0.24092890588792765,-0.2646142501119043,0.01956801289160491,0.23426910972290474,0.11927820222015537,0.13634177880827827,0.05112959584936473,0.0061514504805847345,0.03584716489260892
0.342,-0.33927288304962655,-0.15942216438999945,0.17935407218665678,0.2489256773760952,-0.26118790151087423,0.007921093567689871,0.2273137445838349,0.11917927418202058,0.1404856822035354,0.05546350963007694,0.009324133184699327,0.03907721055611852
0.344,-0.3181601408819144,-0.14370762126234937,0.17377839552976315,0.23059586891058292,-0.24729431762199758,0.013204427942241784,0.22438772562948328,0.12958168274365758,0.1539422465029228,0.07120760781039807,0.019809572551774176,0.05091125626671791
0.346,-0.28858930064351757,-0.11364533100574878,0.17458366788264243,0.20094119987430362,-0.23259703166660745,0.029114815340350587,0.2300832819018807,0.1447703959724134,0.16900682204230183,0.08830062668597156,0.032070324583483,0.06532120514605612
0.348,-0.28247558288352037,-0.10001532836952565,0.18255966004043397,0.19142308693845797,-0.23375992989777675,0.03967395906027773,0.2395218214432757,0.15114847318149954,0.17424015486528807,0.09699647451692564,0.039036517063083906,0.0732807782491211
0.35,-0.30545710276104465,-0.11637970130520262,0.18931994044125688,0.21160463160244491,-0.24888749654198838,0.034025926622938366,0.24083610956019819,0.13998528773251764,0.16409824793858255,0.09295633411264854,0.03541916838673213,0.06848653477397568
0.352,-0.3321669324628652,-0.14166964102882465,0.19056960450530364,0.23781406223542115,-0.26265658863193864,0.021719536835409385,0.23385106312307075,0.12305360276053327,0.1486408244295219,0.08132890737546668,0.024268173588938603,0.0559992970197179
0.354,-0.33461957116077107,-0.1448210855483211,0.1896824669560061,0.24034816819953114,-0.2628917105811555,0.020426365345769165,0.23130190094461167,0.12078928493183452,0.14282044545136635,0.07118721802630365,0.014081626378280197,0.047425842230357465
0.356,-0.3072841660886048,-0.119256491260621,0.18781183654232977,0.2137536456553965,-0.2478047092985205,0.03324744639803443,0.2393934674491317,0.13644899420747852,0.14901489023637954,0.0666723068364737,0.010017926491123895,0.048059480219037394
0.358,-0.26768879358165565,-0.08576417027981938,0.18160763759518758,0.1776090376138692,-0.22495276898607955,0.047388157374944395,0.2491945472905263,0.15337468184470876,0.15744890225239633,0.0656537422599885,0.0113384580899405,0.054147523243709195
0.36,-0.23718730067550042,-0.06857111167024263,0.16824452142470553,0.15422965035233363,-0.20381439507477744,0.04922348637483547,0.24891336680042372,0.15568341205759087,0.15884068689328498,0.06341385437207177,0.013004601447858536,0.058757555697430124
0.362,-0.223971119117378,-0.07298793245203411,0.1507243528534328,0.14979074310439675,-0.18931669469177753,0.037700048050578756,0.23869273028409457,0.14512918650023626,0.1533289921813681,0.058028241830001125,0.010032642766328804,0.05829668086822907
0.364,-0.2252618370467311,-0.08340645364875365,0.14173087553961158,0.15525253600213582,-0.18539656929298923,0.027463009017617952,0.2317324763244515,0.13802242585720725,0.15067070333330373,0.05533590231901104,0.005780429983380905,0.057271472781197624
0.366,-0.23741771412672927,-0.08155598417494407,0.15566092818830754,0.16019114187516098,-0.19753484129166393,0.03566842020172211,0.24021482804899816,0.14717661699138565,0.16054839464762435,0.06478175345766334,0.011298505897017282,0.06409634655813796
0.368,-0.2546648533168666,-0.06547729999027814,0.18882929745112093,0.16087332645223998,-0.22213381346534114,0.061402337923540405,0.25955174524735103,0.16755207946468062,0.180158623233612,0.08599106491128107,0.029650268662028214,0.07865697801279964
0.37,-0.2648458281925969,-0.04938011742472336,0.21517504702190465,0.1580890706392769,-0.24066270698676365,0.08339825117018722,0.2706530913730968,0.18113831440030984,0.19437749855977568,0.10435392903874684,0.04712055513823984,0.08904838723661197
0.372,-0.25809752163226124,-0.047134621873497984,0.2109367933735246,0.1538479753617588,-0.23575765504669324,0.08197292799596753,0.26057495035166905,0.17524848597932094,0.18985164297697898,0.10511031502893452,0.047585764899151,0.08484732551358558
0.374,-0.23786505417321835,-0.05870226923108393,0.17932456896959004,0.1499846314195449,-0.2098892678469846,0.059045649431062504,0.236498211385753,0.1538837324123047,0.16785761290668247,0.08905353688003383,0.031733498550802125,0.07028780441088212
0.376,-0.21634285150238147,-0.07165170591307259,0.14491094078538286,0.14603100022460888,-0.1812326536949542,0.03424854039164705,0.2165093204411487,0.1323311928300557,0.14350962800426603,0.07042809953636686,0.015737597623838397,0.05934688201368008
0.378,-0.20164167841913103,-0.07434745933788055,0.12759082148090287,0.13985930147767858,-0.1644404230692289,0.024171550092725626,0.21094099153880938,0.12285970480424976,0.1311598320294723,0.06008155406021882,0.011335473337834863,0.05857332900901815
0.38,-0.19513012324605122,-0.067043589104461,0.12846820690614946,0.13273644607902324,-0.16151526997483037,0.028864135066457373,0.21609581689904667,0.12566535115592434,0.13124822596982316,0.05610837830100398,0.013875468849393117,0.06191098730235551
0.382,-0.19623052754442405,-0.05902673988735011,0.13757705035543266,0.12957338220628137,-0.167283346225052,0.037898903780760745,0.22321492747588437,0.1328419896226179,0.13505468585275832,0.05346623595135786,0.014058551730794932,0.06285827436771864
0.384,-0.20387050026138692,-0.057577797229863455,0.14662211551061338,0.1329625462950112,-0.17647814408561469,0.04344702244161092,0.22829997952384692,0.1382877000613276,0.13811795568926677,0.054050380034431154,0.012717300767156438,0.06226000356251739
0.386,-0.21699133677544402,-0.06172755548532123,0.15556122027729571,0.14100163442957458,-0.1879256446783414,0.04616976689781358,0.23174670927571364,0.14143273129306258,0.14231378799624453,0.06101417563614272,0.015623394274332483,0.06388708882111532
0.388,-0.23258973908680608,-0.06433614751401528,0.16846263038154857,0.14898380741085182,-0.20218104864979045,0.05137307053379896,0.23151572414575083,0.14333765082051386,0.14788009315195974,0.06981442150637479,0.021177285695216666,0.06924041834889755
0.39,-0.24002187008596707,-0.060700969514908235,0.1794808647038562,0.15060079903677173,-0.21135807983410038,0.05833148460086863,0.22203247345390448,0.1422829550909378,0.14938178632101154,0.07084016799238275,0.02177386038826724,0.07502321564792516
0.392,-0.22662373841661312,-0.053817521850883836,0.17317185826547868,0.14130020311118507,-0.20131733116635653,0.058244156791337716,0.20399677962591994,0.1365469247422289,0.14268336709672708,0.06115954248621954,0.015155429195894101,0.07557737731780693
0.394,-0.19341842187610944,-0.048275215121293305,0.14583790359622423,0.12258794423447109,-0.1706999475995428,0.04733781518359798,0.18978038488447768,0.13050501846942467,0.133377630738163,0.04954674937635375,0.007995902937084543,0.07028825184327711
0.396,-0.15465150031893285,-0.045237211726109235,0.11013566077311378,0.10140761812678553,-0.13357570843902894,0.03127001350425257,0.18857444419684002,0.12935652577705103,0.12900715184099038,0.04285978552872167,0.0038733218936595733,0.06224539301234289
0.398,-0.12008047753691604,-0.04596366963174285,0.07451824024674907,0.08415190800840265,-0.09916911592263802,0.013375326574141259,0.19103598515003464,0.12799445028717812,0.12473042739947665,0.034083793104635475,-0.005211333800037964,0.05067812150774963
0.4,-0.08827064388277527,-0.051402208568842186,0.037054300667764134,0.07139644313892247,-0.06483464336446833,-0.007873133185413411,0.18182667235489852,0.11629912003343496,0.10965266730539534,0.01593440988519019,-0.02467716551351497,0.035726894783242175
0.402,-0.05789755300521941,-0.05783165574438226,0.0003927948917729262,0.06001273743664202,-0.030662850776672915,-0.029214219434718844,0.1619422758988113,0.09483463585190688,0.08504579341724906,-0.0033602606923998635,-0.04323148042894165,0.025797511683703884
0.404,-0.03829380942627138,-0.060194283595723756,-0.021347553980843037,0.05127576337752811,-0.009026650858083681,-0.04118417646137131,0.14662658136950452,0.07660003681477455,0.06543632123780085,-0.009669098431850083,-0.04503081516581601,0.029791642485300453
0.406,-0.04939227041500522,-0.05769867784340334,-0.007803303700952288,0.055089885868820805,-0.020956355418454344,-0.033550581438464525,0.1482833700808784,0.0763408491827019,0.06566608266442849,0.00236553129771535,-0.02666966826006789,0.048776238242676476
0.408,-0.10891800750983424,-0.05274225966557975,0.05635286486742455,0.0824137753646395,-0.08325809122813164,0.00038580143360456964,0.16884074192324255,0.10100802395253412,0.09126110278662021,0.030408627939877222,0.005289906601928154,0.07916881424216111
0.41,-0.20628721890362947,-0.048354309440372785,0.15781879837023857,0.1294766591776823,-0.18363160194175945,0.05340734783512657,0.19870099448140682,0.14161755025865141,0.13208872663434584,0.06666590542398916,0.04080250336597606,0.11339994336724596
0.412,-0.2922004610863804,-0.04715465107066909,0.24489748288962587,0.1720697265674335,-0.2707228097043635,0.09858105294070545,0.21932690919368691,0.17388400130701936,0.16397284362751985,0.09590184089851429,0.06632304251594444,0.13725430567376268
0.414,-0.31711035588177394,-0.04874458583670517,0.26834947780018764,0.18479990190886375,-0.29440802452335424,0.11023269286470862,0.2176958164337918,0.1790812390553012,0.16886960361753126,0.10505623181827438,0.07243709311805696,0.13960072389072997
0.416,-0.2808659845942986,-0.049210046002982774,0.23172622384123304,0.16631366243650653,-0.25675904542507727,0.09089963245271067,0.19969959192675563,0.16364002240883818,0.15349128226279915,0.09660935922570534,0.06393896884626804,0.12553966857274595
0.418,-0.2252860067758223,-0.04644330603363432,0.17888519359383276,0.1371413888332562,-0.20190802535326238,0.06410760384565505,0.18130664486490297,0.147315732487967,0.1374697717953874,0.08280571764967713,0.052285578733349214,0.11001937953010973
0.42,-0.18612400391641074,-0.044181492070690234,0.14192484258688026,0.11669237465704282,-0.1643935257059351,0.04564363326730277,0.1691492082965496,0.13735838096105943,0.12833656130243482,0.07011792528856232,0.040798912818896096,0.09916230718220329
0.422,-0.17175139697629505,-0.04575575617825352,0.12596414478752688,0.11031522993970229,-0.1500584073124164,0.03714653577951109,0.15853835078718512,0.12728189594406272,0.12036643097235955,0.05844099764260123,0.026820379324627008,0.08751353295607
0.424,-0.17351742962591898,-0.04489646282021507,0.1286155608932315,0.11061712930266215,-0.15223865654676572,0.040000733481385047,0.14725140890319255,0.11516851575583723,0.11119022380416825,0.049405790891887146,0.013526310300196931,0.07353584854296877
0.426,-0.17752456901155567,-0.03296037635326855,0.14457877980124453,0.10633535013952432,-0.1614133813164388,0.05507380520670953,0.13957141106115675,0.10768022970240762,0.10513735363340411,0.04575736028433005,0.00869587863412934,0.06573719867064376
0.428,-0.17509726571479153,-0.015931847203877306,0.159153390625803,0.09603764860069032,-0.16682688029047515,0.07155960608279113,0.13674967681928024,0.10737318252294352,0.10369304080162747,0.04720027696190446,0.014295109504090592,0.06964468627908993
0.43,-0.16678079003518004,-0.01002529043016833,0.1566209580332071,0.08857182815133934,-0.16137812000737178,0.07320875012191701,0.13420314372633863,0.10829958703999906,0.10309867675856535,0.051704240279528794,0.02433684108769101,0.07872667383142946
0.432,-0.15500978719001193,-0.019603184224201452,0.1350722349250125,0.08783882223810141,-0.14499272666571297,0.05692758212937599,0.12918731032167652,0.10488949050988015,0.09943975573480326,0.05584566709128536,0.030294833194527682,0.08260872294462764
0.434,-0.14356526725070098,-0.033567609923503314,0.10957349356561653,0.08979097116802295,-0.12669380499981547,0.03634835598261589,0.12366286119255865,0.09802337064740985,0.09216854734986708,0.05497534815990032,0.02753265486917782,0.07849211267907312
0.436,-0.14107311026320746,-0.04309270593408083,0.09774985102930983,0.09349249627079367,-0.11982274793755138,0.025196536653849588,0.11881517041320148,0.09137630096979507,0.0845686490977438,0.04885892447492498,0.020522322646957435,0.07188688603088501
0.438,-0.1501928798919316,-0.049165207545924405,0.10118696783529837,0.10051799896203391,-0.12687640175256923,0.023792932109358577,0.11312467871166937,0.08666680658835954,0.08137141923558774,0.0447954592144529,0.01972553222199827,0.06989988659394801
0.44,-0.15758721035233522,-0.051145814237817104,0.106914050138168,0.1044117773021053,-0.13426469819724915,0.025962910734479844,0.10736409980188334,0.08496391282889078,0.08509983720844547,0.05104831232137241,0.03077681347623967,0.07609679070624657
0.442,-0.14276341373800902,-0.04215726476456541,0.10109044304814324,0.09225597721689155,-0.12390973268010404,0.02836062996232837,0.10275511812476705,0.08648979424228147,0.09237266842039536,0.06544101155902388,0.0471282267026464,0.08682612395515683
0.444,-0.10053810055637197,-0.023141027930455266,0.07760606057277677,0.062225115263950914,-0.09031218145039155,0.02710095801255453,0.09442294526482099,0.08605838088964118,0.09365840975184814,0.07329152902472168,0.05401472343857541,0.09082262844887652
0.446,-0.06114220994136316,-0.009010761646077151,0.05204998779733,0.03635241754906806,-0.0576349172139117,0.021629168862349796,0.08089229732191244,0.07889193902933996,0.08406804968773197,0.06496051411518032,0.044855532296148026,0.08191601550813045
0.448,-0.06875864173237772,-0.010201640189450117,0.058409576068144634,0.04100037893017048,-0.06528290028733767,0.023508956538197682,0.07479914653445462,0.07174796488877137,0.07329043836896985,0.05096453856411788,0.031769040167514966,0.07079540038793619
0.45,-0.1203183050861338,-0.019029651908903537,0.1012330133859489,0.07048547309003156,-0.11270654209665006,0.03987778492249876,0.0857165691996754,0.07431616710871075,0.07299138386622225,0.0463518917716997,0.0289152722295557,0.0703808523990952
0.452,-0.1566302223624367,-0.02386767972482923,0.13269234159549992,0.09030107292109579,-0.1456560280171219,0.053435428919199945,0.10092835087036799,0.08199970300183194,0.07824143915112498,0.047492631744699816,0.030910091620472587,0.07543605396224369
0.454,-0.13625357991196124,-0.025035491109480272,0.1109381571116036,0.08101366676066037,-0.12368924836906083,0.04249831748920186,0.10080884007463975,0.0820076250180266,0.07553227556010236,0.040247056108288916,0.02234818404261162,0.07194282142905169
0.456,-0.08636761569053282,-0.02867464559838583,0.057282029035965014,0.058980271297160755,-0.07244939883373555,0.01369015936436239,0.08610049106471972,0.07305725355194627,0.06466579349573615,0.024414767815946974,0.0033327286014626853,0.05948552141000593
0.458,-0.061755204391010815,-0.03531532869806566,0.026284978359727828,0.050306515532595575,-0.04609363756615445,-0.00595777886196437,0.07566109914975411,0.0658677955070684,0.0585373351888107,0.014714135374971883,-0.008977274804644267,0.051060771950440655
0.46,-0.07664371591561793,-0.04071880410465632,0.036268962491455885,0.05942574094282501,-0.05911095787505192,-0.004324790589454647,0.07975182451513771,0.06580042582461455,0.0629173935903744,0.020009339735168632,-0.0032761973528916345,0.054313245648184745
0.462,-0.09587462705092005,-0.04211332513360195,0.0543421044070134,0.06874530009790604,-0.07671472674491403,0.004155545895406677,0.08790238005307484,0.06585278262148632,0.0687051405673157,0.03356564654462678,0.012651882847397683,0.06247364826465537
0.464,-0.08318662223841321,-0.04007039941359656,0.04342389030574984,0.06167840099806013,-0.06335371984139694,0.00037588065276637696,0.08540335258334963,0.057715143539772654,0.06585862539812787,0.044062735457962444,0.02358785409730552,0.06434039659008575
0.466,-0.04141003334371857,-0.03633468409967934,0.004870645758702401,0.03987420058721347,-0.022765963348966408,-0.016597724627058236,0.07176487899744259,0.042200641506808904,0.05528069699074693,0.04614635657304238,0.0221209289443979,0.056424204050626835
0.468,-0.004651425744837056,-0.03213314366621319,-0.02803996886222114,0.019775292363522975,0.01089484915652954,-0.031046048298449112,0.05848826243295816,0.027260094479449964,0.04351821610947205,0.037821408794234054,0.008715468672797898,0.042832978777765915
0.47,0.0020340598159144067,-0.02846610719250748,-0.031099849754611587,0.01438240513525698,0.014118547067959356,-0.031115284541134214,0.05466884658629561,0.01964831843817392,0.033515153567254916,0.017889658014799196,-0.012832121376108587,0.029102839892455164
0.472,-0.010402522876682143,-0.025857232127473127,-0.01582808385417966,0.019024060396280833,-0.00021531897338619114,-0.022365371303859388,0.05895713519954656,0.019546832104514474,0.02528738145074668,-0.007015311076647502,-0.03307684082559494,0.02015101496478099
0.474,-0.012906516189501775,-0.02442007680105329,-0.011508857881227184,0.01928176732927213,-0.0024720683613394315,-0.019169530703161856,0.06328241878451597,0.021842588140532224,0.020120494241264462,-0.021397768521392836,-0.039324827359921356,0.019364321058661812
0.476,0.004831780280859684,-0.025540144057614934,-0.03006592163188022,0.01062035654113404,0.017096947021713552,-0.028528693668733653,0.06124012321263394,0.021322652764009534,0.01924678868966202,-0.015873377845482994,-0.02831702704251022,0.02463053901650209
0.478,0.028038989546961397,-0.031125444629492346,-0.05886362381047189,0.0016101072103109004,0.043129608750458404,-0.045864594089238334,0.053415192408853264,0.017041265695030887,0.021679044528591738,0.0025701416773193453,-0.010271941580076476,0.028851245514082056
0.48,0.040703462717492894,-0.040080116149318876,-0.080726675580132,3.16413064319483e-05,0.05903723474423235,-0.06190745540722624,0.04621260329909375,0.012891013974555445,0.0259041879780277,0.01948073324673188,0.0026350181237462015,0.027759847992036225
0.482,0.042290362074958135,-0.046967167888982586,-0.08938090782370156,0.0034894126730248545,0.06282356607489979,-0.06975113044466204,0.04476849876103459,0.013523086099766799,0.03093629979393588,0.024706180010697028,0.004473402101978917,0.022949923484961263
0.484,0.04228243629503494,-0.04553603820149162,-0.08791320045245386,0.0035267808322276334,0.06185971589320611,-0.067697209796636,0.04750265856801205,0.020127456208679242,0.03591786398890319,0.01611620413852965,-0.005455488534521854,0.016996981180109998
0.486,0.047959239676484904,-0.034346690180212525,-0.08228712189784937,-0.0051041456306111024,0.06277949853672721,-0.05898884788861809,0.0504130609739376,0.03221380121842171,0.042411869421976535,0.0020189838102481266,-0.02072555247278546,0.012899732257770163
0.488,0.06015750475467155,-0.018435618337086315,-0.07853294757821329,-0.020242853898657574,0.06831996469435009,-0.04935319846444019,0.05538000656668791,0.05159999116036928,0.05522431709782999,-0.0025888126456771955,-0.027391439547100455,0.01680983002994949
0.49,0.07396136340933838,-0.005964932248710185,-0.07990756123065901,-0.03405288457507778,0.07665720303355744,-0.04369549714990431,0.0686458222072786,0.07922489736236268,0.07553076567228005,0.008375281389332967,-0.016314196210525343,0.03198003217280809
0.492,0.08226139130166621,-0.0019045764485772837,-0.0842116427391811,-0.03948626129001051,0.08250472824347536,-0.043249949164792335,0.09084792860737094,0.10925693056199981,0.09582415353892337,0.02482758080385913,0.006101882654261113,0.05234626903760394
0.494,0.08640980274925758,-0.0020791518280996674,-0.0886418104173948,-0.03987818454651711,0.08575087913463632,-0.04541117465268275,0.11448566976050435,0.13341459629852004,0.10831472586639745,0.03562383013711986,0.026898819172096654,0.07046518293727723
0.496,0.10036522622780383,0.0024330522808575852,-0.09825694164215372,-0.04813509693713601,0.09727899497758516,-0.04884600429056733,0.13170886844296356,0.1500961607709674,0.1147034667595288,0.043561041110665236,0.043331895450932786,0.0878842737623201
0.498,0.1345931124831543,0.012588471762872413,-0.12241423181126457,-0.07077478196678931,0.12725341961485453,-0.05714362548077381,0.13962020045325516,0.16259571217928298,0.12125355705478678,0.05999495546293939,0.06577815527053542,0.112365380160791
0.5,0.18077243996593026,0.01957747623281173,-0.16144573590699135,-0.09878558021206395,0.17037101688329548,-0.0737650917397874,0.13638153820607224,0.16659618710023744,0.1259738516280774,0.09001132360930164,0.10548876245490756,0.14950789053993863
0.502,0.22161630731825188,0.01695645490189312,-0.20466094234733573,-0.1191514873687724,0.21171651949117523,-0.09630758191734988,0.11348346599411421,0.13984336641171116,0.11061360104326703,0.12342783625900312,0.1606146137536015,0.1983200237865428
0.504,0.2496487452734026,0.009013145889149142,-0.24062602458395557,-0.12942720079540726,0.2425871557743587,-0.11755476320725394,0.0575719641177903,0.04909967609870338,0.045321845421086755,0.1378669838075533,0.21477857692848035,0.25107767495783595
0.506,0.26812078671622264,0.0043518159059412025,-0.26403288507656025,-0.1357741662429596,0.26320023021362704,-0.13115826647417486,-0.032619877361331075,-0.12324028101779397,-0.09040280323130105,0.11464579162094378,0.2505323604175956,0.2974955345274988
0.508,0.28122200218591986,0.0035375677814925293,-0.2781503541501339,-0.14161609182703486,0.2775374725540969,-0.1384827091659859,-0.13627505343176147,-0.3609557574900003,-0.2899742679803241,0.05097727914098459,0.26002342997256633,0.3294358164266459
0.51,0.2926715237319463,-0.0011065261134131656,-0.2941107614502336,-0.14551659745873882,0.29241708912335623,-0.1485221829982633,-0.2290372801347493,-0.6286542519654282,-0.5285443729468738,-0.04630954303216876,0.24135555021443691,0.3423558213169564
0.512,0.3090362916646662,-0.01329643366447011,-0.3224414982176275,-0.14828155128123935,0.3156437875331107,-0.16822923979887427,-0.3091333140182473,-0.8965537117458554,-0.7820352628199023,-0.16851447861393024,0.1978890098124791,0.3382894542637631
0.514,0.3360712988711961,-0.027033187822243555,-0.36325761417885516,-0.1549958332723685,0.34955238700187813,-0.1952236389636447,-0.3945389667947034,-1.144681846664186,-1.0292327755241177,-0.2986846853222065,0.1481803167608903,0.33024309508519084
0.516,0.37101006774359624,-0.03365667383134741,-0.40498887461654126,-0.16862384879758538,0.38689032820585384,-0.21997714001476018,-0.4951540519052969,-1.3563195698717863,-1.2471296130164662,-0.411853493538884,0.11782573373836497,0.3331093912943792
0.518,0.40216437441640907,-0.030240112898077966,-0.4325830575433496,-0.1851869457456801,0.41512094318342785,-0.2329963907621077,-0.5965027615792997,-1.5188119931234256,-1.4189393614987929,-0.4971179441898849,0.10569796439413613,0.340398014137861
0.52,0.4184295187142242,-0.02089564975691489,-0.43904077028867283,-0.19725761109748136,0.4263451920593132,-0.23171570899455873,-0.6729263754224704,-1.6289295840581604,-1.546856207288877,-0.5730738331011627,0.07401683971784806,0.32156612958002895
0.522,0.4199280784565965,-0.009953975769953211,-0.4293171939531983,-0.20303417787737466,0.42333144152577656,-0.22061074763536972,-0.7134011174316561,-1.7000810416292103,-1.654040083417958,-0.6688981384208934,-0.008333408332433605,0.2593426789593814
0.524,0.4208672610621542,0.00655104793428644,-0.4139837515274435,-0.21206701528340519,0.4175129777218889,-0.20395463543265563,-0.7332626636742138,-1.7651791514480777,-1.7709170616446277,-0.7928123560235478,-0.12341658191732341,0.18007701836464077
0.526,0.4418234400722964,0.03646400967683245,-0.4055435935660229,-0.238260770048701,0.4242978146875642,-0.18493461185422821,-0.762450605469687,-1.8575638366830398,-1.9107896514383012,-0.9259929972670831,-0.22438654605076103,0.12639046560600453
0.528,0.49659441828253503,0.07384658430149249,-0.4232878469663435,-0.2845424792344958,0.45993939700456804,-0.17615299872156398,-0.8212665988990422,-1.9789111164816053,-2.0555575198212614,-1.0412936638846662,-0.2873368582661644,0.10725299549199178
0.53,0.5844605485769965,0.09192754953560936,-0.49303627648671194,-0.33690934717082527,0.5376955393040753,-0.20312033214191985,-0.9032506761565473,-2.0943673883862393,-2.1703633209156163,-1.1208524099879986,-0.3227243245772184,0.09587253454225242
0.532,0.6927550978294534,0.061375751461699345,-0.6315607932019462,-0.3750835723523395,0.6605235181806802,-0.2878658250480868,-0.9846994384011136,-2.168051283913439,-2.235482151076092,-1.1646826918809512,-0.34785203997654557,0.06885657753009589
0.534,0.8043012566991736,-0.02209266085973446,-0.8262670058882831,-0.38890395579131215,0.8135779538421778,-0.4259569340262547,-1.055167262050092,-2.198407199198572,-2.262385123927806,-1.1914332526651141,-0.37209045153240666,0.025726791023609977
0.536,0.9025083562832295,-0.12865678248201146,-1.0308682388392205,-0.38509403326538744,0.9647840659021474,-0.5803623884601112,-1.1276152943643412,-2.2098688648820715,-2.2749079327626487,-1.2228740148084856,-0.40371107723230004,-0.028021365016492633
0.538,0.9710096201162114,-0.21681771889761842,-1.1873714735429075,-0.37614516446521185,1.0768378373166236,-0.7026350023157872,-1.2092285340826887,-2.2141295202574836,-2.2771153430047852,-1.2618732004221374,-0.4545393534229924,-0.10038595817437222
0.54,0.9920494030553424,-0.2680913706601422,-1.2595881046340291,-0.36190751285192524,1.1232750193302052,-0.7654019071250057,-1.2769748778460452,-2.192959790614946,-2.2480899738218123,-1.2926707726600961,-0.5344842265319871,-0.20577655881058377
0.542,0.9527586038834613,-0.2950296641347629,-1.2474793978878373,-0.3288066815036664,1.0978474289017734,-0.7735944846352452,-1.2984865313491807,-2.1206466047729764,-2.1679031176402295,-1.301198527281117,-0.6385913082162022,-0.3384217264275626
0.544,0.8563446988413613,-0.31171090711474003,-1.1682326917697363,-0.2712196236651074,1.010428955553598,-0.7419932596327037,-1.2650572624234089,-1.9908863686139955,-2.037523619369264,-1.2814782975113463,-0.7353290978989171,-0.46023709617298364
0.546,0.7224219972422306,-0.30676091741940587,-1.029579757532322,-0.2056564032213658,0.8743873387257433,-0.669464770658409,-1.1864805296351812,-1.814528713189634,-1.8683685880827667,-1.2230027757903716,-0.7776729962198364,-0.524034697568308
0.548,0.5759678444408819,-0.2599439652207887,-0.8360892818481952,-0.15579427747656746,0.7045534024685932,-0.5492666292433932,-1.0680585402471843,-1.600165813253618,-1.6642307940738714,-1.1124557187611952,-0.7416938419988546,-0.5137040460450055
0.55,0.4401437019911265,-0.18034092132849233,-0.6203695544402023,-0.12848279983067296,0.5291119146229359,-0.40212632704462253,-0.9150190104815392,-1.3508299265610961,-1.4264892429142093,-0.9573243931538458,-0.6540605036241577,-0.4600485087851209
0.552,0.3337092938766116,-0.10722061494477449,-0.4407738557241003,-0.11253065243668976,0.3865595020165547,-0.27591278375299494,-0.7500121042086447,-1.0818260098816408,-1.1725967924002307,-0.7948045851814813,-0.5709164164239358,-0.4121587253848819
0.554,0.26501363748651646,-0.06862235738478849,-0.3336207391411144,-0.09764309798548733,0.29855855895801275,-0.20257846883279385,-0.6069229198395433,-0.8322913053627867,-0.9377237543634032,-0.6666214879165042,-0.5280310492170812,-0.39309855898716956
0.556,0.22922227715286944,-0.055503059068803644,-0.28478062068801535,-0.0860917829574321,0.2553711728235085,-0.17125910421292104,-0.5077051135568019,-0.6475040341134239,-0.7540942088155108,-0.5865707854136235,-0.5152704371980787,-0.3862299950278714
0.558,0.21479747690931067,-0.04292595674288065,-0.25763756383254577,-0.0848392967294259,0.23389166342110593,-0.1517716493679446,-0.44913306579262874,-0.5423575771093039,-0.6275305716569023,-0.5338478805857766,-0.49716755740010443,-0.3631447844139168
0.56,0.21121451083195442,-0.02226744552878048,-0.23313426894310843,-0.09300350325210607,0.22041739875100239,-0.1299316596046315,-0.40844000488512655,-0.48473875861339455,-0.5344425499682057,-0.47735228929898155,-0.45242113683231555,-0.31877317609710587
0.562,0.21216910446127812,-0.0038047991844127782,-0.21549490459235374,-0.10237347558757326,0.2135603071684306,-0.11205949789472411,-0.36395501240673794,-0.42441890685442174,-0.44609632303387653,-0.40783307768140126,-0.39219340298547206,-0.2747396823580606
0.564,0.21425273291007865,0.0010880296543604524,-0.2127724385166132,-0.10582350832059333,0.21422999292693262,-0.10757593473251444,-0.3145518205424652,-0.34015104826570103,-0.35516353860876176,-0.3432404696147697,-0.34397371723744213,-0.2529637684388867
0.566,0.2132176656982002,-0.00920094996530639,-0.22213308139811422,-0.10040923819591988,0.21806560124596297,-0.11668092309688248,-0.2748648656762355,-0.2516937401184576,-0.27384095377834516,-0.3006347617784472,-0.32128762371599884,-0.25339446354890677
0.568,0.2055077745742213,-0.027572225924804808,-0.23281388557488958,-0.08758986540342022,0.21835136891859971,-0.13122366394664078,-0.2528211605880654,-0.1894181558989558,-0.21335219205569164,-0.2742329413039834,-0.3122118363854357,-0.2575732346406904
0.57,0.19450952183123832,-0.044885705813757844,-0.23922110390267373,-0.0737036149705685,0.2150867407515932,-0.14349587823713325,-0.2420077519028264,-0.16393888846205612,-0.17558627944112265,-0.24859000940107495,-0.2974557909883526,-0.24924517452207084
0.572,0.18882693103141412,-0.0569218779342395,-0.2458520471783668,-0.06533068377632877,0.21557665232113823,-0.15269991204939723,-0.23425039308796394,-0.16196971135605584,-0.15669964341945883,-0.22047601359718627,-0.2714802849930268,-0.2280911472117528
0.574,0.19283136603066817,-0.06492812841926036,-0.25819663134475185,-0.06354916825509799,0.22441510596363476,-0.1620524955853064,-0.22811008878263359,-0.16060485729678112,-0.14803972989742414,-0.19689942740222888,-0.24218591457661032,-0.20516086972923575
0.576,0.20395329245076685,-0.07004878343449045,-0.27462044613498765,-0.06605649068498964,0.2386150174518354,-0.17222345203214576,-0.2246097966443868,-0.146312214269753,-0.13884897100802598,-0.18012441381205835,-0.2184219041757982,-0.19007854891712314
0.578,0.21796051379899897,-0.07044935480131838,-0.28897879888773254,-0.07215600285742725,0.25278199212154584,-0.17996844221905306,-0.22224511504767497,-0.12308120631589115,-0.12325724102251319,-0.164446753723897,-0.20202703925866125,-0.1832396054505892
0.58,0.2307746266436528,-0.06513095855273665,-0.29628269566688586,-0.08096612176472366,0.26270824651746205,-0.18184937721359012,-0.2178526521218781,-0.10177688656510221,-0.1019215192334805,-0.14405625632931165,-0.1873864559872844,-0.17745704977831186
0.582,0.23727738272572368,-0.05831111673462317,-0.29581690016201134,-0.08763155107899648,0.2654832878497056,-0.17858344265592674,-0.2108798674564217,-0.08621267444662586,-0.07849461495127016,-0.11829385820584001,-0.16770266547575152,-0.1665879315062729
0.584,0.23509713266042848,-0.05666577750243251,-0.29201803941968885,-0.08712874470373391,0.26212861602586984,-0.1755226553550085,-0.2061795042745879,-0.07281345796654942,-0.057486880337054506,-0.09154697213279779,-0.14373368572058468,-0.15216805584487714
0.586,0.22728301386469701,-0.061333782658449375,-0.28895456980420664,-0.08048287801286225,0.25654435463341413,-0.1759967162842252,-0.20886144961182762,-0.05866878629004206,-0.042150051976243476,-0.07090305103196998,-0.12432374355837644,-0.14086751128915054
0.588,0.2170507294729854,-0.06624238014899657,-0.28353989802235785,-0.07292945770833832,0.24888654657437687,-0.17575723457744893,-0.21602117337542096,-0.04509792585150495,-0.03208520916320696,-0.06216425445851831,-0.11713512136418018,-0.13739955865359044
0.59,0.20449133226951965,-0.06679299641257899,-0.27129792340933867,-0.06717383877342985,0.23662041484668045,-0.16998306176890918,-0.22027317449821718,-0.035232448353302276,-0.025142346341162285,-0.06608974776720347,-0.12162924002933098,-0.14121762128508716
0.592,0.19060166905548107,-0.0653644238387127,-0.2558219261511541,-0.061924249094628334,0.2218795003486283,-0.1617225190877494,-0.22004548727982412,-0.030342684949872804,-0.020190125998200442,-0.07626859029574957,-0.13008592423182264,-0.14748986802610015
0.594,0.1792582311053388,-0.06456022489258614,-0.24361414134134027,-0.056770963560177905,0.21003556672152462,-0.15564797166180225,-0.21897304598303216,-0.02769039175926563,-0.015373316419624842,-0.08045627500887535,-0.13207721022590221,-0.14970578054288936
0.596,0.1728683201026401,-0.06202654492065879,-0.23459617209410388,-0.05414002180483671,0.20240765223558602,-0.15000131770577585,-0.21903710942669166,-0.023295822056856038,-0.008009286899688262,-0.06977308632353373,-0.12131927884879089,-0.1448376787004257
0.598,0.16864098045550235,-0.05742975595645024,-0.2257015709103551,-0.053907997906938954,0.19612811157272167,-0.14277671483724955,-0.21975239389041012,-0.01777310114708564,0.0008568362136351251,-0.04924201823740145,-0.10258120140641928,-0.13786831613427528
0.6,0.16135595029769653,-0.05645076502638426,-0.21753945236889582,-0.05103951465749022,0.18891846952798994,-0.13779854865429964,-0.2197464972188129,-0.015141202867160733,0.006969400404881919,-0.03380359610224408,-0.08874835252175454,-0.13684343956445946
0.602,0.15021684388264073,-0.061053629121793435,-0.21114069252789316,-0.04343870838043055,0.18064853644682513,-0.1371449765339633,-0.21699154918070163,-0.0149542836645717,0.009882766935018121,-0.031935483995154126,-0.08789931768856815,-0.14201222196542804
0.604,0.1416649852219181,-0.06361285753292496,-0.20507911745890292,-0.03757131291066048,0.17331184775723144,-0.13582604643355825,-0.21067855242388683,-0.011708951777341903,0.013959411401850686,-0.038102828268526304,-0.09574121436752006,-0.1453184973818602
0.606,0.1416917092880181,-0.058004577630892784,-0.19931994339974815,-0.039835131540440515,0.16965948010961074,-0.13000804703439117,-0.20247465055973685,-0.0028437062242467628,0.02142475039664099,-0.04208647636794284,-0.10189956069318935,-0.14197977272981882
0.608,0.14564916823805701,-0.04993488677081969,-0.19516277686861297,-0.045817513806445755,0.16845939783885605,-0.12338795171854552,-0.19413009908681486,0.008342950697535663,0.029744389819027994,-0.040329993862118906,-0.10108799895454287,-0.1364056706179569
0.61,0.14287704910946603,-0.04924962894523121,-0.19177138588256704,-0.0455301503034814,0.16466878818638286,-0.12148937368319114,-0.18507289843450983,0.017699055048520703,0.03594098311296653,-0.036697591429005506,-0.09690835502600943,-0.1343295067748946
0.612,0.13194940793619178,-0.05668833930487038,-0.18835376062124187,-0.03724229901866108,0.15746468221948018,-0.12461525443851697,-0.17302215253804173,0.024136342770156603,0.03956779493732551,-0.03577122244153313,-0.09545137780733468,-0.1350159069270706
0.614,0.12182304945861629,-0.06417233833075088,-0.1858287054198487,-0.02851929802447178,0.15163577158380812,-0.12816686123802198,-0.15683508165111745,0.029238448468986218,0.04269653014443785,-0.03626881876653298,-0.09607933346469359,-0.13366523974011413
0.616,0.11606204215394891,-0.06585874632167917,-0.18193843479512964,-0.023844231398764522,0.14758672124062616,-0.12702329475993632,-0.13876785520830343,0.035294544528882,0.048956531829697524,-0.030903378236016302,-0.09108903474475674,-0.12694821401446243
0.618,0.10694385525347862,-0.06363988710874237,-0.170798181821498,-0.019254713245083443,0.13803447170810806,-0.11930628954856037,-0.12238965190175574,0.04343877914554074,0.05979484710257699,-0.015724152425149754,-0.07674297538515455,-0.11604491526085774
0.62,0.0896517718771308,-0.06162680408707133,-0.15167718792569337,-0.01145803262456047,0.11964112439872408,-0.10765447459270475,-0.10906703030372471,0.05252139821355371,0.07106724615801263,0.0017608380265412647,-0.06082600158696767,-0.10694323788750537
0.622,0.07173547177985197,-0.06087378227289848,-0.13312248758138648,-0.004024411833442832,0.10073958731868231,-0.09753415388989224,-0.09869678531764825,0.05964091023229921,0.077021923597737,0.010382573746292317,-0.053501156815899904,-0.1049712658253956
0.624,0.06213339910062526,-0.06078077421580066,-0.12333009451029107,-0.000768903704412481,0.09092959462083045,-0.09258473060365056,-0.09102752249007857,0.06330351859143336,0.07835637774309133,0.010820382974219521,-0.052766766114082375,-0.10731382951153845
0.626,0.05826667091931114,-0.06025215616032158,-0.11855919979191341,0.0002774282606484726,0.08724012794235274,-0.08997963060444879,-0.08422574224608294,0.06616138429846072,0.0826877398853471,0.015553158431077909,-0.046469655115177894,-0.10499379489398714
0.628,0.05003897947848313,-0.057448005705975906,-0.10703678027741967,0.003485987522019263,0.07783202077312647,-0.08297109343554002,-0.07638063053604337,0.07206994339096726,0.09472386950562112,0.03089219316613038,-0.0303897236748203,-0.094629888194422
0.63,0.03378022243768087,-0.05224111155341193,-0.08522969664314725,0.00998718096952792,0.058718558241987,-0.06998310411067267,-0.07002327675845904,0.08055162628661429,0.10851090819383771,0.04543404860497251,-0.017541039209563205,-0.08460570696653223
0.632,0.018364914799395803,-0.04724765112742024,-0.06478538905811641,0.015917465156069704,0.040601565749634444,-0.058065471664032024,-0.07005548985958229,0.08698159972681793,0.11358995823778464,0.04305960134360415,-0.023372049644428645,-0.08533188230836614
0.634,0.016042569428555215,-0.04450764486761127,-0.060003274371341585,0.015711958209682006,0.0368440853863634,-0.054983289248750046,-0.07503597443961448,0.08859948013733919,0.10845222898464936,0.02535975094416645,-0.044468321909947935,-0.09527081451865899
0.636,0.027546349935875434,-0.043429000527231774,-0.07085499163118249,0.008939303273342759,0.04771752227008921,-0.060051960715165276,-0.07616701241108274,0.08833928815666071,0.10313937058662981,0.012443328725135561,-0.05983923095591158,-0.1022679502969875
0.638,0.03997338456195708,-0.04288462915767539,-0.08301346393540404,0.002425342883791104,0.06018129940389359,-0.06559805684086208,-0.06865213742334036,0.090748054251127,0.10654467143235849,0.01952871368804352,-0.05442968735790429,-0.09889666962913694
0.64,0.04142895098373706,-0.04283650831024532,-0.08440756139637383,0.002485603456924048,0.06254912121645263,-0.0660046429313972,-0.058726133189752484,0.09522361991012045,0.11610219311056934,0.04068602477880281,-0.034028871300492904,-0.09019114372172861
0.642,0.03158239342211355,-0.042931437512350776,-0.07450744423528162,0.008204504948487002,0.0533195797886272,-0.06108664379443898,-0.05450237210438606,0.09795736469753588,0.12446474673923726,0.05948151772088599,-0.014517643428119982,-0.08400209070027082
0.644,0.014415398493814825,-0.041853577775711595,-0.05619157555191418,0.016073476321865215,0.03477744969679753,-0.05137800688299281,-0.05453285552091373,0.10012240603208647,0.13116908256238421,0.06891834911496257,-0.0035910138856230143,-0.0803545037153621
0.646,-0.010340038262025782,-0.03963188088149711,-0.02923612377396306,0.026695364789234146,0.0073982257874710775,-0.036523512246419254,-0.05108202315540774,0.10730467804496013,0.1410030496702588,0.07494242738385258,0.0024121634977020906,-0.07516077070018834
0.648,-0.043889563546669744,-0.03929624085038628,0.004699058590509942,0.04303625605753173,-0.026799284440400604,-0.019169240860089438,-0.04067654574135396,0.12095465823939036,0.15459788273410138,0.08369837075394854,0.008041916201434412,-0.06928188993849091
0.65,-0.08194538940884674,-0.04258839878859565,0.039653903048029335,0.06383562357821289,-0.06234328051096413,-0.003485076954563719,-0.025948444173991024,0.13663708293024088,0.16729315148417329,0.09262017082809144,0.011451355501184042,-0.06720131782436863
0.652,-0.11129942564571774,-0.043117968842324376,0.06860343260631488,0.07892784063416342,-0.0905421910880509,0.010621928631485224,-0.01151947627171235,0.14980813682123717,0.17605168118436054,0.09632681325887453,0.009446037856656736,-0.06832797337037497
0.654,-0.11554015406771588,-0.03154361243696031,0.08426840481308234,0.07525406639979998,-0.1007601394624301,0.024612835616203855,-0.0025240234038270085,0.15914370296747937,0.18302537640645403,0.09652347917348858,0.005978152025941537,-0.06588975218619426
0.656,-0.09389406603909611,-0.011451642718430388,0.08242488338844273,0.05403917371611377,-0.09020552611546902,0.034135907826390505,-0.0019330839692873008,0.165403679871104,0.19200203424818865,0.10113395694171382,0.010209499659101747,-0.056147899479687305
0.658,-0.06857460386159193,9.110013211854819e-05,0.06849294620747164,0.03512875380507635,-0.07154538549773612,0.03289696365047696,-0.006078275541810571,0.16977506385565372,0.20361895089885593,0.11466839136339675,0.02596798754804635,-0.04395116084649314
0.66,-0.06414694420000061,-0.006723905141733529,0.0572436111692178,0.03639933078638805,-0.06377351871977449,0.02387111570560776,-0.0061996437534757795,0.17414480958194864,0.21518591324116598,0.13282246486788551,0.04715612121099425,-0.03464744077171558
0.662,-0.08721467155802189,-0.02257572922567568,0.06451038398298047,0.056435053378990414,-0.07825538276365439,0.020222347419041123,0.003800010535008584,0.18164621662511032,0.22464351256348583,0.14711937311271764,0.0642283916777484,-0.02455360098201844
0.664,-0.12735323330312814,-0.03369928369897356,0.09374997748790931,0.08212668006137787,-0.11196530219638604,0.030180324983094732,0.02043258174696816,0.19344941856035608,0.23240987960410317,0.15241448746813302,0.07158964584677081,-0.00816410114410504
0.666,-0.16504408132912968,-0.039143018114644414,0.12639965640100664,0.10303052927624945,-0.1465067773169634,0.04416468889266002,0.032659288234799536,0.20508041620041897,0.23873802002192945,0.1492482589531923,0.06902821070313173,0.008292017355928112
0.668,-0.18024219214761672,-0.044395968324672304,0.1364975293246042,0.11299327789062028,-0.15953458068225762,0.04626822024230625,0.033874960175411147,0.2106671940250294,0.24317805347744653,0.14307221044478077,0.06118680121061779,0.012514048165625017
0.67,-0.16848772602704049,-0.04659751003263432,0.12211771977710156,0.10884944047951509,-0.1476024244867418,0.03731578454245784,0.02922490554824872,0.21112184264947345,0.24783578810786744,0.14204758229962716,0.05582343967103575,0.0045371796578948295
0.672,-0.15011751769618606,-0.03875075806096327,0.11096164636200305,0.09618812349733621,-0.13342398150607096,0.03508901097024207,0.028750427203538487,0.21389287695895132,0.2564809374477551,0.15046969842280417,0.058204968304148674,-0.0015778713028863239
0.674,-0.1518728298342674,-0.023404162390828383,0.12793553883037304,0.08890469205057033,-0.142103008977397,0.05118548124948362,0.03704563531121442,0.22398025755612502,0.2690222127915513,0.16391266447434644,0.067412892840588,0.004517554525631845
0.676,-0.1770944369424638,-0.010328588447543207,0.16676587267874485,0.09448134283723604,-0.17316356344539638,0.07772397757732334,0.05011803371502118,0.23748853923778745,0.2805904191485964,0.1750035645316709,0.07971644654321641,0.01837827976658928
0.678,-0.20275651796000665,-0.0031395624234957136,0.20015915051855335,0.10426403385067849,-0.20272007806033693,0.09868960405179483,0.05978716963580728,0.24567803221119802,0.28692612711587945,0.1820622597655242,0.09239604667653861,0.028861747552910568
0.68,-0.20867866640251664,0.002034572989932205,0.211176831426968,0.10570277627980078,-0.21185245460329782,0.10673584702790154,0.06132491724232749,0.2449326701257875,0.28812172903691374,0.18761831800309162,0.10283174534670755,0.03059067392347237
0.682,-0.19985268422904465,0.007931964756322197,0.20768037418329677,0.09857222918058603,-0.20566369250050895,0.10718316958612911,0.05732755638407644,0.24090027714229062,0.28781628545484705,0.1922855146314441,0.10816505434232217,0.026913021027825987
0.684,-0.19208090209267117,0.01623423399267165,0.20772305986864523,0.08969057176416925,-0.200930451356288,0.11082378973887831,0.05457446529760226,0.24291737980722317,0.2908353679427914,0.19496206697040036,0.10766003681439665,0.02471037490458036
0.686,-0.18843762948177134,0.029672109785633293,0.21741764488243426,0.0804157888187762,-0.20332497248263073,0.12259960527562874,0.05781252273158029,0.25513539779392413,0.2992610367608708,0.19552834851673478,0.10314990701429604,0.026767534784668104
0.688,-0.18501706875639146,0.04299635114634066,0.22749326565019168,0.07214153102767405,-0.20678167718844365,0.13471322084407836,0.06552223872888928,0.2723833755681313,0.30970888289975623,0.19485453437079442,0.09795935612087349,0.028830243669774783
0.69,-0.18631140470265253,0.041480406551867605,0.22750001070056028,0.0736892579671143,-0.20791484425626874,0.13395204852431006,0.07067982128817794,0.2846226140684489,0.3169610724507765,0.19432669426407692,0.09588658864767792,0.025759974324666344
0.692,-0.19742710102206723,0.02131982253930752,0.21865350663936278,0.0888889603476491,-0.20954778656581313,0.11906107874595218,0.06842736350459652,0.28760518011917674,0.32075372159338417,0.1964989376644674,0.09957640648454,0.020166508234284106
0.694,-0.21083211394962392,0.004024312669572799,0.21489591272703365,0.10401971805837351,-0.21468929270849355,0.1081032412404908,0.06473832994581537,0.2898549486500714,0.32846040766401857,0.2067365293096092,0.11150947738896927,0.02323466721036001
0.696,-0.2151077816821554,0.014156446757831115,0.22935333659925097,0.10178784646984676,-0.22394992675709802,0.12019449437509347,0.07083157268775166,0.30341501347865396,0.3478082049782023,0.22983383294182896,0.13396738919634862,0.04336672271798634
0.698,-0.21364745690743403,0.042661358882591024,0.2564583475579327,0.08756487507296132,-0.23648780012681467,0.14812947871743157,0.08589443340990775,0.32521191406418676,0.3737463048155464,0.2595505278141489,0.16134223767359007,0.07173623428693542
0.7,-0.22277508958172415,0.05289033671275434,0.27596773560638554,0.08672099409566071,-0.2507458574323458,0.1632232832109445,0.09544072158017579,0.33723055331826113,0.3896814243553556,0.27879969266922444,0.17871736367034805,0.08685868727333357
0.702,-0.24708045889853963,0.031144517161293545,0.27862560974124334,0.1086882830094429,-0.2640342456979814,0.15373895921708794,0.09081064066875656,0.3299943557773498,0.38774940406029446,0.2789187295722268,0.17819386372072998,0.07994796019998412
0.704,-0.2686892269981161,0.00692519732770904,0.27587278491217165,0.1307954292013996,-0.2727095871200748,0.1403364317701818,0.07963923574676375,0.31579567063488784,0.379162298901143,0.2708549729803562,0.16962983260183034,0.06629141932696546
0.706,-0.27092572385053393,0.008975316262747567,0.2798885724282282,0.13074781997067136,-0.27519066911633233,0.14352947164122512,0.07280986835800493,0.31254187806016176,0.3780484532987724,0.2681746849356464,0.16573384033360136,0.06338056900544438
0.708,-0.2589093705791804,0.028215802285049153,0.28698414969428926,0.115508430463248,-0.27307461901070607,0.15645529645866263,0.07087894084970013,0.32256787643876594,0.38427253556298385,0.26910445102441216,0.16522844537432166,0.06868333255004519
0.71,-0.2451779981839888,0.04271868631411562,0.28782856084923886,0.10193372839819198,-0.2675370570816838,0.16351026300201338,0.06908105017055122,0.3348869638886086,0.3897732496582308,0.26673507668834007,0.1610817819164867,0.06996997181824782
0.712,-0.23144526736885526,0.052041882659786244,0.28352833661337956,0.09052990451214413,-0.25891013641951793,0.1657780438426781,0.0682896005076174,0.34309581440011633,0.39391262247077186,0.2652220800886585,0.15616113354852884,0.067266870414818
0.714,-0.21683151462867245,0.06494162515188934,0.28182987490876227,0.07645828217729879,-0.25052869708010034,0.171663533861219,0.07309709448168834,0.3508318232928826,0.4023062724520571,0.27114654756510614,0.1575765536561185,0.06962779157066983
0.716,-0.2088339272922076,0.0756363662332437,0.28447530277991007,0.06718577265605749,-0.24772023345077704,0.17864131632037697,0.08210672198224539,0.3608697895480742,0.4143069708251093,0.27903206841587636,0.16261217381521487,0.07711601393213269
0.718,-0.21293806227875278,0.07502852981823939,0.2879381735525033,0.07026405250220387,-0.2516902948110166,0.1803517202939244,0.08858804847499846,0.37060474362883933,0.4236006904771766,0.28155534305112573,0.16527618416725065,0.08223030585339984
0.72,-0.22071561175459525,0.07042905819259417,0.29112836439731193,0.07677669822609007,-0.2572022012132242,0.1800854344441556,0.09042904035073158,0.37930610416535143,0.43027839542820023,0.28539656575186917,0.17062620070104956,0.08429776952210168
0.722,-0.2212044271440451,0.07249521879973991,0.2937073474236904,0.07517521495160874,-0.25840675721669076,0.18265987992664373,0.0907336430743029,0.3881139517471656,0.43838074805120913,0.2981123086989281,0.18407526360062468,0.0868286625386642
0.724,-0.2185940301796857,0.07292706076515791,0.2915336610540363,0.07249772785875168,-0.25586782658017476,0.1815678747004565,0.08904246493495091,0.39269664278958344,0.44232200798905064,0.30686825164918785,0.1923609404631519,0.08529788512827685
0.726,-0.2247180264746888,0.05700451055716957,0.28174627799754626,0.08327377544518022,-0.25450788746069497,0.1684240719438869,0.08179653039484375,0.38804349462832416,0.4332615161911619,0.2934131388407485,0.1780879902763285,0.07286361226379762
0.728,-0.2376012043210863,0.03188617248978593,0.26961269410676336,0.10311131716241524,-0.255647519392987,0.14979155497446664,0.07091470987700225,0.3797640132193582,0.4182715308121838,0.2654581386792886,0.14924411883360877,0.05498795767338137
0.73,-0.24280770433951515,0.022067229291321183,0.2651985047689894,0.11157787514460091,-0.2563619229123768,0.1426438764955445,0.06340125844239577,0.379001508767569,0.41477750082434045,0.2501990638295428,0.13221143736355223,0.04567240078745079
0.732,-0.23572765994928882,0.03870723996164563,0.2748589406439751,0.09997635737147531,-0.25704277359046007,0.15551013139215128,0.06398723317078275,0.3875277456056637,0.4268242451323827,0.2593430674963504,0.1388139121498763,0.05118316009584299
0.734,-0.22731224902288627,0.06899972293060719,0.2965702981628274,0.08039568648752404,-0.2625172092627504,0.1813335132866775,0.07296137533967229,0.39777120899971197,0.44207399589831275,0.2790527847308283,0.1575546371629567,0.06562852755600462
0.736,-0.2243696662781623,0.09572285511699524,0.32006739505150217,0.06549203658805032,-0.272121231923831,0.20670522393425264,0.0864790306896036,0.4051586246724921,0.45027767513363215,0.2929695248022359,0.1736465833969876,0.08020268079833487
0.738,-0.21840080121533106,0.1145783897589756,0.3328321355682267,0.05339869522263546,-0.2759010233560134,0.22295035798385024,0.09583734072330043,0.4114520175892648,0.4531886932551165,0.3006073948814852,0.18401539660890845,0.0910059083210909
0.74,-0.20069331167191326,0.13036912243132942,0.3309763789286971,0.03698196397659641,-0.2668130762527032,0.23004297111432778,0.09301764972720461,0.4174091899324202,0.456991032910809,0.30991448420167167,0.1929933762829082,0.0986836010675353
0.742,-0.17813659160751896,0.14403467246800997,0.3220863353724512,0.018647239351114776,-0.2510344399619311,0.23225907997604522,0.07945562990940704,0.41896163484965043,0.4611801053308113,0.3191261366275417,0.2003601132517074,0.10354473279496061
0.744,-0.16616704938747678,0.14732589311170324,0.31320061603187094,0.010392944083586413,-0.23985561648317535,0.22930782482262987,0.06348346487951767,0.41150109217790304,0.45694318963456937,0.3138538305956848,0.19702562241087868,0.10236741802513616
0.746,-0.17010703790248188,0.13182523334101737,0.30138066429931093,0.01997297412445952,-0.23549112948832185,0.2156110134972115,0.049015008180036186,0.3958766329016262,0.4381890883698658,0.28622472720373404,0.17653576520571243,0.09173328033622927
0.748,-0.17986316631470917,0.10190146744639546,0.28115180624322866,0.040327088731275225,-0.23078103338846995,0.19062823342915672,0.03320624709430346,0.37897951587582746,0.4126470724776016,0.2508396807822821,0.14938234364680353,0.07450893015232982
0.75,-0.18211602351970724,0.07493687779453857,0.25666238221007515,0.055092360025744816,-0.2207023707800727,0.16498992570802626,0.015615865795468,0.3685249268897395,0.39624621128304754,0.2320479993406495,0.13585831375848703,0.06031497881225281
0.752,-0.17260685768675227,0.06834665347366853,0.24100588669678444,0.052805411444604114,-0.20892324450016328,0.1535238955581339,0.00282271774606389,0.3678437473114915,0.3961701850330776,0.23737069618628576,0.14318075781217668,0.057644528188962325
0.754,-0.15702169875275737,0.08513474913110636,0.24271677247281634,0.035638819259031514,-0.20227091551915222,0.16190515352980803,-0.0002935136305636567,0.3732681157237038,0.40390687786504975,0.25124356087344013,0.15829917326727133,0.06521503380191762
0.756,-0.14454708599791496,0.11138122940824127,0.2567792355101553,0.016339669799029614,-0.2027804947176634,0.18128705840869896,0.0006238179109126682,0.37606182738585975,0.40614043627809254,0.25565259494636267,0.1650315012848081,0.0732534927661944
0.758,-0.14546158338048465,0.12877436309854115,0.27493648638360274,0.009112967562212231,-0.21149897974449777,0.19911504759785262,-0.003978143882823922,0.3714982450355114,0.3998996029997999,0.25086995089781516,0.16215332921339007,0.0748995058874089
0.76,-0.17222075372235715,0.12845194846879357,0.3009818938904447,0.02335073685764215,-0.23719676246524532,0.21289045697262898,-0.014212602687835198,0.36512800624813535,0.3936201584477571,0.25028164985903295,0.16127787740604388,0.0734004861156861
0.762,-0.22545921282970027,0.11566627959020663,0.3412563229768664,0.05608802357425573,-0.28422974064627654,0.22768397548318886,-0.02132084666247541,0.3638958312610663,0.3933150911047616,0.2583105428005103,0.1693769238538558,0.07584550463476802
0.764,-0.2763703576640838,0.10388520557734232,0.38048514183131477,0.08691285448533287,-0.3301966908866386,0.241922322783094,-0.021699105263244086,0.36303332506470093,0.392827662452538,0.263208720636282,0.1791523257388631,0.08294273618041512
0.766,-0.28728568652695585,0.10173728535262341,0.3892606985746913,0.09346554675820078,-0.34016495285169973,0.2450818283445939,-0.023189020870000004,0.3510396977125376,0.38205173806974846,0.25352749294286664,0.17996728381180374,0.08918680609463266
0.768,-0.2557979848435931,0.10737308092850918,0.3631399769133402,0.07527093822541274,-0.3104989805575277,0.23408475521695513,-0.03382547845032929,0.3281978526517093,0.3616900440503872,0.2334462452366206,0.17277712277563087,0.09153200306536415
0.77,-0.2177961571045549,0.1145385946547485,0.33204054918677633,0.0528106503830515,-0.27551787080970463,0.22102460777237234,-0.05118974094627756,0.30736198771314827,0.34118960748165233,0.21501997303292583,0.16539595908424393,0.09164145694172414
0.772,-0.2019901783784287,0.11688508766589266,0.3186834567301463,0.0435943491028339,-0.26155455734961736,0.21474294838723884,-0.06939270633965511,0.2922603359860271,0.3215902326260833,0.19919360439750308,0.15591015016725315,0.0888347368985416
0.774,-0.20125055350064447,0.1099171363465964,0.3113609898560529,0.0467594965463187,-0.2579630834246402,0.20774944344891244,-0.08755218510214928,0.2726180401611398,0.29461600155604095,0.17648746681221325,0.1350650655531094,0.07888280785910086
0.776,-0.19928274401267526,0.09465670305346961,0.29440662690328967,0.05369826977325623,-0.24780319174375023,0.19263518915815,-0.10324394849607363,0.24740580548107222,0.26335559124142105,0.14816423072286733,0.10713048268873503,0.06387359537140572
0.778,-0.20304525351126296,0.07560965315257463,0.27912656922338697,0.06517914413376896,-0.24098539569558697,0.17654336270275572,-0.10927087124372638,0.23104938287225812,0.24520425288595984,0.1308803211563204,0.09160522534493162,0.05465656480048124
0.78,-0.22542092776794384,0.05676443552435838,0.2825072289831561,0.08546283547855998,-0.25371753960500065,0.1693067584166678,-0.10478694750074055,0.22930415730402043,0.24648010309815185,0.13399232735693867,0.09842608374280352,0.057515394266065376
0.782,-0.25393978956451796,0.044299996336638954,0.2983641477011724,0.10559835194227178,-0.27691978063051065,0.17087161591569605,-0.09883623568701097,0.22997173742229005,0.25216490428772176,0.14696097349957996,0.11609363975824652,0.06658054908121434
0.784,-0.2623305499649555,0.04616561797042397,0.3084596693439162,0.1089463539478634,-0.2874826757824695,0.17640278925579542,-0.09847927318034927,0.22266744657166798,0.24721914501107975,0.15434977506645625,0.12809766638679065,0.0734444465341756
0.786,-0.24216606575126753,0.06152035546685067,0.30360653376390423,0.09179348897221377,-0.27548247261861913,0.181235802597132,-0.10257460571072419,0.2106560339430628,0.23238654108136553,0.150159839457139,0.12788540891903175,0.07500700572625585
0.788,-0.20949196494144692,0.07597835318533727,0.28544472787860525,0.0688171858717848,-0.2495230485526209,0.17909670177209494,-0.10860340746648306,0.19986131347031258,0.2152454093526453,0.1355610259804542,0.11650382029541471,0.07000309103185907
0.79,-0.1900180311861571,0.07472981124038942,0.26477612538575884,0.05955519255651871,-0.22882941095057996,0.16777947525116044,-0.11686452469663512,0.18966932442253234,0.1988635379864511,0.11494529545710529,0.09826410100272248,0.05785559264723253
0.792,-0.19863524080460784,0.059080602852139716,0.2577432256487886,0.07096848685063699,-0.22970655829914877,0.1560323822297175,-0.12615114698745433,0.17820047631325744,0.1832185845106793,0.09580462230375462,0.08105363308693471,0.04280394470272625
0.794,-0.22460067800267428,0.04493756507563123,0.26953626243889744,0.09066401299672061,-0.24883827340816242,0.1548576651963914,-0.13175915486102513,0.16765495236794586,0.1697539405376108,0.08471195999534183,0.07246410370018691,0.03228842035594129
0.796,-0.24566041030952532,0.04311872434358357,0.28878532896886805,0.10221386633050979,-0.2687208647709165,0.16413137511778064,-0.13036998312957418,0.16088692240039287,0.16044029354248723,0.08263221448964822,0.07313389330646425,0.030184114163205888
0.798,-0.25980944558247904,0.046108164947636227,0.3060205482066567,0.10758018126180552,-0.2840500695904548,0.17470649689807533,-0.12452218817984437,0.15676812693624848,0.1549351554884552,0.08559118488654086,0.07718938858346379,0.033939620639339085
0.8,-0.2833779229284555,0.03984624596509677,0.3234257712025401,0.12200741269577563,-0.3046457795594085,0.1800229403301949,-0.12068226678345731,0.15147213150411926,0.15100618301101038,0.08803221613424972,0.07936100608283225,0.03760171924425963
0.802,-0.3163786031603295,0.023121106845941364,0.3396010298695046,0.14711069372139082,-0.32950747008641734,0.1792022107474579,-0.12327127323674748,0.14320826323838512,0.1465981806727493,0.08612435135442069,0.07879048281907039,0.036751896173946315
0.804,-0.33519675337031396,0.007245865471632517,0.3422754832366617,0.16549845044126818,-0.340398063156839,0.17263770788436386,-0.13168857705578857,0.13356112241878726,0.14001111077577588,0.0799355101617592,0.07641218510508131,0.03139160097191993
0.806,-0.32472004300456153,0.0006215950782086615,0.32505704358523924,0.16423328576304125,-0.3267906550058153,0.16139178408417254,-0.14189934291286987,0.12464674057230381,0.13076912262055881,0.07299527115007265,0.07337465890543649,0.025497905585059242
0.808,-0.29844026440376203,0.00033413115538814315,0.29867463646185277,0.1508218985701825,-0.30067816095168787,0.14876243439606124,-0.14863469515663028,0.1172104214819606,0.12192254736171894,0.07000205612843481,0.07250105589777349,0.023559502579617843
0.81,-0.2832157286857023,-0.002011405066276338,0.2814193124354275,0.1434252527339117,-0.2841939761710829,0.13929052803971959,-0.14813878774045372,0.11113280799272256,0.11749608138766171,0.07407335199795169,0.07705831944611909,0.026550830005395713
0.812,-0.2935241193497886,-0.009610916604139172,0.2843294092713086,0.15188412880782606,-0.29037465116854483,0.1368990279972439,-0.14191349551944746,0.10542381731178341,0.11647027715237522,0.08337284639755829,0.08609117073497025,0.030923822788359142
0.814,-0.31918684230868455,-0.01809793897632586,0.30139054501732543,0.16952118553135292,-0.311896767900186,0.14105088389022438,-0.13670556439566753,0.09802220873858843,0.11269816591669099,0.08923531211305014,0.0917553506301422,0.030410246426790313
0.816,-0.336291823577142,-0.02318975235355388,0.3129752122484615,0.18173436333361587,-0.32695313120243896,0.14423285307188247,-0.13847865063985382,0.08830454046697483,0.10169004511817085,0.08196897932732239,0.0852075914993341,0.02058789615725142
0.818,-0.3341476067009919,-0.026679213512802027,0.3070099068199393,0.18283546242230775,-0.3231978051173123,0.13914302852332955,-0.14567795983388,0.07960665555897997,0.08672446177348185,0.06255331246740563,0.0682931168739988,0.0051758371578201744
0.82,-0.3267391326056516,-0.033652849142842695,0.2928527020778488,0.1818759971068949,-0.3117508808701695,0.1277243431406682,-0.14982892352337002,0.07636354468415232,0.07702731470157,0.04453589603185908,0.054543907549709225,-0.005263941661843831
0.822,-0.3297874079462817,-0.046089725811334664,0.28414332333607883,0.1884159235225833,-0.30795241327427747,0.11651042605753491,-0.14588588714433312,0.07767711485745206,0.07701666331057078,0.03915522550790698,0.05342365142112341,-0.00541481845221683
0.824,-0.3378939471693104,-0.061316114627354694,0.2775235600148742,0.19933888708615077,-0.3084381732016743,0.10586095315866947,-0.1403524005922366,0.07636546919018307,0.07954523473500384,0.04303894914233649,0.059417656985079156,-0.0021300218632442306
0.826,-0.3390336579960625,-0.07620266894202762,0.26361723765479045,0.2075017696516611,-0.302703114664544,0.0922764613704102,-0.14285440344327158,0.06789144543757974,0.07632981876261308,0.047199031491539846,0.06345758314666092,-0.0040294958190703785
0.828,-0.3379470161198243,-0.08901920039870304,0.24910614600610434,0.21413523286365646,-0.29579329227272255,0.0790113692979594,-0.1513716422801124,0.05807883627936976,0.071604432500022,0.052903604975464584,0.06783737408742417,-0.008500446970464648
0.83,-0.346944818574233,-0.09655593974186631,0.2501340619868526,0.22289586649362608,-0.3012159824153146,0.07538383506938166,-0.15444587878879465,0.056521824468014084,0.07588502576787616,0.06865505808189318,0.0800917184372599,-0.00637736105997256
0.832,-0.3640114900395688,-0.09534865166348892,0.26844175516874447,0.23059149269378915,-0.3187642266351284,0.08463951487238697,-0.14775602185782086,0.06364617432316252,0.08844662284100002,0.0918455781429921,0.09637400276412,0.002500156567324341
0.834,-0.37619537125759595,-0.08862042755980339,0.2875974069226401,0.23306661734398693,-0.3342103842449994,0.0978353660935098,-0.1395849527039063,0.07019592117103622,0.09532516130206775,0.10300640156485123,0.1005654254527898,0.0062745274740987145
0.836,-0.37988516158130864,-0.0864449958607202,0.29356818291875014,0.23421676951120454,-0.3389566386729348,0.10273128454157807,-0.13820813043154695,0.06931548068295924,0.08652766125977993,0.0873301479241791,0.08334695316511456,-0.003740402320552985
0.838,-0.3851351547524286,-0.09498131583865656,0.29020301979109053,0.2417272749850891,-0.3396266706538966,0.09699864391853587,-0.14189066443664883,0.06369985259962878,0.0696707866404476,0.05828358312518583,0.05782122632428585,-0.020151971908989597
0.84,-0.39873122080675394,-0.10872511677208291,0.2899602788714388,0.2556664424868043,-0.34566650357195505,0.08927247262875436,-0.1440205942837089,0.05975779610348163,0.06118294009508961,0.04497623783175556,0.047103969944976544,-0.02837802571908774
0.842,-0.4131802217972422,-0.1165904384171128,0.29654120893801084,0.26681854217652184,-0.35577716262382997,0.08801266528825488,-0.1418687231561707,0.05945482578357596,0.06642025700073917,0.0562304818126313,0.057012186137594616,-0.025128675839477508
0.844,-0.41889394743494796,-0.1152757013167264,0.3036200347849305,0.26889896258614404,-0.36259301135896677,0.09256259612845177,-0.13806100750739694,0.06036103312582915,0.07581535289399399,0.0733382918721706,0.07172460253909253,-0.019408133890257553
0.846,-0.4183448004428955,-0.11350934464569949,0.30486279233938496,0.26737244836450524,-0.36363995356981804,0.09499268806377086,-0.13658341111551897,0.0603989522589535,0.07923555614789769,0.07778233781968504,0.07560147398714392,-0.018643872584521718
0.848,-0.42029680500292593,-0.12110666701926595,0.2992022124730232,0.27140308793180395,-0.36171517015828364,0.08887581411092377,-0.13802835320658696,0.05996529074078204,0.07623330661843153,0.07078162309465745,0.06916755411927002,-0.02233242233924341
0.85,-0.4287749281508197,-0.13840951137128008,0.2903562670376722,0.2833835339208789,-0.3607056007244699,0.07540403633330522,-0.13966117259243815,0.060388953188446184,0.07212851869541716,0.06412832419390839,0.0628784020709916,-0.02670998409637856
0.852,-0.44198063022171974,-0.15869160064205778,0.28327807107313907,0.2995408044534498,-0.3632108618799654,0.06093660246054073,-0.14048086481041777,0.061336676364258734,0.06991764450767642,0.06299396410380502,0.06213135135991492,-0.029951157110067708
0.854,-0.45419758509116454,-0.174705644662021,0.27951363919658395,0.3136618712973667,-0.3676344326861849,0.05085628198593328,-0.14125562289170732,0.061060103407128405,0.06865686784810221,0.06392339058808637,0.06378162545536332,-0.032170229446982654
0.856,-0.4602667293889767,-0.18170942268015777,0.27871642730651774,0.32061175669352876,-0.37059572567557736,0.04766327479384205,-0.13969977124397426,0.059287142513457174,0.0678055139717312,0.06507919484001326,0.06534181312685024,-0.032275524740508
0.858,-0.4626775607241806,-0.18019813549701877,0.2829410929790566,0.3217135441604945,-0.3737525424866368,0.05135766620200803,-0.13306608957978389,0.05737777125082084,0.06885974342425835,0.06948453446445009,0.06923005432319919,-0.028590102742144366
0.86,-0.46821642009331815,-0.1761254864540177,0.29283915804597827,0.32333596566800693,-0.38123432951443204,0.058345902991967555,-0.12484894387941592,0.05569920269825349,0.07175639556121827,0.07708096925729603,0.0760530233341765,-0.023208618242352857
0.862,-0.47564296921257265,-0.1742997966622883,0.30201885815838014,0.32682638411103765,-0.389942386571562,0.06309101225527847,-0.12233712673738874,0.05306716913146253,0.07347990188944267,0.0812424971941324,0.08069466695520186,-0.02176445182069978
0.864,-0.4745383171096839,-0.17254250420071454,0.30222548718951053,0.32518486434777355,-0.39020224893761496,0.06339764464902811,-0.12831335735250135,0.04904165236063327,0.07218677226218666,0.07722552940877689,0.07865467343000841,-0.02702378652886832
0.866,-0.4610274961475838,-0.166545320880936,0.29431195567811436,0.3146078324176297,-0.3793952196455077,0.0622096445311169,-0.13901988925209016,0.0459754913838274,0.07066533505185539,0.06969847895027045,0.0728100215301542,-0.03470843429675936
0.868,-0.44775855474782267,-0.15911597576981923,0.2884562088653308,0.3040033614808445,-0.3687363819600196,0.06282582387846679,-0.14888314002334427,0.0470100418031021,0.0729752593848537,0.06744560430757829,0.07011644209952128,-0.03845170224623466
0.87,-0.4495259598690005,-0.15873767630806906,0.29090216671341446,0.3052643562901636,-0.369861835466004,0.06406213443506577,-0.15451015984490818,0.05105016207804993,0.0780489283857042,0.07271123634635399,0.07269479016098092,-0.038214328011621675
0.872,-0.46466073573872485,-0.16841607793876298,0.29667407602473345,0.3180373419733278,-0.38040400991238527,0.06255125431688006,-0.15523150737445104,0.05281792046477978,0.08059336519253665,0.0800922049124786,0.07609877344847359,-0.039445610616179655
0.874,-0.48024855173565517,-0.1808143769022519,0.2999152865103644,0.3316986248554893,-0.39073075604738944,0.0591351661046501,-0.1517022506105127,0.05011379996346872,0.0790967937660485,0.08501015575433792,0.07663763404255546,-0.04406426730776909
0.876,-0.48978530515786445,-0.18608246330065414,0.3039312026375214,0.33876498314897946,-0.39828054247355416,0.059391526193398735,-0.1449688182305163,0.04746831239575584,0.07803729372839444,0.08782990297550354,0.07574156776586011,-0.04787237639522924
0.878,-0.49540517627041436,-0.18243612124284575,0.31289862368046245,0.33995106998378793,-0.40552411101074287,0.0653720744910668,-0.13857358397067732,0.04905695234199633,0.07988312879291583,0.08849868280592062,0.07489328263441937,-0.04778068864995871
0.88,-0.49755091194223455,-0.17783983360018107,0.3195587191618526,0.33907596161338405,-0.4093462806429525,0.06965785971569426,-0.13898496106395056,0.051344637499202185,0.08017458819853429,0.08393049735339918,0.07182706436093025,-0.046284911064813125
0.882,-0.4941205461366612,-0.18105069398237814,0.31302790154989185,0.3388747192951911,-0.4042161716075764,0.063450320794971,-0.14826589696077191,0.04827851869387385,0.07493954508739721,0.07468690485096177,0.06586354072067209,-0.04696908361450661
0.884,-0.4873048478812365,-0.19113593257059688,0.2962507167609569,0.3401231435166271,-0.39301715850254787,0.04958981639768221,-0.1588679771259521,0.04127418542978118,0.06811759729074869,0.06772435097883016,0.06143512684609041,-0.04998758982217345
0.886,-0.4816087832664262,-0.197929588746318,0.2838618838202084,0.340829770986529,-0.3846414894954618,0.0406681670719144,-0.1619259012267749,0.03726815547086876,0.06606029231747831,0.06750981449663127,0.06191046236131642,-0.05387690434496163
0.888,-0.4790489332061188,-0.1949547410489478,0.2844138700907732,0.33900482353320405,-0.38387255151846206,0.043687018676266114,-0.15786271352706088,0.038721048999922694,0.06875222280799966,0.07003564905178315,0.06436764786155602,-0.05783190654367045
0.89,-0.4816011381424889,-0.188456554747823,0.29353560630274467,0.3376496080185023,-0.38964232266862864,0.05237861322425089,-0.15416970327879093,0.04248221680377915,0.0720158696374339,0.0701418300476459,0.06425603170630949,-0.06044065573984141
0.892,-0.49039261662206857,-0.18868456861902091,0.3019527300396663,0.3413169541733691,-0.3978887743905101,0.05635577887270236,-0.15635040637382822,0.04671208093384433,0.07459888816087235,0.06925123672887319,0.061835332402331245,-0.059566478810764295
0.894,-0.5001958618705582,-0.19673746831153352,0.30342281014126304,0.3484425372179388,-0.4026802799829257,0.05249589973879711,-0.16456147700700616,0.05143577239517997,0.07682501622219233,0.07031052765067089,0.059966691303414005,-0.055714637749399
0.896,-0.5031583262036449,-0.20673466563890455,0.2961801527659706,0.3537733043752362,-0.3995944919675158,0.04381428950694661,-0.17616956588320046,0.052910260424351714,0.07524755700043419,0.0696757430877935,0.05799992615374146,-0.05395312976061276
0.898,-0.4973328122599171,-0.2143465128207094,0.2827040478204016,0.35494997563726793,-0.38981648213415715,0.03356810110848452,-0.18794863228713368,0.045817691013676214,0.06646457951491525,0.0619650027922653,0.05323495372730029,-0.05933452069475601
0.9,-0.48636904232327854,-0.21556243775511202,0.27061939333766966,0.3511638265036941,-0.3791404523501821,0.026690703446298533,-0.19554856726698788,0.033524950410462225,0.05589756894840426,0.05165562840732214,0.04811430697597255,-0.06948838311055403
0.902,-0.47579855673346727,-0.2061744929322329,0.2695174030311011,0.3421112093836246,-0.37407612860475875,0.030083699362098894,-0.19481155464169542,0.027863423862071905,0.05474686413756504,0.05137605426019077,0.049894149040469946,-0.07552611848600294
0.904,-0.4731298930256102,-0.19072753029899095,0.2822655636891049,0.33328858232921915,-0.3790859544842189,0.04377896055296317,-0.1872727790064682,0.03414774356595645,0.06621763610760142,0.06658081735605048,0.0613537081220815,-0.07239241048110942
0.906,-0.48447955630984346,-0.18265268386818026,0.30166449706834086,0.3345105011480513,-0.3943064151948752,0.05772827986144358,-0.18069646674009923,0.04434427833836623,0.08122093967360333,0.08804790689326782,0.07679072033606799,-0.06431644054332795
0.908,-0.5059056221305333,-0.18825678538017268,0.31755460949335673,0.34764936563644167,-0.413439491674903,0.06316733827537796,-0.18023228362664329,0.0488842877844849,0.08895282937150255,0.1012457459375624,0.08774882960161924,-0.05889822338560758
0.91,-0.5210310258038727,-0.19774081465916374,0.32320269265498924,0.36036109533520083,-0.42436722037346863,0.06131442984078296,-0.1826881781979012,0.04755334997300085,0.08640100137945529,0.0984973687634849,0.08812354488178749,-0.06053434168608296
0.912,-0.513905081873622,-0.19779415035134496,0.3158483352308804,0.3577121627135855,-0.4169197686121869,0.057548608698235935,-0.18196220666580432,0.04598508141708073,0.07759645044343616,0.08240682189817011,0.0760593754045603,-0.06965554932746122
0.914,-0.4881484656084885,-0.18875706045226537,0.29897860013212496,0.3406309524429565,-0.39515256308581925,0.0536050638631305,-0.17690865387401877,0.04675641400892955,0.06802812625195348,0.06265689531013569,0.05636187769262478,-0.08327813929003568
0.916,-0.4671561556865008,-0.18340912771145682,0.28346114428960534,0.3269704324006727,-0.37714673632204876,0.048581363357160956,-0.17257534369817407,0.046713556777640365,0.060781070388213225,0.049470944187711384,0.038587981915865315,-0.09587259063073796
0.918,-0.4683709686040668,-0.18991901763072372,0.2784575446008886,0.33031361252579733,-0.3757830811469642,0.04279569289022612,-0.1749719641265649,0.042661193816612195,0.05663658958853772,0.04632939501371908,0.0292058216976061,-0.10288238504722692
0.92,-0.4833481760620544,-0.2026703745892094,0.2808523757901515,0.3441279288160314,-0.38409861618532853,0.0374826900206012,-0.1847554092185365,0.03730252016680255,0.05585446635551318,0.04890785632763952,0.027626799968637032,-0.1039858333983539
0.922,-0.4904760557877117,-0.21228768896545802,0.27839710825463,0.3527203862777018,-0.38537925243947085,0.03172972874751953,-0.19642563510442967,0.03606830426134439,0.05807428072818023,0.051866430233993746,0.030175067624738032,-0.10246883831932867
0.924,-0.4821356757685673,-0.21849691092755727,0.26392312159602344,0.3518872832569115,-0.3737391862773386,0.022273884216700793,-0.20435505876443297,0.03939612084057938,0.06143615757011943,0.05383591769327951,0.034217629448092195,-0.1021071301223615
0.926,-0.46999984118507004,-0.2264344866250913,0.24392525801898143,0.34992375066331705,-0.35867748554086804,0.008865821006884355,-0.20808524470109174,0.04269547005337977,0.06398022282966499,0.055606043987651066,0.03803619792022283,-0.1043553180108861
0.928,-0.4647439764394934,-0.2337615255393255,0.23123115560337207,0.3508634408808437,-0.35049317137805897,-0.0017705763471017528,-0.20990028273973393,0.04387579068097474,0.06630485734601259,0.05855691812048346,0.04130769630157677,-0.10684144443515739
0.93,-0.46207472205569766,-0.23132389900953032,0.2307340112422685,0.34795081864437866,-0.348272647014791,-0.0019160691420983512,-0.21004221821397365,0.04593074039957696,0.07141743918891118,0.06546724202782428,0.046790304043655945,-0.10483934647281482
0.932,-0.45318092620122324,-0.21668032156708497,0.23624193256156453,0.33569832679137007,-0.34535372170035955,0.007922371874091163,-0.2082280767589868,0.050439423084010775,0.08094650558236316,0.07788676176089898,0.05730122886368448,-0.09585233540493468
0.934,-0.4403178848759532,-0.19841657411832128,0.24150269389129922,0.3197939633528103,-0.34137576054679475,0.020407875152727586,-0.20720478774333972,0.05366565832848841,0.0920653823735526,0.09206071943964099,0.0707728551930227,-0.08199656066152972
0.936,-0.43453636928626416,-0.18625718792886004,0.24791077659346525,0.31087599499199564,-0.3424846666503323,0.030356938141773638,-0.21082015058385342,0.05128880055285953,0.09844858549759287,0.10033058319575407,0.08076412200696019,-0.06764672792837348
0.938,-0.4391769315172243,-0.181602427144328,0.25750442913108657,0.31111555694543924,-0.34981296893061864,0.03762221612965859,-0.21920231018742764,0.043711735724748096,0.09562339718034134,0.0980810228109833,0.08172372774638778,-0.056758606658531136
0.94,-0.4431965801980172,-0.17835533267752363,0.2652029853158729,0.31160079606903984,-0.35493577553009653,0.04309875402262364,-0.2268201030151821,0.03658653189561315,0.08728478423062654,0.08998780192959356,0.07473377265553215,-0.051678919821269806
0.942,-0.43523990857232253,-0.1721393773663021,0.26366560176968074,0.304764576672237,-0.3499328299855161,0.045609935494424304,-0.22708285416623014,0.03604773087082924,0.08291601646134146,0.08651194246770316,0.06754997761089064,-0.05249192138672475
0.944,-0.41680288626014256,-0.16622073307950277,0.2510154389986779,0.2933050894505842,-0.335349887949156,0.042420563133709954,-0.22097113666733112,0.040816105229410905,0.08531931360849546,0.08982254613856223,0.06462826200051439,-0.05887290395075342
0.946,-0.3961678503723961,-0.1653708382659395,0.23105838186662028,0.2830492504388409,-0.3159506317056257,0.03287759610667034,-0.2170963739103925,0.04201760651617538,0.08546416575230724,0.08743308752831794,0.05892022745290971,-0.07190142558809252
0.948,-0.3781672778748956,-0.16809454056885548,0.2103050298924013,0.27482938024219866,-0.29602445173294695,0.02110019138934243,-0.21991778631658013,0.03510721750081777,0.07578208721053385,0.0686610989436463,0.04173577488487381,-0.0896143500209024
0.95,-0.36586408684445654,-0.17019304763317844,0.19588568775902865,0.26866781035843096,-0.2811353863446849,0.012732006533045863,-0.22383742851939004,0.027633711400790077,0.06388900430851471,0.04458794656753415,0.020080459179147137,-0.10262096499239243
0.952,-0.3655658710734043,-0.17162301690020057,0.19414089305448076,0.26913048285943214,-0.27914980035766135,0.010655374723850359,-0.22128509112088088,0.030306324829183565,0.06528806415961369,0.04003469936158198,0.013626233583436592,-0.10085305771415652
0.954,-0.3837936536353324,-0.17522781048353475,0.20896854766421127,0.2811008773216443,-0.29599115614172095,0.015558799787055919,-0.20993284491062503,0.0441596425545811,0.08388711471451668,0.06303387280362314,0.03047956813667543,-0.08519816312388245
0.956,-0.41773015352571236,-0.18238317416775202,0.23615945704275468,0.302512647022494,-0.3275688589581375,0.025427338628178715,-0.1930655404698153,0.05992444579948583,0.10531973507996775,0.09102834724494095,0.05354193560684608,-0.06877387930958145
0.958,-0.4490790195849417,-0.19131899989288634,0.25877216035225065,0.3223773922976404,-0.3553416518990627,0.03291612210466709,-0.17985828941519771,0.06715303143977515,0.11161449987129705,0.09525231723520698,0.058893229894828474,-0.06450259274272467
0.96,-0.45536964162768684,-0.1977038028023305,0.25835892010762673,0.327884517162886,-0.35838311369054676,0.030192544785762658,-0.18030990759130103,0.0631261537448737,0.10085734147234329,0.07477866322067497,0.04485224837442375,-0.07168040146976566
0.962,-0.43389348031173297,-0.19802370174236122,0.23597002478360332,0.3169854792239453,-0.3358633167620263,0.018699391813352662,-0.1925455954722723,0.054791019361786104,0.08836023371465454,0.056264533730499985,0.033055293884428676,-0.07765093372858405
0.964,-0.4044883399970483,-0.19043074586242978,0.21380861704649118,0.29896298801439175,-0.3092141757356084,0.010452722441453484,-0.20166202481772008,0.051498689061694726,0.08844876262102183,0.061895196496604216,0.041073622915969124,-0.0728132278935593
0.966,-0.38522604742246025,-0.17300253917446387,0.21204497453892582,0.2814266799831106,-0.298415952868031,0.017428432588035718,-0.19807542199173436,0.05583550863004517,0.10015067991081998,0.08730360507492574,0.06314956263833156,-0.06088526259682585
