time,I,II,III,aVR,aVL,aVF,V1,V2,V3,V4,V5,V6
0.0,0.00043879241376928345,-0.00043879241376928345,-0.0008556452068501026,0.0,0.000636248999965461,-0.000636248999965461,-0.002566935620550308,-0.002150082827469489,-0.0053532674479852575,0.003861373241169694,-0.003861373241169694,0.0
0.002,0.0030651077227068346,-0.0030651077227068346,-0.005976960059278327,0.0,0.00444440619792491,-0.00444440619792491,-0.017930880177834983,-0.01501902784126349,-0.037394314217023376,0.02697294795982014,-0.02697294795982014,0.0
0.004,0.00961348892163703,-0.00961348892163703,-0.01874630339719221,0.0,0.013939558936373692,-0.013939558936373692,-0.056238910191576626,-0.04710609571602145,-0.11728456484397176,0.08459870251040585,-0.08459870251040585,0.0
0.006,0.018065593249200873,-0.018065593249200873,-0.0352279068359417,0.0,0.02619511021134126,-0.02619511021134126,-0.10568372050782511,-0.08852140692108429,-0.22040023764025063,0.15897722059296765,-0.15897722059296765,0.0
0.008,0.02348356136622073,-0.02317640667658223,-0.04552308732966231,-0.00010969810344232086,0.0339348839913712,-0.03382518588792888,-0.13591107336833302,-0.11376184930144913,-0.2829715576611879,0.20362328444359667,-0.20414983534011982,-0.00021939620688464173
0.01,0.024918210983166045,-0.022662937473828935,-0.04660125696943888,-0.0008759750341190295,0.03526978823252442,-0.034393813198405385,-0.13498671311737173,-0.11242769209697988,-0.2780203910420666,0.1970253208742222,-0.20081314824491278,-0.0015325538613534173
0.012,0.027352422619519014,-0.01974700534025406,-0.04657081251815376,-0.003169649161085966,0.036719249468715194,-0.033549600307629227,-0.12360607296583306,-0.10108639618198156,-0.2457202096119181,0.16568755526888887,-0.17809971700897245,-0.004806744460818515
0.014,0.03440795367488734,-0.01848269113591844,-0.052716534530334556,-0.007029468646151796,0.04362844434851067,-0.036598975702358885,-0.12493034572586337,-0.09869470352814076,-0.23452162848280528,0.1458191397946533,-0.1707771989582227,-0.009032796624600437
0.016,0.04309542547924256,-0.019602746125329643,-0.06242799263605126,-0.010857380705237842,0.053096324209124045,-0.04223894350388623,-0.13843604089861827,-0.10531784516001982,-0.24855213192260392,0.14539104077391313,-0.18141532715572115,-0.011807599545175757
0.018,0.04757903057176462,-0.021912954464800835,-0.06884842483445307,-0.012330654406658632,0.058718599571445027,-0.04638794516478641,-0.14935228841020398,-0.10943393773696047,-0.26337462567117753,0.14872982388176442,-0.19242704843290473,-0.012864022598267886
0.02,0.04556927238413934,-0.02490294877161366,-0.06975258159717458,-0.010312139555002452,0.05821959032215595,-0.0479074507671535,-0.15025794942036394,-0.10538678829707496,-0.265718167964845,0.14268462742615906,-0.19476942992445043,-0.014680247130945545
0.022,0.04028643719859862,-0.028114279617530217,-0.06809574602892385,-0.006318729163588246,0.05472011326262016,-0.04840138409903193,-0.14601064692480653,-0.09811303106043306,-0.2620882465883156,0.12968204310385645,-0.1932159190031942,-0.018274142192559656
0.024,0.036787354554209194,-0.030436872145837804,-0.06738204150226763,-0.003330129992044454,0.0525166964777257,-0.04927432496843513,-0.14356513194359857,-0.09450773575340274,-0.26136726504665364,0.11926382051750099,-0.1936001562475733,-0.021378606590611707
0.026,0.036429674226548976,-0.032461663059743524,-0.06913429178761478,-0.0019477670155323634,0.05293273196407599,-0.0514882883896427,-0.14359299171491394,-0.0947978497458713,-0.2638270068044921,0.11460542086212452,-0.19616993721556866,-0.02232101637968954
0.028,0.03596250797070251,-0.03707837773784639,-0.07308150875597955,0.0006579156944700262,0.05414551252891921,-0.05606954718048226,-0.14240874527718764,-0.09408675326264962,-0.2654567720830658,0.11069133029777187,-0.19934642113784032,-0.022960614867011966
0.03,0.03223304273024186,-0.04527565753676218,-0.07737695532019337,0.006561756719237869,0.053918939618330775,-0.06234702158423395,-0.13877768692023779,-0.09027966674759441,-0.2648185596505275,0.10258034211437046,-0.20317339239240867,-0.026126192810022594
0.032,0.026220743677125003,-0.05369515955468597,-0.07970972150279458,0.013817994108796352,0.05189360504480701,-0.06746757747635214,-0.13560068524527583,-0.08633550977119346,-0.2635921657783747,0.09103010062063069,-0.20807437057138978,-0.03186317099379378
0.034,0.02210299576593539,-0.058006325226596496,-0.07980553322693859,0.018408672437198376,0.04996764854245175,-0.06922783288716132,-0.13532076901238088,-0.08449278850795655,-0.26335340707306926,0.08018370993988974,-0.21297460189452888,-0.03744069385193623
0.036,0.022946540551959892,-0.05673156649588675,-0.0793074912099928,0.01798210009592678,0.050263448871366675,-0.06782885864442084,-0.1368679574116788,-0.08293558437984468,-0.26391243175279855,0.07275001497894307,-0.21593968887722453,-0.04026714160108496
0.038,0.027300276491590107,-0.05147681581037399,-0.07853350374113705,0.013622237431017628,0.052125637855941126,-0.06453255026452595,-0.1378278856116631,-0.0798931526499839,-0.26431124559537755,0.0682366203544247,-0.21625124814573032,-0.04015045908962989
0.04,0.03092298198984088,-0.044852294077637106,-0.07577831212219993,0.008471617176106044,0.052602430229359294,-0.06008612394200056,-0.13714202616002213,-0.07688878996474027,-0.2638676029665602,0.06463015319058873,-0.21506221747160434,-0.03883577814975684
0.042,0.032263014064218,-0.03798001637247778,-0.0703714985198228,0.0040871858557698214,0.05057702009693926,-0.054506815877218416,-0.13436933519156083,-0.07557258374621827,-0.2615156271214237,0.06104279527860608,-0.21358508962988845,-0.037532448692236306
0.044,0.03379131668037361,-0.03022532903900794,-0.06408393722881185,-0.0007514435672947202,0.048123713410613465,-0.04774370153193132,-0.1285518551557606,-0.07442320530202598,-0.2557703270644922,0.05844487318525595,-0.2113783616849555,-0.03547691944006182
0.046,0.03711134384849545,-0.021802450353159874,-0.05887906647086105,-0.00670854501473604,0.04700119962824796,-0.04056062594167438,-0.12011954690912853,-0.07090218276882679,-0.247144253921788,0.05785474508784683,-0.2073297395867091,-0.031427461042257174
0.048,0.03982625533810107,-0.01510607189405873,-0.054901070275897655,-0.011559686207457252,0.04615337453182872,-0.03464103068901235,-0.11232360947657807,-0.06546924464034468,-0.23932610090228743,0.05846017979095942,-0.20198299212573068,-0.026206393799598635
0.05,0.0382365971003307,-0.013087457814204801,-0.05144852603463768,-0.012088076966670453,0.043499859891185495,-0.03189583103562097,-0.108932183673983,-0.062226101050697966,-0.23674351906793417,0.05766948725230139,-0.19841990810884413,-0.023354131868277908
0.052,0.03131483410707684,-0.01714663600169034,-0.04881449975048965,-0.006955049204431225,0.03867500335624688,-0.03341794372247699,-0.11097897269541722,-0.06526794912053777,-0.24128593934343567,0.05281084533221622,-0.20051372697857447,-0.026471506760443693
0.054,0.02191308833563494,-0.025542385413462914,-0.04789404493166995,0.0018482919286632509,0.03342251051291996,-0.038110641980175164,-0.11569406773064783,-0.07398113112034195,-0.2505382708850861,0.043381409308146865,-0.20934259512623607,-0.03500884162836047
0.056,0.01434295756222824,-0.03400974643945751,-0.048601913400515194,0.01017960098268408,0.0298082192501723,-0.04296264205025901,-0.11879533801944218,-0.08310589249064215,-0.2592835583629193,0.03186060837225376,-0.22142777193332353,-0.044227696109815105
0.058,0.010610975115666763,-0.039601714176918025,-0.050175285537303736,0.01542283560158103,0.028576734778105274,-0.04597459470081608,-0.11855868660756809,-0.08813559526109521,-0.2639157045631672,0.021766176180958732,-0.23136734308807352,-0.05060645563101815
0.06,0.00969181386073147,-0.04314580888670288,-0.05266773856010697,0.018240266392759906,0.029360223805468762,-0.04813382107995378,-0.11686131759621272,-0.08895223754853801,-0.2647591095622714,0.014881363770297978,-0.23593075458851007,-0.05478275429568013
0.062,0.00980474219889927,-0.04708633744179496,-0.056679983143583954,0.02040225220681311,0.03156161399470509,-0.051638170448468204,-0.11611642196533369,-0.08810799426451563,-0.26413875200660436,0.01041156049843828,-0.23575331219544093,-0.05818580131941342
0.064,0.010214588252989334,-0.05201266508595203,-0.06179644789564312,0.022325849479439223,0.03458969357544923,-0.0567589966428685,-0.11623551397470613,-0.08728851346494038,-0.26362786272844096,0.006717554828942349,-0.2337306263906405,-0.05999493939399832
0.066,0.011777353608419357,-0.055408024250332276,-0.06635930909597582,0.02249588834575512,0.03813206767351038,-0.06103029322466629,-0.11418006290383564,-0.08540722534323957,-0.26297984734432545,0.00400788181948056,-0.2316077487367936,-0.05859417855816897
0.068,0.016422471525519438,-0.053392345862421586,-0.0688088252273809,0.018519145534320183,0.042384968843517376,-0.06139982201482609,-0.10645211745928966,-0.08004215587664744,-0.2608024398452447,0.004298875596423828,-0.22882796505787262,-0.054180566953818
0.07,0.02509787080258769,-0.044580699343497156,-0.068973941936916,0.009572615489304128,0.04746039052118695,-0.05713329309533727,-0.09327010927709282,-0.07135017136818948,-0.25631697954731647,0.007752315817158852,-0.22525202224862362,-0.049369608354685734
0.072,0.03571520793358873,-0.03250486924031948,-0.06799049339612871,-0.0016367591061649481,0.05255769353324613,-0.05070618471219845,-0.07942246341233772,-0.0630870224173183,-0.25074570226317106,0.010952974491352628,-0.22285102628480685,-0.04712648748930838
0.074,0.04319320509406202,-0.02358911891074613,-0.06672121974243439,-0.009539633090538695,0.055566429548215904,-0.04586256491820684,-0.06995765115460816,-0.058684737021124436,-0.24709420080210354,0.010237986520132369,-0.22354570332183996,-0.04785289990908619
0.076,0.04261407621919883,-0.02210574371608654,-0.06462572167551721,-0.009532555754759267,0.05399808011540288,-0.04450101028443963,-0.0663498752940831,-0.058075349338394665,-0.24786242437174938,0.005493960303817039,-0.22722707552288207,-0.04936922527787287
0.078,0.03424321496472212,-0.02638587761158705,-0.06079357471233202,-0.002687394194589467,0.047684822863309925,-0.04510379577087486,-0.0667241565774885,-0.058926859509703874,-0.2520327563687965,0.00017785543093348875,-0.23246862925925466,-0.0497743300923384
0.08,0.024197275177335418,-0.030855495007179375,-0.055717305698363466,0.004884857166801492,0.03991478786945476,-0.044831443338947174,-0.06792361218250818,-0.05917198033201993,-0.2553196634592517,-0.002130391084117657,-0.23761472877247383,-0.04917263748417704
0.082,0.018004930867692275,-0.03288713118026633,-0.05168361033913462,0.009067577290695624,0.03456209763928894,-0.04358696906081098,-0.06725597343816778,-0.05764814236195797,-0.25425944710808446,-0.0011644298377081767,-0.24065405223716943,-0.048665089555217485
0.084,0.015310215932326504,-0.03576469179571267,-0.051390701702102345,0.011857956958672766,0.03286869492562266,-0.04468890700967979,-0.06389453044963125,-0.054061136749862855,-0.24930458253967114,0.0005006393989300942,-0.2398221540655339,-0.04874708402088568
0.086,0.012327513791640942,-0.043538240984724044,-0.05555571060355195,0.017196405760382973,0.03343680449363063,-0.05063846936191817,-0.05963920428229199,-0.049809979157628734,-0.2440759392260764,0.0008462914846789119,-0.23595387046308963,-0.0490617287060955
0.088,0.007483530162861572,-0.05509418018251552,-0.06197908423953951,0.025197786444855822,0.03437028679370595,-0.05959117654432202,-0.05734551310821697,-0.04741102589941333,-0.24192430134660842,0.0003546618492083014,-0.23273615232232908,-0.04938665690022996
0.09,0.003394255085211151,-0.06469519275434664,-0.067601709440594,0.03176255338392448,0.03513855833099968,-0.06690927693562951,-0.05782108308684758,-0.04775416093855284,-0.24291728824582703,0.0011405462374733347,-0.23317026221285117,-0.050578704273287166
0.092,0.0035985125545943573,-0.06725340503211207,-0.07056699558107087,0.03278680273004432,0.036321215397930276,-0.06912125074579707,-0.059245461588386256,-0.04916759851516994,-0.24450981378902698,0.004546962796944527,-0.2371189176740158,-0.053737523046115294
0.094,0.0077475956698018645,-0.06263104789151497,-0.07002859202905551,0.02839652702693181,0.037565257154345756,-0.06608448537352277,-0.0597347982863916,-0.049731453802220986,-0.2448060772590097,0.00912240627156596,-0.24261647728250096,-0.05797455901332239
0.096,0.011768516995657181,-0.05511379006709145,-0.06622874398456767,0.022695955303172626,0.037399976866331563,-0.06042398805237416,-0.05889151490416726,-0.048932831461874764,-0.24400135353612654,0.011991923241655225,-0.2478510556857633,-0.06048846593037364
0.098,0.013682619737022457,-0.048858941534792664,-0.0617370888679001,0.01880692939132319,0.03618825417611181,-0.05542279409728512,-0.056300513403992274,-0.046322574992926774,-0.24274239778939075,0.012903107383382285,-0.2512900740251144,-0.05949203242462639
0.1,0.016587762967221857,-0.04456604065334592,-0.060537509364196315,0.015499399896163451,0.03726826940576335,-0.05302525324149896,-0.050655709111635916,-0.04064382046632685,-0.24047904352118527,0.01459833906706908,-0.25127089502003175,-0.05560617196471936
0.102,0.024165713380668235,-0.040555389383510686,-0.06443914703243513,0.009827233929641492,0.04325083439565468,-0.0530725789467178,-0.042206712185759256,-0.03221091065758188,-0.2362968793164733,0.01821370068058562,-0.24716470926940756,-0.05043139962059404
0.104,0.03550505573123781,-0.03575057242906356,-0.07122618629032709,0.0015168647461189057,0.05248477958029326,-0.05400714950713537,-0.03430856707214944,-0.024240416260645187,-0.2304982410602217,0.021306679526324653,-0.2407649265563429,-0.045428551277946726
0.106,0.04584774910106307,-0.031021936230355842,-0.0769372757922992,-0.0065551140802332,0.06058543702380742,-0.05444780657297325,-0.030877429681398595,-0.019834266639993048,-0.22427448520297838,0.021638842353690874,-0.23527497000162637,-0.04242115259488359
0.108,0.051110658122892345,-0.028143912124302572,-0.07930035378495169,-0.011245044798220086,0.06449489682239633,-0.054200339621658856,-0.032961028136731296,-0.019062824898923046,-0.21868094226757157,0.020172668729306766,-0.23279724735164367,-0.04319013629422861
0.11,0.05111184476103532,-0.02779602662767734,-0.07890018672325783,-0.011829420141622339,0.06446986257800393,-0.05385618242659856,-0.037715377044962056,-0.01983915836096207,-0.21479679943119795,0.01921672374850413,-0.23302773192073883,-0.04701095784913948
0.112,0.04869883235875599,-0.02891801639672573,-0.07759090167030673,-0.01009667193840471,0.06269891880655461,-0.05382496452959932,-0.04081530931563385,-0.020553767222210893,-0.2136225447260202,0.01930847057927657,-0.2343215544638277,-0.05056943615520989
0.114,0.04557625179931135,-0.030380108669086466,-0.07594812139281111,-0.0076218559967929055,0.06015652124312044,-0.05399529293786826,-0.04055659700411272,-0.021591117651895652,-0.2151523258179031,0.01866428390793599,-0.2360498304880828,-0.052246233605468616
0.116,0.040432181495711664,-0.0326155290722597,-0.07305756376161449,-0.0038139877474345704,0.05584179931001763,-0.05420272678263515,-0.03884942068086497,-0.0242279589424903,-0.21849971075394045,0.015543632061309237,-0.23898936452152364,-0.05398380721576703
0.118,0.03250721280906253,-0.03668618205641004,-0.06918053257726144,0.00215862976652302,0.049808871054472334,-0.054813142145214766,-0.0381118796905896,-0.027971552524761526,-0.22285604409307783,0.011027352964811298,-0.24284299062921222,-0.057215662033012565
0.12,0.024491688148105366,-0.04246672166052452,-0.06680411762166863,0.009041402627655,0.044757618234197334,-0.05657242949803156,-0.038020440552675984,-0.030629095494055365,-0.22763797412563755,0.008030164684092459,-0.24518148782904828,-0.05988084353075606
0.122,0.01979185791672706,-0.04886113735184797,-0.068166889760259,0.014732683837610366,0.04339566379683194,-0.059856568545536615,-0.03443265645985977,-0.03180787524278301,-0.23195977230410916,0.0070257169112374705,-0.24381339154345597,-0.05900699432659357
0.124,0.018905936213578917,-0.0548221674713597,-0.07282280131473451,0.01840195160510498,0.045641488751223015,-0.06411698653660011,-0.02191517379033063,-0.03374019704268097,-0.23462272029595338,0.00535561069498929,-0.23917563602623274,-0.054430900939162745
0.126,0.019787630344763975,-0.05912669279599051,-0.07775750015389124,0.02026824830444668,0.04883843800566415,-0.06781508378635671,0.00017069621452364117,-0.03733047769132485,-0.2350969651136049,0.001803145690239467,-0.23425251537672834,-0.0492690121619505
0.128,0.020614801475272993,-0.06020457907526896,-0.07971023031739566,0.02036395890218763,0.05031723285193703,-0.06907019031398803,0.025365439546216513,-0.0401757370848866,-0.23415818535790225,-0.0010541059358476043,-0.2319663123815097,-0.046725433968441775
0.13,0.021867762520954553,-0.05653809090751124,-0.07757165083947697,0.017748108709224067,0.04984257048681003,-0.06655825263139621,0.04637208679075362,-0.039689518938185654,-0.23271543141778664,0.00011976154193881616,-0.23201704706397822,-0.0462888629170915
0.132,0.02597393388653103,-0.04726580115506036,-0.07277316132247937,0.010847387335518148,0.049563106320154114,-0.06012332750456351,0.06167361616201251,-0.03587001367591172,-0.23041073224725428,0.006349158729007245,-0.2311582856455192,-0.04464632221713997
0.134,0.03449614996022074,-0.03391670474754252,-0.06819211256644224,-0.0003131238817432523,0.051724475692633914,-0.05152417686331882,0.07463921599010184,-0.030471790860677674,-0.226416997916942,0.016210750705401972,-0.22713201188309762,-0.04079862214548881
0.136,0.04565907148197578,-0.020845935626868907,-0.06615687112660947,-0.012522783885950987,0.05635951092387628,-0.04397126570497754,0.08797200949824756,-0.025008062753741903,-0.22098763990457998,0.02728385743027542,-0.22092847700689172,-0.03734653690682402
0.138,0.05483947763840558,-0.012099995885710813,-0.06616290184341408,-0.02121469749181698,0.06075769476685021,-0.03955136145876623,0.09967088798233832,-0.019762240296397365,-0.2150568888852596,0.038074933186867624,-0.2146440473724998,-0.03576108801341551
0.14,0.05761959855850469,-0.008642654141194375,-0.06524480340027766,-0.023766639957777606,0.06143828952866402,-0.037612755062965,0.10483047946260513,-0.014517987037836418,-0.20935805655238449,0.048382777107335045,-0.20919417230611564,-0.034057843688066865
0.142,0.05329457160664792,-0.008788358909531394,-0.06137042058840381,-0.021151486107253873,0.05728882675570247,-0.03610736827934493,0.10229396738543148,-0.010162998996518173,-0.2050086318302901,0.0575134061071592,-0.20515527638239456,-0.03080510890905486
0.144,0.04554633647819314,-0.010112745340199911,-0.055552412638477676,-0.016768098270660076,0.05054263844869803,-0.033901606655600186,0.09694464284310457,-0.008533496722607704,-0.20333333905514595,0.06390903252107742,-0.20349255651476883,-0.02788968940546258
0.146,0.03879271259385429,-0.01142323366806332,-0.05047208736971158,-0.013310130162028479,0.044383938823300426,-0.031754520861278446,0.09303449654008884,-0.010542047386494502,-0.20409526912398956,0.06707874614113521,-0.20409124931907385,-0.027444632736650505
0.148,0.034296822987789403,-0.013500083465243158,-0.048004181844855755,-0.010671841961225935,0.04029424813723478,-0.03137112574934899,0.08902024748751718,-0.015143281573508872,-0.2053637750343147,0.06812240431061894,-0.2052749854436034,-0.028760052545431312
0.15,0.030474040977053602,-0.017469236862413688,-0.048034299721171216,-0.007103864889357034,0.0378210600337653,-0.03347457455855502,0.08210002411130826,-0.019710409690253214,-0.20564371037159512,0.06827227150871418,-0.20560350565712887,-0.029705597553141144
0.152,0.025998035060498206,-0.0225924284320291,-0.04877854542245932,-0.0020981069793140003,0.035825780840278196,-0.03663560638677682,0.07385807373306236,-0.021734694481795862,-0.20511582295035374,0.06793233535231291,-0.20503537724104492,-0.029471747659495322
0.154,0.021604242673706343,-0.026092195427045342,-0.04793128396560825,0.002347471993944804,0.033541684926412255,-0.03787721317870799,0.06822826326632714,-0.021037059801448647,-0.20470959413393097,0.06658706053296566,-0.20386953132046223,-0.028845368498287404
0.156,0.019044863988336873,-0.025539691730687437,-0.04440646640856256,0.003635325744863786,0.031018462020262833,-0.03520787659132434,0.06668084080632412,-0.019653986725300263,-0.20479913431423713,0.06359559526989562,-0.20152097640229413,-0.02866999336004381
0.158,0.018898426214679624,-0.021810278234413942,-0.039820916545066316,0.0017032577808005715,0.029007928551539996,-0.030267449524733165,0.067520257420661,-0.019296823245421167,-0.20506218255276043,0.059847317045689984,-0.19724740686510567,-0.02892654713036492
0.16,0.019696373462699462,-0.018930569096562367,-0.037338277822226054,-0.00036302389325589397,0.02813742017722566,-0.02727347157870881,0.06821030407407305,-0.019848684743524733,-0.2053584540642061,0.05738032210743769,-0.19186856609015412,-0.02894730852363339
0.162,0.01897742086626072,-0.020628214973182773,-0.038537229590079804,0.0010780986934548916,0.02794572376621102,-0.028988210915532185,0.06702061744401117,-0.02030626417572258,-0.20656499606997558,0.05629529516922894,-0.18819112289238468,-0.027729877006778876
0.164,0.015476419898566234,-0.027495041377362084,-0.04250210459636644,0.007071404320830988,0.027534075349713482,-0.034847573135374475,0.06363474194397331,-0.020227596233119524,-0.20974637183442513,0.054303928417482585,-0.1888414394470497,-0.024647088051437713
0.166,0.010828727863523277,-0.036730322278644374,-0.04760421007632444,0.014843717349639554,0.027283600950039243,-0.042262572308169585,0.0596384248880183,-0.01994181001201647,-0.21398626713953572,0.050634314108437044,-0.19296972482491873,-0.020798093751630824
0.168,0.008500736370014852,-0.043916266808279425,-0.05263905063953593,0.019843476237737558,0.028644425095180427,-0.04842233588760869,0.0576813623882929,-0.01962885100761282,-0.21637953074582933,0.047673675237188406,-0.19630099788070535,-0.01833129447781064
0.17,0.011114805464056406,-0.04509306675002718,-0.056415294532865846,0.01878439111961215,0.03238532563244711,-0.05106524738047475,0.05926652362975289,-0.018426772023985703,-0.21482942835068009,0.047434189397187215,-0.19528494065248964,-0.01729911027701228
0.172,0.019589159920051714,-0.038239026541907195,-0.05807137004302725,0.010617392970538434,0.03831295789549758,-0.048916208545451735,0.06352785644809311,-0.015256629711665207,-0.21007548041625218,0.04887280134683946,-0.19032695123122415,-0.015332299801101401
0.174,0.03328634899889868,-0.02514591536656936,-0.05865506203901517,-0.003139495783196624,0.046193371748672656,-0.043104038435680704,0.06780749804186886,-0.01101965947803395,-0.2051960631538411,0.04976516152575446,-0.18507271168709005,-0.011645663502362704
0.176,0.0489827728679553,-0.011658935206657046,-0.06054873833771337,-0.017867810511388558,0.05520298849309327,-0.037366826334143295,0.0695370050878838,-0.008621661582778405,-0.2033231138768526,0.04921929535576619,-0.18312994822144843,-0.008663598292825456
0.178,0.06007862421189287,-0.004363778982795811,-0.06390007045554533,-0.027010293066111645,0.06202544540998247,-0.035002896317264005,0.06808275138503403,-0.01016790661605727,-0.20546960467667275,0.04726452637782188,-0.18544503577038637,-0.008423192874668944
0.18,0.05966630292920117,-0.006465323420046588,-0.06544201846526475,-0.025655778340825806,0.06185313152915945,-0.036174232311072876,0.064517703634237,-0.014922595914794006,-0.2102283413593708,0.043858222629595475,-0.19032176579905624,-0.009873053633521034
0.182,0.04729952024644502,-0.0154279453383495,-0.062386542771641726,-0.014953823309946287,0.05354244668318342,-0.03858426931613,0.0600289041902413,-0.019804472393807594,-0.21478609053128117,0.03991770063206484,-0.19484398425221058,-0.01077128369196632
0.184,0.03084040203446953,-0.02480454374400189,-0.05589360875315917,-0.001942024020195684,0.04184749873317728,-0.039916012458432994,0.055519730179413224,-0.021678191733111387,-0.21672219997657066,0.03768044242484265,-0.19647945789320642,-0.010222081438716786
0.186,0.018451497880937917,-0.030296631046239874,-0.04931541296769721,0.007293450588388096,0.032362693222407965,-0.039641613488298894,0.0526064311764172,-0.019530726694081502,-0.21598959367981696,0.03864738603738491,-0.19441430737091672,-0.00826251589469887
0.188,0.010864642669684534,-0.03312435332295745,-0.04435432623175543,0.012846655108592779,0.026135493652324187,-0.038848621328701836,0.05323351956071803,-0.014771104418345959,-0.2146383531806666,0.04236825577296143,-0.18982394419403917,-0.00485574185925561
0.19,0.003554074860461958,-0.036700575181364804,-0.04021031303738722,0.018332997932218324,0.020593822439044153,-0.03859430147862497,0.056940981581589924,-0.010213463904497348,-0.21431536173512006,0.04748031316667707,-0.18530222479176517,-0.0009176128736284282
0.192,-0.005697477608174824,-0.04183230225291836,-0.035923053256017495,0.025092693547118745,0.014242136834827822,-0.03888905655393719,0.06049321267286305,-0.008277889649550365,-0.21464668221731087,0.05276263204140053,-0.18309399111573463,0.001427943770590311
0.194,-0.01272423787207469,-0.0455293956017752,-0.03272055867740464,0.029760009642940056,0.009681233635691068,-0.03905658290870184,0.062104829427289336,-0.009010692285375946,-0.21377189071299008,0.05714610503784385,-0.1825894313425006,0.0012279144649521411
0.196,-0.010564946285177686,-0.04357069247173557,-0.03305533061577771,0.027188339739224625,0.011374904626372043,-0.038263218416213135,0.0635379028135795,-0.010361734500934347,-0.210410485765531,0.059648580478892994,-0.18100822249551024,-8.851476169367367e-05
0.198,0.0021184287705474465,-0.034720886238860715,-0.0367880847345276,0.01633752509604845,0.019636061684644015,-0.03569640112483038,0.06632239543405515,-0.010684524088542532,-0.20590505478117027,0.06001817173517375,-0.17756479936426156,-0.0006840114065640709
0.2,0.01798418900838486,-0.022861007915402565,-0.04053933062325463,0.0025723882187906645,0.029066961923371815,-0.03155560473310349,0.06881755165645038,-0.010353215395919515,-0.2033735086390067,0.059218963806136116,-0.17483378731101193,-0.000501828318901635
0.202,0.027844652214578658,-0.014844175110229802,-0.042353818339892,-0.006445351102875009,0.03436601859090185,-0.028556461336752402,0.06854015775959763,-0.011228122690168972,-0.2045077918662383,0.058610619434836427,-0.17535532586158567,-0.0012993315825515714
0.204,0.028336151018648056,-0.015664014838140148,-0.044051380813646485,-0.0064376128557368465,0.03497867435412365,-0.030377686686869403,0.06512611029053086,-0.014589576511399256,-0.20846905458100484,0.05870349300691498,-0.17901397779559053,-0.00454250036196289
0.206,0.022535985396498873,-0.02419086461289729,-0.04718909825899901,0.0008436870100964283,0.03327597974829319,-0.036950722136559054,0.060070175047210336,-0.019094967651286487,-0.2135826771487777,0.05906576169576549,-0.18405362415745607,-0.009033632756066584
0.208,0.015876411073972786,-0.0341937643571385,-0.05046751445079779,0.009554541533811679,0.03143544860500373,-0.04388820629633712,0.05465938015111634,-0.022043320883071375,-0.21872343576217207,0.0589708411860548,-0.1892135868655348,-0.011951958521410842
0.21,0.012590051289879554,-0.040966943788005764,-0.05344222798106071,0.014858918603597478,0.031582450481287966,-0.04838468399707148,0.04849398505572225,-0.023623433319797636,-0.2234756546044006,0.0575220437790474,-0.19455421288777164,-0.012932463496154055
0.212,0.014113566614113135,-0.04496151302908135,-0.05839314046998833,0.016068311332741145,0.03559588134524009,-0.052201846333049425,0.040429003351663634,-0.027415711505533936,-0.2279908629885659,0.0541157719399995,-0.20026489734951625,-0.014634170314192903
0.214,0.01842825191575191,-0.048079600176383,-0.06547996204162199,0.015308646747424309,0.042073580841353715,-0.05695491416256963,0.03123726437773667,-0.03511640482991982,-0.232674841447298,0.04990053638545919,-0.20501753275092682,-0.01821479519237504
0.216,0.021588495757347465,-0.050288840721426135,-0.07076520402253916,0.01476482180242445,0.04654513166491083,-0.06080390074043637,0.02347996688948748,-0.04373239194669099,-0.23781323056617887,0.04720285648321514,-0.20711170220106057,-0.021485104983439383
0.218,0.02159884090005003,-0.051648554519070015,-0.07220428712951873,0.015492983428777425,0.04703388824986138,-0.06233709008550358,0.017469624057464734,-0.04975315135748693,-0.24353796595959354,0.04617734075513726,-0.20753396184746548,-0.023008453243484592
0.22,0.01999206407248528,-0.0538677410346677,-0.07289036800381903,0.017468847832995724,0.0463160457555144,-0.06353670773550055,0.009598379449406074,-0.05335473073771893,-0.2494850917139339,0.04433379773574448,-0.20936612593250659,-0.024504497159664452
0.222,0.019157295780032058,-0.05747609612673888,-0.0756688470165763,0.01969153712966308,0.04728247555118594,-0.06620189831578609,-0.003365566436572316,-0.056956305339011755,-0.25413748418072185,0.04070999287129945,-0.21329924550579332,-0.027354277985511936
0.224,0.0196885851179951,-0.060062798286621394,-0.07877398994749792,0.02072943437473305,0.049247005369802796,-0.06875534171015132,-0.019997786666963644,-0.0619630818552859,-0.255939720747023,0.037474513745347535,-0.21625185878094955,-0.029760489744284187
0.226,0.020987163647573193,-0.05895109225400043,-0.07907297774127765,0.01971536327200742,0.05017963553304815,-0.06866118397612636,-0.0358747847126529,-0.0685961675968237,-0.25578156923278317,0.03587052718505565,-0.21513780877722183,-0.029011807734321195
0.228,0.0231412773303648,-0.05430541351550913,-0.07691826951363305,0.01670725389932572,0.050302301875743166,-0.06600808476268033,-0.04816713091358873,-0.0769096131740312,-0.2568047193447666,0.03404028949635802,-0.2102914169303124,-0.0249081426556935
0.23,0.026911879778376575,-0.049239847678608686,-0.07606075429045829,0.012603351007981016,0.05189164839674196,-0.0636409027646326,-0.05743801867264613,-0.08589839908168075,-0.2609554369343601,0.030737011994766496,-0.20513127693681493,-0.020248949315748124
0.232,0.032034166008884465,-0.047306562687913584,-0.07952917405583117,0.00903241697352276,0.05612379607942305,-0.06447955269463347,-0.06572484996208286,-0.09340104216791097,-0.2670210505507853,0.027559590113252343,-0.2031745877816964,-0.018340010269926165
0.234,0.036275192845012634,-0.05011864985644255,-0.08668077426415052,0.007924193734696737,0.061234956040490854,-0.0692581141222876,-0.07351814902367876,-0.09862968126671968,-0.2726796032907428,0.025215561078761255,-0.20543405988170538,-0.020311113959714033
0.236,0.036697612595321026,-0.05704872932369017,-0.09421042656756386,0.010670718251284609,0.06420857480659999,-0.0764782562150804,-0.07892183402082172,-0.10282831659314305,-0.27723690388874195,0.021179671568980103,-0.21029239874898625,-0.02473451352729424
0.238,0.03239582695536202,-0.06572912263120395,-0.09892825445727682,0.016789793686362787,0.06373057662425488,-0.08344525704783085,-0.08026069889507553,-0.10649929173837122,-0.2815987532339771,0.013777994654685157,-0.21483607322618392,-0.02888218963785
0.24,0.025785854653623277,-0.07283643345422593,-0.09959923156798635,0.023467578358576494,0.060986381861416375,-0.08752808285419698,-0.07884085450742057,-0.10852157882304998,-0.2864178042658909,0.005547434767318825,-0.2169085715736452,-0.03078922897033385
0.242,0.020578869447044665,-0.0756817808750792,-0.0969415216800511,0.02742638353545733,0.05795025015610522,-0.08736307152835684,-0.07811093686636514,-0.10892029864950667,-0.2909705401316867,0.0002616571755332661,-0.2173363215844479,-0.03139190158800869
0.244,0.0186884271246835,-0.07374015780920393,-0.09254171118652682,0.02741877679709923,0.05563766474377536,-0.08352190409652026,-0.08053397952415718,-0.11010939582433764,-0.29376096296008486,-0.0011238407459987255,-0.2189549156167022,-0.03345548455342782
0.246,0.019277209930099036,-0.0693793817938346,-0.0884203086614776,0.025025991367276148,0.05415740314534709,-0.07869780920027306,-0.08584791002767647,-0.1141654364996939,-0.29416327010034077,-0.0004022347147954249,-0.22245811195303397,-0.03742138323932052
0.248,0.020175485700729284,-0.06661257511288893,-0.08660858358511202,0.02331243553744125,0.053529125166464755,-0.07636849734737813,-0.09210348829718208,-0.12048488446482762,-0.29333402316481155,8.632658863877527e-06,-0.22541666891928167,-0.040593713660518026
0.25,0.019602997305108307,-0.06802428902532455,-0.08765956959921516,0.024573721562453358,0.05354533882575821,-0.07811946592598264,-0.09793303983867646,-0.12714862558642248,-0.29340962530906234,-0.002084848439534804,-0.22637701726248663,-0.041486651305496274
0.252,0.01678793511029971,-0.07286677374903731,-0.08976510610136561,0.028909871190508897,0.05316594361451879,-0.08231992941707823,-0.10309028464328748,-0.13294890374107943,-0.2959214292993405,-0.008101645153049007,-0.22737562537322964,-0.04234192646920269
0.254,0.011979860388568606,-0.0778512787930982,-0.08986667545813182,0.034300400899668015,0.05091692103282392,-0.08533391042942687,-0.1069809564638193,-0.13703080357259811,-0.3007315236186808,-0.01686490706686575,-0.231048355429076,-0.04597524396269507
0.256,0.006488135782075421,-0.0797282478640743,-0.08617365100930306,0.03812417382925526,0.04638735660801877,-0.08443595199958841,-0.10830842353645836,-0.13830925967239951,-0.30611268416005183,-0.02445756402379844,-0.23673815462330827,-0.05172119686922613
0.258,0.002551519213567586,-0.07752876136016071,-0.08004061047138215,0.03881624846323115,0.041326256295510184,-0.08004343763198697,-0.10623321944332814,-0.13606820590908666,-0.30967978328955165,-0.027356853219155042,-0.24017713922556058,-0.05520841688692576
0.26,0.002469637581570773,-0.07274309252270297,-0.07521707841609718,0.03629225729315525,0.03882699169980184,-0.07511315024404122,-0.1006003211112486,-0.13011202085147364,-0.30953413775048727,-0.025230871259941147,-0.237171419087831,-0.052173546303248976
0.262,0.006797603770464571,-0.06820128459757581,-0.07502258864931696,0.03186431464109229,0.040885843147828616,-0.07280121393067766,-0.09172457744076244,-0.12084884007831112,-0.30549293678409956,-0.0210013850968557,-0.22838379257512886,-0.04322498716427524
0.264,0.013555887808770983,-0.06608991530375176,-0.07965474478037757,0.02747095803551632,0.046613643770196826,-0.07409034790389216,-0.08108697693932679,-0.11008784562185789,-0.2993057915147608,-0.01840160251236874,-0.21933095326560886,-0.03363706210840225
0.266,0.020183760087718796,-0.06564255741317374,-0.08581765600896316,0.02370274419116744,0.05308930755985246,-0.07662415992488385,-0.07163608834872363,-0.10098311630662699,-0.29291333558282184,-0.018703233593771698,-0.21463715242447517,-0.027350080756933882
0.268,0.025499455318473745,-0.06403581621076454,-0.0895262558647433,0.019664657436730924,0.05776035125829419,-0.07692223886813984,-0.06634656886235506,-0.09625862049713402,-0.28720786668017373,-0.020167133624785248,-0.21416056725070648,-0.023682129946830062
0.27,0.02904442123109203,-0.06054898686907514,-0.08959382876151542,0.015598840760583052,0.05976765031350022,-0.07446064623148944,-0.06583534491854999,-0.09606847335579416,-0.2830164132025954,-0.02075758489474403,-0.21507116916815755,-0.02081403871272311
0.272,0.030008698929764002,-0.05800863307306029,-0.08802245292397129,0.013717984787147818,0.05952377312485488,-0.072225407873468,-0.06780425166273882,-0.09805628930013291,-0.2815182557838644,-0.02027165345979027,-0.21552641847852982,-0.019086866810980083
0.274,0.027451644428351896,-0.05975439333650652,-0.08720825417512704,0.01608150093818626,0.057490728866041334,-0.07325549103467198,-0.06978744866951894,-0.10025296225935422,-0.2829992956827166,-0.01972061660285608,-0.2159601293977306,-0.019702917833706812
0.276,0.02111667823560728,-0.06650460566638046,-0.08761954796366786,0.022807329874843456,0.053750579228063304,-0.07779525508894922,-0.07186333224848801,-0.10280530947302907,-0.28661559571889883,-0.01971967947967726,-0.2179415304050409,-0.02275653125299319
0.278,0.012576501809244864,-0.0756703987719948,-0.08824486185883115,0.03163927452333333,0.049037991333443276,-0.08342110448734008,-0.07558751942454792,-0.10589146776701348,-0.29141151989243813,-0.020018492011943313,-0.22217353474787807,-0.027408357066694755
0.28,0.0051072262695614,-0.08321413168685145,-0.08832133149564705,0.03903664417543292,0.04510717927503681,-0.08735604265629474,-0.0809582939663749,-0.10786214616818957,-0.2963784204712664,-0.020051905911205054,-0.2275029145579569,-0.032487415591678136
0.282,0.001520544428151373,-0.08649778937330448,-0.08801943374117685,0.04243054000293723,0.043394945128721794,-0.08857546899108033,-0.08542116679818798,-0.10677294107100704,-0.29957276371477826,-0.019191062478804692,-0.2314394583676207,-0.036225632087994085
0.284,0.0026363098605216525,-0.08519734905696603,-0.08783419874901707,0.041261939986715866,0.044107987242924605,-0.08762549218949219,-0.08581866155412607,-0.1027393811241751,-0.2989120421816421,-0.016664487704602493,-0.2315479089683877,-0.03642750431664199
0.286,0.007414752732804054,-0.08049593950376462,-0.08791034982679666,0.036563369496268726,0.04653805187629028,-0.0853509693471658,-0.08135461613573661,-0.0982982322099023,-0.2950410276024001,-0.012140852897745198,-0.227347816080333,-0.03229353919580168
0.288,0.01356611359690025,-0.07470141753624804,-0.08826707298081397,0.03058865546227994,0.049715580941394354,-0.08270596085975261,-0.07455690620608561,-0.09625792409119459,-0.2916190141987102,-0.00630082395003621,-0.22089864143080717,-0.0258841716994061
0.29,0.01857153434636722,-0.07103273497383157,-0.08960423734255503,0.026228204077346315,0.053095478047612145,-0.08130805461457924,-0.06907206640952983,-0.09695999496482112,-0.2912431819632418,-0.0001226153249692132,-0.21456895582004026,-0.02068161302140977
0.292,0.020949924069307204,-0.07186480025381747,-0.09281495907326735,0.02544483365095905,0.05647532272637664,-0.08273434626372272,-0.06681385829706789,-0.09835896654326202,-0.292819226439396,0.005703321344006815,-0.20918279772461607,-0.018683865470985772
0.294,0.020935070451021907,-0.07606240033521942,-0.09699760036671409,0.027558952726654547,0.05912508524211041,-0.08636675728096946,-0.06714638560401653,-0.09871367399120995,-0.2938389042914171,0.010061197109003736,-0.20518606831161768,-0.019218972224032328
0.296,0.020105588437424736,-0.0791322929223366,-0.09923781514586599,0.029572828964561534,0.05997298430542975,-0.08894337892608734,-0.067952307807339,-0.09781972958196612,-0.2932809902304222,0.011896356295316098,-0.20329131273820247,-0.020150159216427075
0.298,0.02028300518132961,-0.0766490736215903,-0.09693197646045126,0.028516105521415553,0.05875507173760964,-0.08697595834548646,-0.06687656891284374,-0.09527777824087948,-0.2912534199796651,0.012604379067690893,-0.20255021157358669,-0.0196226808321682
0.3,0.02258763121999826,-0.06721572945116572,-0.08980334792126178,0.0231872044507918,0.05631843089952193,-0.07928159373151304,-0.062058552957940556,-0.08968400114863202,-0.28781949288173775,0.016021133152903613,-0.20045451917682083,-0.016811157790899946
0.302,0.027026379119397686,-0.05338905533187633,-0.0804154842118937,0.014563415686795242,0.054077731997635936,-0.06808078646850552,-0.05312291562711562,-0.08123262165949666,-0.28390539044118884,0.02447335294902535,-0.19656891285933575,-0.01198021098572421
0.304,0.032278066945554476,-0.0404584760442644,-0.07273657371613527,0.005601283104672667,0.05304968865579024,-0.05793725763864656,-0.04183932080603007,-0.07341520037164725,-0.2816957111557236,0.035845557541876634,-0.19389261060044236,-0.006695026337112877
0.306,0.035724588045492583,-0.033702146533786816,-0.0694267221003207,0.0003103263046424214,0.05287387020655742,-0.052812558216911026,-0.031020818511778396,-0.0707378025503782,-0.2826613850132167,0.045018152965245604,-0.19582670854738296,-0.004077908385040376
0.308,0.035028133795952404,-0.03575484372117172,-0.0707829547884227,0.001512193612377042,0.052544740318934635,-0.05403730290980041,-0.022935821725775254,-0.07523459601726025,-0.28636660400128544,0.04760828480597982,-0.20301125928849173,-0.0072583224566633705
0.31,0.031011288083196527,-0.044521760058048164,-0.0755330440948307,0.00791782566522831,0.052325807389795434,-0.06001919616496408,-0.018793679577224345,-0.08451687657096293,-0.29147188413051167,0.04318453697825744,-0.21260535874407377,-0.015682362539043346
0.312,0.027234976640541433,-0.05400085786140734,-0.08121390535205367,0.014634466955432164,0.05321961138942571,-0.0670330048273041,-0.018550550297178236,-0.09349881733317957,-0.29695696447163644,0.035606677678765346,-0.2205606132775308,-0.02457603296975461
0.314,0.024967960681689678,-0.059273232269088795,-0.08408794477429,0.01837934822614253,0.053974914293448965,-0.07124100449593827,-0.021305875615138106,-0.09931518122745556,-0.30252851144138304,0.02970507928519935,-0.22553570271386886,-0.03010595739499166
0.316,0.02124634127408733,-0.06007506235814617,-0.08084072691571782,0.0204426911225312,0.051056271130180186,-0.07076189263233033,-0.02672504275603769,-0.10308510211583574,-0.3079778399525571,0.02762085164915774,-0.22935016584030024,-0.033165935855332285
0.318,0.013940031948070723,-0.059099684205749396,-0.07215837109309257,0.02335804031658125,0.04331324219145559,-0.06662697770079541,-0.03514177474356528,-0.10625722016412611,-0.31214751605891233,0.028249467726309953,-0.2330940887948383,-0.03681959823293021
0.32,0.005585680509559715,-0.058330089480818754,-0.0629102038843851,0.026968149934866712,0.03432822649802503,-0.06173884584785805,-0.04545524292270443,-0.10805201052154058,-0.31333936908465154,0.029520716565610106,-0.2350918280820109,-0.04186368329917931
0.322,0.00019116796176709642,-0.0572551415637943,-0.056793839283645765,0.028888661946076286,0.028194037977129945,-0.05774259052698278,-0.05357141885205222,-0.10720363781809376,-0.3105528912189853,0.031242946040433112,-0.2329984557168745,-0.045479093484976835
0.324,-0.0011781370775278284,-0.05434488268633666,-0.05308267668037442,0.02765597322414374,0.025389152977778537,-0.053887143504064455,-0.054205206561184695,-0.10384639025439243,-0.30398485207339976,0.035620324653132335,-0.2263390663027803,-0.043529783323088315
0.326,-0.0003895736463640025,-0.050150326638602916,-0.04999543837709383,0.02467775024820942,0.02420048565019514,-0.049912965076036396,-0.045669855241634603,-0.09911510895501009,-0.29545843198992977,0.04433643624250371,-0.21738792963704845,-0.034728925683897405
0.328,0.0003734182810800441,-0.04763314527633992,-0.04816944485213211,0.022878418489646394,0.023753917778708045,-0.047739218353343625,-0.0324738075616469,-0.09437899972765205,-0.2882324860271186,0.05555538191717011,-0.2097864698654056,-0.022689729771648213
0.33,0.0003338069226516985,-0.04910178277467155,-0.04939625685249127,0.023795538014162985,0.02440728988326798,-0.049244810989506796,-0.02175745835964709,-0.09149190474671545,-0.2852489763835454,0.06448426699421024,-0.20564632097893198,-0.013472981426306745
0.332,-5.213962595550963e-05,-0.05388499945070922,-0.05372815089590233,0.02655646423801659,0.026366404628252047,-0.05388729780203427,-0.017481661540903734,-0.09225585335044162,-0.28718952869894304,0.06690235063504459,-0.20447280887053937,-0.01130558433133368
0.334,-0.00020214299492322607,-0.058822727682987394,-0.05859161141871034,0.029102722001649435,0.028685474422229715,-0.05874791667602118,-0.01835562292931981,-0.09601426629540913,-0.2916249249915208,0.06257838682784927,-0.20467337115329248,-0.015898691208087734
0.336,-0.0001750286423815306,-0.0611242930347078,-0.06099202738807275,0.030211585128143505,0.029899808581960455,-0.06108913648680088,-0.020413737937982235,-0.09931858268733862,-0.2948666344145567,0.055060608650378796,-0.20526812486545198,-0.02317520585896596
0.338,-0.0007965357870166156,-0.06144657470954101,-0.06070808162540395,0.030975668299891332,0.029517153664730764,-0.06136127379412866,-0.020981198429678903,-0.09969642919296953,-0.2960577560253069,0.04743445714330942,-0.20687449249899606,-0.029214465866498417
0.34,-0.003205995060048974,-0.06288985992801577,-0.05983105162541164,0.033639511502957666,0.02800685097732342,-0.06215431112647993,-0.02022830862601091,-0.09818546978140502,-0.2977327441262289,0.039720214449206225,-0.2114400358211448,-0.03339121364608961
0.342,-0.007804188821974525,-0.06636688120489587,-0.05902079144696277,0.03843907662057566,0.025479324079772086,-0.06387702771116681,-0.01958369911624465,-0.09719616720766233,-0.3011983987072704,0.03146689884532333,-0.2200533998685822,-0.03739006827245016
0.344,-0.013414526949347827,-0.06910144298405609,-0.0565607905357343,0.042858914177488126,0.021679928504087342,-0.06404360703426633,-0.019682048318052342,-0.09729442892499228,-0.30400938933956423,0.024497329637479314,-0.2306843838349525,-0.04212981764807371
0.346,-0.017520064722218853,-0.06816767488281868,-0.051661927793053807,0.044154771580043765,0.017457059963333844,-0.06105547987981335,-0.020075923412054893,-0.09666914555274925,-0.30307776515134743,0.021585282760184888,-0.2382027320800333,-0.04612401817377392
0.348,-0.01761742859873652,-0.06379655145217854,-0.046839848946797095,0.04159720238026271,0.015174031713777812,-0.056554904749446154,-0.020209277787391476,-0.0935533802798803,-0.2983945653875431,0.023524997182419325,-0.23765738102100342,-0.04659250666795696
0.35,-0.013204803425858481,-0.059110610092016694,-0.04598904287114536,0.03682533232982797,0.016842203500417766,-0.053924864792153734,-0.02005827516631055,-0.0890292278646661,-0.2932130454271305,0.02783605902707151,-0.22937953683625015,-0.04240415869365052
0.352,-0.006814592457369307,-0.05722513663676856,-0.050192895318478876,0.03270300637542534,0.021687476106521417,-0.05502343787816326,-0.020111060773061854,-0.08646451890159167,-0.2909379287724376,0.030541408168512345,-0.21982258154201997,-0.035920525698290545
0.354,-0.0027046406661535875,-0.058727556659873024,-0.056011402591649405,0.03154766518272602,0.026005202255699536,-0.05833741497544798,-0.021306253923128664,-0.08808769338789482,-0.29184866206125953,0.029564573722115663,-0.21567565134598307,-0.03164606784497518
0.356,-0.0036474692867759146,-0.06224481872302975,-0.05909719128160773,0.03397604558609655,0.026501434386880924,-0.06108040784230455,-0.024338339913279133,-0.09297003194497303,-0.2934698462818289,0.025739181119414676,-0.21817281213135276,-0.03256192474936345
0.358,-0.008137430478601878,-0.06662329755351229,-0.05934247776893026,0.038596844925145424,0.02409538332396151,-0.06286741909032195,-0.028175240713727803,-0.09787089359983998,-0.29382456514580213,0.02087630351830849,-0.22323179176650024,-0.03712866858629904
0.36,-0.011483968170656006,-0.07143077108604805,-0.06065385065255832,0.042717656288425866,0.023157624057719567,-0.06571833078339345,-0.03044452597012459,-0.09968402812835424,-0.2933611020020194,0.015889614712338213,-0.2260292151253856,-0.04074587805552775
0.362,-0.010280435514783564,-0.07590459391301366,-0.06581020390972615,0.04406614109634347,0.02677837760627229,-0.0706721239738457,-0.030180601912957423,-0.09749726724784288,-0.29415546711621376,0.010533475734510318,-0.2253744978642023,-0.040838065606085536
0.364,-0.00522520385930296,-0.07870376340852525,-0.0732705196809104,0.04233561214130224,0.0337018113678909,-0.07602990297256386,-0.0288694244859303,-0.09275193782646005,-0.29755056940525465,0.00472046636449535,-0.22363538653199677,-0.039020719154555024
0.366,-2.670894054429898e-05,-0.07917350214352875,-0.07894420434365422,0.03943576311344168,0.039650775308372785,-0.07917369244456234,-0.02831889109231173,-0.08822256862666364,-0.3021159858058608,-7.246794162073592e-05,-0.22310594626778668,-0.03804045662707465
0.368,0.0020558803574460367,-0.0783731650598995,-0.08043495919466209,0.0379399078922634,0.041452783637776845,-0.07943870500418809,-0.028544855044566886,-0.08607330199138265,-0.30465779454368125,-0.0016911677497857363,-0.22399035927643476,-0.038639050892711004
0.37,0.0010463923838165854,-0.07842360580276671,-0.07958002094576115,0.03895672328870815,0.040025902386645856,-0.07895757967409807,-0.027864673612524482,-0.08548024311360818,-0.30349567785826487,0.0005524142258735208,-0.22590674244645206,-0.04017002839965148
0.372,-0.0005163401454997387,-0.08092859489772443,-0.08046185432782928,0.04170921913734906,0.03898313433744263,-0.08065543159641801,-0.0249299335935423,-0.08354791397881092,-0.29951551986216424,0.005267489872808554,-0.22910907936367103,-0.042675098917602836
0.374,-0.0007893737216857461,-0.0858699479201069,-0.0850447624442757,0.04480150237033406,0.04066480539087313,-0.08546232325812698,-0.020859822151367904,-0.07964719897248797,-0.294386121633076,0.00976435496806489,-0.23297308122948235,-0.046824388255856865
0.376,0.00011988402899883391,-0.09170399648003215,-0.09175792090382773,0.047230140114943295,0.044517568183489835,-0.0917439889319412,-0.018206641571606934,-0.07632791816113542,-0.28901760499045476,0.011802913736912847,-0.2353948962626716,-0.0520586933764293
0.378,0.0019105771084710556,-0.0964456462963609,-0.09820146844855221,0.04820347197736452,0.04919458522654785,-0.09725567247292802,-0.01720593414365128,-0.07483482883906702,-0.28339405426126923,0.011863935868973458,-0.23527178526609757,-0.05573497668618315
0.38,0.005040334867851613,-0.09882262697963212,-0.10340556812691017,0.04714910147696537,0.05420116994642647,-0.10086484715877883,-0.015355809413210755,-0.07310322595271945,-0.27757960590034825,0.01291056147419254,-0.23395048154068604,-0.05516297053404576
0.382,0.008938308289981354,-0.09893820027621054,-0.10698516057338452,0.04480061490866952,0.05861188082724337,-0.10250101615445398,-0.011707731032189316,-0.06978654363057737,-0.2729260350412572,0.016965684391880582,-0.23331067558929755,-0.05107271201005561
0.384,0.011196446324652661,-0.0982835004543928,-0.10833606141782093,0.04332520193625209,0.060576837254950666,-0.10274189451380845,-0.00846101693373295,-0.06665859891981193,-0.2711627859146785,0.0230805995829725,-0.23347435241233416,-0.04749746820963454
0.386,0.009768206637101061,-0.0989701141002627,-0.10774857328406216,0.044657588027942834,0.059346303570423344,-0.10287458697791466,-0.006864799564891959,-0.06505940042517924,-0.2720561095955211,0.029306985174491873,-0.23269219015570985,-0.04716787814094103
0.388,0.005146138938380998,-0.10209262253234014,-0.10673120080337999,0.04882203149998351,0.056323510665828164,-0.10416074983633217,-0.005044791071630686,-0.06344950301935189,-0.27343854080329255,0.0347774913316936,-0.2294664486183111,-0.04884956957008312
0.39,0.000263211983214621,-0.10623619453194345,-0.10648350754576753,0.0535009369168465,0.05377170386734075,-0.10634763121807868,-0.001742310131406038,-0.060586732256384085,-0.2737012973271484,0.038857911973421304,-0.22497526856816585,-0.04989448080507893
0.392,-0.0017930727730479372,-0.10882414538477983,-0.10722247851270747,0.05591465563134234,0.05320587837665264,-0.10817039527617524,0.0009137604809979682,-0.058038982578904476,-0.2729929556050055,0.04074860237734334,-0.22206934920652513,-0.049510372012419146
0.394,-0.0002267174711736318,-0.10975604225818339,-0.1096344456212632,0.055838821869034924,0.055111761813721266,-0.11007676737884076,0.00010914828130985421,-0.05752992020420259,-0.2715984238503603,0.04166389830573616,-0.22110593430273315,-0.04865071692095375
0.396,0.003685502079232814,-0.11149977339458024,-0.11514158486544163,0.05521209261767759,0.059400019866670026,-0.11417444521534653,-0.00382414551842206,-0.05790616342471275,-0.2681296253486299,0.04536111846603307,-0.21907810758690616,-0.04784230332520141
0.398,0.008563352463670348,-0.11453028691880393,-0.12301821946893217,0.054579257830821425,0.06498156143608358,-0.12012203594175438,-0.007333555629249235,-0.056442927563354804,-0.2609557674376112,0.054594318792082076,-0.21428691544571296,-0.0465403289626766
0.4,0.013519711411847584,-0.11582752796449963,-0.1293346319322228,0.05267566184971254,0.06959864195099001,-0.12408614570002362,-0.007946811916155568,-0.05271448746488129,-0.25187177168116764,0.06763067570765673,-0.20957618786396012,-0.044999182074901486
0.402,0.017270934435157866,-0.11332765153507879,-0.13063320128374206,0.04967398893659811,0.07144538312565053,-0.12337240542281641,-0.008508291374078448,-0.05017825731848826,-0.24662992419484217,0.07886537018786288,-0.20924242416909417,-0.04562445929892635
0.404,0.018265885728997726,-0.1089431866750149,-0.12723235936451194,0.04773630751449625,0.07057961404441317,-0.11957556196502353,-0.014767225426669955,-0.052671861259612575,-0.249993937312459,0.08314882308693389,-0.21394882231244083,-0.05049980788614882
0.406,0.01657106443986339,-0.10603484124151237,-0.12259816170018178,0.047968362541314195,0.06859128633058693,-0.11634908775643645,-0.027957500751900104,-0.059287016438608627,-0.2604888119689057,0.08012941136716968,-0.21979489917993422,-0.057525823881798194
0.408,0.01455637073517967,-0.1059242751177226,-0.12046426337403214,0.049128789055131634,0.06740928710681028,-0.11577928919528278,-0.0428138665529833,-0.0648790626257573,-0.271613232648247,0.07411342795151675,-0.22229989163695857,-0.06183234480310744
0.41,0.014574068679396696,-0.10779465290041552,-0.1223651280754349,0.04971949844428705,0.06813197560771826,-0.11756549909905731,-0.05396828835640215,-0.06646662165291205,-0.2780832048983126,0.06992389358732454,-0.22065792057657252,-0.06179803025917042
0.412,0.01637884956533538,-0.1106166097610328,-0.12700268190603528,0.04988149785317283,0.07033127046845704,-0.12058363120269266,-0.06104096003867717,-0.06656834636170594,-0.2794404497002811,0.06958981807475675,-0.21778379879654639,-0.06062752928451124
0.414,0.01756112995588253,-0.11323296469720795,-0.13079950444046815,0.050305367596928496,0.07198789929513677,-0.12333980502308352,-0.06653729877757705,-0.06887943956318517,-0.27839217913130354,0.07194869227767016,-0.21692184496831934,-0.06132293438520815
0.416,0.016829151239617646,-0.11343583563065672,-0.1302855687274783,0.05011860435376052,0.07109876439693198,-0.12361404398817105,-0.07215015167543774,-0.07309835974148945,-0.27752852987958726,0.07482106547918192,-0.21857298868776678,-0.06328366725618227
0.418,0.016177670717817588,-0.11043313832781877,-0.12676046370983593,0.04788631948636968,0.0689266397524388,-0.12117397284460413,-0.07868304990474174,-0.07558870925796046,-0.27762886558524286,0.07792665075780875,-0.2206661733472988,-0.06488444451224512
0.42,0.018479508111885413,-0.10724920541324565,-0.12618646946704196,0.044265912311374486,0.0697014528556056,-0.11958121371239501,-0.0866018706854587,-0.07373641925763472,-0.27808578499382924,0.08249135956305186,-0.2217468469745893,-0.06670584720689919
0.422,0.02373055961521131,-0.10630700179613721,-0.13078908312776993,0.04089022360326921,0.07492946004791473,-0.12077014203351256,-0.09428697796711655,-0.06866636715096334,-0.27823642793288783,0.08809942915929071,-0.223010364537834,-0.07057050833493815
0.424,0.029160586912086364,-0.10521989778476072,-0.13505988004001657,0.037729824730635915,0.0806887447351171,-0.12112447643960933,-0.09872037454699169,-0.06401920488898749,-0.2781725523826172,0.09206155733119893,-0.2263414428892652,-0.0768524592084865
0.426,0.030657857948973747,-0.10208799020192257,-0.13297549497989264,0.03552187508153484,0.0812764721498513,-0.11756137938275471,-0.10063381671080295,-0.06288425361368805,-0.278776751669657,0.09151606438702428,-0.23144874999343792,-0.08388530319459693
0.428,0.023235480512096632,-0.10100409180496082,-0.124067315126208,0.03878811752422645,0.07321976252015207,-0.11266895375153414,-0.10530062237846555,-0.06632187286462186,-0.28108830029401494,0.08552338115156817,-0.23645896430809643,-0.08940660285345818
0.43,0.0061312053611891435,-0.10627694943873868,-0.11219888677738708,0.05031269235980835,0.05846336094947214,-0.11031775357397892,-0.11534578895808721,-0.0731816363839135,-0.28482551412084434,0.07694013342242809,-0.24032305858604316,-0.09220988815253436
0.432,-0.011138655497568392,-0.1139512403563842,-0.10279580648179726,0.06354216620892825,0.04538186550199937,-0.11037563561598762,-0.12640698544971535,-0.07990494834841173,-0.287266905647146,0.0716465157998976,-0.2425139036737334,-0.09231569982092895
0.434,-0.015217010878938168,-0.11497870577737523,-0.099842589902288,0.06693578045555673,0.04241130594963309,-0.10982810512361312,-0.1321035729556319,-0.08245786925296564,-0.284686162096004,0.0735666078450989,-0.2416568653130938,-0.0899054512947856
0.436,-0.00304978804403725,-0.10603258712027734,-0.10291003180086958,0.056502363431823334,0.04986004427630744,-0.1067433033823946,-0.13032841361943692,-0.08035213160967142,-0.2760230700339072,0.08133624203229253,-0.23703958599727434,-0.0851238905888146
0.438,0.01562520737342415,-0.09298920384509518,-0.10825937641324579,0.039873172174715296,0.0608660874792491,-0.10224970653444719,-0.12349870493786719,-0.077335798217288,-0.2646305053150469,0.09089981722901541,-0.2304193212191011,-0.07860203163436492
0.44,0.029151762400706945,-0.08481067899063083,-0.11349484716364279,0.028265632261662947,0.0692042763294552,-0.10003323458297504,-0.11519448691307893,-0.07695000978717591,-0.25513037750052786,0.09936542475758144,-0.22435126043724266,-0.0716427701453231
0.442,0.032653560564282445,-0.08632132690136733,-0.11869097205825967,0.02733742572352459,0.07305356366510962,-0.10306962513953155,-0.10808080332620577,-0.07837600893163064,-0.2493340226589317,0.10540032583274246,-0.2193159859455708,-0.06670652840368205
0.444,0.02797997251437175,-0.09461520879302822,-0.12248905149818673,0.034474646860639446,0.0727532406714788,-0.10914618759149801,-0.10392921220017974,-0.07760876668398309,-0.2465765722422223,0.10825897472156763,-0.2139315923284169,-0.06649492468230267
0.446,0.020268090738629188,-0.10158986160185624,-0.12153682618032184,0.04229021745300336,0.06916710588954185,-0.11211411664438477,-0.10341944888042989,-0.07288415994461159,-0.24612520592631015,0.10812997085671164,-0.2082492668789035,-0.07061173676584896
0.448,0.014099129506955308,-0.10184076046573316,-0.11511662824014976,0.045430406862856515,0.06397757065841903,-0.10895396957341179,-0.10475081971981051,-0.06745165540035533,-0.2467250009285595,0.106080991396237,-0.2053637469870604,-0.07498359282430439
0.45,0.010329013633371045,-0.09679204883111346,-0.10605941030599932,0.044520864902821394,0.05839619023813289,-0.10208294815211119,-0.1040068693920359,-0.06547274600383467,-0.24547236841668219,0.10263239402315268,-0.20778177447710514,-0.0758901258271862
0.452,0.006800661315567088,-0.09053261536608932,-0.09662243368604127,0.04322113248793473,0.05181503896595756,-0.09461742366376598,-0.09919986431045252,-0.06697958799961605,-0.24053961615223998,0.0978586086782954,-0.21285658435009744,-0.07298732615053362
0.454,0.0019064949852038192,-0.08562520061572429,-0.087449965230232,0.04358013858534222,0.04367123778540537,-0.08786304673415819,-0.093079431531067,-0.06880915687042885,-0.23440752536467513,0.09324513769882975,-0.21495831054743922,-0.06882789747213025
0.456,-0.0037381147330444045,-0.08388863042047272,-0.08041802269904902,0.04568414869255415,0.03596040534884455,-0.08346569131886389,-0.08942407345685709,-0.06893055796298578,-0.23140677762844197,0.09092586990541829,-0.21240049269371436,-0.06647973643446617
0.458,-0.008509145007485702,-0.08652838890287017,-0.0781965240315025,0.049235944772648546,0.03178983082343268,-0.08335701533993575,-0.08763179595239119,-0.06811912357859641,-0.23244260350634677,0.09035492216746274,-0.20894434280142515,-0.06682424780200882
0.46,-0.01155795513734795,-0.09153807771009186,-0.07992977468112535,0.05315353529699341,0.03139557936070949,-0.08644308922447409,-0.08418626280961194,-0.068266931062683,-0.23444086811227638,0.08867609059901663,-0.20819525801408217,-0.06817633316136643
0.462,-0.01334744901843726,-0.09425610259536868,-0.08079083234785549,0.055410052968354245,0.03171398417324727,-0.08855751708938857,-0.07845971267414231,-0.0700505618109996,-0.2342096297809084,0.08549545824214552,-0.20965822965475034,-0.06858583165158935
0.464,-0.014509549678190965,-0.09200653696842243,-0.07746776198557763,0.05496072740432554,0.030359087977470032,-0.08668992923000239,-0.07340421806745163,-0.0717087188800135,-0.23085755191111632,0.08376229912256074,-0.21069223364961706,-0.0674713879573353
0.466,-0.014513341137759836,-0.08580370822372141,-0.0713621040911883,0.0521465641616108,0.027841459596884,-0.0810933389800786,-0.07085200274745747,-0.07021845778627654,-0.22522170857080281,0.08421165413788147,-0.20980383447311285,-0.06524741040796601
0.468,-0.011926702062336392,-0.0772717346938968,-0.0654940090969816,0.04677726587419255,0.025812827610612946,-0.07339458309633014,-0.06901945312010584,-0.06472727085630267,-0.21901314308679015,0.08320932317719151,-0.2074340986510128,-0.06261738583000666
0.47,-0.005709595772191986,-0.0670991483258096,-0.061555479251291394,0.038274350873466395,0.025812145343412106,-0.06540078292479577,-0.06494318069975566,-0.05814043810077671,-0.21450451015354954,0.07848729268408336,-0.2050957513981116,-0.060392593596779294
0.472,0.0031606528278390654,-0.05701608834783032,-0.060115091982698654,0.02838695531008734,0.02883342233541234,-0.05936112738888796,-0.0580542479009087,-0.05395418478171685,-0.21320384689968191,0.0722012178118965,-0.20410928945691414,-0.05939469825524391
0.474,0.010123848058381702,-0.05040623789983794,-0.06002791383231807,0.02175788039746557,0.03273987527815677,-0.05651783717448939,-0.051025102061310765,-0.05246380200277519,-0.21408617276951453,0.06630977157525896,-0.20449964481923238,-0.059796605309088334
0.476,0.009254331606878064,-0.049564121458299686,-0.05812488661330985,0.02213493661392918,0.032198151412791906,-0.0556568434031009,-0.04721399955049748,-0.051585066602228974,-0.21379057220546763,0.06064034150613087,-0.20519492375472387,-0.060484406465062424
0.478,-0.00042320889982886626,-0.05329771167276044,-0.05250793088720077,0.028549915579749348,0.02483606919972453,-0.054861127234434114,-0.047329114715992326,-0.05056542723420386,-0.20905846465923963,0.05646309469471699,-0.20535197440087893,-0.06016407469852554
0.48,-0.013151703583011041,-0.05844310249335608,-0.04539840056844459,0.03669739706232814,0.014785378241604938,-0.05404736150297157,-0.04871931829932369,-0.05067064908862704,-0.19954570248194362,0.0559086230373471,-0.20528315689548904,-0.05926620201286063
0.482,-0.02223738732451095,-0.0632444269749758,-0.04127856153966857,0.04317651009318481,0.008041571716305106,-0.05472566432709145,-0.047453195312026394,-0.051875415837022446,-0.18863026001382777,0.05762653156548535,-0.20637350778731367,-0.0598028038684366
0.484,-0.025100449796613425,-0.06749766448405504,-0.04262200212499823,0.046730464390773746,0.007259679833457496,-0.057478527660627145,-0.04129163124134815,-0.051550003954301524,-0.18096558940036891,0.05771219155527989,-0.20969662243411363,-0.06298479578526078
0.486,-0.023451700009466527,-0.07055071604793725,-0.047459456010803834,0.04745853258344383,0.010863443582472744,-0.06058921957570982,-0.03191071776438472,-0.04822564279278344,-0.17869682196976877,0.05455471811884521,-0.21406688058540113,-0.06726854660091443
0.488,-0.021353020106529574,-0.0724752774773476,-0.05178617195114913,0.04748167924247775,0.014701585504231632,-0.06252363336103774,-0.023944713864676715,-0.0448316711015917,-0.1800543161310931,0.04951541550100731,-0.216774155581885,-0.06990085539564829
0.49,-0.021678793248137367,-0.0750889282933968,-0.05412219644208241,0.04962434119539739,0.015747045399943194,-0.06424420079891419,-0.02083502801855029,-0.04578284292386148,-0.18154883008030448,0.04320456111678904,-0.21700584202504805,-0.07077686496304084
0.492,-0.023190646166006947,-0.0775381145352871,-0.054761191895225915,0.05265950195215097,0.014442688391906018,-0.06585867363211804,-0.021477987294937707,-0.05087489275824139,-0.1810034619188189,0.033992171007657536,-0.21647748998965127,-0.07246818790687182
0.494,-0.02332895738731445,-0.07522538735875114,-0.052070949272658706,0.051995757107184175,0.012115847292187617,-0.06412220095105763,-0.02139010489332766,-0.05456901070398599,-0.1786040350199134,0.021019031968039507,-0.21632885241983973,-0.0755037132910241
0.496,-0.0228600640614461,-0.06777167068053362,-0.04510542283527575,0.04724485645417309,0.008807587785989866,-0.05790112943951515,-0.01819346436827368,-0.05297008050952093,-0.17596520312993688,0.00632082973987528,-0.21587652967467166,-0.07683198581155291
0.498,-0.02401623769075983,-0.06171150480190145,-0.03791414904755167,0.04348660143043899,0.005262369722030704,-0.05194213313933989,-0.014734164518766532,-0.04863319990414143,-0.17413354428688835,-0.007327832257454907,-0.2143889183212869,-0.07423457060249428
0.5,-0.026049610138608327,-0.0615336137304864,-0.035562321209268714,0.04373075282200268,0.003480819035668025,-0.05088112824862816,-0.014429859280374832,-0.0459114026743371,-0.17218414588990105,-0.018288249786178552,-0.21216086851846194,-0.06909466211359759
0.502,-0.026725758351107104,-0.06466490740966557,-0.03786330126673555,0.04590372486439506,0.004143721615863698,-0.053556221846445096,-0.015622636167559082,-0.044726790653226114,-0.16843602023922022,-0.02507286684054781,-0.2101530572656315,-0.06390231730539545
0.504,-0.02602186107181637,-0.06726222353939706,-0.041154344981654135,0.04764355490353982,0.006161879003293419,-0.05634096720963878,-0.013698736304681216,-0.04212119815986399,-0.16301871606772467,-0.02717325073168943,-0.2092698638063919,-0.059603124867769475
0.506,-0.025321627526281348,-0.06948696538879326,-0.044162556803814486,0.04934577725827616,0.008709150268640775,-0.05874640055350022,-0.0070330239487723135,-0.03792602419229117,-0.15844808788662862,-0.028129376963823186,-0.20943499263411422,-0.05599899329529206
0.508,-0.02558477522444337,-0.0736019203604914,-0.048062627960370786,0.05238047817942731,0.011093964227398584,-0.06245082722625504,0.0017032032730011778,-0.03535801548428699,-0.15720024267675742,-0.03373843674954261,-0.20936449687676634,-0.05286687647964963
0.51,-0.02817633347883625,-0.0796536651111638,-0.051500935582692024,0.05699847700849986,0.01099090559945525,-0.06649950884643688,0.008648293186379956,-0.03589780222730325,-0.1586138023658717,-0.045294150628227586,-0.20778441864915992,-0.049867169672962744
0.512,-0.034567144966022506,-0.08526494841564435,-0.050706340461551085,0.06237304332822194,0.006262638400955898,-0.06786024081208307,0.011854791635367894,-0.03670840826517307,-0.15913834590353335,-0.05823152797901127,-0.20511916547180492,-0.04679468147626537
0.514,-0.04333868323435654,-0.08967282500128344,-0.04646811741471287,0.06779438913997621,-0.0007064703300597952,-0.06730904202432349,0.012859372925821247,-0.03456141665547837,-0.15637868750145517,-0.06883067486561607,-0.2041736982460706,-0.04495307017632688
0.516,-0.04935469419404895,-0.09464769559218414,-0.0457278840827348,0.07254942330834971,-0.003683712853699944,-0.06991125716478443,0.015365924346082804,-0.03023842319185857,-0.15213660049624744,-0.07820596331880383,-0.20841812847473948,-0.047012481248093645
0.518,-0.0476298356618929,-0.09965067393432137,-0.05264914809407129,0.07432031706926362,0.00110163052230438,-0.07729798349997691,0.021152326864838252,-0.02708728922330251,-0.15025887279275688,-0.08802911703801616,-0.21804133788895957,-0.054224453249663115
0.52,-0.037623494139524385,-0.09978588345930893,-0.06254068558401944,0.06980242150528032,0.011177286409692167,-0.08369809069761172,0.02814275529357282,-0.026291524281403533,-0.15108021920831052,-0.09614787653065793,-0.22834920130864977,-0.06418678790567983
0.522,-0.023953995491157447,-0.09169358567959952,-0.06767561825283895,0.0588878630932138,0.02049174244870726,-0.08268602309182621,0.03303083511881939,-0.02638586121189127,-0.150636691068596,-0.0995842643794291,-0.23392073524949772,-0.07211386205066145
0.524,-0.013727878545754302,-0.07986211181295776,-0.06603035169182897,0.047484385780322276,0.024701106775376232,-0.07549144034182124,0.03408289269690171,-0.026712081747888604,-0.147249947004871,-0.09958167752118778,-0.2340118517083193,-0.07451468261384192
0.526,-0.011799634114030958,-0.07401353216592953,-0.06243056712252473,0.04354055267226152,0.02411434982777954,-0.06997195330519039,0.03126031051003524,-0.027813381005342794,-0.14482311938024237,-0.09991873322453568,-0.2329527386040442,-0.07187996094942288
0.528,-0.017556805673697273,-0.07929847518444744,-0.06199663215038205,0.04950042290848485,0.021508737077401127,-0.07161760508907995,0.02566938872406752,-0.029021278381963535,-0.14711368064909933,-0.1018861446724582,-0.23512952423045272,-0.0677975840182974
0.53,-0.02651236345846093,-0.09124844306582833,-0.06455007809818149,0.0604677635604658,0.01835227825826363,-0.07821313693528684,0.020086718344128913,-0.028367953259855888,-0.15210758962660767,-0.10471872141219332,-0.23981230157827058,-0.06496374312079792
0.532,-0.03391683260556483,-0.10166747362447925,-0.06719421647691913,0.06958875998829371,0.015434731289565216,-0.08450760462249282,0.018768572705263775,-0.024963632441163536,-0.15423141964657083,-0.10927332479625225,-0.24194992995342599,-0.06286730451044029
0.534,-0.037557221613159844,-0.10680402990941287,-0.06884323914385823,0.0737989170939088,0.014191366227201557,-0.08841683647847752,0.02339757978956613,-0.020618872395194922,-0.15095383833166837,-0.11751727213474118,-0.2382616842586885,-0.060329473186830906
0.536,-0.03890370427966447,-0.10886346586556081,-0.06998428368755644,0.07509629214663958,0.014541926514685218,-0.0911624723093036,0.02879406803973381,-0.018489053413785834,-0.14552642231251092,-0.12943399300676753,-0.2312489965896695,-0.05830023828350212
0.538,-0.040260785778180964,-0.1129910765702565,-0.07297797835364854,0.07738893658887384,0.015621609286141142,-0.09572720552710248,0.026909299524031947,-0.020292104753114472,-0.14311324550272655,-0.14306121095289717,-0.2271638824854055,-0.05847264901063279
0.54,-0.042155670680444235,-0.1233632295459283,-0.08144126661235153,0.08315760699685942,0.018346407804625257,-0.10512763008727904,0.01616207516715964,-0.025577724225109625,-0.14556209069674445,-0.15667706572478046,-0.23044242124640496,-0.0608266030259198
0.542,-0.04577418911628362,-0.13912017556610462,-0.09360251970893456,0.09288799366572392,0.022107376265687956,-0.11810134130555242,0.003698078824331841,-0.03260077594889558,-0.15004249817920332,-0.16966617183072735,-0.23921524638254468,-0.06398837830639043
0.544,-0.05218814101821254,-0.15366943511302456,-0.10179234737953004,0.10403118121681938,0.023392140707992694,-0.12860770718289963,-0.0014770462190491864,-0.0381319016974894,-0.15175029838283613,-0.1822112920761126,-0.24689778058928052,-0.06693983117049683
0.546,-0.05615091703043221,-0.15908415184704794,-0.10305293555102625,0.10938829984506271,0.022678052655362248,-0.13198197932265807,0.004005467664627415,-0.0376606512175734,-0.14789744903705057,-0.19413988428628232,-0.24899205532361518,-0.06873330388153007
0.548,-0.04864950863055181,-0.15169962576320958,-0.10274360895613865,0.10169346370223888,0.026273537602054534,-0.1286552310741766,0.015412566266549483,-0.02923895568918639,-0.1402495927651523,-0.20347779004892014,-0.24677233331564782,-0.06749104637365966
0.55,-0.028723848111588488,-0.13534820830305452,-0.10608067588642447,0.08263933797561987,0.03775103483638824,-0.1224007887135759,0.0238691197515055,-0.017111284061780464,-0.13402265033729183,-0.207667952916179,-0.24457558155143136,-0.06226425147851851
0.552,-0.006526161137892344,-0.12005961946632354,-0.11320110589155742,0.06372068305634218,0.05288309855669895,-0.11833367876060964,0.024304072200592487,-0.008366991978565285,-0.13282940757409958,-0.20746747762961382,-0.24539455770876323,-0.05521402868591572
0.554,0.005789567222772293,-0.11534637840242662,-0.12118777307223007,0.056265353514663295,0.0637811025296183,-0.12019144495616621,0.0190080740823221,-0.0062504313669280625,-0.135232452635451,-0.20804768998857556,-0.24854362050349538,-0.049859146328476024
0.556,0.0038731991748447974,-0.12158156402227249,-0.12565485616704497,0.06124842360037375,0.0653233398643317,-0.12572924628411758,0.013145435141141287,-0.007411994560021457,-0.13652697166465988,-0.21260138477524432,-0.2498536716396835,-0.047634962532258206
0.558,-0.004111499776136021,-0.1277260477455674,-0.12366787201053026,0.06770205610695716,0.060073031804622305,-0.12725636055461564,0.009995993638450095,-0.0024811532457880508,-0.13067092739792902,-0.2143519138071274,-0.2442254755588439,-0.04663653754407668
0.56,-0.004087316911217852,-0.12202739648237294,-0.11771696861795478,0.0633017870846652,0.05671370650726644,-0.12018928335835749,0.010844188182681513,0.019813892647122907,-0.11162089804455545,-0.20131701561047008,-0.23038729721888887,-0.04340320106469991
0.562,0.007754721675014325,-0.1060589370967799,-0.11328060046372335,0.0485086156913606,0.06015578118732028,-0.1090186537671431,0.014391947996232234,0.06366524495125908,-0.07665776455045714,-0.17090954650388873,-0.21287671993115845,-0.0358219864136029
0.564,0.021822049956920577,-0.09223667654789959,-0.1133109174878983,0.03482965309153825,0.06704529893809953,-0.10225679673820189,0.014374561787747722,0.12045762556383391,-0.025843749461500476,-0.13073850306607857,-0.19466020576717236,-0.022986876588900855
0.566,0.03040115724053752,-0.08718507432836838,-0.11694954630157037,0.028789069227604693,0.07294407597254098,-0.10266953877817564,0.0029577707568151233,0.1728969258623931,0.041451609742200524,-0.08423811224522923,-0.16926807742822353,-0.0027597742183357067
0.568,0.03446425174029095,-0.0853967988462469,-0.11967171564415222,0.02650715841662002,0.07623610032661607,-0.10428334422517398,-0.02030708263076104,0.20418271053754788,0.12310984928251864,-0.02698010508959115,-0.12734308557604507,0.027414416225062837
0.57,0.03565790918817159,-0.0789353563026988,-0.11486038625518334,0.022962899316622872,0.07476995412511162,-0.09899702792911143,-0.04694011218967395,0.20545041832377092,0.21020380335025196,0.04420278800944719,-0.06696613341965568,0.06906865326774402
0.572,0.03592420710834434,-0.06287702712337827,-0.09918965455793086,0.014833234098497116,0.06761249351671089,-0.08293171687291316,-0.07077919100317609,0.1754467142516028,0.2932099548548734,0.13001457989306073,0.011785403494166003,0.1263841363630173
0.574,0.043784740814140063,-0.029542504546780982,-0.07343903296054465,-0.005732715294359418,0.05862280726102009,-0.053400950625565914,-0.09880285583646954,0.11374458030037705,0.3698908000238024,0.2348104154412509,0.1172226538250882,0.20845184133814787
0.576,0.06802890019587848,0.03144098052433866,-0.036327185582450544,-0.048311573022502094,0.051262042063888555,-0.0045369367845814945,-0.145323464617452,0.02114692103436478,0.44525052967970047,0.36598216345158663,0.26019254513006324,0.32325418687367535
0.578,0.10577909423452124,0.12005815002064837,0.014614344432800566,-0.11160191127183028,0.043660617673715436,0.06562628531792415,-0.21540246754085732,-0.09777773034741957,0.5231833230247317,0.5249182239405847,0.43839031089294234,0.469960637214447
0.58,0.14311890717193326,0.21720507833155286,0.07418154313274612,-0.17893975174861515,0.032417573487401145,0.14505810438126274,-0.30161948521026616,-0.24981273321703512,0.5905481013560114,0.696019505836897,0.6316700519907387,0.6364401720364569
0.582,0.1659923602984081,0.2980458681276242,0.131951687324714,-0.23053438748569494,0.01554002530627497,0.21526655496767433,-0.39624292887902923,-0.4601836767337092,0.6139646510992451,0.8468871227599754,0.8141298338795993,0.8030503981289248
0.584,0.17134149308712637,0.35678180473196053,0.18545610314695818,-0.2620077520536774,-0.008135269782519128,0.27133258898909013,-0.4959673492069833,-0.7362543408034087,0.5709721473911588,0.9497582684293203,0.9715675906857023,0.9542999511492959
0.586,0.17085138712308606,0.41181949105089166,0.24130473012589831,-0.2889347761030303,-0.03637976772128226,0.32600509916869036,-0.5976722023094313,-1.037111670031244,0.4798322915684974,1.0055395617894245,1.109915334633757,1.0922035607785239
0.588,0.18001208694281842,0.4839680959852915,0.3044236089673733,-0.32985587078038947,-0.06368888730737005,0.39300140625077895,-0.7010419562780058,-1.3121236049870597,0.3775986603157185,1.0400374891540114,1.249172512564487,1.236380642346878
0.59,0.20174638172313278,0.5767038356586027,0.37510886287742173,-0.3877318246812781,-0.08843554500384695,0.4744947581794511,-0.8110459132539659,-1.5568903114149526,0.27513925075253814,1.0760471883969354,1.407651716926581,1.4070855755924292
0.592,0.22481568722388842,0.6787764906553007,0.45358431746164346,-0.4506560496656609,-0.11595428677480157,0.5645320614773154,-0.9285618103910531,-1.800898679422397,0.15061587251466313,1.1112706544862463,1.5853930369806246,1.6053641348428809
0.594,0.236046012347527,0.7739431145458667,0.5373027128708239,-0.5036476692425519,-0.15161492745356142,0.6534953564786112,-1.043462355162214,-2.053056772107809,-0.02338989547140033,1.1180327313205054,1.7568980074371459,1.8075271818065175
0.596,0.23037336428467134,0.8442816250592544,0.613589845702517,-0.5357126983301945,-0.19224648761921917,0.7264570818360272,-1.143389416374214,-2.288447111332821,-0.25771662050878325,1.0633191552258872,1.8817376451222547,1.9779884118953357
0.598,0.21458952909317672,0.8800737818755278,0.6655484545777869,-0.5459309908511797,-0.2261243153500158,0.7705980881034207,-1.2246490314138534,-2.483881528721095,-0.5356757394988835,0.9380693645867837,1.9295762245963861,2.0891732644245304
0.6,0.20407974734197135,0.8940843977970304,0.6900822111139959,-0.5483155702874226,-0.24352668629741533,0.7908501600813378,-1.289817189006518,-2.6420770007359753,-0.8133005487786904,0.7693897051554364,1.8989288592784441,2.132901191507078
0.602,0.20694620420480506,0.9084629316336026,0.7012500431157206,-0.5575082236203656,-0.24758021959545265,0.8046839207060947,-1.3388454729784494,-2.772697867278687,-1.042046196110629,0.598267959050519,1.809675215684198,2.1145137734327126
0.604,0.2088723785784449,0.9201483504394385,0.7107717785890899,-0.564368414986942,-0.25191592191404044,0.8155583869123405,-1.3667722331996648,-2.8626442984774583,-1.1973769040030806,0.44706316409654046,1.6795483262310684,2.0395522927029996
0.606,0.1858852453917888,0.9014570399995704,0.7152442551671493,-0.5431250653967895,-0.26649382555938583,0.8079842646729616,-1.3680698436312684,-2.879165757785159,-1.2810202543274836,0.3138470412496222,1.5161128001999917,1.9150845730713388
0.608,0.1357917782572306,0.84466549794743,0.7089091214363079,-0.4893835914168564,-0.28849605444305826,0.775948211865973,-1.3421719379599386,-2.8018394774057804,-1.3039022319895186,0.19016699041155005,1.327697670719443,1.7601720782843533
0.61,0.08393990720181735,0.7795537983739727,0.6958034683520061,-0.4309765311190695,-0.30707462940130315,0.7365059848859629,-1.2965624683090964,-2.6427159788980625,-1.2798081949259927,0.071107668231495,1.1259984551927618,1.5958693396460695
0.612,0.052977293931037346,0.728141580423594,0.6752431029531732,-0.38988843481943314,-0.31134362677524674,0.7001574963789444,-1.2419265381216194,-2.4325396271868094,-1.2285704666813975,-0.048415732952164406,0.9159321923593191,1.4236377693612088
0.614,0.038548598474659086,0.6677813444257088,0.6291701954407962,-0.3523503600041571,-0.29506191094641376,0.6468467629652828,-1.1823705258176878,-2.1969233656720526,-1.172212946700044,-0.17634059494186727,0.6934211964671303,1.228970377959577
0.616,0.021046420343146445,0.5716372086674124,0.5505180201184492,-0.29532459292208146,-0.264466149962172,0.5597915449744097,-1.1154801435986423,-1.9574009197223012,-1.130000511207098,-0.32474451242258007,0.45180134910333775,1.0040660750506183
0.618,-0.008304950744757624,0.4687783147588729,0.47708225580353736,-0.22919734546878592,-0.24252581364429082,0.47200951661461743,-1.0422921232304745,-1.7458957991908077,-1.116053910474526,-0.5068586061305687,0.18802994316978977,0.7580171012165168
0.62,-0.042073073800096346,0.4217237559772733,0.46383590712757794,-0.1889506915623674,-0.2528353518666217,0.4419509785599945,-0.9680443560387456,-1.5900811353595166,-1.1267197926331924,-0.71563280069626,-0.08371043435045047,0.5140695472266243
0.622,-0.07045667004843759,0.44668567520970415,0.5171615590849045,-0.18751604036973993,-0.29372613681711235,0.48117689342635583,-0.8912533585667203,-1.477715212771823,-1.1296368360440074,-0.9036809444939116,-0.3205532797921727,0.3037790248897761
0.624,-0.0882813949489393,0.49375743933299077,0.5820267052495179,-0.20250501092491682,-0.3351945376624513,0.5374690801090473,-0.8024077653656166,-1.3584045509293647,-1.0823771866589387,-1.0057253855460357,-0.4713633588746918,0.15344103573974593
0.626,-0.09068517747423388,0.5090977008638153,0.5997666063310257,-0.20928175516740294,-0.3456013931714122,0.5542030481639133,-0.6985332774899261,-1.1939917642478513,-0.9686393735152599,-0.9920533383265872,-0.518116660437511,0.06885992579790047
0.628,-0.07542757752101255,0.4836855812137359,0.5591120053925329,-0.20412006120211573,-0.3182488069845692,0.5206761785145085,-0.5927383426368873,-0.9976136697851357,-0.8145763222642616,-0.8959942712425425,-0.4918982706782378,0.03345064127780178
0.63,-0.05196285104769418,0.43474052958569975,0.4866897692129017,-0.1908233986352806,-0.27094705476294406,0.4590395190255232,-0.5041201561123237,-0.8158153442954925,-0.6705849135380801,-0.7868482596618426,-0.4487754088331735,0.018990547914823262
0.632,-0.03759281152887864,0.3714508472199898,0.4088950104584968,-0.16582557122838898,-0.22517893005923786,0.3880787191516316,-0.4399817406748786,-0.6787058488495272,-0.5718296540509388,-0.7138495927448588,-0.4299706259821501,0.0007504610177583304
0.634,-0.040345378222375085,0.2961124419241193,0.33597480141790953,-0.12668524227560787,-0.19003199394337608,0.3145965555148349,-0.3914667433492109,-0.5759954171303642,-0.5117644345233107,-0.6744542994994253,-0.43732951967896455,-0.029274098224792013
0.636,-0.05069650544648994,0.21819365112713582,0.2680051826187687,-0.08265795440525478,-0.16111591285284002,0.2425400485209144,-0.34546506702264684,-0.4787657400915225,-0.45716708478410845,-0.6362267796394507,-0.4438817315170864,-0.061447311179818304
0.638,-0.05279610287744653,0.14772630767427566,0.19951638919195858,-0.04625047035227778,-0.12792342457529407,0.17286114883521023,-0.2962044560854509,-0.37295626836575374,-0.3858534779396744,-0.5798867026758019,-0.4286666810275923,-0.08280163789261545
0.64,-0.04375847579853349,0.08435883783738002,0.12746660631120957,-0.0186450292150271,-0.08714853207461404,0.1037726396275817,-0.24668036123100875,-0.2691700537267268,-0.3037423517148162,-0.5138405639421418,-0.3979199334446133,-0.09067096608927008
0.642,-0.03952141006727368,0.02503597686791284,0.06445246889235037,0.009362526932639455,-0.05297714539487979,0.04142118557594579,-0.20372695572424288,-0.18892217053039137,-0.2314722231310755,-0.45799477562238466,-0.3729733826598618,-0.09162212977072326
0.644,-0.055467334069517184,-0.025519635732061223,0.030050626776729587,0.04270308601164743,-0.04356920065678731,-0.0008179563092725355,-0.17031041122739932,-0.14380218287442884,-0.18291946046791138,-0.4247754937068195,-0.3656905453682699,-0.09177273136716468
0.646,-0.08268871328859055,-0.058980731539627476,0.023542638137278922,0.07283548836041118,-0.054573248653220496,-0.0193118725741378,-0.14147513854717408,-0.12289747758848223,-0.1543472603727869,-0.411342511036949,-0.3695354151863937,-0.09147526326381415
0.648,-0.09468936313026544,-0.07154110898239387,0.02268617193264631,0.08513025655130768,-0.06103660361689817,-0.024454525526872495,-0.11127523947897307,-0.10151304171153963,-0.13022902312716944,-0.4034336484977747,-0.3698779485046627,-0.0879165747866312
0.65,-0.07979894618775689,-0.06638691155184062,0.013074095569756047,0.07541209683906618,-0.04902164597152653,-0.026021789861866013,-0.08238903700432815,-0.06523096059277765,-0.10063458072733966,-0.38821034839091856,-0.3593926130819263,-0.08057235757706008
0.652,-0.05665213654931643,-0.0549244338971538,0.00185597444513955,0.05803357769797553,-0.031193770241906126,-0.026148755228364687,-0.06371133520732288,-0.02225199349626862,-0.07117389774424847,-0.3654251003404871,-0.34405008034399553,-0.07360903773645396
0.654,-0.05276888170479122,-0.05364307424293829,-0.0003582940902122847,0.05456352834431202,-0.02706664377681941,-0.02710700836290244,-0.05861013966082749,0.010274896736508181,-0.05245169734708406,-0.34434457536401963,-0.33481759994444643,-0.07299869775093425
0.656,-0.07295297494667205,-0.06944000213169685,0.00403471889287392,0.07153574606259228,-0.03852578316186813,-0.03321581924118954,-0.05947651895476967,0.027659383878062504,-0.04444899137947582,-0.33034131328116856,-0.3347512027923203,-0.080243638498756
0.658,-0.09420905834278578,-0.08879158795189293,0.005620771298761721,0.09173729444889751,-0.04991418703816876,-0.04275410758355448,-0.05472181961658973,0.04038349174455397,-0.0372175325837116,-0.3186835632403894,-0.3360883739360617,-0.08913419132682462
0.66,-0.09221152941411148,-0.09264797265913977,-0.0005410329950686667,0.09340177098455553,-0.046498200194196745,-0.04874915120980409,-0.0397585753750183,0.058010900219289105,-0.02363321616238667,-0.30309369080672954,-0.3305545723827986,-0.09151373175811002
0.662,-0.06700323277009407,-0.07998908120233841,-0.013141212248756503,0.07498550908009943,-0.02806089884815655,-0.04926792095355915,-0.02079296222051831,0.07795982060263702,-0.006294667540582286,-0.28656928508453444,-0.32034940297954095,-0.08656276539894217
0.664,-0.03838516229303995,-0.0659342716653561,-0.027573980433899473,0.0533092055710361,-0.006098550019167828,-0.048800631460403976,-0.008017188915453926,0.0916977020387739,0.007244721437454252,-0.279191238848984,-0.31511581365544095,-0.08133162419150668
0.666,-0.023382061547992664,-0.06250416255486736,-0.03905243809483813,0.04329647700508918,0.008051012025631916,-0.05135367615638821,-0.005584161390470498,0.09565484154468595,0.012491227134897297,-0.2864415727589399,-0.31958447579962707,-0.08252522437323644
0.668,-0.02587451969439306,-0.0713081846979934,-0.04538691306030232,0.04867408287692784,0.01037958393254125,-0.05802458756895691,-0.009055199103379707,0.09305375119877667,0.010623230353088348,-0.303447496536965,-0.3296988667121494,-0.09044816931940604
0.67,-0.04080722769544568,-0.08768095483360372,-0.04688901875596702,0.06511565778141593,0.0032843913916277847,-0.06753524380798374,-0.011519355988672212,0.08968450626443017,0.0064717704826213526,-0.3200715524015247,-0.33921176810827763,-0.09961961625308015
0.672,-0.05866303095291375,-0.10327636796620353,-0.044624064414918604,0.08296913669246243,-0.007458351712740872,-0.07551287507490707,-0.00940757732433516,0.09076965189332847,0.0061023435941016686,-0.3291397093623315,-0.3445485512985306,-0.10324400073142345
0.674,-0.0693982437875572,-0.1093724074390696,-0.039850105008297936,0.09155440851062598,-0.01583791259286882,-0.07670692577961087,-0.0024455620342305495,0.09887602061495207,0.013784611784843734,-0.32940966824020285,-0.3445531334457014,-0.09844940613345854
0.676,-0.0686782354373933,-0.10374463981182579,-0.034724643675656176,0.08747900514996788,-0.018667407697642614,-0.0706627814542254,0.007940102422809799,0.11196902729795614,0.028055581927413524,-0.3228478655181092,-0.33976781367707554,-0.08846185071976563
0.678,-0.05957793193103292,-0.09281565357518354,-0.03280431255768751,0.07685461533984815,-0.015533542345249987,-0.06336289445031773,0.018367831990417173,0.12443159371163062,0.04195415739051809,-0.31248164569098186,-0.3317567253531208,-0.07893336812470596
0.68,-0.04750015402208888,-0.08460392353623643,-0.036828955174043304,0.06735290756094764,-0.007315752071049892,-0.06116741590217299,0.0252340025440312,0.13217759871422252,0.050176366990332094,-0.3022369479655609,-0.32183012734812216,-0.07233622972743586
0.682,-0.03660962452255882,-0.08252693341027659,-0.04579689536274006,0.06206022054083936,0.0033705381612425737,-0.06527084509125997,0.029165637309457683,0.13601145537821457,0.05475159808349258,-0.29527703685408835,-0.3115674269584265,-0.06722294013192717
0.684,-0.030508346036027756,-0.08637526734179717,-0.05555595192424967,0.061336690191011976,0.01215478031234965,-0.07282744234604299,0.03479059394985963,0.1387460481415309,0.061046112275678424,-0.29216162287292935,-0.3040835270745076,-0.061815637024364344
0.686,-0.031549221487440306,-0.09302081792412016,-0.06078181634349481,0.0643391357283561,0.014843505369127919,-0.07891464680007144,0.04379713018639612,0.14187507726945764,0.07007000223567529,-0.2911472371981876,-0.3018403453816526,-0.056464497322652824
0.688,-0.03905937092508604,-0.09690542016721218,-0.05711927967456897,0.06856125585462254,0.009446288615801554,-0.07824765624397477,0.05190626686425914,0.1462368845819352,0.07768119887079936,-0.2898692822558571,-0.30339602676696364,-0.053024004955754225
0.69,-0.04975758405319462,-0.09533798362037091,-0.045294544522916015,0.07195190615532722,-0.002005656168392125,-0.07034941764893,0.05502317903842784,0.15215420105636537,0.08036135759172176,-0.28826275200756984,-0.30516322043553123,-0.05250421664947427
0.692,-0.0586597928913964,-0.09081051655910373,-0.03232159912338508,0.0737879966466521,-0.013225995913611645,-0.061044926623628704,0.05460983434385922,0.15852448859512863,0.07919616346202134,-0.29010400672446257,-0.30587540772284305,-0.05359923615757797
0.694,-0.06093676132890864,-0.08626802013778373,-0.025570390259741522,0.072926302730886,-0.017827767031052075,-0.05586726109263209,0.0554465902622691,0.16475094297721132,0.07821428803512229,-0.2989903836933355,-0.3068508956162273,-0.053730884614402896
0.696,-0.05595622957862849,-0.08216714318783051,-0.026242708093407643,0.0687502911691004,-0.014900267730012162,-0.05494335532257701,0.060588183669998893,0.17222318938220252,0.08053746042601988,-0.3124838724867364,-0.3083928969308895,-0.051379805792175
0.698,-0.04831397403325368,-0.07860557439388367,-0.030179659884244803,0.0634633267635715,-0.009011626805764531,-0.05560496141013501,0.06925131878438301,0.18173718393596497,0.08660875091308971,-0.32208169938228065,-0.3081589996946709,-0.04751225257344957
0.7,-0.04257322480260614,-0.07661384041010783,-0.033969529894278545,0.06006674637507238,-0.004306602757268343,-0.05673778861529088,0.07866943483119024,0.19119345962995526,0.0949356047804978,-0.31972178194515555,-0.3041117248911578,-0.044159163686467495
0.702,-0.03813542931621851,-0.07622144477268421,-0.03813455158274029,0.05817779525327833,-0.0003787048604346743,-0.05874957343197207,0.08664513890070535,0.1974614478626223,0.10304805618201086,-0.3054945691061388,-0.29788511982230464,-0.04140737901712309
0.704,-0.0319119959872142,-0.07625463504328428,-0.04450335830925707,0.055381489885712065,0.005195342557127462,-0.06179350259423597,0.09184663552982988,0.20006426240004532,0.10829967209627973,-0.2886231573469878,-0.29302717118083044,-0.037877812035470915
0.706,-0.025605555404915145,-0.07809260852105232,-0.052693182501350404,0.053365070707822815,0.011898031924370289,-0.0664782527508727,0.0934740767451263,0.20227639770235717,0.1100071779031416,-0.278323473057089,-0.29061194261212425,-0.03399386497809304
0.708,-0.025935331969615352,-0.08604407004421338,-0.06018071979173583,0.05788010814070254,0.01589011558212239,-0.07427362095529706,0.0922539486932138,0.20787464730638652,0.11080500786884193,-0.275222526561785,-0.2894688799352899,-0.031663511172956314
0.71,-0.03558180005679303,-0.10089879436854471,-0.06513338144746006,0.07029491218267069,0.014737037154653573,-0.08478582593104729,0.09091534290445348,0.21691731811807194,0.11411109989446515,-0.2742721676588669,-0.28990313905520676,-0.03128630731621735
0.712,-0.04845576192291502,-0.11705045954154629,-0.068296301736338,0.08422296701047544,0.010520750142600854,-0.09486052103513647,0.09169287713498182,0.22616718281067805,0.12048873611926697,-0.2724460301270071,-0.29317491380578586,-0.031606036959422094
0.714,-0.05689288089087774,-0.1281682789071173,-0.0710352613009081,0.09292742459074849,0.006813541705634148,-0.10159493261662991,0.09294947541383713,0.23302875719816685,0.1273507695398598,-0.27045146237096573,-0.2976127796059065,-0.03156066983683533
0.716,-0.05881122868632543,-0.13153866928522057,-0.0724854041985092,0.0949546921390695,0.004917211567535048,-0.10375121020105456,0.09054416154229097,0.2371882930458575,0.1320709692860734,-0.26957758182185343,-0.29906694727176997,-0.030528221871931334
0.718,-0.05507388088063364,-0.12706560243068338,-0.07167363242075969,0.0912109757963157,0.0054005840362173155,-0.10125160856006168,0.08398523355783162,0.24006644396471796,0.13499697532328084,-0.2693878625209274,-0.2952966215864876,-0.027719752818855824
0.72,-0.045865863083669196,-0.11732618356601653,-0.0712112324298349,0.08256609230195074,0.009928254617449917,-0.09638039812471673,0.07794529329890243,0.24386715662329936,0.13842205222204096,-0.2681572598008062,-0.28844972421681453,-0.023465329340701484
0.722,-0.034106122625590825,-0.10915273392059588,-0.07501883099847899,0.07294937361298509,0.018158028845383093,-0.09421285231024595,0.07523689207373714,0.2494874358613771,0.14315162953489355,-0.26479903743433497,-0.28383490970993175,-0.020740530812074904
0.724,-0.026984098201140488,-0.11014208913672395,-0.08327449763337567,0.06955097981748617,0.025943300928756203,-0.09878484179981639,0.07270928087813881,0.25556114460655777,0.1479018018590249,-0.26069339111470063,-0.2854842890021309,-0.022544452202136026
0.726,-0.028517686577463345,-0.12056597009473446,-0.09212653135683926,0.07518974068983593,0.02957762839268643,-0.10842805030284336,0.06694656327044665,0.26022960167853043,0.15122153378747066,-0.2594541923098211,-0.2920265117684329,-0.027519098884658616
0.728,-0.03428018357081244,-0.13180665288956608,-0.09750348260412511,0.08367198461518471,0.029443438941616065,-0.11666356005352604,0.05955132693388386,0.2630874397295449,0.15288188636599837,-0.26275800055123383,-0.2983252348842343,-0.03103984015261326
0.73,-0.037574724347816585,-0.13544800116037445,-0.09781972150107561,0.08707470285870873,0.028025664513644383,-0.11830503072537729,0.054390666203330995,0.26553497892463124,0.15392747321799286,-0.26665151634965956,-0.30054989261465204,-0.030704053697495202
0.732,-0.037009372729799095,-0.1315853802744277,-0.09456259107153135,0.08472479027151722,0.026951985151415902,-0.11421774547384596,0.05288612046134558,0.26964625679753074,0.15524558857586004,-0.26512602176931593,-0.29835170652675647,-0.02799904003768798
0.734,-0.03510991299663561,-0.12698982192670316,-0.09188063740043756,0.08170769360846608,0.02701629729549327,-0.11031446639845945,0.053548048552303086,0.27635518453028046,0.15629086684549542,-0.2570087062291439,-0.2942083955836777,-0.0248428348098832
0.736,-0.033144016787003225,-0.12726591062069395,-0.09400872432500584,0.08145858887240734,0.02905942880698455,-0.11170226083149845,0.054428783183852095,0.28457882759069736,0.1560745539496998,-0.24646336498931634,-0.2912929189125894,-0.021049990768901242
0.738,-0.030013945692055975,-0.13241482605282462,-0.10209171654155144,0.08296071374958863,0.0340421613596055,-0.11838327955125495,0.055109556948464596,0.29208221719917477,0.15536490241825707,-0.23722270566241807,-0.2900034720495969,-0.015140131581051633
0.74,-0.025029135384269777,-0.13909543262836588,-0.11378529155267642,0.08381726256808432,0.042136416625497525,-0.12707716506016953,0.056384482898817416,0.2970301289488359,0.15690059100746112,-0.22932138693013426,-0.28760804894680636,-0.006603248607750583
0.742,-0.019978185636545864,-0.1443312434795136,-0.12455269515039288,0.08330138086039873,0.050966009193806734,-0.13455883629020376,0.05841221672013325,0.2990506018717132,0.16221085606289495,-0.2217513325875282,-0.2829607679086368,0.0022222205983779804
0.744,-0.017198158491625294,-0.14642695329645009,-0.13000915357355025,0.08198449371307204,0.056334308647717525,-0.13858965198651615,0.06054785858582729,0.29979711624629013,0.1691099473030288,-0.21510977862195876,-0.27895793344454095,0.007244228666701418
0.746,-0.016680704254112944,-0.14538291123398597,-0.12953031658171615,0.08047288328748153,0.056389405252180384,-0.13889446225609298,0.06318853589849391,0.30247767173707607,0.17425832314860473,-0.2102831642086596,-0.27861490698005653,0.006501297714286855
0.748,-0.017335880509009957,-0.14384898407118088,-0.12680563329679934,0.07998829271642563,0.05334469164425227,-0.1379269797401698,0.06754128399907718,0.3090949309449522,0.1767890821103058,-0.20701455953977055,-0.2817283062717289,0.001760469328017172
0.75,-0.0192549363134593,-0.14508328741756643,-0.1256301524612847,0.08207687480102653,0.050487435784746314,-0.13848770291310974,0.07305384843290709,0.31795089089561224,0.1776778345926939,-0.20481596010312497,-0.28648653892484466,-0.004093766526765631
0.752,-0.022073846523082925,-0.14813738963960235,-0.12590657810298947,0.08558935998269379,0.04928359533217483,-0.13984603230321838,0.0775533894840784,0.32590317953389053,0.1781169055567496,-0.20319491882540985,-0.29136490784535074,-0.009611173896491975
0.754,-0.023722591694563498,-0.14707831183659908,-0.12355546641105994,0.08621442819330624,0.048660972711419725,-0.13731424390147862,0.08066346791275165,0.33273471603243915,0.18025145630532932,-0.2004365446923295,-0.2941598899234236,-0.013671723072361827
0.756,-0.02302339180890154,-0.13786024008256412,-0.11519645503943579,0.08140132193352996,0.0462610471785242,-0.12768132830887066,0.08494891427149759,0.3408003111227872,0.18665444967232292,-0.19436891757169023,-0.2914575112134821,-0.01338455429901431
0.758,-0.02148033982664212,-0.125678497790993,-0.10441040627119823,0.07464650690728065,0.041907540036840094,-0.11562201879479636,0.0922537961801074,0.3502905439029687,0.19679809534842518,-0.18528265402335373,-0.28200084650739393,-0.00609616139534511
0.76,-0.022214723797380764,-0.1213692573572789,-0.09912779368770656,0.07310111063793924,0.03806100225044214,-0.11068145348103801,0.10042952953212966,0.357920212633227,0.205950554325257,-0.17628229236186063,-0.26987242594976935,0.006585476510767016
0.762,-0.027507760213681703,-0.1283414963880297,-0.10056207737945626,0.07977740686596288,0.03533533801436863,-0.11533902219580759,0.10602303737240287,0.3624597013787921,0.2105788835589008,-0.16959944550528186,-0.26089510390069237,0.019174992559271006
0.764,-0.035040350331431803,-0.13768882755113945,-0.10212202934978935,0.08886457681772182,0.032230933900256685,-0.12145182448368053,0.108915310921166,0.36825114263069997,0.21362603028070237,-0.16421747942727144,-0.25658988811636324,0.026904430095991392
0.766,-0.038523058439889624,-0.1395848185287887,-0.1003389250109691,0.09185508523180544,0.029590579211802227,-0.12149450483882265,0.11154309689642618,0.379309031891856,0.22052548924584803,-0.15827963041589133,-0.2547925610031254,0.029095263542099653
0.768,-0.036104300959299826,-0.13472749825274552,-0.09786332453045046,0.08807882382396208,0.02922797674252077,-0.11713828607789957,0.11473446719308321,0.3928173442341779,0.23094555582537313,-0.15225661628269185,-0.25465842573572645,0.027811525393550616
0.77,-0.03331773690447756,-0.13000526826454112,-0.09614014855814089,0.08408729381508732,0.029624681087492485,-0.11362740614990582,0.11667556451773685,0.4020042949853607,0.2387698873318144,-0.14880184831869905,-0.25799763768515527,0.024058479860623597
0.772,-0.03371480022780239,-0.12700245850660066,-0.09313286210859435,0.08273590733494092,0.028236887298720693,-0.11116702163117344,0.11568852101117807,0.40399434653627714,0.2401150094273802,-0.14993095973142126,-0.26581855251092434,0.01757116005982859
0.774,-0.03393744813040674,-0.12194329693022914,-0.0881452946271049,0.08042118964961757,0.02561429749051965,-0.10657179281728739,0.11281181209137982,0.40301613454892865,0.23777207307222287,-0.15465491428540687,-0.2751990064014198,0.009903253477933811
0.776,-0.03124647781957905,-0.11543826598342358,-0.08434477958106905,0.07584474388595919,0.024216439244507844,-0.10093557047548347,0.11059545192543911,0.4053581675820647,0.23719291284436775,-0.16054939652329517,-0.281072053703667,0.004421062836977985
0.778,-0.028704402716045855,-0.1137044238336109,-0.08500745201920787,0.07335900734492493,0.02491843308128435,-0.09957684404500015,0.1095549318127305,0.41244541881872293,0.24150141028040073,-0.1662391387560016,-0.2804824160704177,0.0036370856314522685
0.78,-0.030476199041742577,-0.11907027843195991,-0.08851732874944122,0.07611325079428237,0.0259194580579424,-0.1038528632956057,0.1081724602646356,0.42136921442669034,0.2509386913138617,-0.16910406629759894,-0.27368343314415067,0.00831119636155482
0.782,-0.036270395207005715,-0.1257066752440692,-0.08939528347013306,0.08158662872139574,0.024751311887135415,-0.10815557909166042,0.10758310381035582,0.43043925097555075,0.2633335682346028,-0.16431152312288358,-0.2629491583299536,0.01727784959535065
0.784,-0.0416578632306793,-0.12570003237172087,-0.08406395226304388,0.08447793943497979,0.02082857004956216,-0.10606488622035654,0.11375528378142394,0.44039266785369713,0.2750793503186343,-0.1511554510389664,-0.25185607740882177,0.027485500175978332
0.786,-0.04237011767453761,-0.11714501451846412,-0.07480752884286224,0.08164000105430365,0.016309699352726456,-0.09749547270637379,0.13104691858701864,0.45149100351415766,0.2842148942792728,-0.1364894581379067,-0.2437284061692388,0.03568857395555954
0.788,-0.03819289957974264,-0.10694027042128729,-0.06875108679643001,0.07517575830702211,0.014771575789421745,-0.08973651647529479,0.1538356838243731,0.46298236505650303,0.2915555571339632,-0.12813737648319695,-0.2396364985003869,0.040167099948331765
0.79,-0.03264672573451673,-0.10409792900400217,-0.07143519494934747,0.07057398532429006,0.017949687837627574,-0.09005448758236423,0.1708584930989412,0.4748815618933448,0.2988626502697887,-0.12750039648436978,-0.2383759981573521,0.04143394690640256
0.792,-0.028907213288523508,-0.10954115526409804,-0.08062427411948864,0.07064963057973452,0.023801072744159983,-0.09735110842512823,0.1789738775004655,0.48767220616060925,0.3074203886683235,-0.1295419500992397,-0.2378842825176296,0.041443662298186495
0.794,-0.027784645114362516,-0.11588745891665418,-0.0881069310512309,0.07305613916550474,0.028090644381224758,-0.10391750355224456,0.18513298928819433,0.5003423214750848,0.3165034058671147,-0.12867396028380218,-0.23650856359236777,0.04049472513857661
0.796,-0.029088641922889003,-0.1168893296759782,-0.08780792916920675,0.07426236545476217,0.027615836168500857,-0.10428027107346566,0.19466728451896942,0.5108139996051989,0.3228492469496019,-0.12481192641882946,-0.23386274187951736,0.03645300698236486
0.798,-0.03157869676504748,-0.11334201652102827,-0.08176453148736611,0.07346558250019103,0.023412689335460278,-0.09984241185553329,0.20537741150605643,0.5187944389030151,0.3248955339157755,-0.12250766317130589,-0.23085407361552546,0.029578356340156597
0.8,-0.033010926128419896,-0.1102471271096762,-0.0772328280147565,0.07237533871011341,0.0201400037587185,-0.09581466497866371,0.21331684898036887,0.526429772175277,0.3266411782293936,-0.12364817461063542,-0.22876845471578583,0.024544246990098773
0.802,-0.03390005352958717,-0.11193088615192213,-0.07802856029490027,0.0739218808189121,0.01999733962370208,-0.09590156387495473,0.2189559126679375,0.5356104287771369,0.3335014781507646,-0.12432693933274662,-0.22822010201803103,0.024142810294083696
0.804,-0.038025238876527596,-0.11947170061859536,-0.08144721707309248,0.08037086168527077,0.019985282066884016,-0.10009351194130862,0.22596123641771124,0.5468517994791162,0.34576926388537443,-0.1201233886228046,-0.22860768418924318,0.025335285761279008
0.806,-0.04579347275709784,-0.12885993867220635,-0.08306806676172196,0.08928796739825443,0.017422993844470647,-0.10505515269135744,0.2354995186504418,0.5609095937264217,0.3592637379142769,-0.11158588006546434,-0.22847396240861637,0.0246876453244115
0.808,-0.0517270194858568,-0.1330377826266025,-0.08131111558835846,0.09392969415469511,0.014184108778046519,-0.10653432044232677,0.24442885820298976,0.5779007182120207,0.3709690503736097,-0.10342765820220573,-0.22696357096685427,0.023105599831299027
0.81,-0.05140979088958712,-0.12916722559638244,-0.0777567294352087,0.09102981272609935,0.013264918304391728,-0.1035835909922118,0.24981522670363981,0.5943434768132677,0.3813438118658585,-0.0998227639130147,-0.22535398712232096,0.02277969623806479
0.812,-0.04719146014866349,-0.12200852004543353,-0.07479459106101705,0.08508147491370953,0.014194085083685819,-0.099612583036717,0.25235852384176344,0.6052819791455908,0.3913344057679512,-0.10128235708224921,-0.226344670582691,0.023151215243639816
0.814,-0.04635512076528217,-0.11935770741470822,-0.07287140298515192,0.08388455847156594,0.013173235333813302,-0.09839922592848722,0.25450084697962294,0.6106606285724455,0.39983004386093,-0.10551666138468094,-0.23095674355814533,0.021882779956679716
0.816,-0.05475841092589107,-0.12550517673965317,-0.07039775903690615,0.09181070501697201,0.007070021201484727,-0.10061208619293814,0.2580513304645702,0.6165779086018547,0.40602590096396407,-0.10935277801312943,-0.23649423877751724,0.018536702399058892
0.818,-0.06903869447278001,-0.13602396380431733,-0.06645338396822235,0.10434752348504088,-0.0020224089178984663,-0.10335498048404897,0.26466485579345217,0.6298303473725547,0.41314608842758294,-0.10845571784186905,-0.23769652596591656,0.016417544489179026
0.82,-0.07660388074736649,-0.13839648554642195,-0.06134081464490153,0.10903793722927763,-0.007739815922262982,-0.10118734530510295,0.27598626821752603,0.6523241396860817,0.4264868524045581,-0.0981606785799021,-0.22998631989338186,0.020365904241249514
0.822,-0.06958195563663291,-0.12441348460937827,-0.05476189406066865,0.09821643134013476,-0.00708182820910738,-0.09054611810342043,0.29107785526180735,0.6794971185015685,0.44654597309237254,-0.07839986457921988,-0.21311513151629877,0.03228091011321191
0.824,-0.05526212273428422,-0.10145210752147764,-0.04650286734028549,0.07934396307697558,-0.004150357372658309,-0.07496411537457857,0.30555400450759707,0.7041367736664661,0.467543494856925,-0.05605303402130913,-0.19290924330512255,0.04871012833911136
0.826,-0.047095185972021274,-0.08438526810519753,-0.03763458889338507,0.06655119817851832,-0.004793169865796307,-0.06207691786218911,0.31634692526729247,0.722158978665353,0.48427622043398305,-0.03992177084791696,-0.17870083205633397,0.06247766207747199
0.828,-0.05060958347797181,-0.07966509949950384,-0.0291295343091488,0.06589908132411838,-0.010894627272163716,-0.05555809832806835,0.32542883114869103,0.7343363741312071,0.49697375704865016,-0.03446257151920273,-0.1767781341489093,0.06703638471954192
0.83,-0.061308139047281725,-0.08294044105836577,-0.02149327278650797,0.073105123819733,-0.0200025127242377,-0.053532482041412255,0.33523745217262657,0.7446414983223489,0.5090736416338997,-0.03705505010352594,-0.18489640990242684,0.061542724914922214
0.832,-0.07139192905389695,-0.08700433503309792,-0.015500871201643588,0.08072611288359591,-0.028208979389411203,-0.05265331586881473,0.3433737824337166,0.7575367563292001,0.5233864252307985,-0.03941931286398807,-0.19401122611972318,0.05266252692870113
0.834,-0.07740127176601236,-0.08827007370794869,-0.010910061961544157,0.08502738974910726,-0.03406609601812802,-0.05098435609552868,0.3462852844935959,0.7739145438639863,0.5401771225448524,-0.03472931689154254,-0.1957830909970773,0.04921779978900437
0.836,-0.08206760647986354,-0.08860556170920819,-0.006738863286382219,0.08773759842520604,-0.03905925346812359,-0.04922506834131377,0.34522909392723283,0.7900878436993043,0.5571606888491782,-0.02418638900424249,-0.18789361172323493,0.0539938977281769
0.838,-0.08696014100953599,-0.09105029667640095,-0.004440527146231045,0.09076862073440323,-0.042805727118741574,-0.049587180558675066,0.3443860779325187,0.8033285369021833,0.5720731266775279,-0.013334691017690158,-0.17344460370916176,0.06246691861399822
0.84,-0.08800938076443852,-0.09439134072131268,-0.006799645225097545,0.09201164207173716,-0.04199091793757015,-0.052272101966466415,0.3454633857117684,0.8162755360158366,0.5856810324166473,-0.0041722472534226635,-0.15721953259327903,0.0697079179672383
0.842,-0.08355249213299158,-0.09610512629186146,-0.012936096042146778,0.0903690327266887,-0.03671607614543502,-0.05548696851550928,0.34745172567764443,0.8332169731822012,0.600678209240951,0.004175652476111973,-0.14263946741459527,0.07587520616258865
0.844,-0.07990752157407967,-0.09796270763432129,-0.018490791484311743,0.090015951479714,-0.03239294575763213,-0.05887968039174663,0.3501608168121016,0.8539234794968371,0.6174551446549146,0.01014976499241984,-0.1308321970265669,0.08392283732952883
0.846,-0.08232561480843334,-0.10311797875149965,-0.021411625010681314,0.09429369215283133,-0.03217826585588433,-0.06357941615344953,0.355648136954956,0.8734972486745198,0.633022855996404,0.011236601306901125,-0.12098873595352798,0.09455715404681914
0.848,-0.08625500048850024,-0.11032689587347322,-0.024692617132298103,0.09964960742778826,-0.03207765794940997,-0.0695836269971812,0.36598856072934965,0.8883612327525624,0.644920178513218,0.009037960892058022,-0.11188503800757163,0.10534369350106741
0.85,-0.08368962459434567,-0.11492700241014799,-0.031507937887346085,0.1000533486014399,-0.026925988667432395,-0.0749561614459888,0.3794378218185087,0.900409760992642,0.6541072410744017,0.008064411162189226,-0.10498926689826585,0.11294767211920358
0.852,-0.07467536852063278,-0.11435348264168882,-0.039557305080859875,0.09513168266420513,-0.01842474214375492,-0.07741326950984508,0.3899459134514132,0.9133498839385501,0.6627809466974582,0.010631893708299773,-0.10495404329105243,0.1148645692316835
0.854,-0.06763510056664217,-0.11079567692288331,-0.04295394234160636,0.0906231986947007,-0.013794820413753558,-0.0763500619492932,0.39303121854894607,0.9271400977335131,0.6717980522528478,0.015598221918939031,-0.11346667499783028,0.11088837676188933
0.856,-0.06864638507042854,-0.10701771211416357,-0.03834982065712024,0.09014383064341064,-0.017109812310177115,-0.07217683990633005,0.3909118283367159,0.9390063007204229,0.6818563636450341,0.020833691665962634,-0.12398696528443358,0.10419792640370187
0.858,-0.07323601012166427,-0.1009523929893546,-0.027958299848819982,0.08910446149310985,-0.024234361814919544,-0.06447386686882269,0.3895094080102774,0.9482047779979895,0.6952127802481212,0.02618043129566967,-0.12671326404192831,0.10017830456858999
0.86,-0.07204276685463895,-0.08883978385110018,-0.01732206484116737,0.08088476546993191,-0.027892149036887137,-0.05341363692412848,0.3922098567030819,0.9573067196383318,0.7139918077020013,0.03431309713127848,-0.1182010054992998,0.10337315032910745
0.862,-0.06395889898694813,-0.07298712069451449,-0.009740127066442587,0.06758623052556917,-0.027003663281199304,-0.04185917823919301,0.3980451170930113,0.9699266222460773,0.736401194056144,0.04728525022631684,-0.10369466145968646,0.11434771466436518
0.864,-0.05753053529148628,-0.06127577417125165,-0.004248305432022641,0.058687892613018496,-0.026982306181471374,-0.033806642762249,0.40407467791462803,0.9879543279700433,0.7568431513928604,0.06255034694540858,-0.09043050668155772,0.12920383604039604
0.866,-0.058569880556963765,-0.05915173344850193,-0.00047221104191738053,0.05936652006621095,-0.030371877381331396,-0.03179580497712826,0.4078121148296936,1.008868048098521,0.771861936740096,0.0753318495741819,-0.08024803059100347,0.14395290455673146
0.868,-0.06335410921607518,-0.06515310992102637,-0.0012230080158215414,0.06556186012370918,-0.0330409278890051,-0.035870799708372585,0.40810981518841033,1.0258687051436934,0.7832369744625085,0.08545528135614369,-0.06931190899011089,0.15858605318649213
0.87,-0.06554527646818085,-0.07341721512439582,-0.0074226138715468215,0.07059867806440742,-0.031075519291465997,-0.043183902073939136,0.4051803157534301,1.0339292906452142,0.793203966522637,0.09836840728438659,-0.05442315985974172,0.1743860702873345
0.872,-0.06407027769274716,-0.07889238492851963,-0.01482810155672738,0.07216560495027106,-0.026305875824009704,-0.04937121092287088,0.39955238727782444,1.0352415747378605,0.8011049376799552,0.1171263252950308,-0.03834603295767371,0.18963742309752363
0.874,-0.062143531961565676,-0.07995652900386774,-0.018051793991649048,0.0716805692838716,-0.02351621582256215,-0.05136947344208279,0.3910327997758913,1.0357640812416544,0.8071633113655636,0.1364243627582254,-0.02720156572218736,0.2011164394318964
0.876,-0.06170077793057598,-0.07696821845633467,-0.015408030271854752,0.07019570717597345,-0.02474556951924362,-0.048565748216046575,0.3796463884687172,1.0379966902416617,0.8149732513256204,0.14839763137684447,-0.02187271767550351,0.20812013171882657
0.878,-0.06084554100490331,-0.07107049432330484,-0.010308342331295831,0.06734568260449475,-0.02707935348862861,-0.042847859447629776,0.36634397265312263,1.0400386351831654,0.8270687426669312,0.1524834224938624,-0.014809487209199904,0.2132769756072276
0.88,-0.05658732300872637,-0.06446696530936519,-0.008240522120267645,0.0628265126839834,-0.026185880159687168,-0.037697535026313594,0.3517755531431396,1.0401109345513038,0.840744249548882,0.15508228269813637,0.0010554421368399935,0.2199400661482418
0.882,-0.048972749081592756,-0.058324130200746616,-0.010092388894644195,0.05669790461535823,-0.021899251864973164,-0.03445435444611526,0.33602176297364833,1.0387057517655307,0.8511256195015614,0.1608536694849704,0.02221869646156584,0.2298643859579131
0.884,-0.04092594573607034,-0.05084413813705611,-0.01064525689212914,0.04874349002643734,-0.01818224787927564,-0.030560009632394733,0.31974711230195557,1.0360422300425893,0.8564953708752229,0.1692572429450561,0.038417922744240704,0.24338288602539174
0.886,-0.034601282626550274,-0.04094486087412785,-0.006601723014987045,0.03963616955507137,-0.01724789010240115,-0.024326835769369566,0.304463376760175,1.0301146988519068,0.8581167983776363,0.17841578980452355,0.04531706719266548,0.2591884593543063
0.888,-0.02988815919242712,-0.031942841782660256,-0.001870043177254305,0.03212341310193902,-0.01677101567395996,-0.018709683200414225,0.29177244668684504,1.0190122491148517,0.8570023311481254,0.18738615078920126,0.04807544441845309,0.27341497307966306
0.89,-0.026131187409271537,-0.027930751176010852,-0.0015688374225421462,0.028624143765775694,-0.01404746643951468,-0.01736291296701696,0.28264986842513606,1.0032320066481655,0.8533155683525236,0.19432823176683905,0.052744780149800566,0.2821589521427315
0.892,-0.02354146389980469,-0.028387373744911185,-0.004825639316857996,0.02816552691711593,-0.010296433725792415,-0.019318802693124963,0.2771835126793816,0.9842213202153858,0.8475140475329441,0.19630863568723264,0.059492220272757725,0.2855629278549967
0.894,-0.02212358360402739,-0.027979008649784056,-0.005968300966786359,0.026837948437595214,-0.00891113363008182,-0.019171489547260282,0.273564120565427,0.9633746508550401,0.8406910822478041,0.19314222459531427,0.06602378749410165,0.28811089131442724
0.896,-0.020055709094071075,-0.020876452218165358,-0.0008859932651211278,0.020969152213123697,-0.010628121530478294,-0.012109366833862678,0.2675503999217781,0.9432762388244422,0.8340575699252037,0.18911387421435868,0.07316792213058082,0.2952050481606961
0.898,-0.015142940937701445,-0.006679174693723639,0.008493660686753328,0.010682825563668554,-0.012626837541508186,0.00044543220913820784,0.25677848904999917,0.9259039677366752,0.8282629394427473,0.18865181198088313,0.08307381849841095,0.3088832921740483
0.9,-0.008174390629082972,0.008215835166220048,0.01643996043740314,0.0002765153000722652,-0.012665519944502233,0.011625204760938345,0.24498455037390143,0.9094499693608624,0.8229218515412983,0.19196089508202435,0.09459211395846219,0.3256784780009672
0.902,-0.002152905389549852,0.01774935219160909,0.019909715914463583,-0.006648228445824508,-0.011532301452350282,0.017229174200633936,0.23697870246674885,0.8910006527614971,0.8160791929328858,0.1961347858612609,0.1048768277839934,0.3400687732181256
0.904,0.002517509191817032,0.023261432782893308,0.02072037041811168,-0.01152257614353347,-0.010395298046512132,0.02020895426708179,0.23155689538959026,0.8709914770780789,0.8053031986260621,0.19868457398410777,0.11381111905021202,0.3509511908312847
0.906,0.007922503890861387,0.029478975795630386,0.021563097875085292,-0.017351635341742184,-0.008983984393828475,0.024771637405055932,0.22389260316483536,0.8511195382713885,0.7915178744988358,0.19852637913028912,0.12228079149926746,0.3619009424412747
0.908,0.013268874784332639,0.035276954081540274,0.02216687259747177,-0.022483865917305307,-0.007184056485331441,0.02916249249664552,0.21173140198343532,0.8300850472067494,0.7793150644800103,0.19537178188086277,0.12810894540492473,0.3747148548705961
0.91,0.015890838445145338,0.03562402404818668,0.020202921430116223,-0.023314219736289395,-0.005045993497612923,0.02862472781537335,0.19622146517987255,0.8052288819968536,0.7701229004692021,0.19025543611254475,0.12891924272259897,0.3867991369420718
0.912,0.01723026249071634,0.03186543499668202,0.015387428991866906,-0.021778255180698973,-0.001737467643232721,0.023843567957575338,0.17940776489119178,0.7769120613648977,0.7591126123199632,0.18513657203927936,0.1268756831205111,0.3954435229803516
0.914,0.020563611288851733,0.031519278816247956,0.01160693657092953,-0.023281281533995477,0.0021856508014018857,0.021317857737617407,0.1622998098857204,0.7482496024883455,0.7428545298106335,0.1803925424498026,0.1263614452620882,0.40153378678603746
0.916,0.024668687291123766,0.03823753404911716,0.013641882184189488,-0.028816451840784248,0.0035807549403147725,0.025495553758349738,0.1445845301959332,0.7211393474441923,0.7250052561130048,0.17446797394445354,0.12892183208819807,0.40772764778472365
0.918,0.026521476139156168,0.04868334793211722,0.021532652988058624,-0.035338050660576964,0.0010987478299642967,0.03437049847572022,0.12652886501979815,0.69464071390989,0.7106886306690673,0.16763730327179446,0.13277693466376378,0.41398955743930943
0.92,0.02703168222943798,0.05833783523284514,0.03032759952012905,-0.04130285311310436,-0.0024110262810874148,0.043115931150669085,0.11032437007223936,0.6672437719054519,0.6998302897346516,0.16395089003228505,0.1355457264348215,0.41752073710692794
0.922,0.028737735063763405,0.06496486230718328,0.03540119889542052,-0.046403273090764675,-0.003860520505167256,0.048529260755795015,0.09827464739423791,0.6391626807504942,0.6879000530997129,0.1656998208732881,0.13565266512444263,0.4175929137075057
0.924,0.03184246637645383,0.06779106432960272,0.035492833497281606,-0.049406175544660744,-0.0025017969279421954,0.049708528618131756,0.0907303743958733,0.6117809516289906,0.6697374955636586,0.1673556546500056,0.1323958103464744,0.41712156945858764
0.926,0.03547155607589015,0.06799523423506564,0.032330294338011205,-0.05057566402119591,0.0009393453109967726,0.04825745765833445,0.08630008805225464,0.5858177375000704,0.643234917678255,0.16040922274011288,0.12635199755599433,0.4182023988953363
0.928,0.03862171224364801,0.06777294256970771,0.029077421888919614,-0.05183005400836943,0.00434475326288015,0.04689851416164283,0.08251649871979332,0.5607207263509482,0.6118287632148639,0.14374612416061544,0.11895758691673365,0.41877407458672666
0.93,0.040304063711721724,0.06773130311677973,0.027425605004547167,-0.05355286727294856,0.005653772944297461,0.04626680435325784,0.0765402816872002,0.5357610189397105,0.582165192510866,0.12442584715276352,0.11151366500238176,0.41539198657937254
0.932,0.042054418458774105,0.06936963974658167,0.02735213573435999,-0.05617885169366157,0.005557256086513173,0.0466441760194603,0.06718457433400808,0.5111260821904999,0.5582954203337478,0.10900513753340993,0.10480088465648235,0.40791476902746127
0.934,0.047135948752960836,0.07673979740154628,0.029629660450180777,-0.06208432041661073,0.0063425218960425165,0.05079109191804353,0.05614990658325746,0.48692810878107773,0.5387161691847081,0.09778600605459122,0.0981680491494671,0.39946065188948
0.936,0.05582512012608577,0.0903374325825152,0.03450719155380654,-0.07180886215502962,0.008911979904492728,0.05966581463309001,0.046306872592879904,0.461873740208162,0.5187588525336618,0.08686583641130696,0.08968520404253001,0.3924468922567898
0.938,0.06415332886757016,0.10322660542110722,0.039056706475718815,-0.08141325705720273,0.012070325874436613,0.06841198208900652,0.039008202974396146,0.43435360072061635,0.4953187615573027,0.07294157469667555,0.07860907297372717,0.3867650048801402
0.94,0.0668917141282633,0.10677557609145079,0.03987837263298885,-0.08503911020705242,0.013338019158486727,0.07073010798932883,0.032868089224085434,0.4044506781259261,0.46912441414661216,0.05499536206010533,0.06574111251303767,0.3810260191576781
0.942,0.06220718082500574,0.09835555403853821,0.03615466915016923,-0.0795585539075937,0.011954970871573605,0.06470444516668579,0.02488175188664663,0.3747081098560031,0.44311598430745314,0.032720329441040884,0.05094310617164933,0.3737848052994107
0.944,0.054688593558315304,0.08223399298475506,0.027551406784768247,-0.06772900539288859,0.011836911388654493,0.05238905529659441,0.013573000141431226,0.34876349208691904,0.418981010827853,0.005878668665903919,0.032889310186911984,0.36429967202186153
