time,I,II,III,aVR,aVL,aVF,V1,V2,V3,V4,V5,V6
0.0,0.00021939620688464173,0.0013821961033732427,0.0011847395171770653,-0.0007459471034077819,-0.0005265508965231401,0.001294437620619386,0.0010750414137347445,0.0005265508965231401,0.0007459471034077819,0.0010750414137347445,-0.0008556452068501026,-0.00021939620688464173
0.002,0.001751950068238059,0.00998418363685349,0.008385488954750773,-0.005539777438928582,-0.0035903707844943448,0.009239524368181339,0.007619212024074066,0.0036781292672482015,0.005210683128601619,0.007180419610304782,-0.006086658162720648,-0.0013131576544687755
0.004,0.006339298322171932,0.032800717102071414,0.026920153605292867,-0.0187514600622554,-0.011010923644176926,0.02995848700093196,0.024209626685245112,0.010899937705998976,0.016452629270225273,0.02158331137630756,-0.019402882224426595,-0.0034935868063497395
0.006,0.013927299568172806,0.0654298930806793,0.05225261778883118,-0.038578204042103645,-0.020171579073058832,0.05882302965090569,0.04567840255339004,0.016817452908035317,0.031148691143991235,0.039459115664786805,-0.03675530403223192,-0.006394855025100799
0.008,0.021146263024679063,0.08971936846415747,0.06927319094791412,-0.054476483483380675,-0.024851666774610152,0.07900783032684636,0.05714327237127936,0.01159652573891895,0.03941667430581507,0.050353749835780184,-0.046650440273991914,-0.012025953579318746
0.01,0.023900254004664667,0.09223033328310307,0.06869126225511667,-0.0571463497607178,-0.022920723888697,0.07921742658907235,0.050265145259358136,-0.00423648403758841,0.03511055567859796,0.04886344601488359,-0.04394303423452155,-0.023502227717543123
0.012,0.02070625958396647,0.07935230441045343,0.05880199381961705,-0.048675166379562984,-0.020108832819576858,0.06725727294903966,0.03292325811885478,-0.01685382447304772,0.022906444888788048,0.03974604302939704,-0.0368121477547082,-0.035372918297850234
0.014,0.014000325852649957,0.06825759816965678,0.05447086521648948,-0.039402087299738736,-0.02250544172248603,0.0595651706277646,0.018730565237859202,-0.017645392223288953,0.012045261447036737,0.03374241938320268,-0.03459822500421923,-0.0343483216374019
0.016,0.009841049196378678,0.06751721645739162,0.057914622142325956,-0.03723438331153731,-0.027122259628444063,0.061356818346559865,0.012788646414476489,-0.012990308305555117,0.00609414130366449,0.03479124628519788,-0.035106983693059264,-0.01980513482617516
0.018,0.013162063404898741,0.07131677970680346,0.05823159108445026,-0.04161603717465357,-0.025446816657683925,0.06367323481770336,0.010232031752830474,-0.013109869111535022,0.0020788009080396808,0.0330838506345998,-0.030463304268802525,-0.010154321665701474
0.02,0.021329653412232027,0.07010279573064906,0.048685925172625495,-0.04587224723967545,-0.015777694289420625,0.05818294258089865,0.004842174265476317,-0.0227882336348714,-0.0026999921217652715,0.021224866748080044,-0.021042867257386855,-0.016863793634047237
0.022,0.027110604217983666,0.06184012360309948,0.03463885900818941,-0.04479985587097131,-0.004870120612718878,0.04699354892496455,-0.003389768735456665,-0.03956867850664811,-0.006592533292454985,0.010198003896312625,-0.015745744144547363,-0.02884030867957137
0.024,0.02847526954368734,0.05202804015581787,0.023553976335999857,-0.04000162248285469,0.0022897448556237366,0.036680661189889614,-0.009262155107711221,-0.05306419096453524,-0.0064571724446449335,0.013701860783451772,-0.020369829216857014,-0.03172026197301781
0.026,0.029452767241105536,0.04577706488561374,0.016374218449313555,-0.03657348205315709,0.006827006601046586,0.029704096782672693,-0.01032289933110167,-0.0546589544668002,-0.0032321505283149496,0.02428050708303741,-0.03212275963741208,-0.026220377090525757
0.028,0.03189793081397817,0.04212183186489425,0.010247449128197623,-0.035713918618683546,0.010774225241139154,0.024250013294439023,-0.010760478971859949,-0.05031740536044351,-0.002520560010577272,0.02196795372928647,-0.04372104967358462,-0.02141817959220372
0.03,0.0329808532429493,0.03656580959219721,0.0035691051453296783,-0.033776330831589325,0.013882117416669372,0.01837003170418122,-0.015193118913872448,-0.053560764404742965,-0.008346409968927946,0.002487003199097981,-0.049176025697090946,-0.021219289825166934
0.032,0.030663300531266476,0.028099672486795162,-0.0025840468719228395,-0.02841268888740674,0.015167628996032929,0.012373306294817579,-0.022055870238770158,-0.06840714337527112,-0.018529046126800605,-0.017661907313827132,-0.04818843404418759,-0.023631105731986925
0.034,0.026202001715280223,0.02039151141497615,-0.005811610655603787,-0.021828373001543628,0.014179862574256573,0.007890808276315086,-0.026176191012616312,-0.0869283617683525,-0.028016920724548748,-0.02450078620259063,-0.046116951218579554,-0.028258687183460668
0.036,0.021478256432462022,0.015610486470137769,-0.005857168642905827,-0.016910550427089707,0.011780485910896732,0.004959128810009514,-0.024899551148444436,-0.09885775804306925,-0.03456955956706143,-0.022321889670673598,-0.047962832818626074,-0.03689805069367874
0.038,0.017328070786883396,0.011104399501690718,-0.006217996113478671,-0.013100117791121595,0.010354499134815521,0.0012007444349786398,-0.01891863211468076,-0.09877935249980972,-0.0390139007880872,-0.018721271794636882,-0.05302588156580277,-0.04838579334647289
0.04,0.01298453661612278,0.003099731461442717,-0.009909818534844921,-0.007119233179316256,0.01068684497295642,-0.005276547427430686,-0.010430668323031482,-0.08733915967214638,-0.042112237334598256,-0.0092072190081591,-0.05655325972718403,-0.05969810816699078
0.042,0.005928214091632594,-0.008922421617340328,-0.015008456065513357,0.0032684040966044128,0.009625712496748135,-0.013285993279007646,-0.0031783735721944307,-0.07032602477208887,-0.04418379612343633,0.0060657786930914835,-0.056579037034160645,-0.07007687665159884
0.044,-0.004943881029557704,-0.02183828111887377,-0.017375577600046762,0.016247958055101198,0.0043411185617247446,-0.019886098074032788,-0.0003331324200817361,-0.05649122380794802,-0.04627775884274226,0.010376276885884902,-0.05720057600172202,-0.07896004546674736
0.046,-0.016088039772885403,-0.031645524720259215,-0.01643657411098579,0.02689700585984231,-0.0026441922132224276,-0.023668971972472076,-0.0003179173473146597,-0.0530884401814097,-0.04896529311223399,-0.0020619104677508876,-0.062448113295068206,-0.08395567954026328
0.048,-0.021952281298497554,-0.036924434776345334,-0.01597636876228855,0.03176108144208916,-0.0056114656267933875,-0.02623777005157626,0.001484775880122981,-0.06187739100806921,-0.050628671008999794,-0.01095495266992592,-0.0692112853458199,-0.08442529035109382
0.05,-0.021110642456314083,-0.04046554777116518,-0.020007961425397052,0.03241424187637962,-0.0020071178142224413,-0.030766644210171893,0.006157943134964486,-0.07715742811288433,-0.04905733859414828,-0.003865908688846436,-0.0710199599774007,-0.08231905989459178
0.052,-0.01796637692714248,-0.04634867351955695,-0.028467382536616133,0.033500832914406455,0.004833753713752935,-0.03845997060249944,0.00921705041883379,-0.08798590027439655,-0.045730809304086434,0.0020376093135549564,-0.06773560787940207,-0.07985863497575323
0.054,-0.017583147937592348,-0.054486842711518005,-0.03666917544872355,0.037190430730341666,0.009280182270714156,-0.046335081582222354,0.0056646910354332634,-0.08778803328450233,-0.04641314710641531,-0.00950057726253012,-0.06620081181771213,-0.07986981497692645
0.056,-0.020842117045282937,-0.06117841977388374,-0.04017294574390469,0.04190295797474983,0.008972214486975934,-0.050720112509425395,-0.00403607856871264,-0.08292325422454536,-0.05493848617598961,-0.0295253228133083,-0.07118402454879347,-0.0837489433235151
0.058,-0.02545553697616117,-0.0659537764118496,-0.04053725444240071,0.04642675486567739,0.0066572331959828986,-0.052941023241355904,-0.013840229425193003,-0.08584303001216591,-0.0684933886536046,-0.043165111039328186,-0.08078033754876082,-0.08928438147900951
0.06,-0.029103760939713362,-0.07259629512879884,-0.043597350896184536,0.05153413427741117,0.00677116585642779,-0.057924091851641116,-0.018236378278940483,-0.09860223764794156,-0.08096397957219947,-0.047513124888160785,-0.09087972463973483,-0.09459370963890504
0.062,-0.03100775544210271,-0.0820517872875137,-0.0510732300472288,0.05731360783278127,0.010137427807303447,-0.06673242530661164,-0.0175455338325498,-0.11054433997811888,-0.08871654097365313,-0.044594647631353075,-0.09935845952679892,-0.1000727407000761
0.064,-0.031931557349896444,-0.08980029916469091,-0.0578040878213173,0.06204239735758292,0.013191435125061575,-0.07452838780846137,-0.015991364583664774,-0.11339521049295698,-0.09221565621543097,-0.03723586164695099,-0.10551147008502558,-0.1062866686020245
0.066,-0.03235976854269624,-0.09209295276808034,-0.059543726231154295,0.0640449380389393,0.013439681914241596,-0.07720263203782778,-0.015850659418046382,-0.11077014390532876,-0.09402201763230808,-0.031812266883188466,-0.10906065698163915,-0.11269989197335746
0.068,-0.031167104423035205,-0.09054253664625755,-0.05890075233212664,0.06323879694486609,0.013178659263372241,-0.07643615235307612,-0.016141577439976733,-0.11061028102442348,-0.09634987213212672,-0.03257224123809326,-0.11066979969385991,-0.11666277962995984
0.07,-0.02778671671869578,-0.0887995709831492,-0.06015410853667003,0.06094654393121978,0.015461290382099546,-0.07615287247232129,-0.016091101457791,-0.1142431967325448,-0.09940181372406916,-0.037888284762997465,-0.11144441819202083,-0.11702916811853945
0.072,-0.024494925913848813,-0.08806479547880085,-0.06257181962468662,0.05879882771063075,0.01885593472989487,-0.07688598082322018,-0.01630747201507409,-0.11733035775881095,-0.10086732912819477,-0.04667053657766671,-0.11131366837712346,-0.11759556609226869
0.074,-0.023847983121059624,-0.08728430748769325,-0.06277511255065568,0.05744684961420624,0.0195546853538752,-0.07639131618439729,-0.016680357395434157,-0.11667960933434454,-0.09821233151491916,-0.0592975842977415,-0.10919116823479702,-0.11932125387762921
0.076,-0.02478687962616305,-0.08565861989821286,-0.060757455737026074,0.056357764461577864,0.017412239350798067,-0.07420856979092727,-0.016344839909884046,-0.11036495526967682,-0.09267451664128044,-0.07051414724892142,-0.10499610400312845,-0.1164257995248155
0.078,-0.02444527825076459,-0.08427048047055934,-0.05990744989338421,0.05546874524199731,0.016224102953489822,-0.07295538005553492,-0.01574359593134199,-0.09786298672909124,-0.08917911645776527,-0.07135594910870119,-0.10037579776749359,-0.10759545196815677
0.08,-0.023052852330935465,-0.08534336936132539,-0.06199957039628286,0.05598020997338383,0.0178260241335805,-0.07499651924739498,-0.015926458447105787,-0.08653300067580257,-0.09076352161518318,-0.061823665370226356,-0.09737864161091932,-0.10133503564614686
0.082,-0.023837191885622635,-0.08928700731092189,-0.06466235582499764,0.058481340257476824,0.019145824574187627,-0.07909352255923688,-0.01586532626573342,-0.08797610933076376,-0.09488802755564694,-0.054969412291040826,-0.09699014161245179,-0.10437053227280557
0.084,-0.02815769427165158,-0.09340902260709065,-0.06444476243899018,0.06163611327085412,0.016698650148903475,-0.08144402454412389,-0.013132553330355614,-0.1002672253469416,-0.09664426483950707,-0.06143635469647504,-0.09829316641000552,-0.1101464945757198
0.086,-0.03311416811573885,-0.09503620195700038,-0.061529995931514994,0.06379971344709885,0.011973790082610496,-0.08034440673336854,-0.007561577438204615,-0.10604896125063096,-0.0943091316622706,-0.07394873181620507,-0.09895664429391529,-0.1058391654533635
0.088,-0.0351219478706334,-0.09491355405694789,-0.05965654851186392,0.06507512518497391,0.009581108228952981,-0.07831377867382447,-0.00237928457133303,-0.09605523293281863,-0.09046930723780594,-0.07660155764244737,-0.09702445599462887,-0.0911355577213268
0.09,-0.03416888013663024,-0.09547132169879866,-0.06097275568057699,0.0664658304813687,0.011079781821913623,-0.07840798581434244,-0.001212569964156626,-0.08218618619707167,-0.0881008020075174,-0.0670241021202698,-0.09257399714944381,-0.08001134657692213
0.092,-0.032608342324670636,-0.09668431069767135,-0.06337317894913083,0.06745849851875037,0.013896487101267173,-0.08016744184365655,-0.004796236406481598,-0.08001437327371776,-0.08735851576471534,-0.0577255094114863,-0.08897094278581653,-0.08265513954834236
0.094,-0.031614063027831374,-0.09605749573766802,-0.06359360415000347,0.06638276244552323,0.015334107629312864,-0.0805153122736576,-0.010463173533625776,-0.08931903194360508,-0.08696162532910139,-0.05573235547605998,-0.09061665819226429,-0.09600259542720527
0.096,-0.03096032545301744,-0.09218046977128061,-0.06062132499299486,0.06310859044735079,0.014579972214774079,-0.07731011314597555,-0.013935942766506523,-0.09929392255571354,-0.08623040390866055,-0.05449391852590173,-0.09622441966510671,-0.10959384748096726
0.098,-0.031029493059711647,-0.08698460412411446,-0.05582464714220906,0.059966685139029585,0.011905506665800257,-0.07171715652126018,-0.01252701897326337,-0.10262574211801206,-0.08462300040455979,-0.04830679780784958,-0.09867962240001672,-0.11381291272756909
0.1,-0.032719560845411694,-0.08439230871763091,-0.05185149316860424,0.059549134499762776,0.008618429648652278,-0.06784145611682507,-0.007669891940905001,-0.09715424329035796,-0.0820083095808789,-0.04118082733983424,-0.09506620229314555,-0.10824329896015453
0.102,-0.03514512636266765,-0.08655851359331646,-0.051571758241387856,0.061853046102719564,0.007125873186613503,-0.06930910613197086,-0.003143387167716124,-0.08348096313331499,-0.07965362343658966,-0.03773884178856032,-0.09081654322281998,-0.10439640362081519
0.104,-0.0360871202667186,-0.09226665775061921,-0.05616810285993161,0.06476471804451024,0.008910348261340174,-0.07591015699698647,-0.0003528919186347427,-0.0671951625530997,-0.07856770405038556,-0.037234663679800384,-0.09183023041427073,-0.11452682994263896
0.106,-0.03562016604309283,-0.09937268203276396,-0.06366383714238676,0.0674936895190522,0.012676761036735762,-0.08421988781123325,0.003706255963813327,-0.05542244724350693,-0.07763469863505981,-0.04000703460017012,-0.09810418698931975,-0.1374589902764809
0.108,-0.03685760967575824,-0.10747673128778959,-0.07058272788957849,0.07186828063021518,0.015505695032313721,-0.09141174619537483,0.013650623644410808,-0.047169085248060565,-0.07494175027988156,-0.0477781538580724,-0.10636457440247293,-0.15713613136969626
0.11,-0.04248441724248744,-0.11791456690115733,-0.07548257979036639,0.08006755917717778,0.015553232561650863,-0.09790500652276206,0.03195116800391792,-0.03364499833926448,-0.06996007299753722,-0.05470779834736296,-0.11599655029688469,-0.15735198434942071
0.112,-0.0513924795515141,-0.13130603251623874,-0.08010108669951498,0.09166363479206316,0.013756020444715012,-0.10593553884816304,0.058172314633192834,-0.008264159819794822,-0.06293206414455967,-0.052204103191325214,-0.12977652520499508,-0.14234094779325798
0.114,-0.05808291912632007,-0.144442322585132,-0.0867959489556843,0.1020311083007517,0.013488920552319022,-0.11570679078091706,0.08922299219351118,0.03135050902224711,-0.050409783914165396,-0.04240827270218241,-0.14595754055081925,-0.13612729342465713
0.116,-0.05520099198106908,-0.14996981697558764,-0.09536873255459666,0.10368783724575001,0.01845200392898081,-0.12335384946906586,0.11979768665691687,0.08964217231035501,-0.02008945368015838,-0.027692809892708063,-0.15019247157281887,-0.15170704280019107
0.118,-0.03805722862465304,-0.14104591837968727,-0.10333057901066693,0.09105336143284014,0.030591512506975047,-0.12363734431261643,0.14616908892232647,0.17286329881175105,0.046229162717429974,0.011409737125220278,-0.12138703510317293,-0.16950385797132786
0.12,-0.008099870196771213,-0.11752016659899611,-0.10923359624864773,0.06488077684679701,0.04911561057123127,-0.11536638548966321,0.1710170148141292,0.28291351427534367,0.15820976611416565,0.10391158922388291,-0.050948102404269995,-0.15700849451420504
0.122,0.02828726198050128,-0.08685311444330238,-0.11472107137935013,0.031510234177081695,0.07105341355996256,-0.10319515175270895,0.20324472599669965,0.4176287384569868,0.3072786280475503,0.2508071810422782,0.04673134657540406,-0.102576297659314
0.124,0.06574478523500626,-0.05823420889700211,-0.12379604065139443,-0.002397903669752576,0.0944080084328671,-0.09379999142754822,0.2500387357274711,0.5737466178307844,0.47660659089693247,0.41843276365578463,0.1492255943140552,-0.023205788609058187
0.126,0.10407921030661335,-0.03584938943549758,-0.14005328951215681,-0.03411449694867002,0.12065553563503217,-0.09084137157636092,0.30534173044564766,0.7394767375302458,0.6543909041388604,0.5728925801956513,0.2488234116447619,0.0551776390236587
0.128,0.144881759769125,-0.017015990389656104,-0.1620833228078276,-0.06451934979763692,0.15114806776609604,-0.09200139046270212,0.34901891492718345,0.8853490801681635,0.8302175619930487,0.7066718476136318,0.3540360187118338,0.12242889276333295
0.13,0.1858109269750613,0.0050307883015620935,-0.18090314090427953,-0.0953918021832915,0.18118352502374663,-0.0893993091289973,0.36425181909613935,0.9745120700447402,0.9894141637403226,0.8308522148007175,0.47273865381339675,0.19053774455869477
0.132,0.22231820447592388,0.03809600310626419,-0.18431422692902244,-0.1292393496088733,0.20179733821553025,-0.07355674414275556,0.3530346610214808,0.9901350192301571,1.1242651392455043,0.9578169207110059,0.6037758109945986,0.2758568397131983
0.134,0.25488423416532735,0.0903190447878252,-0.1644602166369483,-0.17144893176553588,0.20832545764780036,-0.03717194470762149,0.32583049416705223,0.949725212464002,1.2443917534749809,1.0960868170497526,0.7457429680554313,0.38437983305080997
0.136,0.28875451868484664,0.16842406274935395,-0.11974885001720469,-0.22788072892918312,0.20266684766194235,0.023953449451620253,0.27889030423165034,0.8819720181208249,1.3622974040014555,1.2490370198478813,0.9026509379784501,0.5158337207546201
0.138,0.3226088778526362,0.27178020876272657,-0.04994300479668044,-0.2964431145607419,0.18466712062867752,0.11022790379184724,0.19420594465177793,0.7852860316270873,1.4652701879908592,1.404719655012696,1.0699492456753814,0.6627087103022186
0.14,0.34076448251614977,0.3874093072087817,0.04724183275117895,-0.36239301396613766,0.14541110187232456,0.21653056679137087,0.06401443186528412,0.6157622414000562,1.499582007902901,1.5172501111930086,1.2150085860581088,0.8000966483482517
0.142,0.3237142596080303,0.49230372895649455,0.16865885215759066,-0.40539042703902683,0.07618735477117547,0.32966893347135745,-0.09446847528495558,0.3228433155621191,1.3799482164876458,1.499687049522242,1.2779059653712848,0.8915320653022336
0.144,0.27006433064104995,0.5621276192481514,0.29196060608796015,-0.41361353576377174,-0.01278570112396917,0.4262002272195423,-0.25210700950913423,-0.09485493900487116,1.0384086063444757,1.2673431279277885,1.2030239010493926,0.9084964450299601
0.146,0.203322594284684,0.5822344540731221,0.37896962925133326,-0.39144806776944174,-0.08999490023430204,0.47957003553345684,-0.38904680588564494,-0.5673764271060078,0.49741005794326304,0.8242770703804295,0.9841213102409961,0.843422987947316
0.148,0.14963874350142287,0.5547457041060658,0.4052562357233567,-0.3519294265046302,-0.12936736783143507,0.4786511978722273,-0.5025089295958151,-1.0046030329468543,-0.11971284469034828,0.2886485469166633,0.6759197131967215,0.7111479969171426
0.15,0.11134237719540266,0.49488221377051583,0.3835900018477799,-0.3029134325235438,-0.13661476805811235,0.4376243393721347,-0.6001858335182851,-1.369208177257268,-0.6781971999220613,-0.19827104715767718,0.35373906206948824,0.542671009858398
0.152,0.07136273894989158,0.42076568691317856,0.3493415212861636,-0.2452094070510956,-0.13916449424806981,0.3832592206595429,-0.6856750948687056,-1.6686466434066858,-1.108480948787588,-0.5643068339351556,0.07284193695004416,0.37689512898234634
0.154,0.02049843866835834,0.3473878581342374,0.3268301357732375,-0.18258894586950505,-0.1538341367801091,0.33528760950804914,-0.7491000003163838,-1.8858675388861217,-1.386769095143121,-0.798895641979795,-0.13532516323482677,0.24717155452730355
0.156,-0.032363056895526175,0.28489975318749333,0.31728959468722123,-0.12483725126671395,-0.17573910538110402,0.29953201638208277,-0.7787687597425712,-1.9734090237743174,-1.501790450980727,-0.9093674367763627,-0.2599630341836825,0.16168054018893585
0.158,-0.07496678227568228,0.23539732653542675,0.31053030404376636,-0.07867199170121827,-0.19320326410272284,0.2715935002778425,-0.7803696097912289,-1.9230534380267401,-1.477843573611625,-0.9207159132654577,-0.3186936234577414,0.10093158017711226
0.16,-0.10280327838764139,0.18994126994510577,0.2930861055471552,-0.041519719733250186,-0.19785779059420006,0.2397806900873323,-0.7723148701894926,-1.7959127070637968,-1.388707269584659,-0.8882130692533028,-0.34969913434299327,0.04047687996072513
0.162,-0.11569879384979409,0.13283591046973492,0.24892310346378035,-0.005939953483337658,-0.18222738117991288,0.188439467808912,-0.7653422675978347,-1.6708107265957455,-1.3099695157353213,-0.8679243730485148,-0.38267227092488565,-0.029815015713079228
0.164,-0.11462539255471857,0.05488994253950789,0.16962597470500773,0.03243929658477487,-0.14252783943658678,0.1094100010151857,-0.7592170107042479,-1.5850983245002483,-1.2676426473268891,-0.8724677970700226,-0.42197018877780584,-0.103831364617331
0.166,-0.10505674364994806,-0.03474612937795782,0.06995772109796103,0.07145512296771672,-0.0883498188481019,0.01503944299769228,-0.7524307404695207,-1.5259867738465247,-1.2415948482205283,-0.8768218602315013,-0.4582301427895079,-0.1663094579339512
0.168,-0.0980542833327184,-0.11262090810116768,-0.015127518150410923,0.10554228856084535,-0.04227937352174857,-0.06546997819163906,-0.7421620249774219,-1.4605218439571177,-1.2024487935933994,-0.8614224450111596,-0.48382989379183367,-0.207034632384877
0.17,-0.10222925395614142,-0.16003900142540428,-0.05812502566410011,0.13083239505348532,-0.02262708733402415,-0.10951930382307012,-0.7203184765081204,-1.3673211515769457,-1.1369356453242294,-0.8265001770342829,-0.49328792859134835,-0.2294579874854838
0.172,-0.11424952299534247,-0.17822192471082499,-0.06390303423142711,0.1465767390481372,-0.025992906840770255,-0.12104762162503638,-0.6796148592651083,-1.24828185019543,-1.0504649116020854,-0.7751701778286505,-0.4827745504583446,-0.2406395662028899
0.174,-0.12201922768447511,-0.1835543686072535,-0.061335987616218515,0.15383465840487776,-0.03185757685651269,-0.1230371685514047,-0.6217811908424674,-1.1205380628611674,-0.9575154774159648,-0.7098764889461091,-0.4566506035800078,-0.24238281523212996
0.176,-0.11836584653364514,-0.18890455807681228,-0.07045152817357977,0.15450994206580174,-0.025682123058579504,-0.1311299858775755,-0.5568457577963403,-0.9993852141759476,-0.8698468024763815,-0.6424848019051682,-0.4263713037406103,-0.23780994000075892
0.178,-0.10770259007623945,-0.1922944239519437,-0.08453464662447256,0.15042440573436097,-0.012683574676008506,-0.14004405022609165,-0.49634545911864647,-0.887197521291186,-0.7903516713216738,-0.5883102162882103,-0.3990739251926858,-0.2354284006766583
0.18,-0.09818811304212878,-0.183735286840956,-0.08529065112580668,0.14181448859307152,-0.007011590449915584,-0.13577359975510636,-0.4448705544420542,-0.7778284022969818,-0.7140650131975677,-0.5472319843500605,-0.37138973599628755,-0.24050913866554133
0.182,-0.09179232736067906,-0.16029647521287457,-0.0680753586057931,0.1280774286898321,-0.012748924694494667,-0.11527954220502477,-0.39542554973967153,-0.6690197703822262,-0.6330909832709555,-0.5026186794936922,-0.3367053676812363,-0.24571476070719253
0.184,-0.08500873021059285,-0.13227058660582078,-0.04698676928224855,0.11148209838169187,-0.02053377733292018,-0.09106137910292723,-0.33794712238334035,-0.5664875029398324,-0.5451165284755978,-0.4420801621575426,-0.29549040653415276,-0.23532398433863605
0.186,-0.07532986606051695,-0.11356871280503626,-0.03840133663999655,0.09721858485710165,-0.020045923299016218,-0.07780576896056661,-0.273051554563463,-0.47423595895365883,-0.4587977620401469,-0.3691519310814233,-0.2543494708826405,-0.2026442074119165
0.188,-0.06342821340509674,-0.10802763679282279,-0.04521872287295274,0.08790874846936927,-0.010296797681454634,-0.0781564224141221,-0.21093725512165032,-0.3878491695615943,-0.38567536803824637,-0.29465782922058026,-0.21802253158857318,-0.16083286204408648
0.19,-0.05121163301132934,-0.10809585402962593,-0.05769153935150974,0.08119416805677528,0.0022324086038077403,-0.08351626218959335,-0.15838903859321568,-0.30420893167268,-0.32725881227682063,-0.22735594328869424,-0.18735997989044192,-0.13079865130101767
0.192,-0.04002843631273636,-0.10523598210752141,-0.06568589822472015,0.07379037586923752,0.011557734675828256,-0.08557652479281502,-0.11414049663391497,-0.23146296257970222,-0.2765411743490734,-0.17284936956281022,-0.16219349663420152,-0.12002366352023533
0.194,-0.0308574615393613,-0.09824438040703293,-0.06707075793381825,0.06570209985329004,0.01633790469127592,-0.08328432494990072,-0.0759157720430151,-0.18172654192871887,-0.23149297586139217,-0.13421450783091762,-0.1429825269831538,-0.11978642526034385
0.196,-0.025147046883817734,-0.09193938334520817,-0.06571138063277406,0.05982209194547962,0.01814230829390575,-0.08035341125042905,-0.04485848962260515,-0.1551744671056949,-0.19863964894786898,-0.10957897613671164,-0.13074627431296706,-0.11855326148713528
0.198,-0.023599695388436728,-0.09046122726015063,-0.06554818878439202,0.05823817239304454,0.018791662064905464,-0.08001158858160001,-0.022437245359272908,-0.1375261149721492,-0.18155802976702914,-0.09074190512655339,-0.1252113723412994,-0.10993346644624372
0.2,-0.024759641225667903,-0.09346437933954932,-0.06770475327142317,0.060157821704761735,0.019481248535934477,-0.08257176893642915,-0.008432971101233484,-0.11707348594725148,-0.17356812007969055,-0.07241771620162323,-0.12354460561652081,-0.09548871724248549
0.202,-0.026316111109631876,-0.09770775977145735,-0.07082556420877531,0.06321079253369151,0.020588966134439893,-0.0859989761803283,-0.0013317074957237636,-0.09574603996415489,-0.16488105644467663,-0.06116536289492799,-0.12255213682057038,-0.08699462614804852
0.204,-0.026895128356529664,-0.10000257729314894,-0.07267195757692789,0.06500216456522408,0.02174926307655186,-0.08770877664246128,0.002582461314722253,-0.07795796751596634,-0.15187169877275625,-0.06450643753137014,-0.12077673675013416,-0.09596847800843193
0.206,-0.025957233880379623,-0.09894610190163898,-0.07239778652468605,0.06398744055849613,0.022576838931930417,-0.08661123870273742,0.007728070145193782,-0.062017055201022235,-0.1369816970905987,-0.07702570634469569,-0.1171068838795185,-0.1160372106084265
0.208,-0.023059339164751464,-0.09540157716688377,-0.07173249800261598,0.06030457276403384,0.0234985316184544,-0.0842422046032082,0.01481367467595507,-0.048472541669480416,-0.12354299462681095,-0.08619576457553704,-0.10958414524992449,-0.12705432620115933
0.21,-0.01843863468879336,-0.09110492816241993,-0.07239289769618505,0.05540553435133581,0.02511842136556292,-0.08273672931043605,0.02018790668716676,-0.04286916407151862,-0.11385027993124679,-0.08526498090128871,-0.09813062168917171,-0.12039858843417567
0.212,-0.013885296357017329,-0.08707492845865669,-0.07330577019214528,0.051085096221626825,0.026919707345712675,-0.08188794117196994,0.020961819848351337,-0.0447124869003299,-0.10927475252795299,-0.07659704970022473,-0.08679640592123494,-0.10770963234821485
0.214,-0.011595370611991772,-0.08441672443592386,-0.07302725858995351,0.04912432288723252,0.02803045486031253,-0.08075640500266917,0.019468221921812176,-0.04395830564353653,-0.10843791753343682,-0.06663205388684577,-0.0797663993734354,-0.10087535482911338
0.216,-0.012189954008130463,-0.08488301868947613,-0.07273834197693413,0.05034376838204494,0.0285616274335242,-0.08068589467809094,0.020454399532988166,-0.03246362124924442,-0.1072591587067834,-0.06028683316586572,-0.07631995997573345,-0.09643422397886307
0.218,-0.014276147863433515,-0.08834762523559926,-0.07398396463897777,0.05327598382874272,0.028968343849045505,-0.0830668741724203,0.024636605378463877,-0.013291460346381768,-0.10352598046131378,-0.060267881728617745,-0.07284996452170198,-0.08785210760718269
0.22,-0.01576087847739244,-0.09177685052343658,-0.07594921318110602,0.05519364252978237,0.029208660214497518,-0.0862187820185294,0.02851086740249322,0.003630820571040649,-0.09922873356869881,-0.0673709661184077,-0.06867900565848058,-0.08177979321395565
0.222,-0.015844570291871526,-0.09297989476425873,-0.07715068163291361,0.055087464752054914,0.02915140534016076,-0.08775289314637613,0.030544434474914083,0.01244260981381517,-0.09624160310228345,-0.07704957757092597,-0.06759986666463538,-0.08614870568270655
0.224,-0.015831504930198644,-0.09337697117209601,-0.07758908601017776,0.05472682069282273,0.02886186192190314,-0.0878778951050387,0.033007036748150094,0.015149312285108019,-0.09243271531593693,-0.07828005410544166,-0.07285267375394854,-0.09228324344831225
0.226,-0.01731417002739699,-0.09542846095018609,-0.07812676052847652,0.05624186594421605,0.028466547412321627,-0.08844663977378486,0.0365804212557997,0.016272309939863807,-0.0854157099665883,-0.06155271832652884,-0.08121539884665503,-0.08898903860875834
0.228,-0.019117377871202844,-0.09861185017552217,-0.07947664865008265,0.05874230633099222,0.028753543895815307,-0.0901417420144749,0.038214972183427856,0.019992539492147087,-0.07774083750135291,-0.031135300067256386,-0.08478639573037067,-0.08201343531309617
0.23,-0.017697433892118683,-0.09904109842993915,-0.08132835260758849,0.05841801391435946,0.030963981576683734,-0.09106165851131348,0.03623703473692919,0.030061424116786417,-0.0738715417064325,-0.006380694101584406,-0.07899438942106841,-0.08108577879956239
0.232,-0.01182656383820042,-0.09339618707788336,-0.08157203531067536,0.05299672742162405,0.03449646944877626,-0.08834646121530038,0.03327757952588787,0.043831923797407475,-0.0738955180570067,-0.004374906176221078,-0.0667403816926264,-0.08152717597771468
0.234,-0.004533793334123166,-0.08324468413934086,-0.07872039784950226,0.04479331879490578,0.03685363685248486,-0.08218710171199925,0.03244009444615844,0.05189960225104721,-0.07425247304230088,-0.022572811728823382,-0.055221347280232584,-0.07468201866823429
0.236,0.0001680875487112542,-0.07464732520932817,-0.07481863722774601,0.03866371395571516,0.03688285757918006,-0.07674174809865862,0.03381071574346616,0.05067371815039642,-0.0724559090858555,-0.04279933064108577,-0.049424923864392734,-0.06635160896643096
0.238,0.0002277944559598601,-0.07266267641623225,-0.0728868228903206,0.038034116832720545,0.03551903909492072,-0.0754745022304337,0.03627836790127901,0.047036789685382836,-0.06794857949518698,-0.04784795198419773,-0.04824827843678103,-0.06917321459758793
0.24,-0.0035373989133090024,-0.07677721217805883,-0.07323631117619063,0.04234840155164579,0.033812112367827815,-0.0775709892826082,0.04010061983649584,0.04843095251292721,-0.06107041519720052,-0.033605803805684245,-0.04848327176723954,-0.0815522578170461
0.242,-0.0075498249864940446,-0.08237223728700553,-0.07482273031282781,0.04745032421656477,0.032808641746971,-0.08029866957516994,0.045563311769105226,0.05575115581455855,-0.05345149928683094,-0.012088110311924978,-0.05076018820587173,-0.09037020853181899
0.244,-0.007925013080169786,-0.08515948975650729,-0.077236539745056,0.04884105254528947,0.03396585068103057,-0.08208798197744163,0.0510866864524937,0.06448705538929841,-0.04671705787938378,-0.0008235394686350686,-0.05623548777221454,-0.09234316183140724
0.246,-0.004040411980875147,-0.08362210058179471,-0.07958250048616258,0.0452651964893962,0.0373309307920317,-0.08219391475356587,0.05429191222690936,0.06952786824399838,-0.04062943268904149,-0.004974952814372427,-0.06055665155796328,-0.0961084371366162
0.248,0.0012155210054518707,-0.07931967154795373,-0.08053445448900308,0.039568272589078274,0.0408421451468652,-0.08059441555891479,0.05378461241720839,0.06960680481619945,-0.035120256250920544,-0.013581411249353604,-0.058348046290875165,-0.10489606562573375
0.25,0.004954243222441188,-0.0751042521070722,-0.08005769972496973,0.03548149054566393,0.0426611522070192,-0.07844934821435637,0.05019736688579451,0.06570725258493867,-0.03192306768215606,-0.014033285104776038,-0.05073515676735817,-0.1120252863060673
0.252,0.006443043554152936,-0.0722155441672931,-0.07865861047621601,0.033988164563801083,0.04230394850183142,-0.07634009934219674,0.04652630921937632,0.058020222630802615,-0.03137368016797494,-0.004564319635476871,-0.04245638347182404,-0.11147576615615697
0.254,0.006631541756398815,-0.06982047332508068,-0.07645246013037778,0.03350211007324997,0.040298502740931386,-0.0736569126712638,0.04624156320389854,0.049731343348219756,-0.03033403465201033,0.009928423139804009,-0.03440751569223185,-0.10315090748845777
0.256,0.007916842541776097,-0.0669120569872248,-0.07482909969091515,0.03184605146883534,0.039020716863226605,-0.0708816570906436,0.05008552061853383,0.04868847619033226,-0.025752623538464622,0.026472939874309234,-0.024103374347519257,-0.09041428792516017
0.258,0.011960962902263284,-0.06373020335444762,-0.07566907937074996,0.028087459420252814,0.04094979045151404,-0.06972687066415639,0.05586754198690913,0.05955996627544334,-0.01794407710372741,0.041048460185807045,-0.012369053103776588,-0.07692629127986657
0.26,0.01617925879954437,-0.06143737321890425,-0.07748513667801689,0.02395439150470121,0.04436758862237543,-0.07013626137891388,0.06169898602279316,0.07909757319245592,-0.008740506684744095,0.04625324990198835,-0.005714280193196765,-0.06511041509324214
0.262,0.01656059331787294,-0.060728669778605374,-0.07696183862777631,0.0221717734876956,0.0451430407141713,-0.07020832134097145,0.06712891360224221,0.10122533386764816,0.0008345795711853011,0.040297857995336986,-0.009642889094507851,-0.05720442112526561
0.264,0.014030667600934976,-0.061242482804643485,-0.07482870098325034,0.02296930626997267,0.043224062015382654,-0.06971276561902685,0.07092921577711438,0.12182709305476913,0.00985896444785754,0.03153950481281426,-0.019806693285425774,-0.05615465245930165
0.266,0.013238773736800465,-0.06196178272762196,-0.07481374855459583,0.02394243147732371,0.042547308349365036,-0.0700677772895875,0.07099550025062107,0.13644937604108384,0.0169704387784534,0.03128282147662761,-0.02483212536644971,-0.062177248635905125
0.268,0.015743208348712123,-0.06183016428863481,-0.07724965852595025,0.02332643523351442,0.04467795851104804,-0.0709791984044835,0.06755828132812117,0.13869798803685887,0.021463746852476002,0.044062038926154824,-0.019268788184667773,-0.0684036244014321
0.27,0.018667933738229784,-0.06035193502912743,-0.07858976448933692,0.02179275066472005,0.046756980273719675,-0.07045907143882618,0.06448880377225855,0.12888324236380574,0.02412425811590956,0.06345513725727299,-0.006691712113100167,-0.06620544425710845
0.272,0.019836322649459302,-0.05759090973106064,-0.0767761691194335,0.020490509418728885,0.0463620534818165,-0.06760657942940614,0.06535360155654596,0.12025822346195703,0.026416112587234267,0.0786267832533349,0.007742051349123193,-0.05614001903791347
0.274,0.020921632373136028,-0.05390322939397087,-0.07405440135405596,0.018630538405719866,0.045483263572602683,-0.0638543900672148,0.06869218789194786,0.12695823660688643,0.029105089905442867,0.08313320985619226,0.01867191366087265,-0.04484371055555823
0.276,0.024547996125429277,-0.04997479911394428,-0.07393403923944022,0.014569148600028796,0.047645002668186116,-0.061649604834901076,0.06998549286330942,0.1477355732185455,0.03307110812489355,0.07702485295849924,0.020446846666915958,-0.03425322140539656
0.278,0.029851469933166147,-0.04683873932262708,-0.07652139106805941,0.009208901716579052,0.0523553956957324,-0.06179009282980868,0.06831606456273309,0.16626852594729513,0.040046710757626516,0.06792235072044937,0.01401571038856555,-0.02551845257660265
0.28,0.033074640364586225,-0.045233237161814537,-0.07846281449554626,0.0059749951440879944,0.055387135804313335,-0.062498407949625794,0.06788720516768042,0.1683905410109615,0.0496638031391553,0.0669301979051075,0.00807415663611487,-0.024108731742159568
0.282,0.03301555850274842,-0.044469427121376796,-0.07765289674700737,0.005973378724033354,0.05482531432930623,-0.06180283369567052,0.07251964135945652,0.15860940289800438,0.058761586326169284,0.07695371755417488,0.009191119355680184,-0.028386409165215943
0.284,0.03279297429016168,-0.043257189774493124,-0.0760562721417135,0.006274007984350396,0.05354715375034418,-0.06024599022822039,0.08135790332646504,0.1552100842652062,0.06645874155442626,0.09242491876457777,0.015822617828660165,-0.027151854258160427
0.286,0.034863550839744004,-0.04194215933846877,-0.07672020441765073,0.004775497798380343,0.054603916445234796,-0.059973622900741305,0.09041634215334554,0.16882644462547639,0.07529831275070596,0.10978827296776521,0.02343812629441838,-0.01845661488796764
0.288,0.037786397666076194,-0.041565312805325556,-0.07930725982995111,0.0028659116254054103,0.05726646433855741,-0.06122652108436674,0.09606369649309904,0.19107159906610768,0.08550896904810397,0.1254737542748232,0.03043980791660489,-0.012911979182508191
0.29,0.03915528845908236,-0.041195521703186334,-0.08037572093595566,0.0019750854256842375,0.05888044168006089,-0.06166159164682203,0.0969082324145917,0.2053418884039203,0.09337624492602117,0.13192134327529928,0.03744922886546727,-0.01396089995451847
0.292,0.039359322182653346,-0.038622270014134596,-0.07801760219863252,0.0008088111094461032,0.05855349588126139,-0.05948212781486895,0.09459077612655854,0.20653682082795896,0.09680833235788844,0.13117207452599083,0.04488877623836248,-0.014938304068744846
0.294,0.040988716854308986,-0.03325258864940928,-0.07424492787736872,-0.0027830853503400107,0.05775385622835548,-0.05543319535758313,0.09286904672791296,0.205576750752046,0.09842967440948973,0.13622571810748116,0.05248211140081213,-0.013119928489039551
0.296,0.044816751534585635,-0.02739002534754082,-0.07218888043169017,-0.00818742491505939,0.057974875516373835,-0.05174896885250963,0.09430501820094792,0.21236531783315976,0.10219930939782806,0.14673923110144152,0.05868372898310079,-0.009040293343817691
0.298,0.04860687749228427,-0.024152194450549884,-0.07272661370443927,-0.012033041391317245,0.05922218690522754,-0.05008857439743677,0.09811645646547403,0.22271321409592768,0.10994725652149759,0.14619161248375637,0.06141649037091097,-0.00027639813600093834
0.3,0.050859251837963144,-0.023671727944466828,-0.07440440530429744,-0.012814633877882921,0.06094687570232884,-0.050174783219047926,0.10215973522815597,0.2282588470469297,0.12133045061793414,0.12993076610921844,0.061242667815473634,0.012315694564356341
0.302,0.05321077254908347,-0.023118588945400163,-0.07600994620455463,-0.013187026573309528,0.0634889698289273,-0.050769124264438546,0.10622354848286877,0.2305353872387566,0.1346531677485406,0.11497173586866394,0.06213008894045714,0.0215004667276456
0.304,0.05757271069679467,-0.02106535824988414,-0.0782166990493003,-0.015912232619434953,0.06759271420028795,-0.05165142099356613,0.1119716594136314,0.23752140996023283,0.14773430028398432,0.1190226894791703,0.06735545215162815,0.02189880389308746
0.306,0.06270537781475685,-0.018921310821125654,-0.08136737022991841,-0.020013072411617167,0.07223579479565673,-0.05288624416047949,0.118649997604238,0.2521421965858808,0.15912655407077897,0.14187822795307983,0.07594615054425216,0.015067570005554934
0.308,0.06575146016622398,-0.017426756872427403,-0.0832014119597143,-0.023035873408931196,0.0746938328093279,-0.05289657437916276,0.1207960834813005,0.2687908793140082,0.16827335005741328,0.16845431187821625,0.08515605619917054,0.0070368809015289285
0.31,0.06616896983981085,-0.014891554194905048,-0.08120719836593102,-0.024796193192464445,0.07369708822137451,-0.04978604212836674,0.11460155625319286,0.2782700703034211,0.17458785078547057,0.18431295514147156,0.09491338588139932,0.004678376064715977
0.312,0.06623554462090717,-0.009842032103222327,-0.07614256427732831,-0.026956828367261834,0.07102935288799465,-0.044244642332139296,0.10521373341756197,0.276952922031283,0.17771998315852844,0.18628430202817547,0.10609523066463658,0.011566114375205133
0.314,0.06819546011808898,-0.003243563693240522,-0.07139326122301554,-0.030637236154177825,0.06941241158225797,-0.03905765774572854,0.10214771938901758,0.27172636370179115,0.17948499563482687,0.18154283651511657,0.11630639962039724,0.024563560494401816
0.316,0.07180715352454942,0.0022496482830024166,-0.0695002954402534,-0.035050893260234306,0.06981112441659419,-0.03617969910737713,0.1077966455187818,0.2727754145112783,0.1836741862730137,0.17936866387814998,0.12237988114357598,0.03605211276539945
0.318,0.07500657645631083,0.004787129433120388,-0.07021670736981346,-0.038134228911348655,0.07121552881149688,-0.03528387696624609,0.11507971525227445,0.2841276674110435,0.19217915127551433,0.18267771833428992,0.12513805001543876,0.04180365503502663
0.32,0.07693210498340566,0.005928971269159443,-0.07103289511740879,-0.039611446340729946,0.07220074497276475,-0.034025671492826814,0.11731183114479077,0.3028152665454424,0.20311538746338637,0.18868423177269264,0.12793436958672488,0.046742944182443326
0.322,0.07919556069544782,0.009517034956007297,-0.06967229454129314,-0.04234658383434667,0.0725463601087127,-0.030208446294320665,0.1162622437165371,0.32156604180138415,0.21417461414505545,0.19679365992018805,0.13219312712434436,0.059062553877648145
0.324,0.08369827302637839,0.01646528008129911,-0.0670929576929434,-0.04851360675930444,0.07372389452665544,-0.025064878652804417,0.11772874188901114,0.3333811127378621,0.22526940729788433,0.20805833138824512,0.1361462590604296,0.07713611729671879
0.326,0.08986994439684975,0.022868493810506985,-0.0666393614189919,-0.05571454807940729,0.07697055055471122,-0.022527358290545682,0.12272562320493789,0.3388534570093836,0.23621786454083882,0.21935368856728257,0.1380306056658836,0.08787765543875826
0.328,0.09520248229742506,0.025125194747419057,-0.0695220441666758,-0.05968394673121347,0.08125661243378206,-0.023932438028483567,0.12729488715409087,0.3440896982619163,0.24505818679891803,0.22736915897338045,0.14003591547655392,0.08105534119354074
0.33,0.09891806345815117,0.024947285459786594,-0.07339413302593757,-0.060432893192507726,0.08482991277615866,-0.02596963974645222,0.12895567478053357,0.34955067924841093,0.25087235281857245,0.233577447053164,0.14641793401175962,0.061423821761977616
0.332,0.10302518777766069,0.026488266904302702,-0.07614372674485625,-0.062065395510871466,0.08804661032213341,-0.025718213374002177,0.12910472949901777,0.35117337293998574,0.2548430251189803,0.23994057749381636,0.1566845845183875,0.043983316795445926
0.334,0.10849857286959669,0.029866253644393832,-0.07852091435498841,-0.06616051976278417,0.09244518919536748,-0.024911745355189543,0.12973823527977033,0.35128361039970335,0.2576106793992171,0.24421673132959598,0.1640474201312834,0.039109299467005094
0.336,0.11299814759443624,0.031643964787733354,-0.08144023901892808,-0.0697416315628176,0.09722007737735086,-0.0262806515005364,0.1305169874779547,0.3562281304860526,0.2592838928783312,0.2416523093529829,0.16310734626264708,0.045134337615549615
0.338,0.11419092418231497,0.031185294476037618,-0.0831048495712532,-0.07072998417825092,0.09919337725756062,-0.02826064769995404,0.12971422236368294,0.36592024561812386,0.2610675455571471,0.2326512445523308,0.1565353304555763,0.05383943078785479
0.34,0.11334244285036853,0.03221819823063181,-0.08113237459147382,-0.07127097982702506,0.09699220019717406,-0.02673098357441863,0.12797295383423107,0.3737379350066473,0.26397322382847754,0.2270749298379277,0.1519826444670495,0.05846808847919472
0.342,0.11372776557789388,0.03730224049348369,-0.0763781143798193,-0.07409193413413874,0.09330642294078086,-0.020949404140749465,0.1288069156855392,0.3745548614044584,0.2678961289120891,0.2344146289669095,0.1548054408773699,0.0572026190814741
0.344,0.11660149490792882,0.04371145612184038,-0.07286291955108065,-0.07856849728657293,0.09209949428339481,-0.015371492517143261,0.13290935125023673,0.37149124059938277,0.2730861094556237,0.2512166792819419,0.16427605618007565,0.054306106056886926
0.346,0.12029354928057565,0.04675228598665514,-0.07355379361205339,-0.0821268371757412,0.09447093488987421,-0.014710141622507281,0.1354549926810816,0.3728788945813167,0.27938163604564864,0.26303976299990933,0.17453675441184574,0.057280754851040123
0.348,0.12259615064911653,0.045680241639486245,-0.07693656186586924,-0.08352102774755764,0.09792281624076528,-0.018238961663781136,0.13260998631420776,0.378979399970344,0.2835861702886663,0.2587190733790199,0.1802156064345755,0.06840183833457401
0.35,0.1228758410669773,0.044243522729681725,-0.07863534970960359,-0.0835097155339739,0.09937203598995063,-0.02072076558291265,0.12704517255821002,0.38003924969835956,0.28210295457038354,0.2442605853143735,0.1822939557564946,0.08025360386410475
0.352,0.12202037501063086,0.04603700425994594,-0.07597356670592872,-0.08359825814025486,0.0978987595803064,-0.01838356296317978,0.12366282563350073,0.3723864907864412,0.27638416298863155,0.24071258498703105,0.1862523744836184,0.08308474770022431
0.354,0.12097786445674874,0.0507172452861512,-0.07025428788828961,-0.08454822418536317,0.09455645231493463,-0.012405074857235427,0.12331646065089624,0.36348098976344384,0.2709828317494698,0.2603719983856501,0.19345734869097303,0.07703729772568667
0.356,0.12001923863882209,0.05460663666824721,-0.06541492773590385,-0.08560784213772203,0.09125537222209144,-0.007265273776805783,0.12391551667288117,0.358395423822981,0.26760577845853645,0.2871329605554104,0.19755939072430578,0.07380393867167256
0.358,0.11909606900767535,0.05450226591839142,-0.0646203078480196,-0.08533916424674534,0.08979832113467487,-0.006554816876679445,0.12467134890175952,0.35521187250112407,0.26536908813103494,0.2912527640271553,0.1919758931748976,0.08101625952771022
0.36,0.11782818725011966,0.05110745357146923,-0.06685296051154813,-0.08341229343423522,0.09002739018794177,-0.009386606284970586,0.12588977893687428,0.3535719781727477,0.2638891576227184,0.26498933352914106,0.17870353295497116,0.09007022282245239
0.362,0.11589744479352021,0.04820853125166145,-0.06801427649928783,-0.08131224982266022,0.08998371471182569,-0.011521188569085775,0.12658611746977588,0.3554214545687784,0.2629847712713138,0.23399849844921816,0.16695551608628437,0.0911811886098077
0.364,0.1139806279471974,0.047799425191051466,-0.06660232871793322,-0.08046981657602746,0.08904518238238399,-0.011096241715431724,0.1254296113826451,0.3584268721549847,0.26210770935663324,0.2268900835768745,0.16368884739244052,0.09265765385518832
0.366,0.11291597471533404,0.048414748157034816,-0.06477912235242946,-0.08032402639318219,0.0882665499892598,-0.010152727052501427,0.12334723400685436,0.35716584116635924,0.26108294666533177,0.24132050072529976,0.16769127349886198,0.10648472225025946
0.368,0.11256973476449315,0.04944352293961346,-0.06325479947969105,-0.08007149087067439,0.0876963942860329,-0.009370920765850598,0.12245408252033067,0.34935986567378774,0.2594228168316033,0.25180864334471026,0.1731158768025088,0.12267264092548696
0.37,0.11283485892838203,0.05261668033950256,-0.06055331006820962,-0.08094788592289401,0.08666011842439195,-0.006517100467399177,0.12243326343788911,0.33769049832316156,0.2554584737931763,0.24423639553521745,0.1759713115935481,0.12000214530663375
0.372,0.11409086085272022,0.05762471507864613,-0.05730578202844203,-0.08404558475366596,0.08577790839392581,-0.0015405148864690386,0.12074954180968057,0.32794763765148266,0.24761684074213286,0.22731230835309324,0.17670534768457535,0.09690203824694169
0.374,0.1155817195525476,0.06100022427979905,-0.055786102817668326,-0.08725047897756924,0.08577352234126213,0.0019924863059373127,0.11646113047506096,0.3237107941251218,0.23619291168778508,0.21465252194909382,0.17878501693070734,0.07280929864211379
0.376,0.11540798319300531,0.060677363825067956,-0.05592025427232948,-0.08731788948066933,0.08562439026725228,0.0017632060011012133,0.11152977113445045,0.31968684382647633,0.22386477628264198,0.21176922444695398,0.1841968835010955,0.0630985448387903
0.378,0.11294237948651434,0.0580075495911054,-0.05590262200089555,-0.08415309589745941,0.08404296570477182,-0.0007278121954764512,0.10843361258224572,0.3066523461080717,0.21409197154313445,0.21745523384364365,0.18873800550363165,0.06657274403315612
0.38,0.10912501274778981,0.054938736873309975,-0.054949556056652374,-0.08033707487200185,0.08106921195723293,-0.0026635554848755153,0.10750868989833258,0.2859630228483986,0.2076161615400931,0.22356039101735864,0.18439603713627423,0.07391081954292385
0.382,0.10438677932804405,0.05220652153794429,-0.052785757057444864,-0.07727948830178963,0.0770012843578693,-0.002570287895531569,0.10676088507686073,0.27005683410684805,0.2018179019440172,0.2194243264808749,0.16999424229840762,0.07620470747902658
0.384,0.09824089570708504,0.049899900730373925,-0.04880055927738591,-0.07404641402068844,0.07156484014572409,-0.0009419156953099908,0.10425388869380549,0.26728516599718344,0.1947433045276732,0.20692955008021502,0.15572362095212763,0.0688398887209566
0.386,0.09087977287900267,0.04774991789871378,-0.04343506034016276,-0.06953539310692457,0.06511414179092005,0.0006466640025494635,0.10044671212905307,0.27378368231888245,0.1873670868620568,0.19968205941434128,0.15183296591317824,0.058617229864896064
0.388,0.08457967386335345,0.04592656775243607,-0.03877597456660202,-0.06492327943086589,0.059853565266396715,0.001507492703732581,0.09773112724478551,0.2780599460807267,0.18108008353756222,0.20196977875076386,0.1567567332372087,0.059029656207339805
0.39,0.08231155580001115,0.045930808350037614,-0.03634537169887387,-0.06305180721068443,0.05817351935758026,0.0027219899410728388,0.09709923903126885,0.26851092389607883,0.1747730932136802,0.20476709612763766,0.16044837919050467,0.06889662524927688
0.392,0.08391012335293789,0.04886080321288825,-0.034968459364566766,-0.0648298920098349,0.0592905311081608,0.005598403830180615,0.09607760281495677,0.2414736072537697,0.1650930599934362,0.2062510930348051,0.15646937320708723,0.07182116213798212
0.394,0.08524113271893255,0.05278800125608433,-0.03242662749343023,-0.06743857601149436,0.05944397613037759,0.009618167164334075,0.0918508765334694,0.20682102426674587,0.15015750646802584,0.2161036208015331,0.14796843849434538,0.06323507395639968
0.396,0.0822139183328508,0.05354551528372138,-0.028697145732795026,-0.06669984902728884,0.05593510195338102,0.012266157659652688,0.08560246818722277,0.1818397213265879,0.13317425142947287,0.2302889442129549,0.14101138647838687,0.05654344784149159
0.398,0.07522337423122032,0.04927476761548195,-0.02597681372409896,-0.061532111090441724,0.050057148866443225,0.011398164322711273,0.08147365851277251,0.17663280141788232,0.12030638248274046,0.2246477612418693,0.1353870125780558,0.06012639445678056
0.4,0.06876424864349755,0.04277817203493812,-0.02596228947710959,-0.05542570495976114,0.045843588408812544,0.007675379575647951,0.08174447852275797,0.18580081273949225,0.11374063761189643,0.18975095499801228,0.12767671228951202,0.06741002702697842
0.402,0.0654947488451349,0.037463238539541796,-0.02786210547787128,-0.05147277287149301,0.04528806229089077,0.0037059655684395154,0.08440549553555896,0.19187024336559866,0.10886858181098621,0.14869756261132022,0.11981999614619299,0.06796379987449888
0.404,0.06259407195404518,0.03326490239737329,-0.028885665423113174,-0.047931685977876205,0.04542909050692252,0.0011903225913750572,0.08515733284201041,0.1781081184188841,0.09997010519049063,0.12522419237877574,0.1164683227781247,0.058752658970390545
0.406,0.05612132236716205,0.028547667419925253,-0.02696053741750804,-0.041672302285822735,0.04202345788381497,-5.117714615115021e-05,0.0816059738093782,0.1442449789124498,0.08686072656139793,0.11862895500898654,0.11695895791253794,0.04761643869013715
0.408,0.046788660658089856,0.023515340547969138,-0.022928919347872768,-0.033548999854698426,0.035119922083699406,-0.0008317325065875929,0.07547389425670169,0.10942255262694715,0.07376485622243477,0.12000459398211588,0.11747739760798953,0.04387379744118208
0.41,0.03913924645503161,0.02029116757513767,-0.019040787729664225,-0.027681274161153357,0.02849986455588386,-0.0010741093073488963,0.07003585822367517,0.09357793752366884,0.06311015302992487,0.12685538624468795,0.11691426283366523,0.044640623615338375
0.412,0.036281564952252786,0.020599340408791682,-0.0161057699225038,-0.026644310525149196,0.024729481118126822,0.00029947248867646166,0.06628374089253662,0.09473218051551063,0.05322666604751899,0.1322158849824177,0.11424389657688491,0.040941880409557325
0.414,0.03744783446705997,0.02360683720085345,-0.014044636666646149,-0.02896398381425844,0.023748235751390852,0.0032328114541805286,0.06306444393807145,0.09147269967827382,0.041627165385876984,0.12195349736370086,0.10601634390946293,0.034505613405927706
0.416,0.03927938965007123,0.025859779872238708,-0.013445262541059372,-0.0306274867549513,0.024536778357630816,0.005093678985550781,0.0594542757189681,0.07134112554902813,0.028128980570359997,0.09357359880110704,0.09135484033868002,0.033318040731413014
0.418,0.03772456437121536,0.023684799397765858,-0.014356099242424687,-0.028083446243531592,0.025163620333297,0.0031933772715570033,0.05548523063662064,0.047477111370883944,0.014808894118783097,0.06365571526096153,0.07487461068634567,0.03569661750104129
0.42,0.03127351044533336,0.0168190650350713,-0.01532341120591099,-0.0212821029250284,0.023530781517194784,-0.0015976144308000894,0.051898581970488016,0.04029102758875446,0.003976835913095854,0.049652077107855505,0.06269822296558995,0.03175470869879671
0.422,0.023357051165414623,0.00974992356216899,-0.014695814518628914,-0.014469392678505213,0.019708158569276327,-0.005046626346762771,0.04941738360625368,0.05007888583905746,-0.004123987108813448,0.053492644377088824,0.05736242169719906,0.015545400653627622
0.424,0.01874427505305341,0.007338780703208353,-0.012104657071564554,-0.011812365182508148,0.015590981537652758,-0.004029147661535536,0.04743217685672734,0.05487572745053301,-0.01132310011075455,0.06537833177497988,0.05573216096441944,-0.0071050767609668625
0.426,0.017744824247727217,0.008474550287434438,-0.009331451977733966,-0.011988847024520195,0.012722295371876854,-0.0009575142975994249,0.04471327972589732,0.03556889462937535,-0.019088249881223665,0.07329273714888389,0.051348114100042266,-0.02059432117953205
0.428,0.016370167871796407,0.006768011895523831,-0.009331083482119772,-0.009664311816021062,0.011519913185119912,-0.0018274587302744263,0.041717475465312896,0.00014776451972029582,-0.027398903698773465,0.06605464447200246,0.04127220885306361,-0.017493407767497037
0.43,0.01196457765902778,-0.0007402343718749818,-0.012537030380792489,-0.002907050178619199,0.011176804649286791,-0.008134638456120946,0.040004268871595944,-0.025315674254607342,-0.03584242717529727,0.03997474522928287,0.030942081313481033,-0.011015692128291933
0.432,0.0062573564325952066,-0.009140110187093842,-0.015454308246038198,0.0040526386396023215,0.010109280435572406,-0.014112747706921615,0.03905956037003305,-0.03013346080660506,-0.04470034889045228,0.008406610165678782,0.027928239023116024,-0.016057960019060638
0.434,0.002148647446863032,-0.012782433729308634,-0.015046826321771917,0.007032455899434489,0.0076637565073984035,-0.014746385994960887,0.036286799875399935,-0.028698306342412414,-0.05496215537482978,-0.008170616614535137,0.030804878552796545,-0.02557223060735128
0.436,0.0001230665806197911,-0.01242522911586201,-0.012572986127870873,0.00707695048211425,0.005055836368300344,-0.012183558912299951,0.03137277230625504,-0.035511577092976136,-0.06655178774003068,-0.006520509428907728,0.03082370534911844,-0.02041736175051639
0.438,-0.0010283646990119077,-0.0124918887333045,-0.011412692966137328,0.007608915111649299,0.004041119497251945,-0.011646905437168209,0.027816137753504305,-0.04820803592763784,-0.07669829423372847,-0.002122847524510083,0.02418153569684465,-0.0005444082511189728
0.44,-0.001960787604947548,-0.015306404107389563,-0.013307996959876786,0.00985983621350033,0.00518976832745688,-0.014998466421911877,0.028221363028856812,-0.05742642917266061,-0.08232392043115283,-0.003660953877365983,0.015109155524218602,0.005928314912791263
0.442,-0.002258044888414516,-0.01976037187386681,-0.017534013794676888,0.01253068471032835,0.007549267998412528,-0.02002415753850399,0.03114147971258702,-0.05929492124327548,-0.08359460575714099,-0.002946475010932098,0.00825504173890837,-0.023602945503863743
0.444,-0.002018568844947983,-0.023598816751707583,-0.021736723686619913,0.014389165694384835,0.009174340908732778,-0.02377143938102107,0.03353290481191031,-0.056290473456235786,-0.08343191427956771,0.003458408670336176,0.004816915786379314,-0.07036991458558665
0.446,-0.003174263930235028,-0.02642307296480376,-0.02360486034011762,0.016295261713858117,0.0083467939569036,-0.025540623969621333,0.033322667820441715,-0.05275014346065567,-0.08505319525874115,0.002655707540121494,0.004262483787882577,-0.09322172256420587
0.448,-0.007751622801794896,-0.029948061952234723,-0.022761767388654857,0.020113025148339236,0.005075834020485726,-0.026623725354461867,0.030293954460493384,-0.051237978977220565,-0.09010186073636489,-0.01238862013859261,0.004472394428283757,-0.07869885258346505
0.45,-0.01486070571676222,-0.03452072313228993,-0.02038755059379089,0.025646246301450206,0.0008433229680425823,-0.027531124395885218,0.02669224619938934,-0.05390565363323492,-0.09706460388455872,-0.025369023067631866,0.001917803662765497,-0.046975066313434836
0.452,-0.02082419544844869,-0.0375147935295778,-0.017547865708168568,0.030134224407211654,-0.002919116305626031,-0.027255218362206093,0.025449632648407983,-0.06379528561220048,-0.10273886816661613,-0.01627280862606506,-0.0041135761878095195,-0.01778481923364591
0.454,-0.023059792075881828,-0.03721272354746189,-0.015018202427941402,0.031636620314424414,-0.005413143776009724,-0.02581520224200656,0.02661291866441902,-0.07859368163231807,-0.10660866904063424,0.006744333784679812,-0.009658614772543456,-0.0018931994334898442
0.456,-0.022912541709280938,-0.03573504459309943,-0.013413514166378553,0.03135880764255475,-0.006694169176315158,-0.025024812117737757,0.02725383528531057,-0.08922236015903652,-0.11097012889198318,0.010851152986224926,-0.011888720157876556,-0.010397958874763918
0.458,-0.023384254232367757,-0.036029275512140205,-0.012794996584919635,0.03166141647039803,-0.00764455328820869,-0.025782205284111643,0.025651372244743127,-0.09019513595323299,-0.11617731664669229,-0.018767504304090344,-0.013384681974105611,-0.03899823345236405
0.46,-0.024821820917032764,-0.037908680985509605,-0.013059856450286083,0.03292250592334168,-0.0084749651397157,-0.026782736383557083,0.023556485319760085,-0.08435405925331838,-0.11973669032186453,-0.055316937219956536,-0.01703971930060501,-0.06134850009733364
0.462,-0.024838608056010535,-0.03875096589541821,-0.014210601539667878,0.033317503025517434,-0.008079234621148321,-0.0266631995355956,0.02339854455364825,-0.07726231822173275,-0.12036920838974842,-0.06464986605299312,-0.02026530771676463,-0.0615145800076964
0.464,-0.022691691375258,-0.03791547475191269,-0.015984731140258324,0.031985123781868,-0.006146207336499175,-0.026374109712933157,0.024715457693845914,-0.07352492203863382,-0.11964522331211278,-0.04844481902623409,-0.019048011168760533,-0.0532604978058786
0.466,-0.020973490941313268,-0.03804573561542428,-0.017862167221191053,0.030847789199420432,-0.004308053711461542,-0.028034910992145078,0.02475301122880752,-0.07693879687892645,-0.11970983749370698,-0.03298630337727939,-0.015627276703586244,-0.05413749209529168
0.468,-0.021552365900363878,-0.040094824797163656,-0.018940996360234927,0.031479304392252744,-0.0040351535884765085,-0.030900975557565127,0.022476604038658306,-0.0881372989469892,-0.12115379766620246,-0.027817781737896483,-0.016295478648713384,-0.05984463223948651
0.47,-0.022980864939400176,-0.04104323871188623,-0.018187672165421494,0.032664666216406006,-0.0048628493980941104,-0.03147198649857926,0.019712507709472128,-0.10080781430457195,-0.12330068615448535,-0.02198515063126655,-0.022239896706391062,-0.0553176724177183
0.472,-0.02359713127001247,-0.03925733655110552,-0.01583890686713982,0.03304047536758539,-0.0055541033880677475,-0.028928671394667347,0.017887448900837932,-0.10667405194211371,-0.12587760902353065,-0.013804870045354831,-0.02752500021089723,-0.037211230235472945
0.474,-0.024190966209379054,-0.03734181800190105,-0.013389345006141622,0.033160309552806314,-0.006054779684454085,-0.02623755531765985,0.016815158346725537,-0.10575328013944278,-0.12906247842262955,-0.014934818356565007,-0.025900882510056445,-0.0169080571933706
0.476,-0.02609215821134253,-0.03766281167338704,-0.011666562248637047,0.03372615640170566,-0.007301330738274504,-0.02521556724923248,0.016480150278864767,-0.10405072803052913,-0.13178682742826278,-0.025233052875644337,-0.01791497852807666,-0.009112597504034911
0.478,-0.028657705698423148,-0.03918187499763968,-0.010446017001500586,0.034297237282477945,-0.009310973565130654,-0.024828214987289314,0.01720960400996932,-0.102740110347867,-0.131704040659375,-0.030612439735675467,-0.011700190834391225,-0.017825347090400335
0.48,-0.029949937651146136,-0.03983518401892286,-0.009788529791251417,0.03432676178476282,-0.010641884751864327,-0.024252442928081236,0.018999344120796142,-0.09761234971155763,-0.12774361728185293,-0.02922649935470726,-0.014531224810669579,-0.03239759652309106
0.482,-0.028873665156725487,-0.03931640596095855,-0.010458047678621296,0.03389953852849081,-0.009881427317283614,-0.024376791685430842,0.02155742644266256,-0.0867649344804994,-0.12190703441832183,-0.034500887035341356,-0.023292038700662415,-0.04411358830804317
0.484,-0.02580553499248016,-0.03880835611840865,-0.013183618881890303,0.03317012872942695,-0.006834057549802302,-0.026200350639883154,0.02387064332469307,-0.07438040411119524,-0.11752003410936228,-0.048049204044242795,-0.02805246849108481,-0.056637858416214944
0.486,-0.02209147057003541,-0.03922922858938807,-0.01751473274539053,0.03216358217078562,-0.0027925613981106415,-0.029111222771902753,0.024572497816464967,-0.0686050139102518,-0.11596504204453745,-0.055200898416244835,-0.02502844141667329,-0.0707427955748924
0.488,-0.01946315299216346,-0.03999243930431851,-0.021091478209492597,0.031171740982769865,-0.00015225183005895641,-0.030969380547525422,0.023699223652553975,-0.07375269046796797,-0.11579248673514994,-0.05121831695493978,-0.020061904871601317,-0.07630441850392981
0.49,-0.01897841791052529,-0.03965483271960527,-0.021369093963038974,0.030501899174427485,-0.00040865130755424504,-0.030210962668746177,0.02245568875842322,-0.08300638726873309,-0.11494907292931529,-0.047485111904142695,-0.0190543019885563,-0.06777784494365752
0.492,-0.02021764634049993,-0.03813397991340333,-0.0186597501716809,0.030275780901330533,-0.0024400776667969195,-0.0279192413884452,0.021224148459632802,-0.08624409709050908,-0.11344904426765162,-0.04957198438249649,-0.02086048850325676,-0.05398093834029606
0.494,-0.021800143230289795,-0.03687749213418987,-0.015751420310668177,0.0306451735808553,-0.004135332615755207,-0.026485508400733004,0.02010832776869843,-0.08477881545080809,-0.11306856032768715,-0.04880448107308764,-0.021499980954750312,-0.04785426071773411
0.496,-0.02256668939670337,-0.03658089274113023,-0.014536752491543584,0.03139856680078678,-0.004832642651423667,-0.026508718996920325,0.020227663343403587,-0.08728846262778765,-0.11470785541880828,-0.037176662247032206,-0.021289705949530294,-0.053167332225653396
0.498,-0.02237169658268575,-0.03664171596865564,-0.01469604545045369,0.03186679773936672,-0.005034202730558943,-0.02681855106513317,0.022203395895156217,-0.09344302560844206,-0.11741257504267327,-0.020293554958657627,-0.023495368300808648,-0.06377859682445654
0.5,-0.022208410300361782,-0.03688969486606849,-0.015106861837200333,0.03208386901600861,-0.0052051659292023,-0.02690321284841035,0.024822692745648085,-0.09349899273646115,-0.1195884048379273,-0.012327119160573713,-0.027685488859393634,-0.07144349111671841
0.502,-0.023709932460586176,-0.03850883015961252,-0.015180011761148167,0.03351531219851384,-0.0058296619035424335,-0.027705021315361043,0.02627200874202763,-0.08302519310103608,-0.12008616263793097,-0.019738716337715012,-0.02988518596534747,-0.07016549397484229
0.504,-0.02726803622905376,-0.0422086892336485,-0.015125526076771761,0.037009631315294604,-0.007285237005232962,-0.029829969458399483,0.026237793184684687,-0.0691383566798135,-0.11832887288026096,-0.034804276607289075,-0.027955282512024286,-0.057378551004146516
0.506,-0.03017841719812598,-0.04556984525406224,-0.015347331721319406,0.03997654939178021,-0.008820976244755384,-0.031821551042874624,0.02644200616117272,-0.0618396898883718,-0.11447711107100679,-0.04671545356746788,-0.022650094116809943,-0.0381023359203131
0.508,-0.02897043106830319,-0.044231782611918326,-0.015164539078447684,0.038297949194037235,-0.009031513398985657,-0.031140804915684106,0.028393653834949167,-0.06418829494859353,-0.10998269278330426,-0.052034265570150055,-0.01620077498576322,-0.02452124951237663
0.51,-0.023935940174413486,-0.036723836878472485,-0.012879000544105974,0.031525443410811975,-0.008018861394013404,-0.0267403009328156,0.030960243351723853,-0.07019973076360632,-0.1065989935841935,-0.05124056853995515,-0.011985326118269515,-0.02434402769177371
0.512,-0.01916432038979285,-0.027037068900448664,-0.008264836579911042,0.02397005250987115,-0.007693400388898031,-0.02042834684452485,0.031358490632424296,-0.06947976844799952,-0.10459946609487296,-0.04381381110522386,-0.011994865855383998,-0.033899893312425364
0.514,-0.018066902315739437,-0.021212672393665734,-0.0037639969730280665,0.020426771842419915,-0.009273187482236173,-0.015510922447557059,0.02888538660195511,-0.05723839607339637,-0.10360914686409343,-0.03178510811148555,-0.0138566542321332,-0.04559303409300421
0.516,-0.020051840828106265,-0.02142517183976878,-0.0020849072164612716,0.021787017783789643,-0.011407579136670476,-0.013916057710626567,0.026398915717081334,-0.04116548249051069,-0.10405861120369216,-0.02201379415113083,-0.013393963512563459,-0.05309157433102102
0.518,-0.02204214672631873,-0.024712726321087758,-0.003392593291421756,0.025072928184532467,-0.011851674075548227,-0.015066574062828636,0.02690608843464552,-0.03358727187740355,-0.10561126274371262,-0.02181757114313484,-0.010317931403512198,-0.05023806095170394
0.52,-0.022317401763556836,-0.027145241604459542,-0.005503318331452768,0.02701682737658909,-0.01040701830873685,-0.017054072097654156,0.03017278191848796,-0.0366864637237368,-0.10560544098587987,-0.03290389727728328,-0.008627799500143068,-0.03666645205018202
0.522,-0.021485501451577925,-0.027509423897972212,-0.006657701876664972,0.02667624115687747,-0.008647945622655908,-0.018299823567689593,0.03353274595741337,-0.04015682051056028,-0.10160642289185944,-0.04744255729182841,-0.011108215450855625,-0.022731670976480343
0.524,-0.02073624912432298,-0.027119093752459775,-0.0070389974650526144,0.025328544528455798,-0.007615481110220353,-0.01870667417387086,0.034655125899487015,-0.035768720002718926,-0.09459047998346352,-0.05219740787743662,-0.015946993048350153,-0.01955810223053733
0.526,-0.020364557448676508,-0.02706628557032058,-0.007380507009465093,0.024492053789870474,-0.007288968331183388,-0.019064893931106077,0.03366665923984091,-0.029924187812216625,-0.087453018298018,-0.039898367607076,-0.01842174221436445,-0.024501480761082835
0.528,-0.019542743217380542,-0.026555753870942736,-0.007681475122916628,0.02392367658349126,-0.007239282000568591,-0.01918527279615462,0.032869481941404634,-0.033298822972124865,-0.08157926876852924,-0.015443071643964633,-0.014187947400131273,-0.02394831137641016
0.53,-0.017474984279994187,-0.02451417412225583,-0.007688212280428542,0.02229124535225971,-0.006740182480921406,-0.018008843219093244,0.03402113224054337,-0.042814384123175515,-0.07674661696293202,0.0070805852927828886,-0.0030378799727545577,-0.012199257851793188
0.532,-0.014829889718339678,-0.02160074945979202,-0.007284917352457648,0.019633003329573503,-0.005388018329321006,-0.015632972463340812,0.03667006841930884,-0.04758958645678202,-0.07326894297975253,0.013119561267574633,0.008754515034988046,0.0018009916399403419
0.534,-0.013535810295956505,-0.01942551524828667,-0.006086007096809038,0.017715776796781196,-0.004327818987855027,-0.013351921812503064,0.03907010826655564,-0.0463581539615227,-0.07211603477249842,-1.4782907555819093e-05,0.012688106379358534,0.007344392644533163
0.536,-0.014234620099616072,-0.0185092340446188,-0.004173450794618153,0.01748743904781862,-0.004957487760570145,-0.011857235900603969,0.039926185222690334,-0.04375183655606767,-0.07252371413190678,-0.018463468709289364,0.007024471874522662,0.0012030449458896074
0.538,-0.014723878674693559,-0.01827183765370359,-0.0034130422426649435,0.017641329040119547,-0.00603319730006129,-0.011381290455065642,0.03942855333557532,-0.03792070202450395,-0.07185922747191414,-0.023723778244383757,-0.0006679747671052159,-0.01282895268803711
0.54,-0.013308911675263706,-0.01893919146477233,-0.005753506589521106,0.017200673804412973,-0.005118012688922554,-0.012922229098013776,0.03875031095001102,-0.026793196630007312,-0.069070667106996,-0.011693855873392035,-0.0018490495797737348,-0.026033818248540817
0.542,-0.012041692582381516,-0.02176718504195291,-0.010274216787704288,0.01780856578270541,-0.002636996722070872,-0.017076438364259493,0.03855073161188644,-0.017948887088985524,-0.06576862359685431,0.0012183661046727462,0.0034119352949419273,-0.02961527349382412
0.544,-0.013584181532795623,-0.026741564023943513,-0.01410981099212027,0.021203573674849645,-0.0011979142542840292,-0.02214867765443866,0.0382057011626489,-0.019739311845969627,-0.06362120303416353,-0.0016334302365275455,0.00700898318511254,-0.01993666945363359
0.546,-0.016841897738451257,-0.03135677346955725,-0.01566054888530256,0.025741402375535828,-0.001620312316942748,-0.02526810683808734,0.036875728938004476,-0.029419946229104918,-0.06273478549397123,-0.012892661726608563,0.0036805881819482068,-0.0014842839042760983
0.548,-0.018222861432789905,-0.0325145069232255,-0.01536989778965038,0.027543028612498237,-0.002154463788151386,-0.02518154475315091,0.035235774948529246,-0.03768966881250458,-0.06188239542379665,-0.012790550462441132,-0.0017925679745704314,0.012463459456361514
0.55,-0.01603493619616586,-0.0293496870015236,-0.014140263773124651,0.024690184635026393,-0.001320728142866493,-0.02267412591345572,0.03479632129094534,-0.03949590428603555,-0.05978820800760683,-0.0010333393013148996,-0.0016166694666144986,0.009241678570606007
0.552,-0.012181090011546323,-0.024040250819222425,-0.01233842113118334,0.019203697544241935,5.482475333342872e-05,-0.019111086827648976,0.03526325185432424,-0.03710249039050129,-0.05716334309023806,0.004787163012523295,0.004673483785830363,-0.008830707696499351
0.554,-0.00993539888237482,-0.020147839559774,-0.0104220386559228,0.01516035934868492,0.00012595611849347804,-0.016183328874060352,0.034674360629118425,-0.03567278011195179,-0.056602779866754195,-0.0007655328929101809,0.010531728135800398,-0.027864282664259866
0.556,-0.010403890995725988,-0.019525487200408528,-0.009314710851269878,0.01471949866075221,-0.0013152882603074088,-0.015405606476423315,0.03264964591588455,-0.036285013171154616,-0.05911095221452093,-0.004889915672849882,0.009829946860736044,-0.038824300609916915
0.558,-0.011273796312382572,-0.020467917490691462,-0.009527163975445752,0.015913844262740274,-0.002371897750034875,-0.016303889408521826,0.03132921802908351,-0.03428638235825516,-0.06166637939771633,0.001916239564764037,0.002272118849596372,-0.04020948160009012
0.56,-0.010004143230513842,-0.020504816463766354,-0.010919101276137419,0.015877402096454676,-0.001467297133941535,-0.017270813451649582,0.03237374522322343,-0.026299075050274075,-0.06036727386994007,0.014476743380277934,-0.007093783780458902,-0.031564950015954246
0.562,-0.0075253153751699674,-0.020392080413014015,-0.013384402344193587,0.01520288320205202,0.0007813440607641357,-0.018430587251151608,0.03496458585664753,-0.015258953771551518,-0.05582332007315322,0.020630468283867772,-0.013323911101687078,-0.016955947491616673
0.564,-0.0070168268165684815,-0.02263102515867982,-0.016396750425404737,0.016464736068784305,0.0025270183421735423,-0.021006804449063936,0.037195763450252904,-0.006783369793548739,-0.05276486431457469,0.013955113653408494,-0.015531012363869048,-0.008646133113989964
0.566,-0.00988361456017847,-0.02726274224552369,-0.018453038751996574,0.02007800572587646,0.0025079592220432745,-0.024545600074030515,0.03739864899464366,-0.005690451520476814,-0.05387941085523126,0.0019243576955045515,-0.015521825891298408,-0.01592214575161087
0.568,-0.014349376666408052,-0.03167137642367077,-0.018455421585625846,0.02403116348165108,0.0008872846975292451,-0.02708101350577309,0.0345405587390941,-0.01615906255430424,-0.057009936083110835,-0.0018007106656920137,-0.014814418673422333,-0.03355878745875093
0.57,-0.017909390214484452,-0.03391847257941642,-0.01692192823138337,0.02683449388564441,-0.0012436549388000631,-0.027536821955885107,0.029479863186426557,-0.03691938750571702,-0.059634334862233365,0.0031233657653353046,-0.01362410813214544,-0.047235001754870866
0.572,-0.01995955910699832,-0.03458526159954759,-0.015237793632463616,0.028837974752765394,-0.003147801756376318,-0.026610748677800614,0.024942361203085094,-0.055912837436773215,-0.06296252938622472,0.0026321757916785296,-0.01261041323860556,-0.045657411573001044
0.574,-0.02101067245706565,-0.03481606672931817,-0.014329539602814826,0.0302091928973578,-0.00465014969140184,-0.025343030402417126,0.0228940006790173,-0.059665518649177775,-0.06879609700709693,-0.009230491365399971,-0.014607610663647227,-0.028029854812727132
0.576,-0.020961098779902623,-0.034166213220492715,-0.013956637749582152,0.02974504471966628,-0.005358248110459389,-0.023920666439076137,0.02275978675725488,-0.049407558063833686,-0.07461415907049698,-0.01988323006346671,-0.021152407480529455,-0.007046153028722756
0.578,-0.019655149896156084,-0.03193253056857401,-0.0133353415029714,0.027033228027403305,-0.004780851176892687,-0.022408492369813505,0.022763368487731056,-0.040026057609923255,-0.07589267536684866,-0.014889284506502738,-0.027890012281371154,-0.00015778916910965974
0.58,-0.017998691937908186,-0.0291981673854589,-0.012356854780811614,0.023945177693782353,-0.003366627285621755,-0.021373475367493733,0.02211481679818532,-0.04188003227806663,-0.0725223512354124,0.003479613775478279,-0.028916309697371318,-0.012392417768022456
0.582,-0.017525432742365094,-0.027861488205162717,-0.011387208192985377,0.022685663780357298,-0.002663473492947342,-0.02096843823356552,0.021048544850154612,-0.05021228186178167,-0.06893506675884553,0.019112704082485048,-0.02500313716423214,-0.032778886900123
0.584,-0.018821296100258053,-0.02852882228011632,-0.010627380252039761,0.02358093985152738,-0.0036114955054070814,-0.020807799339283856,0.01954770222940009,-0.0551400874314866,-0.06815673180762044,0.01883998415385857,-0.021607206547561108,-0.046567314501410446
0.586,-0.020853484993088613,-0.030550218300954824,-0.010509813015573194,0.025670379090984984,-0.005194930446866813,-0.021234947994137027,0.017297077192275898,-0.05615761565301274,-0.06950455352600642,0.0005541619893672822,-0.02091562214164266,-0.04599515909522029
0.588,-0.022128948714890205,-0.03275141744276429,-0.011299866441739973,0.027780386832998327,-0.00582063532158501,-0.022653326193165034,0.014468018767133706,-0.060973028792177864,-0.07169064616321462,-0.027864978412139772,-0.02218868997956676,-0.03447128816313399
0.59,-0.022138723184866618,-0.03332740010379485,-0.011776626523609487,0.028385455704838202,-0.005543037944074132,-0.02349651716205087,0.01175813975921169,-0.0721098147414245,-0.07434735260784427,-0.04838383200114247,-0.02599355038415121,-0.023910687770911303
0.592,-0.021893044453177177,-0.03123635539469763,-0.009969344708758768,0.02696218676233986,-0.00614591962393009,-0.021588601175570276,0.009921710814806174,-0.08052683152864226,-0.07704847625848472,-0.042825708377940884,-0.03199161038780708,-0.023005911771272796
0.594,-0.02255917496220148,-0.02782225869800766,-0.005949781086453136,0.02523449291672288,-0.008732166262108163,-0.017499441935478758,0.009233314352230843,-0.07633311710828777,-0.07978331103599688,-0.016817292122803716,-0.03703043688630239,-0.02597147071262315
0.596,-0.023251906321002838,-0.025178857252442455,-0.0026375944398591505,0.02472155605439843,-0.011631353177805049,-0.014206786404020478,0.008817697848167775,-0.06372413985895882,-0.08316918439691534,-0.0017312709272970016,-0.03953716142175915,-0.019377953577401675
0.598,-0.02210714027190498,-0.02395495779451387,-0.002655805903444736,0.024669025943223188,-0.012130516271602656,-0.01369099010393376,0.007102660459827098,-0.057342744424486426,-0.0862604156354237,-0.015568050187122972,-0.04175126128331402,-0.004873779145501386
0.6,-0.01944848172125239,-0.023804378583982762,-0.005320497207244916,0.02393418707217516,-0.009960164288096584,-0.015469820862952066,0.004189420491558599,-0.06311964254360174,-0.08646613689499516,-0.036756068559327414,-0.045337626496530746,-0.0019703679478779135
0.602,-0.017629881197547635,-0.02462137127759096,-0.0079527231637521,0.023129439650782947,-0.007297380563672808,-0.018070532856035625,0.00277468552611712,-0.07279998122712004,-0.08348633041268155,-0.037867284702371336,-0.04784926499122955,-0.018925533416514997
0.604,-0.017805611370833346,-0.026452531650408576,-0.009378252124667497,0.023617879343489585,-0.00558998775206635,-0.02055722498006456,0.004580883006691508,-0.07768563125152611,-0.0799919658508145,-0.02600166452157272,-0.04592922273860868,-0.0399844413216276
0.606,-0.018309184144169852,-0.028715973645523887,-0.010964829605479743,0.025037798613755477,-0.003993965538601771,-0.022718011265167676,0.007237525558509995,-0.07683703901164991,-0.07692108808035676,-0.025563949854573557,-0.04078455571560987,-0.04977273108370663
0.608,-0.017117275730019386,-0.03046881283848937,-0.014054801652043172,0.025533934047146403,-0.0015470412983382507,-0.02465275120857012,0.007305665255490134,-0.07317203484536255,-0.07297769587863764,-0.03974453626593239,-0.03763337921369693,-0.048932185138911614
0.61,-0.01520989391264762,-0.031374529508833814,-0.01715888682059192,0.024778257481087158,0.0003559813007906569,-0.026046024034964574,0.004620642814044668,-0.07027649926103668,-0.06953046404056495,-0.05162668461749896,-0.03932583351076022,-0.04213570372458977
0.612,-0.015984098514891423,-0.031788583291642254,-0.016814833692771057,0.025023026066570843,-0.0011211077772990215,-0.025771368642011426,0.001511678038406154,-0.07012098654106143,-0.07012980242688255,-0.051433087961409,-0.04286476639003001,-0.031087997325930938
0.614,-0.021051791773581865,-0.032199555084807534,-0.011743982992158983,0.02812372486181379,-0.006823826703017342,-0.023253137647436035,-0.0002824893893653398,-0.07077498817899731,-0.07494015036107082,-0.04681985176030157,-0.04370727329537419,-0.021476977278803405
0.616,-0.027325153334461918,-0.03271093582220483,-0.005433206280415321,0.0323646039364699,-0.01326563738497994,-0.020158280317577895,-0.000586182661501136,-0.0707183493794862,-0.08058151370122132,-0.04977246062042948,-0.04225666607954704,-0.021550300952592187
0.618,-0.029946595787941618,-0.03322271445094706,-0.0030519093802214405,0.03414658817455969,-0.015362486930518246,-0.019212314243197536,-4.009458951638495e-05,-0.07224266284202052,-0.08465864114492282,-0.05966813378991681,-0.043344490352596604,-0.031211610859476775
0.62,-0.028029313560542012,-0.03390042096855804,-0.005733242593347015,0.03260560498427124,-0.012404975203696603,-0.02106951243265769,0.0009643951059783448,-0.07447590875233004,-0.08647093002587522,-0.0623931393895772,-0.048742042403801325,-0.04092822080258992
0.622,-0.024820158410819845,-0.03433603893188019,-0.009583749021852783,0.03009992348914006,-0.008662196984513053,-0.023428360225983894,0.0025664124768691927,-0.0709051273898385,-0.08484072676054108,-0.049830651305534636,-0.05359344176597635,-0.0431628536606555
0.624,-0.022800780373430765,-0.03359260261474954,-0.011039411059842942,0.028725482751903883,-0.0073545931429259415,-0.023894153180029496,0.004488215833328009,-0.06175566257024085,-0.07929059574962175,-0.03354676466560997,-0.052830693416046924,-0.04094456072261647
0.626,-0.021746146977074242,-0.0323174604981662,-0.011050462797217506,0.028626881459864566,-0.007420606725140772,-0.022931545828254313,0.005584451334534425,-0.05778819454308846,-0.07253874106053919,-0.028515171152546526,-0.04831543723645227,-0.04266417974083273
0.628,-0.021237548577908952,-0.03243224808781299,-0.011903517231968693,0.02909151184363364,-0.007116909524594038,-0.02266249289741937,0.00464830216254508,-0.06405255680374859,-0.06875041200496652,-0.03228614151466565,-0.04600555150398264,-0.049592141523470364
0.63,-0.02219599932453539,-0.0343367092157325,-0.012788161189342964,0.029814299205438204,-0.00717942055286726,-0.023624518868991654,0.0010400894861983107,-0.07295041321852791,-0.06954056972285211,-0.033404834440725985,-0.04834082731837176,-0.05482280946722606
0.632,-0.024974267245433515,-0.036464214043556376,-0.011727616941649583,0.030928356651363273,-0.008762456813354963,-0.024525082753355826,-0.004666501313734991,-0.07789137460108567,-0.07342445785152606,-0.030230352021114716,-0.052712324535058995,-0.05431965486592169
0.634,-0.02810244495675077,-0.03732235739279086,-0.009068895455475406,0.032484455376528595,-0.011218965166052914,-0.024396107476304732,-0.00987015110269771,-0.08025355955748295,-0.0786681074301289,-0.03050056674715804,-0.05511425349880877,-0.04746078418712311
0.636,-0.029969107071033875,-0.03691441488113059,-0.0067418011161451425,0.03425626860327667,-0.013143724210650501,-0.02354142717686585,-0.01137591079217512,-0.08145329799536098,-0.08399378717456236,-0.039058198449288394,-0.05367373371773351,-0.03081275695834337
0.638,-0.030052225264254377,-0.036617411953291705,-0.006539570215842539,0.0357195689706445,-0.01335891374097449,-0.02328225358101029,-0.008728638453084919,-0.07915340753566913,-0.0867115271359081,-0.05074545114133331,-0.05022159623459119,-0.009091812484953792
0.64,-0.02911712252674221,-0.03837431408831768,-0.009352661710832358,0.03690870672774266,-0.011373354889174611,-0.025365579893086552,-0.004863890820135433,-0.0720139855350176,-0.08481876275843127,-0.05593301303057753,-0.0480331306457258,-0.001147770280353861
0.642,-0.029068038075999683,-0.04290808019552028,-0.013899896334723164,0.03882494958955378,-0.008598789350113113,-0.029997753966229487,-0.0026044994909071905,-0.06242955671533924,-0.08094797346732928,-0.052903328670829294,-0.04877147323639391,-0.013887940866428708
0.644,-0.030031501129550695,-0.047579187397126556,-0.01752471310704108,0.0408185371317186,-0.006927533524731111,-0.03452303495019427,-0.0018037012644210896,-0.05400674498932777,-0.07905551755046752,-0.0474461086842588,-0.05215105966012979,-0.027449128899344106
0.646,-0.02826577053590384,-0.04770586718327924,-0.019418552189360932,0.03928083310502647,-0.005348568584378946,-0.035821510603534716,-0.0008263526665334547,-0.04849331119504419,-0.07803436181203792,-0.041235485116242504,-0.054832507055082955,-0.02381046353097947
0.648,-0.02084688892877375,-0.04132439502237418,-0.020622511625209308,0.032039022642192584,-0.0014999535934038456,-0.03326186771867848,0.0009269058449863723,-0.04646320132436369,-0.07344814371474165,-0.03146516986039628,-0.05160150852282787,-0.009836872792178531
0.65,-0.01165252599273863,-0.03173609111205229,-0.020562063969345297,0.022693362593887337,0.002979011354754042,-0.02834075597778468,0.0032304824356294507,-0.04920842659469898,-0.06488447052928033,-0.019481647728446325,-0.04272737090560911,-0.001392956579648937
0.652,-0.008720949626938753,-0.0244857393554247,-0.016528749706884914,0.0177905206514695,0.0025640155763238886,-0.02263472720202823,0.006410539050187181,-0.05623057097590673,-0.0573940532926492,-0.011500428155208228,-0.035802082725927345,-0.0019367220552207408
0.654,-0.014650177829508046,-0.02118080847549751,-0.007204648263837792,0.019236966242728814,-0.005242473730070724,-0.016224924374697625,0.011257051059244785,-0.06207477679907303,-0.05480870023951152,-0.012489674324795684,-0.03646319696250588,-0.0033529395031793997
0.656,-0.02270603391887781,-0.017164722038974952,0.005299080748067142,0.021538723987799293,-0.015948784029346515,-0.007611065617974224,0.017590788731456083,-0.06024435379248121,-0.05457349051244179,-0.019663533576410038,-0.041477776844189344,0.001699687825804562
0.658,-0.0244559853916103,-0.0070716198647411315,0.01742684051166019,0.017928891086177984,-0.02299892344459031,0.004087172875562121,0.024053248719133155,-0.05028577528270749,-0.05091668710097314,-0.02037495225606538,-0.043062120695838244,0.013011634879517564
0.66,-0.019071078069532805,0.008317056387795348,0.02726561057107327,0.007753856830479194,-0.02496183394015832,0.017108758146393663,0.03051470665909149,-0.03731390385961279,-0.04137818567438035,-0.005022197593004428,-0.03717668321676983,0.022575209900208403
0.662,-0.013296561594345387,0.02268328936641126,0.03557109856856289,-0.003217015581181146,-0.025936248298049917,0.028357062204812856,0.03911391092476412,-0.024966758355516958,-0.028632310958542802,0.015597983623022504,-0.025696924096109186,0.01902690300679935
0.664,-0.012895699012997091,0.03082767215921825,0.04336598485093252,-0.009043148647497973,-0.02932693876992091,0.035878481588326204,0.05044765106195624,-0.013847232038359022,-0.01736485261738403,0.0213660707265618,-0.013378002784953137,0.0009708856940158989
0.666,-0.015961879273119664,0.03302169803700781,0.04895277120807611,-0.009358959945392584,-0.033262207293923866,0.03923449550675104,0.060684720136556514,-0.00572428178251206,-0.01067687709691299,0.011867319297143106,-0.005528274869605756,-0.01446836459542328
0.668,-0.01622496564649002,0.03370674989028873,0.05010557641278424,-0.008899762671624251,-0.033724347154190745,0.039650757079420625,0.06570201900088908,-0.0026953527042818076,-0.007863605399668088,0.0052270339741117364,-0.004710948762044228,-0.009555174126096855
0.67,-0.01140152588424185,0.03758809617227896,0.049074972334226905,-0.012115969490382817,-0.030803265002428096,0.04076689446712045,0.0659272199576597,-0.0034767060583377396,-0.005511277933580208,0.0106984857747435,-0.007144771168523111,0.00985897825211976
0.672,-0.005691953638248821,0.046202744446149066,0.05172300577463726,-0.018840438508975186,-0.029287653016289897,0.046546102528350286,0.06460362745573638,-0.004299330507767151,-0.002154540318256293,0.020978547551966594,-0.00679098297339077,0.02393541507209287
0.674,-0.004080960826178179,0.05749582872832407,0.061171673659576944,-0.025697568049563118,-0.0331607110487442,0.05749821614139849,0.0642057352735374,-0.000665506404219823,0.0006488787702778654,0.028832373268011406,-0.0027351128326462575,0.026259111495771276
0.676,-0.006414990952362225,0.06837354758055438,0.07435047546302771,-0.030603298276330588,-0.041047018574982004,0.07010496508868486,0.06573451567912209,0.011067272487636967,0.0026785025829125734,0.0358867024869806,0.0020582011019360923,0.02438548763732375
0.678,-0.008616858699655134,0.07659305579624803,0.08498923960642547,-0.03373702428297886,-0.04764232953522852,0.07967875525346574,0.06824542922916516,0.028874754163412165,0.005757778090294029,0.043392291979692035,0.005441777342079831,0.023370804453430007
0.68,-0.00825197614506142,0.08149705456803341,0.08977785049880378,-0.03560885839286992,-0.049628514995228384,0.08414432778503556,0.06891948318295736,0.044160420748391396,0.009416652907194959,0.045783360156175026,0.005278910714103583,0.024822336381039787
0.682,-0.007203495291276455,0.084199063415253,0.09141001339914406,-0.03626847276156068,-0.049407497554723755,0.08568170784849266,0.06567410736675874,0.04885194098360122,0.010533412511157926,0.03970475468437726,-0.000501347790501785,0.031156026270822697
0.684,-0.008854011785192932,0.08516659963206166,0.09373936893255465,-0.03517996557616607,-0.051164533828607604,0.08691404521208468,0.059105271514857165,0.040695044980554665,0.008517754478270485,0.031309199657881336,-0.009715690039096676,0.03837061608348285
0.686,-0.013226180222863667,0.08250782532046666,0.09526096592310802,-0.03181089711599321,-0.05433104794284921,0.08633718096362736,0.05162333270614144,0.02359088534522928,0.006977099448617931,0.027457993340779613,-0.016073835885051086,0.03535645487948294
0.688,-0.016464693634084038,0.07602686611244416,0.09218684244886476,-0.027658807893412293,-0.0548499198237633,0.08170252542790708,0.04506949897816054,0.006658218021888554,0.007920209083804133,0.027444670336997146,-0.0156520194743626,0.01982437320518342
0.69,-0.015380093771966908,0.07049407579198584,0.08590348965833688,-0.0261564247187069,-0.05157717744521351,0.0758592177297148,0.03892379321176553,-0.0012578435458202003,0.008171773235170187,0.028750710855039857,-0.011086232483988632,0.0054744666863056355
0.692,-0.010896344998416721,0.0701399017118487,0.0812104712769915,-0.02864334952492193,-0.04711758425151091,0.07350467830589864,0.03191981612315581,0.0005986790659287856,0.00472924552762066,0.03151170097748574,-0.007947058127035117,0.0057067063815163
0.694,-0.006343849628919689,0.07287182742850558,0.07929047916221156,-0.03252162456511514,-0.043694586618120645,0.07439468308753404,0.024841304282400552,0.004088073379167314,-0.00014998081152538516,0.03388106131982887,-0.008314961216318228,0.016629250795841568
0.696,-0.002862100419148492,0.07457114443438317,0.07737715424564266,-0.03540972738454559,-0.040855276926125485,0.07482841931370691,0.019556687796770788,0.00018098554043606316,-0.002068894194035045,0.03271706572615353,-0.008992051269457685,0.023094422114796904
0.698,0.0013304282175828866,0.07519692985148484,0.07379900944515279,-0.03797303399011157,-0.03696623233886961,0.07352823976147187,0.016294203714002153,-0.010377391303498802,0.00010278668086451149,0.03163215856687758,-0.004663689588333193,0.018692306714731908
0.7,0.006305254265562039,0.07639788254109882,0.07009061337859589,-0.04075603421585813,-0.03240294926055815,0.07214513275283507,0.013348402632439084,-0.016252396385887356,0.0031602186911460876,0.037607383323549376,0.006205290086378683,0.010862619441422432
0.702,0.008562301770722678,0.07677216198126845,0.0682455782217426,-0.041714645180667226,-0.029939988769516965,0.07143243297807525,0.008800837670995217,-0.010651643045378637,0.0026134483257911757,0.04433018515270119,0.016134292834583158,0.006746547425007257
0.704,0.005580068479682872,0.07353199038149967,0.06797007969783708,-0.03879707880679862,-0.03128012803866218,0.06989113408437907,0.0023771909602310973,-0.003456170476138298,-0.0025381312142512785,0.03304682782952397,0.013895011222869607,0.007580567870890044
0.706,7.392259763162965e-05,0.06764599467204353,0.06756127189278344,-0.03350793776665926,-0.03440432642347807,0.06659729749894779,-0.004197963444876067,-0.00932321420118492,-0.008137973645759728,-3.879757215458811e-05,-0.0006327342957966471,0.01589354601786076
0.708,-0.00262943959483631,0.06372552721306608,0.06631796621060601,-0.03002087300752185,-0.035579772940357794,0.06342210312053118,-0.009265928578209584,-0.026456033352479143,-0.009604233297020238,-0.031335718910299265,-0.013841590497019905,0.03059856638650311
0.71,-0.0012780475510506116,0.063656535101,0.06480196681335014,-0.02987518051402311,-0.033777448078347934,0.062311172761811515,-0.013924615957026374,-0.03654179484712144,-0.007490701153862703,-0.035738327886773384,-0.014972111748721843,0.03998746392075092
0.712,0.0010254819205589502,0.06396103917266532,0.06261573541809186,-0.030322151553669623,-0.030702462502432522,0.06155394824633559,-0.02138069968454534,-0.025733770894094607,-0.006345180370514928,-0.014995333060371006,-0.007377753224535038,0.03612593889575324
0.714,0.003575511941934016,0.06134711453654556,0.05733139577461183,-0.029673502370001194,-0.02636848772216096,0.05761111131298114,-0.03207186875983217,-0.0017144307567892576,-0.008702830962689409,0.007003804700171451,-3.8129717468188458e-06,0.027044857274580662
0.716,0.00932246545462198,0.05662390714204154,0.04691251135110445,-0.02996784249857976,-0.01859656652123263,0.049523492007153835,-0.04159205927476099,0.011475014346584905,-0.01254132732277647,0.012057029941343445,0.0038056318362125804,0.024514440990432936
0.718,0.018279099582145977,0.05154713150985694,0.032984868027752814,-0.03235553640408343,-0.007822397013690224,0.03950709672015001,-0.04614017314776859,-0.0024825138155343575,-0.015130819950328632,0.004640929285919078,0.004715167702086852,0.02924070908392059
0.72,0.025104154159735444,0.04615088312407895,0.020922703603409722,-0.03411961064231842,0.001075538990454334,0.03090632353111221,-0.047227599317564664,-0.03487092601996106,-0.017262283913348844,-0.0016408271304891916,0.0016995874762838568,0.0336954976938954
0.722,0.025069488417903192,0.040188169654288536,0.01540863769755016,-0.03199017440178664,0.0035296006538305695,0.026002891924698013,-0.04863755050330426,-0.06104341392149407,-0.021778469166515244,-0.005694475105929038,-0.006136881555048218,0.035159941761947845
0.724,0.019023178067265913,0.03415312107774581,0.016013791447025836,-0.025984972867101178,-2.8257880727895938e-05,0.024206415051374303,-0.05143260609521651,-0.06516956612824848,-0.028811806442471794,-0.01497771772731345,-0.015298566528470482,0.03863561766171759
0.726,0.011514393613911196,0.028929358629101024,0.018662776376100476,-0.019379853019149015,-0.005351344655462646,0.023177675442558585,-0.05349353272730448,-0.053331832989394735,-0.03477487996266246,-0.02744900810671088,-0.020440611185476756,0.0448729331771595
0.728,0.00617347923596555,0.025287618719704,0.02028565683929985,-0.01531453584577144,-0.008806298831920483,0.021765351335198888,-0.05272885137222878,-0.041224781523494736,-0.03652285837110339,-0.031099695797635246,-0.020561737557152453,0.04580512722508768
0.73,0.002677119122739759,0.02231440227566222,0.020454709654719003,-0.01293525217772855,-0.010219322321354455,0.02003273784339338,-0.04969708108067407,-0.036801558730990114,-0.035006492020796545,-0.022182271781530455,-0.019494941439011766,0.03527584369371661
0.732,-0.0020742403774622314,0.017457976419179528,0.01993491434194487,-0.008385248888143767,-0.011745335886060537,0.017605025901222565,-0.04631043857749916,-0.04114169058645333,-0.033931488785337395,-0.01588845299463281,-0.02034766552964385,0.01574352928525188
0.734,-0.00912352414736139,0.009956971401870272,0.019158677845203902,-0.0003786138381494522,-0.014389297040397401,0.013903711866781018,-0.043129263510223004,-0.05376022164361252,-0.035537639206962526,-0.027933931324608616,-0.02235364659079936,-0.0047314802467703695
0.736,-0.01612338710449091,0.002104814983981464,0.018266290147792956,0.008118862765581953,-0.017375644530295845,0.009266733878465782,-0.03970666843816725,-0.0678549646377918,-0.03844138894401282,-0.04860564679818122,-0.023680545025571723,-0.016129016309758427
0.738,-0.021392531518235287,-0.003929031384395637,0.01783189776241304,0.01427049799946331,-0.02040873350144528,0.0050180020612262104,-0.03570979044599572,-0.0713767974249999,-0.03951129726676315,-0.053979417512385636,-0.024361442061904128,-0.01244686744624599
0.74,-0.026280505612957555,-0.00900713175340033,0.018032713654407197,0.01905894089828474,-0.023879906301038756,0.0018640086269833607,-0.030707574249327747,-0.060395705216180935,-0.0374733758952387,-0.04150021630106892,-0.025066552546956864,-6.689489883519861e-05
0.742,-0.032547051938186494,-0.015764454047790085,0.01751168539739866,0.025496114180629977,-0.02711024651729488,-0.0014753439984080616,-0.02559271853846717,-0.04541106400256515,-0.03425767858638416,-0.03221505324702635,-0.025814345396024677,0.007602247445764156
0.744,-0.03845782981693679,-0.02406625027890256,0.014641102464905976,0.03319551912706647,-0.028177356374734897,-0.006262570149619712,-0.023676254076465564,-0.04004761577943712,-0.03274367183839252,-0.03906012027572327,-0.02764812504321342,0.008326006895133683
0.746,-0.04010929257412392,-0.030336203647538817,0.009583720823415944,0.03785928256850993,-0.026045477896041374,-0.01137815863123605,-0.02732639488408559,-0.046986500154193284,-0.03427778119208282,-0.05382966124971035,-0.03244877462452579,0.011081450655857663
0.748,-0.037917417796202994,-0.03348355436150957,0.004205702591052291,0.03827501508923613,-0.022463720605158652,-0.015354881358055739,-0.034724848219618965,-0.05835713632926799,-0.03919988983654236,-0.06473258947679182,-0.03991151756716414,0.016167933326984064
0.75,-0.037656410312655465,-0.03768728815643097,-6.930461640427163e-05,0.03941776209679574,-0.02055444812577452,-0.019315659518491513,-0.04218098142613307,-0.06655157046156872,-0.04789994829421685,-0.07033276489905003,-0.0478083251690239,0.011612677402477843
0.752,-0.04298600206652481,-0.04681216511449784,-0.0038661588052123466,0.04587438252696638,-0.02129926066378859,-0.025654189544629696,-0.0479472348018002,-0.07039052760726891,-0.05942441784999761,-0.07479076969988495,-0.05478577394851171,-0.009746945060335488
0.754,-0.050489562074485,-0.05901343252844219,-0.00891924175464814,0.055547370488669055,-0.022296926733600547,-0.034549092592719856,-0.052089753728814796,-0.0722554770893493,-0.07049350899544188,-0.0800851015786936,-0.06031187671118154,-0.03892875875973344
0.756,-0.053841489233879714,-0.06875979312645994,-0.01569933193631615,0.062331944427013584,-0.020457876577697775,-0.04322293083406021,-0.054629984932491604,-0.07301474726905265,-0.07761583084973821,-0.08558866475497774,-0.06318999606650427,-0.057600446582759306
0.758,-0.051022755051021815,-0.07264608208272591,-0.02235070675710917,0.06328550885631529,-0.0156986018135662,-0.048758714179216615,-0.05578773867847231,-0.07067248447584715,-0.07967659058905414,-0.08916249451457949,-0.0627656847681115,-0.05820811007849104
0.76,-0.045858689621711225,-0.07202532367256723,-0.026403114772004323,0.060847734707038706,-0.011106713664202855,-0.05084651088887295,-0.05659515397430865,-0.06329424097821139,-0.07808394188292639,-0.08849845399757665,-0.06154158787572478,-0.0530633208681699
0.762,-0.043268485710184705,-0.07068951411699176,-0.02722587499872494,0.059048050116667736,-0.009548337440863168,-0.05115312672807896,-0.0573976183882862,-0.05402469294464368,-0.07506189347001126,-0.08518391192544135,-0.06338726199569492,-0.05591297411338113
0.764,-0.04436818099578063,-0.07075270809568478,-0.02616060004927429,0.05945972707230841,-0.01086153330485945,-0.05091619671186369,-0.0571747967789052,-0.05187601143513264,-0.0720091433536026,-0.08264734639614153,-0.06766565309643237,-0.06419347274660388
0.766,-0.04633013210750119,-0.07144408322250274,-0.025102664829199296,0.060646550620770824,-0.012407320971344319,-0.050563400753081036,-0.055727438737353974,-0.062369332095262554,-0.06909575759754269,-0.0791420443088342,-0.06857157861180914,-0.06773235966106368
0.768,-0.046733920766094283,-0.07177014964439378,-0.025149685370933945,0.06100145936619391,-0.01250632655584514,-0.05050494213653794,-0.05431284496831982,-0.07826641083341432,-0.06627808561517227,-0.07282336250767159,-0.06241235043276948,-0.0645937615421237
0.77,-0.04664367185309308,-0.072242241743447,-0.0256591944992173,0.06116327763424224,-0.012385579723097399,-0.050688803359212116,-0.05361382888470907,-0.08711940996322513,-0.06402949976147944,-0.07081807635954765,-0.05327525969004735,-0.06142786761911093
0.772,-0.048303882988439406,-0.07340279968270245,-0.025088435690213486,0.06259821507252614,-0.013700861850884278,-0.050600986729548394,-0.053667585789936856,-0.0860635790474199,-0.06275032726613136,-0.07893211864304521,-0.04884923322483833,-0.0630724501160418
0.774,-0.05173308422882817,-0.07435581011599443,-0.022727564260441632,0.06496131595575726,-0.01618037822889711,-0.04991057686490995,-0.05456162723275077,-0.08102392170790909,-0.06266116635564295,-0.08706303937039231,-0.05108577042651831,-0.06582446329667138
0.776,-0.055280438897782856,-0.07387977075710973,-0.019052616316247054,0.06667470746867078,-0.01894784705452884,-0.04829239848344804,-0.055041681390584754,-0.07504037196503527,-0.06369141956457582,-0.0808739845585906,-0.054983878529931696,-0.0623923149168733
0.778,-0.05808873108698815,-0.07277251273866323,-0.015479538771951672,0.0675893407553489,-0.02175730014014168,-0.04610861683021322,-0.0530810990060151,-0.06570911595325543,-0.06440769311652281,-0.06520770448467829,-0.056431538289162565,-0.05059087850842782
0.78,-0.06027377574493978,-0.07304778986778514,-0.013597808293868963,0.06878395498567055,-0.024176606524136817,-0.044839039749649395,-0.048819394783840696,-0.05356923298790341,-0.06320528404539161,-0.059989955959875205,-0.05520528509394962,-0.03217999156731492
0.782,-0.06148976863910523,-0.07444963489311676,-0.013532954588241951,0.06981486894763163,-0.0255323624687242,-0.04505563526708053,-0.04442227231130492,-0.04653987029070108,-0.06072924316695465,-0.07117994538524135,-0.051381451068889854,-0.011500842022297212
0.784,-0.06085050982245504,-0.07475989352684326,-0.014303022242851144,0.06886952149720578,-0.025515375925976698,-0.04583381720787275,-0.041574288129652796,-0.04933880133762134,-0.05841502954467571,-0.08203577670172865,-0.04522935667050165,-0.0025161311120421455
0.786,-0.058270102709303016,-0.07359539934064863,-0.015850713399950866,0.06588718827734605,-0.02395432852187663,-0.04678185848702739,-0.040639764871674165,-0.052479325384742405,-0.05595116478401434,-0.07916523977378008,-0.03911934400183204,-0.018712126818496953
0.788,-0.055423904815359554,-0.07297348251753856,-0.01841511256930195,0.0633771637909034,-0.021293166225223488,-0.04814565556621543,-0.04113557216602606,-0.04501410877847225,-0.05285604598635738,-0.07005298423065169,-0.03590059696149094,-0.04671259713484382
0.79,-0.05453352111091542,-0.07412005924928212,-0.020705479907474685,0.06345162863939283,-0.019183671980128512,-0.04937695861036356,-0.04231344276654683,-0.033890805896722165,-0.05038863210303192,-0.06645429388954917,-0.036603976052822194,-0.05504360450715788
0.792,-0.055954565509488526,-0.07593534423295782,-0.021086222809599087,0.0654823330862308,-0.01900104503974935,-0.049653973705250494,-0.043335985835156646,-0.03400756626505747,-0.04959085532743276,-0.06652104245844147,-0.040137860394416705,-0.03747861689534734
0.794,-0.058301380887190175,-0.07704855048147355,-0.019619512096668304,0.06774911807836596,-0.02037164478782496,-0.049158109121647545,-0.042494476810467335,-0.04473700037840885,-0.04938209731745498,-0.06262426456205811,-0.044933989306053634,-0.02132583610574914
0.796,-0.06035793794723356,-0.07786389536530267,-0.018069767281648653,0.06970531611626497,-0.02180200005757981,-0.049041700317188484,-0.037329214502547094,-0.05088536523748047,-0.047780555697449545,-0.05576491527803812,-0.050925596782999044,-0.027082494312409743
0.798,-0.0618118020816779,-0.08054148317014247,-0.01898948151291206,0.07203819461564336,-0.022010573888210247,-0.05115057820142158,-0.026966478317864934,-0.04121999961016285,-0.044033353998590395,-0.05433097597495963,-0.05834588124711317,-0.04418146493806898
0.8,-0.06362573585284435,-0.0877827807721063,-0.024112659647983974,0.07659302091837447,-0.020800727306161868,-0.05752129178270273,-0.012606566014405091,-0.01670581508129148,-0.03946768070581859,-0.06418764627927022,-0.06589777044348243,-0.05186533860250347
0.802,-0.06748680438545335,-0.10031052436069361,-0.032550591352990384,0.08512787221016589,-0.019013898089788584,-0.06833994062401641,0.006154182952788197,0.016685385782747707,-0.03540285704956527,-0.08275526389741006,-0.07361650484994138,-0.04776931638296519
0.804,-0.07330682384437706,-0.1150056527970239,-0.041432700480373556,0.09606395032906347,-0.017512871092901647,-0.08063852591294508,0.03236993449161189,0.05719354871104392,-0.028670129844140697,-0.0977811361427748,-0.08489826143242668,-0.049296911687839146
0.806,-0.07759887869941437,-0.12626644264474676,-0.04860970887609623,0.10402144517805594,-0.01587339119615917,-0.09012888505683474,0.06632471773470967,0.1072742360133365,-0.009227652404800401,-0.09271241459126758,-0.09868781891161683,-0.06788085960684952
0.808,-0.07450475874535659,-0.12843288382016474,-0.05403262331775207,0.10306417020963862,-0.011655892382020925,-0.09363117718654337,0.101937467821195,0.17028197791519697,0.036882809351023144,-0.05639561734103949,-0.0996092994642129,-0.08798912979611667
0.81,-0.059155464464141085,-0.11729806523747652,-0.05822894926194675,0.08949388584462098,-0.002142016221118489,-0.08950802101001919,0.1323061918303186,0.2521936937025627,0.12045435621466168,0.014764207613732854,-0.06441237749439144,-0.08142432682543004
0.812,-0.03144722897261328,-0.09184898289863756,-0.060367284896444856,0.06319138351216537,0.012606972021924567,-0.07743534820383816,0.15939854012569007,0.3602631178570587,0.24269929685413738,0.11888272110719121,0.01579863505510424,-0.037852899796839694
0.814,0.004211780651526393,-0.05641540250489902,-0.06044323886208512,0.028099527523225167,0.030615519765364228,-0.059789922282091935,0.19472784714398783,0.4961619811922531,0.3950154541428101,0.24717604993958345,0.1235194887363919,0.02712568225548106
0.816,0.04352733583176418,-0.02017108433205637,-0.06333050024942953,-0.009670223422155387,0.05211888787081071,-0.043070320523528396,0.24531800756670255,0.6530148347264705,0.5647295400741353,0.38916678623675194,0.23233673921022213,0.09097332910473162
0.818,0.08507283189191889,0.009087000662676661,-0.075429671400673,-0.04579473126423485,0.07921573587468149,-0.03412859365970127,0.30056993584347025,0.8132522215969495,0.7390834877571191,0.5395164809192593,0.33359448520800494,0.14797034915996826
0.82,0.1276171741037807,0.032320117290068194,-0.09460230085902169,-0.0797031042059568,0.10988161264475446,-0.032063684332410296,0.3398483000672727,0.9476918555790118,0.905406678137459,0.6924335884142164,0.43701862338759195,0.21246415279477174
0.822,0.16777730730233004,0.05907570973148193,-0.10797583227642547,-0.11347239168795302,0.13619734417303037,-0.02600707656932332,0.35282141395274413,1.0300817938736933,1.0556535335131627,0.8411144226953138,0.551695010974697,0.29750192997842323
0.824,0.2038437465661606,0.10014958432072629,-0.10312855260873047,-0.1511270530355593,0.15160201132505607,-0.003515498909595502,0.34448324472214326,1.0561358350007974,1.192680899173913,0.9879960820468359,0.6786056143964546,0.39763332277919144
0.826,0.24002310529617457,0.16209692226573774,-0.07762358107150917,-0.1987939397006351,0.15701038027942985,0.040778748051025056,0.3169795788968351,1.0373801395395879,1.3249011866639155,1.1398169435846202,0.8174075391388271,0.5029669205824255
0.828,0.28118010151152867,0.24641958312876433,-0.03454046339919204,-0.2609657395792641,0.15609043321349533,0.10569203361875014,0.25521312957737063,0.9764353503256816,1.450821761980524,1.292808649410773,0.9697307216451422,0.6214410691293946
0.83,0.32047311842444676,0.3475386010620474,0.02746238748939512,-0.3318255311950451,0.14475427909893396,0.18791371785599734,0.14251902576627207,0.8571676644512298,1.5453025960187654,1.4296405671625834,1.128525331582566,0.7644391756869195
0.832,0.33687977217109777,0.4508294244048674,0.1145177380918845,-0.392766464208596,0.10952841762839194,0.28263710401401215,-0.012483064737916461,0.652181291494104,1.5507024577803386,1.5101359475964449,1.2590102320182361,0.9108772463149801
0.834,0.31282704385037274,0.5367353807772044,0.22438064860519422,-0.4244310037500801,0.04275453306171967,0.3795599305133837,-0.1791509586286829,0.3336200345395577,1.3842158086678413,1.4547120326390675,1.2966132322502053,1.005795045385312
0.836,0.25474209511550155,0.5873615325791817,0.3327516395270516,-0.420884470403373,-0.040011880858779846,0.45852250121817273,-0.3332482817902767,-0.09837315065437188,0.9911003838419258,1.1844649796994402,1.1855042701618481,1.0023893307773055
0.838,0.18984395004889787,0.5918455880532326,0.4017620219604506,-0.3904160625408294,-0.10625912264199548,0.4954225428211235,-0.46953547203164614,-0.5847248389366351,0.41834168108583697,0.7179168208603105,0.9325702244484219,0.9006973527791405
0.84,0.13947291837732362,0.5507212073515774,0.41078784879214963,-0.344370889847426,-0.13569394287566686,0.47974270927583534,-0.5913496613308467,-1.0384078745360927,-0.19549001293012447,0.1864511684092811,0.6098818141688059,0.740407546600439
0.842,0.10015482985114525,0.47641875161981845,0.37582916394969,-0.2876326652623522,-0.1384725437222214,0.4252220779911464,-0.6996227514144329,-1.413021764219191,-0.7251704402893838,-0.27815171434678765,0.2970844790895417,0.5644168871995949
0.844,0.05577426322531255,0.38993255817741973,0.333944725308915,-0.2223921183082019,-0.14050805464193641,0.3610028003813182,-0.7888594357356322,-1.7036256246163768,-1.1181679709072205,-0.6235517218155977,0.03978832032409056,0.4025071124582474
0.846,0.002132923404142849,0.31336382309387223,0.31116244663241377,-0.157169529049109,-0.1560469395624125,0.31153684357808153,-0.8498825611639814,-1.892786344847773,-1.35658272149315,-0.8419269383565984,-0.14255247916129704,0.27618165668006495
0.848,-0.04967993178142545,0.2575355673809976,0.3070171529306992,-0.10324592370048782,-0.17944143460720874,0.2817927455292541,-0.8800941096634726,-1.9504003529404257,-1.4339786998055972,-0.9331568234163138,-0.24728108545534838,0.19369275166720298
0.85,-0.08902038081455677,0.21547210521332988,0.30410494637967506,-0.06299302445923363,-0.19749351964719677,0.2589567713767054,-0.8874777536410032,-1.8877282911434692,-1.388591284586214,-0.9237516581952654,-0.29606420002130374,0.1420435204718778
0.852,-0.11372214418246895,0.1704667834041993,0.28388293326586334,-0.028780809197212594,-0.20008366226342617,0.2255864416844452,-0.8809538226810562,-1.7700881096509056,-1.3031881674979235,-0.8741276020972064,-0.32678320311848835,0.09740319931965409
0.854,-0.12417771452828877,0.10992000776736374,0.23405831594728593,0.0067477921305811196,-0.18054257050366662,0.17025079209473465,-0.8657695844872179,-1.6638101996151278,-1.2434427193460098,-0.8444923372916788,-0.3661586879268209,0.04538600280955011
0.856,-0.1204240913183072,0.03353293845883494,0.15397804539112417,0.0439164133165877,-0.1382158468246954,0.09283106525444733,-0.8495545540673124,-1.587357061707267,-1.2153953371847965,-0.8572830709811069,-0.4144232055178392,-0.01060592849097245
0.858,-0.1090942644375717,-0.046330511148634915,0.06252606355062217,0.07907345412134814,-0.08669316640996229,0.00799114038661086,-0.8378602156992695,-1.5168068270753083,-1.1873365090187875,-0.8879655009959492,-0.455063333650313,-0.060331741604430035
0.86,-0.10474898578529108,-0.11122510766879218,-0.0069576999058908115,0.10937376144276542,-0.050556159020095054,-0.0594698054223155,-0.8207472686693074,-1.4230686067781062,-1.1327094477517399,-0.8900706192930176,-0.47381354207984366,-0.10070560074005779
0.862,-0.11607770823043827,-0.14893960703294076,-0.03331527848620822,0.1329886154370869,-0.04399621169749363,-0.09273007990938176,-0.7791841697064952,-1.2983300772758744,-1.0480462773655084,-0.8384805779756166,-0.4686218583596592,-0.13515915625968572
0.864,-0.13434303572248163,-0.16279898128985226,-0.028769636424523307,0.14809687776210267,-0.05557027483442756,-0.098357074011695,-0.7093810611819603,-1.1559231454068166,-0.9469661445914181,-0.7522557849764103,-0.446723901405837,-0.16519249318479662
0.866,-0.14268914443905684,-0.16619374172770457,-0.023750959126015093,0.1539076015589888,-0.061821622249833744,-0.09733097851783984,-0.6292257242579302,-1.0142751805180303,-0.8467723815020664,-0.6701734619900769,-0.41765492420928196,-0.1856464477140812
0.868,-0.13522469498570425,-0.16706298927840169,-0.03200956067403062,0.15151012257459853,-0.05375078924737033,-0.10078877623325258,-0.5580610571684688,-0.8859873450438586,-0.7572016371145533,-0.6100923720965811,-0.38919758508922303,-0.1860453295796475
0.87,-0.1206638572697929,-0.16132885780704095,-0.04069199528861595,0.14241314283158382,-0.04242017382771728,-0.10136008053896071,-0.49874566190634506,-0.7763339846141416,-0.6767838578651568,-0.5612156642184305,-0.36371630860175175,-0.1619787673680993
0.872,-0.10911561670896154,-0.14309292796516707,-0.0339025412939761,0.12786203872895618,-0.04041168734910669,-0.0888033550270083,-0.4409291023538861,-0.6810913529729262,-0.5979875424123657,-0.5046268145090528,-0.33633906412298636,-0.1279099497484336
0.874,-0.10249691365519539,-0.1172207914242131,-0.014666232840077764,0.11110867492916815,-0.046552095461377105,-0.06674720336697645,-0.37667616578773366,-0.5894119552040569,-0.5166395188978897,-0.43110006080513485,-0.3019472486229606,-0.10820837540926075
0.876,-0.09725418409142203,-0.09646314497913337,0.0007808575677779368,0.0974933100520705,-0.050709504697098756,-0.04905990530568898,-0.30959750221757304,-0.495302039123536,-0.4365473561964176,-0.34867875908440704,-0.26360094292150954,-0.10963645597047406
0.878,-0.09056072135932224,-0.08780858367263057,0.002715927722893663,0.09005103482597657,-0.04724416362190532,-0.04386961346144295,-0.2482618108602189,-0.40020251959212755,-0.3643819235808524,-0.27804095481965824,-0.22890996176668274,-0.11219982844372485
0.88,-0.08206100988012531,-0.08685524565654998,-0.004828282973548686,0.08641228754032061,-0.038958077777903034,-0.04710583152574984,-0.19529593607899676,-0.3072035013809215,-0.3020190822529825,-0.23330432590293898,-0.20041257940557053,-0.09462737548609793
0.882,-0.07242208759026814,-0.08495803877950851,-0.012653433372073971,0.08148850582063905,-0.03079111068164393,-0.04997028598397109,-0.14791584265143606,-0.2242924085237213,-0.24677059597879564,-0.20777425976413838,-0.17443468616411992,-0.06324291277184795
0.884,-0.06377097395797111,-0.07895968707736414,-0.015524859119743353,0.07380331716482891,-0.02546150535587128,-0.048146892268609444,-0.10583398289866311,-0.16502207833448373,-0.19854965766428093,-0.18377484287261442,-0.14874284766297435,-0.04565372289158072
0.886,-0.059599473681093536,-0.07284353699392639,-0.013799204615355427,0.06733218074431836,-0.023858396756814348,-0.04376271976220879,-0.07254664062267104,-0.13205079697518798,-0.16213065126811077,-0.15358967955187014,-0.12799906995477453,-0.05536056556175975
0.888,-0.06062068581529858,-0.07105654355530903,-0.011026604275285661,0.06587127521159045,-0.024866671579497013,-0.04124889549008979,-0.04958622981790029,-0.10922107898065855,-0.13979210975864148,-0.12567070382791376,-0.11821165161344266,-0.07469721620591013
0.89,-0.06347625053120498,-0.0733540390438674,-0.010299713377895217,0.06849025457334237,-0.026067051369584142,-0.04238412606681407,-0.033991361015181645,-0.08130991516787167,-0.12605926154476357,-0.10859611789164851,-0.11704380229123582,-0.07824729887572536
0.892,-0.06473429675381043,-0.0758598938095963,-0.011385806448331716,0.07101158913527916,-0.026258705354229906,-0.04460158706232583,-0.02195723404593752,-0.05175656060950402,-0.11312426846991805,-0.09401415741366947,-0.1151686913062065,-0.06267178228891689
0.894,-0.0632078746265259,-0.075135892070709,-0.012316803973580173,0.0701362113118669,-0.025588832443210387,-0.04451836632996373,-0.012204680115508895,-0.03186276332994074,-0.0978990413228609,-0.06816891215210709,-0.106550457002302,-0.045344244425374575
0.896,-0.05953465607462706,-0.07168322482505211,-0.012952271951609525,0.06649357612276162,-0.024088498990448036,-0.0427261666840841,-0.0050917172287398265,-0.021805446436978626,-0.08205930764277865,-0.03716405849048017,-0.09326724315263385,-0.03818520424807792
0.898,-0.05549770363334598,-0.06902073181276837,-0.014676730665836869,0.06323868573734497,-0.021788427176533284,-0.042621115938625775,-0.000259571943222474,-0.01183660419826357,-0.0691098078819399,-0.02084430231997111,-0.0817238456937207,-0.03424191809944042
0.9,-0.052556797036683645,-0.06881042975458974,-0.01741388401835537,0.061673570403240084,-0.01929053745897266,-0.04476495826685942,0.00369090432365962,0.0014633008001375177,-0.06184538220102361,-0.02466804755579636,-0.0765312354549052,-0.025713553659104677
0.902,-0.05081933841647201,-0.06874220901633059,-0.0188051607240989,0.06035213786485892,-0.017578904816397976,-0.04555355654425749,0.007639030683289949,0.009719147223139777,-0.05954419319181026,-0.03615552899041576,-0.07749587101859638,-0.02145170325412869
0.904,-0.05014462104350147,-0.06658130567929814,-0.01701956595476174,0.05861482376107049,-0.01750778959920065,-0.042755034753546195,0.01128148359978437,0.006850106570273324,-0.05830466712377739,-0.043343400762363156,-0.0813004297852854,-0.030997369491851043
0.906,-0.05088177155938675,-0.0642555895970332,-0.013900672941247978,0.05825701912634178,-0.01881709241663643,-0.03961059120669039,0.014486272362404589,0.0004339840195985259,-0.05536543049025416,-0.04426525235002445,-0.0843341226256064,-0.04490702399265828
0.908,-0.05262129840874922,-0.06513240957873305,-0.013257921486690201,0.060429805111114204,-0.019854663147382882,-0.04039979035635336,0.017979945191946983,0.0026786776513452377,-0.05092598684502903,-0.04419701774451925,-0.0843284362055205,-0.04986799121147788
0.91,-0.054416285181401326,-0.06909900642463751,-0.015616114906050166,0.06369357514876804,-0.019736604917668023,-0.04430155791552152,0.021947015219411337,0.015624836976517464,-0.046169242465457255,-0.04828553687204605,-0.08179508526735396,-0.0495761504141581
0.912,-0.056366904565092746,-0.07278883172524313,-0.017245710628766914,0.06612792395206542,-0.019894152121988962,-0.0468117016442032,0.02541557433078778,0.030380825392325023,-0.04225887267628943,-0.05448038782585709,-0.07907718837970644,-0.05291277517082474
0.914,-0.0583300649819647,-0.07324430145868242,-0.015536151120731562,0.06675629631001752,-0.021493923820729254,-0.045559724870254587,0.027540251717923438,0.038797256711169556,-0.03944184414118575,-0.05576502409183979,-0.07606858010060527,-0.05422016147436504
0.916,-0.05876354433349964,-0.07085041905672969,-0.012773330393962374,0.06571301739697134,-0.02312162037387681,-0.0427174538449788,0.02818227371557241,0.041546694488370804,-0.03591562092070487,-0.05064292561226408,-0.06954146094198117,-0.041966358371389886
0.918,-0.057062703825446544,-0.06871353523883587,-0.01262461682119947,0.0643462006571226,-0.022902140231419326,-0.04179079149538807,0.02779391349271867,0.043527905154740414,-0.030422747252168134,-0.045975953089376825,-0.05976468774724555,-0.02076004622729178
0.92,-0.054232100963809524,-0.06842067252725392,-0.01534084952776006,0.06325647710813424,-0.020712705761341516,-0.04325596669556815,0.028033894227978782,0.04684145476143258,-0.024797317769141212,-0.044464185107538926,-0.05384384922157488,-0.011073562495203795
0.922,-0.05065725660307945,-0.06798470922530986,-0.018399990081358657,0.06098404397781131,-0.017598418384979084,-0.044561689736407534,0.031003148089199815,0.0518704840913315,-0.02109704093762602,-0.03767897902599396,-0.056980452889707496,-0.024381507582025928
0.924,-0.046136700003852886,-0.0649603922161188,-0.019657639347384865,0.05654900807923727,-0.014966277216808347,-0.04348764091752582,0.03678858306507513,0.05963833497205829,-0.0185346821562018,-0.021351555740789015,-0.06398002274077823,-0.04616638057428604
0.926,-0.04185081549007052,-0.06030848809524806,-0.01904029623721695,0.05191726846089535,-0.01385649113639681,-0.040697872401515456,0.043141274652607274,0.06875112757525384,-0.015268454608355702,-0.006724353051261551,-0.06578016004034258,-0.05084488988325844
0.928,-0.03984752397735564,-0.05796163778094314,-0.018546280746491697,0.0502640795132152,-0.013815497775574276,-0.039326167480888755,0.047734889938189605,0.07503144617611217,-0.010936906041969027,-0.004740886568229665,-0.061268645316964965,-0.03172846701228768
0.93,-0.040556702162042185,-0.05993376546112763,-0.019824426471744067,0.052111392736302414,-0.013611970317575052,-0.04124477526715427,0.04984726842994812,0.07951963057074476,-0.00626781702511198,-0.008498404431705365,-0.05648165202977754,-0.009262914386703222
0.932,-0.042341849275643474,-0.06359594624671228,-0.02185729835550738,0.05465826351095199,-0.013060702702161685,-0.044514601850789044,0.05070401193670247,0.09008353044703747,-0.0019049077503624074,-0.004493416261295256,-0.05426823914435384,-0.005827821340719417
0.934,-0.04339079461395719,-0.06571581347343264,-0.02305603314182416,0.055502116997862165,-0.012464518450022602,-0.046403952952794696,0.05273099625833345,0.10685909509917191,0.002148133407683065,0.00362100883616173,-0.05093566231731523,-0.01808681399300761
