time,I,II,III,aVR,aVL,aVF,V1,V2,V3,V4,V5,V6
0.0,0.0011847395171770653,0.0008556452068501026,-0.0003290943103269626,-0.0009653433102924235,0.0007459471034077819,0.00021939620688464173,0.0020403847240271678,0.0033128827239580897,0.00278633182743495,-0.00278633182743495,-0.003861373241169694,-0.0011847395171770653
0.002,0.007727300334096848,0.005450409162755187,-0.002298830792030126,-0.006216686093431895,0.00490352843896312,0.0013131576544687755,0.014143052807144457,0.022505314306471135,0.01891494352197679,-0.019792528349515358,-0.027082646063262463,-0.008692643644389271
0.004,0.02278322405569036,0.01570442312990947,-0.007210116691227772,-0.018107795360318726,0.014504510450526666,0.0036032849097920607,0.04424360124457397,0.06824713326387699,0.05712651151625774,-0.06312508923754062,-0.0850358851307556,-0.02856111773535297
0.006,0.04124820410141399,0.028026428224459853,-0.013549194936900653,-0.03254282653676008,0.026127641684390347,0.006415184852369726,0.08374721178426958,0.12300255081888496,0.10197693633239556,-0.12050377806574221,-0.15897206392790447,-0.055961797428698924
0.008,0.053319168606722804,0.03627171033291047,-0.017492003110878993,-0.042153570484809895,0.03337372021745279,0.0087798502673571,0.1097858783927569,0.14932848425558345,0.121570121809465,-0.1565692116996137,-0.20060208154776168,-0.07471756215391197
0.01,0.054615609684972276,0.03756808039606676,-0.017434385725721452,-0.0436493797228692,0.033985690789469364,0.009685628554088296,0.11105263096957772,0.13491021130581582,0.10651412483736411,-0.15400595474482487,-0.19026105740909166,-0.0770768049509751
0.012,0.04673189996712577,0.03203109164061106,-0.015024493547012,-0.03762094038822623,0.029598176297520262,0.008132140235464382,0.09890800270128997,0.10514357033521808,0.07930048979884052,-0.1342083375867847,-0.16252970592776503,-0.07383282606787281
0.014,0.031377041731585856,0.01974089109960187,-0.012044275007130305,-0.02441488944936169,0.021116968754470288,0.0034940239893910346,0.08928054436054322,0.08688539212471406,0.06173827330173369,-0.1283127769393033,-0.16147252986424362,-0.07881847681741921
0.016,0.011444676908246115,0.002632146881629406,-0.00931033442702704,-0.006085451180359578,0.009903268857932747,-0.0037226315211414877,0.08505389383909075,0.08122717559703786,0.05324397120306968,-0.1436832026966777,-0.19261304747418498,-0.09271686929825741
0.018,-0.0024609790772857844,-0.008176953098876696,-0.006005780311856851,0.006591451325460247,0.001044063782029096,-0.007780640031810007,0.08124959263506148,0.07604291745633661,0.04458162963512845,-0.16320628792064779,-0.225761392228837,-0.10398142984269063
0.02,0.0033628938824170323,0.003698149444454325,0.0006278280002178888,-0.0016145504798079882,0.00014602062297617283,0.0012089333873296368,0.07770420628931947,0.06795201355817698,0.03643975580573539,-0.16846549807886624,-0.23317797744271115,-0.10111671821763363
0.022,0.02777156973355218,0.03711780166387044,0.010182984238632687,-0.030120101626956414,0.006972641632697586,0.02269817708042987,0.07712834526506682,0.061487204004192456,0.03490995587573197,-0.15900932886007427,-0.21747380757869325,-0.08517011306100417
0.024,0.049095478029700226,0.0649333507817187,0.016667230752046555,-0.05497357678831508,0.014276425980233256,0.039587181241877906,0.07715003231893056,0.056480536411737316,0.03776591499402614,-0.14946049527782246,-0.20224606168960765,-0.06929661263880126
0.026,0.047581879812698465,0.06317600596396747,0.01597742490685866,-0.05399115917557389,0.014678292858229133,0.037717981923335746,0.07399526094224806,0.048428405386065895,0.03625907643038754,-0.15116033456401234,-0.20274670353464505,-0.06426266262788431
0.028,0.028794829967576676,0.03946387722264535,0.01076788431617336,-0.03305168664466584,0.009063257441379778,0.023044377510615832,0.0702265597185727,0.03792141890770389,0.02740476488808695,-0.1610780146288974,-0.21328426044686954,-0.06891360005875974
0.03,0.01337728779208347,0.018526277198953164,0.005301264102798931,-0.014768296351449973,0.004424253266693764,0.010256103940256027,0.07126336718782232,0.03006645435481191,0.01562529147322463,-0.16935838712960016,-0.22068327771286786,-0.07709966962891143
0.032,0.010729894685248861,0.010901765572044907,0.0002690390990868361,-0.009716482816370782,0.004632064669718563,0.004102890287170417,0.07670190913964171,0.025763203660237235,0.0037385351943068643,-0.17243248922468696,-0.22095681372481213,-0.08652913505552345
0.034,0.015781042881418017,0.010409508698603043,-0.00572632032211469,-0.012429756776150455,0.008758478494303569,0.0005275199965567498,0.08071371259199904,0.020905811372329892,-0.009355094191969468,-0.17389473984309808,-0.21918126793121284,-0.09573025035805485
0.036,0.021403578579724906,0.010230887911220357,-0.012003527507994683,-0.015165960181147398,0.014310517522913627,-0.0028568488608832236,0.07883793296249839,0.01308739362114968,-0.02295252766220654,-0.17621282464638213,-0.2190776937289565,-0.1002867524974988
0.038,0.022306518370378708,0.008573873054840806,-0.014513148500278286,-0.013879749487648084,0.016953498779642216,-0.004708282947377391,0.0713185039815066,0.004401553907825751,-0.03277406507544247,-0.1770130173191061,-0.21887800393951334,-0.09825038190893229
0.04,0.01527332618203957,0.006110601289393839,-0.00940046259859817,-0.008060755657217065,0.011940024353298601,-0.00320049128207339,0.06175682836468643,-0.0017593917853460594,-0.035163996598404815,-0.172788942323021,-0.21639387840951435,-0.09374725893599202
0.042,0.002155955763395774,0.00322242546666378,0.0013118478293148892,-2.2074192512628742e-05,-0.00013783659224746902,0.0007542352904398702,0.05328331981650774,-0.005498525978607946,-0.03208342148657513,-0.16477583695647813,-0.21463020979908776,-0.09301473325248964
0.044,-0.011795850771250563,-0.002435779154157755,0.009729878038792177,0.00859696338831388,-0.012388025781460775,0.0022547092838677914,0.046219107482500826,-0.011099580588862719,-0.03101604034588959,-0.16005265461054105,-0.21895568547223473,-0.0992184094901989
0.046,-0.02333344511508483,-0.013229830293195646,0.010433983374199273,0.018487777475690515,-0.018835758120863497,-0.0026588489112197057,0.040133403822030934,-0.02117150535773749,-0.037666077991036905,-0.1650178386600649,-0.2284941290474357,-0.1090799220511738
0.048,-0.02988836795678737,-0.024481454219691057,0.005704134757602686,0.027249639753191824,-0.01865468468208687,-0.010693615322081108,0.03643918611600513,-0.03156669382808149,-0.0497267464613927,-0.17827691897989226,-0.23568608571812466,-0.11492447083448712
0.05,-0.026380180878892722,-0.026049428160477395,0.0005025635803475747,0.027195001342389235,-0.013011183000402453,-0.014216820205991925,0.03759857027251147,-0.03511297736433504,-0.05967665139410531,-0.1908777089166813,-0.23552020392226752,-0.11326582940567786
0.052,-0.014065620477279413,-0.017249052922909004,-0.0033020550675384,0.01759115903025768,-0.004943089615828964,-0.011752673051206936,0.043200200549196245,-0.03111457968620811,-0.06400854908524765,-0.19525741794483945,-0.2310986204330129,-0.10971019160377227
0.054,-0.0070844337347595035,-0.012982325454663431,-0.006319214110402762,0.012319412754629597,-0.0011604522297229175,-0.01108948414014047,0.04752810658796622,-0.027997391879250162,-0.0680902243991099,-0.19464938009113766,-0.22965779908791226,-0.1121252570085713
0.056,-0.01599227362990713,-0.023779912711198618,-0.008269593178802803,0.021890687788426594,-0.005857474641159339,-0.017637343208058317,0.04493344837220982,-0.03243873414726746,-0.07793126104980297,-0.198391292156258,-0.23409159908370106,-0.1199693281898006
0.058,-0.030784360286929224,-0.037430205934218024,-0.006881702789285092,0.03537270531359252,-0.014419893853101063,-0.024249654103729413,0.03807160890923815,-0.03947664767880225,-0.08951218985522015,-0.20741131639033378,-0.23990008755169687,-0.1248810354076651
0.06,-0.03419775406189199,-0.03528062411875576,-0.0010155139254483256,0.03536038045292002,-0.0190804126518399,-0.02047461173448975,0.03500944445781689,-0.04035693565854002,-0.09373172637340772,-0.21336949744883468,-0.24277423913998028,-0.12284288308552525
0.062,-0.026774014050584213,-0.02123491429774619,0.005694450350412894,0.02485878869871734,-0.018772813688330395,-0.009381009321135053,0.037254138469552035,-0.03660725872030694,-0.0897890729503661,-0.21201873405093932,-0.2448445599059843,-0.1196510536273238
0.064,-0.024510977235790293,-0.017024550740168294,0.007531607981529462,0.022667645498220798,-0.018670993017070366,-0.0050648006970276,0.03870796650893267,-0.037317203333996296,-0.08566025098837576,-0.20717966697961732,-0.24856300186273037,-0.12086018935986612
0.066,-0.033256601013974214,-0.02983491788363123,0.0033617272859958907,0.03407891451962867,-0.02097859629354635,-0.01309371613189912,0.037395244246293195,-0.044676759918575795,-0.08685062193640616,-0.203949560303831,-0.2519101291881316,-0.1232566477175494
0.068,-0.04143548840745706,-0.04479261308221442,-0.0034322636858341703,0.044956571065147694,-0.021604333768621135,-0.025036223454981254,0.037461813755858296,-0.05185390480517618,-0.09184989819945205,-0.20724891416227073,-0.2565206644032795,-0.12272124354290458
0.07,-0.0400892070236168,-0.05016908645112792,-0.01020428047509229,0.0456722661404472,-0.017388224913957,-0.03267614304282466,0.03963196705282093,-0.053446945858163945,-0.0964817450433467,-0.22002304998510727,-0.269025343493768,-0.12351107440304727
0.072,-0.03171180307280429,-0.04648841971553252,-0.015071851353653737,0.039111690577908496,-0.010430537701563056,-0.033917430776477825,0.041588487268245475,-0.04899424025993135,-0.09628366727399393,-0.2348144907043466,-0.2857676617129792,-0.13039295825485733
0.074,-0.018374238594177122,-0.03326727126265056,-0.015304039836065396,0.026193714039179132,-0.003298912034586216,-0.026985373472011367,0.04534259084234574,-0.03942370870472629,-0.0885037306717789,-0.23784795186694438,-0.29142803264601935,-0.13748081198676973
0.076,-0.0019676686718191356,-0.012097137889299064,-0.010397014663692255,0.007641557464203754,0.0025739403838312,-0.013179396414143632,0.05277923146536907,-0.02808733031530059,-0.07688092740688035,-0.22754190218719966,-0.28196379745086586,-0.13541194904013878
0.078,0.00793398017555757,0.004012896748080188,-0.003907466571306426,-0.005727698504082868,0.004286091061325582,-0.00137459112627401,0.058172910695988865,-0.021568834924614387,-0.06985924407968365,-0.21736073191895627,-0.2726952587241866,-0.12585472933999925
0.08,0.005598718580323725,0.00474206822023566,-0.0007100614572545423,-0.005372558568172415,0.0015153515223542092,0.0006172611360158323,0.05519898308544108,-0.02387879169847838,-0.07110842567994018,-0.21705905299894093,-0.2748038134252116,-0.11900876341201898
0.082,-0.0013944977271041826,-0.004881379443024937,-0.0034167089189144676,0.0029373272595950486,-0.0006693121017836113,-0.005770899611217791,0.0468392837304025,-0.032537383793929876,-0.07631729448923386,-0.222173275573107,-0.27906791264811426,-0.11874445754764149
0.084,-0.005723787598912284,-0.01612198006334985,-0.010441431984847444,0.011172919204843226,0.0007332322310341797,-0.014762235036312453,0.04062587813711135,-0.042060617717898735,-0.0804799120136172,-0.223984616828645,-0.2722787102102033,-0.1191574771573788
0.086,-0.009056190319468967,-0.025766167252211234,-0.016790750895162465,0.01818216873866807,0.002389865459591548,-0.022175641340935588,0.039115056815792124,-0.048011676139093275,-0.08239623356820308,-0.22026195954350836,-0.256593041076309,-0.11459592322598741
0.088,-0.013394274944350268,-0.030901709738107123,-0.017643643034422247,0.023050697683359798,0.0007134775450330171,-0.024926089415826566,0.04040005522138612,-0.04827449685294871,-0.08136701063276842,-0.21433331271994846,-0.24379237803779105,-0.10605988228226783
0.09,-0.017758359329882775,-0.029834791455867885,-0.012374231524851911,0.024490624555507875,-0.003970113847592096,-0.022280343396244604,0.0427296993647552,-0.04438390519572445,-0.0768972152418017,-0.21005092159770078,-0.2404418140956682,-0.09891227330939019
0.092,-0.02225104327575119,-0.02702541440679158,-0.005180160784530369,0.025467733462327526,-0.009476681907788897,-0.01792233839286056,0.04521266776837192,-0.04009680316949639,-0.07196677434707541,-0.20899179551734012,-0.24487536832683265,-0.0980420011096907
0.094,-0.02509858251052103,-0.026795688264005406,-0.0019607597308593573,0.027451425149422292,-0.01225435468760978,-0.016127816225348153,0.047410983648162916,-0.036575974003780605,-0.07004216153994736,-0.210525546401683,-0.2531775262275036,-0.10348711387757215
0.096,-0.020711696738917443,-0.026324569593888555,-0.005600244529380865,0.025455032847558876,-0.008161674286187786,-0.017030123487369958,0.049654383084104914,-0.03199896766450548,-0.06905270048484363,-0.21290839496888012,-0.2630473562132723,-0.10882311221944622
0.098,-0.009277142365953658,-0.02089688282590501,-0.01145380773399925,0.016650651188322485,0.0006799826124105411,-0.016772357551034803,0.05263280732131369,-0.02605501130403049,-0.06326691224520016,-0.21277541994769447,-0.2711261340060656,-0.10679272170671873
0.1,-0.002493657082385404,-0.012906289633747278,-0.010211844405717187,0.008399706712798057,0.003729641808534176,-0.012219744715207505,0.0560666122493713,-0.021534087135886514,-0.05203097752337855,-0.20780469228876516,-0.2723490900384585,-0.09985079115831752
0.102,-0.010732589492698438,-0.011139802167615304,-0.00014389072705874067,0.010868883735997448,-0.005576690699170837,-0.006597170050163102,0.05752893056402856,-0.021442769025113963,-0.04286020265691126,-0.20210719738565752,-0.2673982795533105,-0.09994486152089438
0.104,-0.02638534799065966,-0.019104704124506898,0.007513998043333981,0.022457868348680073,-0.018077518969426692,-0.007157365546937973,0.05402883429282857,-0.025902710003830026,-0.04329917963730679,-0.20226368347727888,-0.2653116459088803,-0.11219517611557349
0.106,-0.029116776904695368,-0.027390532795767086,0.0016273725794626096,0.028472730243284276,-0.01758011432054876,-0.014646011461853674,0.046666532608578636,-0.03148648495306805,-0.05180576696343871,-0.20718450383819972,-0.2729403251497999,-0.12572698933300777
0.108,-0.01078553071148988,-0.024103357036465375,-0.013846429051379125,0.01850099208793006,-0.0011819028873567715,-0.02077542456923725,0.04172126896026033,-0.0333305559837699,-0.05946302140238406,-0.2092432384185724,-0.2855775037103281,-0.126906210228383
0.11,0.012779703834215955,-0.011876221506065507,-0.025236733564546497,0.0010921408600343052,0.016785707388706585,-0.02009286476504671,0.043310069807062056,-0.02952729968591902,-0.06132205062909469,-0.20654702079315454,-0.2927494104667581,-0.11591448331051472
0.112,0.018958564508557752,-0.006861481934934628,-0.025960665935198208,-0.004497025846487022,0.02129169129353488,-0.017754653993625472,0.046813786109500814,-0.024108749817927832,-0.06310949526306568,-0.2073251314549307,-0.2915105330904721,-0.10527998982587637
0.114,0.0015189269026334934,-0.01822045427832884,-0.019393229114351335,0.009798751180908685,0.009985341454295188,-0.019983048191042452,0.04462534808553988,-0.0227471418711119,-0.07165993138999907,-0.21735211378284333,-0.28830368298414577,-0.10481457008091319
0.116,-0.024343334168087268,-0.034879701984240015,-0.010137345965755738,0.031039983143694258,-0.007658696213280226,-0.023485376028839242,0.03739513325043725,-0.02465399945622519,-0.08161992524923262,-0.2278918119945148,-0.28727586327855437,-0.11169365700916832
0.118,-0.03558889069114384,-0.038081490817618815,-0.0024103124777884637,0.03836926757562838,-0.017615200594398018,-0.021243327259784398,0.03429148124983849,-0.023225149952083454,-0.08080301347220911,-0.22485738522863247,-0.2840840214028734,-0.1157224078224315
0.12,-0.022390040742942922,-0.023217221772705927,-0.0009918601117144537,0.02446930297715769,-0.012057617162186163,-0.013226292267075918,0.041006537743733494,-0.015715493081544653,-0.06739091769126707,-0.20809851917585867,-0.2747544388201174,-0.11202846304925537
0.122,0.0016126967011584512,-0.002474521410191691,-0.004193575471781693,0.0018532045800571954,0.0014446996254202042,-0.004333130633915348,0.05230336815404808,-0.0066951457423109935,-0.052404027560805755,-0.19171480801347235,-0.26413988286575674,-0.10442231171023421
0.124,0.015021456720719683,0.011895361293173586,-0.0029694868422790706,-0.012625545898004497,0.0074335913456754325,0.0036666042060566314,0.059217392231560015,-0.0010720852071013653,-0.04564218900612499,-0.1851634471846817,-0.2596370818296931,-0.095826805615355
0.126,0.01188200148045569,0.01648231230018056,0.005009315595891204,-0.013445749360049492,0.0017048801198603783,0.009887563673736326,0.05843501680982795,-0.0003662913379781648,-0.04782780942529134,-0.1851342876071359,-0.2612887487353864,-0.0841912851174304
0.128,0.0009091039699495154,0.009164968004975299,0.008703891148136052,-0.003534210548208767,-0.005614375031956778,0.007834827096543982,0.05188132537783241,-0.0059908459594145294,-0.056426351762642386,-0.18753293217026276,-0.26464017758863967,-0.07247147169013797
0.13,-0.010656609301186348,-0.011275000596289376,-0.00039507481539235133,0.013118541913358824,-0.0067009384619906385,-0.007070795392146867,0.043618008370465304,-0.017459971221684467,-0.0695709632948462,-0.1939625402233036,-0.26808249281231633,-0.07118589459573836
0.132,-0.02125928387429511,-0.03421416512104615,-0.013009798658473343,0.029359213549799226,-0.005762113595381825,-0.024835814123430177,0.03937886478108919,-0.026825056278249375,-0.08226787610112996,-0.20204856576500232,-0.2703485506044659,-0.08371834941285271
0.134,-0.030106229462839782,-0.0430263140004123,-0.013062277019352862,0.036850900488798057,-0.010290401560813319,-0.0293285319311178,0.04241771518898672,-0.024329265305242258,-0.08750362918559303,-0.20248250031864512,-0.26743743099683276,-0.09958206189618281
0.136,-0.03674035601006714,-0.03607278900105591,0.0006220246549943581,0.03582380249904711,-0.02018585793007108,-0.019260799528330853,0.04816437387302946,-0.011041047805578786,-0.08398421440867593,-0.19231623202038878,-0.259586564299972,-0.10818094918519394
0.138,-0.03880253254737034,-0.025359904029397123,0.013495232479695621,0.03163429463821469,-0.02712166893106173,-0.007672308358531693,0.04930637609312735,0.0018223019922643492,-0.07645767462522578,-0.18126332336577033,-0.25486545931727744,-0.10978741911267491
0.14,-0.028055429621144518,-0.014740562415375781,0.013364733768395821,0.021533863551296675,-0.021446192576503646,-0.002279387046594355,0.04638748527810957,0.006701308357398962,-0.06807263832766214,-0.1784075477295821,-0.25939542573764196,-0.1092534807251006
0.142,-0.002018551551321969,0.0003259627316777056,0.002340013245031254,0.0014511271616891635,-0.003062507279099151,0.00010654368450801478,0.045989161387435806,0.00581708035287256,-0.05919850881048444,-0.1807393523751507,-0.2687562504980038,-0.10754646560545711
0.144,0.02266470753570393,0.01500748908649898,-0.007686430992399495,-0.01792864833600648,0.014146451312468451,0.0024876524842104963,0.04959224744310227,0.0041539851493872185,-0.05188441760614741,-0.17969889043182483,-0.2723647196040553,-0.10282730083968075
0.146,0.027121218506435545,0.01886637148065184,-0.00826634190083695,-0.021989727007378796,0.01668849321619684,0.003748143707588434,0.05255980833329286,0.003652074757100722,-0.04791529957646297,-0.1721354728271699,-0.26361556534619407,-0.09516382179287772
0.148,0.015614090035057811,0.013198078651801707,-0.0024055788168769326,-0.01353843623573297,0.008147798240389817,0.0035629379801354407,0.05257525384454482,0.004257420265341286,-0.04527700617625506,-0.16198539523516883,-0.2460718753707116,-0.08778705694952067
0.15,0.007401153353302704,0.008783824873389592,0.0013939208350993533,-0.00732715083896323,0.002277022797645395,0.003307184995085153,0.05233261244448053,0.005511557384295189,-0.04186648970632199,-0.155255887856952,-0.2309093042701738,-0.08392872411502139
0.152,0.008820788679682116,0.009127318850668028,0.00030621021782427415,-0.008222549490923246,0.003318048452100854,0.002936236893386268,0.05424608269596797,0.0060290770839543555,-0.03970644531472768,-0.15496164400515614,-0.22720613993656835,-0.08419721838664043
0.154,0.007718577759131794,0.006242953106588736,-0.0014819155793192593,-0.006477541654982909,0.003052507292068977,0.00044097832679888013,0.05630383101512199,0.003833433256099625,-0.04243290839972599,-0.15999762237817727,-0.2351912468121888,-0.08794500261078722
0.156,-0.0033950011983881175,-0.003033551148198411,0.0003805596979410243,0.0032326942669054135,-0.0039010272119770744,-0.0032562149092057306,0.055089535483247805,-0.00017754759693205501,-0.049005970978363636,-0.16621244617806477,-0.24737603567201932,-0.09355924482671672
0.158,-0.013476020805296817,-0.007269642154496169,0.006361715382290423,0.01005013971903281,-0.011948654645010633,-0.0021727623705415913,0.05065904584146526,-0.0015949969325442157,-0.05256166973065048,-0.16806155217348548,-0.25341807856847137,-0.09819453572744376
0.16,-0.012275034536465562,0.0002494234376745878,0.012985731302098935,0.005631869712488554,-0.014487914705836998,0.005079935060056525,0.04511578715789865,0.0003518349140643098,-0.048505749908942734,-0.16439549877395565,-0.24712348411914153,-0.1019599976968973
0.162,-0.006724003907013342,0.007010096972284336,0.01448420183066706,-0.00040904598554314744,-0.01234652513236275,0.009357662231384262,0.039452724373040086,-6.264218732444007e-05,-0.04073571054984881,-0.16290476217774827,-0.23212394489598873,-0.10762865131694693
0.164,-0.004481558309909007,0.002924872617356144,0.008083228119998799,0.0008758656484158744,-0.008018702224901208,0.004349219258123837,0.03519442256313111,-0.0057843964055756215,-0.03594817001625816,-0.17092229789311872,-0.21807213414256885,-0.11242352487920045
0.166,0.0003854141355929197,-0.0013412781252187592,-0.0014975111014216193,0.001259489818390773,-0.000739046751265378,-0.0022212427710862157,0.03528953129900574,-0.011470361611136161,-0.03493490668919552,-0.18223231358454556,-0.2098340548889118,-0.10887871541786513
0.168,0.013122141691681138,0.006524527970031751,-0.006768675469451429,-0.008400511716809594,0.008723008500626099,-0.0006554620978732891,0.040541288792241344,-0.01145448641149973,-0.034003507557683735,-0.18355602208695032,-0.2038138829682928,-0.09694558544431134
0.17,0.02569272219924821,0.01960686955140914,-0.006294295534778067,-0.021123278719036964,0.0154339063216317,0.005834683478368879,0.04794586604113478,-0.007056922067374752,-0.03315060623125846,-0.17342612810039845,-0.19560001340229355,-0.08617473997529165
0.172,0.02627182975389949,0.02187621559227738,-0.0044345904107384254,-0.023020180425706915,0.014748479513605335,0.007015982494917701,0.053754936453934955,-0.0033174942929953,-0.0366711071818056,-0.16342348092325015,-0.18675297406097338,-0.08413761760573897
0.174,0.012401906480330821,0.008213497966780553,-0.00421746330525992,-0.009743497532570013,0.006703211435482111,-0.0003718822458174036,0.05599350206123639,-0.003232048553996767,-0.045057328705179034,-0.16159233546698795,-0.18218468461976117,-0.08957610955940161
0.176,-0.006099386338510201,-0.01142244029079468,-0.005592057595370399,0.009553707163826922,-0.002663271860572529,-0.010710821392103272,0.0540522438995247,-0.006472654053262479,-0.052177704294217676,-0.16395015235214427,-0.183153579911708,-0.09634752213902198
0.178,-0.015494130350037124,-0.02280236359667499,-0.0077582047167714645,0.02094982498258841,-0.00572956437830272,-0.017022349530512623,0.048478003267681334,-0.01087709856842298,-0.0525808615448472,-0.16217372242529018,-0.18479950833127395,-0.09898644103726474
0.18,-0.011773724018288058,-0.020473897152803195,-0.0090005110252024,0.018890389636109603,-0.0018179886938667923,-0.016524046834964962,0.04199733872233591,-0.014478455989939363,-0.04778606113175279,-0.153481147561637,-0.1808520152360485,-0.09533376488701435
0.182,-0.0019258331974851255,-0.009826499524741263,-0.007881472525455796,0.008847332738528304,0.0032773957357017866,-0.010962263140571483,0.03857103860898475,-0.016580639509594763,-0.043320742133104384,-0.1422508128002842,-0.1703280837953751,-0.08751147530089154
0.184,0.006264590328231222,-4.352518274099718e-05,-0.006140992729053712,-0.000562601510201904,0.005900106856632346,-0.00503610628079315,0.03915478445034336,-0.017911355268601367,-0.04271996195226031,-0.1357196254811251,-0.1600233197632566,-0.08173658984724902
0.186,0.0072372253301028755,0.0011704099129553798,-0.005989883876114992,-0.002228275558619265,0.005488214075781207,-0.0037258721335501144,0.040612114879968964,-0.020000434147778915,-0.04575640837830713,-0.13787636088445704,-0.15820190866469858,-0.08346193843042574
0.188,-0.0018704536656774982,-0.007163675016109666,-0.00534443706551023,0.006049672132352401,0.0007365693403782864,-0.0071709837972435565,0.041471623968209775,-0.02243107996306126,-0.0494620864124692,-0.14505348075895777,-0.16371146622664606,-0.08951578963764287
0.19,-0.015801234445155,-0.01667776431249287,-0.0009209216465977958,0.017673821105257805,-0.007880003965500116,-0.009835462637092856,0.04439456816216315,-0.022344729739591274,-0.05113449026104663,-0.14996845118773772,-0.16718047233363148,-0.09064265172569862
0.192,-0.024592189737576764,-0.01929031291051156,0.005429072164678827,0.02363701543820522,-0.01575607867505914,-0.00831814794851998,0.050407491374283554,-0.018908032531795602,-0.051657658374136176,-0.1502200132363282,-0.1645690763139252,-0.08444513567724345
0.194,-0.02519690459144548,-0.017599086540506535,0.007959316795411104,0.023334812564573138,-0.018421603749460662,-0.006625524287839436,0.05607567695695371,-0.014791941146964733,-0.05437433540716672,-0.14868954575664428,-0.16105216974767403,-0.07866508743158873
0.196,-0.022490052568884575,-0.019217645061039717,0.003713537256967511,0.022778393508258034,-0.015415513955121318,-0.01013863145916736,0.05784245193903285,-0.012618306647558586,-0.06141738712751489,-0.14852267328980068,-0.16105666961595133,-0.0802132169116664
0.198,-0.01953897884016478,-0.02404084839043181,-0.0042560598372368705,0.023519714696256862,-0.00925390735926437,-0.017037685402687342,0.05497424785274736,-0.013391665270991383,-0.0712543123554658,-0.15110389153720982,-0.16205655847393619,-0.08721965459468559
0.2,-0.014161024304097129,-0.0244057990965745,-0.010285198687638167,0.020523267186139386,-0.0027415232520232556,-0.020068684078483334,0.04869106189253078,-0.01725521456660437,-0.07882803311885724,-0.1548913002950517,-0.15959461981903106,-0.09336582273517607
0.202,-0.006004857271531676,-0.01748851046360653,-0.011631185051781836,0.012215079214765001,0.0020056857500063345,-0.016438869406771365,0.04135468344748112,-0.0235080231354174,-0.08064978779222863,-0.1562179059132232,-0.15502257288322846,-0.09587564279955225
0.204,-0.0006180764049368488,-0.01020471701844477,-0.009664576052556646,0.005514655160227696,0.0032351199704570813,-0.011179201796958456,0.035274398258985866,-0.03067884445758253,-0.07932405211032434,-0.15439646835335982,-0.15457775487226774,-0.09636874705371459
0.206,-0.003447544956506398,-0.010067402600884356,-0.006700648218298194,0.007534218314369523,4.2988260336316675e-05,-0.009755905747958846,0.03148690692693374,-0.036657434995464803,-0.07903321734170789,-0.15239655998624713,-0.15930677164091006,-0.09580421954702947
0.208,-0.013304674438697877,-0.016692237469583156,-0.0036604043995109065,0.01704224517269445,-0.006520649544412727,-0.011813987436760607,0.030740090168987974,-0.03885446657212276,-0.07913285379282456,-0.15131117645671274,-0.16125066626712656,-0.09282947781137553
0.21,-0.02350223754241189,-0.02403301261920704,-0.0009544968990168011,0.02656255456356927,-0.013127681375146286,-0.013940634618671845,0.03296587469839229,-0.036438350777338396,-0.0774587687795434,-0.1500644174593556,-0.15448141861079875,-0.0883007514938931
0.212,-0.028534715194118408,-0.027599405386525593,0.0006496021904868177,0.030550604948405415,-0.01644906908755422,-0.014705841151361403,0.03556472623675356,-0.031987439557974284,-0.0758774450814647,-0.14935963651677667,-0.14414538678364383,-0.08730254449073166
0.214,-0.027982893317031184,-0.02599669288557148,0.0019980762094894216,0.028560360918442537,-0.016661348980375298,-0.013405329778735504,0.03744794598074486,-0.027806421981452865,-0.07622492277463905,-0.14911331963018076,-0.13866738803020565,-0.0916228470486142
0.216,-0.023944348480534748,-0.018742372833379626,0.005357625726714781,0.022266109090094785,-0.016372552849344472,-0.008335498324278271,0.04162207682965337,-0.023378625100929865,-0.07623944768851325,-0.14590440024555343,-0.13937260708705732,-0.0941100982203514
0.218,-0.019712925644316426,-0.010413096492284571,0.009353334645946168,0.015981195904062797,-0.01650397261019708,-0.002275626811923916,0.047391678404162446,-0.020454499377574393,-0.07538193562382384,-0.13961139482723597,-0.14314856292094433,-0.08837895673682321
0.22,-0.01945501195054688,-0.010751033808901533,0.008526996670525502,0.016239201889314634,-0.015692701085103282,-0.002960084111664238,0.047083985396002795,-0.024467229922524918,-0.07755649507570303,-0.13641712039973453,-0.14757391503787187,-0.07905505446534287
0.222,-0.022866642040184265,-0.020691821279381444,0.0018064717754216165,0.022773917147893556,-0.013044054162649185,-0.011152905933568583,0.03686847315853686,-0.03569891020069307,-0.08355495141725694,-0.13973552954765014,-0.14904405509096835,-0.07429517566352754
0.224,-0.025287263089536126,-0.027508529197871247,-0.0025180511756977826,0.027078898981620064,-0.01117796359936392,-0.016218113760526,0.02417182196308676,-0.04557397731641235,-0.08712838044529723,-0.1444773737586452,-0.14331129637243473,-0.07437826047110185
0.226,-0.02684721723544303,-0.022294019603221204,0.004634670049046329,0.02555268243274806,-0.015426772066034539,-0.009833169831106275,0.020128739222045097,-0.04660854790844339,-0.08223308148937586,-0.14403090684013367,-0.1307276445005132,-0.07429342314923659
0.228,-0.03219667068254734,-0.012493660322550674,0.020038032164367607,0.02427822351172505,-0.02622510452956032,0.002209251347996528,0.027514123888367933,-0.04143274337335232,-0.07182726244342452,-0.13854294002449927,-0.11659255618302834,-0.07249394959506338
0.23,-0.038344457916392474,-0.009579333438321602,0.028852418373783995,0.02643579484247648,-0.03391512636172762,0.007461227999683554,0.03804866515240706,-0.03771791811653959,-0.0657633521529867,-0.13370303845409873,-0.10559226853643547,-0.07158880284351023
0.232,-0.035395978168699244,-0.013042893192963695,0.02208539887844367,0.026197402195859164,-0.02886832174959646,0.0025299050588825558,0.042265074667929975,-0.03721015449618337,-0.06827155509287433,-0.13284848728027618,-0.0972024746738862,-0.07224403048270003
0.234,-0.022281304998898962,-0.01418918736659132,0.007970085008220844,0.019506342804162812,-0.015236672960744043,-0.00432573109086167,0.04008826765596585,-0.03503309424911931,-0.07189598165671021,-0.1328376724182491,-0.08683342400359283,-0.07102392328708444
0.236,-0.008521759450967472,-0.009173783447823129,-0.0003167213839288356,0.010242333410059675,-0.0049184180115457235,-0.00529662993006453,0.0378087059739324,-0.029243292106152438,-0.0681414128735423,-0.12973963321563486,-0.07330032295153245,-0.06593951279798632
0.238,-0.0038892611868428986,-0.0049087477217700445,-0.000547977975841558,0.006406466665540383,-0.0034787940202245533,-0.0030054046863716797,0.03701696200721837,-0.025926759393471468,-0.06002487996627263,-0.12664617927027602,-0.0652531270980707,-0.06286827087872782
0.24,-0.015404310912176394,-0.013206686998414707,0.0024728484626633704,0.016354382326858947,-0.010868385365791095,-0.005814744272152299,0.03375536700011353,-0.031858696559424526,-0.05783401914598378,-0.129722993831172,-0.0749846796734849,-0.07172052994229153
0.242,-0.039151888219714166,-0.03250545386342646,0.006927632959010203,0.037299581766036524,-0.023868650956122114,-0.01388336515876595,0.028088670171711093,-0.043649768726294676,-0.06407993234961128,-0.13609761758947977,-0.10230303980743889,-0.09093676653296924
0.244,-0.053430219345804573,-0.041814201139829275,0.012229317459963788,0.048687433463294245,-0.032420177354914884,-0.01653629573352202,0.02593351805626566,-0.049486916437240625,-0.0702385674718827,-0.1357889807811027,-0.13026426457378573,-0.1030504062175945
0.246,-0.042796927935479546,-0.02809309702803264,0.01553077427646058,0.03652389319299233,-0.028671385336237806,-0.007926699582917517,0.029447077249843887,-0.04437641962367278,-0.07021582996750662,-0.1287562378563767,-0.14317264543600217,-0.09622515791068906
0.248,-0.023054346575828825,-0.008044632866834404,0.015661653493336855,0.016640384393522317,-0.020044948626952677,0.0027961449914557443,0.03339155358133967,-0.03751520107007987,-0.0689550788649838,-0.12721899655277397,-0.14317764124229368,-0.08134449132225088
0.25,-0.019946849907644528,-0.005632595550080552,0.014601437729442798,0.013622583745619832,-0.019331835096918187,0.0034791867941187014,0.033726704109069375,-0.03926587342691248,-0.07301544188429793,-0.13647694856847659,-0.14287547000543602,-0.0764334315037296
0.252,-0.0343252368410122,-0.02148819152026942,0.01284930690313555,0.02847361353492824,-0.026115790577463088,-0.0061385286086866565,0.03273612838861468,-0.04748576353088135,-0.08003430854671591,-0.14643767356405749,-0.14848926457860567,-0.08330611462005263
0.254,-0.04817395299153908,-0.0393777512335625,0.008717412604922425,0.04442926091138933,-0.030323794280366096,-0.017402627938493707,0.03278415782426359,-0.05361827971504573,-0.08367777023582519,-0.14722330745176274,-0.1559393264765418,-0.08989679678824365
0.256,-0.05101695106917731,-0.048300637682521776,0.0026745368476939705,0.05056654482962334,-0.027539359893706403,-0.023718019335843905,0.031749624151356896,-0.05501197507608407,-0.08257988051418541,-0.14150497767472478,-0.15740237050727807,-0.08806132277877711
0.258,-0.04238988299435476,-0.044193604282921226,-0.0017879999346668274,0.044291919478536904,-0.020229412079513707,-0.0224228221443342,0.028443087432247605,-0.05320728896892497,-0.07835321032835259,-0.13551598251964345,-0.14786758246738338,-0.07957713927685753
0.26,-0.024723782436900103,-0.025916649726260305,-0.001165261645149787,0.02649809824090908,-0.011972722722876637,-0.012896307922145817,0.026456638659643702,-0.04814649771130053,-0.07119195171379979,-0.12877990410661982,-0.12953572530449323,-0.07001495947536132
0.262,-0.010393165019502352,-0.004878719904873585,0.005519091396135125,0.00925881418323465,-0.00905004251460285,-0.000560236745299224,0.02774200616766518,-0.04254119904772641,-0.06322355576108564,-0.12083224514300527,-0.1127700755853365,-0.0648582819145874
0.264,-0.016785070890335357,-0.0019846925898605885,0.014787903306842674,0.01128156368622069,-0.0175577018756297,0.003941484315047294,0.028135583041956506,-0.043796252297925775,-0.060766464992324944,-0.1186596612977014,-0.10979188247339411,-0.06729643154171669
0.266,-0.041428528857803584,-0.021036746785200424,0.020361473172739508,0.03308185657906783,-0.03287210453941981,-0.002825506413351813,0.024534467514047073,-0.05371100242528268,-0.06763556969975704,-0.12807160460382627,-0.12376026604128965,-0.07361608973243872
0.268,-0.06141013245894334,-0.0413116144363493,0.01997000800892128,0.05332413203468062,-0.04267384967136173,-0.01180095620181442,0.02053715403952345,-0.06293828935633641,-0.07898609382492684,-0.1435441083820252,-0.1447624503879481,-0.0751053919321177
0.27,-0.06280604275223275,-0.045044228565825226,0.017440284763843853,0.05626985294287595,-0.04190206607372291,-0.013908511904386096,0.020223882086090696,-0.06221901843118339,-0.08682480182235851,-0.15408959278374987,-0.15872243016927182,-0.06908351893622745
0.272,-0.05293280438671472,-0.03697152797871676,0.015539947596245206,0.04735337621644971,-0.03532766230736833,-0.011185699623325805,0.021948607599522975,-0.054572639581030626,-0.09014958349525912,-0.15627234438977283,-0.1595381571415208,-0.06370248644214521
0.274,-0.04544958964210354,-0.03323714267803548,0.011954302216531614,0.041206931661752544,-0.028929573423394785,-0.011967326960546068,0.02202363512910451,-0.050676660484941176,-0.09432234680856628,-0.15600042549500526,-0.1520463853635699,-0.0678948981485654
0.276,-0.04784460813316736,-0.04232887829801915,0.005539463741929271,0.04649970592508386,-0.02671558332065671,-0.019801397469435666,0.0203496657621368,-0.054869423378628504,-0.10145004180467461,-0.15848052968764653,-0.14524340957603843,-0.07947439694971498
0.278,-0.057060184598083055,-0.05569918663566684,0.001507289491262917,0.05812719446895293,-0.029978703139349725,-0.027987510605380277,0.019634389653905158,-0.06101169801172696,-0.10659598545838718,-0.16094660708700026,-0.14286143177255797,-0.08692221797230017
0.28,-0.05851987906833659,-0.05359224114646017,0.004992148470194415,0.058581715275017834,-0.03338083340573629,-0.024884165826768726,0.021183362069299168,-0.061549492413983324,-0.10419111521139539,-0.15730974524726135,-0.14036241452540454,-0.08272081311340061
0.282,-0.04067246326312561,-0.02862013914167988,0.012006542555071466,0.03749919563088201,-0.028620028378377134,-0.008843305409174777,0.023209304334046423,-0.05672629626121432,-0.09549560507056863,-0.14827885334934152,-0.1340235212530254,-0.07176482942344624
0.284,-0.013664257030725208,-0.0005039432647919834,0.013103355201550477,0.009455527270330819,-0.015907609378708245,0.005698101804261847,0.023059138433544613,-0.05322553221038136,-0.08733126284612976,-0.14227989036885144,-0.13007258260671523,-0.06452664926154543
0.286,0.0006954951283017221,0.005956096296440091,0.005236052256603153,-0.0017742901543117183,-0.004556881848628272,0.004560626621819918,0.020259010515142013,-0.05514239521294365,-0.08416192731154797,-0.144389944227801,-0.13642405888437298,-0.06429540720961575
0.288,-0.00494226301256988,-0.010315841501651766,-0.005475207687075453,0.008841363242565195,-0.0013779342864679608,-0.009568308910647968,0.01649353294814885,-0.059551615580098076,-0.08549493684276875,-0.14993416779092686,-0.14871976979381066,-0.0658986988153981
0.29,-0.021532059576185147,-0.03306399664237339,-0.011865694211306276,0.028969398021900516,-0.005833143118605315,-0.02421651866627737,0.013072410884298747,-0.062096660077503404,-0.0905321826118961,-0.15240421554826897,-0.15555486976412564,-0.0666262162055721
0.292,-0.03940453596712447,-0.051410806756414705,-0.012568921473382465,0.047777630539347984,-0.014154271933331086,-0.033128078259719314,0.010351599376662485,-0.063053276359707,-0.09915770871236607,-0.15180644181279945,-0.1550898604929852,-0.07109059060454505
0.294,-0.051042562441646615,-0.0619215751612159,-0.011496589107155732,0.05911380281553462,-0.020647437351067947,-0.03733184890574059,0.009835197565769052,-0.06428475633953755,-0.10749758351415963,-0.15144172830173702,-0.15537593139929695,-0.08172900932296696
0.296,-0.04818082908543557,-0.05976064381532382,-0.012109353547033928,0.05641882396200096,-0.019243153943521562,-0.036655695180495634,0.013476604918035366,-0.06365522854729581,-0.10852891193303657,-0.1509292959774807,-0.15868475919744723,-0.09048698861093954
0.298,-0.03221895046935782,-0.04434987078775956,-0.012561782995724021,0.040412942332067596,-0.011323941777622953,-0.029481530160911314,0.019157822412909645,-0.05843972540089531,-0.09980104395696815,-0.1468261338066349,-0.15669693039543184,-0.08635942525746232
0.3,-0.02054864449685532,-0.02847924289898651,-0.008260600631698641,0.026249889128370313,-0.007729031460087167,-0.01937199537201753,0.020615705442000455,-0.05209603741308033,-0.08758053800862917,-0.13959360218203642,-0.14504165365541233,-0.07001390832212875
0.302,-0.027661500951919167,-0.02664499559421561,0.0008809066246046432,0.02844713813367184,-0.015818352895435955,-0.01379463728215905,0.014662242349339287,-0.05103788406190798,-0.08108445878516984,-0.13577234540375213,-0.13335590842022443,-0.05504539130212425
0.304,-0.0440690025869245,-0.03544376526391325,0.008786202270451836,0.040754318493461686,-0.02796980762201226,-0.014749069543473112,0.006176964391250697,-0.055558240077558094,-0.08277500754955866,-0.13907584618744762,-0.13326620076594578,-0.052340073264527484
0.306,-0.04766803855160002,-0.03829745009130313,0.009817013205996608,0.043924549783762416,-0.030334078941503768,-0.01668863174768258,0.00358671366296122,-0.05905480398694454,-0.08582063827043247,-0.14239183545536616,-0.14219992321433492,-0.0581866644616281
0.308,-0.033616547804336136,-0.029012705092639667,0.005195496813113884,0.03236956316887152,-0.021062572742383663,-0.015022644211068036,0.010190566692392732,-0.0561415682514825,-0.08329284993385715,-0.13645795473377198,-0.14751920392894247,-0.061911196728147974
0.31,-0.01894089275604347,-0.018425493807329243,0.0010662610926573564,0.02005403301116703,-0.011734270957018832,-0.0114895612972222,0.021446628165996143,-0.048236021674918826,-0.07775743149946436,-0.12415287325036681,-0.14209993314263034,-0.05964187774173874
0.312,-0.01739448751746233,-0.016963847815210462,0.0007916302809404881,0.01907546088415594,-0.010808820619780113,-0.009991793752683054,0.02993092231755314,-0.04096073613824887,-0.07688721096819383,-0.11716412143607666,-0.12856941248108758,-0.05509469011543466
0.314,-0.022324528029775633,-0.019834694056604558,0.0026214842787758473,0.02325455956587292,-0.013847175513952875,-0.009791794646746286,0.03171828520431451,-0.03761434253167521,-0.08133095330306934,-0.12018571096528423,-0.11293181332579352,-0.0511694444362981
0.316,-0.018477613176164785,-0.013491497061192561,0.0050480087448191244,0.01762531711847866,-0.01245297554424906,-0.005068627950827637,0.028802562965957686,-0.036078204221203954,-0.08341722916633075,-0.12602148250047016,-0.09944977313940144,-0.04622690396324322
0.318,-0.0040701191395696255,0.0050292944322823585,0.009336485816378833,9.383585881866046e-05,-0.006940151906321746,0.006484185424227216,0.02582935231492021,-0.033138121954521725,-0.07843415632111715,-0.12580640428639014,-0.08915011225353817,-0.03825390818625558
0.32,0.007101028983945307,0.02296925493675767,0.01627788083203887,-0.015050067873536303,-0.0051346448908020535,0.018703284765661646,0.02539404620564132,-0.02927714792115603,-0.07052323535466834,-0.11809699165585938,-0.08095056167004627,-0.02890907291181018
0.322,0.00588791988969591,0.03041999685385875,0.024827889604340188,-0.017830919241743133,-0.01066766662101588,0.026138552598592307,0.027398838459250775,-0.026277415838639986,-0.06481188168354496,-0.10706534063149657,-0.07412290428097651,-0.021334092276856478
0.324,-0.0013225360491864954,0.03228140533345151,0.0336046075723389,-0.0145344598397289,-0.0188989247770882,0.03131985996942492,0.03063914041248731,-0.02401653756605853,-0.060283654450896784,-0.0968624990486772,-0.06912570973252817,-0.016665799258370563
0.326,-0.005036501560501109,0.03577449516416268,0.04065619231278727,-0.014298899383988772,-0.024175309359752015,0.03717179803837621,0.03411521857006706,-0.021333978039370594,-0.053639366969844754,-0.08917870060432294,-0.06648213992310885,-0.014776294841251668
0.328,-0.0030029130068580196,0.04055889494068086,0.04348004709512657,-0.018072141367562206,-0.02462187450764063,0.04148914157527676,0.038223793635665734,-0.016641258421927742,-0.044963245525346224,-0.08322165014210124,-0.06602386657533693,-0.01605352301558533
0.33,0.0029446999316824958,0.044816473543466614,0.041913956623810186,-0.0233716392469378,-0.0211518978554223,0.042783227629873605,0.043421387693633406,-0.009746114950700543,-0.0375346716626148,-0.07775420478498439,-0.06765057768470277,-0.020169547397377734
0.332,0.008152153252458076,0.04647839149659225,0.03836893349467148,-0.026432237130728214,-0.017145507026616304,0.04153483053883231,0.04708273085555642,-0.0052552588836360286,-0.03532964745873327,-0.07401554641586335,-0.07297444379105344,-0.02454981212857885
0.334,0.005010345647677774,0.03963682659079343,0.03450339896457712,-0.02090716533368173,-0.017001793650184123,0.0358202126828006,0.04489156322674907,-0.008900841034920937,-0.040140175772626095,-0.07475210378802674,-0.08406825095680286,-0.026605319636623298
0.336,-0.009573380127810423,0.023214997259516656,0.03242976955158106,-0.0053102179977848295,-0.022853531580896716,0.026225656707488595,0.03702777076921037,-0.018423539627629916,-0.04822827181504933,-0.07889839822867255,-0.0975946504802301,-0.026866975565583533
0.338,-0.0285050108649003,0.008741750532581912,0.03682670821234772,0.011062069523924693,-0.033416221765998476,0.02121103128184141,0.029663566646235314,-0.0236736019969369,-0.05226667166212377,-0.07995864489222947,-0.10473222658296973,-0.02812738380295108
0.34,-0.040276823596746364,0.008044243325491494,0.04820458334951533,0.017009080723926664,-0.04396085815886565,0.026959759897715242,0.02768580218333734,-0.018528908832985993,-0.04951166349293447,-0.07363299003005286,-0.10206371573526078,-0.03133294280666496
0.342,-0.041276755199374,0.01634703775567509,0.05801309614605133,0.013398982343630747,-0.049148143473003565,0.03622094371708166,0.028290408848304735,-0.009573754928089373,-0.04553928535288909,-0.06576133724891334,-0.09631679311205216,-0.033844133441569176
0.344,-0.03972979022522911,0.01816069273970212,0.058592792570377125,0.011907508842155825,-0.049152493795243606,0.03712324316450611,0.025284189290086655,-0.008789495208954272,-0.046998071532178914,-0.06600925269017843,-0.09292060035068694,-0.03304152500641601
0.346,-0.04115598936204914,0.011590434346253668,0.05338605009541003,0.015923328326373148,-0.04794844211207183,0.030786154706661593,0.01939556633267718,-0.01723551974510687,-0.05164959575336292,-0.07258895585445584,-0.0868072160818911,-0.028712535356910814
0.348,-0.03666715274192483,0.013032669882462995,0.05004608206305206,0.012769634456338975,-0.04465914818138221,0.029727188853569734,0.0183394802207024,-0.022834318623695313,-0.05088675894561776,-0.07367432160430198,-0.07268192453998527,-0.021359139387480505
0.35,-0.017795397135238412,0.030823996924562995,0.048674124068021,-0.005765129524044683,-0.03489442581322179,0.03840751178634286,0.02419592211132843,-0.017447456492579023,-0.04328845507688267,-0.06638354747099608,-0.0591654291221865,-0.012730182889159024
0.352,0.0076727516259309505,0.05231112529007244,0.04455047295835764,-0.029262531292556657,-0.019841667537240013,0.04776326263406587,0.02919241340258645,-0.006865203639765791,-0.036489310748824715,-0.060239576462687086,-0.059550553441518675,-0.005336304092867647
0.354,0.026347518586808647,0.06512181129671996,0.03870496989640101,-0.04469092080371679,-0.006800342760231476,0.051313050275721,0.027067292845057208,-0.0003985247671765749,-0.034200206069182004,-0.06001124446784042,-0.0707122892661757,0.0020138281683166693
0.356,0.03385264110227532,0.07157640486573448,0.03773091849761601,-0.051124964980401116,-0.002117392161462223,0.053399860108929165,0.019898218583461916,-0.00029768578670037326,-0.032696026553534915,-0.0602295502669956,-0.07706586253272563,0.01210216755562309
0.358,0.03285021344224302,0.07544276321039266,0.042652904190003844,-0.05234531637744452,-0.0056774871419152185,0.05726963265814659,0.012024815064991687,-0.004473396846580678,-0.030555352954413185,-0.057909266292421824,-0.07458483910808804,0.022020623136035596
0.36,0.026934279653893924,0.07153740816662478,0.04474893222676025,-0.04798738369556056,-0.010709355293957284,0.05651776353339364,0.0042117897185802505,-0.012020295852873852,-0.03200042241617031,-0.05802928868408715,-0.07445807989464988,0.02507132031467766
0.362,0.018474911138097162,0.05602118213376945,0.03786003556653647,-0.036739101238793,-0.01164933438664506,0.04572409333774223,-0.00408843671201841,-0.02220343211363363,-0.039493637320816365,-0.06384832142567963,-0.0819167567037797,0.019717208347004505
0.364,0.007430189690447907,0.03637344625562299,0.029329624613374634,-0.021273437959955593,-0.01205714225075528,0.03172699551148974,-0.010985915201767189,-0.0314853889753298,-0.04873310661169997,-0.07018725261704277,-0.08697271183573757,0.011499745195611949
0.366,-0.005114499771079716,0.023983813655428503,0.029223155777658806,-0.007760546403976393,-0.017558724442050887,0.025248429958460817,-0.014336487926484976,-0.03623631184276587,-0.05392987665352549,-0.07116082085150374,-0.08158859279284776,0.005866773924590616
0.368,-0.011271876378929385,0.022694244409015456,0.033621106957471246,-0.003048706563167398,-0.02297482380488011,0.026610034651508983,-0.01532235603584332,-0.03818000632265481,-0.05594408109159217,-0.07023994703245558,-0.07464445338142385,0.0024029919036105633
0.37,-0.003908396034183682,0.027249964044598538,0.03059347421326722,-0.008788093947329753,-0.018456154786475398,0.027521275075810554,-0.016287082215376465,-0.042176175387580166,-0.06035984616702227,-0.07556325859670378,-0.0805528064188143,-0.0021284500329553967
0.372,0.009578284219693162,0.02879113514819889,0.018891365608942386,-0.016610291492147402,-0.006410293991035454,0.022843260665117913,-0.017008517624918142,-0.047881718761959555,-0.06688593741434744,-0.08561079940575089,-0.09792855604988372,-0.006847009247270656
0.374,0.01522354991945856,0.02367869781117801,0.008523729944178372,-0.017116977941247224,0.0015472978827164518,0.015363527867853888,-0.015878709178809087,-0.04961014948323797,-0.06734598116006275,-0.08828870740270688,-0.10990078289644506,-0.007010427884195779
0.376,0.01321210988137227,0.01833392053095987,0.005323976407284891,-0.013443265791304976,0.002334603846018035,0.011141197223226797,-0.013266804594382222,-0.04571219061290811,-0.05813587508242243,-0.07771795356644982,-0.10557602000289652,-0.0021405669371412943
0.378,0.015145301941727703,0.02013925055980382,0.005061059908689503,-0.015434716100182747,0.003400672895191711,0.01195476618148824,-0.011844447533597903,-0.04186054157928748,-0.047901731374201305,-0.06358632122018378,-0.09188212593264283,0.000932096036892372
0.38,0.021770262798271607,0.023623727071709733,0.0017785838034688464,-0.020935876386010552,0.008213132583056991,0.011876001597288247,-0.014235894183098534,-0.043892616787581204,-0.04740796015738497,-0.05938556151992505,-0.08264088307998375,-0.004124162200768305
0.382,0.017812818136259977,0.01438560079848715,-0.003499492072112301,-0.014692297470770308,0.008970926238072812,0.0040104652986614675,-0.02019548819154488,-0.051851354723593084,-0.05686226982885794,-0.06737268615281006,-0.0830776926618799,-0.015188425088359986
0.384,-0.006883853426572282,-0.010171660377252655,-0.0032818709349091,0.010025849949205135,-0.0033308662246552692,-0.008777490651538239,-0.025441370478295547,-0.06095726144881678,-0.0676828141899853,-0.07836985117637335,-0.08783255113666154,-0.024010738169926014
0.386,-0.03974165812122505,-0.03394007765676368,0.005843700259398786,0.03850509750472293,-0.024335193737326035,-0.016409424455761042,-0.02553007629566892,-0.06663923762895997,-0.0742369397357809,-0.08386706595574536,-0.09128982315262582,-0.02625316067297105
0.388,-0.057199152450594135,-0.04185653344218072,0.015359496012293163,0.05095898016208925,-0.037757063290671335,-0.015791238839014628,-0.02141052586291639,-0.06924723210327244,-0.08019990529242817,-0.08591683908854868,-0.09549558386568324,-0.02670844631264464
0.39,-0.05281128314220787,-0.03828838768887049,0.014507990795631793,0.04643968747049864,-0.03487103964675525,-0.014340062287362246,-0.017998079883651732,-0.07264765328754773,-0.09192162686922967,-0.09335617646013217,-0.1059651500276594,-0.032167187157206636
0.392,-0.045210597308224146,-0.039544124218053874,0.005650150817140048,0.04290123196930071,-0.026441545896223433,-0.018528525210839066,-0.01783668347214783,-0.07780259186837517,-0.10776631999273809,-0.10900587289527756,-0.122957979742748,-0.041720037913862515
0.394,-0.05359232000917376,-0.05317661431191394,0.00041604304398580605,0.05407705835722765,-0.027994401982963567,-0.026635892229414093,-0.01978756891429148,-0.08169440658200151,-0.11881624259291006,-0.12505500768025066,-0.13992670195077583,-0.048782617448169266
0.396,-0.07270065977681446,-0.06966999993383097,0.0030397274659187947,0.07243862518474307,-0.038785629736322914,-0.03301345475798562,-0.022016747220068803,-0.08258411863854156,-0.1197491601917088,-0.13184681222471573,-0.14884822566359338,-0.05018959574434469
0.398,-0.08100418636212024,-0.0731775432133415,0.007830789917732676,0.0789227202563653,-0.04509951999187752,-0.03313079042568238,-0.022035437297151225,-0.08087495644122739,-0.11323554809426412,-0.12615546918328105,-0.14546569399667322,-0.0466682380171383
0.4,-0.07039864174024298,-0.060459071072706524,0.009936602988990736,0.06765875883579314,-0.04067075819969882,-0.026833851974971443,-0.017544665104720875,-0.07644116566433327,-0.1048191458842219,-0.11211576211625617,-0.13263488998275633,-0.038729880887863506
0.402,-0.05811792651601518,-0.04861456582213755,0.009499680225838542,0.05561867783734,-0.034279300291382125,-0.02135710946426836,-0.01152826276111774,-0.07096363331685789,-0.09943763046263715,-0.09968502946828943,-0.12040917100448115,-0.030034851669639925
0.404,-0.063886493551165,-0.056025674051323374,0.007860681052860393,0.06178678098292564,-0.03640404210328185,-0.025140740045854912,-0.01085185705029666,-0.06960770471483896,-0.09983557264418418,-0.09822645493085012,-0.11800469761920901,-0.027651130295730696
0.406,-0.08190237843817079,-0.07689710225414956,0.005007218570507892,0.0808887403944574,-0.04418568017937678,-0.03634785745220208,-0.016548339950270285,-0.07494511011734092,-0.10407023484383894,-0.10738296814849657,-0.12437713242598429,-0.03255831164729795
0.408,-0.08990572582674242,-0.08942574379668392,0.0004809853717511174,0.09147397566655655,-0.04612282959893252,-0.04523107423548285,-0.02165307969199453,-0.08207596809835688,-0.10793270594591718,-0.11855634192861059,-0.131527251387828,-0.03805392580448184
0.41,-0.081724802558563,-0.08633730561469272,-0.0046130838114396945,0.08654504778276464,-0.03952157402637625,-0.0471538726828245,-0.02061469844573721,-0.08382974722289994,-0.1099172240497944,-0.1250386020882345,-0.13528496106076845,-0.03985290966696341
0.412,-0.07097581169205194,-0.07929671655181929,-0.008343669427898444,0.077960849724528,-0.032512623572507345,-0.04567126818804408,-0.015621928234758026,-0.07879001847678196,-0.11062967582161655,-0.1256401334604681,-0.13637117626516299,-0.03965293969056235
0.414,-0.06643440458255262,-0.07676429059425117,-0.010483218506097151,0.07401275846016935,-0.02985821781732952,-0.04467648250331129,-0.012167455845588766,-0.07163003018066098,-0.1100959885502877,-0.12155722562099794,-0.13383447081829258,-0.039145183262397805
0.416,-0.06427985940423683,-0.07581276687618604,-0.0119912289353893,0.07166732444636006,-0.02864784318416287,-0.04436356463971517,-0.0126994578518256,-0.06811168066992301,-0.10904197775692058,-0.116449087880276,-0.1268154705064183,-0.03917648298882597
0.418,-0.06298741105913438,-0.07466687685252557,-0.012429250545632375,0.06978385269352173,-0.027758813521504704,-0.044337506737678584,-0.016060345472663492,-0.07153050720629843,-0.1099377013056558,-0.11634608924203246,-0.12190383111520128,-0.04420347835689053
0.42,-0.0679869987716951,-0.07655949590104708,-0.009228814567849792,0.07287642731816013,-0.03125113344803326,-0.044308995478275326,-0.019049767631977726,-0.08019801630672742,-0.1128123069827203,-0.12184180693709068,-0.127689878161965,-0.05700244100659756
0.422,-0.07868156916663058,-0.07924321273129364,-0.0006603788258944132,0.07951945960321206,-0.04002349616577074,-0.041536813493364536,-0.018268358394309858,-0.08709239936012834,-0.11265544690734715,-0.12430849255048564,-0.14089047204598606,-0.06895285843732059
0.424,-0.08469755219365468,-0.0758395161363607,0.009356898052577849,0.08120355479808898,-0.04722126472097824,-0.034678063085063084,-0.01436154612924956,-0.08630822700362357,-0.10642894574346733,-0.11781020743680456,-0.14878406622101975,-0.06789299906691966
0.426,-0.08092306429249413,-0.06894301267586278,0.01258981688211143,0.07645503912324891,-0.046546735143406674,-0.029620724470748802,-0.012367560846352068,-0.07966627801992952,-0.0999099804490841,-0.10921745593438165,-0.14605781565147402,-0.05562621110127073
0.428,-0.0762232688227654,-0.07077359769952353,0.005569098729339546,0.07505824687734866,-0.04098600377884219,-0.034197947542719966,-0.014839739260138048,-0.0737592805211423,-0.10148394644818434,-0.10873646381423771,-0.13931812852165362,-0.04573827662246549
0.43,-0.08106732249139025,-0.08627981106744023,-0.005821405393253867,0.08439641432820721,-0.03844762875595942,-0.04765349884634058,-0.01826738600009171,-0.07277728612147771,-0.11143733439061469,-0.1162112753847216,-0.13513685822529303,-0.044833838010908886
0.432,-0.0937638514500298,-0.10550586911283469,-0.01282777449463501,0.09937329481350392,-0.04171626263862643,-0.060474921456140404,-0.018124422374982862,-0.07581908247083477,-0.12137200268978014,-0.12290117705829233,-0.1324854021753668,-0.04656204155542079
0.434,-0.1041993056672943,-0.1154138965567018,-0.012255935052727554,0.10945346100851268,-0.047062026893427845,-0.06458349262055761,-0.014352266852443679,-0.07865865298762466,-0.12286207266784051,-0.12247094864081177,-0.1284638271644559,-0.04404433376660476
0.436,-0.10446858107606485,-0.11128541097984208,-0.007356290274484234,0.10861982629190846,-0.04943421187913005,-0.05968151201410023,-0.010265936065763606,-0.07738035777908986,-0.11496162519721728,-0.11585364791107632,-0.1239924655842361,-0.038407876768177515
0.438,-0.09188657323677928,-0.09484683227907878,-0.0028500848309280205,0.09558410178666156,-0.045437202095927595,-0.049533046530944716,-0.007859190891568767,-0.07194059961240756,-0.1041754414059191,-0.10799043379869952,-0.12045425610672038,-0.033659212073682936
0.44,-0.06939635819968218,-0.07170077396723198,-0.001761540418710361,0.07349045367461349,-0.03482872718854475,-0.03814876139239723,-0.0067479600928929215,-0.06692795220058902,-0.09895995254774302,-0.1039962925069128,-0.1169447429635848,-0.03153908930824523
0.442,-0.04648742927829385,-0.05222122486785271,-0.005191677353205162,0.052062409765551244,-0.021804262225260978,-0.03030822593491336,-0.00639698742864599,-0.0670595855724308,-0.10275475872913423,-0.1063818712232828,-0.11353779919877793,-0.03241562056435154
0.444,-0.03457104112112072,-0.04520231099534436,-0.010403342342028173,0.04214956700810948,-0.013495394485803924,-0.028825766840809283,-0.006176446881663005,-0.07124022912069553,-0.11020943903179042,-0.11196035985857848,-0.1126833347761546,-0.03509478622814275
0.446,-0.03938759689571857,-0.05009478673700966,-0.010687491004732408,0.04692145150685014,-0.015790787474800155,-0.03090721162226612,-0.004337952845827832,-0.07344617635211889,-0.1126031287895546,-0.1139514072017905,-0.1156820670685541,-0.03608750415090347
0.448,-0.05771429723388432,-0.06012296750912141,-0.002241487606394445,0.061252883672799394,-0.028740380123548365,-0.03197528417419931,0.000896066570168442,-0.06970382802503039,-0.10806867493566093,-0.11000257997538421,-0.11949017944467555,-0.03322222877386642
0.45,-0.07982837781921776,-0.07002696833672122,0.010222202949443374,0.0773453049732579,-0.04558816711904415,-0.031390664816450545,0.009806475166781327,-0.06157283007282344,-0.10377894271375529,-0.10601782823809602,-0.11998013288726751,-0.030543494143717518
0.452,-0.09635147216794362,-0.07839447213307209,0.01841658356527351,0.08973772705272383,-0.05824028828418086,-0.03153273141476453,0.02076061682431609,-0.05265824977501932,-0.10739784893614004,-0.11058879512940084,-0.12016352203824845,-0.03693309916386183
0.454,-0.10430858752127335,-0.08432647906837015,0.02033146368278196,0.09656877463828303,-0.06413169528868781,-0.03264795796145791,0.031059411348333583,-0.04413738600770163,-0.11783641955044982,-0.12520928066963835,-0.12869620034969906,-0.05542278049167988
0.456,-0.10481279680209929,-0.08171801139311666,0.023355058553671464,0.09547045751325978,-0.06652846230108778,-0.029031022759178,0.04009050368432554,-0.033187905635861194,-0.12434878454056608,-0.1387148990138047,-0.1436357993507628,-0.07320749512710421
0.458,-0.09958631463571455,-0.06275914938420653,0.03698576685374228,0.08352455470767522,-0.07046052604968647,-0.012972769249658414,0.05167233268657324,-0.013458991542522662,-0.11391139167305024,-0.13382752707384887,-0.1467271998688819,-0.07019372172974757
0.46,-0.09488361075685996,-0.03416035926833954,0.06073662466934251,0.06713606183442722,-0.07942277836406508,0.01252155057423725,0.07051217173347414,0.02158026483771229,-0.07962995118074223,-0.10180186182959972,-0.12338970624748528,-0.042046933477376335
0.462,-0.09584531578842345,-0.016859892801068355,0.07893298456850356,0.05905439394984637,-0.08891864611406038,0.030324509652444424,0.09766245373517349,0.07509411783992635,-0.020948846032666543,-0.04567467960775251,-0.07790057908108142,-0.005681264851995925
0.464,-0.09164223652013244,-0.018326641988045213,0.07339687904857496,0.05732551407695961,-0.08421867850868076,0.02757760764821472,0.13244919836045993,0.148928792908903,0.06461961301645207,0.03342116873648118,-0.020398369894080233,0.02359783500226788
0.466,-0.06409648231641638,-0.018499922139269508,0.04593758283155231,0.042833162239655845,-0.05658690556172762,0.014169201318313944,0.1741099890036628,0.24364904350318076,0.1853027578146823,0.14558031680689867,0.05042881341959539,0.05251474955428429
0.468,-0.011936002285562148,0.010478219023686163,0.022870516742547392,0.0013994140589897166,-0.018751753348210918,0.01661165331618223,0.21398566423273188,0.3441890609166746,0.3446024037970045,0.30286350914887655,0.14607989704879645,0.1037521218544944
0.47,0.04925750153916638,0.08062613633054497,0.031633212308768185,-0.06480229993977032,0.007421642124736323,0.05505803220716489,0.22777080379832948,0.40746265669512516,0.5269986672686457,0.504184882009904,0.2771475826261966,0.19432658783509374
0.472,0.10757858855354638,0.1838166399614887,0.07619845273078309,-0.14568535269280664,0.014265889216107198,0.12818668242977724,0.18548084048212313,0.3866050037016986,0.7049159989115493,0.7357187800781392,0.4473087769930618,0.3238362671544821
0.474,0.166050756511355,0.30332372615087844,0.13711559231945997,-0.2343671384585689,0.013219112823313575,0.21812281944187506,0.076985395714356,0.28294430433451395,0.8702523297247888,0.9893461976209547,0.6553258867393297,0.48280619000622743
0.476,0.23704216263528158,0.42673748373424686,0.1896341552179362,-0.33083278647640163,0.022468499676351197,0.30596620216798787,-0.07352824957356652,0.16115308812730775,1.0496055190767886,1.2729655997726979,0.8963098284849299,0.6630198985536238
0.478,0.32729277160469344,0.548164440575673,0.22092509131030788,-0.4359489310117536,0.051520873469114284,0.38238857042484564,-0.2258533053168307,0.09147813231443601,1.2713652468781793,1.5906870266900748,1.155678300574517,0.8536373010512418
0.48,0.4271331308697417,0.6638742300724051,0.23679988218772488,-0.5436025321221346,0.09306420996528432,0.4489315552870844,-0.3581126321145665,0.07808569817899055,1.5182531721538857,1.9111041130082382,1.403157407368781,1.0359612561306755
0.482,0.5152146180238164,0.7647421784063507,0.24952687223971923,-0.6385767822027903,0.13103893548980397,0.5069850829628091,-0.4758195468848337,0.06176316862604914,1.7209871889595527,2.1576083585582535,1.5908027703591718,1.1838523188506316
0.484,0.5704312652591863,0.8197082329970835,0.24924471080670804,-0.6941875866489676,0.15983843354888616,0.5349234845975049,-0.5874294711359478,-0.008107915165606215,1.8011868942953742,2.233658834756037,1.653495668666028,1.2574649239576283
0.486,0.5814107049641303,0.7793839101903564,0.19795817542194444,-0.6795875449616782,0.19186853337461393,0.48851184306575035,-0.6847822349853283,-0.1252606982596744,1.7276472964794547,2.0814646543591535,1.534146172096466,1.2099629135997696
0.488,0.5548359211998061,0.6306668582769726,0.07581940291417823,-0.5918480641775863,0.23968177999985907,0.3523521870071783,-0.7556464749496608,-0.2525183467253353,1.5402710651043172,1.742841893002983,1.2431563629290008,1.033953939008964
0.49,0.5099141846182313,0.43830430123325836,-0.07174997332359691,-0.4733076849192362,0.29031103725028,0.18267297025670792,-0.8049942531959373,-0.3723898032613644,1.3146855591968363,1.3472595137597851,0.8831136877583922,0.7947109581171999
0.492,0.45482202911867214,0.2948022560226602,-0.16047789783172317,-0.3739145536684865,0.3062195175246093,0.06743131195924593,-0.8491378791864722,-0.4973416666148329,1.0933734605499308,1.0082014916795081,0.5762774153145642,0.5839037152282623
0.494,0.3782412696490209,0.2332478588886795,-0.14575032740091728,-0.3041541693691119,0.25985301595331095,0.04434667192742696,-0.8925353225169563,-0.6430899100548534,0.851094578889842,0.7348705364163376,0.36580607140538157,0.4418202993125652
0.496,0.2706785036475722,0.21182570916854937,-0.05951262554400107,-0.23882694187244774,0.1626224975438627,0.0763693319915685,-0.924402986330998,-0.8066416609445533,0.5328974679841118,0.4587801991772192,0.20707500032096368,0.3429279650809505
0.498,0.14464221790042434,0.1768411792861933,0.03210243985187209,-0.15799856632455678,0.05372675369021045,0.10430419639219071,-0.9349252838356479,-0.9645229797300379,0.1277653281486792,0.13439829048095575,0.04696177383287342,0.2488936309830991
0.5,0.031402400002527094,0.12208133919527936,0.0911807760091004,-0.07429737588353295,-0.032471360440160364,0.10646393013448978,-0.9205751926504142,-1.080341009243298,-0.29594916335008675,-0.20035044442750452,-0.11005263937949768,0.15693715113615794
0.502,-0.03831446167688713,0.08185602467425698,0.12080240407801186,-0.01996882622729061,-0.0821585283833573,0.10108327271112721,-0.8760033469940497,-1.1174914432541083,-0.6293424595833721,-0.4584120990637674,-0.21777487874531787,0.09250755242328079
0.504,-0.056708560990372574,0.07516393578044962,0.13212171837834935,-0.008015371433581121,-0.09679580146132441,0.10277950516018773,-0.7974007423781081,-1.0617206479985783,-0.8012997264386128,-0.5865792247064161,-0.2544308480675139,0.06520006781731613
0.506,-0.04870704845676414,0.07356023831853602,0.12200688561088484,-0.01129988505885892,-0.08718587988489222,0.09626226269306,-0.6978097686500276,-0.9397327147441078,-0.8233141971403372,-0.6069480485247809,-0.2521700873664885,0.04911421419028549
0.508,-0.04890074308843639,0.03859183204472624,0.0869611670696256,0.00662538456345026,-0.06914807050500127,0.06148047957770017,-0.6038749097908204,-0.8046594844718639,-0.7626086295118459,-0.580217367321885,-0.2557905480578079,0.014838679173369583
0.51,-0.06155291805126693,-0.01971096041518442,0.04140617721891114,0.04203656154056062,-0.052292525939031255,0.010590453431890754,-0.5295260588550378,-0.6943168684027566,-0.6813651262652991,-0.5454586064752117,-0.2725142487692604,-0.032550200095998266
0.512,-0.06243723891511425,-0.05273537249390402,0.009690737470073041,0.05812197009563278,-0.036600766591298656,-0.021041043972290344,-0.4648057961469072,-0.6095962397482932,-0.6058803775729296,-0.5070040003293829,-0.2808322782315901,-0.06422763583299305
0.514,-0.04480899373915233,-0.039425222975320334,0.005908845977971845,0.04197506595555345,-0.025675064017991894,-0.01663815917235483,-0.3959504998664323,-0.5328910547559622,-0.5386759659187172,-0.4633376360323409,-0.27293998862232915,-0.06816101215022057
0.516,-0.0328686711909991,-0.007211498983802163,0.026402248007358103,0.020582098310122646,-0.02996368751173236,0.008559498724934854,-0.3241855144607522,-0.45387102531401785,-0.4784205650887962,-0.42188527556023825,-0.2619994110394277,-0.059597340416497065
0.518,-0.043833970740206396,0.01220140683466622,0.056427970903839934,0.017971156761600895,-0.05088056791807518,0.03234589344556482,-0.26034276953508456,-0.37560640679921853,-0.4256805003922373,-0.3870846403975077,-0.25551788100938755,-0.0556730237024283
0.52,-0.06680574125256254,0.014609136857509145,0.08131919286865763,0.029021186320491076,-0.07561712208108835,0.04598089343553954,-0.21114251445543492,-0.3079321156054258,-0.382005079028433,-0.3552082311668943,-0.24632503298396274,-0.05819541529148938
0.522,-0.08443333519748518,0.009350822226040358,0.09377825561021493,0.039431543223245415,-0.09150822083791045,0.05007741015482828,-0.17555821708203673,-0.2594739851098219,-0.34901173492594056,-0.32450718464180844,-0.22957277090316933,-0.06210068676214593
0.524,-0.09306773360561996,5.818796852586334e-05,0.09370491188130725,0.046631633268604686,-0.09604292223747384,0.04560651779858162,-0.1486332077385935,-0.2305877283053433,-0.3257106208985713,-0.2987914787725471,-0.21221709890556267,-0.06608773485436922
0.526,-0.09574815711626514,-0.011182754493652445,0.08537657991988114,0.05282095336150525,-0.0925132328032705,0.03586315705061469,-0.12464227367177101,-0.21072976475229863,-0.30577174761726916,-0.27907961720521585,-0.2014771227879787,-0.06895353093051544
0.528,-0.09183800064035066,-0.017308137610792827,0.0748219449261875,0.05467198135350535,-0.08418581236992587,0.027989820021314085,-0.1003893606451833,-0.18696308713080098,-0.280739059898484,-0.26012787571440926,-0.19362891344827537,-0.06567807372696094
0.53,-0.08152513919331232,-0.015155867929477967,0.06600261899571132,0.049935669066404585,-0.07410943342544521,0.025256124662700715,-0.07718988477643662,-0.1567339703588843,-0.2478563863034996,-0.23680967720584323,-0.17969246014813442,-0.05432234957106913
0.532,-0.06864455231751765,-0.008530469059824554,0.05971734217167503,0.041291077727903434,-0.06467805427240565,0.02527549100425393,-0.05582727439095181,-0.12602113541553364,-0.2114225265834154,-0.20787999027088272,-0.15605632974170694,-0.039571589330161645
0.534,-0.05660586384302311,-0.0013708143078599473,0.05534008833662886,0.03159226680655991,-0.05661005076988707,0.025837918493785125,-0.033163668832875214,-0.09817360515238167,-0.17793283956115613,-0.17628081142764243,-0.1281796424350267,-0.02687803100156153
0.536,-0.050147971086575,-0.00034785722465516104,0.05021274502005921,0.026623486142671474,-0.05088893009476937,0.023252326312935164,-0.009741430745146691,-0.07462164153028532,-0.15458257818487448,-0.15127514183841098,-0.10946560226580307,-0.019918081883725947
0.538,-0.05437704364515069,-0.013297398683923897,0.041296633331612646,0.03397486613741178,-0.049174865861422265,0.012371684850891133,0.0066260665319980185,-0.05914240289887098,-0.14617993958347655,-0.14240185405356529,-0.11149001966222699,-0.021057979546782443
0.54,-0.0654905513000978,-0.034564872509249965,0.030818198231476645,0.050150549507309586,-0.05067781491163167,-0.0033477617444214788,0.011720305452435981,-0.05104525708800143,-0.14800233568826052,-0.14658325211027684,-0.12913579437492803,-0.027672901175007123
0.542,-0.07091093027466537,-0.04694318812213667,0.023793802404636587,0.06027251026076129,-0.050653026500362665,-0.012877845940553098,0.011190928658483913,-0.04281832469265643,-0.14843240130090538,-0.15012781368642153,-0.1430056563427861,-0.032514143994319566
0.544,-0.06334493498895585,-0.04399130388906254,0.019326062068727112,0.05613114360876604,-0.04433080520695638,-0.013305051689324504,0.011438724612933352,-0.030803821301906082,-0.14111708061225134,-0.14459473183278432,-0.13997381324838631,-0.03147474087222508
0.546,-0.05072027746558621,-0.037000587745884335,0.013800916961272402,0.04625331636742389,-0.03433465520692098,-0.012409569312871153,0.012918107578474506,-0.019622127121054853,-0.1292708464248065,-0.13230692397116178,-0.12360824697506688,-0.026441087586090605
0.548,-0.04809120965782124,-0.0370870492993752,0.0110582329328353,0.0442846216686635,-0.030994620678053666,-0.014155607542994391,0.014864374419522087,-0.013464143528917345,-0.11879934408804421,-0.11831874436050979,-0.1055182860833155,-0.020569922170517133
0.55,-0.05926528796406192,-0.041922588021349044,0.017324349645859983,0.05205404184696243,-0.0396227170981613,-0.014056231297090016,0.018844291424399157,-0.009969642952827828,-0.11192078315548944,-0.10513209272295031,-0.09398656391007935,-0.015750143589474963
0.552,-0.0708347694998028,-0.04294354756759686,0.02785297056551894,0.05838467537360554,-0.050740390122885476,-0.009646212318079274,0.026015814500788745,-0.004421991706007524,-0.10708437969016435,-0.09398999185316448,-0.08914576518234506,-0.01329854155196253
0.554,-0.06836408801012525,-0.0377140497093454,0.0306417699255752,0.05405601338437171,-0.05051894740365129,-0.005299052394764006,0.03484266055401297,0.0035199551678100757,-0.10236694071238342,-0.08593842409320497,-0.08548762387825423,-0.013219894974713367
0.556,-0.054829803389753046,-0.03268873477137951,0.022157986878952454,0.04410239083767559,-0.03856841456190265,-0.006296421541051386,0.04204055569674295,0.009805849570147115,-0.09805924979964842,-0.08122843347144812,-0.07969040676971273,-0.014044308930199853
0.558,-0.0465279516117642,-0.03595680282734832,0.010583741195429743,0.041584162513692687,-0.027784481429635695,-0.01332790682214735,0.04562952182288443,0.01250286845965389,-0.09543180351653976,-0.07915035322368351,-0.07455465851885142,-0.014345979248041922
0.56,-0.05263859316911045,-0.047607875827850504,0.005027500063936096,0.05091744748777132,-0.02801135436535364,-0.022065552380417165,0.04678864487810917,0.01449172936664752,-0.09372287299275071,-0.07857190319019938,-0.07413477934875887,-0.012602148542734158
0.562,-0.0643555170401107,-0.05743072380864583,0.006916384836397382,0.06170829011290624,-0.03560781466143966,-0.02629175418971793,0.04741313127923894,0.018373048596556047,-0.0904415377368083,-0.07768104944776118,-0.07685678221646806,-0.0071600379254907216
0.564,-0.0647962924545971,-0.0533349369593945,0.011459094965508362,0.05958468417354278,-0.039241561929852606,-0.022178012197653692,0.047256444192613094,0.023128558417580932,-0.0847728502584038,-0.07379341910864577,-0.0753855017708498,0.0003193948262825088
0.566,-0.049930711079451566,-0.03569719597981686,0.014237023974664396,0.04362700908288524,-0.03394325485498993,-0.012248403699360024,0.0446492800430288,0.026526488100146715,-0.07933342184961048,-0.06650663848116091,-0.0654852869484664,0.0034163566784701487
0.568,-0.03518556887359257,-0.02109204242318094,0.01409643608997201,0.0297619234795561,-0.026348702114203638,-0.005434275215762165,0.039204566229299694,0.027429850373208702,-0.07707049763221117,-0.060396106606614694,-0.05390348771098481,-0.0019821697837426305
0.57,-0.0345310021277186,-0.023331076137877254,0.011199400916706426,0.030735003445824936,-0.02390724795549415,-0.008316136974037566,0.034177571794296695,0.026439146086637517,-0.07634072144925906,-0.06082986235974491,-0.05268328508371959,-0.010865195441430931
0.572,-0.042168295651806256,-0.035727859550344146,0.006438597441089213,0.04006869483879378,-0.02504026329278893,-0.016654136507810165,0.035057668916829925,0.025718285062593698,-0.07214850873304715,-0.0677986129379707,-0.0664788885870184,-0.01577705523864873
0.574,-0.04484354554157199,-0.04242890403144721,0.0023921101898847137,0.04444763824945273,-0.024650311371938436,-0.02134371895347022,0.04374380070609793,0.027335972840722474,-0.06291012541870884,-0.07613647978872855,-0.08949760740829135,-0.017602830765848735
0.576,-0.041809245922217214,-0.04091639162444906,0.000762259304094564,0.04296793817612766,-0.02269683125894241,-0.02102967158363991,0.05501547545219968,0.031468738320799876,-0.05275211842588475,-0.08096301165366174,-0.11217320558724755,-0.02257122457433723
0.578,-0.04137524428220686,-0.04122557267012931,-0.0001770802636225109,0.04387825635139489,-0.022016716232412536,-0.02185170732646555,0.061001398889376175,0.03611092860785439,-0.04655588112939458,-0.08127124877544128,-0.12651749637427936,-0.03170585524342515
0.58,-0.043772644220155796,-0.04535823422426405,-0.002008269878740719,0.04712278140352421,-0.02193564431445305,-0.02509162062070243,0.060001639635193345,0.03932884997658536,-0.04387467112814466,-0.07781241600990355,-0.1274725020118768,-0.0388698562087911
0.582,-0.04032516906230059,-0.04276175211722319,-0.0026925234851640266,0.043192390648102943,-0.01940610382760041,-0.0241703267021301,0.058231850301304955,0.042129981031149434,-0.03883724612641084,-0.06985504085637563,-0.11485608180531467,-0.03812478106740894
0.584,-0.030844204455365554,-0.03134216107832884,-0.000494372987493936,0.03196462001719487,-0.015604315935665976,-0.017419209420222004,0.060176894631583884,0.04618012990664579,-0.02829280617130847,-0.057928910815067666,-0.0959995005389,-0.03143689968805389
0.586,-0.02884961899742821,-0.026621244628940534,0.0022649412424988005,0.028541538817610505,-0.01645019175399668,-0.013830431011673519,0.06146610558257518,0.04887492361177494,-0.017871593328769596,-0.04789381606214163,-0.08237345059918108,-0.02727143389007404
0.588,-0.042543888618034716,-0.038761856368579636,0.0036492965694201887,0.041803063848055176,-0.02483678692112937,-0.019233584875090644,0.0563659360902686,0.04638817745054759,-0.014618251664835553,-0.04528835103062068,-0.07898145774880695,-0.029576314443748555
0.59,-0.06089186210238218,-0.05532568762682967,0.005424851056257378,0.05951683425083622,-0.035256517735452464,-0.026570230068648424,0.04816991886459887,0.04117718749326442,-0.016393677377693264,-0.04699843607696596,-0.0796581422216648,-0.032715631180834356
0.592,-0.06750244866231328,-0.059766115946640934,0.007846892533192115,0.06501229566217959,-0.03904234420625824,-0.027561814703515725,0.045981103967910254,0.03974504396772801,-0.015219186160983385,-0.04572760747502797,-0.07617114919752888,-0.030517953746109463
0.594,-0.06056638949771925,-0.05274644757810405,0.008098957648096428,0.0576547804645656,-0.03452205130781668,-0.02380450608125859,0.05388273369268529,0.04436594293741046,-0.008254304659379352,-0.03940593226871626,-0.06724143570903632,-0.023940776571920074
0.596,-0.050732282701672494,-0.04433023427652756,0.006551806730322309,0.04788344026138541,-0.028387259756707476,-0.02014544491669092,0.06746766717484981,0.052358887422806887,0.0002421654204819069,-0.0309517617214951,-0.057036152123502964,-0.017526294647472622
0.598,-0.0459647067453437,-0.03915492616347147,0.006742552433690515,0.04243310845586301,-0.026507174133492115,-0.017282530151908528,0.0787608433950622,0.0602081067232486,0.005042042597374991,-0.0242281403848396,-0.05072777323404956,-0.014705788727322993
0.6,-0.04480583357712332,-0.03574414540964228,0.00894352205549562,0.0403846613465936,-0.027591828988194997,-0.014242089283419903,0.08315340726137621,0.06544468131686364,0.004915155006849237,-0.022150250271785916,-0.050517988076263995,-0.016131334658278557
0.602,-0.04116242544358336,-0.030701910647333748,0.01043764176620972,0.03702696802812874,-0.027108691722553684,-0.010658038436056555,0.08225533343113212,0.06804182852133092,0.0034053118641061567,-0.023721716376338235,-0.05247791631210174,-0.01818172808509665
0.604,-0.034802592868505136,-0.024511613064220346,0.010344039372485948,0.0316491549120399,-0.024603438350866497,-0.007568733613059841,0.07860870731405126,0.06945251670156287,0.003687796136229638,-0.025367095502072085,-0.05233239239831694,-0.01715634175681836
0.606,-0.033810866766198294,-0.024679229128324473,0.009169699345936248,0.031079706194529152,-0.023734843768606732,-0.008675146639760678,0.07110969317908998,0.06900544698922666,0.0029750323555120905,-0.027259977549971257,-0.053506106590366004,-0.015489776669534846
0.608,-0.041205022533855794,-0.03440137636367499,0.006793018735322506,0.038683680070087705,-0.025429113321378417,-0.015314897227817356,0.060618282330404866,0.06570435158583039,-0.0027957639536580416,-0.031795470843460766,-0.06038440811456672,-0.016567105456002408
0.61,-0.047873933523399,-0.04330831184385355,0.004539795431349791,0.04592451677712049,-0.026625550680571337,-0.021376404456107063,0.05423988748155422,0.06265388898703633,-0.010693445262329258,-0.03643828609809275,-0.0672780646900102,-0.01655930634487067
0.612,-0.04465288183345893,-0.0398682166851606,0.004756177248266531,0.04276883551139325,-0.025192407437801847,-0.019967892207755095,0.057556919079232306,0.06431783757335302,-0.013398529199665395,-0.03569224840942376,-0.06444127318313042,-0.009927605548268706
0.614,-0.03292162012490541,-0.0271942229086004,0.005607040712797548,0.030612138689206377,-0.020705321534690704,-0.01328552752178791,0.06684753649227493,0.07092143112675181,-0.009093859345496799,-0.02936343191986199,-0.05241197852306575,0.000177764031147694
0.616,-0.02273243602836169,-0.020309042886895192,0.0021047815109975047,0.021568576430231138,-0.014236078720966393,-0.010830028920380135,0.07358295498200028,0.07869883983813983,-0.00452616251756094,-0.023212311132616032,-0.04238167886914097,0.004234959753186959
0.618,-0.023531102349527506,-0.02793596068357885,-0.004829236765769195,0.025300480030251097,-0.010423034393443237,-0.01684650599948145,0.07433874252196082,0.08480320052960011,-0.0058758605246914935,-0.020477242171751637,-0.041901876623385646,-0.0007047622532964256
0.62,-0.03281814221814449,-0.03932179288852456,-0.0067648444245488985,0.03575806256629071,-0.013313935096753673,-0.023028448665752363,0.07309914547937883,0.09051238340760234,-0.009011224497606956,-0.016460388108097655,-0.04509958637674909,-0.005280892620769057
0.622,-0.03643800601779683,-0.03532895201633189,0.0011329949588844096,0.03627860086888034,-0.01917534552056185,-0.01810239050218449,0.0747231357204364,0.09895475986493574,-0.004286838660123648,-0.004686844283973697,-0.040443322522953185,0.0009366910233129463
0.624,-0.025336755069498878,-0.012467356365872075,0.013017452761278202,0.020251475898381235,-0.02001447303376954,-0.0022691308103525167,0.07904325627422763,0.1105217101896029,0.010119715599976625,0.013319158589709215,-0.02618566756664082,0.014868412394067365
0.626,-0.007895280326356956,0.01191136394930537,0.01987188372031611,1.6788827020107225e-05,-0.014626514766549683,0.01296373344862009,0.08232836109284018,0.12200369693448158,0.02561511513872017,0.028349981674897932,-0.013547390464314642,0.02257417731119529
0.628,0.0007368827233084163,0.020230463559823282,0.01944718561782513,-0.008523254520746454,-0.009720593951246744,0.018148053298467744,0.08289974846483684,0.1298824620295895,0.03350956661224832,0.03329043952466817,-0.013916513807052713,0.0171291304568914
0.63,-0.0014229332585782492,0.01424134293647725,0.01560662675384374,-0.005097929100211627,-0.008983267922105848,0.014909116539560853,0.0830545466736801,0.1331302154922317,0.033178120914674564,0.029279648023605102,-0.025735794246526392,0.008000108044688103
0.632,-0.003400196071000099,0.00869680420008452,0.01211633548397316,-0.001959514589122082,-0.008621795929707856,0.011069075962387452,0.08532276823823634,0.13278056872961821,0.030018860122121113,0.022918931009426935,-0.03584379004929234,0.008263445602509998
0.634,-0.0012850446900447951,0.009169551124975648,0.01063791712668896,-0.0033458059019292057,-0.0067971114387586585,0.009940330929235235,0.0886275654251593,0.13007416468917646,0.028499156073062342,0.020230281004237353,-0.03383726830688562,0.016584365113201566
0.636,-0.0042701144692573354,0.006476173593803025,0.011220802960796621,0.00011266981613764572,-0.008315418138249216,0.00784010620446396,0.08981794906004507,0.12683018896674705,0.02858910757013615,0.022613857025341605,-0.022428527443883774,0.020375377391638243
0.638,-0.016148072845435395,-0.005677684136993203,0.011211561536966206,0.013043547329193439,-0.01454700773684569,0.0014168266718959713,0.08852836160744622,0.12704680859615616,0.028514374207579216,0.026963108671184167,-0.011348904335671744,0.015504951528963147
0.64,-0.025599452364530824,-0.018840201926710844,0.00744650332672192,0.024686159423646565,-0.01820635288750401,-0.00644487544900112,0.08765142455052846,0.13416622365932152,0.0287716416483536,0.029844858363574443,-0.004993679545119776,0.011501002305141603
0.642,-0.02100381874720037,-0.018715785830276232,0.002669856342817779,0.021777969635371517,-0.01400568752059088,-0.00809468466253077,0.08938992569156227,0.1468150752621934,0.03286411569529356,0.032449100822995146,0.0007143713534432434,0.016154416967804335
0.644,-0.0045938960741027084,-0.0006221430218020424,0.004287339022651389,0.0037014706250163543,-0.006524791952065138,0.0015986068601056545,0.09355753681753083,0.160657155438896,0.04492705951701257,0.03962724311528022,0.010951298366009006,0.02583000668734943
0.646,0.011163243679642837,0.024070539048296907,0.013583379966816325,-0.017129278525996494,-0.0032367308264647293,0.017627412793859955,0.09839971894621272,0.17276376462569837,0.06476170273994909,0.05192909602667052,0.02363273360138724,0.03368654199777659
0.648,0.017832579629417585,0.039197368075033205,0.022373519139257083,-0.028509716541883747,-0.004554747748895714,0.028555231823708647,0.10197306121141499,0.1821118792545977,0.08573750009592937,0.06338940403175755,0.0318413442844034,0.03948078008070149
0.65,0.018270121576511915,0.04037217307428321,0.02298553144261647,-0.029652546183983965,-0.004808517567442823,0.02895709700271938,0.1031508010508085,0.1878111588430868,0.10040303124524644,0.06949589293872932,0.03347296228277901,0.045848616253964136
0.652,0.01761874261412676,0.03408737212921942,0.016960195085961687,-0.025986569257403936,-0.0017531668817371564,0.022930138957876184,0.10160027503586702,0.18924981879955108,0.10702531223589984,0.07162738499981694,0.03308458135286092,0.05066457554404372
0.654,0.014730562363421941,0.02667522868871952,0.012259743652179725,-0.020079871374643208,7.775500725815771e-05,0.017416430345993064,0.09928826116507607,0.18885530305428438,0.1100205264570156,0.07421283592743728,0.036631964041799865,0.05169203170528493
0.656,0.005410725445991625,0.01864101145380935,0.01373764024174782,-0.010856606362973226,-0.004299080464728907,0.014867805137958406,0.09948814051527224,0.19064640391508858,0.11422705272159675,0.07983565822604172,0.04628993496286346,0.05263954211653143
0.658,-0.011277101433028323,0.005988942077837163,0.018022917042309884,0.003438042510807666,-0.014378660160149137,0.011219673408829555,0.10113721214979494,0.19394191485719908,0.11848437569243543,0.0839217321393953,0.05584232407335402,0.05620398662436314
0.66,-0.027471016171303504,-0.009010617449670513,0.019118212006049497,0.018191110824634843,-0.02352249393176308,0.004263378690199017,0.1005653602518366,0.1952844042659066,0.118620458021396,0.0784760871989348,0.053902530278270036,0.05918745151342097
0.662,-0.02927817623723289,-0.013095744363615151,0.0163916800317675,0.02103098913817339,-0.02391810097767326,0.000610017305138526,0.09877854436643366,0.1967607405111888,0.11641419429764836,0.06542360625416455,0.03742098862184587,0.059356921545501755
0.664,-0.011166662546973929,0.0019861973853342696,0.012979938502151678,0.00553536194035878,-0.013502880861608757,0.006435816328835113,0.09928263670887454,0.20466930675466277,0.11946533926081362,0.058936411706185826,0.01916739698385758,0.06000805332524538
0.666,0.01720592481107723,0.02711824803846478,0.00971389129778655,-0.01980200210063416,0.0028008258041048195,0.01728454370455418,0.1019950013763791,0.22139852325680473,0.1330228223196023,0.07000078828110588,0.0167363402634627,0.06596872625412085
0.668,0.04035148583302567,0.04598220643120401,0.005619844430538319,-0.04043637494591938,0.017107499155632148,0.024012734298022653,0.10475318782340116,0.24290301346366427,0.15529345796964614,0.09360117234212789,0.033312758232537897,0.07751980105875685
0.67,0.05035326360358023,0.05191098917432861,0.0016795305615689247,-0.04949154032276255,0.02392110573601855,0.02419154287905957,0.10787110576636542,0.2627735178650471,0.17961100627807003,0.11494597475314663,0.05337513775372981,0.08963763516034605
0.672,0.051093835604692404,0.051340539673426965,0.0004319254545754323,-0.05118048599748609,0.023813538055081244,0.023095301948018274,0.1138143689199071,0.2775202969105211,0.19981152627333978,0.12451289287242588,0.06029583634027688,0.0976072208223838
0.674,0.047746653766150116,0.049888430889995054,0.002440965602132461,-0.04957583802894714,0.020356038565898796,0.023936377796152163,0.1214626680313301,0.28691645541848093,0.21235835224021674,0.12259146510058322,0.05316870945790052,0.09911193787619776
0.676,0.03906353193020674,0.043544235313978,0.00486055397990557,-0.04156534186672332,0.015405675296275855,0.022752975313967486,0.12479764415434846,0.29143518265509627,0.21574109081921525,0.11504505185451432,0.04375183170258433,0.0920200528185084
0.678,0.02813442038256046,0.032643139033747326,0.004759227317272685,-0.0294968840685275,0.011370390850086442,0.01763583175696607,0.12195788653415113,0.29373700876151293,0.21273423823792165,0.11074076182747866,0.04279019405169538,0.07860579213249111
0.68,0.026994165890704844,0.029843426947921147,0.002844491402296606,-0.026697326832022653,0.01243806096114185,0.015094592757054902,0.11933843171694244,0.2986459837165677,0.21034039785128078,0.11623240331361555,0.05166544924911384,0.06905518006878683
0.682,0.03753260926360892,0.03963904724280789,0.001973365692943362,-0.03667751941432027,0.01753582589730628,0.019226814299443874,0.12090571527445025,0.3065185799490707,0.21300225280125418,0.12817734503677303,0.06417351334803485,0.07144840192237042
0.684,0.042660306900805495,0.04553274736084458,0.0028038958311798084,-0.04237573082919344,0.018496765859533557,0.022620786198615097,0.12098645813837572,0.31150171985046365,0.21875381349944634,0.13671507057041232,0.07437356564287714,0.08125303935771423
0.686,0.03073282335414082,0.034026718651446436,0.0033305370605697746,-0.0311568869043374,0.011642492834910175,0.017521467926194398,0.11383480367623354,0.3106340989518291,0.22368956289724978,0.13752398133300775,0.08234245470476077,0.08803774820684948
0.688,0.016175212077033544,0.01914589722363381,0.0030254798118425877,-0.017246349758939537,0.005078282776239394,0.010354942813877565,0.10450265304569013,0.3100809925272076,0.22772273300856322,0.13703416330816318,0.09328892291198115,0.0903008245489974
0.69,0.021066806681784424,0.025423594680064575,0.004363351444676355,-0.023446185114121016,0.008107762212875888,0.014480005533775606,0.10363532287388791,0.3178488378906917,0.2349324229810481,0.14536556100819825,0.11122888420068261,0.0966876523462971
0.692,0.043692051943252604,0.05221203159646523,0.00849336264286772,-0.04792168242444954,0.017968984967433647,0.030133731472891893,0.11350234218305397,0.33250286584362904,0.24761160600925747,0.16342251932479981,0.1324199414026942,0.1109136029731516
0.694,0.0615662139012235,0.07344322573472564,0.011860718599411972,-0.06641286916287283,0.024485719204487146,0.04244835392068553,0.12498932699251011,0.3438794589637492,0.2611566599385861,0.17917076065592796,0.1469444091056561,0.12242995763556101
0.696,0.0654108665198822,0.07439701878404584,0.008970936826524455,-0.06788159113832115,0.02663677490599218,0.04131982500998531,0.12962415931475932,0.3463942153288614,0.26904571396566623,0.18168003251613576,0.14947257203940273,0.11945142803283884
0.698,0.07035705065088238,0.0687306366686674,-0.0017456331792903867,-0.06780784384186855,0.03412430679481993,0.032846326945291306,0.12911153485496002,0.34642436062342596,0.27097399727065236,0.17409293742790707,0.14547363310023598,0.1059666202452378
0.7,0.08584903396291786,0.07117808778220376,-0.014996256749002655,-0.07808205183872481,0.04911214836462906,0.027146528285865567,0.1289600250990094,0.3514663066445413,0.27030287279915,0.16604086453951333,0.14294619167328718,0.09566813312168926
0.702,0.09572102970172788,0.07368818506885197,-0.022461043184560825,-0.08509032028723187,0.05825405526188611,0.024643304590656008,0.12828938396124867,0.3579443001691044,0.26747425333381303,0.16085903497577778,0.14177904386565046,0.09366168943221362
0.704,0.08212952029117601,0.061827096343394866,-0.020583726264010612,-0.07178286442444072,0.05008365791536816,0.020000907731536524,0.12214612145091137,0.3572589270765094,0.2617193325074581,0.1572709264869191,0.13625016027002218,0.09420034788448732
0.706,0.05558533929949271,0.04180042768436579,-0.01388932712496424,-0.04737124980605507,0.03251825252769125,0.01360769203839859,0.11098276679683632,0.34950553225499,0.25554463237251174,0.1566302550452129,0.1265869014921949,0.09294304301418202
0.708,0.04571396796280635,0.036139267423886366,-0.009775590904610672,-0.039268141542604454,0.025007918720474524,0.012628942359816533,0.10253656064460806,0.3440372471050653,0.2538929216550098,0.16183314945799745,0.12271740276217658,0.09317445629525466
0.71,0.06283766191031841,0.05238238299228598,-0.010945377540455043,-0.05653636788945573,0.03454916884324281,0.01973361298924037,0.10267538266427942,0.3468074925388012,0.25866576674875785,0.17030269571368298,0.13132651518827917,0.09922028625824617
0.712,0.08222563088745283,0.06937448152589025,-0.013481407256833597,-0.07521452347238387,0.04652021228932569,0.02678003117061288,0.10761921552121742,0.3528057761928655,0.2651519581185733,0.1731256023446862,0.1434074508392247,0.1085523144461622
0.714,0.07646272809420636,0.06546533725275248,-0.011451629997919476,-0.06996031050243931,0.043441285825666746,0.02598744342907611,0.10993473229317395,0.354298972375727,0.2675365562875039,0.16575086698404282,0.14543482481064374,0.11516645884315695
0.716,0.053174550394905436,0.04920019885064493,-0.00408604388101066,-0.049371435269583416,0.02813648850516138,0.02176231368854374,0.10936551104831835,0.351519679345098,0.2666027110313439,0.1557672490692991,0.13940268807955164,0.11890646302478011
0.718,0.04416841793018881,0.04575703150418645,0.0017076954164096665,-0.04313680025279283,0.02019274092658049,0.022947365108735098,0.11164013794314093,0.35017448112863314,0.26700649191139714,0.15378049556410603,0.13989061536783198,0.12525145599581433
0.72,0.062143716635420246,0.06080190953565399,-0.0012266578684232755,-0.06050399768473476,0.030232497047667728,0.028558477986155545,0.11796356922884932,0.3513872545162151,0.2684581080780393,0.15968443028683982,0.15291344635978393,0.1350418716704128
0.722,0.08621355206051795,0.07509804638274731,-0.011117771021846298,-0.08027941908266875,0.0471638859543416,0.03002024055544777,0.12144772451276359,0.34899028984122155,0.2648616099035901,0.16333390720887858,0.16734777250399877,0.13976317345342104
0.724,0.0904600276247665,0.07187323417706769,-0.018647855678846047,-0.08067586722713162,0.052974297225065255,0.024260086194490556,0.11587336201029096,0.33834251034682705,0.2536090200064019,0.15770970716787144,0.16996736443781618,0.13119891655574084
0.726,0.07230563196587113,0.05573958966265006,-0.016594009339141933,-0.06338470695280142,0.042544131252075214,0.017613716363787096,0.10412547834841368,0.32440957266710135,0.24104453856103567,0.14749308939161226,0.16230394782875038,0.11303258721750072
0.728,0.04927669704816691,0.04275847117906081,-0.006498651463985157,-0.045479590886744706,0.025801487344983533,0.016979793366614343,0.0944788629621917,0.31604718712947427,0.23502680785655095,0.14245009943477824,0.15589773419883335,0.09739133198612347
0.73,0.036587614005870885,0.03970102105729009,0.003115947281045137,-0.037517298981603456,0.014869710719597324,0.020722364345786275,0.0908731515581673,0.31438307071391103,0.23522991426044387,0.14404083831492348,0.1556154646477653,0.09101104107351463
0.732,0.0364662285620741,0.04111514294006183,0.004496674233516225,-0.03788634098527034,0.014492128784000786,0.021909597227425897,0.09053108235028136,0.3124921184130804,0.2339166697301585,0.14361836478940762,0.15684111868992962,0.09065219589976556
0.734,0.045075626614589685,0.04301764993514155,-0.0025515066204452566,-0.04314104140161063,0.02272544842043081,0.018986158793903682,0.08981743668552668,0.30474325763283094,0.22555588483096584,0.13518232566816374,0.15596210581847977,0.09153628730845983
0.736,0.05582496590301177,0.045108973844523635,-0.01160402065866317,-0.04970626526233987,0.03300401270809281,0.015732821240329983,0.08811674477355715,0.291510161811709,0.21316920442328965,0.12318581363066235,0.15378290651046767,0.09292290514041093
0.738,0.06124279070136028,0.04528898635818638,-0.01695554893348971,-0.052125221620620936,0.03829814490840745,0.013873957201065488,0.08619902170096548,0.27704064345181917,0.20390138051981493,0.11492763234389541,0.15070857201704516,0.09478798615242034
0.74,0.06312723476406029,0.04638649032356637,-0.017387742859262492,-0.05262543683401463,0.03866697866327845,0.014737266768447888,0.0841515760579812,0.26643983301304863,0.20092013800026826,0.1123171463739734,0.14712856222271656,0.09615537147130528
0.742,0.06742209861916752,0.054377206421598094,-0.013106493621875067,-0.05798466276824433,0.0377162295056021,0.020757791766359994,0.08133589077507611,0.26175428888825625,0.20094309654661002,0.11309800292392454,0.14674218330632535,0.09741422850129099
0.744,0.06633833553075949,0.062488370463838754,-0.0034866978479519304,-0.06165986352861541,0.03195283242153199,0.028882355381286584,0.07802095511036647,0.2594150315900524,0.1981923922432269,0.11456727512912447,0.15349974299585756,0.09956679849112478
0.746,0.04812715088411064,0.05869452082825781,0.011056076388596611,-0.051460030122325424,0.0159876043902972,0.03317362004547475,0.07602211538195887,0.25410044514585645,0.19048158402377302,0.11524825560325415,0.16596258881413398,0.10134692037619386
0.748,0.022788935698207485,0.04870820649414794,0.026325213431461575,-0.034278393940057994,-0.0032552042411200487,0.034967977236316825,0.07596020676386774,0.24389684315837973,0.18042338285230214,0.11500919728507618,0.17689993330599985,0.09958290250599794
0.75,0.012729949437121807,0.04714656114420025,0.03472191766349094,-0.028375090514410027,-0.011307841960749155,0.03843703630127699,0.07545083347467596,0.22965264960824572,0.16959523142783842,0.11236796934058992,0.1778461415078361,0.09223294165660476
0.752,0.019661676901671536,0.05119068704393699,0.03193328168591012,-0.03399256076129644,-0.005799674973253132,0.040052782187372245,0.07161189762478506,0.21221183573873204,0.15452976828391568,0.10255964456957763,0.1650563159310474,0.08045785638769651
0.754,0.024341724669039916,0.047208000905199624,0.023512689382980515,-0.03509651612204772,0.0006479904572999775,0.03495417845480463,0.06484431512408535,0.19334438356558772,0.13271229367546963,0.08346850452664205,0.1445543556592979,0.06870789409710457
0.756,0.01684708234040381,0.0356408955551819,0.01944447050837058,-0.026081423963993662,-0.0015992601965881409,0.027374040810654948,0.05942043817051434,0.17699798302172468,0.10981177008366913,0.062363029813207724,0.1299775776133264,0.06182737014928664
0.758,0.0055854662460262765,0.027354244372677278,0.022016902592096814,-0.015794745923474997,-0.009150918452090812,0.02370316722209349,0.05825220661767906,0.16526368668899138,0.09400087578918338,0.04911334315024701,0.12912133294371492,0.05955706358658625
0.76,-0.0010176612339213706,0.02447685719585214,0.025225845473572157,-0.010137042585136088,-0.014809148605811838,0.02292235918851346,0.05790775061402787,0.15500436131801323,0.08564169136295159,0.044482239813690934,0.13425136592893233,0.05653864127912215
0.762,-0.0027686431030303224,0.023207843058311847,0.025412865706403994,-0.008470616151832719,-0.016637378178551918,0.022287249535188396,0.05358981554605846,0.14293511543444262,0.07932142066747855,0.042862330995480945,0.13376906437827024,0.050780317376862665
0.764,0.0005775729005824339,0.02672616786896855,0.02557855363146367,-0.012669599001493368,-0.015633409690995848,0.024640942974425543,0.0472010557118882,0.1309746358124015,0.07205060357958892,0.04278821983195884,0.1301025791979438,0.04736256342354183
0.766,0.00957139046646015,0.039379120002623565,0.02945148127527875,-0.024240745052738575,-0.013007070225903526,0.03321615966019806,0.04397171653100067,0.12219809635751075,0.06417763781741027,0.04604231065528787,0.13547643329518166,0.05027880512307327
0.768,0.01642157326173503,0.05267586936261992,0.03622943384301465,-0.03427429447506575,-0.01221759041368645,0.04345169225343189,0.04339376089198984,0.1145445809198384,0.055776765422032935,0.04895083430396125,0.15246131903249557,0.05544341548829847
0.77,0.009485161617818563,0.05073294243979667,0.041409604346613435,-0.02937036745857725,-0.01709000109087102,0.04560873278254048,0.04024722009770547,0.10283116522090706,0.0454183306665957,0.04383248631719274,0.1694597399136991,0.05544213066074009
0.772,-0.010086207634786182,0.031225761806631395,0.04128337339981984,-0.009625400083359591,-0.025858007944801874,0.036400680963362596,0.03317445161727176,0.08645354364102659,0.03189567790894651,0.030402734587545097,0.17596385934925862,0.048562150040896264
0.774,-0.025406518607854825,0.011611991422616683,0.036658860872193146,0.0077918057539554594,-0.03124181140791275,0.02441551098628275,0.02681040351102304,0.07148963307172664,0.016662848634505095,0.01828645625494947,0.17479178508750712,0.04056493657523822
0.776,-0.02333454663212135,0.009350416994563219,0.032310015123740835,0.007704971036149396,-0.028939336297788644,0.020619681221252028,0.02569125402314311,0.06358970684386699,0.003767467176267547,0.015319430537721642,0.17634291875986619,0.038185189012518404
0.778,-0.011989616305334341,0.02028053071430891,0.03219968803899113,-0.0037979537390891494,-0.024045288601636357,0.02508861225742424,0.02874784697174351,0.060988379714906095,-0.004502754833613031,0.01807266407350344,0.18377645430264597,0.04124802971652603
0.78,-0.00994150415634639,0.0242013430713809,0.03430461430080342,-0.006837913754060125,-0.02418329972153011,0.02721445965553358,0.02993479227430573,0.05643122116136816,-0.011042449020417996,0.0162823908718512,0.18904472686442872,0.04153794129836835
0.782,-0.02127393889802684,0.010828315820349816,0.03222505840614938,0.0064008803462823685,-0.028354237185410566,0.019321957351821534,0.0243739237824329,0.04546349500551586,-0.01978439306367112,0.004668315666884024,0.18505693475369372,0.031492855433373886
0.784,-0.034644793707517815,-0.010162636854181822,0.02445602918388807,0.024990684739554108,-0.030733370570145403,0.005564887696287733,0.013706907002964983,0.03109849670665175,-0.030105797697045498,-0.011497531928626908,0.17482214914417435,0.013565719773165617
0.786,-0.04192493603056151,-0.023976222650984556,0.017869485861557184,0.036310380016480855,-0.031122928209727486,-0.003949587090234042,0.004659240317169999,0.020075202162094487,-0.038341669762369024,-0.02228082437986926,0.16537194513702128,-0.0012627958239146539
0.788,-0.043517147513900734,-0.02536702260605714,0.018126174193596273,0.03731631259227827,-0.03248602441372852,-0.0044788049151653075,0.0027016781820149802,0.015932514745005264,-0.04197908208185282,-0.022845999462963652,0.15948731417111556,-0.004049261219971073
0.79,-0.04159410841347422,-0.019557139966331242,0.02204666138811375,0.032104537486359885,-0.03395071715121729,-0.00025811849765253024,0.007278911254357514,0.016119257977977385,-0.04118072248274357,-0.016998874565361463,0.15582043719453803,0.003923817374971508
0.792,-0.036597005510030624,-0.012648459756934485,0.02382346069714922,0.025023076121283135,-0.03252952491044008,0.00349679768725273,0.013648471173596901,0.016147889563191697,-0.03843637775060874,-0.011958494029123018,0.15351492016692522,0.014066683285698978
0.794,-0.02931199224600042,-0.005581507533468897,0.023289900526442454,0.017721753483572536,-0.02834806435712225,0.007185185790051361,0.018119388665953116,0.014667451835402925,-0.037532702582497364,-0.011888029668833105,0.1540463274490754,0.01984727585043886
0.796,-0.027478712234666434,-0.0037168806963538354,0.0231259475121223,0.016281570340068795,-0.02657923779193675,0.009315508560173841,0.018644642892888894,0.010978546966000008,-0.04264396329601196,-0.018783012649736835,0.1562752507020677,0.01998558167951815
0.798,-0.04192799553409564,-0.01914994945148825,0.02242118330867888,0.031126536594297642,-0.03270954857821964,0.0018872424786578962,0.013447295441293595,0.002147254672797825,-0.05596673997357055,-0.03488542364415909,0.153565111681285,0.01518983086712444
0.8,-0.06830702341043272,-0.04954621333693448,0.01898192903470779,0.05892960384850581,-0.044318865738205364,-0.01601714181776023,0.0038175062376103602,-0.010994530248992215,-0.07426527261960407,-0.05692191087741898,0.1426722206799915,0.006896162337100489
0.802,-0.08512142201619569,-0.07092648646757087,0.0147596869712112,0.07796706159578615,-0.05150586797809233,-0.03057674961071689,-0.004759052200224496,-0.02066228330473626,-0.09033852051432252,-0.07247965885879135,0.13129573511827056,-0.001885150007836709
0.804,-0.07749178248146991,-0.06473030050264633,0.013249853975471878,0.0719082400119641,-0.047386336044852935,-0.02923537869323776,-0.007932112196622189,-0.021593415244426525,-0.09928734977206131,-0.07167125015158132,0.12951505934469032,-0.0071161004391460825
0.806,-0.05437567332281786,-0.03969341219486297,0.014841120400076603,0.048795299838467046,-0.0360533138356242,-0.015721785101946405,-0.006830474429834266,-0.018352113301361085,-0.10095040389600217,-0.05976100721554854,0.13737069078655606,-0.005839763591195154
0.808,-0.03749010674672132,-0.019290137639098606,0.017960793766741836,0.030429975683947872,-0.02825970036968723,-0.0032628137121263143,-0.005175982422199747,-0.01805144970343643,-0.09611590857792354,-0.05036139757876381,0.14595574252494325,0.0007296749166330294
0.81,-0.035904236215008996,-0.015125200956114934,0.020319604539735435,0.02723223736264386,-0.028282289745170854,0.00039901914163383804,-0.004122008680814429,-0.020673899344326185,-0.08461083583461843,-0.04895229607425558,0.1480742403092223,0.0065766549144719195
0.812,-0.03872357658806773,-0.019054055294380468,0.01935350335245758,0.03017292309860395,-0.029509663314003596,-0.00212110320612151,-0.0020384094868528798,-0.02118483194327447,-0.06964991528714792,-0.05029691262746452,0.1450156831505289,0.0063674032923882705
0.814,-0.036022043900013505,-0.02016627078965698,0.015887243371326628,0.02917672817245217,-0.026705372949087605,-0.0045147316341563205,0.0015534874815857072,-0.018489511485467243,-0.060014246554969584,-0.04969004887570844,0.1434375255687666,0.0010493194414581519
0.816,-0.035238564599198725,-0.021454982103590082,0.01410485541433776,0.029584923129369927,-0.02513987541738756,-0.005772791561314361,0.003957449451839155,-0.017487148210084066,-0.06284622557182554,-0.0491362496327845,0.14634950455870213,-0.005186284743709136
0.818,-0.047168084268812895,-0.03234413327320873,0.015365238853378732,0.041456680411924046,-0.03142923517768369,-0.01006834204666802,0.0021085758844645625,-0.02141824311653245,-0.07540099508288867,-0.05214325971441863,0.14958871987406408,-0.011064480474670374
0.82,-0.06666950131898496,-0.05080365522431047,0.01658916500601007,0.06091638598131552,-0.04234108147316657,-0.018176720241419496,-0.0038481079476568297,-0.027283450944939766,-0.08811177611289704,-0.05842689470193488,0.14814098977147425,-0.01757615050120061
0.822,-0.07835538086623672,-0.06394028338017405,0.015156529532769943,0.07332841647475719,-0.048531558358449134,-0.02488594526410943,-0.01076452973087495,-0.0315438202026779,-0.0949917353918702,-0.06539802015217928,0.14153510013049642,-0.024366357234387095
0.824,-0.07420572808803409,-0.06331280017992161,0.011443880557574655,0.07036972951578223,-0.04493160165276915,-0.025914986045284243,-0.015023302979632811,-0.034372165497827616,-0.09678146849857702,-0.0708743766808292,0.13197082397994037,-0.029753981078580176
0.826,-0.0589028332217614,-0.05199798789943978,0.007189911627551716,0.05661193115275072,-0.03437928004796124,-0.022516046456377597,-0.01499161835572732,-0.036166140383129805,-0.09550174730773453,-0.07290707506350155,0.12249881470727852,-0.03235708881861433
0.828,-0.04214165520794679,-0.03898979016189169,0.0032180483337754077,0.041902029559131,-0.02303289417700748,-0.01887287025947866,-0.012185668469587645,-0.03597637162623498,-0.09092257549347833,-0.06991614368082316,0.11762404347635344,-0.03183850706882933
0.83,-0.029377825461708296,-0.031220893139833287,-0.0018949367771522163,0.03192043633393539,-0.013920474898715866,-0.018226595998596953,-0.009737204806302309,-0.03428874761065422,-0.08279028336962785,-0.06343937773087693,0.12005520989651615,-0.02911752186048018
0.832,-0.020827906085341068,-0.029886231511772256,-0.00913858317677694,0.02675905794387172,-0.006899496185838165,-0.02092654535041334,-0.009430088026480809,-0.03290829190016795,-0.07390384587642979,-0.05893102856560579,0.12672117754904846,-0.025450221455798054
0.834,-0.017247707436542234,-0.03170363008871388,-0.014594101111241776,0.025451597323368793,-0.003629844060428129,-0.02394405922635427,-0.010040514188933014,-0.031963416196362025,-0.06827942131835914,-0.06011263603322088,0.13261630615826805,-0.02076657898509884
0.836,-0.021548316441992472,-0.03387903720772305,-0.012632295046478333,0.02878808814722963,-0.007280715672640852,-0.02398810830302867,-0.008990274013765627,-0.030120567912426115,-0.06687937707258287,-0.06463931491074648,0.13626963310334264,-0.014809631365964047
0.838,-0.034768327409589656,-0.03752564241353732,-0.00316379164481848,0.03798102286209661,-0.018048729829123443,-0.02148672936533147,-0.005947128493913153,-0.02778006571109558,-0.06839632609686029,-0.06906534418017009,0.13802412832357952,-0.009857954789280966
0.84,-0.05312186127970031,-0.0439317686259472,0.00892852214628462,0.05111771151051222,-0.0325258781926769,-0.018740599585986093,-0.003116839196048809,-0.02703795564865498,-0.0720619294064079,-0.07308410039741652,0.137868775355353,-0.008908787286270583
0.842,-0.0679958244497422,-0.04951002531934699,0.01849991575470436,0.06142178592842093,-0.044800361288588504,-0.01623009970131824,-0.0020466785133804464,-0.02818291929654278,-0.0760455526880526,-0.07544123715995145,0.13736488295224902,-0.01228995197520389
0.844,-0.0705519187070069,-0.04863897697701428,0.02205650432447903,0.0616185276339594,-0.04826894789208665,-0.013496918952197746,-0.0023672882575352075,-0.029214033259449268,-0.0768599424345055,-0.07283241061565791,0.1385864369283259,-0.01886221262202284
0.846,-0.06052562923726919,-0.04137096357374126,0.01922310328386789,0.05202943708959056,-0.04162558970531266,-0.011500926087174937,-0.0035068164304237074,-0.029616187484530307,-0.07413717809238302,-0.06644526214677063,0.13855303757308882,-0.02753712315379184
0.848,-0.04718581359927027,-0.03415059776869061,0.012992793686371783,0.04117430045972,-0.031248321864720752,-0.011832172420741397,-0.005610357781936958,-0.031481354154472105,-0.07202937557627999,-0.06353534935890631,0.1290552084438304,-0.03490178803846548
0.85,-0.03841027937740288,-0.031013757215830207,0.007339025510452802,0.035604383897394315,-0.024099384989498825,-0.013513913752040965,-0.007990934405719387,-0.03472602609455883,-0.07251716431804346,-0.06862540759629004,0.10882496143057703,-0.03474408354155168
0.852,-0.03599976747896806,-0.03055094300340644,0.005466065328403461,0.03532168391045364,-0.022701748231659637,-0.01369459217836529,-0.008680614502201497,-0.03506335954716509,-0.07219768833089152,-0.07675872508290692,0.09237012781698224,-0.02491990311691116
0.854,-0.04103419389533342,-0.03269399753828847,0.008500494539922583,0.03986467128319892,-0.02702941890778637,-0.01266363083438066,-0.0068539197875453995,-0.030202936478523755,-0.0686236297894446,-0.07926241167779355,0.09507999100832082,-0.012741227212369378
0.856,-0.05092902575525421,-0.037310151884790525,0.013984637998620833,0.04720499367297547,-0.033823531115609644,-0.01272048094551464,-0.0028871735570340155,-0.023283967171978566,-0.0636112830220769,-0.07361348593411281,0.1132886981951885,-0.007222977195684108
0.858,-0.05503358334949641,-0.03766615623162259,0.01791338661978826,0.04875562517497955,-0.03635351633887851,-0.01202161472619934,0.0034951405760474032,-0.017151067347409954,-0.058660745290645494,-0.06453296018605024,0.13029935623773845,-0.008656310441080967
0.86,-0.047694660992952366,-0.029187846529154227,0.019077025379801396,0.03979098325595529,-0.03241908841105693,-0.007367840178223848,0.01040612744476596,-0.011469768545625808,-0.05412108887947325,-0.058443016197532484,0.13535484348063764,-0.012134714653962791
0.862,-0.03913192093685759,-0.0204915243705918,0.01903558350568631,0.03013012388726007,-0.02853579418227672,-0.0021754788236487683,0.01221233457957473,-0.007740709662777321,-0.05314567951312657,-0.059684182131365046,0.1283661738707931,-0.01656832811918198
0.864,-0.04038092771828507,-0.022153548180583207,0.018365186217590358,0.031040401837452818,-0.0301283651676092,-0.002948917445146016,0.006455090600693748,-0.00972111983902177,-0.05961965170969952,-0.06894401231905628,0.11464120277445516,-0.023318428715264735
0.866,-0.046638517972241854,-0.03042293379887961,0.016283826942103036,0.03858212492073268,-0.033425405393512915,-0.008803065996668625,-0.0017137913496050898,-0.01643334018431192,-0.0715024592839381,-0.08170494956465861,0.10182840815007597,-0.02951666885067971
0.868,-0.04892232270987301,-0.03559211940356287,0.01368778164816895,0.04335157834145716,-0.033540174080396154,-0.013286793843863564,-0.006129199166797012,-0.0217759432671598,-0.08147586763561883,-0.09004491473214538,0.09653733740052937,-0.02962491085207089
0.87,-0.05160818054312966,-0.03965251240283022,0.01269606793900429,0.04797683312652536,-0.033748764983403484,-0.01546002795138758,-0.006517315159552277,-0.022738063872593636,-0.0853390210587647,-0.08973284278567331,0.0995521368365543,-0.023611838288911204
0.872,-0.06145298728069352,-0.04953949699724088,0.01263938988780666,0.05849153679915607,-0.037857433524090385,-0.01963044708828489,-0.006082836151325552,-0.021691918024602744,-0.08570658733885789,-0.08488928000464666,0.1062783004064199,-0.018091156891241928
0.874,-0.06950640307991389,-0.05973667649567995,0.010027692457055154,0.06722710182262757,-0.0401040025289048,-0.025565674088408843,-0.005590960268876296,-0.020515973014262813,-0.08633797850500317,-0.08265774437577382,0.11279338470156004,-0.01740959564452113
0.876,-0.06276294598876693,-0.0589174569602265,0.0036617692796503207,0.062438868186247325,-0.03326553728534862,-0.028330026418886763,-0.0029768872391183246,-0.018232988174205395,-0.08646167579713578,-0.08383312333656372,0.11942704886559816,-0.01831316592420561
0.878,-0.044588257758086836,-0.04688948003593879,-0.0025312879002882907,0.04656296911383904,-0.020968706474423993,-0.025575061297328925,0.0025720302760394117,-0.013825586308601359,-0.08250263917355201,-0.08182362175057016,0.12816317017119266,-0.01620995638084986
0.88,-0.02882255748776699,-0.031942870686273016,-0.0031188351662595226,0.030930367284558103,-0.012963705489611392,-0.01840241686605754,0.008922118152971403,-0.007561447652402936,-0.07379141800036017,-0.07146073217552469,0.13869618438355347,-0.011872904620092654
0.882,-0.023517113236420698,-0.020986504413766607,0.002796270514088023,0.0225590509192546,-0.013525763109057771,-0.009624510639417034,0.012929351671419715,-0.001188536697638524,-0.06509614884068231,-0.05681187497278969,0.14765919181172088,-0.008386858339560859
0.884,-0.029984426502228864,-0.020305501599244973,0.010224723855513877,0.025018577250823713,-0.020564464714858472,-0.005032117780150976,0.012442863585304643,0.0014400975257240207,-0.06358535694851404,-0.0490146442675877,0.15048009075689672,-0.006390026237490752
0.886,-0.04681080515963171,-0.03395319061400877,0.013709256781584208,0.0401510931885959,-0.030853970169618515,-0.009802910902402772,0.007184623086276381,-0.002852890622994921,-0.07310344072654167,-0.05610869434622019,0.14452280657617758,-0.005815280704380623
0.888,-0.06639715426262133,-0.055054090800973045,0.012299057109672187,0.06123678655111497,-0.040481567600662814,-0.021177615522382863,-0.000896092831226117,-0.012083547233549432,-0.0901835886236409,-0.07504717773019846,0.1316046550559586,-0.008718518267953434
0.89,-0.0754896095436201,-0.0679483583723277,0.008186236228775257,0.07334701019270456,-0.04361123898332435,-0.029953547393856517,-0.008138818836930113,-0.020262290542248266,-0.10592694956768749,-0.09431558104464403,0.1163332686853994,-0.017629747331537222
0.892,-0.06646751470099872,-0.06289418008932049,0.0036808553560460557,0.06680149594250565,-0.036898416005806005,-0.029756371634609084,-0.011203067828082195,-0.02307566357709044,-0.11316049043421507,-0.10387326471710835,0.10248844989432705,-0.03056422259322508
0.894,-0.04659454621825519,-0.046148828872272445,0.00020437218937280715,0.04822739055233102,-0.024823366306057762,-0.02307310991045991,-0.01004111107685903,-0.021249534036657684,-0.1117965401161667,-0.10173463790848068,0.09273024086334662,-0.03952351302458386
0.896,-0.03271720955092611,-0.03472831399473325,-0.002310800261857036,0.03520744555749258,-0.016448614092148352,-0.01875016370445683,-0.008090702673343372,-0.019243584995520494,-0.10682170464866138,-0.09244781134389009,0.08919263954152067,-0.038430008610796144
0.898,-0.034142849500435266,-0.03764364310529907,-0.0037998436708380594,0.03718035683404458,-0.016333203188820936,-0.021391895593394602,-0.0073314751388972536,-0.019963451031695164,-0.10152332296269631,-0.08141776392753261,0.09220288901825965,-0.03036330549553844
0.9,-0.04292808796269723,-0.044449376239454955,-0.001841420395103548,0.04483339294174057,-0.021149621009755818,-0.024448965984966837,-0.005471148071674591,-0.020844439033314028,-0.09505726550865275,-0.07160322748695327,0.09961158141302587,-0.021983856860031653
0.902,-0.045537845900914406,-0.04035503704093615,0.004961156678214818,0.044034804928490975,-0.025069972544760014,-0.019571119157261983,-0.0010451702030926198,-0.017838379672827948,-0.08711084532920037,-0.06416617706799214,0.10803968905076312,-0.01482547878287069
0.904,-0.03835188472061242,-0.025844980660724496,0.012493382389325685,0.03327585467506483,-0.025080459452879775,-0.008913490694110961,0.002910161832157806,-0.01162493895826349,-0.07979037109227635,-0.058864657001585614,0.11573134821785078,-0.007004920531113854
0.906,-0.02665350124770224,-0.011810092754259259,0.014930184241304994,0.020580362280429434,-0.02118744799436959,-0.000842005448372011,0.0033729302974607927,-0.006495863838171841,-0.07367755046858951,-0.05404460374610261,0.12305331287512339,-9.976886841518359e-05
0.908,-0.017104533829466848,-0.004321277618159598,0.01274075012038304,0.012365598264480752,-0.016235031006430707,0.001998323840879289,0.001927558745541265,-0.0047060017689715666,-0.06730438242797007,-0.04893155926099316,0.12875423356766222,0.0016712485766495015
0.91,-0.015023675812723755,-0.0027715765366496756,0.012031822053935036,0.01109535084535574,-0.015076150984926647,0.003000588961943016,0.002426221748236117,-0.004893553496024054,-0.061559275010149496,-0.04539059324923767,0.12935927427528224,-0.0015366378881119939
0.912,-0.02211335526404406,-0.006788204111441918,0.015182033892274285,0.01721919754115271,-0.01962168567157803,0.0028816690311252186,0.0047722855201925065,-0.006045098777278362,-0.06112570881624708,-0.04684061309636855,0.12331307775832873,-0.005727777236053457
0.914,-0.03435993081586703,-0.016901542789862122,0.01761536477235138,0.02853017360537655,-0.026074171492064327,-0.0015114335287427757,0.004058411906691192,-0.009855363131258732,-0.06881605335304261,-0.05493538370470861,0.11275676955442222,-0.010677818268457866
0.916,-0.04392651910087846,-0.02972213101348464,0.014506791359185188,0.039146691110399257,-0.028810189625525857,-0.010256934026549695,-0.0021911886599158986,-0.017418957992896663,-0.07975528800775487,-0.0658010949833277,0.10230941043619164,-0.019962541917494615
0.918,-0.04417960788012922,-0.03822625227462986,0.006089102904717895,0.042454909064072656,-0.025208621287031337,-0.01858261869675027,-0.009781017414736635,-0.025864999137440076,-0.08539673416882573,-0.07162673240574544,0.09776262149864251,-0.03266352235907393
0.92,-0.03376704908651668,-0.03600593915033577,-0.0023255526833324625,0.03529902811611921,-0.017108670493312102,-0.02060031010577909,-0.01258187325498261,-0.029593593110104212,-0.08205024980455258,-0.06749580686017731,0.1035674830072708,-0.0405807555640805
0.922,-0.018194003556699367,-0.0220390853426038,-0.003964896722492103,0.02056810526536702,-0.009515624281119954,-0.013423164978593707,-0.008832994516329856,-0.0256671432610733,-0.0727861954456836,-0.05558182871914644,0.11815573211900908,-0.03732000992887769
0.924,-0.008454219542314246,-0.006402335072000857,0.0020388227831732155,0.008552406399392231,-0.007333834385124473,-0.002511868597325129,-0.0031214358810678893,-0.018745719093306093,-0.06412780948837532,-0.044392338674101355,0.13112098166742933,-0.0281336970242682
0.926,-0.011922751332900702,-0.0037935283626411576,0.008187867916643542,0.009449973665587329,-0.011086936081067138,0.0009901561645324034,-0.0021115316413695307,-0.016994689361177213,-0.061285656174076726,-0.043045703623236196,0.1294456331976533,-0.024996512763136594
0.928,-0.022645701543831564,-0.015148938445999202,0.007510199392707032,0.02040232260499949,-0.01593290969918819,-0.006046106380749149,-0.006759545070872019,-0.022169922967475754,-0.06388319465460046,-0.05220140727253732,0.1104549995634024,-0.03159704033997597
0.93,-0.028210866687144603,-0.026887591216007842,0.0011770016408268996,0.028748288530980676,-0.016633609370830745,-0.015276192871606234,-0.011442018506315743,-0.028753354942857974,-0.06773493930472547,-0.06286761636064028,0.08607707831309021,-0.03926499131070337
0.932,-0.02602577197320178,-0.03079873041182872,-0.005126806559204755,0.029336245835099917,-0.013312301053203662,-0.019732939882441906,-0.012499709840518753,-0.032640362149309335,-0.07106427865325371,-0.06735407783581307,0.07138660439508565,-0.03939699750031949
