time,I,II,III,aVR,aVL,aVF,V1,V2,V3,V4,V5,V6
0.0,-0.0010750414137347445,-0.001294437620619386,-0.00021939620688464173,0.0011847395171770653,-0.00043879241376928345,-0.0007459471034077819,0.00043879241376928345,-0.000636248999965461,-0.000636248999965461,-0.001930686620584847,-0.000636248999965461,-0.0008556452068501026
0.002,-0.007509513920631745,-0.00904206778198516,-0.0015325538613534173,0.008275790851308452,-0.0030651077227068346,-0.005210683128601619,0.0030651077227068346,-0.00444440619792491,-0.00444440619792491,-0.01348647397991007,-0.00444440619792491,-0.005976960059278327
0.004,-0.023553047858010726,-0.028359792318829236,-0.004806744460818515,0.025956420088419977,-0.00961348892163703,-0.01634293116678295,0.00961348892163703,-0.013939558936373692,-0.013939558936373692,-0.04229935125520293,-0.013939558936373692,-0.01874630339719221
0.006,-0.044260703460542145,-0.05329350008514257,-0.009032796624600437,0.04877710177284235,-0.018065593249200873,-0.030711508523641483,0.018065593249200873,-0.02619511021134126,-0.02619511021134126,-0.07948861029648382,-0.02619511021134126,-0.0352279068359417
0.008,-0.05656280015074183,-0.06826070159247526,-0.011697901441733436,0.0624665999233297,-0.023066708573139912,-0.03939989135018979,0.02317640667658223,-0.03360578968104424,-0.03360578968104424,-0.10175679317007717,-0.03340833309484806,-0.04497459681245071
0.01,-0.053991642949527484,-0.06597969051367633,-0.011988047564148858,0.06031395614521911,-0.021896660543152233,-0.03841729560206688,0.022662937473828935,-0.03286125933705197,-0.03286125933705197,-0.09818437102349391,-0.03148196086183389,-0.042660174212613027
0.012,-0.043573418622803936,-0.054974318489221186,-0.011400899866417258,0.05014726525759999,-0.017453331213287123,-0.03269393404431288,0.01974700534025406,-0.028633157743368397,-0.028633157743368397,-0.08208007903629934,-0.024307087728631722,-0.033699915952676913
0.014,-0.036249796658399745,-0.04672819327413089,-0.01047839661573115,0.04287379742082798,-0.014732569754294928,-0.028163167287221527,0.01848269113591844,-0.026799902147081736,-0.026799902147081736,-0.07229104437344071,-0.018670385184941338,-0.027008451090440522
0.016,-0.03617415223947052,-0.04354605879102734,-0.007371906551556822,0.04131750484353786,-0.01632171479003566,-0.025127105818949086,0.019602746125329643,-0.027940213245547338,-0.027940213245547338,-0.0735756744270115,-0.017708286827281518,-0.026054654676822955
0.018,-0.040508542298916705,-0.04066212472760345,-0.00015358242868674738,0.0415776629038614,-0.021529895339320523,-0.020375186624487382,0.021912954464800835,-0.028394502709676916,-0.028394502709676916,-0.07748406375589624,-0.01957547932167198,-0.027329861967553826
0.02,-0.04534659474504013,-0.03498206218700211,0.010364532558038025,0.040438688627746924,-0.028163671336104965,-0.01269762250802016,0.02490294877161366,-0.025510404182734987,-0.025510404182734987,-0.07585801939931322,-0.020950321794357324,-0.025925340891046457
0.022,-0.0487541195623463,-0.02890499305215365,0.019849126510192654,0.03860733338136385,-0.033675739514308065,-0.00518713453842486,0.028114279617530217,-0.02084838888817487,-0.02084838888817487,-0.06965881349115557,-0.020660694839151957,-0.021599424647910564
0.024,-0.04998792780135172,-0.026388580541019238,0.023599347260332484,0.03799393650661166,-0.03587761035149423,-0.0020906526949797644,0.029910321249314663,-0.01810428950055882,-0.01810428950055882,-0.06529408914875705,-0.01958189600552612,-0.018240842146516507
0.026,-0.0488329558455718,-0.027698067049955113,0.021134888795616685,0.03857680739214487,-0.034330152285193205,-0.004100858500272916,0.028673835689053004,-0.018591155973296664,-0.018591155973296664,-0.06576287739290562,-0.01801677877985403,-0.018251734129029307
0.028,-0.04556574337015414,-0.029689962622181584,0.015875780747972554,0.038621977344068956,-0.03037873239928741,-0.008201968855253244,0.024666215997762933,-0.02026774133049431,-0.02026774133049431,-0.06830504583272966,-0.015087553832195472,-0.020032368756748437
0.03,-0.04077148425765217,-0.030016725453096357,0.010754758804555807,0.03684593860355719,-0.025562521262167934,-0.011482802647685373,0.020317598373192858,-0.020871150258883128,-0.020871150258883128,-0.06933785213069363,-0.011162421450520557,-0.02094372109327318
0.032,-0.03539340417901423,-0.029116100582060003,0.006277303596954222,0.03367925857669522,-0.020812973847095954,-0.013403377498203587,0.018307122172843422,-0.020471057376394406,-0.020471057376394406,-0.06869570351445312,-0.00867219817398751,-0.02052422429977535
0.034,-0.030790960646987612,-0.02850614512623848,0.002284815520749121,0.030588919948278382,-0.016860799611617693,-0.014633561137485434,0.01897290308026575,-0.021039218914761813,-0.021039218914761813,-0.0690350706080148,-0.009509906396588918,-0.020420773811091676
0.036,-0.02823622030236009,-0.02870178316828766,-0.00046556286592757843,0.02873648108254921,-0.014507545048819211,-0.015358150562484749,0.020338273002207155,-0.024015478022995917,-0.024015478022995917,-0.07231049012248546,-0.013285148298343336,-0.022417429004376484
0.038,-0.027961159554760272,-0.029126704185524273,-0.0011655446307640002,0.028346732467354134,-0.014057260037709872,-0.015407300912118668,0.02069674465143407,-0.02816655184533928,-0.02816655184533928,-0.07706703799257707,-0.01837286575498178,-0.026874954869318346
0.04,-0.02905342913372739,-0.029113306634495028,-5.987750076762811e-05,0.02890474295314521,-0.015049536861947502,-0.014829437611021914,0.01993263538915065,-0.030616349941766405,-0.03041889335557023,-0.07965573781809716,-0.023139761753850442,-0.0324111023075537
0.042,-0.030958527216984652,-0.028183294472900716,0.002797172364772415,0.029865077676263084,-0.017478182412289357,-0.013170340500051165,0.01816452467489481,-0.030267365712080215,-0.028888067236862137,-0.07791722491373965,-0.025864923945492148,-0.036475267745315135
0.044,-0.03409180805537787,-0.025770058566653393,0.00845306525417137,0.030836926312983518,-0.022129215931874963,-0.009198488947722603,0.014966742927956349,-0.02881711020135286,-0.0244910401866162,-0.07296669632489551,-0.025134200396297088,-0.036587492321873735
0.046,-0.037941599295626224,-0.021614965047041124,0.016654053308531615,0.030987645867278972,-0.028373821372731537,-0.002730938659592794,0.011024110382686348,-0.028246564286973627,-0.020117047324833243,-0.06809620087531508,-0.021740659604353604,-0.03223406331385219
0.048,-0.04028236335848702,-0.016446386937222682,0.024258581637642523,0.029397349559948063,-0.0333433852601987,0.004079664353061842,0.00834297320217001,-0.028955711925028778,-0.018394691196435997,-0.0661153864636925,-0.018591835205443944,-0.025768688068730464
0.05,-0.039411956602421444,-0.011828502236407946,0.02786093465807102,0.0263350911590162,-0.03444282051435246,0.00826189020611916,0.006957397162248384,-0.030813131813466205,-0.019804975736873454,-0.06699712099699383,-0.016968011524565802,-0.0206589470343653
0.052,-0.03568014434303196,-0.009231011927911148,0.026576714341118492,0.02318202191558129,-0.031424748429676325,0.008374673679854908,0.0035051390818878025,-0.03408350465297926,-0.023189280607492854,-0.06844392122651287,-0.01504134372817317,-0.018736043754604456
0.054,-0.030532233220609765,-0.008948375067196236,0.021896796372128186,0.020901398514484446,-0.026025763312236844,0.005382761712092341,-0.004863092407970026,-0.03801207345022716,-0.027554531728831884,-0.06873117542261198,-0.01168278641372051,-0.019256253796383814
0.056,-0.025250012723774428,-0.009943058040323373,0.01599376324955898,0.019184441103135903,-0.02040658389749125,0.0015013365047078524,-0.016829514066806515,-0.040427490500271654,-0.032428235678073104,-0.06791379218033343,-0.008617859324416662,-0.020139490447806326
0.058,-0.020448967093450413,-0.011308146655494775,0.009865096245863639,0.017282180858453438,-0.01549472679365001,-0.002167442862850963,-0.028920985152769495,-0.040266063552337014,-0.03694090932673112,-0.06628003143647013,-0.006952923776557049,-0.019597240299802643
0.06,-0.01598762897739353,-0.0135452963993492,0.00270667849110972,0.01533003583059185,-0.010440003088686683,-0.006612235818479633,-0.03928656119054196,-0.03892995541394973,-0.03972249272118187,-0.0634517701034822,-0.005001521076151572,-0.016804828708417766
0.062,-0.011356021527456722,-0.01754914288121555,-0.006493746047657406,0.01426521287964276,-0.003942957183175385,-0.013082337729118924,-0.047709491030525485,-0.038303993177070075,-0.04016263001403543,-0.05995004617180536,-0.0016736834458532046,-0.011991071425711583
0.064,-0.006213248047622992,-0.022691090560024847,-0.017043879694318243,0.014327939902934343,0.004025907866066072,-0.02086563451604655,-0.054132785849955976,-0.03870175889169276,-0.03924805284348111,-0.05772961145234328,0.0011423066364421876,-0.006374573451375331
0.066,-0.00045783870778185235,-0.02657873625559944,-0.026553967324780384,0.01420643446926169,0.012066997124712694,-0.02731670216613615,-0.05911344344708219,-0.039232217172977465,-0.0385462013444575,-0.057834147203000584,0.0014989349387445016,-0.0016675802880426957
0.068,0.005501545657477093,-0.02671544725271251,-0.03220790907924015,0.012164334353201847,0.018182341703779022,-0.02969804603039449,-0.06373359461442721,-0.03927239129246661,-0.038656976707338794,-0.05904260228433056,0.00019553924411551578,0.000811404874649066
0.07,0.01014305396141578,-0.022634405824883318,-0.032221905974464005,0.00808748617659925,0.020545825962630635,-0.027200502239389964,-0.06773040022495032,-0.039003603911867156,-0.03907867424077203,-0.05963105091279041,-0.0006960109902789983,0.0009946054414366062
0.072,0.011823703760328071,-0.0161646898219161,-0.027118828830211147,0.0036895913881630485,0.01866476939334851,-0.021378153795935214,-0.06968104506296387,-0.038853315720464576,-0.039221765423499415,-0.059172091334405576,-0.00011384005003493993,0.00044819796304721235
0.074,0.010899536393824107,-0.008945182535555525,-0.019154570499680744,0.00013834701448546172,0.013983957880269291,-0.014085841865424864,-0.06987012892784875,-0.03892802537713274,-0.03906260486096781,-0.057918882010575656,0.0025716912185961794,0.0019843550228605014
0.076,0.009547866525082372,-0.0009016407439677114,-0.010275919752522468,-0.0032795254039042184,0.008675464513595564,-0.0058190296603967805,-0.07099867152752816,-0.03904565788891425,-0.03890913676884329,-0.05547004297613477,0.00838250935862634,0.007805504511599836
0.078,0.009316517644103541,0.007741866154112356,-0.0017794654295857201,-0.007309973706472293,0.004230514221582424,0.0028522613626047306,-0.07514004782388925,-0.03906107533329028,-0.03892257361095745,-0.05119630163780659,0.016738519851680334,0.01677810784177016
0.08,0.009913280628080803,0.015039028471383907,0.004931128114346219,-0.011185522856151809,0.001253767539970611,0.010041625007056194,-0.08109439754310004,-0.038894555772304586,-0.03890292046894375,-0.0454331994445517,0.02444438873221319,0.02477495434656293
0.082,0.010326022706050677,0.01926117885236973,0.008942991812452958,-0.013809602722807296,-0.0002187830137840368,0.014201378195619788,-0.08512043337983455,-0.03809272726463114,-0.03817229285650084,-0.03915553486236937,0.02870490230413444,0.028840755671862776
0.084,0.010202014945232419,0.020596844787526568,0.010501426446465517,-0.015044898829851962,-0.0004992575574356598,0.015567277285982022,-0.08432668070742781,-0.03570338234868771,-0.035736815381214364,-0.03324017381926735,0.029656705261621702,0.029541465596908654
0.086,0.009918934744317414,0.02040842006900731,0.010536417391531553,-0.015342900322825972,-0.0001670320742402832,0.015427185017290516,-0.07994089253356212,-0.031235024753701608,-0.031207572697448636,-0.028893858694716158,0.02919546842938412,0.029066435506652798
0.088,0.009631898688383642,0.019620058003149345,0.009952948746173447,-0.014842546763578223,3.567119916328004e-05,0.014754890396353757,-0.07612600453496468,-0.02588420567918111,-0.02585284855948076,-0.02755180652337808,0.0286099103905972,0.028808640448011708
0.09,0.0084406996890158,0.017400477114143182,0.008917499953937516,-0.01264306991962563,-0.0005051275558668964,0.013168498581187018,-0.07463466448169857,-0.022482063762990112,-0.022482067438644605,-0.02968718754976378,0.02747575293962961,0.028926062571291863
0.092,0.005261613264615848,0.011858361553257863,0.006595752098968912,-0.007569868572764597,-0.001640933152811391,0.009248838940517187,-0.0731254794210031,-0.02330972954835668,-0.023326843641895908,-0.03419978939414957,0.02471789882097252,0.029077185705166264
0.094,0.001014438710165282,0.0032444012700199726,0.0022525325453698246,-0.0006611125795231439,-0.0020854913147359978,0.002753686832387704,-0.06990151335101438,-0.027266981844542935,-0.027275154433847478,-0.03865860724969465,0.02096620747887111,0.02907283749941162
0.096,-0.0016029474111977915,-0.005005924412041196,-0.0033916595021417717,0.004738982454218658,-0.0005481735303196439,-0.0042081821324232846,-0.06711548145792999,-0.030292256854497282,-0.030484277542038342,-0.04046023492048474,0.018787187919432364,0.029209451935393507
0.098,-0.001364287791460723,-0.009721401254523629,-0.008364023564284553,0.006479018381393942,0.002558865076308965,-0.009050045790112822,-0.0679273064499213,-0.02926724307707381,-0.030639485095891213,-0.03850660246116225,0.020137520233449557,0.03048770776079736
0.1,0.00011886790777360535,-0.010825252582505386,-0.010953596116588303,0.0056131917536156335,0.005278283132758696,-0.010887803013493525,-0.07253972411503382,-0.024735127026130767,-0.029060792989063083,-0.03387827037952869,0.024408947850808042,0.033790968879244564
0.102,0.0007729204018262321,-0.01027136002292019,-0.01104503519806492,0.004550736553165081,0.006111075866972337,-0.01065342133884033,-0.07775281052840076,-0.020031415716412523,-0.028164590554756692,-0.02927767865672509,0.028821349725965482,0.038049856342440624
0.104,0.000527729151603088,-0.009542653687825971,-0.010065572346515977,0.004277456953119997,0.005527263624852927,-0.009802716430288088,-0.07986222784560226,-0.017915899870823048,-0.028456948681274515,-0.027052607386658177,0.030827935469303763,0.04071467311628448
0.106,0.001263184125205136,-0.008262285138933744,-0.009522759670760057,0.0034787550834329676,0.0054120848126244375,-0.008894461827274373,-0.07764675614763315,-0.017514704139636846,-0.028390488144886344,-0.026583072030133326,0.030839348170650142,0.041206133988393005
0.108,0.004511100209771978,-0.005232798256746881,-0.009745229427704383,0.00046930605422814623,0.007018572565848787,-0.0074907023589845904,-0.0727260993184573,-0.01566057993989986,-0.02622580655469672,-0.025027774920653757,0.03189679245299032,0.04214306597220547
0.11,0.00903836094503242,-0.0010931579521417344,-0.010133633322371084,-0.00390935583159163,0.009523127411097825,-0.005613143776460562,-0.06812865804703933,-0.011684898341743067,-0.02171965738119635,-0.02157760954550377,0.03611262473341841,0.04603313202484347
0.112,0.01186165462343744,0.001662061250596276,-0.010199876998785832,-0.006789862986787952,0.01100472089823532,-0.004322715161040694,-0.06626194516945602,-0.008503399451599607,-0.016247890188874393,-0.018916993809023872,0.04257818732405708,0.05238369928825756
0.114,0.012282568095194806,0.002259386387559431,-0.010022163291214803,-0.0073185389556404065,0.010871814522259769,-0.004209317708191109,-0.067049356512187,-0.008325324231584684,-0.011676619704647881,-0.019871423558604637,0.04922229866293546,0.059029541226801326
0.116,0.013077441992764225,0.0031969764289155604,-0.009901763951943927,-0.008155625431826899,0.010634270729738934,-0.004226186947630191,-0.06838890340045879,-0.009913724824509841,-0.009266783763472744,-0.02421206216067478,0.05493295060398148,0.06452743200687361
0.118,0.016817310871197456,0.007029694922593778,-0.009941120820647707,-0.011955839120509529,0.012048424879129393,-0.0028409013324929865,-0.06867640133437815,-0.01084410957464163,-0.009048337462304462,-0.02887216720346518,0.05898286233728269,0.06813705008246569
0.12,0.02291892112769044,0.013352624069857929,-0.010025500986962737,-0.018219098986286094,0.015218549765219531,0.00021716405358803713,-0.06822481073856292,-0.010234669055227432,-0.009642186874724054,-0.0307399966213965,0.06060220993093344,0.06967118293985626
0.122,0.02931077301134559,0.020016585572439145,-0.010044299634584385,-0.024716435795014077,0.01898893044673946,0.0040706671811186765,-0.06856704138966564,-0.008228785987745737,-0.008858547183403077,-0.029144351731189462,0.06056226471744676,0.07107710339614917
0.124,0.034867513145683614,0.025538208022963558,-0.010007237004713235,-0.030129828306043882,0.02227229867539574,0.007731552997732701,-0.07107023729602753,-0.004832761735627109,-0.00544612518987511,-0.025436356886746617,0.06148640655547784,0.07577579825894552
0.126,0.03889883185605085,0.02914926800658921,-0.009979280860181117,-0.0338856397664084,0.024326697055813598,0.010258776239143168,-0.07586422264006848,-0.0009250436290160029,-0.0008795423215218453,-0.020956443015924028,0.06530840575577813,0.08433588780457402
0.128,0.04049962292683803,0.030144586681020248,-0.010205550843628484,-0.035246392748978214,0.024931866686909682,0.010787037387346331,-0.08184612288375791,0.0016312498719358466,0.001984458787295526,-0.01609072219860113,0.07131545646241708,0.09319322342262178
0.13,0.0398754877010106,0.028282586480261752,-0.011537247773362607,-0.03404026530912336,0.025048857702085453,0.008879610429514795,-0.08794474845867317,0.002756837970092239,0.002900255321426579,-0.010585540385837183,0.07738043172465253,0.09931953588715312
0.132,0.03871339474821907,0.02436046596280754,-0.01481654228923735,-0.03135217980630775,0.026142975091432572,0.004904620798494864,-0.09365531785930875,0.0047252763933966395,0.004601287105945236,-0.0046358109380022754,0.08239025529814252,0.10326072870020578
0.134,0.038409096574598636,0.020379964879616817,-0.019034914995505386,-0.028950345909106615,0.0282465046833206,0.0006159433395138336,-0.09800151761674004,0.008354132274140167,0.00821679346206591,0.0001412044784360805,0.08683693252481338,0.1063341757208945
0.136,0.03897698344005084,0.01858854047733978,-0.021583868271105575,-0.028187798061299358,0.02980321751779422,-0.00160294388504802,-0.09945525676665469,0.011085083519804072,0.011087165685972015,0.001897187879527054,0.0915464674560909,0.10820981402383542
0.138,0.04012949546018863,0.019753707942805298,-0.02132824202627457,-0.029434800426270676,0.029924491877660296,-0.001040218228299129,-0.09737328059335637,0.010028602249994767,0.010104532646275213,0.0009362505277916533,0.09658617139235881,0.10886194464294532
0.14,0.042471813218488357,0.02305926037717952,-0.01987432716516859,-0.03251854809496073,0.029768877221661924,0.0009870340444964889,-0.09282523785371882,0.0053300186457142,0.005365143823171409,-0.0004744044151022319,0.1014858891425245,0.11025141802955175
0.142,0.0467496801731573,0.02752054391281016,-0.01924350028381159,-0.03713690520767896,0.03108405574721649,0.0032178978883090855,-0.08832034805720843,0.00020917204061189458,0.00018451201229296565,-0.000714130960880122,0.1060784137001665,0.11426497560819493
0.144,0.052550830186122124,0.03270236764252854,-0.01970322403373022,-0.042734224942016376,0.03418414732518206,0.00561272292467947,-0.08607726268088779,-0.0016995894195256836,-0.0019499325777164508,0.00023985977245402022,0.11070627629180303,0.12056460446747744
0.146,0.058723534022401304,0.03851814310337168,-0.020265928804329543,-0.04874516868182639,0.03809585212934679,0.008689536284343569,-0.08542844925773063,0.0012752402580002346,-0.0002586376827307061,0.002750062349862021,0.11566804997355343,0.1279340332254524
0.148,0.06429132661050074,0.044520701726367046,-0.020287693757833708,-0.05462166585423559,0.041761584209170005,0.012335549551413612,-0.08352125595706704,0.008524393434722985,0.00375584464327503,0.008274947538193316,0.12084695454003455,0.13605858167721893
0.15,0.06819103511095215,0.049166966183730856,-0.01999251588765396,-0.05909422468822222,0.04425937063960647,0.01527727631150305,-0.07966285787988232,0.01748541369592799,0.00861435978506065,0.016589952481206437,0.1259608496756007,0.14437548702744368
0.152,0.06971587277612032,0.05093701864753408,-0.01992742707403722,-0.06082493146903513,0.04510002688965218,0.01623101140731308,-0.07656935453981986,0.024530272987970392,0.013615383374579591,0.024234686104359353,0.1307014607579374,0.15090923047955662
0.154,0.07024535596035719,0.050764908797790595,-0.020452820839156102,-0.06060779794735238,0.04517042510683542,0.015618953126403526,-0.07636935273514149,0.027058499844130876,0.018002676501443087,0.027400817997030764,0.13408776313024132,0.1535032623750728
0.156,0.07243333610790295,0.05179814357994433,-0.021252860234725012,-0.061276931295103046,0.04600999949936176,0.015489237684023287,-0.07789887768080156,0.025049712024524898,0.020660417163528632,0.025373237557099602,0.13426369839441066,0.15162875431699727
0.158,0.07648587075391759,0.05596126220807523,-0.020879227021322968,-0.06446963766926765,0.04740560514118142,0.017685484965011745,-0.07881296618632666,0.02107731088051619,0.021102086490609073,0.02104525378845716,0.13026676009533794,0.14741111098722204
0.16,0.07952414035843022,0.06172023503287814,-0.018073991306496937,-0.06871251638894946,0.0474862013133262,0.021992066521293166,-0.07844726840373635,0.018733928183092333,0.020450040578731083,0.018432607692194035,0.1241439267985282,0.14457284694415548
0.162,0.07959431825706077,0.06542418400133451,-0.014475731794581984,-0.07127081171768537,0.04609373079934473,0.025661074269139293,-0.07777508391795399,0.020105474714864215,0.020960183110254094,0.019374917754819705,0.12065131457092595,0.14538337716937563
0.164,0.07803311239129514,0.0646279635354996,-0.013895511525867122,-0.07092603210041079,0.04563836045606198,0.02560924460690086,-0.07764978161914693,0.024430579713602203,0.023997013272562328,0.022972407226173316,0.12384097546888065,0.14930930551747768
0.166,0.0771744785633189,0.060671888843690625,-0.017330466460096363,-0.06883831463808433,0.04741846650749143,0.022065069622322124,-0.07795524901153127,0.028844681106088312,0.028195958199181505,0.027681055523506626,0.13283179131678277,0.1545915921353512
0.168,0.07736444181158987,0.057290033113999286,-0.02118476549585294,-0.06703346890356282,0.04952347437257028,0.01859964242871327,-0.07849859894589055,0.030605253060100285,0.030528010005460314,0.03249449086019438,0.14195141386645252,0.1596258071807128
0.17,0.07671405455705298,0.05586148445303237,-0.02200099888785534,-0.06582144198647324,0.04940500909583524,0.017511236399906413,-0.08051385799161055,0.029094698519352855,0.02940715290492889,0.03607953390951624,0.14603680229103638,0.16259190237748625
0.172,0.07353685520729489,0.05415513027231538,-0.02040283554958583,-0.06367082230858695,0.04686403298667334,0.017394397640232706,-0.0860219719826909,0.02548637780475396,0.02567665567369683,0.03635432665053892,0.14426084692498536,0.16178666568870895
0.174,0.06899695554129982,0.05079524759668989,-0.019133992143004,-0.06028840947604875,0.04398900248991386,0.016296745705049315,-0.09459767023695005,0.021007542312783064,0.020928132092929364,0.032338563898261445,0.1390080356761373,0.15797096485772463
0.176,0.06623874058753514,0.04782887286983496,-0.019365727107470983,-0.05777157335103269,0.04282247939798392,0.014705291909495788,-0.10268332339565803,0.016197542069084445,0.016055993736887292,0.025726242528468248,0.13280515280619348,0.15443460335211673
0.178,0.06656969121926208,0.04742010252649915,-0.020164940139494353,-0.057671673731557106,0.04341837923044334,0.014133258908619486,-0.10771941488390983,0.011212848067074496,0.01118862195734572,0.018934428554417824,0.12618578127032698,0.15256809291696943
0.18,0.06817371504493991,0.048781614536327254,-0.020423375628699572,-0.058942861374614,0.04431189554835073,0.014696100516723513,-0.11093170927054,0.006150792262161789,0.006216455069440385,0.012093891698082504,0.11821389915248831,0.14942091596970247
0.182,0.06883513597391741,0.0497294269983409,-0.02011228645859766,-0.059672064146266794,0.04445226834277076,0.015313591092807059,-0.11491354765003434,0.0011058895760914726,0.00115046399381441,0.0036099387004369754,0.10929030598383004,0.14170151956305316
0.184,0.06811066009006184,0.049471401401940965,-0.0196034180267774,-0.05924600914895592,0.04382855677773416,0.01542713532001942,-0.12036248927399626,-0.00399695666007772,-0.004011501340414176,-0.006779507671274969,0.10183638781302903,0.13031709030014277
0.186,0.06631727664924612,0.04883219351385816,-0.01832160486927552,-0.05804147075112113,0.04224614927252597,0.01574928261757929,-0.12613643023656565,-0.009516894691410975,-0.009548166706712059,-0.01696955145896951,0.09725772961521377,0.11931618611097168
0.188,0.06336213770642704,0.048663882370442293,-0.015220283049849744,-0.05631183795839362,0.03906202141029053,0.017222669343597573,-0.13126757361905497,-0.01537811611829968,-0.015385115479325282,-0.02453232636008372,0.09407825116949071,0.11166625642735895
0.19,0.05988691896642103,0.048930816380085645,-0.011059691306308309,-0.05445229290715299,0.035025168984711454,0.01943925808228964,-0.13588764944630638,-0.020097612130928914,-0.020083889449059464,-0.029157654159052696,0.09002603215104718,0.10711944308805517
0.192,0.05794583196003905,0.049040441441958245,-0.008748375980058927,-0.05334614144105102,0.03273037411173441,0.0206363533649682,-0.14040383348327315,-0.021868818836884886,-0.021858444450208524,-0.032738061005587404,0.08438091608456878,0.1032878144180179
0.194,0.05925685766923287,0.04823343806978501,-0.01088738708957255,-0.053418288350398045,0.03432649640228315,0.019094997465269742,-0.14438921199371332,-0.020945731477420175,-0.020948264912858727,-0.03715613848143045,0.07737612238449645,0.09769147456888458
0.196,0.06337916778067142,0.04569099142312145,-0.017698462343920404,-0.05391716114797733,0.0396529050244401,0.014254554243900635,-0.14673343051778315,-0.01954532798141683,-0.019552199637567692,-0.04259403853515132,0.06911328145635515,0.08939357910382184
0.198,0.06774189005052299,0.04113038875521691,-0.02668781245527502,-0.05354982592527984,0.046273686960805444,0.007269756664064115,-0.14699964716106811,-0.019290121045634143,-0.01929202076854153,-0.04811426409408813,0.06054202475132212,0.08001174310437867
0.2,0.06958682519312612,0.03572015413785603,-0.03389790942580321,-0.05173496675205992,0.050959548797063825,0.000777664205370763,-0.14606882054099607,-0.01968266811926855,-0.019899221713796357,-0.05301946640741822,0.0539600240521567,0.0725853435020129
0.202,0.06814233921044312,0.03218413704529096,-0.035931993967257735,-0.049379751828639636,0.051641805658517025,-0.00225749799505716,-0.14485745047690476,-0.0188025155974226,-0.020332674948167206,-0.05697913461581271,0.051479550644363,0.06870587905755464
0.204,0.0645189715992622,0.03291907562746926,-0.0315704585901937,-0.04797174353219201,0.04808911202269304,-0.00011641826093231167,-0.14292171998482933,-0.015405711480563775,-0.020212863471885723,-0.05943697786637636,0.053434155914506655,0.06759502707564619
0.206,0.05999699078826881,0.037010608093157,-0.022986602100103355,-0.047565103988946214,0.041657912696054976,0.005905158938720576,-0.13919851281987558,-0.01088618798518215,-0.019920486008992336,-0.06000357870321766,0.057628204702061016,0.06770052109615665
0.208,0.05506500285481448,0.040497552441045845,-0.014583595418758012,-0.046616597082805,0.03467095517569552,0.01196609220523204,-0.13354316539261632,-0.00814771943114558,-0.019736417521044856,-0.05941249217099694,0.0604115914685002,0.06780013293053459
0.21,0.049331732046642776,0.040784274100752,-0.008555044291648571,-0.044020225088370966,0.02848535130457398,0.015666587272880925,-0.1263875649217027,-0.007763072401024536,-0.019093958109847205,-0.05939146810491956,0.05958774574621611,0.06672668864641676
0.212,0.041903399574712355,0.039130293600453614,-0.002745980513787097,-0.040054880638829414,0.0220665304823936,0.018316771949476496,-0.11790317955648415,-0.006917296728582246,-0.01679025091506804,-0.06147244166100083,0.05568539874955263,0.06371797260325214
0.214,0.032470989176409976,0.0381220125170933,0.005788955032351512,-0.03537723563955813,0.013598100868680296,0.02220200190026009,-0.10903651780879853,-0.0030124925328758787,-0.012253894287028912,-0.06591243444791661,0.050421637560476705,0.05983846235490533
0.216,0.022001728002122932,0.038289099010606044,0.01661511991595904,-0.03023921644681098,0.0031277340054931455,0.027344661381043554,-0.10199668165845573,0.002977996348760503,-0.006505578371836653,-0.07172532448143572,0.04516400527923883,0.05731462272124864
0.218,0.012001757012185782,0.037707042320778636,0.0261244376778147,-0.02463838662066305,-0.007043896207713148,0.03150300942673881,-0.09829654237008319,0.007147911849321959,-0.00158648741288505,-0.07785589702613108,0.04087272233088077,0.056269453664919755
0.22,0.0038663245058461106,0.03457438434281072,0.030961771288807293,-0.01899798849826221,-0.01410498492656428,0.03247656814935065,-0.09740753477103054,0.00640296834500831,0.000921391651013318,-0.08366861205050274,0.038400216786329315,0.05432699513516814
0.222,-0.0009796509660636825,0.030018580550993598,0.03097356863140783,-0.01475218563278693,-0.016746387064754766,0.03053229677560046,-0.09775666212648484,0.001962231878792615,0.0010027719314636262,-0.08805364419621506,0.03799473414119207,0.05065918739056521
0.224,-0.0019541978083920755,0.027031119165320097,0.028841001317100743,-0.013209465609866109,-0.01599211346304512,0.028110897205425516,-0.09791240327472912,-0.0019054239839649688,-0.00015642298840001418,-0.09010956397673076,0.038431462160498614,0.04723414721497524
0.226,-0.0005640528194663919,0.02595435187662044,0.026455344872090728,-0.013354044513687184,-0.013843403987230262,0.026273888499091607,-0.09661743497784664,-0.003611371814595993,-0.0022073796638369535,-0.09201776552390412,0.03676658141581074,0.04415772205821202
0.228,0.0006742106333630653,0.02309329767568002,0.02246448323283424,-0.012167238482503194,-0.011055759079877402,0.02271840378755671,-0.09318787612649007,-0.006600099863570165,-0.006779694953162433,-0.09849778772082324,0.02961487165996781,0.03765438981311088
0.23,0.0006110522328790003,0.015154863307274159,0.014599793856882572,-0.007817308846803962,-0.007043876493860363,0.014810734251321782,-0.08888713510070376,-0.014487271733147136,-0.01531085467472283,-0.1110756162467391,0.016038357318447986,0.025626161709064642
0.232,-0.000285614277582584,0.003511738406884726,0.003799706198550721,-0.0014658734783922496,-0.0020174979765597454,0.0036566566733912415,-0.08626900099981556,-0.02577040316584968,-0.026069792647997417,-0.1250661689009749,-0.0005046271703259243,0.011799070887193962
0.234,-0.0018916961599612008,-0.006931387950851802,-0.005068968022413261,0.004448799919605937,0.0016299819836129844,-0.005963479390599505,-0.0858206516233986,-0.03460360278806639,-0.0343023141097208,-0.13372191350895513,-0.013506257171143956,0.0018653759214919512
0.236,-0.004941347029696849,-0.012154102425853505,-0.007228021348917729,0.008490551962194805,0.0011545421252468129,-0.009674039362701699,-0.0848784176960342,-0.036260023507801095,-0.03595401422965124,-0.13410299946490337,-0.017725440488714498,-0.0019043417599264735
0.238,-0.008901590164503335,-0.012094676766649557,-0.0031844205371445037,0.010451892610453432,-0.00287439343391923,-0.00765143224243409,-0.08096240960686674,-0.031906613741919616,-0.03192464617352831,-0.12925164700780192,-0.013964509857600303,-0.0013395283310852343
0.24,-0.011671749219784002,-0.010218669111929327,0.0014655436113645702,0.010954096752899708,-0.006582515419370097,-0.004391524537297468,-0.07460243986006315,-0.027176269240467968,-0.027549090862847663,-0.1251534125187683,-0.00871923697671484,0.0002323816553061117
0.242,-0.012870767963527176,-0.010513118533728447,0.002358873458960955,0.01172115909856331,-0.00761307463503706,-0.004077784205576854,-0.06796628198303382,-0.025333351772342923,-0.026786516864474946,-0.12496302079110336,-0.007365250929653864,0.0007232519818250525
0.244,-0.014757581047046508,-0.014338247641979784,0.00041311735712008324,0.014556956029099705,-0.0075770100783974685,-0.006954716811783752,-0.06247814185067555,-0.02438294599684975,-0.02864861007630762,-0.12694726520398364,-0.009363602978036414,0.00020150278482483207
0.246,-0.01830738713001018,-0.019355080824585556,-0.0010513304884801448,0.018819621263822327,-0.008624986813239739,-0.010199095958692887,-0.0588678919043208,-0.021941644523495896,-0.0300020091756954,-0.12804801172549216,-0.011090264833046166,-0.0002885529662274421
0.248,-0.02126452351570795,-0.022189268714522793,-0.0009450297190795544,0.021705457689076085,-0.010162832795083208,-0.011580439010803203,-0.0575475315122366,-0.019239222989623245,-0.02947108588076269,-0.12774701929024776,-0.011082492737988971,-0.00035173706089330274
0.25,-0.021567581359674647,-0.02272690622486509,-0.00130980504563921,0.022071955814700537,-0.010132019178166028,-0.012098334207945384,-0.05745242764705251,-0.018540852052238987,-0.0273975824763604,-0.1282170936202221,-0.011353817750210979,-0.0008333851262575559
0.252,-0.020161637244756135,-0.023987534808529103,-0.004306149660636321,0.021840601030186303,-0.007927555903399731,-0.014387513943927625,-0.056029874381570456,-0.019626161142742973,-0.02420428859618188,-0.1313699130014964,-0.014252404056244136,-0.0031274106731429678
0.254,-0.019250343447067088,-0.02726105292607334,-0.008915301897976796,0.022806360820099413,-0.005165722934543015,-0.01853814836009584,-0.05169804650841515,-0.020592232909433635,-0.02076796855380976,-0.13599634195880894,-0.018865749988897958,-0.007746681825476977
0.256,-0.019549945437670788,-0.02999786471999163,-0.011585657523563043,0.024203097826738424,-0.0039813878675313075,-0.021359221792780086,-0.045483866747984714,-0.020270897799584384,-0.01855833551998533,-0.13880896321242975,-0.022008187908331207,-0.013539657987608648
0.258,-0.02018903663550877,-0.029175983860817933,-0.009966531912784174,0.024190177471820555,-0.005111872302242148,-0.020061646427906026,-0.03951517438940285,-0.018382999948877342,-0.0174239171852757,-0.13845672832643946,-0.022908125345687112,-0.018434781816757565
0.26,-0.02033460143223398,-0.024857020274221167,-0.005028480145371117,0.022342624463311818,-0.007653769349548114,-0.015196834261717099,-0.03465884183157183,-0.014886511387289126,-0.015268012847339283,-0.1368128594223478,-0.024172395755292807,-0.02090685262994125
0.262,-0.020056871807849187,-0.02013494615438631,-9.880314169314654e-05,0.02008685657298901,-0.00997903452845755,-0.01012741684834258,-0.0302626127375014,-0.010866581167731999,-0.011546856971278077,-0.1361440324870982,-0.027250188200541828,-0.02098421914352623
0.264,-0.0200422640043106,-0.018313458542387914,0.0019170861940886047,0.019272713305619662,-0.010990258247124811,-0.008114525681635265,-0.02559554931508071,-0.00831151876005334,-0.00843209322183881,-0.13668926086212205,-0.03030861876509009,-0.020062046852198
0.266,-0.0212741909595577,-0.020360645534811147,0.001019809269070425,0.02087017411554721,-0.011223443010894407,-0.00969358285204902,-0.020704528934220465,-0.007247735724555041,-0.006938776096306585,-0.1373135410497956,-0.032043112648693056,-0.01955425315735198
0.268,-0.024360545551087236,-0.024772661911511965,-0.0004535555300459039,0.024545316149541637,-0.012193954975561123,-0.012874274770120113,-0.015913464793132888,-0.005308139530685395,-0.00509590966225725,-0.13731805549210266,-0.03402638535632955,-0.01976219054561596
0.27,-0.0282033324890949,-0.02887338068994098,-0.0007450164739367143,0.02850080636793926,-0.014180957314774343,-0.01529855539208059,-0.011186035880122637,-0.0016593317969810445,-0.0017263561882132706,-0.13698103503398237,-0.03733912597533645,-0.020124547581556004
0.272,-0.030445824729890433,-0.03087390098146685,-0.00044169663068553217,0.030708180121252808,-0.015636332459462804,-0.016222131144496332,-0.006394667792264374,0.0010968884631119358,0.0010589756306532405,-0.13681761560808417,-0.040133638105384846,-0.02027404011865161
0.274,-0.03016589309977831,-0.032260730062382996,-0.002060951952896841,0.031558712544421164,-0.01494725078437391,-0.017557114134234983,-0.002065342712435787,4.1588529506189094e-05,0.0006642874054182369,-0.13692328945884288,-0.04048831349449397,-0.020743347620404935
0.276,-0.028861690560821236,-0.03674507555935167,-0.007837954468068266,0.03368845403041409,-0.011867925582099155,-0.02230366297477922,0.0006385197465867765,-0.004670220687064584,-0.0030784630803993526,-0.13706287815037924,-0.03919531768410017,-0.022707122745814257
0.278,-0.028323223936782892,-0.04522592183190387,-0.01675669052900025,0.03815562507476653,-0.007553532591709235,-0.03063036457354816,0.0011244034976049897,-0.009798029205190899,-0.008511757563413281,-0.1370718851722629,-0.038309655623599385,-0.02683761815451916
0.28,-0.02874860176007484,-0.0538530763724163,-0.02464005704678759,0.04280493754804239,-0.0038113514218659746,-0.03882139545372534,0.0004923803973596156,-0.01203199282633671,-0.013716157145686504,-0.13700001974646903,-0.038559869105017755,-0.03234510671726489
0.282,-0.02924461203728874,-0.0581088452165038,-0.0279866973067585,0.044995503996789234,-0.0020222515718067184,-0.04287055192859215,0.0011107937789065082,-0.011130939352711828,-0.016678931381510928,-0.13696078066500944,-0.03916140370144329,-0.03728773626422897
0.284,-0.029252876611287684,-0.05669436706518548,-0.02642887209359474,0.044124945132568844,-0.00257138107323616,-0.041587925824874084,0.004465505480349679,-0.009536830671241146,-0.01577871016076971,-0.13698125647023326,-0.03931598861488295,-0.039932368760948245
0.286,-0.02898749625593218,-0.051403110105723716,-0.021757697473488217,0.04136059165169721,-0.004950851196802797,-0.03647938474149493,0.009094964215368213,-0.009189756606462991,-0.011919554860337724,-0.1370124500764018,-0.03906306250819253,-0.04007381564777236
0.288,-0.02885624700962206,-0.04516648536943767,-0.01622741688302387,0.03821894633406987,-0.00797257676644007,-0.03026130946772365,0.012020539182292303,-0.009532396374588277,-0.008414376629407635,-0.13690647748214738,-0.03863852588942119,-0.039091318997286906
0.29,-0.028938210209740786,-0.04039970951639252,-0.011699752557875396,0.035642505831012236,-0.010208285874997808,-0.025403870577984704,0.01312887142985351,-0.00796226867459211,-0.006564558496722767,-0.1361249569886969,-0.03736522441138971,-0.038519855387188884
0.292,-0.029048924265654506,-0.03818211003499202,-0.00929709045365782,0.034010106072943434,-0.010855100573119569,-0.023132483252684133,0.016195175762144805,-0.002165334864764896,-0.003287495502131844,-0.13371227052181744,-0.034221952441131236,-0.03872991437207852
0.294,-0.029057078592136413,-0.03814368973633575,-0.009045820047882933,0.033445931061559145,-0.010334015283975331,-0.023117696996735826,0.024275511865980735,0.006910567330612106,0.004757784710024933,-0.12919974199399362,-0.030036683859129495,-0.039127880293618064
0.296,-0.02921995872862474,-0.03916715302788144,-0.009841230345580279,0.03391212104365211,-0.00985505028782216,-0.024072098393667415,0.03598817600219149,0.015441950999854528,0.01633433279317048,-0.12330287363789136,-0.027231864687000052,-0.038986066727523
0.298,-0.03050167401711598,-0.040912856563617844,-0.010382405612991818,0.035638204998912515,-0.010474469399776079,-0.025167753084849854,0.047445946559444896,0.021129689838567233,0.026490974728021283,-0.1170914575371747,-0.02625968700705396,-0.037495411753272166
0.3,-0.03379168806857604,-0.044008187645540625,-0.010260041250223482,0.039013393692314116,-0.012400174272708042,-0.02660693872544023,0.05580508108852994,0.02503522576774797,0.03108313459149302,-0.11150007410809751,-0.024864510070208165,-0.03409474385473257
0.302,-0.037932758711069575,-0.04792672007526606,-0.010030329240188257,0.04307651352474706,-0.01456184190988129,-0.028509480346910424,0.05994560709460741,0.028329740432938406,0.029551505124082403,-0.1085904156736804,-0.02224697412038402,-0.03001472530953318
0.304,-0.03952760254744243,-0.0502112068535991,-0.01069917683558125,0.04516967531183906,-0.014883735955302332,-0.030286887487865104,0.05964909785347346,0.030220826730580234,0.02441128255237879,-0.11079956640532666,-0.020718131849522117,-0.02798275420570017
0.306,-0.03556398178650941,-0.04889159256920409,-0.01343606409985852,0.04296657767523277,-0.01146186439829201,-0.031507999084959236,0.055437967876796335,0.02993631124062208,0.019200261924990615,-0.11668702333581121,-0.021539589565451184,-0.028584768185507512
0.308,-0.02597881735987612,-0.04491065040146518,-0.01925181232022346,0.0365708003809215,-0.003907192000035086,-0.03277435849350325,0.04919568617335988,0.02816861419509958,0.01654790289299715,-0.12020292736835113,-0.022531903105615536,-0.028844699790483947
0.31,-0.014224690531434964,-0.04165814369803213,-0.027864980030599305,0.02896998238826992,0.005783378431283833,-0.03551834709484232,0.044471370658523704,0.026015344609744452,0.01682838971850709,-0.116875707968021,-0.021604434807184186,-0.026499256200656365
0.312,-0.005598523383894936,-0.04117175468972022,-0.03585903191202401,0.023840916833166872,0.013366956747246741,-0.039610055220709324,0.04349238028906279,0.02403766967205059,0.017460715172238395,-0.10874708004105091,-0.019523869291285596,-0.023272574222365283
0.314,-0.004006537820610036,-0.040541690183495974,-0.0366398998965793,0.022121733495847964,0.014046573617474637,-0.04057514297447398,0.042219718252385394,0.021910471997575138,0.01434538449809042,-0.10196429864342739,-0.01746716075798756,-0.021729780044654125
0.316,-0.009292662646514783,-0.03484856891751329,-0.02573256081110887,0.021746179148965608,0.006105178004000212,-0.03287989641963499,0.033171165815124436,0.018359364792537695,0.006177784229561171,-0.10103860030978519,-0.014813438853937943,-0.021546051546006063
0.318,-0.01709870894091234,-0.024606175835139407,-0.007864971808163005,0.02085432767105773,-0.005928612795630903,-0.01818834428247861,0.016466460897023312,0.01265757130912592,-0.0030407716870898428,-0.10542688805796571,-0.011427757690604402,-0.021094648468644284
0.32,-0.02182833115800743,-0.0162122970138622,0.005312552619859845,0.019613143692405504,-0.014143420591260837,-0.0058898138514024475,0.0014717543726517237,0.006031995828804889,-0.007963852713824379,-0.1107846380593581,-0.009663507749111358,-0.020477238795063548
0.322,-0.020569981203475834,-0.01380656535490059,0.006730777523180114,0.018500997497718163,-0.014454505118654296,-0.0029824904666802435,-0.0062803814937581175,0.00030043740221684617,-0.008065451133432988,-0.11360886060302972,-0.011828280718284217,-0.020811454902653514
0.324,-0.014501763211162989,-0.01509432773859503,-0.00044884520982602636,0.01664623777176682,-0.008984149115721698,-0.007613967224424667,-0.01212837973153945,-0.004237169142175308,-0.007924884501961769,-0.11432202243436503,-0.016837113891232436,-0.022009467025253037
0.326,-0.007476205835566628,-0.015988951243243094,-0.008418850533979534,0.013323168964546786,-0.0024742377092742285,-0.013449120616658023,-0.02271646606165784,-0.008602851582401969,-0.01148694059845341,-0.11505278700549698,-0.02097459803328136,-0.022915328295854732
0.328,-0.0032356054698803568,-0.015285223898481273,-0.012079963021478025,0.009798196682896757,0.0014642591196027967,-0.01619276926578013,-0.03675904394820517,-0.01362574436382924,-0.017910678034771876,-0.11562331197799856,-0.021716367635918058,-0.022153760554109857
0.33,-0.0023216532629839306,-0.013513431509200766,-0.011257380164833554,0.007528097285079201,0.002267527395046808,-0.0150779631959642,-0.04895933501166734,-0.019353463342365883,-0.02339384546831451,-0.11439875941948494,-0.019544154681813492,-0.01832913427496289
0.332,-0.0016319739671066494,-0.009776207521981214,-0.008159388832753283,0.0052205107916937655,0.0018949294006424496,-0.010820504532593872,-0.057612584355971524,-0.025082173906358283,-0.025469563786546544,-0.11199385522851243,-0.015992402895630593,-0.01199058103871872
0.334,0.0019354286663737761,-0.002416337746494041,-0.0043233556689821605,0.0001950084575553423,0.002153640186803976,-0.004335277867047654,-0.0647149965560597,-0.02928806712653174,-0.02480783099035298,-0.11085429819444792,-0.011639095639769977,-0.007003948450317287
0.336,0.007920924257601224,0.007277177763149512,-0.0006219086381514803,-0.007310378063113973,0.0031560551769324804,0.0025277709330485693,-0.07171392694876293,-0.030346915919439624,-0.023578863706355598,-0.11176456974994976,-0.006313401741180755,-0.0064636290702109606
0.338,0.012860759371458147,0.014974737009862574,0.002108922678955068,-0.013452293313188967,0.003812623986839621,0.007426389104890154,-0.07833626975625363,-0.027479490166991905,-0.022728660029741162,-0.11234839271785743,0.0004244099875437396,-0.00787752333756797
0.34,0.013759539539556965,0.018178174068892022,0.0044262490772306266,-0.015222023922650287,0.0027561934659690976,0.01013749315051999,-0.0840019710233059,-0.020945911691613896,-0.021127338507416053,-0.10910799858026438,0.008870853443419056,-0.00567962901227703
0.342,0.0107709297798994,0.019111094870744163,0.008467397019339738,-0.014009765413414766,-0.0006540636928429216,0.012956820683440494,-0.08799953327617227,-0.01248001135380065,-0.017366852862706984,-0.10151965406359517,0.01773033069847499,0.002174129530665374
0.344,0.0066984757401836285,0.021413048695403933,0.015069797598855702,-0.013345280613840882,-0.005582773215111183,0.017390791740760046,-0.08970752391414251,-0.004825263555714802,-0.0116210376538825,-0.09325103166120546,0.024133874244604954,0.012290106202549712
0.346,0.004255096742543367,0.02504096857644221,0.021344823052854015,-0.014285723574130908,-0.009781895375103801,0.021568866616917363,-0.09023575433054525,0.000812840052422776,-0.005156483582638859,-0.0882252100824327,0.026693635305598495,0.019022327733369364
0.348,0.004175797035919795,0.025916438148459495,0.022322802375629263,-0.01482476688508767,-0.010641413332421518,0.021662183567428637,-0.091727633225335,0.005439622264587008,0.0008512336482115998,-0.08702728748143743,0.027294785013051673,0.01879781394122862
0.35,0.005684865884015373,0.020974276396601307,0.0156832158025045,-0.013131335612050711,-0.00696148098240826,0.015934293764316987,-0.09405950805957985,0.009449945876398573,0.005257076065180179,-0.08758586517451698,0.028711855579397663,0.01376412413621231
0.352,0.00760163218907846,0.012020424667829361,0.004527478928795412,-0.009496499010266878,-0.0003204422488720268,0.006942803875184162,-0.09452475058905697,0.011525052238149758,0.007404074298053612,-0.08764629276096422,0.03132570389108141,0.010017483025029673
0.354,0.008106073909209357,0.0029256547215736543,-0.005268107347822517,-0.004808234224587288,0.0053513912178407685,-0.0013024722629548576,-0.09061643161160496,0.011240404000711244,0.008212530750592946,-0.0868354994072102,0.03245325455147458,0.009541354570819826
0.356,0.005106842290563202,-0.005073903036130237,-0.010279261182100192,0.0010338757411940769,0.006710523927557449,-0.007563734438806441,-0.0818976211701153,0.010586171281100789,0.009122450317007733,-0.08756456193617099,0.028676113852098468,0.007476223129893307
0.358,-0.0009489634023878633,-0.012681624117861013,-0.01176150344377311,0.007822537865408931,0.004344158414421925,-0.01312497394149993,-0.07092904997515745,0.011614068494110445,0.010187597255086594,-0.09296940807328817,0.019340251752008437,7.815583171948804e-05
0.36,-0.006299945381435082,-0.019568805652784828,-0.013352563511213804,0.013846694339888915,0.0021834839199749807,-0.01870681344608364,-0.06233783187671892,0.013517013999277239,0.010693694206307397,-0.10297556256320181,0.007618299508856705,-0.009412305226525633
0.362,-0.00829429496182921,-0.024966102844935407,-0.01699462045686725,0.017800377385072164,0.002767201162039209,-0.02357595532078348,-0.05932189782038257,0.013644775178731024,0.010770030991700902,-0.1133190700193228,-0.0019897409281917694,-0.015417589188706863
0.364,-0.008913807829152506,-0.02891083428365496,-0.02058580127087484,0.02048839388673951,0.004225665217973535,-0.026479744690482646,-0.061733283824117156,0.011287153962933784,0.010671867786398365,-0.11916496330274612,-0.006813858009474606,-0.016481724298839654
0.366,-0.011840226802767192,-0.031092302401315376,-0.019986874551691035,0.023119256154927402,0.0028923745898908376,-0.02631770455308051,-0.06671304704995125,0.00835631061704663,0.009491200483141804,-0.11952951916467314,-0.007608853040007261,-0.015317453365330684
0.368,-0.017545538061919386,-0.030893307683360512,-0.014074880500604039,0.02556388870869306,-0.0021450688772150163,-0.023315237388320552,-0.06974943501660257,0.00651686387919532,0.00698261084990137,-0.1176890334400915,-0.007524822560936568,-0.015140662152260995
0.37,-0.023027912716813564,-0.029355078123428007,-0.006849651667253728,0.027371900398205074,-0.008078355346511393,-0.01992951130735609,-0.06739446477242123,0.006216167009906431,0.0057296128780015285,-0.11685171166709145,-0.008692593817898248,-0.01704773188947492
0.372,-0.02549373184154342,-0.028937110543227756,-0.0036038188102122826,0.028631830216725843,-0.01144471029517402,-0.01907716447705935,-0.06022866469311657,0.008049076629253759,0.008577868118153979,-0.11687804349101316,-0.010352656299326073,-0.019695488407534847
0.374,-0.025018799626055334,-0.030845309644052247,-0.005703585087016455,0.029343349982280574,-0.011423334534848277,-0.021215036049569265,-0.05172020255290025,0.012457001544203282,0.014507941509600664,-0.11648515976498583,-0.01089431868145636,-0.021068787942935263
0.376,-0.02397354415996475,-0.03390130800091255,-0.009779712284335789,0.02960295604473283,-0.010090746262945318,-0.024162718353430687,-0.04473578041831182,0.018251800573228963,0.019442947008624405,-0.11606729327040748,-0.009951758920401456,-0.020477068527669836
0.378,-0.02502032453990627,-0.03681660115902655,-0.011782203376839998,0.030685850314754973,-0.010044806401411123,-0.02598570445320861,-0.04028854566337918,0.02313222480636632,0.020509895825835803,-0.1163400876706911,-0.007360677509028805,-0.018268654194039197
0.38,-0.029416265286327223,-0.040331564070645594,-0.010986169011537723,0.03439769501880735,-0.012078615964996006,-0.026978675426129965,-0.038326232553926955,0.025877923309793816,0.018167131697751485,-0.11641287393596358,-0.002472476786598828,-0.014732660103439134
0.382,-0.035586263049121054,-0.045101008932994006,-0.009556552561733454,0.04021713489882368,-0.014749738371449503,-0.028170343983932807,-0.03823210784417333,0.02724550476650247,0.015111960115732027,-0.11489477788979181,0.003626988347244317,-0.010744105641900982
0.384,-0.039435782732920574,-0.048611613537267895,-0.009157643179477844,0.04426971056268984,-0.016079674825628228,-0.029129281796653715,-0.03912242150993128,0.028285222566514886,0.013765053173452047,-0.11215912174209476,0.007851039960979418,-0.007949844914182571
0.386,-0.03780314367032921,-0.046958581784368174,-0.009124082015120005,0.04292491601480442,-0.015564696900565798,-0.028250248938212104,-0.04073616628199984,0.02847366770050309,0.014335327550055205,-0.11115449365416942,0.008342503585281219,-0.007295328242408915
0.388,-0.03163203792801799,-0.039666078379387376,-0.008050911686121119,0.03675875836206713,-0.013909331939779336,-0.024846248589233275,-0.04312665289400316,0.026389167907925105,0.015300980383252812,-0.11552812331612713,0.005348847989585634,-0.008856990014777018
0.39,-0.024701413305989222,-0.031116707098411887,-0.0065832152346131,0.029662408075233897,-0.011264405602508649,-0.020710645114138518,-0.04479134518624419,0.02179958839402988,0.015489951694269926,-0.12541347109459608,-0.00036142266696904805,-0.012638830309478781
0.392,-0.02001891848007645,-0.026625442046477054,-0.007075023133041099,0.025137826323292218,-0.0075402909892576895,-0.018881668149317063,-0.04342040560512071,0.016427829662493267,0.015268850747379423,-0.13562007628661868,-0.007013242687493744,-0.017731258851709453
0.394,-0.018898143631992197,-0.027712281114690766,-0.009560823279832835,0.024745032402987577,-0.004782271148962597,-0.02014168130842208,-0.03911837896579296,0.013144390019570861,0.016148769262464745,-0.1404534628677637,-0.01158353765284294,-0.0213561297957098
0.396,-0.021660159871738093,-0.03163320755600874,-0.010644271265853596,0.02811892408055873,-0.006273858091214591,-0.02202279378180183,-0.03419681940428564,0.014061779163812191,0.019177747975595776,-0.13991436608935365,-0.012793150051750846,-0.02080992240354885
0.398,-0.026251731337576495,-0.03466817090776414,-0.008644822483049267,0.03233290337353356,-0.011350254935916633,-0.02236398972573803,-0.029799601232740256,0.018110357071071396,0.023184381019927595,-0.1386669292341824,-0.012600131766308009,-0.01688025605456477
0.4,-0.028644067656683314,-0.03532127164864058,-0.006508802553562029,0.033690059127091776,-0.0147666831099579,-0.022038358502535837,-0.02503906614305305,0.02136058119293036,0.02553640091859525,-0.13955289326876974,-0.012761397444503811,-0.013715108014945568
0.402,-0.0279759242853512,-0.03501085090262587,-0.0068281900054537655,0.03243914120836503,-0.013810864000225336,-0.02274117027724865,-0.01935249651761001,0.0209502440556504,0.025131706975366538,-0.1414488447881034,-0.011935801178381366,-0.014656510306777858
0.404,-0.028087605739781796,-0.035914899200829686,-0.007809620037628208,0.03277900608067189,-0.011854899221242715,-0.02412648039778204,-0.013894226205216997,0.017708949957631195,0.02311513531607291,-0.1430738746882197,-0.008065257814777705,-0.019224335834010897
0.406,-0.03137757135000761,-0.038164079853408445,-0.006887534157775233,0.03651025883714647,-0.012618192660460095,-0.024752236652788855,-0.00990557780553687,0.014633869549030449,0.02048393637776677,-0.14472965765175022,-0.0017522661050028106,-0.02399072036926781
0.408,-0.035135111982353306,-0.03999968617730682,-0.004922747072156881,0.04036605742804213,-0.015131698261698906,-0.02444100227346178,-0.0071822038795142686,0.01384741225481463,0.017178839481943736,-0.1463858666641413,0.004328776504994185,-0.025897373561292004
0.41,-0.03610704345960686,-0.040777027826025165,-0.004643176405564524,0.04114634160704868,-0.016363717750920354,-0.024526862033970552,-0.005207347880463292,0.015335881806954894,0.01402182941700989,-0.1475782939506888,0.00787815562796716,-0.024956272037752747
0.412,-0.03520508336870394,-0.04227551962295648,-0.007026038065594516,0.040208120602043186,-0.015631452001433725,-0.026216921122281883,-0.004257110751871192,0.017920754230932985,0.012915991938198649,-0.1487177387629153,0.00812971819980988,-0.023428779928013052
0.414,-0.035444410618125664,-0.04631651219772061,-0.010843568225889744,0.04124802085112036,-0.0143549622237259,-0.029489226831481082,-0.004464053018675612,0.02055539909811848,0.01433246155252596,-0.15014062847544252,0.006173506455177469,-0.022549952087083876
0.416,-0.03710195556811453,-0.052141755607834454,-0.014929538200839181,0.0451854802193222,-0.013028223447207225,-0.03377522250998726,-0.005088162196390919,0.022490593038480073,0.01669098980625099,-0.15083792963658332,0.004218967402904833,-0.021421083840472865
0.418,-0.03753941851659561,-0.05665337434012659,-0.018800184806742126,0.04874363579576255,-0.010927030618827525,-0.03819395740528465,-0.005323309607404569,0.022656001478026492,0.017741346242372637,-0.15013655547436544,0.003420799860523834,-0.019713279916801454
0.42,-0.0355726581904981,-0.056829318223164275,-0.02082908521472697,0.048381450870810715,-0.008763531174721602,-0.04043858772259031,-0.005110559676286907,0.020145955187747075,0.015797692988436425,-0.1498611047917515,0.003245499845424342,-0.019388338488903718
0.422,-0.03326388567205074,-0.052233368238909346,-0.018704121311681372,0.04441879632592291,-0.008847573710303739,-0.03801282152224126,-0.004989052923077731,0.01599906721705805,0.011626424648432231,-0.15270045635615953,0.0032055136471992865,-0.021823667474794247
0.424,-0.03278207724607548,-0.045712723922851355,-0.012954341618038946,0.040279959454841426,-0.01167498066026601,-0.03185218755973708,-0.005429413209151315,0.012700125689630366,0.008691192730712182,-0.15861516513205243,0.00322369302679935,-0.02542154732240569
0.426,-0.033765904783367995,-0.041750120680934984,-0.008134426722755427,0.0389115777468802,-0.014419990669308592,-0.026923118137375208,-0.005880333024770062,0.011227238595475926,0.009897666826960994,-0.16450952636563496,0.002621341624033039,-0.027831312925323926
0.428,-0.03453605429645576,-0.04354835649457512,-0.009056766425776762,0.04080141047903533,-0.013962367804114495,-0.028025929999393878,-0.004778163849403393,0.01057036883504777,0.014755169697454572,-0.16743224604255194,0.0011275887026930412,-0.028208204618698413
0.43,-0.03438515180523746,-0.050441777129337464,-0.01587829351261117,0.04436923908159481,-0.010361136958704047,-0.03511841099990059,-0.001788816160708439,0.010076860539815992,0.019868183695514744,-0.16708679703705426,0.0002518500071663161,-0.026800010348547874
0.432,-0.03389411719188045,-0.05804752412102407,-0.023767406446053144,0.04746684410350289,-0.006469829406820176,-0.043296317038486,0.0010564027906426491,0.010420033848539654,0.022018108246169114,-0.1650034427412515,0.0018151382999247276,-0.02430951261003458
0.434,-0.033959400303911695,-0.061755186311968656,-0.027370470020295305,0.0487576958359326,-0.005144086680546688,-0.047216696643805574,0.0021875775740899275,0.012208543106080183,0.02108612488698007,-0.16218219738254985,0.005892328544215904,-0.021060927956390113
0.436,-0.03524667036838824,-0.06053007256837403,-0.025036445633192305,0.04860475659271523,-0.007195361411800848,-0.04534851808943521,0.00276537098756665,0.014599348471824527,0.019523172527347754,-0.15895498632596974,0.010950651654350085,-0.016545320668628318
0.438,-0.03738419021779381,-0.05757562399083102,-0.020079908634612786,0.04867660786067405,-0.010386630792705003,-0.04108619436008412,0.004657939094520672,0.01583217208453102,0.019098037109676957,-0.1566920246240276,0.014952348517375971,-0.011386629207364916
0.44,-0.03831484354257988,-0.05680746219664821,-0.018170711329817776,0.04963940866964324,-0.01086474680186822,-0.03961060303325172,0.007759943924910971,0.015146519072885407,0.01911124878992286,-0.15707187903279482,0.01645786205734392,-0.008171268093360811
0.442,-0.03631839757029132,-0.05913716204518726,-0.022118916079498827,0.05024071499124734,-0.007259231568174377,-0.042975281262225946,0.010419264332203184,0.014086852998736892,0.01827241974609709,-0.1589126395416702,0.015892015340604998,-0.008308164079735135
0.444,-0.03215384923043759,-0.06299433629470326,-0.030092937698041396,0.04951608299502828,-0.001707964831379809,-0.04920673200076748,0.01168567481556096,0.015476916724321225,0.017761120965953447,-0.15827335486781788,0.015336824035887774,-0.010046615917588347
0.446,-0.027717742223904523,-0.06597005055839307,-0.037819245478664325,0.04781089082759419,0.003249686428874518,-0.0545854721643793,0.011996515002139111,0.01982911340907064,0.01999578562786435,-0.15347034458998154,0.01608311551848809,-0.010796864723831808
0.448,-0.024357695563784823,-0.06489132038679205,-0.040248020852833216,0.04520733398059171,0.005674480156106088,-0.05501337942222509,0.011663734651779297,0.023629166344140473,0.02387907464163025,-0.1473930443525165,0.01721568052460672,-0.009427444490476418
0.45,-0.022696033470254437,-0.05763357509974105,-0.03444636543668689,0.04091701135904005,0.0038772843401932867,-0.04828664359295585,0.010274448530876445,0.024220996918579984,0.02564439946820096,-0.14212465674211322,0.018238093935510517,-0.005664058826295391
0.452,-0.02185079708419194,-0.04517156806428149,-0.022803442741827558,0.034265709672839234,-0.00143904647233129,-0.03628077182307924,0.007922519912139768,0.025119619616945598,0.02536849249402138,-0.13516438289540988,0.0218868755916049,0.0004517722013862998
0.454,-0.01991935628630971,-0.030173264460960653,-0.010239637626039653,0.025690427542140293,-0.007001969669349314,-0.022653479995362998,0.005163727262409346,0.03211108866740317,0.027892638721613527,-0.12492399651853857,0.031394742105391414,0.007552376521204414
0.456,-0.017292328547881427,-0.015665889200755418,0.0011021422516853977,0.017613953521257806,-0.011263627572896992,-0.009556324527023324,0.002681864769173886,0.04653653870353511,0.038383440241123556,-0.11366013759315592,0.046789640261804745,0.014800686530737765
0.458,-0.016646428162280187,-0.004519833127819507,0.011634885435479882,0.0128133152159482,-0.015843273366417377,0.002169080187532966,0.0037008518988953967,0.06889958880516489,0.0619531585994183,-0.09836124901940993,0.06919044201877292,0.027496752369512878
0.46,-0.015001324238474048,0.004394944779744887,0.019353959590750227,0.008324104085475873,-0.019012650859378952,0.01177518513679713,0.012554561205592956,0.10525133796959017,0.1033888982573182,-0.06516924607515619,0.10671078646922645,0.057168776999522344
0.462,0.0011489238003081852,0.016911516026494745,0.01600142968642856,-0.006149829143977508,-0.009900030874448015,0.01712212076609519,0.026101435392163516,0.15983732494538863,0.1605529582723289,-0.0016619512325118414,0.16832931199505163,0.11203646300459981
0.464,0.04253479117178008,0.033846668799089825,-0.008521178779950548,-0.035961153420355454,0.022724748830751137,0.013104135211925137,0.033221015235911,0.22539816751467368,0.22334959848210093,0.09009927330721312,0.2542942242935003,0.19098781593537614
0.466,0.09974992223427016,0.04532001657108848,-0.054355897149539936,-0.07060956912685909,0.07461018091523057,-0.0047835014859233995,0.028853007634885207,0.29443539572999927,0.2885872769394108,0.2024937878586118,0.36212266810098487,0.2917177114717024
0.468,0.15492705769874626,0.044388325750955436,-0.11031754987026503,-0.0974951550092124,0.1308470529338298,-0.03373264450975485,0.022622837265345627,0.3782880185499175,0.3730611337058819,0.34081638282880095,0.49925335299739354,0.42148580908451794
0.47,0.2126330567786633,0.04364823868712867,-0.1685820856328863,-0.12589454762871724,0.18943218574231666,-0.06341813922793503,0.028028009315624443,0.4989579874938793,0.4988303804743003,0.5214105176494183,0.6791644397497861,0.5937420752246603
0.472,0.2992855570084707,0.06819389104127858,-0.2307878176935584,-0.18218261972090094,0.26424530016425624,-0.082420269080655,0.04415920403523191,0.6525998469211836,0.6567692578713329,0.7466587530143456,0.9035179903888781,0.8130076002440274
0.474,0.42438991688927385,0.1308834799465697,-0.2934982002379246,-0.2770398795462785,0.3582048335396918,-0.0829019128834541,0.05046936579785803,0.7877131427758073,0.7907726188568663,0.9841200533564296,1.1495863811824931,1.062476280121484
0.476,0.5578975876238728,0.2206492318149552,-0.33740429794067783,-0.38874088165253845,0.44684950937800527,-0.060708560602157534,0.02427076454706996,0.8387624278008851,0.8362956897810945,1.177044516636961,1.3729395756969514,1.3029953528322502
0.478,0.6550183451278286,0.3131976278923315,-0.34192921611031313,-0.4825376563396274,0.49792369395707486,-0.017201836405871734,-0.033281427099982594,0.7901785272515789,0.782802431823959,1.279582004721926,1.5235823660821326,1.483243628221915
0.48,0.6936831988034968,0.3845044536159,-0.309269544284081,-0.5365562768488347,0.5014052345980473,0.03493474990374585,-0.09413435076766304,0.6887279658040519,0.6812885244935284,1.2743533735605812,1.5605115501343554,1.5524982205959605
0.482,0.678921711713324,0.4147849337174657,-0.26439772177776516,-0.5445405972571761,0.47184506824553396,0.07319394751044106,-0.13027746504178464,0.5807755337422462,0.5780878511244152,1.1533485076606846,1.452447463488691,1.4685477466894628
0.484,0.6188482073862945,0.39179020017525273,-0.2274925242449079,-0.5043101571822739,0.42334535760071373,0.08101505235354425,-0.1369164929034404,0.45883680732758353,0.4615505190524612,0.9044818629384533,1.1830731552207918,1.2117718740601602
0.486,0.5120816290745711,0.3218045701895097,-0.19069525189562087,-0.4172795755474406,0.35151469654197337,0.06519861442496276,-0.12601947265075766,0.28582596096319435,0.2903515187995088,0.5357594728785154,0.7759971010158951,0.8108063383393395
0.488,0.35842879182502835,0.23435388007091096,-0.12441903505119119,-0.2971860912690454,0.24126473802450457,0.054830490463173336,-0.10626529488138764,0.04989992224819138,0.05216778167760877,0.09052232302720817,0.29892059443947155,0.3407343949536383
0.49,0.16564985507032864,0.1597650718870102,-0.006263647968736742,-0.16301250687452085,0.08486751597097186,0.07582799616272654,-0.07679034634102182,-0.2274940076461172,-0.22840320078088788,-0.38616681852323387,-0.18517457289332004,-0.131214489194173
0.492,-0.05321783014899821,0.09942022071639492,0.1522862053131077,-0.02269033271743023,-0.10505394686712188,0.12356241720907293,-0.04057066995171795,-0.5198188560339566,-0.5215067207796654,-0.869184763106311,-0.651390940578768,-0.5804334778842433
0.494,-0.26768207058966287,0.036990692142642966,0.30469143559052586,0.1161622727719951,-0.28883893949979483,0.16771217555431783,-0.019737294566577992,-0.8012888248006981,-0.8017725116111494,-1.3090898322787414,-1.0639500355538885,-0.9730916447522165
0.496,-0.42143140781500543,-0.019098631278930703,0.40291008109136256,0.22145894010393796,-0.4138106101891614,0.18899706611062314,-0.046097921628642076,-1.0322414935914042,-1.0329431367178175,-1.6026260978998947,-1.330027572992732,-1.2171015735211077
0.498,-0.47158086498272056,-0.03466594719762871,0.4376750228641123,0.2550156213633702,-0.45493560102159114,0.19942067061714353,-0.12760352057215088,-1.1704373013977896,-1.1738158686356457,-1.6685501317216738,-1.370009709787667,-1.2351639732637212
0.5,-0.4382412944337157,-0.0031690916471277166,0.43541070348935473,0.22325297794888546,-0.43683977695946047,0.21479464822476485,-0.2329334892729934,-1.2072292241698572,-1.2126268563903702,-1.5487903172064454,-1.2282472945289993,-1.0789110898619967
0.502,-0.3839169181852706,0.03364890418478154,0.41728837598779617,0.17776742592515035,-0.40138335256083835,0.22450099892685493,-0.3195023656247626,-1.1785136744471463,-1.1824236810366695,-1.3837497487277957,-1.0526697963146434,-0.9028220955921173
0.504,-0.3448936550120194,0.04015300333669179,0.384453945048591,0.1544627142179128,-0.3663285095228808,0.21124690553852407,-0.369778603770435,-1.1292853572236012,-1.1291142871495072,-1.2749124552948885,-0.9486959830367555,-0.8099676318042621
0.506,-0.31072258748856285,0.03132402523072398,0.3415661803559614,0.14090533025030968,-0.3282107941057176,0.1848700950761278,-0.392042295899837,-1.0706845780093537,-1.0671096228675205,-1.2038611848274867,-0.8921690210628364,-0.7689221329976432
0.508,-0.2629495774843399,0.039563797731940326,0.3023712476161896,0.11226825802847991,-0.2846501534793483,0.1685930687958543,-0.3948915365890855,-0.9782348661523174,-0.9746209796579945,-1.0943901865870076,-0.7984732381290643,-0.6931703648433141
0.51,-0.20303660280068067,0.06569630077771477,0.2688444468235454,0.06960518240355688,-0.23736283549650417,0.16425122477309156,-0.3755087334042398,-0.8322626841905486,-0.8316336510920393,-0.9185769843624214,-0.6382265255616189,-0.5560624276845487
0.512,-0.14533272454015922,0.08659060526168473,0.23204879211640805,0.031585698885256946,-0.189205532423654,0.15622456728296083,-0.33173477803333395,-0.6522401145238492,-0.6537118450283834,-0.7209838347262099,-0.4593610054729432,-0.40382530782434345
0.514,-0.1036627047394717,0.08903892935703486,0.1927084477094111,0.010625930409983123,-0.14796408532331767,0.1381999523998411,-0.2735644296346145,-0.4840515205359838,-0.48390678821659766,-0.5621679145072014,-0.3207913609302797,-0.2882063884802061
0.516,-0.08326667937997143,0.07768335754675908,0.16088805271859302,0.006196761300382909,-0.12165457086834902,0.11703385194035461,-0.21735978324417865,-0.3588877386881539,-0.35600424705482414,-0.4643234177913443,-0.2369805811501886,-0.21958361855811012
0.518,-0.07796852053888759,0.06298616858441955,0.14092145184279764,0.010351674285748961,-0.10913176553011923,0.09974057935308916,-0.17158642478327715,-0.27411869983164133,-0.27127035652971804,-0.40783325748867066,-0.18434300019613045,-0.177329482908789
0.52,-0.07874069600741702,0.05060452825913452,0.12934084037420135,0.016491133963406904,-0.1037318891901493,0.08758356181380342,-0.13283101204810066,-0.21080291809952476,-0.20980996661222237,-0.3637397733912667,-0.13908094525408224,-0.14135420453837752
0.522,-0.08286946493759585,0.038310784283858784,0.12107530737526734,0.024389037583989085,-0.10156589460629431,0.07751545270561483,-0.09717343215377909,-0.15895448491074324,-0.15769400605938672,-0.32193170315608827,-0.09860407524424236,-0.10813986473051339
0.524,-0.08815253560449066,0.023774625054954597,0.11160275756002092,0.0337799343715027,-0.0996794721000664,0.0664778950111877,-0.0697203868202266,-0.12211658628566628,-0.11787877849644916,-0.29025110507185986,-0.07229401808874293,-0.08458602553701526
0.526,-0.08549722522414133,0.013012327999250206,0.09807401488002433,0.03731160836219389,-0.09226990803427666,0.05559288825019207,-0.058123282752888465,-0.10364945790458482,-0.0973109335318313,-0.273762841416423,-0.0617121664105131,-0.07291033713458647
0.528,-0.06854491310188893,0.01205973082496468,0.08031934701318556,0.029300959491570615,-0.07567812871331348,0.04687183625735331,-0.0611658645880921,-0.09741895150677327,-0.09217122046044025,-0.26465571408297195,-0.05662474509929407,-0.06614897294802005
0.53,-0.046254989735877404,0.012847002645693823,0.05899967422791726,0.018374613491531737,-0.05436875682813296,0.03629456715570527,-0.06903646526395203,-0.09341238136945804,-0.09104119020225752,-0.2547866007452287,-0.04905021681975298,-0.05901064114865316
0.532,-0.03451746648127146,0.0006805415065480558,0.035022238115586864,0.019329628756733393,-0.03680421339708952,0.01756132595157264,-0.07287567444022554,-0.08644536627879493,-0.08676670221994129,-0.24699172917025985,-0.0419598234532001,-0.055417274132178986
0.534,-0.0367310289735604,-0.024046677482132156,0.012325943121557279,0.032926604150624414,-0.026633666553886222,-0.006460706327281874,-0.07071045487425325,-0.07648228961794443,-0.07872476270013828,-0.24613379332240568,-0.040299002932715905,-0.059903310677563604
0.536,-0.04226902781996057,-0.04469870401721151,-0.0027340720215255944,0.045393757418235536,-0.0216728578871513,-0.024121846148752825,-0.065676977045259,-0.06503710642257253,-0.06861384155263264,-0.24802828101622013,-0.041771031951074546,-0.06809844069410247
0.538,-0.04266391470077002,-0.04958341311993539,-0.006952080386089059,0.04744374957277047,-0.019649903603592107,-0.028239235034633547,-0.06127464746264455,-0.054234889947447074,-0.05941427882398362,-0.24553213335155477,-0.0415677624489284,-0.07187957930361831
0.54,-0.04044636478359547,-0.04269605949098773,-0.0021054495037807724,0.04289506864284456,-0.021038668871875943,-0.02208556658542874,-0.057921640039499754,-0.04657101675352223,-0.05437037059403928,-0.23901879383753763,-0.03966605775516921,-0.06915011725200607
0.542,-0.0418321269533646,-0.03388736130822325,0.008038880953234474,0.03918429576390301,-0.026377013062711833,-0.012756565851520092,-0.05351452733448564,-0.043755060918399785,-0.05354370530664466,-0.23467444827987816,-0.038554004407483904,-0.06386975989160167
0.544,-0.04700325126958166,-0.028603924546056262,0.01836880043196356,0.03852970551991179,-0.03290174380165949,-0.005484213062961778,-0.04754196031733063,-0.045978940966694984,-0.05338702470340118,-0.23664918240125987,-0.037952385410458145,-0.0599508035480335
0.546,-0.0505688708534359,-0.027469229433491064,0.023033832415392527,0.039214788730705295,-0.03593452559639576,-0.003231559536250553,-0.04302380752497217,-0.05132707822173629,-0.05102315213874584,-0.24378926929719355,-0.035882140034018836,-0.05820359238094585
0.548,-0.04950353303434147,-0.029133198614291048,0.020355179383876376,0.04006114070928424,-0.03421269978466004,-0.005900388366673949,-0.04344756094678507,-0.055718791967127555,-0.046899981439111844,-0.2508807984605012,-0.032035600987617416,-0.05684923016926651
0.55,-0.04691002439607288,-0.03194479314242326,0.014993755124703965,0.041542948392302305,-0.03150575287702748,-0.010088491474762621,-0.04904245494334685,-0.055375208931198405,-0.04270056331117735,-0.2519777167095109,-0.027169528066207347,-0.05331848114196076
0.552,-0.04741709955989892,-0.03478985781174879,0.012649133508300762,0.04411991996562663,-0.031680066820456196,-0.012436398815188206,-0.056302192280409225,-0.05046289173639475,-0.039478963995152785,-0.2449128892734647,-0.02175527543953551,-0.04691048239633885
0.554,-0.05155756473262279,-0.037429482560923905,0.014122991223542887,0.04710495339899967,-0.034217286825244914,-0.012836233977858562,-0.06047038173491493,-0.04489059429478679,-0.03774586251168121,-0.2336960742879594,-0.0170224317228801,-0.0400417184333107
0.556,-0.05550670326982233,-0.040561589525915744,0.014930742064343772,0.04933911620130644,-0.0352884436563458,-0.013885216262547215,-0.058693556486419926,-0.04164865342532898,-0.03666841822385183,-0.2259489001534143,-0.015388059564777404,-0.03641605780280115
0.558,-0.05528942613505235,-0.04528318186554442,0.010002157810485248,0.05057094075071565,-0.03194015910259237,-0.01818229493763863,-0.05178034428667779,-0.03965726129291028,-0.03416660076020783,-0.2267963915009242,-0.018130838781692703,-0.037873000887377245
0.56,-0.05120781355208133,-0.05165741234781592,-0.00046564827146601046,0.0518088394055917,-0.025347023911355904,-0.025723337743734486,-0.04361621538657592,-0.03575316305404915,-0.02964954271238273,-0.23405340321235693,-0.023008363194439704,-0.04239396141989492
0.562,-0.04748162693056023,-0.057930684676964994,-0.010575330293169179,0.05392511555018858,-0.019831772535377108,-0.03341511983873449,-0.03772591100156507,-0.029076465893074516,-0.025400692839764153,-0.24019822060564439,-0.02587646902391986,-0.04548820545746002
0.564,-0.04708928901418426,-0.061713790886494875,-0.014952726396440203,0.05616297744268177,-0.018227369720843364,-0.037699403310410794,-0.033826141782576126,-0.02308553408575485,-0.024527390026499063,-0.24057702131365047,-0.02489924174993765,-0.04403560034749444
0.566,-0.04882312965510465,-0.061853783309517935,-0.013456395763101528,0.0567832636783973,-0.01950347320557025,-0.03742633641406588,-0.029474657292249906,-0.02225139793082996,-0.027861196608726643,-0.23824664880533458,-0.02171712607977418,-0.038392437486027095
0.568,-0.04981555030055541,-0.059198278776819616,-0.009639327924445202,0.05525082070343399,-0.02115092347702257,-0.03428932466424617,-0.024686597894529566,-0.02641212344921837,-0.03236470243999953,-0.23891366773263292,-0.01870410445848348,-0.031665086540409094
0.57,-0.04899247514469154,-0.05583345972012127,-0.006814104970533852,0.05290251812118442,-0.022086677398196915,-0.031252444400763614,-0.021748789233764006,-0.03049753824159269,-0.03352983124547754,-0.2434696040710128,-0.016656976210752066,-0.027703212713336697
0.572,-0.04799623288419695,-0.05362354183188105,-0.005480358423111282,0.05154727340293446,-0.023110573469781803,-0.030052097593164774,-0.02033801613312774,-0.030300786322078065,-0.03011555285186727,-0.2481910254352281,-0.015300884678832628,-0.028696055206509932
0.574,-0.04964790172042354,-0.05328516571200307,-0.0035741553289291793,0.05241148338547913,-0.025659302084574034,-0.02970615265331233,-0.016778795855407157,-0.02611564210871294,-0.024891978116877156,-0.25024376967474754,-0.014588425947436616,-0.03362865817915241
0.576,-0.05457918251798735,-0.054539427631071856,-7.0558848752591725e-06,0.055498343752258934,-0.029538301832663084,-0.028499890145396143,-0.0098253632218998,-0.020657275396647416,-0.020863167278067796,-0.2506446339038231,-0.014802985523243953,-0.03886953984891297
0.578,-0.059302560618670085,-0.05688956816608435,0.0023563073364861646,0.05895424627377843,-0.031671095223781885,-0.027486723140453924,-0.0035349466419298346,-0.01579985949994644,-0.018388567221750637,-0.25275718030060945,-0.01636520145325436,-0.04107511647777414
0.58,-0.05901632342472972,-0.06014505222991151,-0.0011306458221344252,0.0604695832349352,-0.028441168845745095,-0.03026146766488759,-0.0020013997510017353,-0.012037829112353134,-0.01550578886995031,-0.25849763545393795,-0.019434778302670687,-0.040114644601764414
0.582,-0.0526635887262968,-0.06408445250357937,-0.011390995770978182,0.05978814776258905,-0.019801184299401475,-0.03836777105516601,-0.004199839205756015,-0.00968231161930955,-0.010682158996802776,-0.265389297007426,-0.02262054214918248,-0.03850807290389753
0.584,-0.044687219274540654,-0.06764470833968018,-0.02294217865500467,0.05864279969705808,-0.010576746911591012,-0.04788930802348059,-0.006161997955130714,-0.009049762033748129,-0.005427198248445796,-0.26823988752689537,-0.0233419466260173,-0.03818553305273834
0.586,-0.040569524894101774,-0.06920457514308462,-0.028644018024010672,0.05819453647962205,-0.0062664554612792125,-0.0527418441718706,-0.005982864591744883,-0.009635719506115099,-0.0028560895445347034,-0.2655568584558596,-0.020517001625927418,-0.03865565472287168
0.588,-0.04048456374751854,-0.0680221979520561,-0.027528326462019078,0.05737846469224713,-0.007082244452829256,-0.05139178281315659,-0.004954215362742853,-0.010172808629942383,-0.003540103935509225,-0.26262425122781086,-0.015086032903974152,-0.037649447837836844
0.59,-0.03972845083340615,-0.06455720447811343,-0.024698577683186236,0.05424785738603593,-0.008346807014708064,-0.047376841279800616,-0.005160033542848807,-0.00944827819968006,-0.004533218913480819,-0.26417351918709087,-0.007749906145768693,-0.0329523950267034
0.592,-0.03554795199048788,-0.05936453573391947,-0.02348281651897419,0.04861343535332533,-0.007073871870380064,-0.04333957823120379,-0.007198993487152834,-0.006836038397306677,-0.0027366275504899697,-0.2662050640326709,0.0014684604694047139,-0.024676841411766636
0.594,-0.030525646650789273,-0.05297350093185186,-0.02202159512834734,0.042650827280571034,-0.005388255855763781,-0.038478289895884046,-0.00996856210227821,-0.0029089998879274874,0.0014844110354462906,-0.26115641624930713,0.011414252995637423,-0.01593528476825258
0.596,-0.02909975796021464,-0.04725247113438183,-0.01789889151414678,0.03927406741830956,-0.006852133121555837,-0.03243412771852605,-0.012746626450912433,0.00039498587060214424,0.004163689005314033,-0.2498322779966182,0.01954535813601664,-0.01050231761861221
0.598,-0.032699166404096175,-0.04502020417054271,-0.012349526314654115,0.03991546517692196,-0.01150683461385465,-0.02778045122960644,-0.017160118042781853,0.0014069961060274372,0.001954039084082494,-0.2417791690194181,0.023969617111313683,-0.010229584545511905
0.6,-0.03823442231647901,-0.04679020133724491,-0.00870198214899207,0.043000880362721386,-0.01581760410298821,-0.026838667593572167,-0.025792221001172254,0.0005312803462476205,-0.0034967377962435596,-0.2430423739590594,0.024956455080152467,-0.014167499806200946
0.602,-0.04082360660790017,-0.049478817120901165,-0.008717084141798169,0.04504021706131994,-0.016599850865264235,-0.02860240816648364,-0.03899340556197848,-0.0007768294159649532,-0.007336173183734544,-0.24888700130536887,0.02422070631785372,-0.018628472188615953
0.604,-0.037502317629476846,-0.04966701030145999,-0.012117699854067167,0.043503938345725524,-0.013143765079271409,-0.030734768919526295,-0.053907600769863964,-0.0029001521350477703,-0.007792623028052965,-0.2506287017512484,0.02310117021971614,-0.019589161373678617
0.606,-0.028494275569075966,-0.046895014462432764,-0.01834464080936135,0.03823478276009213,-0.006082324181215435,-0.03284906953265292,-0.06649903247448105,-0.008059228873660007,-0.00808864479354096,-0.24582450522197496,0.021905783647927904,-0.0169141141278316
0.608,-0.016696543224988716,-0.0431518151363683,-0.02645373463984485,0.03106401156794751,0.0033166939231033983,-0.03589311364886572,-0.07482479872722675,-0.01629816760486046,-0.011580611891327667,-0.23988586296584793,0.021035276793021696,-0.01462545626053724
0.61,-0.005753850289377414,-0.04031135030718637,-0.03458722905411959,0.024504900508211195,0.013108084433888625,-0.039644618570258666,-0.08053336662742581,-0.02380658275278234,-0.017374206578801944,-0.23918915915012487,0.02124337046542611,-0.015772686202675672
0.612,0.0025227510330676755,-0.03888958585215677,-0.0414273736797263,0.01989232638225561,0.02153239579553249,-0.04273149879295138,-0.08662730519137148,-0.02736662733921801,-0.02209266675902399,-0.24383787962162742,0.021753015720649384,-0.018480611439015
0.614,0.00811315534539192,-0.03857043551891253,-0.0466745682346339,0.01690023331465839,0.027461292395792224,-0.04429142886851262,-0.09421333120584038,-0.028499605523419666,-0.024615137121622735,-0.2486724802359243,0.02030070454244416,-0.01835853965607165
0.616,0.011211875768395767,-0.03859891248178394,-0.0497982794888629,0.014782758658192606,0.030330205761619492,-0.044395948862540606,-0.10266020352125885,-0.031132082345225888,-0.027101521204211842,-0.2511107227413974,0.0167599817050787,-0.013965013275717888
0.618,0.01299740738758269,-0.03736762565535426,-0.050363981981822244,0.01252384866876158,0.03105950757202817,-0.04324119902526693,-0.1128466292266032,-0.03654710295474685,-0.03171385494088641,-0.25401227519466746,0.014498483797940205,-0.007685907437626696
0.62,0.016393076787089983,-0.03294817975917788,-0.04934757991146852,0.00824240576049916,0.032203862074400645,-0.04065793146474421,-0.12739669425406575,-0.04229773077899496,-0.03827963944859466,-0.2594600673410378,0.016660596262598016,-0.0014931822167482424
0.622,0.02283758845435742,-0.025654614272947525,-0.048495796389111764,0.0012982643979890345,0.035359387350908336,-0.03694490630698082,-0.14524991930092487,-0.04537695205443368,-0.044939855975354694,-0.263994972104045,0.023083484966664583,0.004754480577719903
0.624,0.029470256856180637,-0.019108233444998245,-0.04857675603297493,-0.005446193795029663,0.03902928004351435,-0.03371641701574877,-0.15943249958941197,-0.045281183858667334,-0.04949442251433726,-0.26252667003849806,0.03174645986689015,0.010767758234857303
0.626,0.032325979087845465,-0.01610620251488088,-0.04842939212036317,-0.008620903650643264,0.04020701850309509,-0.03209797390848052,-0.1641152342333949,-0.04383761268054829,-0.05064510009223694,-0.2545241749434986,0.04099794154458273,0.015402194542738324
0.628,0.03046205571243581,-0.014243002196335529,-0.04470467194393361,-0.008620034615253794,0.03680944896569776,-0.02974449840156628,-0.16083910983940075,-0.04257140645300159,-0.04890962745423577,-0.24431177925232195,0.04891710480280156,0.018870587135606933
0.63,0.025096112732107313,-0.009174510673162578,-0.03427196133206882,-0.007958032097854213,0.028568077838628518,-0.022762781712694066,-0.15561258743712264,-0.041318094826333036,-0.04607532003864272,-0.23642510789250118,0.05278122243534337,0.022764289207092354
0.632,0.017894168242479174,-0.0015314580415772732,-0.019426475979061497,-0.007313145623218737,0.017915280009108036,-0.011943526464139426,-0.1530996367922635,-0.03970688391723201,-0.043779301289536394,-0.2321019534419952,0.051889362878410075,0.028364748499238594
0.634,0.011221212001906105,0.0041561196382368356,-0.007064768086058987,-0.006167546176071376,0.008886593019924496,-0.00259943040654517,-0.1543062474087372,-0.03813245615479635,-0.042213662649843726,-0.22981733919573613,0.04979314152075042,0.03602984110412415
0.636,0.006556984224131842,0.007173536526473354,0.0005952312727218268,-0.005337168260561808,0.002547291325762213,0.0035274923108599876,-0.1577660913551149,-0.03603531125352343,-0.03960444664718523,-0.22823862445931922,0.05150698738027983,0.044981806050374815
0.638,0.0020841149356642147,0.011406250666966994,0.009168998852189282,-0.005788136343610776,-0.004484856630169232,0.010477132592359314,-0.16187697082108082,-0.0316260543924715,-0.034127225865239634,-0.227363104196819,0.05883038441300792,0.05324163056822871
0.64,-0.005301206685272745,0.01788266581280517,0.022724856698531647,-0.006004582659152452,-0.014877272906485741,0.02031635855792796,-0.16543878163803205,-0.025150771174025713,-0.02705034687639999,-0.2264499523744799,0.06908526897089959,0.059103955881933096
0.642,-0.014870477244144184,0.022407120275101947,0.03652737436223466,-0.003603375442141193,-0.025889820869135317,0.028664679024711814,-0.1674356210331096,-0.02008548909806242,-0.022247740472710192,-0.22400164597383015,0.07765993282653982,0.06259956498409093
0.644,-0.020585882428394233,0.021702702002601583,0.041610496881090406,0.00025551518027735413,-0.031037684940557114,0.029856552852786024,-0.1686655704074707,-0.019692940641127202,-0.021795794028668485,-0.22108336125457592,0.081128785694017,0.06435052374137523
0.646,-0.01656461678830445,0.017571170331145206,0.033906056307395904,0.001146731807544838,-0.0260575487985069,0.023453845359065473,-0.17218191077724287,-0.023739508320802353,-0.023763078073186807,-0.22108681206797465,0.07903445788989487,0.06422887369946344
0.648,-0.004039271099093102,0.014274766934874915,0.018485541416182014,-0.0030900645064453917,-0.013480027785960125,0.014683990803791815,-0.17958773313418347,-0.028708932700109158,-0.02501110225816826,-0.22485501993598087,0.07453173899702063,0.06284471243878265
0.65,0.00954297882930363,0.014435820138654064,0.005123734723981406,-0.010092300226079053,-0.0005659582740375687,0.009398328950522889,-0.18772490361701388,-0.030990445770688418,-0.024823923126621274,-0.2287959301214743,0.07274688177305949,0.06250176218368522
0.652,0.01816258555419269,0.01776380824608587,-0.00022848226667258268,-0.016433713548101987,0.007087091485650311,0.009362914818359276,-0.1911789703336492,-0.030256164550497597,-0.025277303298532106,-0.22961466082017362,0.07613986698849104,0.06453815716390177
0.654,0.021157132388330432,0.02225783507029865,0.0014788387862198638,-0.020385677082923784,0.008493252318187441,0.012558289162628017,-0.1883523967547772,-0.029434713595593597,-0.028358677540862007,-0.22932251941430842,0.08128924643453492,0.06712306276558623
0.656,0.021018191823825604,0.02635013977533381,0.00615473843839494,-0.022083577942908106,0.005853828214637119,0.01648869117539244,-0.18348871636158523,-0.031360503868654015,-0.03306807502998847,-0.23274173288328479,0.08218797370685198,0.06759719289640584
0.658,0.02058470727852318,0.029979096113093066,0.010427407330591732,-0.023272789438743367,0.002669058881962031,0.01980897889770475,-0.18130423526494133,-0.03566092411206282,-0.03634367542561267,-0.24059417647978062,0.07699433350435779,0.06591757198066217
0.66,0.021631932185080336,0.03321938955748138,0.012284841918246744,-0.025666416725270924,0.0019394215164248209,0.021638557444114845,-0.18131918384825013,-0.038909738588502524,-0.036232663047060104,-0.24824273429385563,0.06996114478564018,0.0641305342963793
0.662,0.024332232522193024,0.03531345332426448,0.011071778308294178,-0.028910081215337644,0.004329085094964685,0.021568211593496485,-0.17993876591751598,-0.03820151235190369,-0.032769942805706005,-0.25124985695074337,0.06680502974656749,0.0641435870876384
0.664,0.02793902597303521,0.03664507824674187,0.008449981078227484,-0.03182357087691308,0.008008801552247855,0.020906206390167395,-0.17603492519910224,-0.03424221481054891,-0.027500435981779113,-0.24930506942757966,0.0697026723815879,0.0676375884961732
0.666,0.03159615052469809,0.03944520740003228,0.007672426397127847,-0.0346508460622364,0.010556427732087485,0.021933084840929994,-0.171444799603908,-0.03018409382207773,-0.02324218741414523,-0.24438704977802128,0.07698992224338111,0.07561533732884988
0.668,0.034254588452524395,0.04402992437117522,0.009819771171753795,-0.037684116612094566,0.011109867113976888,0.024734740826570015,-0.16807992152013168,-0.028248264206349714,-0.02212163725302372,-0.23788602379202858,0.08633722317841426,0.08637931641390782
0.67,0.035185540842898926,0.04679684137076074,0.011725948670921102,-0.03936975150073926,0.010980189599612679,0.02635567411410565,-0.16733136891066436,-0.028329971960992496,-0.023402495685636786,-0.23079461124388742,0.09642370820351245,0.09624886373071667
0.672,0.03521452626125739,0.0451381523750624,0.009954562090691604,-0.038552603958220494,0.01201258620931918,0.02479444525953044,-0.17005145129740157,-0.029050260894237716,-0.024657378814400537,-0.2244294051299282,0.10575052414724669,0.10334089081360233
0.674,0.03631404628500793,0.041955210796319566,0.005593915005317241,-0.03721573898743476,0.014422624183798185,0.022199619760919425,-0.17460140276112787,-0.02914155238024812,-0.024430105323663534,-0.2192372274300944,0.11244932681151594,0.10907475624000804
0.676,0.0397782133172468,0.042231871504831174,0.0024143410653882395,-0.038795351573729486,0.017244741141122365,0.021928448421903772,-0.17690757039862792,-0.02774382224357872,-0.022568286869387055,-0.21440803288888843,0.11595649775206657,0.1154607839372367
0.678,0.045459072705525565,0.04753760240642339,0.0021074511552903893,-0.04456346368802028,0.020182216624820067,0.024555322500582698,-0.17441908634718792,-0.024550534612281273,-0.019310380284399985,-0.2096710064400657,0.1173409525964321,0.12186052390052629
0.68,0.05206419225176111,0.05597947046002747,0.004093299146798128,-0.052689866492412675,0.02302998420622234,0.028988428260904843,-0.16897439577513326,-0.020746841707142992,-0.015725968227822244,-0.20604635668270105,0.1181612448714833,0.12556968968557014
0.682,0.0574378303915641,0.06461862141015288,0.007669478790708918,-0.05991021437552457,0.02435785619053093,0.0345844341242592,-0.1646936942049102,-0.018579407646015712,-0.013589958892074337,-0.2043016693422926,0.11976273104459241,0.12610848731869848
0.684,0.059548427394608576,0.07018412859030576,0.011529294598046943,-0.06354002644428601,0.023148916708443004,0.0396491211746405,-0.16351458199619784,-0.018763506958527538,-0.013175718580613258,-0.20366363499797366,0.12295631144140041,0.12671934697081896
0.686,0.05846407988159586,0.07058780236153268,0.013273544282249352,-0.06325950506076086,0.02103127804123899,0.04126569893672975,-0.16417205390371722,-0.01948651952151546,-0.012816755165961707,-0.20248943416794307,0.1275980983063589,0.12978406671519965
0.688,0.056943574327240995,0.06778337436280188,0.011951995373404467,-0.061706600710389185,0.020790382095862384,0.03929605773111251,-0.1654399922385064,-0.018910911546756937,-0.011854476909673941,-0.19998384525700935,0.13245700428491838,0.13383202325780036
0.69,0.05778114144765543,0.06689926026078616,0.009935656677043858,-0.062237943393759744,0.022734732922142634,0.03760444367688991,-0.16732439769670926,-0.017031285681231873,-0.011622019918617848,-0.1966125048204072,0.13618069734945196,0.13700652102651228
0.692,0.0608104972283072,0.07157504169473962,0.011056780938954548,-0.06594942855231449,0.02410663238786472,0.04006464743044705,-0.16817354844185656,-0.013780298786822697,-0.01210369181838631,-0.1925858663474239,0.13887797643735675,0.14005702443433093
0.694,0.06352387236445295,0.08102361792296289,0.01708408897748302,-0.07139130539297257,0.022355294156008593,0.04720161459802906,-0.16483616676480936,-0.00815767085186973,-0.010822657267395765,-0.18743674950559877,0.14182965624655983,0.1442729757675465
0.696,0.06416649690621896,0.0906911610751268,0.025487198680665346,-0.07625610412355009,0.018073206716651795,0.05580949987645106,-0.1574758908150732,-0.0013997142075758851,-0.007020197843441265,-0.18206605467944273,0.145146362801174,0.14890010394748618
0.698,0.06352460527611697,0.09552131281393367,0.030755618925529266,-0.0788625140091591,0.014642066210837766,0.06087047115892843,-0.1501182110315054,0.0025922252837249004,-0.003405795278278712,-0.17913145378086412,0.14721008879365424,0.15187038713514148
0.7,0.06386490800357529,0.09365754182572335,0.028825793395953904,-0.07882779352303632,0.015413964801380112,0.0591713787080376,-0.14516337481050276,0.0021055649458853725,-0.0016799796528333012,-0.18002205113955314,0.14709351703909762,0.15225271621053443
0.702,0.06590307783141194,0.08722197110843477,0.020872506382852363,-0.07658446042098267,0.020485033453386148,0.05194740231919881,-0.14136335345100245,-1.953967882184127e-05,0.00012556178987138675,-0.18299930300471856,0.14595258987161924,0.15119994386527555
0.704,0.06740075900570287,0.08030283361366694,0.01290330168340691,-0.07285110474310766,0.025944879852479535,0.04427199417998155,-0.13763982591419344,0.00031185810653895526,0.003954556628336136,-0.1849095767998117,0.14551350948211628,0.15047099525928498
0.706,0.0665531727639527,0.07619102290306064,0.009804566696815668,-0.06935367565449795,0.028114544022107318,0.04075732014568682,-0.13462739266804977,0.004455919190115484,0.008777971679105177,-0.1837343530693737,0.146722758172527,0.15053793231621726
0.708,0.06522130601159644,0.07478804515842322,0.0096508483660423,-0.0681612964516834,0.028174223572944572,0.040797690153129666,-0.13145487202458844,0.010434359012114447,0.013310034349606276,-0.17929898335885494,0.15013122031380782,0.15034949183647517
0.71,0.06585819326708975,0.07312743571557084,0.007228966727701582,-0.06886986979589908,0.029649089488412158,0.03988473156720335,-0.12461790663549359,0.01593910964101158,0.018654621688306408,-0.1728702703808864,0.155449158309475,0.14875359306095243
0.712,0.0672240118750545,0.06977156791979858,0.002507149019027808,-0.0686707533296352,0.03231992067198792,0.03627553529395379,-0.1122798124300006,0.021030421055533575,0.02590189594473512,-0.16739219353355472,0.16006685050513125,0.14581419118491182
0.714,0.06590059827930532,0.06640539747548202,0.0006278828379304058,-0.06582764046027084,0.03237134436166058,0.03305065221976495,-0.09751110461135326,0.026817319398819844,0.03337415213735338,-0.16614513807253212,0.16050572209257377,0.1422993686015895
0.716,0.06057953121966471,0.06341143572547771,0.003188895607766236,-0.060734926414421256,0.02832439024290783,0.032135458908079374,-0.0847535379767302,0.03290944665643342,0.038344052316625514,-0.16901513121519876,0.15595853730566647,0.13836132292053813
0.718,0.053447210224290484,0.057785071667557454,0.004778958120463665,-0.05414805430101831,0.02361958542015497,0.030339299519411233,-0.07497583829155183,0.03774868416213495,0.039976292385305603,-0.1721541342037945,0.14855225555806992,0.13365265818064584
0.72,0.04798365756367272,0.04839674615207449,0.0006613471610755163,-0.04716111526461581,0.022357371555779684,0.024546903179852066,-0.06668448162732829,0.040619592354387335,0.03954435354722836,-0.17272627449341466,0.14101114712971755,0.12831056045314856
0.722,0.04504194290027901,0.039307461521895244,-0.005773699746284276,-0.0415271947051436,0.023936854423153544,0.017481397817077634,-0.05956449864721258,0.04225863762617901,0.03902943031608814,-0.17174796287003422,0.13552935600083546,0.12295817084271901
0.724,0.041226229446165864,0.03445619184879032,-0.006918324443812668,-0.037171299674170676,0.02338052099730401,0.014215576051110295,-0.05447764862473634,0.04365180320482632,0.04020200515874222,-0.1712162161076855,0.13325600472277283,0.11795534079107711
0.726,0.03338067676352528,0.03244258445967908,-0.0009951069941047733,-0.031755945840916566,0.01766389253294614,0.015083899379923271,-0.05051901177444581,0.04516518703760409,0.043870140617805684,-0.17111064103790144,0.13335734450223585,0.11314313034500194
0.728,0.023820234788794987,0.029141157665704413,0.005371372557776344,-0.02469022575573032,0.010198955740240406,0.01558769289412814,-0.0444991369135217,0.046874929616724646,0.048952445194656614,-0.1713156908476448,0.13299167339915546,0.10803862590824534
0.73,0.01773823732073355,0.022601237106419553,0.004896157559123002,-0.0182465568787255,0.0069309170942808964,0.01184474090074679,-0.035122079422870836,0.04879054414103177,0.05308732664734192,-0.17372426121795154,0.12932664147602077,0.1019094178413853
0.732,0.0170116406025045,0.014094904015554955,-0.0030488794880885943,-0.01414504810713452,0.009619424350003515,0.003897114012970747,-0.026312987438059366,0.051106784904004804,0.05491926655801033,-0.17930574214741563,0.1225718895865962,0.09465107414775936
0.734,0.019244381555444123,0.006697740659731971,-0.0129043722075063,-0.012117668216173678,0.014731917922056713,-0.00461540304358953,-0.02319841935359056,0.05442296275627098,0.05536357767560705,-0.185177455149372,0.11634545149292912,0.08813517205964651
0.736,0.020469385963770608,0.0030094767333796522,-0.01789653949440309,-0.010945058436051133,0.01709279185624995,-0.009059207289769746,-0.025051813124883728,0.05863465615673397,0.056297900475926144,-0.18753104541766846,0.11354940946906525,0.08462493644873081
0.738,0.017595787003576353,0.0024466257859098142,-0.015394877722870664,-0.008841526453431012,0.014222377362724322,-0.008235545508511978,-0.025836791606879347,0.062033401103831605,0.05818817855996797,-0.18643979173382075,0.11258924451426296,0.08304954201685193
0.74,0.010804311400138345,0.0009747831235765287,-0.009791515333823126,-0.004219935051741263,0.00875995518637852,-0.0064214966518733405,-0.021952568138899068,0.062435734973587884,0.05970390847476579,-0.186173829906163,0.1092694300353957,0.07920888206490403
0.742,0.003858852417890725,-0.00501375177712674,-0.008704335180919344,0.0025083156495659224,0.00599865021100987,-0.009016830990164834,-0.015471820133206977,0.0592711910549412,0.05979847195961702,-0.19135278745136364,0.10153277774981732,0.070540854020286
0.744,0.0007624573168467676,-0.014308245636294733,-0.01486071039869839,0.008523539172841276,0.008380561302273219,-0.016354088565869774,-0.009442594532101188,0.05475675730994333,0.059047018111607515,-0.2026795269497668,0.09086928548369728,0.058866520490915335
0.746,0.002404034875874161,-0.02178014230281067,-0.023774957221617658,0.0109989148888587,0.013736112787058817,-0.023787896712288637,-0.0046260003644617055,0.05222814309866482,0.05838111025422557,-0.21520407645831513,0.08032673134673277,0.0479843953801301
0.748,0.006173102074669564,-0.02455104794256015,-0.030028625418590044,0.010347675365787425,0.018505155073762117,-0.027904788458010237,-0.0017138273412178754,0.052706471925674535,0.057249128263398286,-0.2216040386069647,0.07310726290866633,0.0404257443436844
0.75,0.008226277788467342,-0.02503091183519967,-0.03257844122345195,0.010020468898168535,0.02069018419722834,-0.02988046888101681,-0.0017725726528689755,0.05414270601055175,0.054304520970477936,-0.219291114083155,0.07175665164116532,0.03649702192075523
0.752,0.007040238817060649,-0.026152421165419226,-0.03293291395852373,0.011792740345803132,0.020081786063693773,-0.031636849807452065,-0.003183390577749366,0.05403280420656538,0.05013886466616641,-0.2135400987192102,0.07590767806938546,0.03434993623901313
0.754,0.00456247385090938,-0.02702510086472878,-0.031745104175708354,0.01339862354650168,0.017531481620559803,-0.03218060385637483,-0.0026520005678672904,0.05184390611276461,0.04743317338036676,-0.21133388732951502,0.08122110605848548,0.03136606196031196
0.756,0.0030106679790935717,-0.025854802488717646,-0.029084110748047728,0.012899778466981501,0.014339996446171729,-0.029969251090507878,0.0004891157567177087,0.04917042084999953,0.04758517953235671,-0.21362578083192035,0.08224697226663293,0.026886492262276122
0.758,0.0021536033116431714,-0.023714498004299006,-0.025897386791983706,0.012106623035464724,0.01160924760825478,-0.026120679056784148,0.004425763796540165,0.04803230195917282,0.04907504580944639,-0.21624951405843734,0.07701345209924619,0.022706595359316545
0.76,0.0009210298119979488,-0.022853497358112713,-0.02367255201259345,0.013217935360704453,0.009926834550621426,-0.02331251916724791,0.007691408675676939,0.04913594795369942,0.04977955972430985,-0.21647335283586644,0.06914297144897162,0.02034657952768452
0.762,-0.0005641623081937867,-0.023552935036661497,-0.02294574988529153,0.015392255740359321,0.009204159416798564,-0.02276221524121532,0.009311038742645834,0.051418509228940916,0.04955480968131465,-0.21564354078139913,0.06425282858554746,0.01924251489056522
0.764,-0.002220434039666608,-0.02461299337122661,-0.022547958458288712,0.016965465444057373,0.008304534804989579,-0.023368703594891693,0.0084656191815204,0.05242561005988401,0.0502724948531009,-0.2158904824604626,0.06425502679017851,0.018315095731326315
0.766,-0.004998426135053758,-0.025746023064508607,-0.02114375760644057,0.01835805745004189,0.005984320886517293,-0.023732409962549165,0.005927517765650687,0.05007239530349701,0.05339107124886717,-0.21665284622946498,0.067120466853442,0.01797886894429574
0.768,-0.008763104481999757,-0.027268906878573727,-0.019090891755545174,0.02044150920800803,0.0028058382232482824,-0.023666052719900833,0.004008556694717494,0.04543506274938644,0.05726206861054355,-0.2156409257095721,0.07062351247305652,0.01943642925700678
0.77,-0.011660021946383036,-0.027680998257682603,-0.016692205064268866,0.02206533389593654,0.0001115739523884466,-0.02263275413043795,0.003680796813506039,0.041988873981709,0.05813004201837285,-0.21211703541525626,0.07382471590639386,0.02280273773411096
0.772,-0.013509274421632819,-0.02418932174599813,-0.011236031308776276,0.021585212335954628,-0.0033019606911088403,-0.01836744173170086,0.0024933686085677385,0.04068782158027195,0.05414411819029319,-0.2080231943898402,0.07626473237683816,0.02674522267397136
0.774,-0.01674612665600889,-0.016214613690543743,0.00045359887668502,0.019299120652064395,-0.010287340702148666,-0.009275822446163153,-0.0034116068422967946,0.03830329330390836,0.04638181915303189,-0.20585125869256982,0.0772445570729574,0.02936771892440062
0.776,-0.02193816937453224,-0.006713873134787435,0.015797369831384977,0.01663116155299795,-0.02004459676341828,0.002256906801111547,-0.014707037371472498,0.03199040288386312,0.036302485766635924,-0.20590908719998688,0.07616497300657474,0.029334883089881626
0.778,-0.02567497243749023,0.0003178008031408402,0.02679368653329926,0.014240649705007269,-0.027223980107156428,0.010907662380164398,-0.027770178459896034,0.022984098031310546,0.024658632632118396,-0.20666045807786776,0.07356666571096226,0.02683898186215745
0.78,-0.024698181784719445,0.002634914000712733,0.027719948559366665,0.012026352291154,-0.027584435476318985,0.012786199771246516,-0.039341921763703123,0.014286487455947343,0.012556990779108882,-0.20703043872531002,0.07055574551375526,0.02337908630811626
0.782,-0.019789064182640256,0.0004549435293146781,0.02009096389729043,0.010183807770255494,-0.02209286279141669,0.00816999275315242,-0.05029979188169877,0.006594387102020377,0.001436600094970803,-0.2068809400752241,0.06722940871362343,0.01983712859721527
0.784,-0.01483169705748062,-0.0037349112252755535,0.010814107039326074,0.00932344491587759,-0.015575619721452513,0.001322017849562469,-0.06331711443734031,-0.0018574162062135573,-0.008287575535105597,-0.20663273487863834,0.06326878905998831,0.014836314385397047
0.786,-0.01320368644334318,-0.006726421504783685,0.006436600957063739,0.009759946093303756,-0.012636680228406284,-0.002681413025165445,-0.07849082192578148,-0.012474326237198295,-0.01733545055442942,-0.20736171844785706,0.059086276083378346,0.006155456062735747
0.788,-0.015471125048220572,-0.007930745819194477,0.007814123834632609,0.011632231630171472,-0.014248107952291596,-0.0027296729483461688,-0.0923061243929654,-0.02448999614331148,-0.025896385496816488,-0.2097670670922374,0.05499032394496507,-0.00575806429771913
0.79,-0.01988469541526435,-0.009945880471530095,0.010489392767924629,0.015181152723672329,-0.01778180025212537,-0.002306309214722554,-0.10021720443754017,-0.03508024630349078,-0.03256546855166509,-0.2131950162169833,0.05054231674562618,-0.016763332636698932
0.792,-0.02397641157151738,-0.014654441471272239,0.010050663792514783,0.019840655625058,-0.01987968609513117,-0.004763923604377824,-0.10052307348778994,-0.041121482769971913,-0.03564326761224625,-0.2168414291567962,0.045446893687024766,-0.022463056585531407
0.794,-0.02657597630013034,-0.02058295813368311,0.006611032349281294,0.024273577425060994,-0.019688539192584457,-0.009332770582383286,-0.09582075882541362,-0.04194160279782682,-0.035119074727934,-0.22070590805026666,0.040195128119306894,-0.022152842175421662
0.796,-0.02952740472273254,-0.02471138640467397,0.00502879398190125,0.028014180983318846,-0.020255674070344707,-0.011975571893532802,-0.08972907326934487,-0.03930312954200297,-0.0323448671833754,-0.22356362703315183,0.03592984793878262,-0.018444304781014845
0.798,-0.035407632666518654,-0.025601770157871802,0.009659017229760328,0.031442454947801735,-0.025056535559912028,-0.01003036286949964,-0.0832028627963081,-0.03436664793825385,-0.028384327974371806,-0.22191566406961713,0.03411458161302132,-0.01412095333604473
0.8,-0.04265627889682226,-0.024445874281006082,0.018022473701814857,0.03414555906133056,-0.03236802472117936,-0.005601171265167126,-0.0757873308067739,-0.027448734419184637,-0.023861870181838756,-0.21400596512811673,0.03551545719784382,-0.011197632551743454
0.802,-0.04628588739063447,-0.02323142828397909,0.023034005304206667,0.03502377245107263,-0.036477275482732364,-0.0027945870815823874,-0.06831369670558886,-0.020118989305835364,-0.01910260668024446,-0.20296012267576535,0.039297235919198835,-0.011193369508046586
0.804,-0.04455679949678654,-0.022125039069626894,0.022521196588267314,0.03377653626416198,-0.035502736274826,-0.0021420080527638145,-0.061447397081169045,-0.014079978390769542,-0.01364055202028741,-0.1930763217751692,0.04411538032497855,-0.01365203381328253
0.806,-0.041717926695898015,-0.019634243482132368,0.022137837987772243,0.031410466753363515,-0.03415463184986633,-0.0003535942267241349,-0.05371848207171769,-0.009164782690496441,-0.0072769714509639295,-0.185220571672805,0.04938526365374029,-0.015936644923220986
0.808,-0.043110280615669516,-0.015403713239264157,0.027706104384823738,0.029932376934761227,-0.037566151014714264,0.004787588753279843,-0.044071185546553565,-0.00459592798191576,-0.0015666431250330893,-0.1781039094344944,0.05454930960868715,-0.01628738191567961
0.81,-0.04967953683141757,-0.011380881076307784,0.03838987027924715,0.0312183988663285,-0.04554832071103839,0.011721743673165521,-0.03470178737444859,-0.0005419987228308101,0.0012500698607194427,-0.17189360754366786,0.05861709959403079,-0.015961822039827153
0.812,-0.05711396991513187,-0.010047709398274929,0.047386734183910977,0.03469515182258647,-0.053015760553029374,0.01650109830721835,-0.02885008811820823,0.001958792665438022,0.0003694829723412817,-0.1686915565799213,0.060675013142577984,-0.017554258145708806
0.814,-0.05920498247549724,-0.01246640509579154,0.04717972360869441,0.03709488659743318,-0.0538377372050503,0.015484481342047591,-0.026652369374933347,0.0011036160431468168,-0.0033263624593973867,-0.1702330222007183,0.059546735905445944,-0.021982362971177873
0.816,-0.05341476357884702,-0.017558951031593568,0.0361239928683378,0.03626930277685748,-0.04589650396578773,0.008336060665221589,-0.024698871717715672,-0.004351615103546105,-0.00843741420318051,-0.17549902346756796,0.054416290791465205,-0.027836899861320683
0.818,-0.04364047704951485,-0.022431382899897937,0.02120128040110265,0.03364432416096573,-0.03404200745383529,-0.0007523393317331473,-0.019637189830214865,-0.012495498626353579,-0.013754227783448817,-0.1803148308206808,0.04699959505937673,-0.033349246254952995
0.82,-0.036215456132463936,-0.023858799266502095,0.012355270331156095,0.031210330774301336,-0.026162072261768036,-0.006005207917732271,-0.011311646626261624,-0.018512491175284612,-0.01805637527704799,-0.17993564853317506,0.040690451241743385,-0.03820750031905803
0.822,-0.03372862165020704,-0.020777829599145994,0.013366252584128194,0.0286278542530041,-0.025550477473686165,-0.00503495359884638,-0.0019763386650719084,-0.018823796501194312,-0.01989805606262632,-0.17351804742995164,0.036901209837407925,-0.04347272565271411
0.824,-0.034193308799652676,-0.01580880862382738,0.019315842726786513,0.025473980630799784,-0.028824003064242713,-0.000704319764035113,0.006011232165617157,-0.015030713636641662,-0.0187216227085927,-0.16565329703210568,0.034700192541409096,-0.05004365270519174
0.826,-0.03555469668307216,-0.013102735657069691,0.02351688446442419,0.023894352495854133,-0.03159685888756953,0.0026151674628618242,0.011086396766681158,-0.013019463618072179,-0.016656291680653846,-0.16103009021866754,0.033234350072175706,-0.0571087283147252
0.828,-0.038830821968612914,-0.014420094607704633,0.02504271231613792,0.026627117439366403,-0.03384121200762753,0.003621964036106577,0.013460022718219156,-0.0166881092886929,-0.017595899383640413,-0.15878887297449049,0.031770912816091436,-0.062320799770102984
0.83,-0.04538365943735774,-0.018327958728805226,0.02695496695401645,0.03319018555265748,-0.037777510550819744,0.0034359420478098607,0.01541180544864477,-0.023242615357088006,-0.02288409484343315,-0.15546244518320995,0.029171982934803248,-0.06379088439885261
0.832,-0.05238714050539448,-0.02214483989731609,0.029533020366190096,0.03933960463801595,-0.0424745678918168,0.0027551116510553474,0.018395396693350524,-0.02687330893114563,-0.028946575698061625,-0.15118926262580498,0.02602654308615104,-0.06189302301571313
0.834,-0.054903604996393046,-0.0232926499033957,0.030707671196229143,0.04097112519140022,-0.044742670803016436,0.0025535795319074762,0.02097430244604187,-0.026082734540143104,-0.03111743516172839,-0.14900978048724361,0.024833520267599857,-0.059191652269674454
0.836,-0.05307477899904532,-0.02061337991843028,0.0318358301950764,0.038475109195998135,-0.04502219687751036,0.005065592040940909,0.02146433658518939,-0.02496689608850443,-0.029465367155495272,-0.1498259011773328,0.025753548330762738,-0.05844631505771284
0.838,-0.052481907816351356,-0.01602392817052277,0.03633389677726782,0.036103939507330166,-0.0472337272008377,0.010687223982161544,0.02083700410714268,-0.02754673475377092,-0.0285854402540616,-0.1515557932223882,0.02545298660007777,-0.06040420282096684
0.84,-0.05603052849158616,-0.013186928912958204,0.04303732985898176,0.03676747901602243,-0.05217183209724603,0.01596972538983542,0.021218178128210127,-0.03262441871792597,-0.0310874256334624,-0.1526095103491,0.02225545297199892,-0.0637788182155215
0.842,-0.06018428916368446,-0.013653480965081694,0.046693264430531664,0.03909278148940289,-0.05577982815478501,0.017233842411748003,0.022667489275646456,-0.035471069488810264,-0.03414677816207696,-0.15356955339260075,0.018862912468265776,-0.06727244045336399
0.844,-0.060385063985427666,-0.01604984683921423,0.044296111907398975,0.04022719771702294,-0.05438753750708813,0.01412850677130658,0.023456525505855242,-0.03400412862306514,-0.03415402241818938,-0.15502971264820276,0.018292539092200633,-0.07051901862761507
0.846,-0.05619892547976006,-0.01898607658650712,0.03698800790780999,0.0395723096610299,-0.048205360503800136,0.008320133830457625,0.023132855884620555,-0.03079076065955641,-0.03156948975627671,-0.15564781050113444,0.020281537780666114,-0.07303892726606592
0.848,-0.050230219003257436,-0.022622206873638837,0.0272449896554063,0.03862020800721022,-0.039842108378905144,0.0010880002495039047,0.022994838177858423,-0.028520571839303094,-0.028812808187542387,-0.15357235769668745,0.022715725411601835,-0.07401506883361998
0.85,-0.044571223355893606,-0.027478508922578422,0.016703598522872096,0.038507113894951414,-0.03149514566137847,-0.0069058841128655955,0.023673116910853737,-0.026831849785383357,-0.02654924664463413,-0.14900329741862248,0.024285234685839895,-0.07364625294811121
0.852,-0.03926588617344284,-0.03343523387226523,0.005610385791070436,0.03896994768422602,-0.023627503294920325,-0.015218718501854269,0.02436716915546401,-0.024906284123428064,-0.02450282399236331,-0.14386731545310555,0.025242118381313943,-0.07353275664001058
0.854,-0.03387153882360299,-0.039717560715634,-0.005821757783835935,0.03936355089180032,-0.01606914883996585,-0.023293108447390364,0.024294280207141944,-0.024007423494464917,-0.02325493754670833,-0.1391112075772601,0.026663867315561997,-0.07501066184951476
0.856,-0.029849254756663713,-0.04501251471048968,-0.015037360532783603,0.03990390649192713,-0.010079330476837754,-0.02989144516383208,0.023271822413435967,-0.02543826934774136,-0.023311363311770427,-0.13405952428367465,0.02924626119971115,-0.07734206732893321
0.858,-0.02976107168568506,-0.04799852085344321,-0.018182961576103676,0.04133067015371425,-0.007993758447672764,-0.03336955793773533,0.02121017155916173,-0.027492706240960958,-0.024012141887376316,-0.12848418727600658,0.03304219121316282,-0.07809844861654998
0.86,-0.03411742530718329,-0.04782336164308,-0.013745377947021863,0.04340659945668904,-0.010970650568701501,-0.032415054740671016,0.018650744596993403,-0.02643554467105743,-0.02427979146381988,-0.1236522545743173,0.03812880485623184,-0.07550728186368225
0.862,-0.04077253441706435,-0.04451184748305447,-0.0037877747846214536,0.04478133129240501,-0.01799232066301828,-0.026761216135912178,0.017318708313217884,-0.02106238475219919,-0.02345004048921912,-0.1210847049415964,0.044133998988101,-0.07021027167694598
0.864,-0.04673079557128995,-0.03997106041792126,0.006757724259819093,0.044719549855392685,-0.025845678015248567,-0.01887199805942401,0.018166056531594418,-0.01500879500203546,-0.021196162515261074,-0.12106584341759113,0.049145151246539585,-0.06473390007739051
0.866,-0.04930392407260948,-0.037065476886959076,0.01226378270839441,0.04375002783492006,-0.030144520061323184,-0.013619780649200637,0.01941728782669552,-0.013107493861309974,-0.01761559250835083,-0.12246308866944654,0.051013654098775355,-0.061243483979179135
0.868,-0.04713554375645797,-0.035972178276850876,0.011176562216758775,0.041964658748701235,-0.028849409657191828,-0.01323278719967394,0.01858433852077654,-0.015983907278520754,-0.013307310128187918,-0.12334054664255602,0.04999148018271428,-0.05985170520795883
0.87,-0.04147166357847574,-0.0335938564165777,0.007870303275967976,0.03825389743394825,-0.024686767870098526,-0.014329362272367491,0.015894745424736765,-0.019355032913153155,-0.008943427842850335,-0.12186144950743903,0.048600188507990916,-0.05933602518313483
0.872,-0.03566688440686712,-0.028369081672732263,0.007287023567135133,0.03269309902161478,-0.022164928862663424,-0.012925332183971901,0.013881521599340725,-0.018656353233429103,-0.005503067449775143,-0.11775889769501774,0.049005736588027725,-0.0589450694591956
0.874,-0.0328705856048102,-0.023192591857921677,0.009676940018099942,0.028160653316239324,-0.022953787463389046,-0.009722504860310737,0.013956038701542509,-0.013526092230734752,-0.004412878926104903,-0.11251023258414426,0.051508489061617,-0.05854349289745214
0.876,-0.03428884524461999,-0.021801646615407264,0.012492576839669124,0.02775427317154332,-0.02575836946796134,-0.007793031740794329,0.015167282234122866,-0.0067121721205829175,-0.005661058413809143,-0.10727995392454813,0.05526097550002291,-0.057238026976822474
0.878,-0.03885621053898043,-0.024692960259756664,0.014166393939330738,0.03154749124253956,-0.028872855748556834,-0.008342229791466083,0.016348454479006812,0.00022526266825606398,-0.0064017856313288,-0.10220705752746116,0.05934398187071306,-0.05338124317949947
0.88,-0.043560761582698594,-0.02953472660670956,0.014024601555437482,0.036590285120685365,-0.03073591234396544,-0.010680662852564356,0.01765199923155695,0.007447442930740395,-0.003524533467274833,-0.09808089296341405,0.06281287847759011,-0.046676054081685785
0.882,-0.04476116405771002,-0.033333793444847014,0.01142497040826128,0.039246237671206406,-0.029540716670892378,-0.013558537321997126,0.01932012431376167,0.014265720125622073,0.0028678122897569875,-0.09615563856700855,0.06518595655147903,-0.03897312615353478
0.884,-0.04041484684627347,-0.034672335345991824,0.005742147296237884,0.037973159090041946,-0.023938803890728395,-0.016482062885748605,0.020565350875510063,0.019002818868235648,0.010178320487736238,-0.09554481446520369,0.06772599155445669,-0.03250475467244887
0.886,-0.0319012583829246,-0.03514146472990779,-0.003239070463993988,0.034667052616727735,-0.014613006601888343,-0.02067169872654204,0.020663471920269592,0.02088149027615631,0.016285427248311814,-0.09353474029578429,0.07213728922197032,-0.028604082504230886
0.888,-0.023898081267885937,-0.036907774562534086,-0.013008951982206871,0.032609051984864246,-0.005528667568239909,-0.0264309390359043,0.020060378180421702,0.02068714150676724,0.020177265961258652,-0.08961275906331839,0.07732992074907008,-0.027579048787529717
0.89,-0.02048129721318251,-0.03921825858922745,-0.018737227163085964,0.03274149871577269,-0.0012357135779056472,-0.03083610233667884,0.019988083023648417,0.02012686695977282,0.021614999808425305,-0.08654040798831539,0.0802234202763186,-0.028320295195530698
0.892,-0.020251067895825207,-0.03941116934406987,-0.019182572574809965,0.032585544585201714,-0.001344886421464877,-0.031201261213235795,0.02195821915461304,0.0211371024420141,0.022067106712559275,-0.08638277661349028,0.08034390540906279,-0.02853788010613895
0.894,-0.018195169638589578,-0.03624136804682587,-0.018199562624403216,0.02922819951581971,-0.00112238195486528,-0.028427160555869396,0.02681150438661453,0.024970620452778418,0.023994098741367483,-0.08792074985051368,0.08094439969749047,-0.026349666756476566
0.896,-0.013344267550258653,-0.030801610664010902,-0.017915839867151867,0.023243160157320378,0.0010539583950815786,-0.02480162235933173,0.03278671565672668,0.03066191149956935,0.027618728114966618,-0.08881598192007192,0.08486127456216815,-0.021705312338118024
0.898,-0.010526078951980189,-0.025184929204883792,-0.015386761801233386,0.018630533188439713,0.0012482190724475467,-0.021014345588303205,0.03613636756460556,0.03507108354907403,0.030469234279784412,-0.08832708150564307,0.09140766392432485,-0.01595927979447836
0.9,-0.013443202040112392,-0.021095326756622512,-0.008177062454033504,0.018416421778338146,-0.0036048895978525813,-0.016679060416782368,0.03492215108243721,0.03598153168469955,0.03120445616054741,-0.08667307309906226,0.0981341765242784,-0.010119767614631323
0.902,-0.02004653312911302,-0.019142922376663717,0.0011543009561467024,0.021546382009230397,-0.011249481132668174,-0.012045524871729912,0.030521709520404394,0.03458824400234763,0.03155088425821477,-0.08275267932664837,0.10356443189992175,-0.004376152805491437
0.904,-0.02577214064910055,-0.018503804147623874,0.00834305610800269,0.024561893684940994,-0.017620704969798034,-0.007780232263764564,0.025507908884774652,0.03410097744224426,0.03365149165330926,-0.0746348837648301,0.10731712975313004,0.0007253920563797916
0.906,-0.028255576168484918,-0.01768342749193997,0.011918091184934688,0.02519869911591955,-0.02109025636095304,-0.004162348893134447,0.021797152291532836,0.03643920816633896,0.037476178972394934,-0.06296850175875073,0.10961630120120773,0.003912616017488468
0.908,-0.02762906246466037,-0.016673790608913358,0.011930349584929726,0.0238073578296256,-0.021374329281087477,-0.0023034004802360065,0.019850631365726092,0.04027326969840396,0.04103845585854028,-0.05211882265952623,0.11074815673925245,0.003938989541397332
0.91,-0.0246781067589363,-0.017498920159553958,0.007430050930709276,0.022192201853484698,-0.01774787613758633,-0.004568501943187645,0.018439300328519065,0.04218965470273811,0.04215363285802737,-0.04656013154335287,0.10955906860243049,0.000613935017393435
0.912,-0.020803407493290047,-0.021550329718966095,-0.001265346861416924,0.021901777128544547,-0.011084056348521238,-0.011452356707269247,0.016394880167493096,0.0402986999084094,0.04059261496484193,-0.0468150908373203,0.10474592580524193,-0.004043282092652167
0.914,-0.017760247745800123,-0.027504198519348842,-0.01078640995466895,0.02305294698353207,-0.004554529524969975,-0.019943469760174668,0.014239942337825889,0.036139652394330625,0.03828510396407985,-0.04982233086315764,0.09842354226277851,-0.006887385825590614
0.916,-0.01553998947429657,-0.03258947481780165,-0.018116579982959017,0.024271142471163715,-5.7469756980499024e-05,-0.026596306699055994,0.012442456878484998,0.03246850891654982,0.03629321310726985,-0.05267087834940507,0.09456670776516954,-0.0071739010386748375
0.918,-0.012507104916460385,-0.034997376812285305,-0.023094743931361926,0.024138787843388534,0.0033643467636415695,-0.030340883741367775,0.009811362859324478,0.03035562217772569,0.03314831512309895,-0.054876480580235684,0.09391442574439866,-0.007322585813413324
0.92,-0.008599007673371616,-0.03482538088387098,-0.026256728340713346,0.022754340151865976,0.00659264488366822,-0.03173799523866944,0.005496003527559993,0.029267118770142715,0.02810269188945098,-0.05754053639521734,0.09389997214846568,-0.009454113360858725
0.922,-0.006568238540976864,-0.03302323423646503,-0.026198475212282493,0.021617184688815124,0.00798864607776413,-0.030842855129148437,0.0002567668346990728,0.028419243563162278,0.023820189776088775,-0.0614194584426948,0.09247277016639123,-0.012572934085053068
0.924,-0.009520132862976156,-0.029543442967380953,-0.019757955720230168,0.02191270684552467,0.004351569341292907,-0.026221856641005785,-0.005690661034346913,0.02654330276210319,0.022836404146950956,-0.06562979303210728,0.08954063095764132,-0.013189037573992797
0.926,-0.016718931502057433,-0.02342436286465479,-0.006430938789222466,0.022607397550053074,-0.004829895281777607,-0.017034556355037637,-0.013328520706470625,0.02222202295451188,0.02342803784910852,-0.06771655764496087,0.08652911086820418,-0.008826614272191259
