time,I,II,III,aVR,aVL,aVF,V1,V2,V3,V4,V5,V6
0.0,-0.001294437620619386,-0.0017112904137002052,-0.00043879241376928345,0.0014918942068155637,-0.00043879241376928345,-0.0010750414137347445,-0.00043879241376928345,-0.003203184620515769,-0.002566935620550308,-0.0036419770342850525,-0.0034225808274004105,-0.0036419770342850525
0.002,-0.00904206778198516,-0.011953920118556654,-0.0030651077227068346,0.010421366257203237,-0.0030651077227068346,-0.007509513920631745,-0.0030651077227068346,-0.02237528637575989,-0.017930880177834983,-0.025440394098466722,-0.023907840237113308,-0.025440394098466722
0.004,-0.028359792318829236,-0.03749260679438442,-0.00961348892163703,0.0326858623335659,-0.00961348892163703,-0.023553047858010726,-0.00961348892163703,-0.07017846912795031,-0.056238910191576626,-0.07979195804958734,-0.07498521358876883,-0.07979195804958734
0.006,-0.05329350008514257,-0.0704558136718834,-0.018065593249200873,0.061423017047282966,-0.018065593249200873,-0.044260703460542145,-0.018065593249200873,-0.13187883071916634,-0.10568372050782511,-0.14994442396836724,-0.1409116273437668,-0.14994442396836724
0.008,-0.06845815817867143,-0.0903879860386707,-0.023066708573139912,0.07890948080382192,-0.02326416515933609,-0.05678219635762648,-0.02284731236625527,-0.16888061404941174,-0.1352528847476791,-0.19203508110530554,-0.1804688173877029,-0.1922544773121902
0.01,-0.06757838519577905,-0.08838545614793288,-0.02178696243970991,0.07782026434169512,-0.02338565712181263,-0.05541449870743858,-0.020254408578356496,-0.16318417004961414,-0.1301915949471153,-0.18569385213730774,-0.17451563878652865,-0.18722640599866117
0.012,-0.06105233857219591,-0.07701332082699086,-0.016467658075725772,0.0696528884907154,-0.022545678158700497,-0.047613886152945734,-0.011660913614907257,-0.1365477217045897,-0.10758714490127479,-0.15583599221945038,-0.14642122437471675,-0.1606207970595804
0.014,-0.061416404765327864,-0.07208249543008192,-0.010686945559089934,0.06812382510509961,-0.0253751570502869,-0.04276952294914859,-0.0016541489344894954,-0.1189983827532357,-0.09177587538977577,-0.13673104961282942,-0.12823972832119493,-0.14561059085129455
0.016,-0.06956693294914634,-0.07579032730606285,-0.006034838500044042,0.07428515643605091,-0.03172661834783609,-0.04236998223134238,0.005663062941689393,-0.11796847769556518,-0.08957526719245258,-0.13658592324350902,-0.12756142436168957,-0.14780315023916066
0.018,-0.07782074487588994,-0.08095723339349181,-0.0030300244433895157,0.08076283997601556,-0.037670417592761254,-0.04298595830904197,0.009177419327643979,-0.12285031414177225,-0.09310218641701491,-0.1424755844722007,-0.13246056330932923,-0.15358229199457807
0.02,-0.08062742775074097,-0.08352917441634859,-0.002943240336438759,0.08320531111144248,-0.039736237244154114,-0.04351056753811947,0.010209609598216558,-0.12521882129793976,-0.09552814370714685,-0.14428651753920757,-0.13397986348008806,-0.15468185245793112
0.022,-0.07904817543325002,-0.08573631993284882,-0.006763248075572419,0.08351727542373921,-0.03756481792138826,-0.04602756107832451,0.010273843069215308,-0.12558709284113698,-0.09667240270103851,-0.14406314231956857,-0.1343204835003715,-0.15388906650769013
0.024,-0.0773748773538058,-0.09031364746637606,-0.012974364997854539,0.0851114862518524,-0.03371933219028362,-0.051405809326164564,0.009879334603916975,-0.12654332254349618,-0.09805127860106848,-0.14689837499605474,-0.13801151227368355,-0.15506379577059745
0.026,-0.07883912405807288,-0.09653609420238338,-0.017816283346019115,0.08906289362980342,-0.03181506806803203,-0.05723582299803314,0.00842162233361208,-0.12836526787214989,-0.1000226951542068,-0.15159832054461103,-0.14398416238587083,-0.15811680419574464
0.028,-0.0845706339735887,-0.10212557958001549,-0.017990143174445587,0.09472641156236611,-0.03443720344454174,-0.06041892624658513,0.0051251901636126295,-0.1309184009871952,-0.10280906886543023,-0.15278619955149456,-0.147828323879739,-0.1618115272334654
0.03,-0.0939473621262993,-0.10641635293527717,-0.013226272168741596,0.10145543288958138,-0.04160338074224257,-0.06033998367685966,0.0009548271141702957,-0.1348451631603687,-0.10604211870139697,-0.14898447389218178,-0.14775340362117118,-0.16522720134792448
0.032,-0.10428444277242437,-0.1099950439382175,-0.006405033556222751,0.1082234073113383,-0.05038544788413261,-0.05873558597165959,-0.0010331568527143162,-0.1393747004520773,-0.10737682890510934,-0.14417575019118226,-0.14572735078082338,-0.16691226538572015
0.034,-0.11055234173286771,-0.11116918647539073,-0.0008505253261108807,0.11164162394462718,-0.0562031629490845,-0.056447839315592864,0.002695793379099116,-0.13962360942125762,-0.10235753381465988,-0.14036586429303008,-0.14346015991632122,-0.16546999264412673
0.036,-0.1075793540570036,-0.10492332614442354,0.002856502782317835,0.10657204830175428,-0.05594855658045736,-0.051290838587362046,0.014284871827378294,-0.12806740403574543,-0.08643294408510382,-0.13296758418930346,-0.13951936196703524,-0.16115726044576173
0.038,-0.09517757815363972,-0.08817299370029769,0.007350367128509355,0.09153444749006508,-0.05123195712835618,-0.04051242213888353,0.032239919464804284,-0.10176471998593355,-0.0598237577471977,-0.11688673063895555,-0.13162823980264376,-0.1564313624863178
0.04,-0.07924516465694015,-0.06438421399715401,0.015204205043289759,0.0715481973882955,-0.046978022135974955,-0.024664159001732754,0.05112030038729645,-0.06580850227333271,-0.028128119672341953,-0.09283016049550034,-0.11940410930753721,-0.15320636573847196
0.042,-0.06439519576345523,-0.039307993371669646,0.02538174582239643,0.05199487515933483,-0.04519782493075029,-0.007060346970623583,0.06547140651701183,-0.024084912716511572,0.007823673029753574,-0.06152110684456254,-0.10106968433017058,-0.14735200370096876
0.044,-0.04849261098642429,-0.014362930461108099,0.03419430133333021,0.03228472262589899,-0.04245734403188176,0.00987672356512629,0.0737173146893031,0.02910405252192515,0.05861836453796955,-0.01612908863873201,-0.07002574948827517,-0.12923239137566406
0.046,-0.02799442577230918,0.011909375466956753,0.03960155396714669,0.009365743178165131,-0.035234763515399135,0.025791445376890557,0.07801256014022344,0.09974072347381717,0.1336501783642471,0.049948861344701855,-0.021524022844413952,-0.0947221336360553
0.048,-0.003644554472458417,0.03947242258025045,0.042726072190963665,-0.016681152404013754,-0.02437586174800303,0.041087335619702306,0.0813509666422788,0.18213460975147253,0.22746954218110832,0.13343969497448482,0.041580116228131084,-0.04939980660374359
0.05,0.024848125470131554,0.06907224440065862,0.04423908225559961,-0.046184428612673356,-0.01063043206748438,0.05639537951550851,0.08445461902027684,0.2669023859283428,0.33114775341619707,0.23431051744425338,0.12230118976480941,0.008843491648237278
0.052,0.06466447123941829,0.10514158493529144,0.04094935534283184,-0.08459251933799047,0.010838236217255173,0.07230216254864812,0.08516611439297851,0.3554406935854881,0.45002193272447216,0.37081737320658403,0.24153056355310354,0.10193154148729583
0.054,0.12213669005858138,0.15031764596908664,0.028602752150628664,-0.13619522658154196,0.04548271950690424,0.08814949998693068,0.08155593403428552,0.4555958643161784,0.593940517362411,0.5590587986155924,0.4153606358564555,0.24712666019629503
0.056,0.1923581483529391,0.20130401615591234,0.008859654887688653,-0.19692441640999367,0.09029901257855495,0.10348297343329967,0.0740356405195496,0.5631786296995236,0.7526489021491639,0.7819010096934912,0.6268187702409201,0.4293703471946242
0.058,0.2644942947072283,0.25770925200992334,-0.007345704957768254,-0.2612759558022197,0.13468149771799054,0.1238565292657419,0.061684142067199396,0.6497945799548392,0.8895899141291519,0.9973275858374105,0.842898960856599,0.620733570978954
0.06,0.3349137205540006,0.3292110154457582,-0.006367699995654735,-0.3322662378784956,0.17009923098300778,0.16081838931356965,0.039514294944826514,0.6751629502898215,0.963235635116547,1.175160970917724,1.052458805075507,0.8175323691807282
0.062,0.4081585456544839,0.42337562904106824,0.014813573185297925,-0.41588930065633667,0.1968502220972235,0.2191897050791704,0.004955328889558136,0.6258240166881448,0.9634037660167751,1.3172395623156241,1.267432296410383,1.0346608126729293
0.064,0.4864555414948536,0.5302513481950752,0.043821602245139035,-0.5083538271516742,0.22163281247487315,0.2874234809124975,-0.03625299459659008,0.5341543642825014,0.9220664020831124,1.4426123413510952,1.4907938695322853,1.2693272500383561
0.066,0.5630872410357877,0.6267998690736171,0.06404513045632751,-0.5949511882100761,0.24952743387444037,0.34569520152168287,-0.07698156234042927,0.4372073331471983,0.8695115735164831,1.5514672975360486,1.6933455211652253,1.4857353661729027
0.068,0.6267831766517838,0.694900692768441,0.06841948619684306,-0.6610511173678862,0.2790612781715008,0.38164078294067183,-0.11758307759415898,0.3295520717006228,0.7915975868168731,1.6118517783990096,1.8270687933186693,1.6377875378880093
0.07,0.6723511751068663,0.7347335693102081,0.062447336771596834,-0.7040041551730791,0.30506568835513803,0.39832831643491884,-0.16202296660541288,0.1830631562388117,0.6578013803196282,1.5991776612613795,1.8719696385994158,1.711269496993407
0.072,0.702639884528486,0.7596159290481723,0.056976710830042195,-0.7316577292375456,0.3231291849750302,0.4079447251004566,-0.20732387131787341,-0.0007569512555813691,0.47567130603318997,1.5310354773905615,1.8556121226392994,1.7324915032301484
0.074,0.7110259543861892,0.7704832128826183,0.05969406338261686,-0.7410714460566799,0.32574979990642317,0.4147446734755109,-0.23807660079297457,-0.18511239284247888,0.2841669996947114,1.425998334460862,1.791517111659894,1.7066030869894482
0.076,0.6705086838580734,0.7432025438114462,0.07314120508396818,-0.706807104444189,0.2983145813195284,0.4078379615327678,-0.23342762275808732,-0.3378596338405755,0.10402897285918973,1.2513175552622942,1.62400058430109,1.5716093457629177
0.078,0.5625723356701379,0.6590585067162504,0.096802476729041,-0.6104611930050792,0.23227722566453285,0.3776101341249504,-0.18758681155228443,-0.45962431232797635,-0.07598761116505412,0.9668823026775311,1.2976010343211346,1.272855699779252
0.08,0.41111369263441344,0.5386911898444975,0.1275676025796655,-0.4743841631088163,0.1413588434904436,0.3328008238794584,-0.12221662741161925,-0.5732884133515899,-0.26945186337617505,0.6028497084412475,0.8610034160311648,0.8646056049195381
0.082,0.26485261082876593,0.4259318746426266,0.16090799839636363,-0.3446848957281924,0.051952549663399426,0.29287464032068594,-0.07099887345889125,-0.6958001994884166,-0.47185633834749674,0.2396071627223278,0.4399291213958335,0.48064007979232826
0.084,0.15063590138163369,0.3457151387244289,0.19501720613137152,-0.2470765245606609,-0.02196664851143965,0.26935626293774567,-0.05365539856941716,-0.8253709964763637,-0.670264861433799,-0.07693078396461553,0.11888158644379164,0.2140680569082837
0.086,0.05841356286853941,0.2905413821068823,0.2323092372035249,-0.17297864103698526,-0.08674966435756984,0.26008730522253176,-0.06537644270626118,-0.9521423317966498,-0.8590483885877112,-0.3631676326984147,-0.11582078601119775,0.052801634702083745
0.088,-0.032890731239392894,0.2405569933014857,0.2738447786223123,-0.10232930154990975,-0.15342488885381306,0.2559642468713973,-0.08619665808936737,-1.0693893806327803,-1.0369573959516518,-0.6465390244842687,-0.32507277484313735,-0.07647892305382605
0.09,-0.12409469864016148,0.18731211263934683,0.31183572203791265,-0.030620462145197546,-0.21852533325435924,0.24855728481552347,-0.0992356716293116,-1.164934623667899,-1.1845915955878041,-0.9013605155364912,-0.5251194346131446,-0.2136516967636735
0.092,-0.19291186622493844,0.1386361630187434,0.33176873168911003,0.02737524832699743,-0.263596886628445,0.2341166256732786,-0.1011975049806629,-1.2133885228944303,-1.2592627441840136,-1.0501616101754072,-0.6605226439499694,-0.3253994463366836
0.094,-0.22225676475712525,0.10468441159812615,0.3268954238517192,0.058495434854582556,-0.27637441877519797,0.21444819201208642,-0.09829461355307059,-1.2000488338683089,-1.239071771283206,-1.0501220925077928,-0.6819577987929814,-0.364940600244858
0.096,-0.22276338786970953,0.08384414363453306,0.3064711373102227,0.06911863479230819,-0.2664593050530738,0.19370118319068566,-0.09659846089352096,-1.1460491218682631,-1.1605949028859908,-0.9576872479504926,-0.6226222213675825,-0.34343893282729204
0.098,-0.21773551804158242,0.06453782317061914,0.2822255673090608,0.076555773552428,-0.2514663782656402,0.17205523452975593,-0.09729718686068418,-1.0844932609491278,-1.079506827605189,-0.8686599519031513,-0.5611696749821911,-0.3148608777410764
0.1,-0.21483092435952025,0.038218972074476276,0.2530763315058742,0.08856674413474608,-0.23507375835094557,0.14458200852620046,-0.09844468534508843,-1.0190920258288365,-1.006833286223849,-0.8161993677709567,-0.5329553442307072,-0.31030807556451095
0.102,-0.20601765906332306,0.006977035225128483,0.21291244302951617,0.09981021035659413,-0.21048139953115763,0.10903670871080669,-0.09858436473732546,-0.9306673268942679,-0.9150631553066231,-0.7653540263393145,-0.5149125801632983,-0.3172722052778191
0.104,-0.18783136526356187,-0.02123045033603029,0.16627091970990598,0.10454768269146698,-0.1782508117502583,0.07147487564995347,-0.09748182466857085,-0.8156718743842558,-0.7923690146812251,-0.684806233080023,-0.479228280299727,-0.3133634036045596
0.106,-0.16745001966111392,-0.04034895581811435,0.12665060316915144,0.10362569792802892,-0.14855114429968175,0.04179198734537891,-0.09355639601987033,-0.6946285434001177,-0.660489189400121,-0.5841745319824632,-0.4262511049482496,-0.29414247546576733
0.108,-0.15162804523473944,-0.04796838135676353,0.10339222608606652,0.09955075685365176,-0.1291366998745287,0.026156462785536787,-0.08334678289530982,-0.5860460683013343,-0.5445340921190149,-0.48817992586279263,-0.36954537060847276,-0.2677559329085657
0.11,-0.13951753879538695,-0.044995918721858603,0.09455679337372498,0.09230060497630914,-0.11842996588426953,0.023192089934946754,-0.06615017551569707,-0.48900051140427353,-0.44675444108365703,-0.4050696426522805,-0.3152529488100369,-0.24071920463607901
0.112,-0.126751211654447,-0.03672664891729828,0.0901813826544698,0.08200652642799587,-0.10942561158908014,0.025106264466326942,-0.04689595767854107,-0.39365152303155004,-0.35429588160752873,-0.3279809791103319,-0.26258332823341446,-0.2150037257981673
0.114,-0.1118217139132305,-0.030854533663760654,0.08103047706548847,0.07171347845465388,-0.09698370441972522,0.023423956588292057,-0.03184819257436729,-0.301758789731939,-0.2647839995757642,-0.2549884812239702,-0.21392125804977505,-0.19135087280115326
0.116,-0.0974207695849748,-0.03178031206865017,0.0655883515728856,0.06517898777027395,-0.08163657340736874,0.015333968520219067,-0.02332961974570311,-0.23061742020948975,-0.19532082060663605,-0.19754597127062754,-0.17757745397344257,-0.17120798325659034
0.118,-0.08720463983576192,-0.03716819909399871,0.04997712399413665,0.06304602212156481,-0.0682475125223086,0.005067270972714338,-0.019340642056339945,-0.19318327085585366,-0.16121103391877858,-0.16633625888110146,-0.15941660174073388,-0.15624202727349012
0.12,-0.08185070055182436,-0.041508861905731706,0.040363493927062226,0.06272643598560913,-0.06061111136931698,-0.0016865201091433688,-0.01610914846012769,-0.1795953651163359,-0.15321144168162243,-0.1550947736360208,-0.15429710560384965,-0.14630014285756704
0.122,-0.0781321826097948,-0.043430708630682824,0.034864873705435076,0.061917309386498344,-0.05654149072318297,-0.005165284674707686,-0.010476808031545048,-0.1665462371508398,-0.14607258767340028,-0.14687101658992374,-0.1501659917568965,-0.13885675453615876
0.124,-0.07201198932446189,-0.0469369850022872,0.025395961628687503,0.06066917269326012,-0.04969160521916119,-0.01124515854800469,-0.0016280458618420852,-0.14171404332223306,-0.12491843498377185,-0.13293107303705792,-0.14031649072013389,-0.13191013998808684
0.126,-0.062364720277641277,-0.05454516596148554,0.008100746681499939,0.05971886212447752,-0.03682382668634497,-0.023195792155769675,0.008211140972657802,-0.1115219121557621,-0.09440308921059982,-0.11747814250011789,-0.1281230377041019,-0.12650924409131506
0.128,-0.051500099890652844,-0.06311632158539228,-0.011701362765192,0.05873154127913219,-0.021406882896400792,-0.0372185482262856,0.01584545412151575,-0.0873252800230195,-0.06592156241292439,-0.10643976085087187,-0.11964219908331802,-0.12471893029113065
0.13,-0.043241970826451266,-0.06819455041661429,-0.025423622705955103,0.057388764155491816,-0.009885454158228122,-0.04714006625898108,0.020673742529491265,-0.0722158310559504,-0.04507713741412302,-0.0992126856652683,-0.11497371114998267,-0.12602673657379845
0.132,-0.040863476048642156,-0.06906806103897714,-0.02875233479152286,0.056789669050247245,-0.006438800075169684,-0.050180372583427016,0.02460745363308482,-0.06295497241828575,-0.032028204996711364,-0.09152675246854562,-0.1093755448741408,-0.12766054911309524
0.134,-0.04490370729345252,-0.06812483291057661,-0.023735623976800894,0.05820443494325165,-0.010646983988681987,-0.04778148372063295,0.02836964081215222,-0.05768700873181923,-0.02624479312090786,-0.08139869317863117,-0.10088893249689877,-0.12782722114198306
0.136,-0.05185190571513643,-0.0672422213860468,-0.016081687404679017,0.06077135019851978,-0.018031818532684117,-0.043330250500956694,0.030272906440069376,-0.056381647002288905,-0.026289741129611584,-0.07027594747185753,-0.09248272792218874,-0.1267147303730698
0.138,-0.05573723002232631,-0.06551516496134822,-0.010666830345303139,0.06117132238466366,-0.02306988918845718,-0.0392065079351294,0.028763685468045093,-0.05676029827476975,-0.028065359803999636,-0.06030729074732164,-0.0866662891137911,-0.12416677024020499
0.14,-0.052337434580316165,-0.060538921327249924,-0.008898275299957261,0.056372770672813384,-0.022831240283795608,-0.03547291268084069,0.02451919487476504,-0.05503463133526758,-0.02710700645209214,-0.052691848445701316,-0.08248526149705679,-0.11868797192787957
0.142,-0.04302444990815114,-0.052264567979374864,-0.009408760922491186,0.04734389166320432,-0.018500558248367535,-0.031539011375204436,0.02019360652497308,-0.05074853900081361,-0.02231407258493762,-0.04823744703140698,-0.07881033095688432,-0.11031678626513806
0.144,-0.033764730948278934,-0.04442884944939251,-0.010446029204445748,0.03894686479607955,-0.01364229453203977,-0.028198793790639637,0.01863256494042562,-0.047121574051652855,-0.015740008235670785,-0.046912088060278696,-0.07642660238863695,-0.10246432532706533
0.146,-0.029629802053657228,-0.0417310946262006,-0.011900354030446583,0.03575340005363673,-0.010770450768622913,-0.027594697680970608,0.021304239034095382,-0.04546255062526062,-0.008865245488819553,-0.046010125295849566,-0.07527683272141263,-0.0991684439990481
0.148,-0.031396687381792215,-0.04621263536050537,-0.01484999456268286,0.038930782587145656,-0.009985074557442698,-0.031295001660293253,0.027970277088310645,-0.042411727497039864,-0.001085907163506371,-0.04147625936721435,-0.07325079809325623,-0.10135291798946211
0.15,-0.03677782425428832,-0.05537022099165984,-0.018858106354335075,0.04616782431778337,-0.01060967185640481,-0.03792498546998799,0.03659332363612278,-0.03448242976576841,0.007606515871682609,-0.03276046014244955,-0.069620692561508,-0.10597611537109075
0.152,-0.04242865882600712,-0.0636260040502792,-0.021681663293812003,0.05320294635890248,-0.012029858947398272,-0.043580497153136305,0.0439236691331154,-0.023299135653595423,0.01496269709164154,-0.02405832001465199,-0.06650184355287744,-0.10861142315770317
0.154,-0.04425488959066893,-0.06643110610081288,-0.02275679527485133,0.055672042817955375,-0.012123841667937755,-0.04547195526639113,0.04740120525808501,-0.015127326909579061,0.018474596432862107,-0.01945325488305956,-0.06507545150482766,-0.10703785679560379
0.156,-0.038547875704994045,-0.06251920537808904,-0.024278044488780414,0.05080850515116781,-0.00772903140908153,-0.04386173579005282,0.04630969794030806,-0.015552293913613971,0.017342174826274818,-0.018981004367300762,-0.06354247084463453,-0.10245266846571512
0.158,-0.025730409144366653,-0.05330646936481544,-0.027383084990022823,0.03944001330294675,0.0011588058575108704,-0.040277387115815994,0.04160228902149937,-0.023987763221708504,0.012575796746572606,-0.02000751864663402,-0.06062223982621159,-0.09802145828652023
0.16,-0.011556750932978655,-0.04216460776333928,-0.030204725544658334,0.026514595264392555,0.010138784793884663,-0.03596745843624031,0.03558120230172791,-0.033721658099475436,0.006767032662654328,-0.020371409025702513,-0.05800519133204002,-0.09628443953900098
0.162,-0.002573253323476769,-0.03384246109903662,-0.03109739856157801,0.018168438752374026,0.014985834050185148,-0.032687543157741486,0.03131309670564476,-0.03779963916582653,0.003843205580976021,-0.019303543513150535,-0.05760411272944497,-0.09712387453041653
0.164,-0.0014942350200603737,-0.03208361340878538,-0.030710566080414305,0.01750165950985763,0.015057860223392073,-0.032358748936974824,0.031313022923799005,-0.033812772919879205,0.007115087657016422,-0.01653903311082295,-0.05878362621318851,-0.09842254170557493
0.166,-0.006599869622184533,-0.03600800825321712,-0.029585957968942398,0.0225041059429915,0.011842521349388313,-0.03427316133030792,0.03584811718042744,-0.023914178876940584,0.015737388477286417,-0.012024041628865624,-0.05963266424654031,-0.09865450447563191
0.168,-0.01391078036111942,-0.04060413563889031,-0.026836505136715316,0.028272886430377116,0.006836320166434425,-0.03510270478388195,0.04224587523451664,-0.012379170072839327,0.02456806734626986,-0.006315717724326946,-0.05920424797948278,-0.09808586098530803
0.17,-0.020403829130762406,-0.04296690305334591,-0.02278979039171222,0.03211108975783153,0.0014437516804300457,-0.03358656827512722,0.04629503078213982,-0.003174532568620332,0.029248196772806278,-0.00019367181125602253,-0.057329123512709655,-0.0976885342442714
0.172,-0.025402961438198663,-0.045925460875741175,-0.020769475408687208,0.035588529245723706,-0.0023840377137668398,-0.03323076195259802,0.04531961887244639,0.0014853271311411529,0.029840002187580126,0.005677729740656942,-0.053897161485407824,-0.09780552175442511
0.174,-0.02888313877854489,-0.053453908731836704,-0.02452054063115303,0.04100114096528704,-0.0024800439727887015,-0.038497538477493674,0.0408471564852324,0.0018304183558579311,0.02899178659358921,0.010087852930730591,-0.04990107102151375,-0.09807687142163363
0.176,-0.03009679858087243,-0.0643824760504508,-0.03387189445707852,0.047356141443629124,0.0016741510846397087,-0.04888395134702928,0.03708785104911805,0.00023732952851675195,0.02883244727702092,0.011923061529881738,-0.047322179826922155,-0.09803292830289378
0.178,-0.028186259137175634,-0.07193251280074357,-0.043349590989197,0.05042563539993453,0.007667512217400361,-0.0577590498341522,0.03566792454397006,-0.0007613787434538366,0.030406312654106232,0.012405120740855697,-0.04623400555749857,-0.09715015006143705
0.18,-0.022692892641365786,-0.06925110623746282,-0.04650408693936561,0.04617892538783719,0.012268400264184028,-0.058007644155847395,0.03416194321017803,-0.0004750058140340188,0.03396543016462444,0.014406999462283195,-0.04429576321519438,-0.09465530834917739
0.182,-0.013794155707576708,-0.05629077704472089,-0.04267807637709905,0.0348646920929695,0.014929117877517547,-0.049412920268143,0.03090065142196281,0.0001783804494599481,0.03817296772099049,0.018388941372870782,-0.04066091312098483,-0.09015879586018237
0.184,-0.0031793613922452193,-0.040569092108705,-0.03751341288003991,0.02170100174347332,0.017577609186819085,-0.03895514040255115,0.027985459571384267,0.0004481157640352487,0.040675627693154824,0.021579571879772216,-0.03758152662325133,-0.0843144033131934
0.186,0.005534152677181827,-0.030045593057120668,-0.03554342472966385,0.012792349800546129,0.020728791370664055,-0.033087930194405965,0.028261502440846315,0.0009395001527093753,0.04111997567159779,0.022353978217775412,-0.036552606510286904,-0.07811930939498236
0.188,0.008386698361610745,-0.02685254409504835,-0.035154662118562496,0.010775244814371109,0.021838538831081732,-0.031939163793507835,0.03201901757517155,0.0031255184827608936,0.04212345067455324,0.022866942915170618,-0.03558133200669054,-0.07228768896210007
0.19,0.004349712548551656,-0.027974619465090403,-0.03232530819823717,0.013938481687009239,0.018558268942525557,-0.031573956968429094,0.03752399018923492,0.007687880494314625,0.046070903854125184,0.02606360061889423,-0.031988604129360235,-0.06793631307203679
0.192,-0.0030810569245665834,-0.029725658415838838,-0.026811891938205618,0.018427461246888148,0.012324351561184868,-0.02970564456264909,0.04264475513196279,0.013402907636942749,0.05199560565137617,0.03166501147988213,-0.02631453050312101,-0.0661292999501885
0.194,-0.008412295852732864,-0.031214345742208945,-0.023158083448901887,0.0213904918931007,0.007861164144747692,-0.028311002470052485,0.0448145605379982,0.017577973506409095,0.05611080134387039,0.03595242904124482,-0.022281462369350597,-0.06574946692141122
0.196,-0.008207521344344831,-0.033839842096554544,-0.026048980449711122,0.022271757696820632,0.009254186430405471,-0.030870759110987564,0.04148400065563372,0.01765142292610216,0.05537562743352657,0.03546995621687768,-0.022980371139609487,-0.06405770470314182
0.198,-0.0030099963065203014,-0.03768684105963351,-0.03491393770198734,0.02161453516875222,0.016123115717465355,-0.0373478902060474,0.03313207792210464,0.013189438097721506,0.050969423995355076,0.03109805825085758,-0.027218925549749008,-0.06050598272510627
0.2,0.00359448867727855,-0.04041067980490029,-0.04397392824891035,0.01991255555576648,0.02377919111905587,-0.04342495618822554,0.024506189807210994,0.006788702304424556,0.04755172486351463,0.027562089099325133,-0.030536557449830453,-0.057452335545467664
0.202,0.00738367819817627,-0.040436158090074885,-0.047681447115132974,0.01803772599193882,0.027352915449269308,-0.04510564649758553,0.02080522139444169,0.002700659653758708,0.04867797548296534,0.028613243408272267,-0.029893447432963086,-0.05597615131682459
0.204,0.006171982457383207,-0.039019874815972175,-0.04513521732058391,0.017441609336574834,0.02553796901199916,-0.04249725704739374,0.023165528931116966,0.0036596966239544784,0.053735695445105855,0.033699249004043266,-0.025897903140167853,-0.05411301338599372
0.206,0.0017284106558362712,-0.038253861244425785,-0.040027500348924404,0.01865394712827241,0.02114115927484119,-0.03895984640438305,0.028079710037332097,0.008145443422816452,0.05897743761360901,0.038995332589071854,-0.020773017306112928,-0.05071680676964737
0.208,-0.0014494897337863197,-0.038519019202766284,-0.037121928700155744,0.020215559527715105,0.018393551057950465,-0.03751278519898056,0.031177034895147313,0.01200767373023402,0.06116697032908982,0.041436718953588615,-0.01575392351579613,-0.04759759388551403
0.21,-0.00019077869563281305,-0.038348736611441316,-0.03815869128628189,0.019984060179894417,0.019197178305819258,-0.03818631680194659,0.031963849247219935,0.014062530945279147,0.060777981429643524,0.04246759079535068,-0.01052507077537058,-0.04592503896286123
0.212,0.0047987925253183145,-0.03602933141645861,-0.04080002946822798,0.017103255394006523,0.02199786811291012,-0.03854318271983787,0.033511310958756986,0.017636180479133047,0.06127383075327187,0.04652562086554611,-0.00479048234543627,-0.04399904954543433
0.214,0.00993582404688129,-0.03125122765923117,-0.04115129475296909,0.012648367742156644,0.02382040615229372,-0.03628849469742113,0.037140765359111656,0.024987330079866442,0.0650941904951803,0.05486840004623126,3.4449988854959486e-05,-0.04068759952487094
0.216,0.012332044635418113,-0.025516853854509233,-0.037726295816273445,0.008511283202884058,0.023323509079069892,-0.031577544231932056,0.04021227806050392,0.03322432940868419,0.07100280878238621,0.06329445512687888,0.001930615646607922,-0.03786567461804751
0.218,0.01330731039605923,-0.021012827749619163,-0.0340044145059639,0.00529024625083261,0.022876454471513964,-0.027532686846073823,0.03981067632489497,0.03732994625269008,0.07509697272969702,0.06681786713861192,0.0010104637280622041,-0.03749729365935032
0.22,0.017108685491019654,-0.01903340408487212,-0.035720315846520544,0.0018896823359814377,0.026612672024567442,-0.02778023549527568,0.035907711769750675,0.03538097461004392,0.07435467856209196,0.06453856398537561,-0.0004572042137505506,-0.038798309391347235
0.222,0.025142174442990974,-0.019210295070214704,-0.04409094445524198,-0.0023119404283243267,0.0351053492118582,-0.03248204978906055,0.0304235756397016,0.03033206652942785,0.06996413768261364,0.059896873706479024,-0.0007464155110753928,-0.0396951314798818
0.224,0.03347322725256187,-0.02006796891156399,-0.05356355770391361,-0.006059284681433547,0.04368705983707003,-0.037783891318538106,0.025271608594317374,0.027350441357946335,0.06667073405992086,0.05749115652978606,-4.343254001632426e-06,-0.039226474463095476
0.226,0.036562255021443904,-0.02041212376051682,-0.05709991962277273,-0.007320444089907847,0.04665429718546296,-0.03957948158097924,0.02202300743194489,0.02974860346288686,0.06856179768466032,0.05991167186195369,0.0012232780910248781,-0.03730616606655857
0.228,0.032100698477889045,-0.020153635296999213,-0.05216690574825674,-0.005098351511237758,0.041887569642760324,-0.03683204515038209,0.022149831500173852,0.037276578606206284,0.07601383771687974,0.06686892289792382,0.003506436250861142,-0.03387419491696994
0.23,0.022896378893507485,-0.019853193889519144,-0.042223096950562373,-0.0005057710939052449,0.032348770564521616,-0.031710848026361135,0.026097886778994033,0.04679208001656052,0.08576830301255006,0.07575442780144681,0.007715045299827947,-0.02990260720987818
0.232,0.014778178832651702,-0.019848506784021072,-0.03368765894101634,0.0037119837334925413,0.02401874534573503,-0.027523150466829734,0.03210410961297879,0.054206484212097346,0.09333826690628363,0.0831627808064005,0.013317935493924224,-0.027554818715592018
0.234,0.012453051745397941,-0.02000800725662269,-0.031452547814570846,0.005010058374294285,0.021818789480391915,-0.026524614707734706,0.03670150106414339,0.05682829505936371,0.09590416109628622,0.08725069122806153,0.018346208560385883,-0.027772040853251863
0.236,0.017039062353197108,-0.020086265087020057,-0.03650277795797328,0.0025977974608929265,0.02683520067327938,-0.029062931868343685,0.0368569389428016,0.05461887595298191,0.09358320898096481,0.08850600442957701,0.02098553811343229,-0.029097900281787957
0.238,0.02582704062310421,-0.020036720912556365,-0.04579558925397821,-0.0020930983608534485,0.035986968384022246,-0.033650787021087765,0.032243997848194025,0.050244472802725045,0.08918604601164054,0.08837295800354203,0.021070129000285834,-0.029688518816673986
0.24,0.0338695550016067,-0.01997045351596447,-0.054065977357273226,-0.006365855282925905,0.04405886858552196,-0.037695990925084494,0.025409460894874617,0.04750423760402002,0.08649579652693719,0.08809470631166581,0.02036729321350139,-0.029169765099699492
0.242,0.03712737276663575,-0.01996585908641902,-0.05724328134772671,-0.008243148949146573,0.04714135251957254,-0.03902636784799683,0.019054435140965414,0.04844145480841474,0.08746930710099515,0.08872230843304475,0.021761732507910615,-0.0279088643978891
0.244,0.03492569855976193,-0.019999821916752182,-0.054884815232123546,-0.007571151708965379,0.04483241742167038,-0.03732844399588637,0.013971005255488292,0.05235178379149005,0.09136969351732528,0.0912000013361126,0.027345820668312974,-0.025609431923921896
0.246,0.03022996364351099,-0.020018546768281152,-0.05015014764906815,-0.0056888443636684775,0.040177505372840934,-0.0344540449891181,0.010282533333093789,0.05743715566370661,0.09643051057769408,0.09569402218964622,0.03606548590499269,-0.0216877704033165
0.248,0.02744297572164487,-0.01978955935947845,-0.047207341726430305,-0.0045723518993876725,0.037358588626606834,-0.03273315529963651,0.00888582991712663,0.06243851859111888,0.10142557081318535,0.10138174714349861,0.044334587340863485,-0.01623947973758764
0.25,0.029244609682147118,-0.018242205953685958,-0.047527920884942836,-0.006069875498420104,0.03840919918866576,-0.032310533462697945,0.010644675235234408,0.06708077672955687,0.1060782185657907,0.10788180317667825,0.05013181129510945,-0.009438549402273552
0.252,0.035711463780021234,-0.013433626794907979,-0.049178339083123725,-0.011401964870438722,0.04243769602633677,-0.030929960284985385,0.015000299035445919,0.07172561404815757,0.11073145803789504,0.11581002214937615,0.05450409264242675,-0.001087125483379355
0.254,0.04543168635134252,-0.004408030313151045,-0.04985512884072099,-0.020452661200679782,0.04763843414094339,-0.026874291724024165,0.019586258733278607,0.07668087313396754,0.11568506059140599,0.12470000768607521,0.058307146366482605,0.007917898766276335
0.256,0.05624640655575782,0.006956336415022992,-0.049422088796054864,-0.031221869317631053,0.052885246533670445,-0.02125640276202954,0.02153404326056409,0.08195495598978707,0.12095376694615226,0.13236341128016782,0.06061936812344813,0.015221472885976155
0.258,0.06584632853629165,0.016757059607517222,-0.04956336763159402,-0.04060437028622679,0.057798864444544656,-0.01708050463129649,0.019581197936221827,0.08760994394770974,0.12660709080199203,0.13772029157937093,0.06153869341152435,0.01925185561006643
0.26,0.07287646280262801,0.021827104801232476,-0.051939145210120906,-0.04631941710605466,0.062395064213953834,-0.01655790764601759,0.014873637933792424,0.09344536299397971,0.13244464906423442,0.14189188239985032,0.06321593033660268,0.020493058496723504
0.262,0.07768402405201458,0.022036236946813836,-0.056660974203423684,-0.04855121313975981,0.06692401681696429,-0.01927398504305043,0.010234781350554084,0.09807934116133132,0.13708055717757828,0.1454800772040812,0.06646766298394215,0.02036406717573394
0.264,0.0816794144568897,0.020346619749072554,-0.06198429781789626,-0.04968901631808027,0.07146547831833616,-0.02254349544277358,0.008232108212640973,0.09991130349259233,0.13902197204011485,0.14769709544457235,0.06949566606204281,0.02018207851233753
0.266,0.08555726986371454,0.020462778879075518,-0.06517393907301225,-0.05211700158933525,0.07510015086849617,-0.023318999340370142,0.008977203000442649,0.09965679933617237,0.1393131780922311,0.1494423915292974,0.07183702199007055,0.02144883568999188
0.268,0.08842654498498406,0.023824816290874625,-0.0643653639868063,-0.056037610463164626,0.07621117876075897,-0.020423771860921074,0.010370727484186066,0.10036312341562256,0.14088989545299715,0.15393509563071897,0.07622456699856116,0.026022758894019674
0.27,0.08922385822403228,0.028380024877693973,-0.0606826716265849,-0.05943753926035049,0.07463042376147286,-0.015884380734332657,0.010707095819612013,0.10419807271026801,0.14443493433140492,0.1622129964946886,0.08414101602436334,0.03473884237164574
0.272,0.08843316947973565,0.030509455963778718,-0.05796478416580681,-0.06024500832272028,0.07261224307272211,-0.013517753447223679,0.009810598109088806,0.11022035436087027,0.14754805544677427,0.1710478549845344,0.09274878759913616,0.046050549650209306
0.274,0.08760010902948775,0.027990537839221157,-0.05971417177512291,-0.05799999109634852,0.07278794798102242,-0.015886581884290242,0.007277527146060711,0.11557162766048627,0.14905626679302894,0.17731720893451283,0.0986098396286734,0.057002050753595254
0.276,0.08758205107706415,0.021092609760475157,-0.06651741447372113,-0.05360300807368857,0.07587864791919671,-0.022831878219897156,0.0016889913291507576,0.11813502050235411,0.1509022517163808,0.1813389293075627,0.10189036016881012,0.06513517707839774
0.278,0.08801373141568969,0.012276450842263245,-0.07569409899533346,-0.048692587316837455,0.08046504216766032,-0.03175273230092169,-0.006764881141281052,0.11801604687277084,0.15427279270941607,0.18437278612276053,0.10520096664909227,0.06922774021499369
0.28,0.08845107705683873,0.005309167349478458,-0.08310615247199822,-0.045352513678376755,0.08444264678352997,-0.03885530080389339,-0.01500320756782888,0.1171727896350247,0.1574988064160917,0.1864049749176164,0.11006564920939127,0.06972808873955892
0.282,0.08983277422484168,0.004010486658120397,-0.08582874982096664,-0.04592987213678993,0.08691214014371866,-0.040853886836336395,-0.02039555716468795,0.11823749421571919,0.15995026040661733,0.18836185275587847,0.11583617881318961,0.06914348543101613
0.284,0.09432833449846638,0.010687629281263083,-0.08366327987968111,-0.052266943678129174,0.08876706291845109,-0.03643553605480886,-0.023650326985470274,0.12332553099662506,0.16428723193000408,0.1930557954464531,0.12127531402199589,0.07063579803531547
0.286,0.1030180445255639,0.02376267189022715,-0.07926262302173094,-0.06362682456562194,0.0915333158073531,-0.027688151762495217,-0.02720305394766824,0.13261294389464467,0.1720898872874189,0.20131445722575658,0.12607377660012642,0.07535765300781318
0.288,0.11438389405722618,0.03797369338860403,-0.07637940598635186,-0.07640583729464719,0.09586830804132952,-0.019286511447167927,-0.03197802100200137,0.14389472646772303,0.1804591931430148,0.20994267296791336,0.13093871481561464,0.08191963669853781
0.29,0.1260365379537058,0.04934816916690473,-0.07654886786957767,-0.08763084839619248,0.10111396178656563,-0.014167228798226331,-0.03614597809573469,0.15438623863462322,0.18539866201862468,0.21572826642150134,0.1370716686334322,0.08893175897294199
0.292,0.13665053590643864,0.05822921259278637,-0.0780948272487144,-0.0971554517045259,0.10613262730363415,-0.011148121749579644,-0.0366742163873283,0.1623662767154775,0.18621108054693125,0.21911804951186098,0.14517608992432499,0.09658734552073063
0.294,0.14537987506916203,0.066158254475485,-0.07880392301024056,-0.10549773304720793,0.11020955773168208,-0.00789541803401444,-0.03245028343492211,0.1668841325919605,0.18516478168598266,0.22258310859264493,0.15408136199153663,0.1048139173330497
0.296,0.15158847936537267,0.07256248988888216,-0.07877228920205066,-0.11198393176673233,0.11352600704977787,-0.004513600392954137,-0.026019350937713164,0.168113753960343,0.18471573577939762,0.22746599988668506,0.16145353566573953,0.11221430557029649
0.298,0.15619719705737217,0.07543056376250713,-0.08079050760847209,-0.11587644341736474,0.1176288080616447,-0.003547350683610189,-0.021945338679378847,0.16892218200739242,0.1864676548788947,0.2337253204326492,0.16689340601061775,0.11855163296441203
0.3,0.16094322423929194,0.07378529953550636,-0.0873018575956042,-0.11744115943629277,0.12401564090189117,-0.0069941762900027045,-0.022988943945328754,0.1733372970846197,0.19170258712926241,0.2414082489665836,0.17283864228989296,0.12569974653316962
0.302,0.1655314576734744,0.06952826124424066,-0.09606650376607066,-0.11753628824332092,0.13103732459774484,-0.013094844636924168,-0.027401649493527924,0.18178978417078615,0.2007889239701475,0.250762876275607,0.18149174099777377,0.1342846429646204
0.304,0.16793558075065748,0.06676323342804075,-0.10112727824148053,-0.11731214775388804,0.13464402081625484,-0.017031657618983356,-0.03083579738184184,0.1904330392715684,0.21163361533636435,0.2612140515937042,0.1921924944707428,0.14221786343919776
0.306,0.16810502732259125,0.06883791853086253,-0.09921114718106133,-0.11845022361703617,0.13329889605916584,-0.015493006754652332,-0.031561536528808845,0.19640662815437476,0.2197908051508517,0.27131128529114945,0.2023374951676283,0.1484221837647019
0.308,0.16898292112934368,0.07609447415326277,-0.09288592506359672,-0.12254868539448009,0.12996174209757919,-0.009363607435509881,-0.032230431528762836,0.2005864983615553,0.22153193537804605,0.2793980392785924,0.20989982631938103,0.1548882007380898
0.31,0.17298538769743282,0.08565663425563623,-0.08737987730375116,-0.12934827169771432,0.1287780586046083,-0.002303591649590351,-0.035882927685636314,0.20418930219390474,0.2177745636216183,0.28401809959544366,0.214857427075344,0.16300309510113414
0.312,0.17932471880028886,0.09365805093025037,-0.08581329754759531,-0.13655937251820766,0.13122676652348259,0.0024992435016886003,-0.04217940616814092,0.20653706978343805,0.21374499395792257,0.2849439230268102,0.2187155593860373,0.1708992484273362
0.314,0.18596977663552533,0.09905001550601615,-0.08723858723369393,-0.14266583760733775,0.1358651140480268,0.005032011865715112,-0.04855328029074022,0.20770640017988995,0.21376052550400168,0.28435414250336044,0.2228945885168566,0.17638248695391098
0.316,0.19284057696234003,0.10452789768738519,-0.08872282973626572,-0.14889056156930455,0.14080136919199074,0.007875869897460093,-0.05353518094251012,0.20976076116063647,0.21779213706928083,0.2856263402842505,0.2277350070598931,0.17998257565220868
0.318,0.20138431784242591,0.11292769362601515,-0.0887328447606246,-0.1572966070869572,0.14536944842764704,0.012729988757164199,-0.05767161591026058,0.2133938392448113,0.22326265924519256,0.2902415764859137,0.2328599772923708,0.183702406703261
0.32,0.21138178617883602,0.12375293505312927,-0.08774068764353478,-0.1676237871302632,0.14953168798969832,0.01866819719039686,-0.06210015754732325,0.21649877416129146,0.22842928564215784,0.2967598103764324,0.2379258516447336,0.1884847699051786
0.322,0.21939714170771496,0.13352869302262388,-0.08605371699498454,-0.17655443484859262,0.1522488173997415,0.023844616164752544,-0.06745234861136443,0.21791692606435795,0.2335425882034401,0.30309479192189004,0.24288580262068227,0.19384535774275818
0.324,0.22148721565789165,0.13882628555328572,-0.0830186807552975,-0.18033481518086086,0.1516803657133036,0.02738272094192906,-0.07336882263838462,0.21945355765256724,0.2391421083481845,0.30835382831165203,0.24783896535342553,0.1990571206801354
0.326,0.21796320468021502,0.13915274869757305,-0.07910935418222685,-0.17870764792397992,0.14809431070353404,0.029260019380344667,-0.07812374501143816,0.22238002349531877,0.24396546712796607,0.31201877098675174,0.2528415784965253,0.20395707299660876
0.328,0.2140544796793722,0.13751007902476414,-0.07657471564652135,-0.17579798539728564,0.14487542451096022,0.029804638837264717,-0.0800953623141083,0.22499805645669904,0.24582476959709879,0.31338035699158123,0.2579561357712084,0.2089988144994629
0.33,0.21511208766773574,0.13830103983352274,-0.07666871999432263,-0.17663554062343612,0.14516005425126857,0.03013937148503058,-0.08046462523412085,0.22539620314477274,0.24417396145195647,0.3127513771898095,0.2633826595424816,0.21516393807254258
0.332,0.22218683591485144,0.14405718157909236,-0.07803769200363747,-0.1830757954751079,0.14892898865868054,0.03197458817711387,-0.08234205512503012,0.22421475225003426,0.24028019428070632,0.31170836199540297,0.2689165239837515,0.2231877466887558
0.334,0.2318596522713931,0.15317401561896452,-0.07871614497035892,-0.1925319004038091,0.15381768763807627,0.03580213559234107,-0.08632610192473356,0.22336638887034624,0.2354442958125478,0.3114710681608486,0.2731930412901316,0.23203672666849184
0.336,0.23936304326050298,0.16110215282267687,-0.07832551592742776,-0.20026494779597895,0.15747593658395603,0.03996048321886451,-0.0897167789143024,0.22337933186846956,0.23039020265654664,0.3118999067329323,0.27491839499665843,0.23931615881848253
0.338,0.2418608659252395,0.1641056446573812,-0.07776982080126031,-0.20299067516826744,0.1589145805327456,0.04221500490081995,-0.09120073046121005,0.2227597475406845,0.2259676328763476,0.31223582093402086,0.27534060312732095,0.24405048968754717
0.34,0.23953868115945287,0.16179684023475507,-0.07771369758692769,-0.20065372620246094,0.15835224515858629,0.04177509463933362,-0.09288957841376319,0.2199701334658548,0.22332258996221607,0.3121663625413489,0.2773685595723105,0.24773295957550773
0.342,0.2351857009385132,0.15717565489497004,-0.07798863919777144,-0.1961699267033426,0.15676104231507051,0.03979937599892475,-0.09619073457797314,0.21593627288858064,0.22290612793722972,0.3119511086879708,0.2814030895881176,0.25218035047855736
0.344,0.23263006531587796,0.15448460942727352,-0.078150570792534,-0.19355985170932308,0.15561595405501769,0.03840386553450902,-0.09933448933312226,0.21333091620494068,0.22345347223690173,0.3115789395030523,0.28451996538877183,0.2572771518874831
0.346,0.23413832040441496,0.15607437474422806,-0.07807806415325062,-0.1951134123075388,0.15614007151696155,0.039017932640585576,-0.10094968731488635,0.21282775519142724,0.22216565742606978,0.3097170380918616,0.2846374871683833,0.26070169191698034
0.348,0.23891168309855876,0.16096050570475987,-0.07795512984385664,-0.19993809677586327,0.1583325660411216,0.041389950519038626,-0.10255860406429268,0.2118586501836655,0.21671729121611888,0.304443500930841,0.28305600418037363,0.26003591492403383
0.35,0.2438104981539324,0.16586870443670362,-0.07793597773202623,-0.2048367027987828,0.16080759381529322,0.04390164071283813,-0.10541218016284107,0.2079520208262256,0.2080042726225723,0.29611320265363195,0.2821618540395153,0.2560254197259704
0.352,0.245464865490461,0.16779511651412474,-0.0776648143122315,-0.20657266488414605,0.1615546456404874,0.04509479867381424,-0.10795607423946348,0.20158592973250758,0.19966428962590324,0.28830153974339523,0.28234591968714223,0.25276086406525217
0.354,0.2417999962873631,0.16615537418648452,-0.07564543894596672,-0.20363882460361196,0.15857209056268748,0.0453150923880405,-0.10835861433684214,0.19482076393533326,0.19382958435014247,0.2849296587971444,0.2817120971704712,0.2537469134306645
0.356,0.2323622526087165,0.1622795499451757,-0.0700857857512304,-0.19639435866284743,0.15068779369647053,0.04618082021094965,-0.10721971498665823,0.18899806736136218,0.1894780812384615,0.28700022423601224,0.2785460282302178,0.2586547417289464
0.358,0.21910153814925,0.15745901649420538,-0.061643548520997536,-0.18680891212297637,0.13938975813558455,0.048124784361586605,-0.10638927304341493,0.18496069831795758,0.1857054062779196,0.2917084242760736,0.2740024052401635,0.2639012879452669
0.36,0.20644161283410312,0.1525100580557791,-0.053930362753627524,-0.17799202803465844,0.12891413893622114,0.04972638971252876,-0.10658501026927827,0.183408478837573,0.18339635578916946,0.294461100172037,0.2710388811297959,0.26597733489506703
0.362,0.1991634853224415,0.1488407637150631,-0.05032159184849894,-0.17298286875201452,0.12340024853471034,0.0498444918790195,-0.10713048447556946,0.18347364048330675,0.1824619668930781,0.29213935130740504,0.27018627097246817,0.264224566665603
0.364,0.20020551492978014,0.1485947927943315,-0.05161083301703684,-0.17370241153366195,0.12464673244820422,0.0490584455742754,-0.10728762716163226,0.18252491012797942,0.18077580415211686,0.2847727429813575,0.2688469875508784,0.2602131641782053
0.366,0.20907484327760634,0.1526998844151312,-0.05637562836130639,-0.17996054405900122,0.13163343043883607,0.04858136394193224,-0.10706636559480188,0.1786774053124269,0.1775280286138734,0.2753145529398622,0.26570755431112103,0.2553895570552044
0.368,0.22116894550135816,0.15891461725912343,-0.062254587520778205,-0.1886411711226112,0.14081795990457366,0.04854686263930971,-0.10709434883781165,0.1725618922768809,0.17461648479598899,0.26763121197656026,0.26255092256825807,0.2500743191162852
0.37,0.22970771208799923,0.162394508405712,-0.06729102254608188,-0.19449015635920122,0.14768223466387756,0.047581709095687326,-0.10843665868524616,0.16574514935814066,0.1728230796027515,0.26320409682370327,0.2600892811575676,0.24359562361981918
0.372,0.22957225083331773,0.15917114010782077,-0.07026953810466736,-0.1930719263985056,0.1489873997608163,0.04437474250470112,-0.1118291705766892,0.1583601491886501,0.16930317433804273,0.2601719375573405,0.25571505161629754,0.23526842891810798
0.374,0.22063126177960743,0.1502699528136961,-0.07005583863910712,-0.18447619405967183,0.14429025332163475,0.03999164022543284,-0.11609583046229963,0.14952345957505755,0.1611162165689869,0.2560949021013265,0.247870488975135,0.22621555498383877
0.376,0.20764538986587883,0.1414769530826058,-0.06587729185692108,-0.1737069420956271,0.13580060133414268,0.03765364275180043,-0.11838667482993609,0.13931953360024518,0.14959925290714687,0.25057929502459014,0.2391580345435442,0.21894078557100777
0.378,0.19600035806045488,0.1380543282323281,-0.058017972276680645,-0.1663074809364413,0.12636959071972706,0.03991238039545812,-0.11657559440338894,0.1291247157815579,0.13954588522642028,0.24483880620349446,0.23259240593194613,0.21408283730321714
0.38,0.18814696037397874,0.14053256651208113,-0.048062624266534064,-0.16412503181902535,0.11788941153589104,0.04635795937654386,-0.11044595918822515,0.12075203921585784,0.1347728938909584,0.2397556008528181,0.22808634375268824,0.20989634683305758
0.382,0.18421418868078449,0.14520182562368275,-0.03941364231883308,-0.16519147244241494,0.11191605136573038,0.053348044103398835,-0.10113408524123053,0.11589883209652498,0.1350745240469843,0.23511509740381628,0.22464483791504883,0.2057738946129325
0.384,0.18309764356630442,0.14740471724431511,-0.03573046720338794,-0.16606065232327646,0.10956130294395125,0.05646781332439189,-0.09065938769296514,0.1148307373697203,0.13668752474726625,0.2300248131873529,0.2223620079543483,0.20308299986572392
0.386,0.18141838241596725,0.14416083917991265,-0.03706564771631486,-0.16334515544037914,0.10922082008817802,0.05406979420892772,-0.08167106761309455,0.11477429991118053,0.1347135274382313,0.2229846479441194,0.21983191073503613,0.2011148289270083
0.388,0.1745886033130726,0.1348243321640504,-0.03964465267389297,-0.15479974613477113,0.1069646674304013,0.04782622067436317,-0.07659031759097094,0.11129905381260237,0.12604920125969743,0.21247241211606765,0.21317448013290705,0.1954581879611187
0.39,0.1617548099481089,0.12148691953777425,-0.04031184970200007,-0.14153803791938732,0.10100219931466495,0.04056134617180211,-0.07594015297321106,0.1024773925208959,0.11218173499640496,0.19914732155705434,0.2008715821893173,0.18283567113949234
0.392,0.14729329085904844,0.10842282903159073,-0.03895647293189783,-0.12787055835978503,0.09332848599980517,0.03455908332714874,-0.07728575064878525,0.09062993125316413,0.09833807475636881,0.18636981326891597,0.18690087658258228,0.16565819232335588
0.394,0.13498181911011314,0.09897672444395457,-0.03604451277484139,-0.11678140210954913,0.08555776458757336,0.03119590414764441,-0.07642974754485615,0.07950727247260235,0.08829119318950476,0.17707969808494434,0.17645920696413825,0.15003297416606787
0.396,0.12374294096146035,0.09319392990596186,-0.030641906751892146,-0.10752311753436598,0.07645034486082278,0.03092940744101577,-0.07064882332991501,0.07138049585048392,0.08186192229309092,0.17126421565570005,0.1706882783726124,0.1403158390774175
0.398,0.11142568842432526,0.08896632840587529,-0.022758898347250426,-0.09860572989059783,0.06547662055046657,0.032799096886347245,-0.06149456248593806,0.06705859414989508,0.07791812975379854,0.16694860608990347,0.16700679752414815,0.13605341073880148
0.4,0.09928366153058565,0.08448670265025417,-0.01522719460699769,-0.09032636160473057,0.055393101974985974,0.034515991288066275,-0.05322883591966097,0.06601117360941003,0.07636831672189702,0.16233294748243454,0.16247435990289014,0.13309786143149047
0.402,0.09047415144832988,0.0793482190379388,-0.011400325213164086,-0.08374713312523736,0.04945385791224526,0.03404169894233166,-0.04781726265519573,0.06528629703088934,0.07628125245024783,0.1564831432238533,0.15521157229124366,0.12690421900961904
0.404,0.08656961753064082,0.07404036244845724,-0.012486482403158706,-0.07929790325197127,0.048461246887703376,0.03088325058961325,-0.0437036625435407,0.06097068054643067,0.07502740971224599,0.14893279660535277,0.1443307453106044,0.11558733566790695
0.406,0.08655857172840853,0.06900019557730531,-0.017273288695390753,-0.07659600576156914,0.05094932935736598,0.025943078272855174,-0.039827326457801016,0.05258182406788344,0.07081375375309588,0.13967793069217285,0.1309385064860242,0.10135362652680709
0.408,0.08771873016955893,0.06426747125148558,-0.02305417364752728,-0.07457006884315234,0.05438658471033966,0.02072666446061915,-0.03742246811136212,0.04369920661217424,0.06446687114941962,0.1294245685947429,0.11811910895941354,0.08825129693744059
0.41,0.08689023808463003,0.05969165060613511,-0.02684532288395534,-0.07173281287045714,0.0559523256901528,0.016616804484079793,-0.036869436735970595,0.036735000105350836,0.05743646112707334,0.1191266484659556,0.10797384808126442,0.07736793649138524
0.412,0.08178623405187463,0.055085859175252286,-0.026636695574603592,-0.06688610150007862,0.0533972839966312,0.014438880349266587,-0.03581000339633843,0.0301592055877274,0.049715650609317846,0.10927379482217074,0.0996139164936078,0.06611965597675454
0.414,0.07237483719498863,0.050275155417099045,-0.02245621317719751,-0.059953155484853325,0.04644605045737766,0.014157249738633413,-0.03192991717986003,0.022429162954733062,0.04136222175081762,0.09977517899254744,0.0908686560748341,0.053032585050340864
0.416,0.060931311508705704,0.04501403810927962,-0.016454427382930875,-0.051894388283759335,0.03731173745392003,0.014607989186898903,-0.0257478623744274,0.01492103872551646,0.03400674115949891,0.09037645553500495,0.08094628337222737,0.040284756802941184
0.418,0.049714124924886506,0.03860552732597849,-0.011432493593563763,-0.043421247407722616,0.02891231435933867,0.013786056292735152,-0.01933048251686447,0.009125678577982287,0.028913439107930802,0.08133563773122238,0.07112095469251131,0.03064723913970438
0.42,0.039377938840941346,0.030421802907219738,-0.00904659720915044,-0.03453979266435025,0.02275968058830684,0.01032057770304653,-0.013910375443002217,0.004465950091442577,0.025209054509715206,0.07364630075632882,0.06338315763515084,0.024481344411466707
0.422,0.030366109519865993,0.02156442319717336,-0.00907167082518277,-0.025938476694793048,0.018801010046274814,0.00514486260294196,-0.01010783056888007,0.0005506805677475144,0.021227994185588853,0.0680412754543001,0.05842258971443607,0.020245197992482943
0.424,0.02366766337437538,0.01425410803921968,-0.010099717678733423,-0.01904936204075508,0.016280447969382755,0.0006357583743326377,-0.00861883602420098,-0.001577147990037615,0.016377668200729757,0.06361215577651906,0.05454895644948062,0.01589230595513964
0.426,0.018799749317502435,0.008451105278804195,-0.011095902221975082,-0.013450137527481908,0.014153114230036753,-0.002422631667752497,-0.009185056719783192,-0.001979103412352013,0.011126960503793132,0.05758869337556467,0.04842005419967212,0.009118373351426363
0.428,0.013021321136998582,0.0015854891213089885,-0.01173344581527694,-0.0065064230714903595,0.011158173088555856,-0.005411098430165061,-0.01025412413362697,-0.003118118326790388,0.006004709097216119,0.04733619045523269,0.037658541556519896,-0.0017924749167925044
0.43,0.004112892159091577,-0.007164372122962476,-0.011100843127788052,0.002918980949614239,0.0061654702862287206,-0.00888676231657383,-0.010542462833421352,-0.007140474171632133,0.0010875546938645525,0.03358827729470564,0.02365420042591192,-0.015673485037047127
0.432,-0.00694476439699373,-0.01512652845488716,-0.007933573474526098,0.012532898714625162,-0.0008115710220042472,-0.011236762781281221,-0.009907518858255929,-0.013445833889175706,-0.003923483163267055,0.020471598445638336,0.010663387257200877,-0.028585122581161023
0.434,-0.016635831895785564,-0.019612174001525932,-0.0029432468349632384,0.0191332530084284,-0.0077222403007880065,-0.011252320507434785,-0.00823743968067477,-0.02000027882775035,-0.009471507732344401,0.011231891789581073,0.0015090419184944426,-0.037663252781108644
0.436,-0.02178084066366847,-0.020715943017203746,0.000948635629432391,0.02151064509250729,-0.011660565881094726,-0.01002418785506545,-0.005015183754607101,-0.025479777743726426,-0.015396759349754128,0.005505899528205035,-0.004386851149339933,-0.04341641063654035
0.438,-0.02207607364461343,-0.020274254281383214,0.0017279598860178635,0.020938132308903096,-0.011753384748155593,-0.009354157453081869,-0.001007330933287769,-0.029130384849167128,-0.02013140210342732,0.001060505407888005,-0.009033320193242737,-0.04795932348499481
0.44,-0.020191243126847128,-0.020017806063984702,0.00017912740107277404,0.019843789211661057,-0.009960128848632113,-0.00989329589272319,0.0014721123870422039,-0.030364925488201053,-0.022072252399271165,-0.003739706057795067,-0.013828158535831834,-0.05257163740696791
0.442,-0.01908161925636439,-0.021200031033081632,-0.0022183167569356176,0.020054925717256162,-0.00838627381319791,-0.011724254996256709,0.0012979608792720934,-0.029683108404306182,-0.022309433629774857,-0.009422356461765457,-0.01927371357568836,-0.05690334561560959
0.444,-0.019475101514583662,-0.02434639050239578,-0.005341542541548462,0.021795143036063825,-0.007160794939563189,-0.015075096209409729,-7.91663804562573e-05,-0.028684180173026663,-0.02386068117903034,-0.015481119760471583,-0.02494253555454984,-0.05965285055101441
0.446,-0.020240330985514636,-0.028232286446607878,-0.008919346412156193,0.02384940663688197,-0.005730221414784983,-0.019056598136331704,-0.0007177725014082912,-0.02849677385692556,-0.027423029935083672,-0.020193998432566848,-0.029260179635155904,-0.0601435554951702
0.448,-0.020483036845119366,-0.03068405004139476,-0.0113550908399311,0.025033780408819994,-0.004557903943328247,-0.021650819082200366,-0.0003036592876325727,-0.029035079255357334,-0.030448614579358543,-0.022163218039160323,-0.030823812785421612,-0.05946864110959687
0.45,-0.020779598052752254,-0.03169130248499712,-0.011886652972707188,0.026021517543793782,-0.004477238631278975,-0.022523724125946318,0.0002415075002961935,-0.030109935482953036,-0.031411083223666175,-0.023141978767714226,-0.030654254857626427,-0.06016514818641556
0.452,-0.022610633968262513,-0.03365498345773437,-0.01153928074852602,0.0287476255519288,-0.005763396608732649,-0.023469924542007962,0.0002797857537755103,-0.03243091913916559,-0.03237469960632744,-0.027129731526942272,-0.031818929871053996,-0.0647323740098422
0.454,-0.026771885564640413,-0.03735362071864855,-0.010599677988427194,0.03346310571717866,-0.008556698347706936,-0.024939425517842936,2.0659460230599527e-06,-0.0367408047725323,-0.036029448990427586,-0.035237678211489924,-0.03617179299318111,-0.07375485194540271
0.456,-0.03247607921372653,-0.04056240916861935,-0.007902792366550957,0.038141024559619645,-0.012881978008541314,-0.02520858606612462,-0.00015145424078006259,-0.04259082159710927,-0.04205873675844742,-0.043833726572693875,-0.0426462027712329,-0.08501897867644265
0.458,-0.0382097323613801,-0.042332293881465824,-0.004020083566432616,0.0416379744971869,-0.017658661002735304,-0.024208841779540836,-7.341371663327121e-05,-0.04889024862547482,-0.04759190812377252,-0.048911390756206215,-0.04922214155789824,-0.09469318403570216
0.46,-0.04322208184005849,-0.045661776806765225,-0.0025022936481745735,0.04554635652406479,-0.020843573876342527,-0.025189216380702345,4.7573578884423334e-05,-0.054768579598436985,-0.05024319118841081,-0.0499987438852996,-0.05489598975466799,-0.09975222804403729
0.462,-0.04784939712771841,-0.05366410228256609,-0.006040490145469622,0.051803363152631225,-0.02136324066612888,-0.030919532256276888,6.277571945659956e-05,-0.05908533671514944,-0.05005931329246116,-0.049248194388682456,-0.058965420713173115,-0.10003262955430409
0.464,-0.05211738800731874,-0.06492813768686578,-0.01328236576870171,0.05956610333126584,-0.019950410482964746,-0.04006004919955684,4.020636754551978e-06,-0.06065287596260171,-0.04891458520115808,-0.0488763782871903,-0.06061406344243493,-0.09838617630002744
0.466,-0.05361866010179559,-0.07418629591228358,-0.0212847528740336,0.06492828435490008,-0.016935603722067084,-0.048564288945849625,-3.233704939131294e-05,-0.05984969208051869,-0.048442888065983555,-0.05029039671721339,-0.06057743328617886,-0.09848414510343674
0.468,-0.04830951188349107,-0.07672615902180908,-0.02909411213867257,0.06368710711898459,-0.010743831771757304,-0.053536588181169374,-1.7639552460757326e-05,-0.05861705093275308,-0.04878945936583218,-0.05388605795924987,-0.06148717724937564,-0.10181355723513398
0.47,-0.03567691738549087,-0.07217679199213878,-0.03686818774815108,0.05539937470685606,-0.0007583471888900329,-0.0549244768903412,9.221572602696305e-06,-0.058376651009186264,-0.04919833688169347,-0.05819790268916985,-0.06530049549024963,-0.10636296413180164
0.472,-0.02151509527872277,-0.06456412595462761,-0.043198765636257686,0.04456542521246563,0.009647234558431318,-0.054222638108816806,0.00012372911260660183,-0.058904238459029604,-0.0492066439672593,-0.06040161863559869,-0.07098216376827972,-0.1088145819846796
0.474,-0.013634469568300962,-0.05828162185702154,-0.04473304413395014,0.036936391918576596,0.014662125304971681,-0.05205149580970117,0.000877644559574175,-0.059288899005189986,-0.04899008615346344,-0.05872415526998033,-0.07497421454090733,-0.10825414743015302
0.476,-0.01571647462713822,-0.054278219287718706,-0.03846592651253631,0.035101430827939685,0.010479606452315222,-0.04727432616232427,0.003272487667892329,-0.05918922242957249,-0.04888274977069318,-0.05401338769943135,-0.07430755894907673,-0.10670311713656748
0.478,-0.024847722983723723,-0.050644266342790754,-0.025445567633251596,0.03733477693074821,-0.0010302070729838087,-0.039178317071472936,0.007791557960552361,-0.058933083949353066,-0.0489495439180811,-0.04922398268906781,-0.07000875055750559,-0.10619959662666519
0.48,-0.03448290297442915,-0.046170771004566444,-0.01134634538925976,0.04003428277109232,-0.013306448483670066,-0.029820726389234713,0.013481892350664451,-0.05864563772988567,-0.049039900759752154,-0.04737034809018333,-0.06638867561144501,-0.10677611845409025
0.482,-0.040751742273537575,-0.04261257721792089,-0.0017993004261958306,0.04174300560058288,-0.020966947932177835,-0.022923373952440783,0.018382724512030234,-0.057439540413754854,-0.049046581050373524,-0.049476917737292896,-0.06615137695744153,-0.10732519623289144
0.484,-0.0447022164706987,-0.0428721709212967,0.0016820682840261426,0.0439726229665122,-0.023666528689816217,-0.0207539018128815,0.020913523670521537,-0.05425356180512467,-0.04900046843927217,-0.05420605171125143,-0.06790116786490415,-0.10727633860153198
0.486,-0.04807296516744397,-0.046759380766178804,0.001201866268931653,0.04747348106344662,-0.02402243418991376,-0.022344661233825912,0.021015815599922515,-0.05001122556351535,-0.04897480280290904,-0.05877145238247646,-0.06892809761408063,-0.1069547251300982
0.488,-0.04998813870275351,-0.0505153509584894,-0.0005034208744556575,0.05023387871471099,-0.023819816865298056,-0.024769746537198933,0.019854101074716263,-0.04761930790116856,-0.049207105643276905,-0.06081513106518552,-0.06860794267325272,-0.10704718744894016
0.49,-0.048652970664273945,-0.05175368225060648,-0.0030286383652117234,0.050465741097331124,-0.02259405580622201,-0.026727668972996905,0.01800992515137347,-0.04917138522457801,-0.05054043421120887,-0.06072277270184549,-0.06861224716400617,-0.10847505660386732
0.492,-0.044212113492936904,-0.052482236124843956,-0.008248296506021227,0.04923966052822696,-0.01898423965462396,-0.029925421128188752,0.0149435733014711,-0.05392554196583161,-0.05381721581595964,-0.0614391991744272,-0.07088301556771207,-0.11187324809433394
0.494,-0.039352445972192215,-0.05575855360924992,-0.016434846033501028,0.049056706117560946,-0.013352418686798267,-0.03585433411279602,0.011092505351165873,-0.058803981202266035,-0.058033497795281754,-0.06520315772286048,-0.07575027712808492,-0.11609592948760425
0.496,-0.03710105515997317,-0.06145353009260184,-0.02437810407629919,0.05098959240309226,-0.00823885755026501,-0.042926338455683694,0.00882431412562959,-0.06067634937185661,-0.060363427572529514,-0.07096459444817049,-0.0816744891573172,-0.1185820642128922
0.498,-0.03785013042413297,-0.06669317837063994,-0.028839625415109624,0.053700877900977426,-0.00558125562706524,-0.04812768099048342,0.01022456838537995,-0.05853011473552718,-0.05879596265768927,-0.07501926696221405,-0.08649717775667343,-0.11829408386071591
0.5,-0.03938178826351445,-0.06915414443395382,-0.029756742685737716,0.05510674820572642,-0.004947396018615673,-0.05007805110938227,0.014839323016546902,-0.05377181753434285,-0.05406828382060217,-0.07433842348208869,-0.08886309385692617,-0.11685899636650693
0.502,-0.039781842994190394,-0.06895690699129396,-0.029169474144856586,0.05471461346777112,-0.004972189244129512,-0.049701917126028686,0.019733913676475093,-0.049214138488383456,-0.0492108887536321,-0.06999877990684997,-0.08892927876740506,-0.11625481845920452
0.504,-0.03916936951883811,-0.06770639518386089,-0.02854287536795697,0.05368002441518631,-0.005092129467198336,-0.048612440102324316,0.021909344422910766,-0.04705842649686731,-0.047114726491186844,-0.06636705687924989,-0.08784029018362917,-0.11649760035099242
0.506,-0.0386594283131636,-0.06611152735061324,-0.02745794333496454,0.052757548737482445,-0.005727592007269397,-0.047063260371106065,0.021107388883658935,-0.04647773831081765,-0.04793421852900853,-0.06614650400877048,-0.08605055313339047,-0.11573377683930879
0.508,-0.03874616327710979,-0.06349255047229473,-0.024745986428860063,0.05148191582044663,-0.007384013976328694,-0.04410029180656282,0.019592495207713327,-0.04455483545799051,-0.04941423626985389,-0.06791064401569875,-0.08297051584912854,-0.11247362527300733
0.51,-0.03906437841128512,-0.0600571029198853,-0.020989343756054664,0.049686079774393335,-0.009530708709771615,-0.04013836359670869,0.01922918488726936,-0.040651871978156756,-0.04975132371430307,-0.0689352837023359,-0.07908320281171034,-0.10795600158541706
0.512,-0.03938842503058483,-0.057536481944714946,-0.018146660805197723,0.04836456848904776,-0.011120902353802828,-0.037212323458099196,0.019849944516816154,-0.037545769237721516,-0.04891767622754765,-0.06849650508189264,-0.07680516756700144,-0.10547308258517153
0.514,-0.040578102824367884,-0.05625536874642929,-0.015678444019247628,0.04829966938426728,-0.012813354589756177,-0.03533785473247559,0.020343766501818537,-0.037364094493147974,-0.04712811543030523,-0.06773151936713252,-0.07822049957808583,-0.10713173265644851
0.516,-0.04373627084967272,-0.05419966258212892,-0.010464716343221669,0.04896025644385816,-0.01665632127498827,-0.031830681328697895,0.020244816654638766,-0.03890924299933249,-0.04395764283625593,-0.06760234738572596,-0.08284782826093148,-0.11198638760518337
0.518,-0.04797428911973605,-0.050606312796928156,-0.002632013468011809,0.049349040868497646,-0.022260650803148447,-0.026186036792302206,0.01992956916362134,-0.03982078725374193,-0.04003960977594091,-0.0679564943317868,-0.08774019668893085,-0.1168546720606312
0.52,-0.05059871847061421,-0.04793659802244236,0.0026628481955867683,0.049300108464962925,-0.0259895798749336,-0.022170040540610707,0.01983300328455792,-0.03944534697697345,-0.03779411039689613,-0.06819599841425514,-0.08968830781555444,-0.11888675099764802
0.522,-0.0503684195754268,-0.049002813646730356,0.0013659479692300143,0.049669318915734215,-0.02538890457320382,-0.023298294313457247,0.019958724908123955,-0.03876989772822008,-0.039239333660970495,-0.06811729218420146,-0.08757062269053094,-0.11803070978348613
0.524,-0.04888541350969093,-0.05367302093085607,-0.004787841192636938,0.05125379014029973,-0.02204517761616321,-0.028702840892792136,0.020071406093115376,-0.03864835296147626,-0.04386261615804275,-0.06794906988131397,-0.08278463391136227,-0.11656820581993926
0.526,-0.04822686979829097,-0.0587751570139429,-0.010548585537203161,0.05349775171814656,-0.019318884178366004,-0.03415966071298449,0.02005662052785219,-0.03895739686064847,-0.048736854981904935,-0.06791167491822833,-0.07819815356856477,-0.11625942921094667
0.528,-0.048579532258065106,-0.061217021255171325,-0.012637503917271376,0.054976401545360654,-0.01864722360287353,-0.03651802756560023,0.019768678447394456,-0.039171310230277444,-0.05111742119556976,-0.06798560797125446,-0.0764825900753983,-0.11709704168544466
0.53,-0.048392345295647586,-0.06151678927052966,-0.013124288300542675,0.055367139421303176,-0.018162884280130638,-0.03730996014273757,0.01843085147185471,-0.03910501941624729,-0.05163294292561966,-0.06804132628822802,-0.07854458214197474,-0.11887304650319383
0.532,-0.04601712549455893,-0.06287281115797896,-0.01685560316254691,0.05555564365622934,-0.014799212500374161,-0.04071441459483995,0.015182284414557604,-0.03895668660136868,-0.05340207933971278,-0.06802759323735084,-0.08317713695807666,-0.1220348802539504
0.534,-0.041199658529665166,-0.06632043088989478,-0.025120817908410677,0.055590849096720685,-0.008013346271370653,-0.04750256373221829,0.010981933633762667,-0.03892201110561084,-0.0572671583391224,-0.06799062718360185,-0.08772072713133328,-0.12595618474997153
0.536,-0.035685202423698034,-0.0691763197505864,-0.033513123726533006,0.05446654688818789,-0.0010589583691698013,-0.05350399527736647,0.008644216010048986,-0.038766991667540725,-0.06032937221341446,-0.06778300819051808,-0.08949952852815103,-0.1283176592669934
0.538,-0.032953274483350274,-0.06871213309379497,-0.035890181416474334,0.052383224535157986,0.0010964537734611329,-0.05417028338606324,0.010199267018616034,-0.037503503978077994,-0.059796875435500864,-0.0666164854217238,-0.08749114506655756,-0.12742052968245632
0.54,-0.03622631860958405,-0.0650127275897117,-0.029113794960208737,0.051312725369330146,-0.004677691227072402,-0.048383266737174364,0.014925266327324244,-0.03421790664823732,-0.055837329538136755,-0.06368257697648878,-0.08284968608261876,-0.12366521940415814
0.542,-0.0448779704614044,-0.05992231767042459,-0.015466932782432597,0.05239909623697733,-0.016419429107450523,-0.0386105776311188,0.019788633723055688,-0.029959300382515573,-0.05037568604989683,-0.059876914139103336,-0.07827258771336014,-0.11849861301631329
0.544,-0.053667589523741996,-0.054979744155121434,-0.0015677039726459778,0.054161597113304726,-0.02762674539403747,-0.029105973217247772,0.021669169046540707,-0.02739456910730029,-0.045056642184155136,-0.0575689699758268,-0.07604384792336437,-0.11320903382939262
0.546,-0.05672533641754924,-0.050979019967783486,0.005771975049061088,0.05409711379845461,-0.032040423530702355,-0.023615010364930095,0.019535060522883584,-0.02766461531265683,-0.040846210330989195,-0.05779738182778669,-0.07543887835433448,-0.10885186155249098
0.548,-0.051932492063794335,-0.0485563958246218,0.0035218904788642097,0.051186956689587476,-0.027809664865426673,-0.02367755932460037,0.014778098387182397,-0.029134028340262547,-0.038446361979510416,-0.05911269426150854,-0.0735442302353145,-0.10636591085692472
0.55,-0.0423153147457969,-0.048021842589655084,-0.005643305154335931,0.046626773335309075,-0.01835176524730617,-0.027861657509912464,0.010214439533793446,-0.029764388678843134,-0.0380313598428687,-0.059684582688732155,-0.06966801323278989,-0.10598985979625834
0.552,-0.033530290184323665,-0.04847170391793215,-0.014987539028350639,0.04245530039806824,-0.009685608100725928,-0.03241587697831986,0.008384236993892022,-0.029098527785425328,-0.038752880467080045,-0.05904970967183959,-0.06655926666706045,-0.10677696423105161
0.554,-0.02907566281002916,-0.047791625315690985,-0.018772382427600726,0.039384976046161924,-0.0058570881773034955,-0.03355354721958064,0.009884534389578535,-0.027350089420359526,-0.039348902010352384,-0.05722703195630857,-0.06636173291962787,-0.1073830525783598
0.556,-0.02833809909422737,-0.04450718533043695,-0.01617125066274195,0.0366793551145964,-0.006731992945771828,-0.030141680349148103,0.013619951928080522,-0.0243844312185013,-0.03929253801288379,-0.053932720577299434,-0.06790074911606674,-0.10729570656520254
0.558,-0.028912252467753544,-0.03994521834765139,-0.011003360772593621,0.03422047326582319,-0.009416749269795643,-0.024882835097437647,0.018328565065740352,-0.02087966076518613,-0.03895443269683597,-0.04997375820613781,-0.06881801887741083,-0.10693730930608311
0.56,-0.029562831787528023,-0.037562078011383525,-0.007983926371501937,0.03332956106592317,-0.01124593099260824,-0.02212663106038692,0.02282643801879907,-0.018820500885756625,-0.03904097069051831,-0.04777628367381057,-0.06866805616705145,-0.10703106250480962
0.562,-0.031511175462023235,-0.04000405387375891,-0.008501698206527387,0.03574076400376944,-0.012306407701831995,-0.024016412991982372,0.024915918671182594,-0.01959677267427156,-0.040472577643024185,-0.0492667603892469,-0.06930554481950921,-0.10847718961066104
0.564,-0.03700013673327978,-0.04725311107701611,-0.010287480311967773,0.04224950853807845,-0.014748588180237733,-0.029226551491971238,0.02193108098606916,-0.022858627128016902,-0.04387521293571325,-0.053885443363663625,-0.07245476694607225,-0.11188282299644035
0.566,-0.04573649131895961,-0.05650347773394757,-0.010921431060297668,0.05123741775462906,-0.019173063224726637,-0.034743608494311504,0.014021167308246063,-0.027510027459308403,-0.04809809271465348,-0.058732789832588846,-0.07698834758395039,-0.11609921083633422
0.568,-0.05385465010087015,-0.06368668795535234,-0.010284483899491301,0.05883859013096359,-0.023277724761487838,-0.03816736487453609,0.005545299427383403,-0.03247750751146845,-0.0503626160508891,-0.060664229492014526,-0.07953941600668997,-0.11846869524168598
0.57,-0.05701239205425293,-0.06590391329725974,-0.009637892959223775,0.06145744204771713,-0.02440813861627929,-0.038598136019395844,0.001609426326091495,-0.03616510246116752,-0.048760336827082085,-0.05856317585084433,-0.07790460663762928,-0.11741457687816181
0.572,-0.05324988080987099,-0.0622433773756845,-0.009673329714969477,0.05765645589318244,-0.021877548472095956,-0.036055341433674656,0.003723615791238433,-0.03640424801100391,-0.04405171627522125,-0.05379422294396988,-0.07302414870564305,-0.11357997126902121
0.574,-0.04367040763343114,-0.053457283295924723,-0.01004148166593255,0.048435410075626,-0.016859774153222307,-0.031178020540634704,0.008746470350559747,-0.0323155907425969,-0.03922241761960164,-0.04920679821882129,-0.06813052935296957,-0.10848309434387189
0.576,-0.032256265329327675,-0.042384157650098724,-0.010088154265014969,0.037264003943270195,-0.011448487195814434,-0.02560306024481991,0.012066160985440017,-0.025688012143516122,-0.037019575867592795,-0.04704269325706023,-0.06599073240827294,-0.10317152457855708
0.578,-0.02478589412732812,-0.03386463943060019,-0.009195823295682878,0.029525512957043948,-0.008322495477845682,-0.021586218280888934,0.012482106918213996,-0.019148111814433964,-0.03705890029928201,-0.04647422903313729,-0.06611720794954978,-0.0978340990354791
0.58,-0.02573232628118019,-0.03197464977691068,-0.006646981085158301,0.029559568929508506,-0.009942589073913656,-0.020363646728751822,0.01305356009742868,-0.01386398181334924,-0.03612726381070845,-0.04456174523480691,-0.06531363058511942,-0.09246311666766963
0.582,-0.03417250638307662,-0.03594399797395728,-0.0021298939752680745,0.036318394178029095,-0.016203003653919086,-0.02077224481284028,0.01670204890068659,-0.01018041613927674,-0.03197351714541227,-0.04065708755915357,-0.06142822076135241,-0.08809758536410212
0.584,-0.04359353614915795,-0.040523342181656055,0.0030366679117180915,0.04350640647230969,-0.023334279977016245,-0.020610425577990962,0.022550585363514324,-0.008895470134360275,-0.02590018750923647,-0.03776388586436016,-0.05576185434575526,-0.0865321978607496
0.586,-0.04701882051477783,-0.0421396535248972,0.0050522831591950385,0.04563201263588263,-0.026163969835059673,-0.02016191002409478,0.026968660965774938,-0.010704995543418572,-0.021487714923458297,-0.0388931908925543,-0.051968344189038077,-0.08857712414083989
0.588,-0.04209678132655656,-0.042675546762541684,-0.0004484072868289118,0.04269826263159985,-0.021578038266468855,-0.022780784534931434,0.026977086699555373,-0.015023844656085732,-0.0215536822794952,-0.04371503428380225,-0.05279902180480883,-0.09316074447760553
0.59,-0.032257570432268734,-0.045788406619766304,-0.013438951467178802,0.0387764439445076,-0.010984097474442893,-0.030503019108019898,0.022546820295025933,-0.019564586776483296,-0.026104811220318335,-0.04885501540675791,-0.05708121835116499,-0.09769960863033854
0.592,-0.02364647203281113,-0.05167507553352328,-0.02775710595273802,0.03731903991449579,0.00021193322410688852,-0.04056665717709669,0.016309414311408033,-0.021510842752451697,-0.0323225626242925,-0.050815358055325326,-0.06059938693932074,-0.0995006092137863
0.594,-0.020263672223497682,-0.05671681455745585,-0.03591527366419268,0.03830378351019054,0.006421203090373531,-0.04740087777436573,0.011313500308866287,-0.019581943261205208,-0.036197773466190665,-0.048568606456348966,-0.06079392492125557,-0.09750338405346459
0.596,-0.022100716466470417,-0.057113145893693165,-0.034394798198894884,0.039528216507776194,0.005187482886269733,-0.04702170057582842,0.009069127694749164,-0.014886655014910422,-0.035223496443142606,-0.04371435568155871,-0.05907882713414044,-0.09285472255726487
0.598,-0.02700077450194906,-0.05233415664047488,-0.024911132827228767,0.039615531843401455,-0.002166318739509328,-0.039782800111629386,0.009147487225293956,-0.010240592250752717,-0.030850962852060227,-0.03916569744043225,-0.05809204575487312,-0.08826821185647704
0.6,-0.03245346316214261,-0.04516727564734324,-0.012610877914290781,0.038788055706306585,-0.01154434448453802,-0.029801386467967806,0.010233345224797179,-0.008447176286830508,-0.027580793145595677,-0.03728604531759147,-0.05852229245755365,-0.0864777945386324
0.602,-0.03577625460796328,-0.038469421391775074,-0.0027991179972404346,0.0371378939185589,-0.018174390002831456,-0.0213964656162654,0.01194192098415349,-0.01050451836440146,-0.02875721822309689,-0.038040654478126296,-0.05926256384742128,-0.08850407032931412
0.604,-0.03495224972079262,-0.03306652322247099,0.0017816261523589207,0.03403253672437481,-0.019415142446244756,-0.01631817580485444,0.014985420043061694,-0.015177331716089438,-0.03375759002699308,-0.0393715947938313,-0.05938457504797761,-0.09316040858958542
0.606,-0.030951329557203266,-0.02918020489868853,0.0017715197671159446,0.030070181065121455,-0.01667160838115273,-0.014249621652275451,0.018899861283342735,-0.019742684233929213,-0.03894452619598933,-0.03967288273194076,-0.0590404879830187,-0.09773484535824371
0.608,-0.02755712793738715,-0.027670654994798767,-5.9381232632799464e-05,0.027658257197977466,-0.01392313051771857,-0.014301403710177851,0.021210828246218113,-0.021926762381782882,-0.04127090790077458,-0.039342273889926574,-0.0590071525798947,-0.09993225346517745
0.61,-0.02726331511090976,-0.028983128097156197,-0.001694129017537511,0.028443902373255787,-0.013515359549499471,-0.01575330378401775,0.019796396062403104,-0.02239597322017837,-0.04159255034467237,-0.04022924941338795,-0.06026637276101048,-0.10040287392053064
0.612,-0.02886249900185702,-0.03252524576366321,-0.003679638110225063,0.031569282695471435,-0.014118453749872119,-0.01844959500535735,0.015151512197692122,-0.02397348022623637,-0.04329928651536881,-0.043596085735554076,-0.06337597823737484,-0.10197377976482179
0.614,-0.02984844908133607,-0.03737732129046047,-0.007550824859619387,0.03500280117027577,-0.013160190599436466,-0.022517896745190252,0.010250266071062206,-0.0274344259838858,-0.04724024236519687,-0.04809746193231979,-0.0672149710900637,-0.10543080318615132
0.616,-0.02970069418364878,-0.04241136810462926,-0.012711946230970954,0.03751478344030962,-0.010429374142994443,-0.02719700357099491,0.008307496022790864,-0.030285526052555377,-0.05026292884193723,-0.05073380536206313,-0.06944296139503091,-0.10808617555451072
0.618,-0.030304207676758434,-0.04560713863872654,-0.015291577366774483,0.03894586155314523,-0.00891921696544759,-0.029933126087463888,0.010432577726910114,-0.030503725073204088,-0.04917563300259073,-0.050365670960583135,-0.06915817368247115,-0.10712549900722328
0.62,-0.03343656532316679,-0.044910475321118686,-0.011467798527451117,0.039446119425369595,-0.011733022276005133,-0.02802247320963292,0.01521918481612379,-0.029109262495946413,-0.044303199310957136,-0.048810393776061126,-0.06785956591361864,-0.10278473827448571
0.622,-0.037980511583878065,-0.04102152126279471,-0.0030442860641592476,0.03927912025754258,-0.017776902134009967,-0.02244785461987972,0.01980192394852134,-0.028257347811130824,-0.039116134477014855,-0.04819254806484847,-0.06732642178412536,-0.09812798396580302
0.624,-0.04076501481306874,-0.03761055319152343,0.0031495623718884006,0.03893973426427362,-0.02223695603400662,-0.01797244966933255,0.02173475918670935,-0.028582277014467763,-0.037160911734795465,-0.04871377884423222,-0.06775128870935264,-0.09615212357154657
0.626,-0.04044438710449061,-0.03724978584577563,0.0031940493767392826,0.038830448221601685,-0.02229907408217946,-0.01769475613494459,0.020986951679260644,-0.02920117230356345,-0.03943580320352851,-0.049298775499912725,-0.06824415033221654,-0.09700239887731694
0.628,-0.03883095413725121,-0.03882699811610512,6.366022812519072e-06,0.03894926390425125,-0.020022149596072673,-0.019868931215360763,0.019630237340034745,-0.029322882041946913,-0.04430070076740754,-0.04929762257923181,-0.06825118974335231,-0.09843693439382942
0.63,-0.03815941090933429,-0.03983901251969069,-0.0016781493300410003,0.03906583906005466,-0.018801148322615834,-0.02115070575408102,0.019312926997883693,-0.02904462904568513,-0.04883908785624052,-0.048979333123511146,-0.06798694247805004,-0.0987277622651939
0.632,-0.038906127345751114,-0.03960589504011271,-0.0007003892118439925,0.039278014210953484,-0.019609181236999364,-0.020623776307002954,0.019649948270853253,-0.02917442503272292,-0.05081772183531383,-0.04893765153045136,-0.06796660116156132,-0.09820076159638766
0.634,-0.040836493940823004,-0.03965988868105177,0.0011755158472049878,0.04052476133524147,-0.021635638446677003,-0.01976455013047973,0.01877477945270048,-0.03131034686683007,-0.050829876160334145,-0.0498051311751731,-0.06881480081812785,-0.09838422973401685
0.636,-0.04412159451462213,-0.041906886856435344,0.0022145264737285287,0.043880846910867674,-0.024053600400541133,-0.020229977842806376,0.015410083222725524,-0.037123590890549375,-0.051886448968092136,-0.052317446451061005,-0.07132820754123596,-0.10057647008258935
0.638,-0.04801754006825828,-0.046735678964663366,0.0012823690783456598,0.04878634606683233,-0.02567471552611723,-0.022739525020715842,0.010903286051424235,-0.04590002373830472,-0.05597288243793476,-0.056709817550607396,-0.07585245767110874,-0.10497084218870247
0.64,-0.050189943374035484,-0.05254479090070337,-0.0023545060136037394,0.05289521623597591,-0.024938480149943206,-0.027023090222650016,0.008482581577215775,-0.05386263333940998,-0.061680357592205665,-0.06180141029162214,-0.08126117531819367,-0.11037010631330214
0.642,-0.04872186221724973,-0.056619616229953665,-0.007897868101122738,0.05398520357626445,-0.021575245676149206,-0.03159233152151845,0.010165037317452108,-0.05714604578722136,-0.06539912704268941,-0.0650599966527959,-0.08481630594299072,-0.11440335917298715
0.644,-0.044127551652005235,-0.05659390340750368,-0.012466592622041537,0.051497033272117715,-0.017384145880656416,-0.03390617797626943,0.014997111360693885,-0.05495676833208783,-0.0646375138473075,-0.06441073917498287,-0.08409132486982486,-0.11457551837525239
0.646,-0.03927962504577844,-0.0521392504337276,-0.012859678178288363,0.046869906883958985,-0.015105126180867416,-0.03204253024690563,0.019841619078148912,-0.05023255754100558,-0.06068999667810619,-0.060766515285936906,-0.07999411799328057,-0.11026758628437
0.648,-0.03689581618836176,-0.04557672529977514,-0.008680802880477699,0.0424497444044452,-0.015983080618098403,-0.02683504048223556,0.021874664010122898,-0.04698528779227839,-0.05751285375613835,-0.057870368965494884,-0.07649902920517195,-0.1037912348692376
0.65,-0.036364386412505716,-0.04019903723823646,-0.0038345712750972915,0.03926070273617199,-0.01770419356308242,-0.021868900846631407,0.021032059719143348,-0.04594881174218853,-0.05738580428773621,-0.05879974160220665,-0.07621151397302989,-0.09865142230489851
0.652,-0.03458942105230911,-0.037863677313044984,-0.0032742762356947736,0.03662052262155127,-0.016447085401531714,-0.020462977053720608,0.0195754467785631,-0.04435105655980962,-0.05895607885675499,-0.06321135922099151,-0.07786956002875726,-0.09672014520845126
0.654,-0.03073023922683212,-0.03810088963036951,-0.0073707033573075075,0.03425784590326733,-0.011993397877407195,-0.02246433538510245,0.01926215119621038,-0.040838055988651,-0.059829769786019484,-0.06790658222553832,-0.07888021611441513,-0.09725276620375992
0.656,-0.02778372126045851,-0.039320243125467,-0.011536536257828776,0.03326932350441891,-0.008383714884812652,-0.024905406965871204,0.01987499408664207,-0.03796231429928123,-0.05961851936138457,-0.07008330142376576,-0.07849264917682827,-0.09845365548183396
0.658,-0.028862745415753274,-0.04100928062834083,-0.012146513189279846,0.03486815017083332,-0.008826189398878513,-0.025948096582032534,0.020337740740822598,-0.038888831318905435,-0.06013183198606058,-0.07051859961290476,-0.07775973422707859,-0.09985776559456486
0.66,-0.033689667762544444,-0.0439707118489234,-0.01028102571234328,0.03894488548968446,-0.012312858473468418,-0.026568819714365366,0.02022826826095693,-0.043604920544810424,-0.06297947126326564,-0.07235576128205923,-0.07761792684047888,-0.10240892881949584
0.662,-0.038859513882337327,-0.047856210232486006,-0.008996699592335337,0.043449725885520415,-0.015500743895871598,-0.027966802028384776,0.019924953175864686,-0.048804937015515346,-0.06709894480177425,-0.07630475128853392,-0.07794853715961754,-0.10591283879114533
0.664,-0.04094104794633944,-0.05019798141247449,-0.009256945041920659,0.04560660886752233,-0.016316903021447757,-0.02933260429683467,0.0198398292952102,-0.051290337080786015,-0.0698231195186288,-0.07948274572922007,-0.07840309155591148,-0.10850255112830717
0.666,-0.03923036888856416,-0.04881405551114907,-0.009583690382477314,0.04429221936587649,-0.015273817707678109,-0.029029553298781798,0.019964504437738236,-0.051678315031572136,-0.07083077157782293,-0.07967370633504399,-0.07964831193296154,-0.1097795158952492
0.668,-0.03523550175548728,-0.04416695223446009,-0.008931445957727274,0.0405564650947576,-0.013642087514739621,-0.026896442960129545,0.020070441598221266,-0.05332939408836789,-0.07264547572947747,-0.07809337210573505,-0.08276179569487263,-0.11179569065761949
0.67,-0.030418873418071368,-0.03924800518067914,-0.008851067171840764,0.03623035817512735,-0.011295163837472179,-0.0249205441039213,0.0200530058075103,-0.05720769049965073,-0.07627285100573394,-0.0771598090380387,-0.08694816577443135,-0.11537244863731033
0.672,-0.025855143558728314,-0.03718829322056911,-0.011464465883014962,0.032934381703645196,-0.007700558338036947,-0.02534629231075237,0.0197674782062937,-0.06045033429680697,-0.07930961102610877,-0.07776332973842348,-0.08935291550174089,-0.11827519681580724
0.674,-0.023731940621307453,-0.03877269301351959,-0.015368173968128403,0.03207833221335623,-0.004841988360767513,-0.02790223435043665,0.01843225080821387,-0.060710683348194974,-0.07960847869158806,-0.07976811969234376,-0.08783750884115596,-0.11853769998978828
0.676,-0.02684212309150997,-0.042695395415128644,-0.016275878493060822,0.03481915744853615,-0.006434334164644799,-0.030134552402781598,0.015183607813833225,-0.05912860030461628,-0.07815669427596879,-0.08316685236679525,-0.08309386470653117,-0.11714167290123166
0.678,-0.034979781880228974,-0.04756840022312924,-0.01284415809648154,0.04091947297832456,-0.012822088762760048,-0.03086331069757146,0.010981802111266526,-0.058156480525339546,-0.077225641499735,-0.08707646068686706,-0.07820043472561534,-0.1162570924881489
0.68,-0.043573000902546496,-0.05262642096413468,-0.009027745642955588,0.04786808033577477,-0.019247486258711245,-0.03153203393629108,0.008643430977856588,-0.05852314295147598,-0.07732142333900308,-0.0894127827998911,-0.07631516921609535,-0.11656403917362175
0.682,-0.04745414831974213,-0.057033028917408975,-0.00943308403401663,0.05230426189870856,-0.020579471325268994,-0.03370985240199414,0.010198963819133518,-0.05922745688990265,-0.07666559856839493,-0.08922390697354216,-0.07846342420129668,-0.11719207959173608
0.684,-0.04524543110433241,-0.05966889109970304,-0.014360244828779664,0.05260920967826225,-0.01624781129022274,-0.03691214415901648,0.014925549913015044,-0.059367579250613985,-0.07353719260480972,-0.08791784474166087,-0.08322972481538013,-0.11732836483867327
0.686,-0.04020416472227042,-0.0600895700096874,-0.01993153544376154,0.05018809439955023,-0.010388643134709313,-0.03935575291141269,0.01978893464214153,-0.059051656880115794,-0.06902356084832818,-0.08732121322109013,-0.08779012417640497,-0.1170522334432796
0.688,-0.037255858929839035,-0.05913228295548728,-0.021932842164315777,0.048186665848168705,-0.007916312613069186,-0.039749331894877914,0.021669158022655025,-0.05882431975018728,-0.0664706601845656,-0.08793598913288321,-0.08994276788914969,-0.11706539179997971
0.69,-0.0389498317391444,-0.0577066756211242,-0.018759004803634325,0.048604444908842595,-0.0107533258896976,-0.03766311134655211,0.019534891038710745,-0.05888795238517527,-0.06809370750297376,-0.08976245924353919,-0.09052050595765214,-0.11843054508217077
0.692,-0.04402563210775413,-0.05539822581241771,-0.011342987896410509,0.05059432758922878,-0.017370427852593896,-0.03300666299001189,0.014778023448249716,-0.05904234116773883,-0.07296954716372973,-0.09306993628771358,-0.0924436741041088,-0.1218420516525143
0.694,-0.04896766543957551,-0.05127289866416105,-0.0022899149501139637,0.051537767463368536,-0.024394976173076215,-0.026527267706398013,0.010214496230319284,-0.05908135995560655,-0.07786737945287066,-0.0970332679782788,-0.09634837425069727,-0.1261053183317755
0.696,-0.05069713577825165,-0.045725610189152936,0.00496270465810003,0.049679465428979226,-0.028612616127799202,-0.020345042683397062,0.008494003074623332,-0.05901575289814127,-0.07968261472823532,-0.09922564693104526,-0.09934546363794365,-0.12827447890389704
0.698,-0.04845039782835232,-0.04068083209048253,0.007756999708699131,0.045545220460019235,-0.028557704655485856,-0.016806829039808943,0.010541114745873409,-0.05896312504409083,-0.07749851016058512,-0.09773033305356202,-0.0987602407865234,-0.12589070517423745
0.7,-0.043722646229335874,-0.03800385002336467,0.005717607718923523,0.041125697410658246,-0.02498053038115234,-0.016783376673256273,0.015169252378630727,-0.05897379032185023,-0.0727533028549919,-0.09311211351303919,-0.09481104990199714,-0.11876362674722368
0.702,-0.039234283579840434,-0.03791017185876878,0.0013304006965227334,0.038351259443240346,-0.020567626924731665,-0.018945970807340354,0.019718853294605522,-0.05900760445442964,-0.06822254232331282,-0.08826762821497824,-0.08938312594746319,-0.10944097367006031
0.704,-0.037423989529538015,-0.03926535091571817,-0.001837709154265368,0.03810260262307161,-0.018304884241052782,-0.02109286264516434,0.021919789086757645,-0.05901793550358471,-0.06651133690050992,-0.08633730321342654,-0.08429393347095947,-0.10200095993465973
0.706,-0.03889268058432568,-0.041911086493809604,-0.003020093434108059,0.040387596201766365,-0.018846938129133024,-0.02306230693131646,0.022405647735701688,-0.05900441702512715,-0.06854500336429524,-0.08843732817990987,-0.08138325171143027,-0.09941994664791186
0.708,-0.04262408277264025,-0.0473300169329593,-0.004730672899150193,0.04510616574483355,-0.02036444618111101,-0.026891632680939182,0.023981906803533674,-0.058992321985960244,-0.07316165031816338,-0.0932051814304289,-0.0822454841582024,-0.10172460951699563
0.71,-0.04746886797539176,-0.05553313641500661,-0.008217939902225357,0.05162001167594498,-0.021346637035522975,-0.03295565871957429,0.02743317134145266,-0.0589939220880567,-0.0777131000261135,-0.0977926422271043,-0.08605806670594235,-0.1060166133001338
0.712,-0.05281525620835189,-0.0632679803606506,-0.010910130175390968,0.058161740286493666,-0.02245452585826215,-0.03816147796098014,0.030170630072285504,-0.059001286928836195,-0.07972373304725718,-0.09973796830574498,-0.08934233465999278,-0.10884502248511331
0.714,-0.0584625263617137,-0.06693140984934441,-0.00919610637399921,0.06301145196641608,-0.025613263115771,-0.03886764760176608,0.029647891556548973,-0.05900393156615773,-0.0790301579312532,-0.09899355005859917,-0.08968429154899776,-0.10984013432334924
0.716,-0.06402364324580113,-0.06560524694801091,-0.0021068077346515844,0.06552147105553864,-0.03170305277655411,-0.0341514267654765,0.02598514834893698,-0.05900117562418189,-0.0776568917074949,-0.09763163781428316,-0.08816723085205283,-0.1116331381676497
0.718,-0.06820539221133558,-0.06087196494016246,0.007583614458999098,0.06558898306025938,-0.03889048264299527,-0.02646731063309887,0.02094420262058307,-0.058998415995126466,-0.07730207978576681,-0.09730999502187519,-0.08719420708174219,-0.11526632059342322
0.72,-0.0693420155058494,-0.05540512397181517,0.014989576575387546,0.06353148250490594,-0.04345386587499748,-0.020048097600841756,0.016005248174793398,-0.059196058413173054,-0.07784961736540542,-0.0978671797212169,-0.08752281926711175,-0.11809605036386621
0.722,-0.06652257157705939,-0.052150048440393976,0.015587379036439575,0.060516686015516574,-0.04210933510095137,-0.018706060152834405,0.011979258907666875,-0.06037949505959581,-0.07830383016636425,-0.09830789935486818,-0.08820704049765407,-0.11708247358497573
0.724,-0.05996892608677204,-0.053087301719624454,0.0075513839283418305,0.057815738167980135,-0.034088087883368146,-0.023831236094814547,0.00954259180860205,-0.06332692692982349,-0.07822591993963061,-0.09821827941520747,-0.08835776200196396,-0.11234967340776202
0.726,-0.051467371109145656,-0.05711561030175789,-0.005666772715767094,0.05567074998256941,-0.022712624618052228,-0.03258988261850403,0.009015118643861293,-0.06712981899104369,-0.0779423373837912,-0.0979364672014975,-0.08805798241636414,-0.10718903660590706
0.728,-0.04402605078135618,-0.060236729540250944,-0.016504080568422997,0.05340932079371217,-0.013762463669879875,-0.039189528889469805,0.009476025368834351,-0.0696484558383514,-0.07795911254575225,-0.09793853861800075,-0.08805208209711358,-0.10506063900381196
0.73,-0.039717735075488425,-0.05917388146970242,-0.019591618860558546,0.05034444353712682,-0.010600376570565019,-0.039636606149140455,0.008797358891697062,-0.07073055643970716,-0.07883557086927412,-0.09868617130843206,-0.08942106245656453,-0.10674394763709574
0.732,-0.0383763380821982,-0.054308679669493924,-0.015848026920195775,0.046660734037661244,-0.012046095269648385,-0.03480370022647574,0.005507565683694471,-0.07269292082817416,-0.0813422134026252,-0.10086263541933359,-0.09284479159164634,-0.1107513162912423
0.734,-0.03858833304060289,-0.04912458475513953,-0.010424998184826506,0.04370464417644378,-0.014705026599092194,-0.029155965504568834,0.0009422710789841393,-0.07635019332359547,-0.08584781167040753,-0.10494295152481307,-0.09711180245795854,-0.1156107873509638
0.736,-0.03928013603933481,-0.047055034764146825,-0.007767321352726674,0.04298361347072432,-0.01619838906110978,-0.02673839343729349,-0.0015492354366611835,-0.07910126304085045,-0.09125131259642832,-0.11009113897196873,-0.09960517453623514,-0.1206161479381837
0.738,-0.040948569077281005,-0.04877677712059912,-0.007884755613588307,0.045140937454333674,-0.01709637982384135,-0.02779435661227558,0.0001289156558179989,-0.07803899485543575,-0.0948141304886213,-0.11368119971570152,-0.09929646013528386,-0.12500499097836898
0.74,-0.04558969977747937,-0.05274786727426828,-0.007189179570886238,0.05014155697448186,-0.020100303044941016,-0.029549415415203454,0.004996984673635133,-0.07332628123356882,-0.09409566813027384,-0.11310915960707857,-0.09784751959344722,-0.1276611053817463
0.742,-0.054361131481868726,-0.057448317999814716,-0.003071164806686706,0.057364353069508135,-0.026761539975316946,-0.029889713679743322,0.009861142863776482,-0.06820169313786124,-0.08999737977744116,-0.1090735293523681,-0.09724803977612062,-0.1281011521720891
0.744,-0.06508757255925837,-0.06201127049515438,0.0031008529993084696,0.06498928148041921,-0.03521786219073994,-0.0292386649733814,0.011993742935338074,-0.06577230251578624,-0.08627882078193912,-0.10533017228331745,-0.09772002184048525,-0.12703236594053716
0.746,-0.07248168190662209,-0.06524578826961162,0.007238871234997293,0.06980717923474637,-0.04097084167888505,-0.029238026631414994,0.011901872793059159,-0.06549074487726926,-0.0846767921182171,-0.10380305505825244,-0.09827147502502787,-0.12504844809756616
0.748,-0.071774321249372,-0.06538321323102515,0.006379133599175481,0.0688393391543965,-0.040215220881398846,-0.03036818276566201,0.012824797749336772,-0.06413661385550866,-0.08306222326054644,-0.10251408248377616,-0.09828117597571626,-0.12186470333657645
0.75,-0.06356575382123877,-0.061657317949580105,0.0019010925174115616,0.0624093588605,-0.033795900521504746,-0.03110308000147487,0.016904156340496756,-0.06067995942381755,-0.07984831969617406,-0.09975254392309806,-0.09798637593710158,-0.11803382158116676
0.752,-0.053980543521562875,-0.055466408500950026,-0.0014828375925501785,0.05449139411461032,-0.027041279608984444,-0.029508112780109726,0.022681176638599164,-0.057906481704467654,-0.07712459526936952,-0.09727762783672282,-0.09784029272145482,-0.11583932716386683
0.754,-0.04859361938249698,-0.04890030466617681,-0.00030123186923958754,0.048727190508470644,-0.02448464028911554,-0.025127196859930916,0.026217626567893695,-0.05881054921587285,-0.07796068786894703,-0.09794777323736971,-0.09793120661056527,-0.11726376386274681
0.756,-0.04787755038476424,-0.043114009026739716,0.004764494033824294,0.04560585903271715,-0.026102453941427132,-0.019340875276299345,0.023903217315301793,-0.06318872300507901,-0.08255069477601121,-0.10205199355665753,-0.09805428437852591,-0.12184985140486879
0.758,-0.048961073031142416,-0.03897870528140132,0.00997984673344398,0.0440333509396235,-0.028830191846221265,-0.014697571721615616,0.015119053782102355,-0.06789423986499046,-0.08773983363017854,-0.1067541954477086,-0.09806345974232718,-0.12671755261998172
0.76,-0.04950813846961415,-0.0375514665586227,0.01195494784184047,0.043555864420383596,-0.030071977657503166,-0.013263114620027,0.003234972522290833,-0.06987297447989683,-0.09006943867278011,-0.10888071599056048,-0.09800068512248597,-0.1286763877275758
0.762,-0.049206198135347004,-0.03903573608934343,0.01017101431625076,0.044401203299912186,-0.029472312827352746,-0.01504382952266878,-0.006166677048953431,-0.06899746121483706,-0.08918057142408142,-0.10807757102355817,-0.09796569643894389,-0.12657728642633864
0.764,-0.04881348076514693,-0.04261487718113484,0.006199808243736164,0.046580321299392505,-0.027968885447318452,-0.01864074394863981,-0.00870893244734844,-0.06754930217804739,-0.08754009614877364,-0.10658333524547013,-0.09798324140187814,-0.12179432195096102
0.766,-0.04880341915052878,-0.04739129022453575,0.001412402950518119,0.04950486894691444,-0.02608153271660066,-0.022980262222139072,-0.004163397015835608,-0.06726573992205254,-0.08716423041475566,-0.10623827748350752,-0.09801071553597017,-0.11719914454904415
0.768,-0.049010686483439286,-0.05236914984561055,-0.003358989884075965,0.05216210988909254,-0.02389897100946637,-0.02740054781727415,0.0036719012004714897,-0.06811080040791781,-0.08806691277333935,-0.10707911087603296,-0.09801426385057968,-0.11525838022474308
0.77,-0.04911270850839865,-0.055579375384550225,-0.006467067913444721,0.053333043543828874,-0.02209894102471664,-0.030350984705863542,0.010843733301260079,-0.06987669495849122,-0.08991060716329102,-0.10887654552173787,-0.09800096545262069,-0.11600918821935859
0.772,-0.049047753922505787,-0.05492025947686091,-0.005872409776443077,0.05224775171788498,-0.021772295529341425,-0.02978951206028961,0.016161960976563732,-0.07302924133674385,-0.0930692628094468,-0.11204646370049008,-0.09799267703262225,-0.11737166284617405
0.774,-0.048961172652975074,-0.05104134448788178,-0.002079907230722598,0.049776873441726245,-0.022991818364999073,-0.026093147154348666,0.01976329667681294,-0.07695147686514901,-0.09695210987332893,-0.11595978472724558,-0.09799597528143875,-0.1176900871826624
0.776,-0.0488456827360821,-0.0473952849828464,0.0014504718744483194,0.047930926279562434,-0.024388492753583978,-0.022620196803646624,0.02129039152991956,-0.07931846313798271,-0.09918725143618222,-0.11842273087088838,-0.09800207388922157,-0.11713105828428184
0.778,-0.04812391386470733,-0.045708385487554674,0.002415419380830515,0.04723089915382588,-0.02462635308684094,-0.021644602448381338,0.02085305119442884,-0.07842347728991249,-0.09775628253525379,-0.11829232468664647,-0.0980031869860375,-0.11669121415859311
0.78,-0.04574495538837937,-0.0440137754072851,0.0017310874688065742,0.04587254162321218,-0.023439289092889854,-0.021943161654329205,0.019815953495798677,-0.0746661899228909,-0.09314546118554956,-0.11694509611885477,-0.09800039050930015,-0.11678225871319667
0.782,-0.04121592380489119,-0.040807949326199966,0.0004079897715897024,0.04246143276846928,-0.02090259969684033,-0.021811409891750132,0.019469545279434945,-0.0695194088014253,-0.08826939554261345,-0.11629689379765981,-0.09799844731598734,-0.11706427361505069
0.784,-0.03573155785865998,-0.038022055025654485,-0.0022904393761561488,0.03835556256813254,-0.017205872237142854,-0.021797137454527393,0.01962063786847677,-0.06436121346521265,-0.08640770729790188,-0.11669010523409863,-0.09799904524303213,-0.11736867625699285
0.786,-0.03236230217120265,-0.03832955812923177,-0.005967236699650593,0.03661557610634706,-0.014116391707956989,-0.02288589067585096,0.018675008970961422,-0.06033264631147107,-0.08915079397023004,-0.11723052506786519,-0.09800039129164909,-0.11856872666779358
0.788,-0.034645108723653416,-0.04203154667558821,-0.007386460290886302,0.039480003333266345,-0.014945795937997783,-0.02431627755665779,0.015378678154073757,-0.05826983021764005,-0.09600890480410955,-0.1172779427271631,-0.09800070793546455,-0.12174256964017044
0.79,-0.04355748453698576,-0.04749283456631418,-0.003913431588692954,0.0467016347355766,-0.021232117548035553,-0.024765645345421004,0.010942860521976,-0.05814892547419739,-0.10469257060752087,-0.11700717900077635,-0.09800012461177794,-0.12598241458354884
0.792,-0.05573537007709241,-0.05314958766991367,0.0027171002467588756,0.05560023448731532,-0.03030482570263252,-0.02445558320727643,0.008079842042117917,-0.059107335786006604,-0.11216980349347344,-0.11707139003719269,-0.09819712977071758,-0.12881855845871495
0.794,-0.0657348854636588,-0.058609016706176915,0.007453300366596787,0.06297725994212035,-0.037145351292309614,-0.02524088427591049,0.0070955410119400465,-0.06074945666269379,-0.11711229843411336,-0.11845799682179625,-0.09937907436669209,-0.12989675115614588
0.796,-0.07017081741300381,-0.06391118091009092,0.0066822465815584015,0.06721348445649497,-0.038536545970410306,-0.028537449192896133,0.005361845384083043,-0.06354592083109993,-0.12083441859207371,-0.12185189023243481,-0.10232614131905608,-0.13168989899482936
0.798,-0.06975029532722724,-0.06807175360635027,0.0019340778663574348,0.06862611334143524,-0.03573242026607355,-0.03306119814694884,0.0017680184500932688,-0.06703722889107583,-0.1251998261837771,-0.12609503662766805,-0.10612967332223676,-0.13526089160883825
0.8,-0.06771379590238344,-0.06953701785616373,-0.0018489002291828753,0.06836141929805506,-0.03288096891900987,-0.03574812103636105,-0.0012936825551747649,-0.06926779279734945,-0.13023380922445235,-0.12837389679158862,-0.10823196219198261,-0.13805985548452981
0.802,-0.06621989040512817,-0.06799556607486211,-0.001921472106564009,0.06711523511675552,-0.032462030328273425,-0.03528272218756967,-0.0016226577173078696,-0.0691717551524067,-0.13367069887845157,-0.1267673808032795,-0.10681895514614134,-0.13706743496523266
0.804,-0.06454272263430638,-0.0644838645269388,-4.354893917826079e-06,0.0646575936219482,-0.03311663847763789,-0.033049170887319526,-0.00017203079851172212,-0.0679614137863638,-0.133044528100452,-0.12204891881171755,-0.10256003026977446,-0.13236233426427946
0.806,-0.06102214740232227,-0.06005541386932197,0.001012864654404669,0.060605273813432496,-0.032188654529588176,-0.030667309511394285,0.0007747485972402873,-0.06736754387769615,-0.12904632112452397,-0.11721723685565537,-0.09818770639549938,-0.1272034157212129
0.808,-0.05597886214774384,-0.055109303023628126,0.000925976542090916,0.05549811059745155,-0.02944395587970681,-0.028115372318680644,0.0005774098962204242,-0.06771534056579841,-0.1253273415289378,-0.11490893038830768,-0.09630303162783842,-0.1247315351750444
0.81,-0.052287769550922555,-0.04954007406175387,0.002749855539925425,0.05085581345616194,-0.027910617190323984,-0.023958265822227476,0.0006816790914183531,-0.06820454980729844,-0.12367292830997516,-0.11440469648917022,-0.09704183299684616,-0.1243275619452375
0.812,-0.052832391321078115,-0.04360419795479958,0.009198587535335565,0.048215542486208275,-0.030720946630354053,-0.01739194051521733,0.0029325977321027793,-0.068251897387166,-0.12203414244455006,-0.11260151807463549,-0.09837342891392793,-0.12266147098403339
0.814,-0.05692332593294039,-0.03886863574699734,0.018039372375902772,0.04792632996254876,-0.0367758277243077,-0.010603993984967326,0.0077359413029022064,-0.06800889175598793,-0.11883714351087377,-0.10871401917302968,-0.09867592016329672,-0.11878473847702074
0.816,-0.060593788006705,-0.037344173463468404,0.023280375329144,0.04905079236204658,-0.041243034312913124,-0.0075349247680130205,0.013421174315123578,-0.06786700048758432,-0.11613459426704253,-0.10565967397902269,-0.09832035593347727,-0.1157704313185727
0.818,-0.06155824882913707,-0.03982080905963455,0.021903261043233965,0.05106358746197399,-0.04130256419767483,-0.00989534872691694,0.016956258110023683,-0.06793167039336342,-0.11697155087667818,-0.10620816432277119,-0.09907382631425639,-0.11682665657384361
0.82,-0.061948295333119276,-0.046001607074313854,0.016406611375803265,0.054933413942654295,-0.03902049957334511,-0.01612264238190733,0.01607086958051971,-0.0680399320568489,-0.12155042091330931,-0.11017105547905684,-0.10211423720739278,-0.12167968293956227
0.822,-0.0649956103996452,-0.055145015178285225,0.010594330506139732,0.06150137318967576,-0.03779845547117826,-0.023732940029730556,0.0119079836689053,-0.06805635237893143,-0.12673377413091666,-0.11562556877811561,-0.1061948278192273,-0.12687443921195596
0.824,-0.07081028671571704,-0.06578995657018284,0.005694823900337265,0.06968043730554631,-0.0383016407289622,-0.03128020594897182,0.008249655995412577,-0.06822451911858363,-0.12928609058731186,-0.12093938128981876,-0.10857595877710018,-0.12928272032703253
0.826,-0.07648704552673306,-0.07605177905419341,0.000666821264451756,0.07712494333376968,-0.038601046410216715,-0.038460540479902765,0.006711646363515336,-0.06950424862087727,-0.12971512154574716,-0.12515120547328523,-0.10823264247941156,-0.12963676063294985
0.828,-0.07931790458167251,-0.08426447602241532,-0.005115242416651393,0.08200378897981633,-0.037091259553091366,-0.04493591326256585,0.00509478692142191,-0.07279042912785698,-0.131349291774507,-0.12755457375012957,-0.10682256739114655,-0.13131370850964427
0.83,-0.07914928268143516,-0.08901752840554633,-0.01007684200813174,0.08389958259937477,-0.034519623376762815,-0.049425633279636845,0.0018448529990500546,-0.07704045045365765,-0.1351971084144456,-0.12797049736877708,-0.10626812030881642,-0.1352228759996862
0.832,-0.07780749978675708,-0.0894648629983229,-0.011675777809886139,0.08349608358366067,-0.033063214688145305,-0.0504419200557229,-0.0010045294358661829,-0.07949106474977985,-0.13832472300001514,-0.12702809978256865,-0.10663393580154253,-0.13835644897218707
0.834,-0.07651959526935556,-0.08525703889650917,-0.008613817512104356,0.0811951484551101,-0.03396042552794717,-0.04721412858102703,-0.0007032782844212063,-0.07845731591886008,-0.13783288221727324,-0.12511771042085246,-0.10641827445799647,-0.13783397398401662
0.836,-0.07448621806476251,-0.07611972602740769,-0.001421359571533909,0.07621617702537017,-0.03653741123800447,-0.039663992610410974,0.0030303705424560095,-0.07458817177155352,-0.13385706500292763,-0.12190011386084859,-0.10414272531650004,-0.13384027286027705
0.838,-0.07043891752165396,-0.06327238739842073,0.007598440323844293,0.06819323693707369,-0.03900598755889025,-0.02919143183993182,0.008510192451276623,-0.06946368707625268,-0.12836546291226522,-0.11801293730846946,-0.0996649237704809,-0.12835684629511981
0.84,-0.06457054197520126,-0.05043056358198564,0.014845203530813226,0.058938818923628025,-0.03962771612755904,-0.019321162257577653,0.013741667747495667,-0.06457463282706574,-0.12304098897193358,-0.11537123499707105,-0.09426709535406894,-0.12282664087544513
0.842,-0.05768426683257188,-0.041417098805545005,0.016938537760034712,0.050914807068565084,-0.0370922612970773,-0.013847007726573062,0.01669195856854546,-0.06174997752124898,-0.11884431252930155,-0.11419605805940092,-0.0897156510109379,-0.11731887221183364
0.844,-0.04977688514386302,-0.03755819669312133,0.012469741261760965,0.04495118167731339,-0.030826498856811314,-0.014251713705764573,0.01577100498005562,-0.06260535499242609,-0.11645399781437084,-0.11225111106514916,-0.08727494126891319,-0.11164789629859645
0.846,-0.04125685868218883,-0.03758102086400586,0.0035181782406512423,0.04066112498620024,-0.022289937818453686,-0.018695183055989766,0.011908764715217523,-0.06626220310253042,-0.1160360428092748,-0.10866042193097543,-0.08703093330010059,-0.10699967126300104
0.848,-0.03436207841178622,-0.03905223030026837,-0.004904128070922536,0.037885994940449204,-0.015098285597179633,-0.023298776313900402,0.008632824373078867,-0.06932634575769282,-0.11697034646090332,-0.10593476699957964,-0.08806821493553242,-0.10538008467407896
0.85,-0.03219365972159637,-0.040504226585799975,-0.00833755914887256,0.03726462452790907,-0.012767453400395064,-0.025258239265544925,0.008321944235567959,-0.0695711726548964,-0.11887797829200614,-0.10697292475120343,-0.08992705605214442,-0.10754747724551161
0.852,-0.036475184453428004,-0.04259361387641849,-0.0060179038651653844,0.03991547207513719,-0.01629223802878033,-0.024864348514091743,0.009849304020924692,-0.06811433816484029,-0.12209867475349559,-0.111659871949306,-0.09306820450089978,-0.11222675764870653
0.854,-0.0453877264578258,-0.04661287438584012,-0.001162128461180855,0.04587071955161383,-0.023096865870408295,-0.024493499069832045,0.01081028783302665,-0.06722743474800541,-0.12598883683735945,-0.11678516535527532,-0.09694738269860184,-0.1167477205310284
0.856,-0.05389145091669405,-0.052007651765630866,0.0018595790423818178,0.05268749086660063,-0.02858515426026823,-0.02579431225669377,0.010470304269709019,-0.06756744128741322,-0.12841087730667586,-0.11903149649881156,-0.09940772946059838,-0.11892687297192772
0.858,-0.05738306350718608,-0.05582668755722393,0.0015105689511228232,0.056531570221771486,-0.029761790914483797,-0.0276675272496266,0.009787221946193681,-0.06821060816279675,-0.12827114043380192,-0.11813772265728802,-0.09929228315548842,-0.11953638018881194
0.86,-0.05504634303620029,-0.05523414507320474,-0.0001964809431252003,0.05524110974145242,-0.027238834850528647,-0.027620543419681235,0.009643250074874932,-0.06833526555278419,-0.1269412029555781,-0.11654034162384261,-0.09795302484055464,-0.12145968828689266
0.862,-0.050150777668769936,-0.05105640413465209,-0.0008847997088509986,0.05069181287978929,-0.024023461918781037,-0.025302103127398074,0.009945632125823937,-0.06804529226664478,-0.12630646686953265,-0.11618773179247598,-0.09730057425401313,-0.12534723354561014
0.864,-0.04733886777937655,-0.04745081105989862,-9.726581782382282e-05,0.04738288890525108,-0.022904304665584577,-0.023002140004300283,0.010387884506083803,-0.06783888241333134,-0.12669678941938808,-0.1168586075014964,-0.09768752217844841,-0.12844586481404735
0.866,-0.0490181833456576,-0.047154515996824936,0.0018593134259775818,0.0480328269114304,-0.024876399822162613,-0.02223351474387303,0.011642633583300054,-0.06789838683428022,-0.1272285056956599,-0.11737052539140579,-0.09822729466979982,-0.12863240970982473
0.868,-0.05401284684946658,-0.04886866084312467,0.005134097726029919,0.05142170136807708,-0.02915484169290125,-0.021968978868996,0.014767382250363672,-0.06803938398277594,-0.12727333638837424,-0.11725287000455203,-0.0982778153549446,-0.12709365859859664
0.87,-0.058924266927974825,-0.04991089285893772,0.009010931693400283,0.054437641958076696,-0.03354055908322304,-0.020947857050375746,0.018953933025422035,-0.06807425451489275,-0.12700608127187707,-0.11691881285943459,-0.0980088816098127,-0.12618250692635752
0.872,-0.06110025702095769,-0.04950779155179967,0.011618743833191789,0.05533495928366364,-0.0358618619278695,-0.019583443060225973,0.02135262154191543,-0.06801397246905032,-0.12685398267927994,-0.11682347063152597,-0.09805033259328313,-0.12677403864138342
0.874,-0.06137938080901781,-0.048750225466157905,0.012785815953508216,0.05514001974588231,-0.036615622264131065,-0.018554553822098946,0.019834221106312347,-0.06796615193655765,-0.1269269917254588,-0.11696004158339741,-0.0993042333801183,-0.12876085309255272
0.876,-0.06287113626003242,-0.04860512134755877,0.01474594811357975,0.05596689876805809,-0.03853273955886241,-0.017398748197406343,0.015092454725108798,-0.06797620769203835,-0.12704480016796074,-0.11707723720339099,-0.10237049166686131,-0.13215753602994523
0.878,-0.06639473508415811,-0.048947609767868716,0.018348192612082353,0.05811805783612365,-0.0423391443581778,-0.015748287732484864,0.010201555434874787,-0.06800710729241491,-0.12706122975633752,-0.11705868724271516,-0.10619168837311371,-0.13607597513575423
0.88,-0.0693224335520394,-0.049190240658444545,0.021290360997355012,0.059839788768861216,-0.045402262608417523,-0.014441791373780629,0.008097077781082634,-0.06801637882983362,-0.12678539952073403,-0.11676648344954883,-0.10832513697957145,-0.13830793669577696
0.882,-0.06954300129274177,-0.04911939057054699,0.021557653395734858,0.059902294300468416,-0.04561600773781617,-0.014304523355710586,0.008930881973278425,-0.06800394478803672,-0.12543632298381352,-0.11542867516605168,-0.10731296292134254,-0.13735051456560698
0.884,-0.06810787522273308,-0.04895321438357896,0.02014279492623896,0.0590241757228388,-0.04410960587395439,-0.014920828978972048,0.010422273866845095,-0.0679929459320102,-0.12217577282266802,-0.11218244275332429,-0.10374212391280288,-0.13363708328408144
0.886,-0.06723525067046662,-0.048912509428853876,0.019246761334813338,0.058533456851584904,-0.04319906926968391,-0.015327448488277953,0.010756983745992016,-0.06799447782902743,-0.11797583741030321,-0.1079831969259058,-0.09901066645855872,-0.12852338275818492
0.888,-0.06779187613271696,-0.048983744823054516,0.019755973742934318,0.058849837641321553,-0.04377324655934458,-0.015091824802573098,0.010135389670305802,-0.06800121187914233,-0.11564485764852342,-0.10564473301841863,-0.09438876817341767,-0.12323621968222624
0.89,-0.06974110576245261,-0.049039980932059954,0.02157438427755059,0.059751431788450396,-0.045751436933788504,-0.01415383940516066,0.009656776699811086,-0.06800359243755025,-0.11720290035184305,-0.10719882456214884,-0.09155388047825547,-0.11885132952732674
0.892,-0.07313849792227803,-0.04902796738465737,0.024658883069015463,0.06111799947509528,-0.04915347088540126,-0.012449142747691756,0.009763446305678644,-0.06800105459418117,-0.1219266516491452,-0.11192477284235655,-0.09227987659669967,-0.11635082076973911
0.894,-0.07707763589571312,-0.04899154008931151,0.028182233369530248,0.06263097636567966,-0.053079172028705525,-0.010456643147303366,0.010074081209695544,-0.06799854325496182,-0.12678731263392423,-0.11678863946641554,-0.09599179190840344,-0.11598294228621134
0.896,-0.07964818932851483,-0.04928785133933613,0.030163483431757773,0.06386644586815697,-0.055531078326617786,-0.009492782379855944,0.009944834822960706,-0.0682181248690204,-0.12910657443335177,-0.11910823350990629,-0.09949218211351377,-0.11700129127109121
0.898,-0.08076346131190207,-0.05125066996759785,0.02924096473339316,0.06577492493121696,-0.05588311281514105,-0.01100149723154151,0.008505408093051737,-0.06953274158048951,-0.1296002266746876,-0.11960029505709335,-0.10107660937847204,-0.11892173672260656
0.9,-0.08271919707489239,-0.05661375267005012,0.025795939630060025,0.07029566832711574,-0.055551503085137316,-0.015578300132746102,0.0051217762107926765,-0.07280752792447671,-0.13139237215070956,-0.1213914994171314,-0.10252498626817044,-0.1221026883141044
0.902,-0.0863476151178725,-0.06493175623709098,0.021075651276505018,0.0770554692310854,-0.05532146590882887,-0.022178313220068826,0.0009123559233659229,-0.07703306840704743,-0.13528037578034913,-0.12527992159711615,-0.10533162622016336,-0.12596687383404948
0.904,-0.08897559033542421,-0.07249123228152438,0.016280739411517024,0.08234396231679617,-0.05411872794559442,-0.02829260325270909,-0.0013559949013417926,-0.07958790560208888,-0.13845068109483702,-0.12845094042310992,-0.10793870771827802,-0.12839819631617622
0.906,-0.08695882500697145,-0.07444244493630647,0.012643239730612245,0.0819936502664871,-0.050714365229607095,-0.031146867202773314,0.00023713580688111905,-0.07933117820377816,-0.1386711833212284,-0.12867155504899563,-0.10839462864298795,-0.12827706904741865
0.908,-0.07845361034538896,-0.0679131403948309,0.010983060638878933,0.07413130765656496,-0.04486316065436479,-0.029163500585076607,0.004943469085100793,-0.07787352637717514,-0.13710954420451657,-0.12710958024057398,-0.10724615729402605,-0.12695095510277377
0.91,-0.06433419241032623,-0.05461518515081567,0.010206620322242578,0.06038934496686721,-0.036836437246624554,-0.023586724107511215,0.009776662369168384,-0.07724151544245031,-0.13616893451074516,-0.1261687488630304,-0.10638212117008804,-0.1263078896446311
0.912,-0.04845967288292688,-0.04052837350594585,0.008158254451397562,0.04563132617184041,-0.027824964935319503,-0.017997644331010695,0.012092309650704958,-0.0774833167665547,-0.13632009478676893,-0.12642968454897746,-0.1063696935106629,-0.12647275083248674
0.914,-0.03750264430764552,-0.031700520263008174,0.005727428720094897,0.03593871708624868,-0.021685551768124974,-0.01460315357535161,0.012599225156838308,-0.07673421400687278,-0.1356959152933624,-0.1263525436831757,-0.10574656983101237,-0.12569295793760327
0.916,-0.0380722168954895,-0.030575523959118077,0.007342695009777352,0.035684947505006025,-0.0235684409186875,-0.012517680733457926,0.014399678400009509,-0.07348162897743564,-0.13255239678908376,-0.12407987678351366,-0.10296910488169268,-0.12246769533361558
0.918,-0.05045847097959303,-0.03556198594146689,0.014855954752634314,0.044319033111385985,-0.034012806352569154,-0.010561281297426919,0.01828441219507669,-0.06895958601891919,-0.12801427738888047,-0.1192513409381241,-0.0989429735278949,-0.11797544553374062
0.92,-0.06639158084639973,-0.04264785998284341,0.02382709975847023,0.05577287538019184,-0.046516435903338205,-0.00936304308663576,0.02122922570890527,-0.06647042689772392,-0.12545792840558734,-0.11345624528441674,-0.09664183223287882,-0.11548560555120146
0.922,-0.07569767526724609,-0.04801385992957423,0.0278665007836407,0.06286417294283536,-0.05291369504377827,-0.010144773384845204,0.020135443117351867,-0.0681285080455504,-0.12709269239915325,-0.10938795017566695,-0.09808116835202217,-0.11712710299690943
0.924,-0.07394953657963224,-0.0501078896316042,0.024160467782192795,0.06250045406737646,-0.049590534055904086,-0.013252893021499132,0.015302401514090399,-0.0729862966250368,-0.13197601038261395,-0.109409139365756,-0.10246112618758597,-0.12197734213027955
0.926,-0.06375922333399518,-0.04977439134161308,0.014375447242017666,0.05672426205373786,-0.03886272954186127,-0.018027610737783525,0.010137686531334858,-0.07785638834893209,-0.13687102061495512,-0.11385807331497258,-0.10687689371519181,-0.1268528779908975
0.928,-0.051351276157381866,-0.04907727332087236,0.0025189570366004814,0.050076717706884426,-0.026365432884509682,-0.023409554945746675,0.007732848489434647,-0.08010701664782621,-0.1390976796058951,-0.12063973266908404,-0.10893567331030282,-0.12911022659886182
0.93,-0.042582384464651686,-0.05010449223887276,-0.007535399353835235,0.046618824631641034,-0.017269355103524706,-0.02878314805955603,0.007364058559836662,-0.08056274232003258,-0.1394075214209976,-0.12733357392435282,-0.10946469054363864,-0.1295661912534081
0.932,-0.040654469955996544,-0.05368829732424286,-0.013167939286180272,0.048122508084659725,-0.014119263296086187,-0.03363566333111703,0.005678186510956694,-0.08237422679199616,-0.14088573598372328,-0.1329446979999655,-0.11141034530289853,-0.13137412244482335
0.934,-0.045149412299702305,-0.05820443950032669,-0.013119418649453858,0.053125540747854805,-0.016639100971916457,-0.03639101279792543,0.0017728055673793004,-0.08629216475678864,-0.1443862241996581,-0.1369326546784423,-0.11536011006530633,-0.13529023275087557
