time,I,II,III,aVR,aVL,aVF,V1,V2,V3,V4,V5,V6
0.0,-0.010377440585643553,0.00010969810344232086,0.010487138689085873,0.005133871241100616,-0.010487138689085873,0.005243569344542937,0.0042782260342505134,0.0014918942068155637,0.007591108758208603,0.0026766337239926287,0.00620891265483536,0.0020403847240271678
0.002,-0.07196324674549348,0.0006565788272343878,0.07261982557272788,0.03564236414878532,-0.07261982557272788,0.0362989429760197,0.029577645606753137,0.010004513464122419,0.052609510809747406,0.018368062798184728,0.04315187806941706,0.013923656600259815
0.004,-0.22379058183290987,0.0020758877135018325,0.22584452992572324,0.11085750803904598,-0.22564707333952705,0.11302115423530165,0.09189309626970477,0.02977400999699441,0.1634015060077491,0.05645314973339808,0.13460801248325285,0.04284268510735134
0.006,-0.4171176195682783,0.0057046847011209345,0.42269098850395237,0.20594767501029032,-0.42109229382184965,0.21259447556627958,0.1716653654438997,0.05229020257172779,0.30373104304594684,0.10419507147334355,0.2520264693598198,0.08038655053678626
0.008,-0.5332910844304629,0.01498617433881139,0.5479717793300163,0.25998906750019957,-0.5418718196263531,0.27943810624294163,0.22029321810153563,0.0613083748033118,0.3863955073998003,0.1334050638468094,0.32427213969871194,0.10740301619464963
0.01,-0.5266227404928298,0.033043453611702404,0.5593749046536008,0.24809339828398685,-0.5444456792935147,0.29395305117388454,0.21589191772694163,0.052956966483119795,0.37918752784472537,0.13542868343720688,0.3223462741162066,0.1168358572703565
0.012,-0.4714812688985738,0.05774691349840266,0.5293000607855537,0.2078579390524506,-0.5024048868436963,0.29122232313586555,0.1839015958406175,0.039603370416524994,0.3378960814173469,0.12667781872349584,0.2881424535849754,0.11664186907205824
0.014,-0.45039193221363766,0.0802288698697556,0.5310690807599088,0.18527099829261728,-0.49305582943995774,0.3036414867830124,0.15840317017253247,0.032842756934572885,0.3194029995885021,0.11854280715109525,0.2689151450006392,0.11242868454544803
0.016,-0.4665978151148843,0.08834600645686914,0.5553451588498011,0.18915608198207268,-0.5129094045893605,0.32057906725002205,0.1484619360084812,0.031041711890879883,0.31970049614562296,0.10518653052257643,0.2667217850267295,0.10163204105392706
0.018,-0.4772673615822871,0.07496118050076772,0.5522660843331341,0.2022219059815232,-0.5160741909095821,0.31305609729169653,0.1444089013563619,0.02524942906786448,0.3091704527868773,0.08164298928179917,0.2594920105885974,0.08330779315735987
0.02,-0.4635204423895172,0.04596985658921954,0.5092983724518975,0.211202860474156,-0.48732397641145514,0.27695020843599344,0.13936379307710897,0.013492570388583749,0.2846800170665083,0.05625042835486697,0.2398864624262572,0.06351635904846746
0.022,-0.4471304669910553,0.017510052650807687,0.4645208856091238,0.21746844989319072,-0.45644914163569006,0.23944063873957458,0.13684144643497959,0.005019035456464266,0.2683626750343482,0.04212496043034211,0.2203963796393795,0.049927873071969955
0.024,-0.4543499031440936,0.005298763162743407,0.4596926350886329,0.225949358748643,-0.45745575977773656,0.2303609423837806,0.14345769202233083,0.009757108100701585,0.2761032873571403,0.04523221348948403,0.21510578537328798,0.04681417060472279
0.026,-0.48146551836466084,0.01640669322466815,0.49795823571692566,0.2324811370997747,-0.49048667216595215,0.25548566877062895,0.1598397824941804,0.026437731086704466,0.301117881961358,0.0612002429994099,0.22679450429683773,0.054780413166273155
0.028,-0.5008345222750473,0.043430638645798644,0.5442826404504277,0.22823448602272645,-0.5240839798884934,0.29311066573934125,0.1770868619528219,0.04226068705049318,0.3222933624641286,0.07813841035345499,0.24606171099269852,0.06920700825761547
0.03,-0.496192068171172,0.06536777060315956,0.5615214120957573,0.21543407576533494,-0.5307123356019702,0.3132109301626136,0.1828815206255004,0.045124728803215684,0.3249718095869117,0.08538233613606848,0.25968598842487745,0.08068501903133882
0.032,-0.48191530198423627,0.06476562856179964,0.5466530460894021,0.20906923636408306,-0.5156858968430408,0.3050016859208721,0.17470582350410957,0.037658022448126285,0.31567532836998924,0.0852657306153128,0.2642338192012135,0.08446321371997162
0.034,-0.47935477462526294,0.04779662843986417,0.5271370957821995,0.21650251550393113,-0.5038766205874039,0.2857765306715573,0.16445397205637666,0.03533447042478327,0.314001941045547,0.09220284628677455,0.2700884283559031,0.08758498905653109
0.036,-0.4854703512892845,0.037259623516727514,0.5226175140779559,0.2252083772099162,-0.5041415903963515,0.2778606839032236,0.16582626196090014,0.046784866269841595,0.3288597555796739,0.11472754990886097,0.2871874726321535,0.0990071201978083
0.038,-0.4817047147034216,0.040969804367475784,0.5223738804242047,0.2221287793206214,-0.5022358044008963,0.2801810391502846,0.1780511667400885,0.060925090503730454,0.3474896257660824,0.14247278860074744,0.31031195983929694,0.11480785497072085
0.04,-0.4661119928642794,0.04022012115173388,0.5060109084615924,0.21534587236871994,-0.4871024245636081,0.27250072856352076,0.18610260472696774,0.05996362145240304,0.35028007759164026,0.15549861565722956,0.32438847310414787,0.12194579469850161
0.042,-0.45907390028375805,0.01818742603862927,0.47721737718423307,0.22305655738398666,-0.47009326861587925,0.2473770930739654,0.17943018972128075,0.042121196485327736,0.3322399232075817,0.14285927720407363,0.3208458576537117,0.11515499835502448
0.044,-0.4733659199962755,-0.011720993846195165,0.4619203125762622,0.24477335855241486,-0.4696517450319842,0.2242020328434598,0.16560858133184872,0.023936756487623983,0.30641418447394325,0.11074400770977426,0.30416438532226786,0.1020825635345774
0.046,-0.48703215461116023,-0.016825020560301336,0.4706487288639983,0.2535203545400243,-0.48030259162732214,0.22528365071098438,0.15939929873774,0.01997903028784113,0.28950489905640187,0.07902103936458968,0.28666905586922675,0.09398330004008923
0.048,-0.46615666128814015,0.01637067657822791,0.48303870196261167,0.22619339853180137,-0.47591695666009937,0.24829705797675747,0.16285754475668304,0.026919562962972245,0.28783035371691257,0.06830322985093853,0.27936068079857623,0.09670097462586712
0.05,-0.4245413852482176,0.06141192370604803,0.4863322436813757,0.18293610671449764,-0.4571346400347306,0.27365443959241187,0.16550063707364998,0.03181345220113752,0.2965931852076864,0.08295765260491039,0.2845552931391959,0.10833834726055916
0.052,-0.42309940851225514,0.07915456964303616,0.5021811070576251,0.17317781889899153,-0.4644669959409449,0.291225442473467,0.16085953408344508,0.029948485809004766,0.3073149638553714,0.10661892169611249,0.294281268820177,0.12091267371954244
0.054,-0.4758186063840817,0.06282361470190789,0.5381555187527177,0.2073036224316852,-0.5084906469931704,0.3004062781989495,0.15001058470034256,0.02321202500950826,0.30822524203375373,0.11273296153422638,0.2919689455383099,0.12083261331358391
0.056,-0.5069204151489188,0.04025582882110124,0.5467524838722861,0.23433223652942922,-0.5280959429416506,0.29211038206398715,0.13209925470407494,0.007639832922429707,0.2854976198687586,0.08279415705972429,0.2621960777885334,0.0947083398159539
0.058,-0.4572374495026455,0.03452150718341067,0.49172893197748574,0.21334509324294765,-0.47582299401862554,0.26119016735401357,0.10967261628487564,-0.01709529859077274,0.2430319706998912,0.028997293101989653,0.21348394517795147,0.04947229012998753
0.06,-0.3829825437480032,0.041757991736608914,0.42494795799802665,0.17343481689268783,-0.40547600433907915,0.2319939916287687,0.10135021113427378,-0.030726979676660774,0.21435393478662973,-0.004830077206570648,0.1843375325695093,0.0206845148640342
0.062,-0.3801372383331948,0.04667171096737621,0.42693212790362867,0.16946867921582381,-0.4049690391861503,0.23615521525586358,0.1256125747221916,-0.011383363192000956,0.22972612444687165,0.013284425658886228,0.2044702300809322,0.03755292426162924
0.064,-0.44573191095880016,0.043039588512342984,0.48869895713996675,0.20337396374962596,-0.46805667360626724,0.2650513885976544,0.16818211870373917,0.02711349890721909,0.27288427639549845,0.061628953017644435,0.2533245694874356,0.08161021620335755
0.066,-0.48876157820014743,0.03708677761909136,0.5256039865882459,0.22720377980832993,-0.5071076476570683,0.2797356986748971,0.1899409337172443,0.04395401843524188,0.2963466570754636,0.08911133805832723,0.2809181114825908,0.10580380265257422
0.068,-0.465012413898861,0.03820124473677714,0.5027386212493405,0.21447522894939777,-0.4833287183968251,0.26857250027181817,0.1757801249110381,0.023935098007819677,0.2813011527244403,0.07779328116366281,0.2690032107595426,0.09372915145602113
0.07,-0.42501287786691627,0.046431668848013745,0.4707143432605168,0.19061102719829792,-0.44785483698711953,0.2571778895094036,0.15229699512448447,-0.0036793442193625778,0.25565938694830864,0.057148427171863525,0.24667814178802533,0.07285186411027321
0.072,-0.42221989108479885,0.04889467631982011,0.470333939791393,0.18872524270724972,-0.44744032939745726,0.25860579765175157,0.14694059440681895,-0.007719656878766391,0.24961796361698244,0.058454233403841024,0.24483436730488403,0.07001792438627585
0.074,-0.445376767072028,0.032510360098023,0.4773208434264171,0.20893384426603423,-0.46334142083093965,0.25340078784738246,0.15282122997266911,0.006457531462626973,0.26067948832735655,0.07963217540121816,0.26123646838226217,0.08166391487848693
0.076,-0.46556119955402475,0.0012480535338727627,0.466516153284635,0.23400574280487085,-0.4680664694996658,0.23133608820808063,0.15019385562422033,0.015207846905495067,0.2708084216064736,0.0998178487567918,0.2773371718496197,0.09262877102355083
0.078,-0.49032907573221335,-0.023094139404950646,0.46705243756461,0.25737488064776864,-0.4804102429845976,0.2190991442085285,0.14381739131943105,0.01525568269219157,0.27494866589854067,0.1085783865413127,0.28711290596120376,0.10140852348597448
0.08,-0.5308913210158351,-0.022048641010082096,0.5085667240582037,0.27672164785840514,-0.5211859236343612,0.2414136201823492,0.15248119535380578,0.020865571995754853,0.27792327135129863,0.1084286526999097,0.2943767645074627,0.11308758440390108
0.082,-0.552918150079527,0.0010142837956900414,0.5535597742419781,0.2768254353211521,-0.5542222302567429,0.27684340353605813,0.1705445391657961,0.031287040612028916,0.2783190209763108,0.10222523777363061,0.2968292524059291,0.1214560295271221
0.084,-0.5103894440876906,0.030209099831336732,0.5403460885503383,0.24171706924852926,-0.5255327417828017,0.28501203854358104,0.17198628530706112,0.029922630587882672,0.27243930522675464,0.09368885522349002,0.29125020854837874,0.11688074309709495
0.086,-0.42259699854113764,0.05496028724500902,0.4775379387728797,0.1855913613500062,-0.44960122796690555,0.264977771034848,0.15201001059011157,0.015270875598545628,0.2656374972820732,0.09051458943170466,0.284475937494634,0.10417499088776545
0.088,-0.3727723821257774,0.0690904499693908,0.4418645656357939,0.15319816332706299,-0.4069466885386525,0.2534864884543141,0.1351335776112669,0.006224374728258787,0.2658467043268809,0.09333088656343293,0.28287008147544346,0.09529298673951558
0.09,-0.41267026748767627,0.0680318631259897,0.48046600346009233,0.1731552356866885,-0.44698870323681794,0.27235417619504587,0.14033504182135298,0.015244227306809665,0.27239112762774226,0.09217706958419508,0.28101903688873436,0.0917410786604511
0.092,-0.5004114981587967,0.05761134445143051,0.5576951858617806,0.22185492749968108,-0.5305309561846017,0.3058434925877441,0.16080238688110848,0.03544816174701271,0.28024208131899214,0.08485671541605674,0.2750378701302838,0.08971085127606354
0.094,-0.5558558457389225,0.05119193244390067,0.607064557011836,0.2525309505162053,-0.5836123172114377,0.3271442253214685,0.17822431990682325,0.05250033820436371,0.28777240593025233,0.08498283417404864,0.2745491743798623,0.09315753599036881
0.096,-0.5470448607432542,0.05116368627415433,0.5986499846160462,0.24824781470094112,-0.5748793799327953,0.3233117497775808,0.18063297964890423,0.05599256747886521,0.29262988528426226,0.09933967908767431,0.2858613394001894,0.10484788198058453
0.098,-0.5007222685435319,0.04541083305485704,0.5465391556304887,0.22874031614568693,-0.525230730382337,0.29555019199342525,0.16865978353804553,0.044789686158471974,0.2889682205003767,0.11220857117686041,0.29615006212098083,0.11370527236533096
0.1,-0.4605509498712254,0.028190385770845813,0.4886640253072242,0.21829091471302747,-0.4762813053816436,0.2589643411028123,0.15617890500768544,0.0319420170939813,0.2790104625618423,0.10844381826464437,0.29208470831265443,0.10892340015714153
0.102,-0.4516431684151208,0.014360771176481846,0.4654779286592127,0.22104979227452898,-0.4605853186747886,0.2404461916416012,0.15904394214960588,0.03590742620319864,0.2774689488308173,0.09883707820324289,0.28259234931544114,0.09848988557818722
0.104,-0.46674694388256244,0.022540239511944758,0.4887327826859136,0.22374072646644158,-0.4793880268567402,0.2555794968429759,0.17623496473806777,0.059210491684404884,0.29397946961982546,0.10617818745021926,0.2868214183856777,0.09917428058005738
0.106,-0.48204951594435913,0.04948413777375103,0.5313199102561441,0.21693987512934595,-0.5073222239657544,0.28995986610674657,0.1911978718661926,0.08612714935954074,0.3215491285281349,0.13608156384233783,0.30874700708684566,0.11536068937788627
0.108,-0.4835572369573967,0.07194511497429257,0.5556196481775654,0.2062254020692168,-0.519938809826304,0.31328898382298853,0.19320469564103512,0.10373708175827095,0.3467958984286246,0.1710453341906907,0.3331372063093126,0.13533906873785342
0.11,-0.47269613470940747,0.07069529542508916,0.5435585652732776,0.20169976241549475,-0.5092585999334363,0.3065360926912178,0.18679324991214796,0.1138246136496815,0.35994972315725937,0.18616013752670788,0.34054487474418343,0.14315459251951826
0.112,-0.46009560481840844,0.044999976043735034,0.50511915785498,0.20837730221808096,-0.4841797595431878,0.2740972683068332,0.18143653128451373,0.12379266472516721,0.3564428231944276,0.17059016616767358,0.325579147093276,0.1335104894466706
0.114,-0.46189398936362047,0.00831029093024215,0.47014952069617333,0.22774855012848164,-0.4668705791052736,0.237683835691645,0.18113741982422174,0.13464407184189942,0.3410854383237122,0.14044063281678773,0.3047948211966023,0.1189890895427893
0.116,-0.4874103883976931,-0.020105641135959546,0.4673647164457961,0.25510017559826603,-0.4774270533275292,0.2215594759353244,0.18462466018869528,0.14146992756710866,0.33006787395510645,0.1279448204918244,0.3044433272517991,0.12139426273170718
0.118,-0.516964041948867,-0.019847657452588843,0.49733035025759725,0.26981197851211125,-0.507448521063478,0.23665604512884475,0.18978212927858887,0.1434083334281013,0.34016950498122317,0.1537074419561685,0.3386082445170865,0.15358877009317662
0.12,-0.5058977206319012,0.019585534525752346,0.5255918453420325,0.24382697519632782,-0.5170467019685544,0.27106561882293095,0.19341133483522202,0.14722225256827703,0.3743249908486422,0.21141733823609754,0.4005129544735275,0.20984800049510013
0.122,-0.4336055040079595,0.08186832795136204,0.5151825843226664,0.1756366616237694,-0.47648482597399877,0.2974404381691589,0.18797552973303144,0.1583365002712611,0.42078332791805484,0.2793636762695846,0.4728725256102857,0.27377097648861165
0.124,-0.3329593746681112,0.12740411072994462,0.4597389904676235,0.10252001025750439,-0.3985684056972589,0.29219701947328813,0.16412237867513774,0.17097326746749258,0.4636802313681019,0.3402555080416788,0.5416021326535474,0.3323259699456501
0.126,-0.2524688193607677,0.1283470688548256,0.3802616978254298,0.06291878865889694,-0.31819244124100726,0.25242003343453334,0.12152854052887196,0.17117153336751145,0.49169696667287643,0.3881724875134593,0.600371321624847,0.38173820503192946
0.128,-0.21788617560934728,0.0987341057835457,0.3164724423715425,0.06189512349584175,-0.26870259308447403,0.20600001561777295,0.07721926761652022,0.15296998091278582,0.502873358867577,0.42440567690944053,0.6495106368777807,0.42608205261944504
0.13,-0.23214450407701873,0.07898313005521633,0.3114017426376021,0.079609541159615,-0.2736042638632141,0.19464720518428558,0.05236234861642991,0.12646541294448363,0.5034195579205988,0.4503163031939548,0.690904824153952,0.4695525826605861
0.132,-0.26972266871051603,0.09182393908270162,0.3620540282731172,0.09156858821801668,-0.31832646617372357,0.2270355678124591,0.045153755155388525,0.10179987867682394,0.49706389327960226,0.4625922091675483,0.7195732664896828,0.5051222560423045
0.134,-0.2825996797682798,0.1250516404009755,0.4082109016507833,0.08046441162132505,-0.3479595886847174,0.2662396011586115,0.030341899244419247,0.07199890804092961,0.4783757500433014,0.4568823872456777,0.7250139554741322,0.5170464042855322
0.136,-0.24318071930145524,0.15491191133345325,0.39859503944897534,0.04514765597343599,-0.3227408839780794,0.27562747136577204,-0.010341390016652125,0.021407067839286004,0.43904213066648673,0.43092710372593923,0.7012744623970381,0.49595953674770793
0.138,-0.16562056129429925,0.16847376705610256,0.33444966130056847,-0.0007696914479113171,-0.2507871944205983,0.25053928375466744,-0.07083768734578035,-0.05324759540864476,0.37598914705736836,0.37987953487649995,0.648809887098506,0.4434048744662469
0.14,-0.08795679352173726,0.15894280870241762,0.24701108733388508,-0.03527189717786772,-0.1676286057855641,0.20277701399780423,-0.13154836677736975,-0.13485353492551755,0.2971722936252228,0.3026753785431277,0.5737834344051506,0.36733590803388505
0.142,-0.053350481634701394,0.11802653078066185,0.17119068131966142,-0.03257070315712804,-0.11295191090141836,0.14423937438712847,-0.17411904405236336,-0.19566633967207198,0.22586442518837965,0.21903598739373736,0.49307601631806264,0.2821217394168163
0.144,-0.08337760426012153,0.04755783845806024,0.13051161845569537,0.017790042555759257,-0.1089047929212739,0.08750010263628574,-0.188465000106234,-0.2162123145116604,0.18828946370158225,0.1587730584036427,0.42622150325010616,0.20379664205314976
0.146,-0.14594331789612391,-0.028086665108034804,0.11741034196725422,0.08775065867447517,-0.13458336494852222,0.04237009112606068,-0.1760943709192781,-0.1996958886507565,0.18613919939089427,0.12524634127719256,0.3733986691593593,0.13612838887668285
0.148,-0.1778284206745175,-0.0770469230483175,0.10056439812450522,0.12915945541566234,-0.1422279843543401,0.009942831891267604,-0.14870844757389395,-0.16779577169875032,0.1919432027940814,0.09043484720635221,0.3140554399437666,0.06766498670350837
0.15,-0.1636792446091118,-0.0939774762480477,0.06975877632719597,0.1310410614376367,-0.11946753684941658,-0.012879099167207237,-0.12001764841396544,-0.14267601354390402,0.17944315829267593,0.0337139579402045,0.23451637319671031,-0.010696739262017222
0.152,-0.16300168050184194,-0.105741162270509,0.057400691901175624,0.13649717179710433,-0.1127346808484754,-0.024438725879598323,-0.09576104287331148,-0.13519655678152215,0.14736518325941517,-0.03390791279794276,0.14671497647541318,-0.08882108241134007
0.154,-0.2276033979549158,-0.13182515907883718,0.09582180041984677,0.18145373855542085,-0.16399313312764355,-0.01879248910417713,-0.0705286039382336,-0.14435794851422828,0.10930026288408826,-0.09163841000240666,0.07211182327861124,-0.14630983240530243
0.156,-0.3230799358743744,-0.1548222468859761,0.16822717485142238,0.2404952610710927,-0.24733188869231823,0.005010279110051452,-0.034803228152464824,-0.1585360933901938,0.07427816371577764,-0.13755419872158042,0.015106041001687855,-0.17842729735715537
0.158,-0.3737721239766691,-0.14575061647641444,0.22812603098406903,0.2614890336330076,-0.3018133344054848,0.03942913024543597,0.014413738467709759,-0.1590908362093354,0.04595777791736328,-0.18186977265269366,-0.0352311246434358,-0.20086056169219824
0.16,-0.3606839545137221,-0.10578155990704831,0.2553660848701947,0.23492310912035722,-0.30825651773522184,0.07397330488740861,0.06884096800290639,-0.13379251240272116,0.0303467018024634,-0.2225518969941404,-0.08108597777926153,-0.2257321938315215
0.162,-0.3335832426950081,-0.06709066630989675,0.26727141143627947,0.20135053506308698,-0.30034692823146364,0.0999334791343078,0.11406882536112418,-0.09001479054680654,0.032554523328509916,-0.24459644563425373,-0.1089267705401941,-0.24593101477492804
0.164,-0.34226987158480715,-0.05924976995622991,0.28370930337690003,0.20113242116138375,-0.31290183168210123,0.11160459494934905,0.13947422724147415,-0.04818641454684479,0.04982717374420716,-0.24074911768936627,-0.10855072411518668,-0.248629161819229
0.166,-0.3875038350802536,-0.0874240815601742,0.30029919797383625,0.23798062238031684,-0.3442127701608754,0.10506648511969137,0.14276180592252408,-0.022003950075878274,0.07335370964183296,-0.22177469548165377,-0.08970554590073482,-0.23665911387290406
0.168,-0.43403797255736754,-0.13349468053488395,0.3003608168811279,0.2849035958125615,-0.3683233359810716,0.08203239383832836,0.13141721338310636,-0.006148888907032676,0.09815294712078522,-0.20203880036078398,-0.07147638142053733,-0.22526915203947692
0.17,-0.44844393368814633,-0.16003975031583126,0.2882175418973091,0.30577620657824756,-0.37015484322070663,0.06286726826377664,0.12614617271347828,0.023462040715033664,0.13385823389867388,-0.17721007208665893,-0.05461937014273207,-0.21506131663412353
0.172,-0.42924857629834984,-0.13376060097167108,0.29563035569826734,0.28318647204284425,-0.36413797326713154,0.0792071535915724,0.15065762662291815,0.09157779402817735,0.19668648726175,-0.12937347937992352,-0.01989826111164502,-0.18577277527983913
0.174,-0.42174978631380805,-0.07316407584851214,0.34914972450160564,0.2493224244443187,-0.38635989650599556,0.1353949972500212,0.2059982290785304,0.19398733392741097,0.2821010962493586,-0.059481035744912446,0.03841355039129251,-0.12825124547215505
0.176,-0.477243714302591,-0.04316222419968035,0.434909948567791,0.2621259523419035,-0.4565500643497857,0.19296465706800128,0.2655144437579368,0.2941053905751588,0.35867978709090204,0.0038047646002201526,0.0964394838059693,-0.06536177163615207
0.178,-0.5752698674377563,-0.07569236037470096,0.5003570378820903,0.3270604412395841,-0.5387590395271434,0.2098027530217701,0.3044793537504246,0.35707823747401823,0.39782170712946285,0.035937112925508365,0.1279677690550527,-0.028304359902510626
0.18,-0.6344582120784594,-0.12864015953940788,0.5063303648729703,0.38256256093940444,-0.5723100419394003,0.18675878621218894,0.32648046690540367,0.380524062735969,0.4005616201637269,0.04162277897955343,0.13294633602820796,-0.02335582245716619
0.182,-0.6185174631749778,-0.14156688754263042,0.4771965462638084,0.3807811857032751,-0.5505481107696574,0.16589794360920668,0.35471210509205264,0.3903729480077315,0.3922828736295845,0.04232388437418426,0.13113258849158418,-0.03142042586943587
0.184,-0.5788740413363329,-0.10304262080171349,0.47589999968429386,0.3419836662324956,-0.5302072490915879,0.18462697894325816,0.4037109885279866,0.4139330916961704,0.39776134693308673,0.05206921878081561,0.13854158075866257,-0.03219662936127491
0.186,-0.5754355132084304,-0.04760650122890285,0.5277995969750108,0.31297069475280764,-0.5537872710699805,0.23843469417746005,0.46584413886264037,0.45838591346728674,0.42346924522306667,0.07226148489543816,0.1578696437662495,-0.0194546052041335
0.188,-0.6008408552450104,-0.009352330458708856,0.591461557316714,0.3064960007340394,-0.5972027548419967,0.2894717712540541,0.5216626445855702,0.5089918980641911,0.45797606308970085,0.09855199161276945,0.1829288749803149,0.0010072040254032043
0.19,-0.6142160525715757,0.0023429991260941977,0.6166757472557381,0.3069420669654857,-0.6157295695510923,0.30823890464438947,0.5577977499657046,0.5454034067721932,0.4844668945186705,0.12444996843626821,0.20505979156771026,0.020360139003734817
0.192,-0.6150088415341982,-0.004312829556725705,0.6110404358069651,0.31060986225629117,-0.6136030702491263,0.3028719298122366,0.575910889265784,0.5603767801727354,0.4946633906134042,0.14403526500894473,0.22040635365649755,0.03618040633847643
0.194,-0.6320420682790384,-0.01814571273033769,0.6143351006247747,0.3263622763059583,-0.6247212525832457,0.2983892168873644,0.5850558250798253,0.5583863107306346,0.4906108305233906,0.15313379015953707,0.23012671063105744,0.05065705672889162
0.196,-0.6589144414780014,-0.03473689650893975,0.6244318853387941,0.3480477134053287,-0.6435257315044995,0.29530502806907594,0.5883933048566173,0.5406062217777408,0.475500123345975,0.14803274382216133,0.23172891365491222,0.05916091462696577
0.198,-0.6545490578450206,-0.05364755136403549,0.6008665768187937,0.35477663678267757,-0.6287819234637793,0.27347650851888594,0.5850256873084525,0.5058101198237149,0.4516803202216492,0.12947664104460316,0.2207695617490299,0.053223429685696474
0.2,-0.6093303834200361,-0.07229000864390556,0.5368908074631653,0.34127673410662235,-0.5733895094114049,0.2311210207067701,0.5806911289912119,0.46334096881452913,0.42518898920901776,0.10594290029539256,0.20226279014343365,0.035991772412600924
0.202,-0.5787090159915407,-0.09112178712392274,0.4875272455517463,0.3358571317251011,-0.5335789521779265,0.19604714608703253,0.5861003175494773,0.43192040368524587,0.40395646286838904,0.08766432916978709,0.18991406189935628,0.023578087428089114
0.204,-0.6230849038301628,-0.11197117545537325,0.5111634543817584,0.36891001649215155,-0.5682569379587838,0.1971615387983286,0.6049642820443493,0.42470870908396946,0.3932792428666664,0.07962232216573371,0.19247573883467464,0.029022429746227776
0.206,-0.7108824681969069,-0.12244640714847077,0.5884924334192324,0.4177761301127797,-0.6511319277038168,0.2312125894244814,0.6275519696518134,0.4370409604663484,0.3920804939852941,0.07802387669405586,0.20310824749869563,0.04673922301979185
0.208,-0.7350586934497784,-0.10563786045726974,0.6294210105723433,0.42086720243121334,-0.6837502917068048,0.26106239793255537,0.6383373040702882,0.4482952110663084,0.39039539059261286,0.07218810803431175,0.2048302893065787,0.056034367600919524
0.21,-0.6587974005568438,-0.07512983388517958,0.5836370387413213,0.3674301505553079,-0.6228511547262053,0.2540575656145685,0.6320696762329756,0.439836121112462,0.3772422694542006,0.057439743682502716,0.19121816349217022,0.04596343317687783
0.212,-0.5735503324951874,-0.06772413052263254,0.5058115255747285,0.32151430334913383,-0.5412665201345891,0.21887582783282813,0.6186589897627625,0.40997905452421685,0.35289302115484894,0.04348374655548966,0.1760392519009515,0.03085033923836055
0.214,-0.5704836972016327,-0.08716734648128252,0.4833259814291096,0.3297118092224858,-0.5282002638267612,0.19747562337031682,0.6097095562774522,0.3688987705415147,0.32836915388289906,0.04313433484956868,0.17714241506658285,0.0338121848036214
0.216,-0.6301334335494381,-0.09112150962347475,0.5390245264509272,0.3610998256127524,-0.585602678738787,0.22280315816793117,0.6047055616838451,0.32424468728182365,0.3136195358509224,0.05848794016901447,0.19836515429035875,0.061796259625817515
0.218,-0.6733467911063986,-0.05257533987091632,0.6207722152417144,0.3635692608754476,-0.6480115298760879,0.2826906755398668,0.5905466817839122,0.2723106608020129,0.3038373292603712,0.07641300342554697,0.22484005090356837,0.09744759097103056
0.22,-0.6609027693803922,-0.00107430504545469,0.6598438923102521,0.3325956338455594,-0.6616114711587398,0.32819715411743733,0.5528184725403413,0.2025691870672997,0.2781269551465363,0.07186063590903093,0.22930095486339558,0.11025030061097993
0.222,-0.6178833976474984,0.018181210513252312,0.6361923969845154,0.3024500024742023,-0.6287629052283872,0.3264167165294714,0.4904094031320325,0.11570032159122005,0.22364108010713302,0.029141556660365147,0.19583278607813212,0.0840441317436342
0.224,-0.5880347025294448,0.0017620002545780773,0.5901259907301596,0.295926098304441,-0.5907753267332251,0.29513989170195554,0.41823356154580676,0.03226223074753835,0.1593382571842863,-0.03228478477112795,0.14473907493977795,0.038219466355069946
0.226,-0.5814206452576937,-0.0160641749882402,0.5657818928582972,0.3009340016044118,-0.5744691825261591,0.27344810777987344,0.35332520319115174,-0.02500657465850263,0.12085279080476673,-0.06913479488424393,0.11865782356895879,0.01176893825207267
0.228,-0.5705504053053287,-0.011212085236388693,0.5596161261834797,0.29206668139973374,-0.5652222555741651,0.27232767444426353,0.3005934292367184,-0.052637699813750716,0.12266487659857783,-0.058985579076746404,0.13706995802424146,0.023486486367526278
0.23,-0.53745095415102,0.004582419091857383,0.5421156940531411,0.26666997491190414,-0.5401664207015717,0.271650350348719,0.2530006406406122,-0.0639784022012583,0.14684587978308705,-0.02092272530289929,0.17738833287559166,0.056477194569155405
0.232,-0.5051703494564125,0.005945526010556059,0.5111653442891138,0.24953035880863664,-0.509289337351727,0.25727730476854055,0.20409369173949335,-0.07128809890789743,0.1674836485847557,0.012059267113987956,0.20581914464303772,0.08296841589435625
0.234,-0.5045609798683336,-0.009357927657956311,0.4952353765677462,0.2573994704039474,-0.5013194808649172,0.24164928500922184,0.15903637380103106,-0.077171126790105,0.17510582331309657,0.02688229172727222,0.213089167929118,0.09387678032519879
0.236,-0.5313337967680022,-0.01886634606021414,0.5123471423730708,0.27625570119059284,-0.5232783721132314,0.24493437330180445,0.13016511095211974,-0.07997632249869471,0.17581101704568378,0.030845963804744816,0.21236186338446106,0.09850680436360013
0.238,-0.5596601073215802,-0.010118529319637862,0.5493388278264462,0.28621311657079296,-0.55637242379977,0.2674438788150626,0.12156874757747055,-0.08042164006187831,0.17625377482144394,0.03212323422464267,0.2148732928387772,0.10452065159103766
0.24,-0.5772251517932164,0.0014795527401548186,0.5787177671470061,0.2889904585074312,-0.58058960534965,0.2882507591655279,0.12409990547152028,-0.08144992335452228,0.1762681607539167,0.03168193655113614,0.21960663714572037,0.10935565399962487
0.242,-0.5867580063138862,-0.004721031867802678,0.5824171716776171,0.296825828479525,-0.5874977144258923,0.28770146588620793,0.1265355306452662,-0.08508659927099327,0.17298569960632434,0.028920028449299487,0.22072674076313745,0.10845760322999269
0.244,-0.5904946844156326,-0.0292476739441662,0.561741768130509,0.31100895253551736,-0.5784308672407495,0.2655969759711991,0.125960820710382,-0.0912150308451976,0.16651527964009988,0.02489560600654809,0.21561143355681284,0.10249217166679853
0.246,-0.5866819454480892,-0.05560250122733482,0.5312009772091624,0.32194186371336103,-0.5601819829163727,0.23713462742716812,0.12553047939878423,-0.09790882588135551,0.15959292064061006,0.01898609917675697,0.20525164632932558,0.09393573346619453
0.248,-0.5726037638209763,-0.06982816852954396,0.5022495266315535,0.3213817392734366,-0.538084903142592,0.21493963183568518,0.12447378575569394,-0.10421990773290522,0.15285019290761653,0.007610162052807221,0.19035074130794935,0.08137070008570722
0.25,-0.5522766207684693,-0.07185973285249302,0.4794904277674669,0.31203651026083973,-0.5167901491097284,0.20168347481732615,0.11700297014467267,-0.1113796082698797,0.14642498747208893,-0.007631187341456831,0.17407834846344789,0.0658479046683252
0.252,-0.5447252051949668,-0.07082449596636518,0.4731892398462559,0.30830346431279587,-0.5101555767132081,0.19875093917267897,0.10565948817837839,-0.11708624312828686,0.1460943525219968,-0.014336864514880665,0.16770859189867232,0.06026817870540365
0.254,-0.5651829224698883,-0.07448623955846424,0.49066475970619877,0.3210324362879903,-0.5288468349579646,0.20640170820783119,0.10292679595589717,-0.11585444091653253,0.15582159223352005,-0.004707182649742814,0.1784520630140069,0.07513123028362821
0.256,-0.5972229957586276,-0.08384635834769864,0.5139374079861836,0.34179281754282864,-0.5560854150493107,0.2146329096093462,0.11116196213397216,-0.10955593019863939,0.16668162503505315,0.009604729342650054,0.19391644880079134,0.09755566877943243
0.258,-0.6141529034723607,-0.09594853752735627,0.5188295745704121,0.3558710089727439,-0.5669095659751692,0.2118509521924589,0.11716678439397536,-0.10646821173839566,0.16743270136256005,0.012865337355794138,0.19609433491229633,0.10469270306413181
0.26,-0.6206083320002954,-0.1100736080120351,0.5107926102346552,0.36592003125748723,-0.5662930529833259,0.20069419624970272,0.11285912028436783,-0.10910039246489185,0.15901562709440595,0.004021340965524887,0.18401645851187773,0.09254255972829693
0.262,-0.638711413085139,-0.12648283520645942,0.5122395905003155,0.3835943521323226,-0.5763504565540247,0.19253500708024593,0.10557610702852048,-0.11365339633756705,0.14827472311051434,-0.00995690176496931,0.16921871948248676,0.07556683493004371
0.264,-0.6656045403055104,-0.14014123324374242,0.525752906132792,0.40452425040953555,-0.5967377994733708,0.19172365642352504,0.1035519033219934,-0.11888706446926454,0.1378408298431916,-0.02455468361221423,0.15877643360728533,0.06540039588736932
0.266,-0.6738666785638142,-0.1451932613048134,0.5295329841130189,0.411100545895106,-0.6026717970854507,0.19070522612957652,0.10171582659735856,-0.1280296262938998,0.12725968185162995,-0.03695170103214424,0.15123094826319125,0.06086585590939302
0.268,-0.6517979033640419,-0.1461418432887126,0.506752106864991,0.3995136215767474,-0.5801034886492071,0.17898273670936532,0.08831171057041677,-0.1433554474452929,0.11602253929777959,-0.04578173082548691,0.14261661548071072,0.05535680166473805
0.27,-0.6296677168566517,-0.15478577186407294,0.4755894218825257,0.39176669062701347,-0.553420278760818,0.1596553612648461,0.06390506692153651,-0.16108099573971088,0.10506071979705604,-0.051860551953970845,0.1329179546979166,0.04786674761784711
0.272,-0.6481239023168407,-0.17201465075645436,0.47617063007409943,0.4095647870421288,-0.5627611622769471,0.15196145773261666,0.046420082441872325,-0.17232746343493016,0.09853380414618791,-0.054659680792908893,0.12772336041330873,0.04484112539121361
0.274,-0.6971919196484053,-0.17912740974732874,0.5177891254397,0.4384937853990588,-0.6077129228615233,0.16930844328041977,0.05193368843685557,-0.1708913410574818,0.10199612181125578,-0.050646132069160923,0.1328655750512599,0.05254906664391327
0.276,-0.7197195713541091,-0.15661068984318038,0.5629389441339587,0.4395659413516487,-0.6414495298124755,0.202549139943899,0.07512191932419589,-0.15905459199273464,0.11712736899672913,-0.03746423625948584,0.1477954207784326,0.06999447747133664
0.278,-0.6860758329632688,-0.11264649966507315,0.5735094257857628,0.401496039261247,-0.6306319135684721,0.22921220252737742,0.09424310644484579,-0.14561119931460645,0.137239531630393,-0.019543268779458122,0.16439278253627226,0.08818659651156086
0.28,-0.6302679164627042,-0.08437505486368492,0.546141719263601,0.35950236832741855,-0.5902686061443049,0.22957468735508765,0.0920849612045706,-0.14138736701942525,0.14785887347972054,-0.009089680107813886,0.17107545838735244,0.0944148623511294
0.282,-0.6064757250039987,-0.10440732920189098,0.5024206474432545,0.35709576042470537,-0.5571081177436645,0.1976808862417951,0.06941611416037219,-0.15370933864443148,0.1373444761590267,-0.0175283531316261,0.1607989049187253,0.08144449748583739
0.284,-0.6392588084821631,-0.16950437161902374,0.470125298985289,0.40566851364801587,-0.5566038135441108,0.14854826462902054,0.04119702342052998,-0.1794746725553676,0.10969413845869055,-0.04304719458933107,0.13778679142946806,0.05548905364067382
0.286,-0.7147234015202851,-0.24624280249194508,0.4686760676055707,0.48195693131448986,-0.5921811536468546,0.10900123771946431,0.021931692775054003,-0.2052066348983063,0.08222095598343476,-0.0700646212340878,0.1145069207381478,0.03108135126063434
0.288,-0.7930154340146347,-0.2996946824335438,0.49317376227194026,0.547951037643806,-0.6428439974585248,0.09456494457442005,0.014799407309324135,-0.21796381758177513,0.06962440777326653,-0.08294365249404623,0.10179573914927771,0.018143731221743953
0.29,-0.8238551874808581,-0.3101964559525273,0.5132110764812764,0.5682140153476216,-0.6687223498048162,0.09949296387682055,0.012970521957803488,-0.2175004098820924,0.07270812608979403,-0.07869676664126803,0.10218468424052299,0.017248682868765092
0.292,-0.7781647083203153,-0.27620869141758136,0.5014769420197469,0.5280599762442345,-0.6406935470202332,0.11029304592182558,0.009493741482907015,-0.2143815523746188,0.08200004763805484,-0.06602462645786479,0.11111524441937387,0.025105411894892765
0.294,-0.6908732675234321,-0.21862425311139444,0.47205081781277297,0.4558518097465059,-0.5824476758144983,0.12383476489817635,0.006785559779675726,-0.21356982771571167,0.09052598321638407,-0.05324265861619097,0.12430338401014766,0.04081623038250264
0.296,-0.6488569036155445,-0.1763900353582066,0.47267147247863567,0.41377245338947655,-0.5617487603375944,0.14530056833243113,0.013976061266766824,-0.20824717457770708,0.09940019690677619,-0.041335288306575145,0.14098156132979262,0.06383314887669839
0.298,-0.6957419867801208,-0.17774977386845883,0.5184472985421765,0.43716969496983255,-0.6085042446186758,0.1682662743549652,0.03083709468357012,-0.19615757598191216,0.1083656087621038,-0.03160653203472837,0.15663348867066532,0.08561020502741848
0.3,-0.7704856875285419,-0.2127497470220407,0.558066431363212,0.49120400314420337,-0.6660780839640132,0.17133491336899095,0.03987749833858812,-0.19121189064440644,0.10756222411077182,-0.03324216398511525,0.15882366459672723,0.09005858580351771
0.302,-0.7857907716842816,-0.2464949940482783,0.5391642220899012,0.5155878238346195,-0.6642031282941955,0.14505923403280707,0.02485216108340363,-0.206883246519466,0.0887338887716896,-0.052962898709402975,0.14015469400024932,0.06969651917999749
0.304,-0.7397259615123915,-0.257011338674341,0.48221654128912006,0.498207255103813,-0.6124599020568079,0.1108629159903071,-0.005138921933607193,-0.234132137791136,0.061602462676805574,-0.07963091041404148,0.11321812989412629,0.03904703919338878
0.306,-0.700562512337077,-0.25032415152942455,0.4498454084692795,0.4755979273754867,-0.5766268886647303,0.0978138925684261,-0.02458885829524444,-0.25110425119810487,0.045525889727423385,-0.09288917566700448,0.10009290347095041,0.021893458827142533
0.308,-0.707862505473625,-0.24649547719633547,0.4613605190650915,0.4774125640075184,-0.5861430851017371,0.10563277503805713,-0.025203654669436065,-0.25333199315583593,0.0446789514219764,-0.08838512718882766,0.10569553684651138,0.024002834853170136
0.31,-0.7396057872849665,-0.2595728240503224,0.48023513555021036,0.5000365582073709,-0.6115444413382575,0.10841648479276596,-0.022936064150249104,-0.25652654409239073,0.046165763621301,-0.08028409401961158,0.11523007920095704,0.030274472963666768
0.312,-0.7694694768123058,-0.28589024398019197,0.4836868444764763,0.5287323900805995,-0.6279242036679792,0.09650194783407745,-0.029082215487064206,-0.267571931176712,0.04390735817029274,-0.07698396608570045,0.12026036166729305,0.03169617619261547
0.314,-0.8060763345897167,-0.30671798489758295,0.4993249934741656,0.5580023601354019,-0.6533235875126271,0.09381649263924413,-0.03365346737314129,-0.27210209780780886,0.047904548824010365,-0.06993197133029734,0.13068242502218616,0.039238823329119474
0.316,-0.849897806796403,-0.30413959923033956,0.5458265892043481,0.5783930759790719,-0.6978028912295438,0.11924359566704791,-0.026905343381301756,-0.26055869059911374,0.06223074504224097,-0.054129810719149324,0.15182251417343717,0.06005051103585134
0.318,-0.8587827326047367,-0.27987285941705975,0.5793578584796265,0.5697525865972232,-0.7188168501153488,0.14952568291810753,-0.021970419547300772,-0.2505972191526123,0.06855452660954951,-0.045682036137807164,0.16553381371292036,0.07615880119853222
0.32,-0.8105270619857525,-0.2575768396407529,0.5537631994348204,0.5337828971313157,-0.6820624913718751,0.14866670540330668,-0.037549671388391236,-0.26442925829008707,0.048495036813038676,-0.06192617752691535,0.15301429686485452,0.06787648383283623
0.322,-0.758134519403626,-0.2599548511927391,0.4990145770778105,0.5090703749567501,-0.6286739101307274,0.1197400050526757,-0.06762637691520938,-0.2945701745104103,0.012476466106615876,-0.09310841426152407,0.12537429108671302,0.04497220415408193
0.324,-0.7620439600646816,-0.2850732411958221,0.4775177971652414,0.5245225701043514,-0.6201272550673085,0.09532256944504572,-0.08875149125540219,-0.31407607302689333,-0.012872600162545761,-0.11320640120471945,0.11001814335594293,0.03205140337455091
0.326,-0.8040332714888629,-0.30945979216731145,0.49482779886344397,0.5583474116488111,-0.650449499375262,0.09088808420553295,-0.08981775092735732,-0.31232677552577315,-0.0176246885218633,-0.1121809011470773,0.11548400148752479,0.03579431397145108
0.328,-0.8255049750954674,-0.31430097466607076,0.511378457015275,0.5713541069117578,-0.6704585370913594,0.0966840365232528,-0.07938263630393545,-0.30217308936177895,-0.01318489470388971,-0.10154713123311572,0.12820531494830215,0.04484467381256359
0.33,-0.8226755547960573,-0.30723197489287674,0.5157368558813323,0.5659041734667868,-0.6719026136492728,0.10294278424212179,-0.07081829838778773,-0.29849862254797244,-0.012260515739040977,-0.09387307613691664,0.13638670230382513,0.050890877114404355
0.332,-0.8419950237522669,-0.3124982427325625,0.5298821017252467,0.5782249558016264,-0.6885892125230086,0.1079799628772931,-0.07193152933805509,-0.3046968254680316,-0.017949339310107483,-0.0912508033523997,0.14028390053833545,0.05471793802881484
0.334,-0.8918334062034406,-0.3360586630599037,0.556023794180349,0.6157382543329271,-0.7259445548524527,0.10959059241773314,-0.08395066486487189,-0.31602947947214943,-0.02701636412586619,-0.09083655747504937,0.1436476246239149,0.05823437600439729
0.336,-0.9195359281818175,-0.348956185726342,0.5705686144018489,0.6367640766106025,-0.7461639481857508,0.11027771388938436,-0.09871552615256086,-0.3228455843635599,-0.03125839397190383,-0.08726051550563206,0.15111814412276417,0.06439041900021421
0.338,-0.8822496625026202,-0.31930448912338266,0.5628099049329593,0.6030520256626017,-0.7227929235962571,0.12070639190026873,-0.10280156264119257,-0.3159267364533852,-0.023132680127301936,-0.07396576678537342,0.16811928489556743,0.07847109044106353
0.34,-0.8008560125156201,-0.2610200141116001,0.5397921837477628,0.5323858653443186,-0.6701140909117372,0.13783935158929483,-0.0970478604732737,-0.30146840395795016,-0.011617571222115342,-0.05645151720173564,0.18822967079382963,0.09584197581771048
0.342,-0.7331248551629155,-0.22776005036189828,0.5055573571228249,0.48153522328671733,-0.619124149967564,0.13713892539008493,-0.10110469401732623,-0.30036199274429093,-0.01844542629023471,-0.05400137733091784,0.1923991763150934,0.09886276984224812
0.344,-0.7145119569992379,-0.24860188928258625,0.46642333793849516,0.48315926077610793,-0.590459184739662,0.10701681189929411,-0.12563108271037884,-0.3198339249412993,-0.04628331695284889,-0.07335575677994786,0.17539305373285702,0.08021819138382964
0.346,-0.7369630712023287,-0.2948687766814425,0.4428492916280891,0.5183560330220333,-0.5900002877707957,0.07174902458048252,-0.1535158960023439,-0.3391968500358765,-0.06773404693120888,-0.09321278927236189,0.15889456188835496,0.05830685257465039
0.348,-0.7715618330752059,-0.32198934881832675,0.45022338926996874,0.5495518023190639,-0.6108812155585331,0.06153301480144609,-0.16155347215976182,-0.3363559148608139,-0.059443513804089305,-0.08929584796970695,0.16545802752111913,0.05679181114201247
0.35,-0.8034823352534701,-0.32119840271025346,0.48249807693076696,0.5645298237461149,-0.6427961168228357,0.07830677014209457,-0.1484035527454712,-0.31492133364150543,-0.031124621475182582,-0.06323009561975197,0.19259341222149617,0.07831092828961969
0.352,-0.8413438555041198,-0.3143914351153485,0.5267882882777657,0.5788223048178965,-0.6838110860115238,0.10489726876352679,-0.13022703904403682,-0.2932496279261208,-0.007701394509247532,-0.034370508853456945,0.22199476039176652,0.1072459997657415
0.354,-0.8755803071312497,-0.309307360368801,0.5660760131505055,0.5922910845309814,-0.720707091267862,0.12832830639172482,-0.11994217662506404,-0.2794276314764964,0.00228850346966167,-0.014432654844866295,0.24174933428044681,0.12881442314229657
0.356,-0.8569829717323983,-0.2857710940539673,0.5711965568735996,0.5709054900382512,-0.7142009780529284,0.14318268139097726,-0.11983101821691443,-0.2688543367014953,0.007216739528366656,-0.002072078399417839,0.2516937490877265,0.13835096403415287
0.358,-0.7693532869498186,-0.23835296633942119,0.5310971211477107,0.5037597978084855,-0.6506059865089175,0.14645378735426762,-0.12661464844286724,-0.2582175627047464,0.012156554483992593,0.0049987398138484195,0.25547588813250244,0.13812402088194337
0.36,-0.6874401907356985,-0.20414227866529266,0.48335278321975034,0.44617158615275887,-0.5861912499571492,0.13897367558937054,-0.13536464462719,-0.2503635170167664,0.012482959135540045,0.004695086813961794,0.2551750285551827,0.13210733533469246
0.362,-0.6970578464007102,-0.21908634913979455,0.4779234783291359,0.45877821838747646,-0.58876825821484,0.12820969477033264,-0.140557350137611,-0.24648289182290467,0.005453209296317064,-0.002435951143226982,0.25284351415978956,0.1246340369399334
0.364,-0.7847618735227292,-0.26990496634661654,0.5146833430528845,0.5283316018278718,-0.6510539051927938,0.12083744218813018,-0.14120586259652376,-0.2439270243464608,-0.004925360343105155,-0.011094591754556755,0.2499036730235689,0.11750787088165734
0.366,-0.8638084796545501,-0.3175072651982745,0.5459678308856263,0.5917200753683843,-0.7057153566186716,0.11254475032892722,-0.14402053783397337,-0.24290952332414203,-0.01582553709305638,-0.018952571259555604,0.24334600516320296,0.10646726056479798
0.368,-0.8863948922446283,-0.34305144169098895,0.5429410266027968,0.6153672494796482,-0.7151994263367307,0.09814867736032089,-0.15190157508000937,-0.2427943119642457,-0.02507892551790523,-0.025731467775111035,0.23253835121353528,0.09019323932598837
0.37,-0.875323268135813,-0.3466031462044385,0.5284774690931947,0.6111052214518936,-0.7028115175146884,0.08909701158476349,-0.1538456113467527,-0.23368085047732418,-0.024173336350593672,-0.0246816722550868,0.22851436257346366,0.0808354130136701
0.372,-0.8602677341896957,-0.32824237259418654,0.5320461785682451,0.5945029476664982,-0.6974800754088892,0.10057768104902537,-0.13948466897266187,-0.20844723805521723,-0.007621372317627266,-0.009962852790814422,0.24139784865260283,0.09050956529096697
0.374,-0.8389105452705649,-0.2938296871812396,0.5452173030059668,0.5672653009866394,-0.6932558997036585,0.12541566280636737,-0.11654908293770753,-0.17738247119468029,0.014737584527973227,0.009989670440309737,0.2627586436831883,0.11125441557109489
0.376,-0.8056562677592745,-0.26041671594437654,0.5453009512464565,0.5341660033818303,-0.6764237570855701,0.14264215590701035,-0.09930766075104333,-0.1537204339334249,0.029891080081708495,0.022616990047973327,0.27695341756411523,0.12451147041691976
0.378,-0.7773999420098947,-0.24219987414691743,0.5351581737698491,0.5102489804868923,-0.6575624071726477,0.14575321469235655,-0.08833855875992801,-0.13480774775852858,0.03845265265564601,0.028910479637578385,0.28222024259126893,0.12479645509257382
0.38,-0.7727611854631666,-0.24195501451256404,0.5307527670184029,0.5071411794347277,-0.6539056930559989,0.1422572444164041,-0.07687604966640088,-0.11387833644341154,0.04554394035358159,0.03539304683074954,0.2849030898636331,0.1186938200421235
0.382,-0.784647613447381,-0.2581714877902282,0.5264950323745194,0.521569860474636,-0.6582110849707673,0.13193034613227042,-0.0691164291197863,-0.09933875242255437,0.044589756124027366,0.036305985064940594,0.28229358065456434,0.106903231013832
0.384,-0.7886113834417184,-0.28822865133558945,0.500541592253823,0.5394396165854106,-0.6465313075877589,0.10539751285047995,-0.07643816854177224,-0.10587489553999473,0.02499436342698391,0.019727222239549924,0.265937865945325,0.0828981109515297
0.386,-0.7750486025401442,-0.32118007125723114,0.4542107598308504,0.5493245207055113,-0.6151110609795434,0.06692186917869926,-0.09673514305912093,-0.12994341231920387,-0.007682789018171066,-0.010512934957005051,0.23877943980438138,0.049356016223599905
0.388,-0.7684504724723911,-0.3378797548550811,0.43098538384721435,0.5539603222107689,-0.5993143947323553,0.0463472157289167,-0.10797607512075144,-0.1450840552067209,-0.029339379370890362,-0.029836335644220828,0.22077674766907027,0.02604661351373483
0.39,-0.8068423472894121,-0.3289804482622683,0.4781055725908421,0.5684495253538537,-0.6424884834881227,0.07285265788800334,-0.0894649686559412,-0.12763454477302036,-0.019746278540227615,-0.016514317752110236,0.2312981245494421,0.03266998600191685
0.392,-0.8882660422472547,-0.30836533220452145,0.5798737006409174,0.5990747489490004,-0.734969216050212,0.13345473093218185,-0.0489872652485748,-0.08598294983872096,0.012449491974813327,0.020760320230335486,0.26400775455384895,0.06268364411432777
0.394,-0.950645553250632,-0.29633655764160577,0.6541690361276071,0.6249412445466034,-0.803684265962903,0.17731593017462424,-0.018000873152039725,-0.053884629364865634,0.03459221996965876,0.049109024296480314,0.28976876014529146,0.08576608238328859
0.396,-0.9390142697983288,-0.29590702624271226,0.643047544718352,0.6198302290530057,-0.7923906688303087,0.17301815673498855,-0.015380703673161484,-0.051638325530284836,0.025404760103601803,0.04853004423941245,0.29033032791038005,0.08238594364893818
0.398,-0.8808458858107777,-0.2992916844274753,0.5815988257091752,0.5930327813150871,-0.7328117236105357,0.14112732081018067,-0.028401693014384433,-0.06714063056204915,-0.003407183750079832,0.03066350022612866,0.2763155794906649,0.0631149091185779
0.4,-0.8487164845433177,-0.3058545034737004,0.5429157610424332,0.5801355200799287,-0.6974936513474891,0.11825461246038903,-0.035005632789512686,-0.07882917837841275,-0.027089421665519756,0.017071812048032233,0.26631066082435306,0.04758973343239402
0.402,-0.8622513608808423,-0.31744529215205436,0.5448077912988618,0.5918931441892524,-0.7048619176307761,0.11282504474418985,-0.031027901337347726,-0.08153927508505289,-0.0372068058029729,0.013516380034174583,0.26343458958767413,0.03953963611011442
0.404,-0.8795973835689984,-0.3276438705570699,0.5519251375307482,0.6044600912674174,-0.7165100495504336,0.11107244761401934,-0.027295768477538604,-0.08328968316583098,-0.0420694734715999,0.012342266615684333,0.2602206361196695,0.031031555581251615
0.406,-0.872208104476213,-0.3291080945182423,0.5430855185716489,0.6005664725693813,-0.7079139360427807,0.10606770496974023,-0.03047536184141509,-0.0890039018746133,-0.0490040367575503,0.008282706035263909,0.2538237637240095,0.018936899901638604
0.408,-0.8570142898335386,-0.3221020446006614,0.5349207897121419,0.5894202425695726,-0.6962426300482711,0.10536413534597236,-0.03542570534718121,-0.0950459242970393,-0.05619056390219985,0.004528422256316739,0.24865088310444583,0.00865777689924862
0.41,-0.8575631558671148,-0.310004477004114,0.5475706615915937,0.5841843951412109,-0.7035057960132441,0.11733123254165134,-0.03310034332856044,-0.09594116440262973,-0.05839483731557199,0.00665541492634585,0.24929728629264816,0.006095257379897047
0.412,-0.871977552863421,-0.2978879415213094,0.5740906720791132,0.5857729312200459,-0.724823280256713,0.13678378881226066,-0.021992145194594363,-0.09232472795307155,-0.05647897598229898,0.013123297755008438,0.2539221981800338,0.009565471692542397
0.414,-0.8882738877151658,-0.2957435778623612,0.5925242781776878,0.5932246028021076,-0.7425942108971727,0.14798409196878318,-0.009343709232532985,-0.08934513365220255,-0.058300613570470575,0.015754266482648677,0.2556484805954465,0.011660539243488529
0.416,-0.9022914424116005,-0.3095816005194187,0.5927283218978635,0.6077359610052545,-0.7494942099629882,0.1418474911295555,-0.0021391043883119535,-0.09024014818530474,-0.069902645379752,0.009730936953087091,0.2500000932211396,0.008277524587178045
0.418,-0.9079176044956202,-0.3296999419800024,0.5783506173952778,0.6209377876485827,-0.7444191650321621,0.12426964282807038,-0.0020640482900353484,-0.09676353456936468,-0.08995502870295398,-0.0029084809388049628,0.23782831297126356,0.0009033559576220489
0.42,-0.8961293009007577,-0.33781126913010173,0.5586481217097424,0.6185741316772795,-0.7278210501212729,0.10974064596690877,-0.007390449612276551,-0.1096981568816045,-0.1115984295122944,-0.01694177394709207,0.22326858953224832,-0.008465294042923678
0.422,-0.8738940354184415,-0.3274911149391483,0.5468259069368647,0.6013614441828432,-0.7104064022949085,0.10914615389502882,-0.014741444588375641,-0.12484411499350236,-0.12785658363740354,-0.027150107240348224,0.2106653423316454,-0.01991425445510338
0.424,-0.8637156215749814,-0.31170641627395274,0.5522854101345605,0.5881025770945433,-0.7084195026303745,0.12043424152720457,-0.019620842484710774,-0.13491200310955417,-0.13706546860520455,-0.031368411307282594,0.2018985269148566,-0.03277023964157432
0.426,-0.8785676420389641,-0.30547981735379615,0.5731707100908555,0.5929841552551357,-0.7267989143739846,0.13404563561671146,-0.01717069532581959,-0.13546153971095162,-0.14126495122628757,-0.02995330168836886,0.19814861552110716,-0.041711387693047344
0.428,-0.9045192879034382,-0.30875973056413913,0.5958101696980285,0.6081313702430895,-0.7510301197289934,0.1429173229882997,-0.007732299746148391,-0.12923774511863664,-0.14314689702378314,-0.02478342981341708,0.199186508283236,-0.04265125833959804
0.43,-0.9106761902617825,-0.31405099439182943,0.5966577583294506,0.613596582379648,-0.7542146196828328,0.13990264640040678,-0.002714387794411918,-0.12779600869279018,-0.14937812544201187,-0.02303694144780687,0.19688421747273566,-0.04413277879556454
0.432,-0.8866584060869053,-0.32021770314461445,0.5662979446628802,0.6038642707159134,-0.7271463697323595,0.12153943664965361,-0.011939872338225448,-0.13904996918839999,-0.16521752110873966,-0.031154381957095616,0.18300622682102932,-0.057801382248416855
0.434,-0.8663550991956256,-0.3300749370035695,0.5359018433132303,0.5983031822258974,-0.7021474399883385,0.10170970273354396,-0.02490106636935432,-0.15213043105746044,-0.1820311761951763,-0.041825317738123736,0.16614998902967992,-0.07649293723578938
0.436,-0.8846705784458722,-0.3422806873715647,0.5418130030949222,0.6144121872323177,-0.7142694345976143,0.09864869591685337,-0.023602205934965093,-0.15156755018493218,-0.18671292022027958,-0.042760779478263004,0.16200906594417785,-0.08280391103315765
0.438,-0.9218352817078203,-0.35191436224147904,0.5692239250609376,0.6392919585314403,-0.7463163353406413,0.10729680170027744,-0.01062249664083485,-0.1415060598838868,-0.18235278467998126,-0.03621173774794618,0.168942960232397,-0.07702140521095509
0.44,-0.9326389359995997,-0.3556863819498937,0.5763685658795543,0.6472234550972277,-0.755152232668356,0.10873511560463912,-0.0034844705904389112,-0.13682635490200779,-0.18260296883136098,-0.03360626448603608,0.17250835712309393,-0.07495548601927772
0.442,-0.9106690971304265,-0.35344748742370646,0.5570108842005287,0.6341192210436741,-0.7345635486878478,0.10015382698102436,-0.007888995593341216,-0.14044697148673393,-0.19138228387046913,-0.037670719232005254,0.16763131110992732,-0.08398006572746597
0.444,-0.8820601377183821,-0.3479600277590401,0.5342298331922447,0.6153405344582314,-0.7092064578566459,0.09167167492261548,-0.015662505352960453,-0.1466275951707938,-0.20266603151143728,-0.04365143118659452,0.16021882723950465,-0.09906995785663841
0.446,-0.8630755440862556,-0.3452573490678842,0.5179965846175901,0.6038043374317861,-0.692127028719221,0.08519735058846167,-0.020796504926505362,-0.1544193814009956,-0.21247237118015092,-0.04950859016985463,0.15504345761256674,-0.11428017705774147
0.448,-0.8608535953001597,-0.35079936590948063,0.5100573832421269,0.6064648096659012,-0.6874891852716892,0.07887373938615973,-0.022038083118593566,-0.1633904088015123,-0.2192659360643925,-0.053764738734465516,0.15397287290914136,-0.12469532641178857
0.45,-0.8854688160073617,-0.36432532553883984,0.5209301420628943,0.6270293679528972,-0.705307326206187,0.07795731372123149,-0.019488343574351023,-0.16843936340262775,-0.22122241050225896,-0.05329413273928763,0.1575413450903695,-0.1270111008267108
0.452,-0.9271644993252377,-0.3810986963575224,0.5456852457653879,0.6567739207532998,-0.7382437549942991,0.08214980616495937,-0.019524817626191446,-0.16974049681561854,-0.22232685574948216,-0.051755553598013246,0.16012362139884032,-0.12715866751293584
0.454,-0.9513057052627752,-0.3971231839561087,0.5537787708630814,0.6764471595251479,-0.754109212412343,0.07811416374994101,-0.03105753647599979,-0.175576363679306,-0.23161825877011127,-0.05853784531284691,0.1531279513162096,-0.13599870735952355
0.456,-0.9469925993495998,-0.4124560144066991,0.5343408364783665,0.6816904446039042,-0.7422413161277975,0.060414145114104464,-0.04904294135972698,-0.1872657218477045,-0.2489357834111542,-0.0729751350930135,0.1388848815422088,-0.15261316041784045
0.458,-0.9517122905008635,-0.42787978134208665,0.5240192448398135,0.6920064687503547,-0.7394356912389215,0.04712834661683809,-0.05362889785543133,-0.19162893813090195,-0.25984730561539976,-0.08054023666912294,0.13258158412633295,-0.1625954877709707
0.46,-0.9910700699064198,-0.43365542704898585,0.5579803319538762,0.7148205245776456,-0.7760626044834089,0.061064548257658134,-0.032791201991072966,-0.17596099289386186,-0.25132134297113357,-0.06980971324354152,0.14549712297240255,-0.15570536855229988
0.462,-1.0210445348547639,-0.4095480048866692,0.6121661269405605,0.7175326203834007,-0.8184720322135943,0.10041357801318511,0.0026871285253295676,-0.14521515220675116,-0.22749943022555055,-0.04601339910728284,0.17208326429551452,-0.13772216909104637
0.464,-0.985009499832965,-0.35623692432380977,0.6291024471398603,0.6722347013579303,-0.8094927150533118,0.1356979108083653,0.03050373453476174,-0.11930992873901552,-0.20684908700034696,-0.026051522231446134,0.19521392915122374,-0.12430262604575022
0.466,-0.91000020543306,-0.31767283941426055,0.5922178445405287,0.6149159020507644,-0.7536650982925831,0.13648070724606037,0.036085568725023616,-0.11525756824142316,-0.2065954434223277,-0.024754386109269538,0.19970686031284354,-0.1281018453828222
0.468,-0.8776314128030143,-0.3354776392656111,0.5420541740266956,0.6075858924295963,-0.7118068876555749,0.10255040103018977,0.021886409339694213,-0.1323500938430489,-0.22742771613052587,-0.042679206621050784,0.18412027627295668,-0.14904628985908824
0.47,-0.9087316369384358,-0.3886527729486221,0.520344224825846,0.6499804385561991,-0.715667664070821,0.06537491716549859,0.00421023147875769,-0.153610950757722,-0.25179218243427337,-0.06422672902464867,0.16336140810008054,-0.17347067265341157
0.472,-0.9452735946671871,-0.4212210280797103,0.5244492842121623,0.6846638748517526,-0.7353370866555395,0.05119569375468053,-0.0017795904695422343,-0.16326995110149486,-0.2627721951859997,-0.07412496319051244,0.1536229969154231,-0.18722480078672163
0.474,-0.942711124369971,-0.41948589858907276,0.5233351096136737,0.6825785119834595,-0.7330582854780472,0.05099758421482765,0.003541840405522697,-0.16253069442060766,-0.263412346814907,-0.07575008466316131,0.15350692394171275,-0.1911576630722733
0.476,-0.9254901975171155,-0.4206233787781697,0.5045694713019141,0.6749020013561553,-0.7149579101181345,0.04042589247913949,0.00855277673121887,-0.16480752582386607,-0.2700983783875342,-0.08412201905957753,0.14819249143215643,-0.19800405189246437
0.478,-0.9462153314910419,-0.45292602181765523,0.49268287521761595,0.7017783302359544,-0.7197533865795458,0.018469958772891273,0.00799617586374318,-0.17604529532569874,-0.28858169380377785,-0.10207274574739195,0.13244341685032635,-0.21329848871428644
0.48,-1.0151248137280093,-0.5003588920185292,0.5140424479238158,0.7596350085408545,-0.7654096014137358,0.006150083213774753,0.008403454194724989,-0.18715968777946113,-0.30625340416159896,-0.11598461884448343,0.11873628065076623,-0.2280001576177058
0.482,-1.0819379815553138,-0.5263781699808479,0.55507356574802,0.8052825464258906,-0.8195235077723517,0.013605940466399825,0.015099474803821346,-0.18878621700802056,-0.3102760918383128,-0.1163637041749151,0.11951444873438519,-0.23300408818488644
0.484,-1.0936714284266942,-0.5145374625800764,0.5791374624350372,0.8049547209679738,-0.8373102269109206,0.030335305663583483,0.023660008758976173,-0.1839745859564476,-0.30255769492863965,-0.10833460255480888,0.13219341972581733,-0.2302357851195438
0.486,-1.0599484628321314,-0.48062964634192906,0.5795583978840277,0.7717343022312477,-0.8205535931392759,0.046554093530509336,0.02793393698415914,-0.18039100564787872,-0.29149536087380795,-0.09881090471772681,0.1466860278514427,-0.2247174781909956
0.488,-1.0369716080970088,-0.45226622511258097,0.5847140746032501,0.7469008226401261,-0.8117341129738119,0.06382646175283713,0.027660360879123363,-0.17952952220048862,-0.2804503721912611,-0.08814998976196466,0.15794441858156208,-0.2172915268200193
0.49,-1.051439698968376,-0.44415446548801313,0.6070199779161123,0.7502341072867453,-0.8304963796591819,0.08011229416431166,0.023426808713363285,-0.18078246964957898,-0.2718228789665765,-0.0786451792752831,0.1651762906047972,-0.21024635623485685
0.492,-1.0734155542819999,-0.45371833793073474,0.6195140873344812,0.7652207549880996,-0.848326261001655,0.08165694290229636,0.011169981694004925,-0.18858459212384504,-0.2725723256680449,-0.07843696006639178,0.16608518686082707,-0.20986537361799323
0.494,-1.0700152773941154,-0.4728239984156007,0.5973556190536228,0.7721084973466035,-0.8359229799535045,0.06017932958511086,-0.013043107166231629,-0.20835877732254263,-0.2873639926680263,-0.091906559431391,0.15832187816975363,-0.21924185733861118
0.496,-1.0547172757082375,-0.4969792518593229,0.5581969376575814,0.7762897858756641,-0.8083014146469716,0.028223495205293214,-0.04538975516126461,-0.23680009900086732,-0.3099484717005006,-0.1122208987732994,0.14488933324459433,-0.23413323179143639
0.498,-1.0675031832101154,-0.5251000030760272,0.5428735448556686,0.7970738531962757,-0.8060293227086618,0.007440800386034967,-0.07427287023780439,-0.2602578450059811,-0.3263803584788451,-0.1262286266329383,0.13430286434504185,-0.2464799191685244
0.5,-1.1178649136175647,-0.5540286249704137,0.5640433995578338,0.8367604452517634,-0.8411521637039088,0.004663093179316487,-0.08967080557000427,-0.2673968915770791,-0.3286346581217811,-0.1268816794233396,0.1326176616548957,-0.2507787381841019
0.502,-1.1642312297309585,-0.5752984343740404,0.5888577152253627,0.8700258672583346,-0.8770197104345016,0.006453827337014948,-0.09321869872982413,-0.26272484110514005,-0.32343539319161,-0.1204520291737664,0.13620435221474672,-0.24954035098768437
0.504,-1.1636571045237714,-0.5824681545278465,0.5810458417455066,0.8727406024952786,-0.8733424301377158,-0.001715962398198959,-0.09547908370846223,-0.26102286589237805,-0.32354425478315924,-0.11887049399544997,0.13617210554969333,-0.25130331993620986
0.506,-1.1338927965320316,-0.5836799031375214,0.5501779020505605,0.8585690021659058,-0.8428818389191164,-0.017982376779758502,-0.10204893570070048,-0.2691933700494893,-0.33183102590586827,-0.1257885903864934,0.12927020654574967,-0.26051652067898556
0.508,-1.1344993728272352,-0.5981292365967027,0.5364502308843139,0.866981342573948,-0.8357452648711288,-0.03171569366357314,-0.10882854215463975,-0.2809549010118212,-0.34033894628555145,-0.134795992437947,0.12035673105902518,-0.27265499186824066
0.51,-1.183319998651206,-0.6326289434972994,0.5508691370191279,0.9095766989428318,-0.8672967948321344,-0.04134969617298154,-0.1122860218807319,-0.28792984004182115,-0.3436229692212854,-0.13991918357645033,0.11512286552996676,-0.2810079050453464
0.512,-1.234049029212422,-0.6705398753245561,0.5638275621876492,0.954143680997972,-0.8997545945399432,-0.05355289576806815,-0.11501554056670997,-0.28793620433318473,-0.3438763746926822,-0.14136300028931462,0.1151459924943724,-0.2831582713624884
0.514,-1.247332186091356,-0.6939766604819444,0.5537703952311194,0.97218171791771,-0.9017945390427577,-0.07031570783624733,-0.12020154693532785,-0.2842181547853845,-0.3435363814843408,-0.14257389008915514,0.1182470638203607,-0.2811571573624363
0.516,-1.234655222767194,-0.7040411238341446,0.5309697606603713,0.9706915987770215,-0.8838486346257363,-0.08720000995405366,-0.12835559519845344,-0.28257634444427543,-0.3419229527255341,-0.14714668910361886,0.11951289513553887,-0.28060866659352923
0.518,-1.222135236980146,-0.706738023479654,0.5155793982153039,0.966078379626443,-0.8697971727853905,-0.09659805309872387,-0.13616694826843828,-0.28439975340522733,-0.33689487434453097,-0.15396356980966674,0.11711160859063491,-0.2844912942664967
0.52,-1.2228453125131955,-0.6981097706824644,0.5247175296507844,0.9624071133040845,-0.8752201995410518,-0.08738178198203503,-0.13491957172195573,-0.2805129445991928,-0.3240868806593573,-0.1533232338073325,0.11903735216225333,-0.28464204621757644
0.522,-1.2439758573015767,-0.678775211590887,0.5651003575287569,0.9629146787315211,-0.9063649073281258,-0.05703042503457906,-0.12010964507920144,-0.2639141545841548,-0.30281440656532355,-0.13910173472942197,0.1327642013414469,-0.272136764744794
0.524,-1.2750214007132525,-0.6645185873580084,0.6105887001769709,0.9705568214538924,-0.9442885657753479,-0.02751158840746957,-0.10471128464771569,-0.24900798665653356,-0.28630725949451397,-0.12521882459498784,0.14722012330262899,-0.25769635772255184
0.526,-1.283309652327603,-0.6666576893828785,0.6170085060869006,0.9757048033582703,-0.9509630592414583,-0.026530118306306794,-0.10807830681229798,-0.25819643686930005,-0.29073877494307737,-0.1324435188952857,0.14286845087105568,-0.2620678609069533
0.528,-1.2526660305739186,-0.6749839576311968,0.5780466881458388,0.9651991067280377,-0.9159074816357217,-0.05110752779059472,-0.13002321810488893,-0.28778500254234074,-0.31082325289178814,-0.15806901142554514,0.12142548721040809,-0.284870050712586
0.53,-1.2059540960187025,-0.6746650675290825,0.5314768399511585,0.9418289253900864,-0.8697723389951924,-0.07424465791115435,-0.15227749948602426,-0.31048375586061994,-0.3244438501331789,-0.17830664239012198,0.10499593141080915,-0.30393923829191694
0.532,-1.1763977721833854,-0.6703665150663448,0.5061857644798592,0.9241444094325824,-0.8431693849716185,-0.08398304557092637,-0.16430223853129167,-0.3124333912811772,-0.3221394039818062,-0.18038429333980588,0.10493249886127852,-0.3052995813676091
0.534,-1.1764931570808959,-0.6780798591477746,0.4985945401318502,0.9275660626124692,-0.839645804611011,-0.09056451042561924,-0.17076802550431186,-0.3050366637018064,-0.314146314587026,-0.17388003556666903,0.11147668288233324,-0.2959015246365406
0.536,-1.2011125857754295,-0.6994602391710659,0.5016068102134725,0.9511724060061092,-0.852835997231687,-0.09878585262032988,-0.1755523680643881,-0.2996787883667361,-0.30863251021994637,-0.1698633469534562,0.11518028589101277,-0.286929574638881
0.538,-1.2433003981852022,-0.7205886329771137,0.5223578014306947,0.9838820603946105,-0.8837284823196099,-0.09852191826360762,-0.1748312283400729,-0.2929260069684709,-0.3005780926034589,-0.16590367323160118,0.1198308315096965,-0.2796294517020411
0.54,-1.2888545518827506,-0.7327939653672632,0.5558111265527446,1.0132821569798496,-0.923482627195895,-0.0882246742317145,-0.1695571095271161,-0.28305470595714727,-0.28787341964266994,-0.15890015855490638,0.12798348203723175,-0.27332812201321444
0.542,-1.3082742512035277,-0.7384879444278356,0.5700466709859601,1.0254973974189914,-0.9409162383762304,-0.08497077855572312,-0.17102288862441636,-0.2809822738633512,-0.2820409639121616,-0.1574415289754214,0.13054481228445886,-0.2744549117526926
0.544,-1.2865835044301268,-0.7387875264885865,0.548385201191185,1.0137982643939687,-0.9193438228557884,-0.09701587232239306,-0.18544411105170988,-0.2929289096959949,-0.29048742744181727,-0.16772341166607688,0.12198055457455392,-0.2855867622265221
0.546,-1.2499431560114216,-0.7297609199257107,0.5205394701761948,0.9898949956987552,-0.8867117938866276,-0.1067704693846067,-0.20345299698870006,-0.30853135750222327,-0.30184067106892637,-0.1797283645238111,0.11185733085744462,-0.29649821820841443
0.548,-1.229453337317273,-0.7109057091848822,0.5183623842197405,0.9699238373583354,-0.8750938733043551,-0.09812998874185655,-0.21308082842313217,-0.3164403254835795,-0.302114727724538,-0.18145125418435915,0.11013925174254366,-0.2982083507314115
0.55,-1.2205718378455999,-0.6920499149542845,0.5279680063875947,0.9567879452229006,-0.8755299765486366,-0.0836998533924211,-0.21467898498475124,-0.3181615771155476,-0.2943291327386916,-0.17652280358784814,0.11271885875241246,-0.29545616737695496
0.552,-1.207940263110855,-0.6888150946513159,0.5185938964109262,0.9498800979087967,-0.8648427968111219,-0.0867832542251339,-0.21575921362790634,-0.31893836144866183,-0.29012369841062674,-0.17566159336080203,0.11126101973479885,-0.2957153767333063
0.554,-1.199814352227368,-0.704557581094562,0.49497062501455646,0.9542076981224885,-0.8494707279823466,-0.10608131750531766,-0.21703780088446398,-0.31551225027391794,-0.2891002833621654,-0.17840134405583272,0.10866479019366877,-0.29581078119912113
0.556,-1.211801060034199,-0.7217460584824404,0.489969402626006,0.9686565783533533,-0.8535251830490244,-0.11649164005311584,-0.21249805785718473,-0.30157837831721,-0.27929421520675674,-0.17449422908960052,0.11474308234921939,-0.28826903520414726
0.558,-1.2399070849674534,-0.7239854017359697,0.5159702322039371,0.9831690904459842,-0.8807971013216995,-0.10468628998890521,-0.20227926635409957,-0.2814008288015714,-0.2578056757833758,-0.16094886833493696,0.12963123195909348,-0.27480791555764555
0.56,-1.265390956491261,-0.7185125324744632,0.5470615838711483,0.9923811301262002,-0.9086495954721981,-0.08756307141209117,-0.19658457553527361,-0.2692005861372165,-0.23892642959707933,-0.14868847422949155,0.14031205747639333,-0.26612345251504993
0.562,-1.274072723470969,-0.7220464355047614,0.5522619321183352,0.9982502834466828,-0.9147299146051361,-0.08782907924755713,-0.20353871346584324,-0.2731737552692035,-0.2365632483194275,-0.14951111148829113,0.1357766593837964,-0.26972861117724195
0.564,-1.2688681005688336,-0.7360233886016418,0.5330552154290157,1.0031486150556466,-0.9018422947250906,-0.10444340704971328,-0.21897971957325427,-0.2867432711712893,-0.247700262424943,-0.162100623848864,0.11961295728449746,-0.28231329036168246
0.566,-1.2664637262264067,-0.7508535785396051,0.5158499407229968,1.0099845471877538,-0.8919189569467761,-0.11975671319957781,-0.23266898554330628,-0.2985312903909606,-0.25944780292452196,-0.1755629974353916,0.10384201165459139,-0.29494091674789896
0.568,-1.273270102664243,-0.7610059635488203,0.5124982810574616,1.0186004980609575,-0.8940106645048949,-0.1258920025692307,-0.24079706044947466,-0.30466372733666,-0.2645433806562277,-0.1821764706148655,0.09554536084224532,-0.30251206027622074
0.57,-1.27568006292976,-0.7647815991924853,0.5109528447216962,1.0214475745102531,-0.8947994981665714,-0.12815743620362582,-0.24639517822523946,-0.307180941841313,-0.26346404259437006,-0.1814237463254591,0.09436605723709551,-0.30489043675643374
0.572,-1.270230276033655,-0.7635766955556487,0.5065729835011967,1.0178932922099342,-0.889627271623311,-0.12947454058027158,-0.25071795571057676,-0.3066482003557357,-0.2582989486529304,-0.17638517404574666,0.09783579833869012,-0.30261328309389074
0.574,-1.2763655601761026,-0.7655317867297604,0.5108772753974593,1.0219215049732455,-0.8941072342273947,-0.12854379995838863,-0.2525247569869485,-0.30326010328618447,-0.2519774670377338,-0.17227897195762618,0.1024141907690655,-0.297741973111308
0.576,-1.2978918877829153,-0.7739774416969585,0.5241212406954481,1.0370964310941722,-0.9111319493690526,-0.12706081487429607,-0.2523864054621333,-0.2997671662275038,-0.24817247052024044,-0.17314305704649618,0.10438390149301265,-0.294391965465878
0.578,-1.3070570669182233,-0.7749292305710727,0.5322766244608891,1.0424304210679747,-0.9200116142618227,-0.12417744179010161,-0.2500941343829189,-0.2958077634260539,-0.24547034850727495,-0.1745592937156667,0.10596475945915562,-0.2920336827196935
0.58,-1.289988121337325,-0.7570119075544273,0.5329478109288933,1.0251064756974242,-0.9119731208916746,-0.11451152482019405,-0.24430169109474087,-0.28695624235264805,-0.23848994767108717,-0.16804503369317242,0.11267841771551448,-0.2856659719955167
0.582,-1.271927285338544,-0.7369431834428196,0.5348634318256275,1.0060233973684938,-0.9039495342119893,-0.10251404617903018,-0.23974337802714696,-0.2759338407237734,-0.2299075606679929,-0.15657085809939097,0.12072181133605647,-0.2773995460213895
0.584,-1.2764908135665578,-0.7400142729355609,0.5363105905276152,1.0097760710036605,-0.9075448812744668,-0.10276617266927927,-0.24432124682313197,-0.2734131477167962,-0.23073801520806103,-0.1534618530729704,0.11902018255663516,-0.27683657821550806
0.586,-1.2932890966174941,-0.7640100519464113,0.5290104034732758,1.0302518625805106,-0.9133766358784238,-0.1184199849546918,-0.2561130740542683,-0.2819574429230311,-0.24342046907151013,-0.16287913277280305,0.10644394399473625,-0.2861771107996374
0.588,-1.3000903448700916,-0.7842869230011527,0.5155488467843761,1.043886758153967,-0.9106629745290086,-0.1353585345085432,-0.2644123821940748,-0.2908063605961489,-0.25569705001260373,-0.17399401433879158,0.09492919125160912,-0.2960271427276383
0.59,-1.2895137721396648,-0.7848595495962725,0.5047236757633964,1.0385633567566765,-0.8995639474896953,-0.14119783151220341,-0.26474267821133796,-0.29058838662207964,-0.25630986036165837,-0.17643392024934934,0.09347724085067499,-0.2986921302886689
0.592,-1.2692751112103735,-0.7705412102581746,0.49913906689763204,1.0205173109088586,-0.8857935087646602,-0.13721821983702492,-0.263087668809171,-0.2840066231120972,-0.2479139329545561,-0.17121040971339402,0.0983519816323659,-0.2967298868246542
0.594,-1.2537535983315609,-0.7552845076580879,0.4987083715656612,1.0047015174504133,-0.8774285714123251,-0.1301137740038885,-0.26417949896449205,-0.2792967632409167,-0.23964463735816255,-0.16459622012719016,0.10215741272606779,-0.29529119073690036
0.596,-1.2502251498117456,-0.7447761310303079,0.505035170416612,0.9983479040822953,-0.879136617267012,-0.12152708369830728,-0.2644497133774474,-0.27965521644659513,-0.2343219758625803,-0.15883258850147472,0.1052255376236731,-0.2927748046297166
0.598,-1.2480570195495981,-0.7310777629514256,0.5160456158323741,0.9918068902347377,-0.8839711475784475,-0.10866484186452927,-0.25953774411012276,-0.2815179079241779,-0.22858159752421495,-0.15194568146836826,0.11218405888893931,-0.28447825766636514
0.6,-1.2370220293454448,-0.7093226603840037,0.5269015510204192,0.9763931484014813,-0.8838850089343999,-0.09200263850055865,-0.2518629969272087,-0.28026822758898123,-0.2210056013770484,-0.14342831214269336,0.12168159687915515,-0.27252264185854264
0.602,-1.2314881270525238,-0.6952132942838265,0.5360843815055608,0.9665659856875234,-0.8853753761855586,-0.08038243269966572,-0.2480834353598355,-0.27704294152229053,-0.21581501465062072,-0.1377789914712228,0.125497332825285,-0.266561590176269
0.604,-1.2490401464211776,-0.7066916581551994,0.5426038285613332,0.9804915202896121,-0.8969802132812693,-0.08306082870069231,-0.2515633451501454,-0.27737616375741275,-0.21725871513638625,-0.13975093123700894,0.11888783172627651,-0.27215347721328953
0.606,-1.2716326866234162,-0.7284050686008314,0.5434555656084693,1.0020155157438502,-0.9081890017022985,-0.09357920906488523,-0.2565858939361792,-0.2799401938200816,-0.2202024743998207,-0.1447370729414396,0.11027345233940977,-0.28053309928636316
0.608,-1.262130673502418,-0.7241136415646826,0.537997561808713,0.994648648605363,-0.9001030898549589,-0.09416477419367932,-0.25342457031397975,-0.27543933549665894,-0.21377760641704524,-0.14180895227090795,0.1137650870969711,-0.2774059936587556
0.61,-1.2170862470956552,-0.6893374756626527,0.5276184378785914,0.954627606722178,-0.8719345606405948,-0.08222745247791487,-0.2427087003824345,-0.2626401988420069,-0.19817022918850738,-0.13018423636957066,0.12908626023574293,-0.2629509836391618
0.612,-1.1725241001938231,-0.6589430490818934,0.5135071908094683,0.9175728332275402,-0.8426056113399261,-0.07471501553094506,-0.23586223473637413,-0.25289400594780526,-0.1865445482206594,-0.12147007805433899,0.13987723834173843,-0.25197659129380745
0.614,-1.162526364111397,-0.6614419753610395,0.5009988535590528,0.9144057270451623,-0.8319412606142753,-0.08254467795404226,-0.23868893901515245,-0.2543054866102545,-0.18740767841156034,-0.12341873824912346,0.13499131342099657,-0.25384367116904116
0.616,-1.1953593755588434,-0.6963665742000572,0.49871543061649715,0.9482178731953318,-0.8481673008697558,-0.10045427277126523,-0.2466033999350107,-0.2638433067561937,-0.19745646690902482,-0.13344519246937508,0.11906916980092574,-0.2649577093863973
0.618,-1.2544196603123023,-0.7469664558181754,0.5070514785679601,1.0020044469596987,-0.8825945303101108,-0.12044749229520238,-0.25498608325572386,-0.2746070635810669,-0.21040170833356944,-0.1460108886777679,0.10219741337184854,-0.2782013638324034
0.62,-1.3036447856312408,-0.7884194406271102,0.5150952667416617,1.046063228387997,-0.9111875687386864,-0.13685308558783996,-0.26209747359593016,-0.28105103791739805,-0.22098604635528868,-0.15583511527437788,0.09090229492568633,-0.2879320130970793
0.622,-1.3099887592703365,-0.7965465177483566,0.5139139598297779,1.052901955478111,-0.9129582570543129,-0.14212285975955685,-0.2650335721080344,-0.2803145488517933,-0.2239777013380266,-0.15791213401955986,0.08841287607304053,-0.28966040437641555
0.624,-1.2713417332052426,-0.7668486259893864,0.5053980329370514,1.019459392358457,-0.8883621391548946,-0.13202665559745003,-0.26141733691074576,-0.27403627438699013,-0.21757213369987347,-0.1511917164557475,0.09503024291493933,-0.28284965993084343
0.626,-1.2125040792425514,-0.7176389185826467,0.4956177952022936,0.9663922917714628,-0.8535700675478267,-0.11226901072092126,-0.2515464097334057,-0.26557999790137055,-0.20428739330804474,-0.13871840213664174,0.10775731573712401,-0.27127353334195664
0.628,-1.1584148451718748,-0.669662148510884,0.48893684950305305,0.9155353751843075,-0.8235831543041139,-0.09157462192557927,-0.23579774678080082,-0.25427684389730915,-0.18606435857375803,-0.12262278618582502,0.12306201632579494,-0.25833690815054244
0.63,-1.1223468350484525,-0.6330614986890126,0.4890514946076527,0.8786888522026308,-0.8064740862092599,-0.07359560575565054,-0.21596335500009006,-0.23780459574624757,-0.16464563503443924,-0.10500458032741844,0.13755898905051633,-0.2466901478388585
0.632,-1.1101703018454743,-0.615792350850978,0.494163707170412,0.863661586367338,-0.8034357442383179,-0.06286831343190963,-0.2001508632285691,-0.22057008973978362,-0.1465892120770295,-0.09310590400798098,0.14493171989189918,-0.241900786892378
0.634,-1.122015191213331,-0.6267899599555197,0.4952395335984884,0.8751528640384365,-0.8097448337571206,-0.06779975104852806,-0.1972345526855106,-0.21080092507918016,-0.13846969296346115,-0.09367543439059847,0.1397771161107145,-0.24818040266373861
0.636,-1.1537431142907646,-0.659671684377127,0.4941918234526997,0.9072873696362376,-0.8250147362420441,-0.08440223731589838,-0.20288073083666397,-0.20595474384328102,-0.13542355437884018,-0.1005782143211451,0.1281386678152095,-0.25880172618777586
0.638,-1.1976160003919667,-0.6883093219242336,0.5093566713839668,0.9432479195083171,-0.8551713016235127,-0.09103457807760051,-0.20094952985207273,-0.19152164014948023,-0.1239008212026339,-0.09852023827452658,0.12540382702068362,-0.25970791787551617
0.64,-1.2357646832430076,-0.6946053598604172,0.5411180455871134,0.9658945264009136,-0.8909169292421236,-0.07843866535135155,-0.18474113796092606,-0.16143674734240301,-0.10010124596440102,-0.08286519900691222,0.1377798348558582,-0.24705123797657316
0.642,-1.2484091791114165,-0.6916228747113968,0.5567613981912675,0.9718800914147965,-0.9050934146113948,-0.0690219448309928,-0.16747197638037573,-0.13146340617140612,-0.07881626067612858,-0.0667578436562458,0.15342626815025598,-0.23351712549806014
0.644,-1.2418374863948993,-0.7066720697475178,0.5353188047864411,0.9769246822284796,-0.8905021814434695,-0.08675786952679661,-0.16650154748506724,-0.12467629438130969,-0.07848352169312163,-0.06462035150487604,0.1578035243941738,-0.23223013031719814
0.646,-1.2469580043171031,-0.7469073464830314,0.5005349949465198,0.9992585535119818,-0.8752532012823837,-0.123652092275774,-0.1841675432166232,-0.1451126202193993,-0.09832916551582045,-0.07344574168820604,0.1537863804777368,-0.23863486524874036
0.648,-1.2764573585857975,-0.7894763071803921,0.48774322548066257,1.0342354640635478,-0.8835428990763927,-0.1509908042994615,-0.20714912274487654,-0.17008582543416462,-0.11427699824820617,-0.072850027278602,0.16156865628266562,-0.23253624086186223
0.65,-1.3041087622734957,-0.804290235513311,0.5004885053006458,1.0547846550232638,-0.9037434577743957,-0.15203794907338025,-0.22195960783694083,-0.17340632792053573,-0.1016857606618184,-0.043855541316514375,0.19765888115824753,-0.19849094354488514
0.652,-1.2938278249198354,-0.7791151126784363,0.5149320490912507,1.0371264977038719,-0.9058482695923407,-0.1325233923403923,-0.22769023803108895,-0.15189470017343926,-0.05756233861917613,0.014827377014959479,0.26015420890998875,-0.13916760210118564
0.654,-1.2352064277989523,-0.720587014159191,0.5144473711090075,0.978815346465695,-0.8764190453649197,-0.10414909748375427,-0.23130283036712038,-0.11997811138403978,0.0054395725771909376,0.09220404998740048,0.3389481242976746,-0.06521849982297914
0.656,-1.1503158354396945,-0.644297788544777,0.5057925681247384,0.8982337984770461,-0.8297487311371554,-0.07121237649106026,-0.2369043133751731,-0.08866773849399456,0.0753671709027026,0.17803819794144507,0.4284996520578495,0.0173015269219547
0.658,-1.072157259236984,-0.5735684280405805,0.49842141665273665,0.8236872793251325,-0.7869284078540453,-0.0399777000128692,-0.24769608710199476,-0.06601964457855494,0.13872924633388894,0.26029218455938846,0.5198347876511551,0.10016573621826749
0.66,-1.0193244920722921,-0.5336882702288471,0.4852784463324062,0.7773080052068877,-0.7536888276910763,-0.02600117363297031,-0.270342495610793,-0.06528030694172322,0.17587470597796834,0.3201711627517323,0.5926826964765354,0.16589163247355565
0.662,-0.9878486371145264,-0.5311572831337817,0.4559975530775497,0.7601811742976547,-0.7228024387325562,-0.03803444369552368,-0.3072081972538023,-0.09282305676674182,0.17661171443978896,0.34410199250065837,0.6293076305362479,0.198836074153636
0.664,-0.9589361035711462,-0.5482366575623064,0.4099935971758477,0.7538643539194484,-0.684750194578661,-0.06859817637284625,-0.35202998825119974,-0.138418171605212,0.1508137565315915,0.3344304131721164,0.6288781664179149,0.19598893129597178
0.666,-0.9199868016014271,-0.5685156561857003,0.3511755767921411,0.7441480000842062,-0.6356860486185069,-0.1083469734736923,-0.39910355771360917,-0.19045482273650352,0.11271927965577602,0.3024024449397907,0.6030127563993998,0.16474131264645328
0.668,-0.8776959035176379,-0.5925135239538768,0.28519479290329935,0.7350022610303367,-0.5818916171425546,-0.15440222828190167,-0.4490726679154457,-0.24976398328167046,0.06604402805242929,0.25789031277666835,0.5646222857866494,0.11763027360920308
0.67,-0.8404152703393927,-0.6218411429309786,0.21834549001945852,0.7312785178474002,-0.5300313179318181,-0.2032639718910434,-0.5022281998785193,-0.3182557259721265,0.01123312225008978,0.20742360208638352,0.5213184182319024,0.06650872967606822
0.672,-0.8040247210694516,-0.648589741326232,0.15471527177282898,0.7267552409367515,-0.47960645059237467,-0.24835921183267576,-0.549925594740949,-0.3804963012881631,-0.04226762126148154,0.15647036794771582,0.4733966665870406,0.015242674942481433
0.674,-0.7714057040303087,-0.6684700071043642,0.10214981673732347,0.7208770918204795,-0.4364749868201683,-0.28433417010462697,-0.576628935877578,-0.4088700051021219,-0.07901664381193298,0.1104456143737666,0.41838822556311367,-0.040110794541804454
0.676,-0.7631809748151024,-0.689615562059755,0.07326726996225487,0.7279539804196379,-0.4180082855082957,-0.3095537055355519,-0.5740431644175549,-0.3933129423541126,-0.09310043584251652,0.0713505955095076,0.3576883683028452,-0.10272590392733597
0.678,-0.7884959881624891,-0.7216691117668645,0.06704592980666228,0.7569419972243262,-0.42834886857124366,-0.3287504561265242,-0.5518807792510356,-0.35867789379372234,-0.09743796747988465,0.032862198753158496,0.293502307580733,-0.1716171343879783
0.68,-0.8295629524851125,-0.7643321243979634,0.06562051148190141,0.7988299986979565,-0.4491568856955211,-0.35018148217039324,-0.5268983119424675,-0.3399967023508767,-0.11347288936481519,-0.017213663620357374,0.22194759961398966,-0.2459459681239699
0.682,-0.8765670132061569,-0.8084882718102554,0.06843284306577478,0.8445433078073867,-0.47447437949195786,-0.37030830148845445,-0.5013914540740153,-0.34490268996181545,-0.1518867394101814,-0.08665162333355847,0.13830686530016428,-0.32441844647255536
0.684,-0.9471653013115721,-0.8420756822090826,0.10538735135703953,0.896656741866966,-0.5275886601246078,-0.3690002200397131,-0.4635875790042664,-0.35484167176703746,-0.20621654006245393,-0.17169138539419396,0.0475377651702305,-0.3998974630828329
0.686,-1.0456944127255285,-0.8572400970507232,0.1886134433697389,0.9529263743834245,-0.617391313501505,-0.3358483815015431,-0.41048083296388593,-0.3570603927481854,-0.26261274045889266,-0.2601059248132118,-0.03912180841440246,-0.4637335344970237
0.688,-1.1322677519731177,-0.8601154512470545,0.27202734653087357,0.996883974784346,-0.7022801987197698,-0.29589391386657243,-0.3596026378357273,-0.35834919501944806,-0.312781420533916,-0.34231109527250503,-0.11925029293898881,-0.5193119627166622
0.69,-1.164798779544585,-0.8707269177848953,0.29365443534260244,1.0184306872609072,-0.7305173141701911,-0.28981963185139425,-0.33270453617326146,-0.367212235719587,-0.35705909020229304,-0.4179108230874163,-0.2012912995719919,-0.5807708273598803
0.692,-1.1534499002600298,-0.903493131946713,0.24950206889860801,1.029857505633341,-0.7039359271905463,-0.3276620398333792,-0.3320374044330799,-0.37625290450906956,-0.39539311419816775,-0.48680323199350994,-0.28544971841796,-0.6499501377118109
0.694,-1.1398014288712166,-0.9489428200755184,0.19075447981587607,1.0462577696690616,-0.6677350451826358,-0.380160472360292,-0.34111366152437733,-0.37360193779040474,-0.42261667545602843,-0.540108265174678,-0.3536727657146011,-0.7062454238971264
0.696,-1.1424471618266812,-0.9820902457838628,0.16074898772926913,1.0638520092299544,-0.6530864090281088,-0.41303614500273655,-0.3443186998050969,-0.36051134650299455,-0.4332038436615004,-0.5656060113588496,-0.38538838604466774,-0.7273515928401131
0.698,-1.164022796382623,-0.9877943693535465,0.17680486650111446,1.0767047041152953,-0.6711076835804631,-0.40868895493490154,-0.33149467721726955,-0.3369640395021881,-0.4194599424418818,-0.5543374727510758,-0.37261050271832385,-0.7079889134076692
0.7,-1.2190779587341327,-0.973832760309729,0.24554667166997893,1.0966089729385746,-0.7331145511229404,-0.3668967672962792,-0.29468444563917884,-0.2879639353735613,-0.3734244295064003,-0.506170866923505,-0.32279579424192867,-0.6592159591091921
0.702,-1.3041772720214215,-0.9607796359529472,0.34333513264530696,1.1324806533991625,-0.8252755952451606,-0.31067454029549396,-0.24106760260445645,-0.21168265073237497,-0.30617408346043745,-0.44092863151954464,-0.2608604336540704,-0.6048055193816406
0.704,-1.376262921357994,-0.9624103880038162,0.4137850098566379,1.1696491995251908,-0.896967086757027,-0.27629293866394566,-0.1947429115168993,-0.13795344665269071,-0.24960165062045084,-0.3915131679282439,-0.21794445476787155,-0.5703008223565378
0.706,-1.3987646075271447,-0.975791108975663,0.4232440441133212,1.1881756974839166,-0.9124567407966298,-0.2788909286925377,-0.16955283263042772,-0.09439042741749482,-0.22519963186490094,-0.3734489298014523,-0.20494671007566698,-0.5620640987481251
0.708,-1.3827173712537344,-0.9876902141336339,0.3955277176122885,1.1866105309701485,-0.8897154918538773,-0.2989272035816026,-0.15348590452866384,-0.07455906312414884,-0.2239737749561889,-0.371353927334441,-0.2047133439530295,-0.5633076757740503
0.71,-1.3733276225014024,-0.9889659156413978,0.384685404857645,1.1826473581627863,-0.8795899342036766,-0.30446646671269695,-0.12552478998247438,-0.05290457684069243,-0.22046268464129312,-0.3591418441088724,-0.19295260231672107,-0.5527871804022949
0.712,-1.404444550549399,-0.9818309139927266,0.42257838269893944,1.1945348297305791,-0.9150120033611938,-0.28122144256488446,-0.07776253998066994,-0.016638701784352367,-0.19830638899071074,-0.3267877343515544,-0.16234539795846323,-0.524357015982661
0.714,-1.4598789278233106,-0.9726495985012859,0.4870199795005071,1.2177566169871934,-0.9755463071955318,-0.24419168505626826,-0.019798117762960154,0.02609730562661607,-0.16273792890989683,-0.2871490738200576,-0.12742090489262894,-0.4911641048013452
0.716,-1.4935540194329686,-0.9614255185738786,0.5319193229494276,1.2291191685208183,-1.014383925546966,-0.21661618179087744,0.03450440774189392,0.06398190640034555,-0.13004599341757972,-0.25856631520371925,-0.1056458440765335,-0.46925596837380223
0.718,-1.490308626592713,-0.9449149274827554,0.5451281038105691,1.2191839112383391,-1.0184353020748569,-0.20242352964793478,0.08017235453862605,0.09585090044455404,-0.10947915006506423,-0.24559649894261565,-0.09793977625922272,-0.45988192648688847
0.72,-1.4763375180365514,-0.9294657371602008,0.5464991363184699,1.2042893602781704,-1.0117079853797626,-0.1942869663352293,0.11717844159540927,0.12052411830015591,-0.10216329449041375,-0.24263167827405183,-0.09540536415625679,-0.4559454881461451
0.722,-1.4745542678707528,-0.9294489127073472,0.5447194904638056,1.2029864645461703,-1.0104670685320036,-0.19495929401763168,0.14229864131887282,0.12747311201864295,-0.10838302901722506,-0.24724858810529876,-0.09599808356453694,-0.45689082264837155
0.724,-1.4843336558537343,-0.9476018371197226,0.536369521231607,1.2162821142419025,-1.0120361698811513,-0.207643351809107,0.15663360043565974,0.11183227065066391,-0.1225180352589994,-0.2570122799596921,-0.10108396598787966,-0.46373756072779654
0.726,-1.4996706622949643,-0.9680461007504628,0.5311974552873586,1.233698462881111,-1.0170931246170851,-0.21960653180084547,0.17212144848255367,0.0874261648871682,-0.1298310977738682,-0.2616720794232367,-0.1043822938670753,-0.4685085400401841
0.728,-1.5189431262712274,-0.9755473995485443,0.5428879687248026,1.2472887743434702,-1.0316561255582988,-0.21662360367854072,0.1966408264878131,0.07004740549759378,-0.12228504405150994,-0.2531277979395458,-0.0984740150317763,-0.46250009815178816
0.73,-1.5357454634638568,-0.9711867228748093,0.5641317560329542,1.2542298298356374,-1.0500861662808907,-0.2033457177521633,0.2207935381675081,0.05756069138048399,-0.11033098241299645,-0.23769229643068204,-0.08670357271141788,-0.4488568070661132
0.732,-1.5355867150472096,-0.962174597204785,0.5732251541316252,1.2502182104317325,-1.0547319840096583,-0.19456623291142178,0.23150803311196175,0.0403960221010281,-0.10801509363228749,-0.2269857465244587,-0.07723122780366357,-0.4363464262974351
0.734,-1.5119523081282982,-0.9488276082044178,0.5630938227787745,1.231649467534084,-1.0379748830554925,-0.1937423732063237,0.23106450944582443,0.02216352723129108,-0.11356410343290897,-0.22139650857754087,-0.06919928336962752,-0.42542655670030916
0.736,-1.4817133691753783,-0.9332790142586349,0.5483629725965439,1.2080960517973327,-1.0151701758142802,-0.19385499295880965,0.2318002451005393,0.01307391963029932,-0.11594422699972824,-0.21400477851195718,-0.056454269072520484,-0.4108920412398428
0.738,-1.4681763478571295,-0.9281316536903922,0.5399739405008287,1.1980605468673082,-1.004212213898418,-0.19531980302169685,0.23723298675963944,0.008250566947159496,-0.11529695319336375,-0.20699298708446465,-0.042718499344990474,-0.39592235739299875
0.74,-1.471434549774177,-0.9420277276306318,0.5295423047904669,1.2065659644151567,-1.0016221953490623,-0.20714407210914768,0.23704939472569656,-0.011005141021979019,-0.1244588806186316,-0.21109776218423634,-0.040049482713724896,-0.39170859660026963
0.742,-1.474207007407447,-0.965563503296653,0.5090171061051261,1.220403000174776,-0.9941798021344753,-0.22927386032054775,0.21781519375705924,-0.05556869249961111,-0.15161595042294138,-0.2300149937018335,-0.052274796382530825,-0.4023093852374632
0.744,-1.4671333130687156,-0.9782331865184157,0.48935789337203517,1.2238689884925338,-0.9814700905938494,-0.24592198229402393,0.17485832649892052,-0.11750228885008078,-0.190040095248741,-0.2547736653092973,-0.06930182867017762,-0.4183812583900942
0.746,-1.4488508965760243,-0.9636019658656062,0.4856149499107153,1.2072168666475758,-0.9698147076830718,-0.2408155515755612,0.11705080527175492,-0.1779839474327295,-0.22472797392020374,-0.27248456018059103,-0.07739964530383193,-0.42609167324545255
0.748,-1.4164520486345964,-0.9216081282849927,0.4949969563703492,1.169233148695961,-0.9570269723131445,-0.21506371391637807,0.0598450333681064,-0.22186018114031314,-0.2453025468537987,-0.27630564850516137,-0.07124882136715796,-0.4184617761614278
0.75,-1.374295391472449,-0.8724516742083029,0.5017968557767978,1.1233478454358719,-0.9385233198618873,-0.18700829743421582,0.009618207895869441,-0.2481573276176396,-0.2532240128130125,-0.26987118533760607,-0.057950134776336065,-0.4009591800793197
0.752,-1.3390413535710497,-0.8427802719372767,0.49616060867233824,1.0918110488286616,-0.918161828098202,-0.17516438296364426,-0.04298648777723944,-0.2690134423497228,-0.2584151188956816,-0.2645303607011061,-0.0501478089025874,-0.38743138776550934
0.754,-1.3217619195544328,-0.8420453685614767,0.479686782908925,1.0841028011069107,-0.9018436429442608,-0.18306981406758266,-0.10993767834741915,-0.2961176799319186,-0.2684592662754233,-0.26795322457472515,-0.05276487838259734,-0.3856581819438901
0.756,-1.315206523164285,-0.85607923782176,0.4591867445920778,1.0881732576572796,-0.8887434441791193,-0.20008542672150498,-0.1879362974871754,-0.32800357861030555,-0.28104661834756434,-0.274408109987805,-0.057942508117427696,-0.38842759015777983
0.758,-1.3091671961428055,-0.8662347937755355,0.44309779143716654,1.0893270106839477,-0.8778747843251699,-0.212999961473472,-0.25760371664363,-0.3522574859436088,-0.2872404487760104,-0.27141275524445985,-0.05529200163743184,-0.3844483059696059
0.76,-1.3041088018177274,-0.8661322041676807,0.4382782519514815,1.0856769053655766,-0.8729970131893153,-0.215161889388551,-0.30163425022270923,-0.35855529776506595,-0.2803972148295728,-0.2551114625984632,-0.043070156856005334,-0.3725283038403084
0.762,-1.295813597850202,-0.8574932125625152,0.4386133365004783,1.076909939587533,-0.8688702529570954,-0.21036493035949816,-0.3223540583479716,-0.3495852862648778,-0.2635294127508031,-0.2355728899477254,-0.028560820114769937,-0.36063930183583226
0.764,-1.2668308740929417,-0.8432088744059004,0.42369577983183265,1.0556948673583268,-0.8467721996893102,-0.2105595443939124,-0.3369469541878124,-0.34006504559274014,-0.24952451056523928,-0.22805611262084957,-0.02196375693600308,-0.357461121938352
0.766,-1.2168683241640625,-0.8288578683456129,0.38802833119216573,1.0241747802397532,-0.8041036580938952,-0.2212888506882192,-0.3538207808582518,-0.34063506316671344,-0.24777640473592463,-0.23690026275255607,-0.026672395823850135,-0.3639917541934617
0.768,-1.1838288101206287,-0.8201508044887172,0.36403437568801483,1.0037664888413258,-0.775583631117895,-0.22886733525624026,-0.36133771582578594,-0.3436574987989093,-0.2497498286541884,-0.24672556365209097,-0.031748187498211275,-0.36814615360693403
0.77,-1.2046701443509935,-0.8167093465727157,0.38860102250587264,1.0127288568141155,-0.79761892826851,-0.21489067034530002,-0.3464451704320629,-0.33368526783750546,-0.23848490508571993,-0.23700519834804062,-0.02106401572339174,-0.3547377436596415
0.772,-1.2645938202159759,-0.8159885810778391,0.44902265994740886,1.0426173628835311,-0.857119527198425,-0.1847105271689666,-0.31795329759185786,-0.31088233659490017,-0.2141978365983864,-0.20806966961815498,0.004961658622950749,-0.3268397105721771
0.774,-1.31168864515963,-0.8216147190717755,0.48999826876030417,1.0693161634851818,-0.9015633288647618,-0.16722842800067161,-0.30052934380251906,-0.2931989269222832,-0.19753891812024219,-0.18352583077997708,0.025419196170304015,-0.30721876165258083
0.776,-1.3164925680286022,-0.8376923508832298,0.4784174078892603,1.079944411508746,-0.8993375970052524,-0.18066585896196855,-0.3064855975785148,-0.2938431136622206,-0.20240097209585128,-0.1823560305554476,0.02430011706118593,-0.3112626473605198
0.778,-1.2926444471297254,-0.8533485062353241,0.43886714930991527,1.0758125848818652,-0.8680253080625766,-0.20797435114322507,-0.3233677909278208,-0.3058084657781354,-0.21771932314970435,-0.1973111492267616,0.010746909203029285,-0.3286460523581072
0.78,-1.2637312060024843,-0.8464472293481689,0.4169464581893214,1.0577343487883542,-0.8417202666228537,-0.21582589690983064,-0.3316541527019936,-0.3125613261479788,-0.22377585942641964,-0.20705177604219102,0.00525900861462172,-0.3383905085774473
0.782,-1.2377939235946445,-0.8118784605909786,0.4257559889527641,1.0272322392104378,-0.8321911081279051,-0.19463606650003024,-0.32619845312026735,-0.30774333087427336,-0.21608858757644614,-0.20140318639206534,0.014915288616566415,-0.3322984797828063
0.784,-1.2141737518300388,-0.7731320531747714,0.44108929291842913,0.9957197527797698,-0.827986237834717,-0.16779686200349997,-0.3162233558376128,-0.29932385969310427,-0.20515149956035403,-0.1875733196044169,0.030070457937666047,-0.31879304591108804
0.786,-1.1932353329565781,-0.7577017667229629,0.43573647611292216,0.9771303669960821,-0.8153361286444271,-0.16290423732350787,-0.31263882718594693,-0.2989806627807853,-0.20244335672942834,-0.17986757745522822,0.03642121740345387,-0.3127260659491471
0.788,-1.1792067842168654,-0.7735449652164837,0.405874236371118,0.9776841015594017,-0.7937676660992723,-0.18604360088229355,-0.3210284188970375,-0.3117361450620294,-0.21331776381034645,-0.1885920309859319,0.02539457203727015,-0.32348246899344985
0.79,-1.1815104414724602,-0.8079184602546611,0.37352629412088123,0.9960331123150153,-0.7788395762004201,-0.21950451635385532,-0.3385390379884133,-0.33077324392626467,-0.23280110039850377,-0.2096527345643043,0.0029509489108730685,-0.34422455611901187
0.792,-1.202721483777646,-0.8345826280201589,0.36760948434175333,1.0204768898045287,-0.7864435694725569,-0.23542398661879715,-0.352440819143761,-0.34051283095068263,-0.2449139847236032,-0.22382724907125973,-0.010202007921739031,-0.3540656492624389
0.794,-1.2212006161778586,-0.8279576712025125,0.3925382052857315,1.026972782506964,-0.8081032683118454,-0.21901748660919404,-0.3498709268198654,-0.33115425977743645,-0.23707678659672662,-0.2156291397191792,0.002258263476388489,-0.33924553158262477
0.796,-1.2067051192112244,-0.7854831760057764,0.42086472938402764,0.9984843862918957,-0.8150172162048002,-0.18303727069232875,-0.33233084122688294,-0.31013212970421505,-0.21550958812840504,-0.19082333061770468,0.0331564487413512,-0.3089523187013358
0.798,-1.1614524994709399,-0.7351324036931048,0.4264376631161731,0.9500854641556719,-0.7951960312255836,-0.15464803394632365,-0.3147073430437683,-0.29442096251423217,-0.19849427140737247,-0.16895454953425837,0.05915515320949304,-0.284864086761305
0.8,-1.1228435852745713,-0.7100319977136724,0.41306112835899994,0.9177653850488886,-0.7691571320159981,-0.148717661821784,-0.3091429178801776,-0.29315162034178377,-0.19647063178423313,-0.162538377047263,0.06531292292486598,-0.2794149144014098
0.802,-1.1173520412720495,-0.7164813110570908,0.4009364832738958,0.9183523251799458,-0.7601246489937518,-0.15842562544149266,-0.3151465047530225,-0.3017869270443755,-0.20538947266716912,-0.16902229892598186,0.056005212244777176,-0.2886772615721607
0.804,-1.1316822562071782,-0.7341191240269583,0.3974401598968392,0.9345075522390145,-0.7653065320479554,-0.16946510299561016,-0.3255419570315952,-0.3113130759726831,-0.21714889977522128,-0.17982461031626082,0.043309479503385574,-0.3022917443731064
0.806,-1.1367125685608237,-0.7412967021879505,0.3951783463864964,0.9402324080032334,-0.7669320024188724,-0.17430968857859488,-0.33523231184179697,-0.317038990786761,-0.22727936197532345,-0.18909223318003837,0.034106759125383045,-0.31238048175866956
0.808,-1.124437695083782,-0.7337132821488783,0.39028002909642456,0.9294658145059909,-0.7590707170782638,-0.17308079764340423,-0.34266195326768323,-0.3187885587716621,-0.23312784144644902,-0.1938573099968826,0.029795000234112645,-0.31473088541808264
0.81,-1.1097557065697226,-0.7226746841783547,0.38638366624075854,0.9158254615466224,-0.7501290817326213,-0.1698324547584816,-0.3474738923822811,-0.31808132537105593,-0.23365101896339888,-0.19334648208920605,0.030159047317443982,-0.3100745398806091
0.812,-1.1055571225631493,-0.7184008316472641,0.3864954801709348,0.9112963813978752,-0.7474107720268788,-0.16759514467347328,-0.34840370803972287,-0.3155928833027824,-0.23060775592055685,-0.18901002422305724,0.034881051407825305,-0.3028341736014528
0.814,-1.1113458250402384,-0.719655330984939,0.3914401905706057,0.9150644442540748,-0.75179440582442,-0.16514201722836094,-0.34456957226358503,-0.3109048906860039,-0.22617160366102557,-0.18329304804384183,0.04256189701016302,-0.29569889230653496
0.816,-1.1208581377754352,-0.7219319175967561,0.39905653668114366,0.9213950530948863,-0.7603889422023374,-0.16219437692902508,-0.3391417579704277,-0.30611185976925326,-0.2221486082163374,-0.18005366461321068,0.04824177828234282,-0.2901307134700074
0.818,-1.1267688933023783,-0.7240893200974824,0.4027373044007789,0.9256927047780409,-0.7662206703038789,-0.1619297130103759,-0.3369966843069802,-0.3056399535769442,-0.22034944161306272,-0.18242204301672907,0.046557891678328266,-0.2890105689916845
0.82,-1.1231028214288783,-0.7244166066114731,0.3982779326809628,0.924141802372634,-0.7627058130484919,-0.1646594740677048,-0.33841906015489975,-0.31018689198080907,-0.2203568391544621,-0.18738452891315754,0.039400738263126726,-0.2925537057543359
0.822,-1.1147222166902748,-0.7236372405931935,0.3903680998884728,0.9198339502874977,-0.7537331926988358,-0.16772480080272992,-0.34027109974930064,-0.3161593770718569,-0.22003351361809273,-0.1887763171411319,0.034394996712660615,-0.29679301172234784
0.824,-1.1169208353113707,-0.7277524867398925,0.38873295895818766,0.923473999986402,-0.7527118919136149,-0.16995196533593154,-0.34110039752538673,-0.32087571764873696,-0.21842257093562442,-0.18540679458069587,0.03567602995708718,-0.298722443204081
0.826,-1.1336632400134417,-0.734716435525707,0.39905324124850255,0.9356912177412801,-0.7659496898193229,-0.1682375958702679,-0.3398534977130753,-0.3221418866975921,-0.2141703203494588,-0.17927730412370646,0.04190986682361807,-0.29737734137584715
0.828,-1.1432146548250746,-0.7282621201681669,0.4152285403884182,0.9372558296239198,-0.7799394481418855,-0.15735907554604284,-0.33352383803879937,-0.3158761897803284,-0.2044703596244492,-0.16986227885602465,0.051132244533311715,-0.29101647711142786
0.83,-1.119390486158592,-0.6982619800451173,0.4212256241682259,0.910206598600471,-0.7725099981271486,-0.13984302119004227,-0.32180868086938946,-0.3017805983675381,-0.1905691586060739,-0.15703629871891145,0.06203022707133245,-0.2792645455613826
0.832,-1.066526181739979,-0.6586729583386587,0.40787127395614364,0.8640508757133618,-0.7397991273280893,-0.12705906944081125,-0.31096202526338323,-0.2877730865907059,-0.18002408999715233,-0.14522693949136836,0.07192047248988429,-0.2663918893437736
0.834,-1.019308213961285,-0.634140757368951,0.38526832307876485,0.8286026672258098,-0.7040039271734947,-0.12621701362804683,-0.308288804129,-0.28233754053523813,-0.17911046453477686,-0.140125471457137,0.07744750502134015,-0.2572718409217365
0.836,-1.0045337755064758,-0.6344584735431834,0.3701870885501653,0.8219274926611823,-0.6881295262681514,-0.13379527689539805,-0.31501393167168523,-0.2860194597799321,-0.1864647235430641,-0.14349915689504886,0.07803118161117205,-0.25181735552143336
0.838,-1.01682087802336,-0.650358684694228,0.3664514578217696,0.8362701211484307,-0.6924016675897599,-0.14324605040855276,-0.326768920495114,-0.2933288630833586,-0.19588988505638977,-0.15172975610860714,0.07703435294016518,-0.24752694563852856
0.84,-1.0325678383983286,-0.6670144643008277,0.3653403528640762,0.8521141889609567,-0.7002794311232192,-0.15156144172627323,-0.33807398453974596,-0.29876672849337976,-0.20231944017802406,-0.15873522285791147,0.07762973953082043,-0.2453113173960592
0.842,-1.0323207684292737,-0.6729781027703922,0.3588463110050697,0.8540733247681278,-0.6969926975915959,-0.15715843838688162,-0.346023757856608,-0.30082815928816703,-0.20510838112809213,-0.16175147057949846,0.07783460850508589,-0.2488980789112174
0.844,-1.0106428098350198,-0.664845482578437,0.3450834160322297,0.8383185118854629,-0.6786731710154223,-0.15954683960543495,-0.35286414914543696,-0.30408572169538123,-0.20772151446104964,-0.16361048897625777,0.07265902925779162,-0.25903048668738377
0.846,-0.9792221036569572,-0.6520536640215875,0.3266710733083601,0.816102305641968,-0.6532688026152672,-0.16242677522229595,-0.363007043941141,-0.314735501772278,-0.21293892445383114,-0.16666011824162624,0.06299028750205933,-0.26992937394404937
0.848,-0.9606892011739506,-0.6484399641286203,0.31248365746817885,0.8055528114436625,-0.6369595631490825,-0.16834184980856742,-0.374649208882821,-0.3294612834842844,-0.21710090509883012,-0.165920530785565,0.059361051036431106,-0.27216522938375504
0.85,-0.9659975684434777,-0.6533242556738882,0.31358245882561087,0.811040039213454,-0.6403442298898068,-0.17099186333499364,-0.37964314778174735,-0.3348000582663706,-0.21338249031705425,-0.15434671374577186,0.07121518475332372,-0.2612120526755318
0.852,-0.9769329028799523,-0.651212904346778,0.3265982169007444,0.8154127941315416,-0.6524264020722319,-0.16359700625498788,-0.375793871163405,-0.3249759414473511,-0.20323174066448096,-0.13534420984620238,0.09261803283416956,-0.24410510918459435
0.854,-0.9638392776282483,-0.634217956175931,0.3298707364913802,0.8003297168594302,-0.6477420852721117,-0.1529795853894574,-0.3732180426555496,-0.31299358087169515,-0.1981279770381449,-0.1224392470743544,0.10614298351241495,-0.23406231415028728
0.856,-0.9220401941211193,-0.6137530498376043,0.30801917984196264,0.7693989686890024,-0.6160507715539868,-0.15340913825308103,-0.3825279001095709,-0.3148102576127365,-0.20588283942812904,-0.12413745751473292,0.10293033751415981,-0.23649080165464845
0.858,-0.8838461024414219,-0.6061287711685425,0.27745128813260206,0.7466731399921646,-0.5813837430370172,-0.16538730870385338,-0.39879252720287156,-0.32746864307615586,-0.2194424847092335,-0.13354337284197085,0.09324079844676723,-0.24211248236158978
0.86,-0.8910593795222493,-0.6134983415981493,0.27754689346240957,0.7540966004382429,-0.584758286440069,-0.1696817279662562,-0.40348586809656956,-0.3317330078540772,-0.22228145527209292,-0.13398504205459857,0.09574747120282304,-0.2351988659532618
0.862,-0.9475797288981445,-0.6212877105170295,0.32630610538737626,0.7865040164614232,-0.6376809650804194,-0.14916262421494256,-0.387093762107236,-0.31653542552376707,-0.20512095232090502,-0.11550893158204933,0.11776515111132846,-0.2105132552336415
0.864,-1.0047688545370146,-0.6140127852616643,0.39051607728026677,0.8115306878787908,-0.6988199478222975,-0.11276830507175555,-0.3646806319058869,-0.2931859050270814,-0.17658114532055527,-0.08635177558156769,0.14694822920906642,-0.18099935380111853
0.866,-1.0122872993656804,-0.5924994020767058,0.4194491017447811,0.8040815593273499,-0.7170186357169112,-0.08702113160279591,-0.3594159239141531,-0.2809398956174839,-0.15466877313207378,-0.06389950140610605,0.16524386477034575,-0.16369468747109855
0.868,-0.9740099366988394,-0.5719343195322921,0.40208922589311946,0.7741118500740013,-0.6891239521831489,-0.08553327384261501,-0.3759875813225851,-0.2857603914382694,-0.14960281461745314,-0.05620082451408798,0.16788445560957585,-0.16154660134481916
0.87,-0.9358927693384727,-0.5665051581120085,0.3698339648854058,0.752391964773933,-0.6545618276571196,-0.0994935504084492,-0.40083868309074266,-0.2991012604014037,-0.158487141354976,-0.058641293278134554,0.1633897094068867,-0.16548323756720362
0.872,-0.9306233791821935,-0.5789453183069321,0.35211025087573594,0.7566588449513577,-0.6441150223683109,-0.11483966983270333,-0.4211973429410933,-0.31053248541994144,-0.17197533993016276,-0.06380135669920436,0.16002312465542873,-0.1683195679690218
0.874,-0.946737649557427,-0.5980942967436959,0.34867473579864283,0.7748588564273328,-0.6509143900433373,-0.12589969345664118,-0.4333351135927927,-0.31547250551612527,-0.181685220474797,-0.06756695103465658,0.15897217440946393,-0.16913886218975285
0.876,-0.9460829990511828,-0.606790117468008,0.3389822804418152,0.7787096758605002,-0.645059050026752,-0.1351296040695474,-0.4390701740087888,-0.31531180739752734,-0.18548603412109654,-0.06942150792436774,0.1578553796945661,-0.16863910029617019
0.878,-0.9083470942170845,-0.5977198101702482,0.3102984948369189,0.7547711526885258,-0.6105053450822487,-0.1457119722106652,-0.4423590547900938,-0.3141202608036522,-0.18628922808559753,-0.07000717277479267,0.15632700610752223,-0.16613990327848083
0.88,-0.8575615287731554,-0.5767466788793075,0.2807624729326301,0.7187178923272738,-0.5694343016200918,-0.1507744496381259,-0.4444760281087966,-0.31180656699313725,-0.18186998710069022,-0.06586942799750499,0.15933656447463632,-0.1588344497626441
0.882,-0.8353873677249889,-0.550598740463656,0.28504828471155824,0.6946322228218648,-0.5605772888361201,-0.13546083349018767,-0.4410542268156052,-0.3021090102728084,-0.16402288277852492,-0.05095932062622186,0.173091224125851,-0.1436159046201018
0.884,-0.8489341340275951,-0.5219163678978502,0.3273202301511968,0.6869070735309079,-0.5889220074889433,-0.09908075844068312,-0.42958960742187596,-0.2832308894537019,-0.1345909680697867,-0.027832561694896767,0.1947532945334341,-0.12309660436586543
0.886,-0.8649322155378075,-0.4964572943196221,0.36857677348846607,0.6819824254375235,-0.6174640434481216,-0.06477045957899612,-0.4161090506199745,-0.26387645886892097,-0.10917262017560793,-0.008269086653195095,0.21246935055551225,-0.1061753664748178
0.888,-0.8572673259343917,-0.48441032009472024,0.37287494663220533,0.6724160628129228,-0.6154253176766342,-0.0561928484683313,-0.4090482269655924,-0.2521403291992793,-0.09799161698258894,0.0014363014897895501,0.2190358382932229,-0.09912380938237307
0.89,-0.8336050912064076,-0.4898437495697776,0.3439866310843383,0.6640011097125382,-0.5894370827516789,-0.0733773962938822,-0.41134742202158536,-0.2467108071510835,-0.0960385047554431,0.005612254399686363,0.21841829855934697,-0.10036160318233706
0.892,-0.810244682284008,-0.5019835330568149,0.30869371006952623,0.6588181024077366,-0.5611087204450556,-0.09697952746491878,-0.41947851221769983,-0.2421679375027025,-0.0950716196456776,0.008721841274343134,0.21732302989517038,-0.10445913794092065
0.894,-0.7863984022861747,-0.5011531956463099,0.2855607359412613,0.6460771122118818,-0.5382990253577637,-0.10775895137572271,-0.4252090113386062,-0.23459175815246494,-0.09276912555543916,0.010519867944761403,0.21752519874695714,-0.10678704289617548
0.896,-0.7536275863883368,-0.47523161774891737,0.2783937530598517,0.6157041102055455,-0.5178811422223125,-0.0983454122107696,-0.4197632601192837,-0.2211276336416905,-0.08762909550674404,0.012650866406358522,0.2190093089022321,-0.10453838833301811
0.898,-0.7145596889466964,-0.4302941267976778,0.2840983818377521,0.572920124803868,-0.5001375964854953,-0.07379312910585645,-0.40107020670329574,-0.2011206800286984,-0.07594600049514953,0.020098888880452824,0.22416273159874286,-0.09690222790491244
0.9,-0.6788054323194064,-0.38523188450273466,0.2935092773388637,0.532623590252763,-0.48646790519405325,-0.04771227079336882,-0.37768478093297225,-0.17944275082281114,-0.058916615036168185,0.03244996796366772,0.23325364619896644,-0.0865409174282511
0.902,-0.6536872161752527,-0.35563210535345796,0.2982332307375159,0.5060187577546836,-0.4765764057231867,-0.031196901094862717,-0.3606755115351824,-0.16201044685271615,-0.04310773507544086,0.04304919389690887,0.24176797201370184,-0.0783207332571494
0.904,-0.6518396046564655,-0.3426092948136904,0.30962701091092426,0.49908045125224776,-0.4816622491224372,-0.018731170154849753,-0.34907989391017397,-0.1452561147472112,-0.028847608568653073,0.05057599154988022,0.2480689420850625,-0.07313982016489941
0.906,-0.68306967726415,-0.3374718649116707,0.3460502939236698,0.5117371141895676,-0.5154529456525804,0.0027802127558380916,-0.3319743487795092,-0.12002644768257852,-0.010505129419806487,0.0597559179649273,0.25508504672942905,-0.06759502454289133
0.908,-0.7263203311462144,-0.3337712258898924,0.39290209521874875,0.5307389121510598,-0.5606876263285816,0.028582550942836505,-0.3080566344547686,-0.08905179253427711,0.008690024474153813,0.06890640222008984,0.2606123847791591,-0.062105048440235754
0.91,-0.7422170338247213,-0.33156301603542393,0.4109352583145491,0.5375953841458042,-0.5783774350746466,0.03892034241292959,-0.29085796990376545,-0.06803242148821768,0.01715107136978788,0.07028120347487883,0.25730597392067683,-0.06231691001978584
0.912,-0.7224837384763336,-0.33343684162855,0.3893104344470538,0.5296721870300579,-0.5584081278716799,0.027448208847856446,-0.2900689995438752,-0.06591623180066333,0.012364658736965699,0.06357947256771279,0.24462837481893854,-0.07062300979440499
0.914,-0.6977051927223613,-0.3395217671804892,0.3582597585376289,0.5211541446745313,-0.5305653350138938,0.009077978896201445,-0.29837320344162155,-0.074093804823023,0.005165869190998228,0.057688400066818656,0.2307718636113038,-0.0820620086456096
0.916,-0.6932936450995815,-0.34516749534648034,0.3478217760126442,0.5214854856456075,-0.5225490379966937,0.000533749123944812,-0.30086346245267354,-0.07694667875428592,0.005589573407162618,0.05844446532863462,0.22258384476106718,-0.08993277010195293
0.918,-0.7051825563355203,-0.3436480648562786,0.36099344329596156,0.5258397215601989,-0.5341505380104151,0.006820045939445943,-0.28963486221175033,-0.06605308973529313,0.013954316038536136,0.06373544821347724,0.22156730845707817,-0.09120767044093982
0.92,-0.7184023750480459,-0.33229843198684383,0.38565121624547777,0.5263993419554579,-0.552290397740472,0.024295302924091093,-0.2677519119209727,-0.045058326919333966,0.025114666740158765,0.06985621965862931,0.22644488846620714,-0.08698112948079664
0.922,-0.7212483996928489,-0.31567424093583296,0.4053124649030337,0.5194178253153517,-0.5633998823396117,0.043021162426717156,-0.24629505541682972,-0.026922354255023585,0.033263201258793555,0.0737341932944549,0.23170351703711697,-0.08297719224400288
0.924,-0.7051889245571447,-0.3028382431711677,0.4022716146683818,0.5044164039994429,-0.5543689654214065,0.04892004279095567,-0.23700581941290977,-0.024099077288109203,0.03418543546333345,0.07129439199658794,0.2287666061094979,-0.08717271729424546
0.926,-0.6793380263215489,-0.302117861207171,0.3774983079757187,0.4903559822707147,-0.5294858123357841,0.03738477356817853,-0.2411534353244933,-0.03595001197984314,0.029207164514928115,0.062357480846735674,0.21583372094691317,-0.1005405620226764
0.928,-0.6744257291918833,-0.31572880693220545,0.3594079609160363,0.4947629876860844,-0.5177047388253867,0.02127122417894152,-0.24698624707986638,-0.04788435000548289,0.025734754339211238,0.05441376407724235,0.202272966004257,-0.11350009318587487
0.93,-0.7050842931809349,-0.33715541660035936,0.36870308926095485,0.5220453050844739,-0.5370203295072045,0.01438926244558874,-0.24373376186163925,-0.047694346639066146,0.0289534820687938,0.05387534400826712,0.19755984745430313,-0.11746359770622539
0.932,-0.7462549243746892,-0.35768967067589413,0.38899030038723686,0.5542630718824039,-0.5675971849847641,0.013374737857902488,-0.2353772646864344,-0.040660900798066224,0.0334627563574808,0.05568309051239952,0.19857111968092378,-0.11631954294454515
0.934,-0.7685098793064425,-0.3747560639252185,0.39390289838798603,0.5741639002870087,-0.5819639639988137,0.007047950118832353,-0.23375384805702853,-0.04189443653054896,0.02916678859348567,0.048974541836768304,0.1936311374096486,-0.12104374972694723
0.936,-0.7689384193207898,-0.38559390891686673,0.3835200836511758,0.5791350326612833,-0.5780159715087426,-0.002947249235085733,-0.2405181878056007,-0.054857827621594926,0.01597292578579911,0.03268770450566767,0.17865352286600314,-0.1350839316385375
0.938,-0.752890712741282,-0.37866601772830527,0.37444836939535486,0.5673159006851041,-0.5657193821415233,-0.003239686892881683,-0.24357147623690387,-0.06553524341207571,0.006285673429536093,0.01936611904838258,0.1639615531575465,-0.148626882775373
0.94,-0.7220065033075772,-0.3477156221956984,0.3743813005866819,0.5366608785847159,-0.5499224432062915,0.012353304632518478,-0.23170114682791892,-0.05961983791679891,0.011545393721671706,0.02182509437671645,0.16300624933239305,-0.14821085738441903
0.942,-0.6910981560401964,-0.3102302740889013,0.38079519814878565,0.5023501988823966,-0.5377403500953276,0.033827679526164445,-0.2095074942672782,-0.04134002898962213,0.02819649005188028,0.037552663839138536,0.17544673316831433,-0.1335310356450466
0.944,-0.6814757783526652,-0.2935159990918794,0.3878686869970342,0.48825796754559214,-0.5368829326813572,0.04522617865733948,-0.19546227495301105,-0.03156791259126456,0.03803420455531728,0.04812041198402648,0.1843485704128345,-0.12198996230166692
0.946,-0.6921705109849233,-0.30360531883055314,0.3885802065661834,0.4977727845393006,-0.5424845887725833,0.040501700953948144,-0.2014585818211561,-0.04400570319097816,0.027012813252788263,0.03820225634577723,0.17466251437320957,-0.129900234928577
0.948,-0.7031924015775002,-0.3231134518644356,0.3802784777756008,0.5129963364426297,-0.5431391364572277,0.02702800191706273,-0.2182120248343394,-0.06785185702656046,0.0023296362014464693,0.013808778013422536,0.15163105059649676,-0.15234638191067687
0.95,-0.701998624964307,-0.33632081423734783,0.36618472707699684,0.5194751988602683,-0.5348737545112989,0.014073110306358362,-0.22866117340543043,-0.08321750431671303,-0.017278939121300706,-0.006103927586984774,0.1327589907868575,-0.17050981962721093
0.952,-0.6912124744313164,-0.34137456195540655,0.3507286182247709,0.5168770223432831,-0.5215229871577162,0.004536506195615631,-0.22789324039293965,-0.08606450588160788,-0.022750476062659654,-0.01259045456005205,0.12640673612385053,-0.1741000389789129
0.954,-0.6828434292699388,-0.342001152833395,0.34195883366060703,0.5128922213165529,-0.5129444189433187,0.00015428096272222214,-0.2207657837062413,-0.08480756503960293,-0.016807649055039182,-0.010754677157689348,0.12861092810391936,-0.1667344230033767
0.956,-0.6926841063019485,-0.34228052651308516,0.35138060800814397,0.5177235297136261,-0.5227151371401092,0.004305398541741152,-0.21058993749088742,-0.08216007636166381,-0.004656045932630382,-0.00609885240207536,0.13465179230454086,-0.15523875635399226
0.958,-0.7282745184053259,-0.3482442961693437,0.3805466148507253,0.5383487144978796,-0.5553547462986762,0.015093767913402657,-0.1991923092470695,-0.07492910996502697,0.007592329813671056,0.0015307296768595087,0.14321690466777912,-0.1434655209861381
0.96,-0.7743531498380107,-0.36052269749665716,0.4138575110570138,0.5674222341915088,-0.595098459999951,0.025290288098748878,-0.19062592154155622,-0.06516809081963587,0.013231071779715511,0.012280269105222126,0.15260351903510913,-0.13332824550044223
0.962,-0.7947309178451538,-0.3641658570967931,0.4303741663482472,0.5793386348114745,-0.6131503283064342,0.03227743686776543,-0.18838180743124863,-0.05954714101394446,0.011050985592785766,0.02211948435303445,0.15947774221291192,-0.12606708107604161
0.964,-0.7654951933604832,-0.3430058647438595,0.4223783622545255,0.5541377400356207,-0.5942266155364474,0.0394933462007338,-0.1910506555225895,-0.059333444249925794,0.007518153709752425,0.026012638387764422,0.16143983946889776,-0.12257877381759386
0.966,-0.7087076775044752,-0.30810268598749485,0.40064561083917694,0.5084425069317814,-0.5554453654136128,0.04574521105047426,-0.1942569667354038,-0.05997607792452571,0.008540174295946076,0.022505289823420208,0.15819255759819834,-0.12371694618841365
0.968,-0.6697207087224324,-0.28909683696687305,0.3807010146569094,0.4797351323630111,-0.5268483993318999,0.04413038624218884,-0.1953444673304032,-0.05910083451017969,0.012402434969853264,0.014549845246276196,0.15092969082608632,-0.12927654452839246
0.97,-0.6618947929288177,-0.29080640841017563,0.37110349101564905,0.47716372919257083,-0.5181996016318362,0.03769934360504894,-0.1917351961887643,-0.05534637322523087,0.016237913818038168,0.00877142480260289,0.14407354971509587,-0.13485628365660624
