time,I,II,III,aVR,aVL,aVF,V1,V2,V3,V4,V5,V6
0.0,-0.0003290943103269626,-0.000636248999965461,-0.0003290943103269626,0.0005265508965231401,0.0,-0.0005265508965231401,-0.001294437620619386,-0.005024173137658295,-0.0022378413102233452,-0.0042782260342505134,-0.0016015923102578845,-0.005879818344508399
0.002,-0.0011140912748530607,-0.0045541043013672304,-0.0035713287919610474,0.0031515783707250613,0.0011847395171770653,-0.004336317887902126,-0.0095686186785083,-0.03564397394220486,-0.016290238006458777,-0.03032359271016092,-0.01237238270505701,-0.04140153779459854
0.004,-0.0005359181501772041,-0.014596137763608082,-0.014387638673377385,0.008604004542124018,0.006652258920362104,-0.015278203083174584,-0.03140167258611198,-0.11315988570271977,-0.053077964567197496,-0.09624813419145628,-0.042728776415318144,-0.13048333334200085
0.006,-0.0001845537604223237,-0.027525050821435318,-0.027763102277391177,0.01590169883888983,0.01301392920414681,-0.02904694380848352,-0.05972709197252817,-0.21310873020958307,-0.10208712530003099,-0.18117569134455422,-0.086683542525982,-0.2442961695153829
0.008,-0.013063990097462064,-0.033573240357040415,-0.02076479093094741,0.026087895726139478,0.002458341988674683,-0.028873656774760673,-0.071621589177967,-0.26799692839508577,-0.1288367965743995,-0.22680801406522974,-0.11397973020850298,-0.3064517989167876
0.01,-0.04698333585097979,-0.027080426138424422,0.019928583172693026,0.03983370566762262,-0.035325180526247106,-0.004909190737065245,-0.05503768310345859,-0.24748472281361938,-0.11404343684041081,-0.20510542621468802,-0.1015545843340579,-0.28372967082747597
0.012,-0.07837455185402843,-0.013889138686536294,0.06463120977417088,0.04835563865853858,-0.07350921397204177,0.024919652304138687,-0.029119729673030628,-0.19931584929519933,-0.08129046495720814,-0.15518673815502929,-0.06555440467531175,-0.22891803689364376
0.014,-0.07298820191018195,-0.005045846644325126,0.06800557097607358,0.04036487118049728,-0.07221611063268678,0.0315477531450393,-0.02276333019627988,-0.18600164417268686,-0.0679579752920797,-0.13255732190495342,-0.04241441894904752,-0.20942635646468818
0.016,-0.036581428022066736,-0.006384733733983179,0.03015056436792278,0.02209044228292477,-0.03455988214916661,0.011400746389566226,-0.03970510290346365,-0.2130562475128878,-0.08046731142759297,-0.1468549207858688,-0.044919599006261496,-0.23107942285100086
0.018,-0.013667246912921753,-0.014642111103951824,-0.0010093428928640764,0.014513076584154738,-0.007083260731211806,-0.009333783656690372,-0.05806270705733949,-0.2393813083095036,-0.09397138760261618,-0.1650846849914915,-0.05322696552481066,-0.2512518690324467
0.02,-0.029407310360714502,-0.021206207195187222,0.00833025779260946,0.025702615231519583,-0.01951495386431178,-0.008193746931585954,-0.06076827814274408,-0.2371754054975286,-0.089359482354377,-0.16041939801326688,-0.04654466476666773,-0.2417659811448391
0.022,-0.059295449416915884,-0.019997014266101502,0.03965546001583526,0.03991779581898947,-0.05038334520872152,0.008776546082175086,-0.053284731391902984,-0.2190002921699607,-0.07431961835787812,-0.14050070071180248,-0.029607889108374873,-0.21632708590466956
0.024,-0.06644373675749055,-0.012173729904587162,0.05470793046049862,0.039474398333493574,-0.06167739730717398,0.020862955221360096,-0.04940114109709664,-0.20981472041504154,-0.06635201625736419,-0.1282031601069345,-0.0210445915012175,-0.20171736830352477
0.026,-0.04832079137900801,-0.003546326944450817,0.045021184232426306,0.0264459140462817,-0.04743542856325024,0.02021197024818798,-0.05216752388721974,-0.2138050971616137,-0.0693476039462311,-0.13041184366107025,-0.025382477702866887,-0.2023953137295964
0.028,-0.030738439346827552,0.000743293543048324,0.03144349336432137,0.016009368333744927,-0.031453780125518985,0.014983789300042296,-0.05579973265011183,-0.21842482476498484,-0.0750222045216763,-0.13660500713480242,-0.03086275875527141,-0.2038077758449688
0.03,-0.028376057971707367,-0.00039820560986428505,0.02783086721942511,0.015581587925082858,-0.028871187722174823,0.012275030318631404,-0.057033805967827166,-0.2174276984335023,-0.07788335963704425,-0.1384056107322075,-0.03009838265889784,-0.19898301989733336
0.032,-0.0321129035069708,-0.0034425866465054747,0.028591450501533805,0.019205032817174575,-0.0320792889615966,0.011318977522306988,-0.05667726992032296,-0.2156426989608647,-0.07924395658054166,-0.13732934903424582,-0.02754236884320415,-0.19554999150254637
0.034,-0.03140108377947646,-0.0031181831647352706,0.028179427405592546,0.019374353680591427,-0.03184314095146275,0.011708048382547572,-0.05529864272537304,-0.21620245749583422,-0.08088430526562301,-0.13687512861852466,-0.028228388766694285,-0.19947538175483404
0.036,-0.03094786480313323,0.003272718803463529,0.03381657959289832,0.016421852242142394,-0.03368999714569589,0.01814436987128431,-0.05189052341908809,-0.21447916957026544,-0.0807185789813024,-0.13533576477304074,-0.029638318438234747,-0.2041464145854387
0.038,-0.04397979403334522,0.01439600253640999,0.057625134306647965,0.016761992261005103,-0.05101793523485936,0.03591534824155997,-0.04360757399020235,-0.20389877754081248,-0.07332760875035682,-0.1261459378313436,-0.023616885214626918,-0.19682420379187046
0.04,-0.07694867002424671,0.026823257168894065,0.10304181979228061,0.025883028121579,-0.08959862788535225,0.0647159231578109,-0.027316251485092743,-0.18287423490286703,-0.05487383344604273,-0.1048641860120332,-0.0039069548574559325,-0.1729727885430871
0.042,-0.11845281829524802,0.0375455374293696,0.1556231831576515,0.04112104875897055,-0.13676679119648555,0.09557453697822346,-0.005876645819853039,-0.15786989558660788,-0.030054937676910587,-0.07721535330327235,0.0242387231650164,-0.1440001128131056
0.044,-0.1403264821191949,0.04464508026962318,0.1848252960437351,0.049689040147144814,-0.162930144040946,0.11286356579687874,0.008714013339899827,-0.1408220495824709,-0.011845313049595714,-0.05746204626718381,0.04402814228537556,-0.1281142540915935
0.046,-0.12063365480762919,0.04667831008545473,0.16711062453145864,0.039811747176886056,-0.1448713457192519,0.10518822533477813,0.005056559018572279,-0.14022387305527906,-0.010907135017104868,-0.05608277303216194,0.04315701924316215,-0.13193305086983148
0.048,-0.07353344740968411,0.04410577636610314,0.11740133738186997,0.01695924633515572,-0.09670686585271736,0.08025364193552749,-0.012991987733047062,-0.15274304582891093,-0.025382804976901558,-0.06937986246120974,0.02833330492093862,-0.14377001719918694
0.05,-0.04112073165360273,0.04150133029637533,0.08251683350512089,0.0005147043407922706,-0.06294257870760495,0.062345431908150235,-0.027923069773688722,-0.1649301403500484,-0.04145060060183445,-0.08192307796013758,0.018656272281770223,-0.14655423781352556
0.052,-0.04451429596182671,0.04449738302889289,0.08896420674898962,1.6774385362868812e-05,-0.06790457441240214,0.0665489949573576,-0.028839309402669103,-0.1659973243338667,-0.04544530111133809,-0.08057819877311644,0.025177332951608383,-0.13574878040463476
0.054,-0.061379472115164736,0.053453156693135884,0.11459775898074737,0.004834400687170728,-0.08952217377657717,0.08274827039621985,-0.023007870560781515,-0.15846571993111305,-0.036812367206768566,-0.06651150146008954,0.04134540788581405,-0.12162136793602699
0.056,-0.0620057492520457,0.06283095971781764,0.12443758089119437,0.0017539761869478213,-0.09502444621961854,0.09200613857155643,-0.022608596717150792,-0.153315510615189,-0.025932496198198363,-0.05138970425990041,0.05420016076358927,-0.11475802818244435
0.058,-0.04522916196753941,0.06729071699255683,0.11234601276487118,-0.008631515669825078,-0.08066028239228513,0.08868646475182351,-0.02854678339401566,-0.15630985990956447,-0.019919691953807998,-0.04304926955592161,0.05922236703542598,-0.11553757155417733
0.06,-0.02881640350768333,0.06707627048536419,0.09622085489806836,-0.017665562486750233,-0.06461959549416747,0.08100215743507679,-0.03259997023770866,-0.16151618593234734,-0.016384681871718945,-0.038753180531632576,0.061672339740735015,-0.1172500181035208
0.062,-0.025193796579652542,0.06658733859695948,0.09236458436725838,-0.020158994876262343,-0.06104569291239077,0.0789256813355807,-0.028901723277048683,-0.15765309581559614,-0.009524871849096962,-0.031108542029563528,0.06858124408119011,-0.11247760857196201
0.064,-0.032804214690862005,0.0684122548369682,0.10155600489560403,-0.017302206243245945,-0.06889500734495037,0.08442773944680287,-0.020270630881075353,-0.14186463765093696,0.002220715370829879,-0.017503553108573638,0.08126551470489363,-0.0988949210400273
0.066,-0.03727738818646825,0.0720784150591188,0.10928573092429947,-0.01618485096591145,-0.07405706972382953,0.09014353903222434,-0.016159401386441088,-0.12607402155575506,0.01330863805067779,-0.004277458273912323,0.09316308304717569,-0.0835264399151441
0.068,-0.022508469841148945,0.07816473550039708,0.10046048425134707,-0.02579643025184083,-0.06210838969518445,0.0887863792256028,-0.02341838026649361,-0.1249501309335368,0.015668998960983803,-0.0008277524936033073,0.09584265396867317,-0.0767333945996256
0.07,0.011605205156489785,0.08847883417043541,0.07680228917124142,-0.04782285377503155,-0.03394544368186805,0.08228797305295069,-0.038081068385696366,-0.13891790536649412,0.007940447610041227,-0.008069837250776379,0.08864333167626952,-0.08044030552096684
0.072,0.045373809642213034,0.1017110554182574,0.05643780547153154,-0.07216850460053752,-0.007153941557452927,0.07908707162906772,-0.04821142380952392,-0.15311572728965986,-0.001133754064467511,-0.014793670187263224,0.08174391718353405,-0.08548071008792636
0.074,0.05461443880367929,0.11270261491333147,0.05829586015809881,-0.08364587096152934,-0.002641397335203847,0.0857711661952483,-0.0442041370962908,-0.1511575816070327,0.00033485888220352047,-0.007658755854282421,0.08826261348372151,-0.07920812161879404
0.076,0.03036472649769477,0.11794545255968675,0.08788018400743154,-0.07494508619010141,-0.02859144668809203,0.10313950200916826,-0.02554856625968858,-0.1287662184132067,0.017346240880076844,0.01569965680903728,0.1119521380217095,-0.05576276298857438
0.078,-0.012896780892053813,0.12003968173129309,0.13318335754885982,-0.054120978696929764,-0.07274497554051453,0.12661918100704225,-0.0008197031874563122,-0.09706300060797521,0.043769884184397354,0.04493201767313676,0.14323626928108563,-0.022348029972177816
0.08,-0.047503827061474053,0.12328997540504638,0.17070400719963574,-0.03757961994962227,-0.10933870366725938,0.14667504284154007,0.01677331826996529,-0.07406667024724,0.06648796126059472,0.0672450009027579,0.16801766361660553,0.005166266237474446
0.082,-0.05352562937446335,0.12661256928728226,0.179705569314666,-0.03546405897295534,-0.117427157042826,0.15222272040280735,0.01700320725969945,-0.07135381121696636,0.07480027103052608,0.07723354506453439,0.1794903762628062,0.01611387211811117
0.084,-0.03374791082711041,0.12564514200687127,0.1589870213859071,-0.04460161645809034,-0.09763081593093043,0.14065666447301736,0.00016276911544910243,-0.08592329186640732,0.06843316781598091,0.0787312139455348,0.1821996755306546,0.01475864808216306
0.086,-0.006590062263158614,0.12089275659425855,0.12731365807000672,-0.05576957007831948,-0.06847138154703002,0.12217130787283043,-0.02325617801966572,-0.1046579207500783,0.05601532587359721,0.07905376069130428,0.18534758882984473,0.013342530001480023
0.088,0.01716804295400808,0.1185370113115334,0.10122392091681458,-0.06609945132733447,-0.04336880278654689,0.1081810387305969,-0.0427967281648831,-0.11828570251391834,0.044404075150047705,0.07964301162078667,0.19069314067161852,0.01591140992867402
0.09,0.04177443103530907,0.12189259859278027,0.07981079798283405,-0.0794023750439769,-0.0200060647867778,0.09942094269899945,-0.05621852528063626,-0.12837694111078254,0.032625809638574546,0.07414419015750337,0.18965424173848838,0.014880668502671815
0.092,0.06931901565379425,0.12722801148407015,0.05761259978981937,-0.0955983803925845,0.004654802224740346,0.0910509188707952,-0.06579265385377253,-0.13862279995867657,0.01878796388724804,0.05911791589132791,0.17632949091289432,0.004925151441929638
0.094,0.08982724181822187,0.13036030462892895,0.04047659953791861,-0.10812378030178206,0.022710987753781022,0.08390500166150991,-0.07135026814230416,-0.14541887540701598,0.007741756015242542,0.04263577182361441,0.15838871061925514,-0.007221506409530087
0.096,0.09294886492964519,0.13194950420595591,0.03910717448865836,-0.11168414722688483,0.024630172551710496,0.08385515746554151,-0.0708016830239338,-0.1425601922161907,0.006582864085690249,0.03673624672000493,0.14932670453658078,-0.01065522409276699
0.098,0.07448585507056313,0.13399168665946595,0.05947411212408746,-0.1041596583148847,0.005948805176776605,0.09534624316634834,-0.06308550583061394,-0.12918245646103763,0.017296021037474532,0.04551656377318621,0.15552964542033812,-0.0009759870275587571
0.1,0.032130749148161976,0.13544022664940675,0.1029408099444429,-0.08330325400805638,-0.035827989446152564,0.11852234578432902,-0.049023543591526185,-0.10877930524281577,0.03711012964981296,0.065048507137175,0.17443861578734368,0.019606180691807296
0.102,-0.021368319693222736,0.13410764604268594,0.15483666312766814,-0.054756882199248076,-0.08822056819357377,0.14423176123186973,-0.03483003767307792,-0.08885747185614302,0.058233403623153455,0.08752265329078152,0.19711018583095086,0.04386455389860822
0.104,-0.047982396250504065,0.13104430778448364,0.17829228341823736,-0.0389518607084494,-0.11422007613241317,0.15432042297454118,-0.03209828880177898,-0.08190997744712512,0.06718519150539105,0.10218719408724627,0.2111473864587655,0.06037368910978209
0.106,-0.021419657287897,0.12934509775549008,0.1500652531465647,-0.051149500312316874,-0.08818039276177621,0.13922135633441005,-0.04590962795203902,-0.09453145809332808,0.05583073443826158,0.10167074811644003,0.210379236466482,0.062464769636707766
0.108,0.03220733617714653,0.1285751034199327,0.09585827755877471,-0.07790409922240155,-0.03467027448433563,0.11167155373028843,-0.065849984427881,-0.11638137344419885,0.03311883309053668,0.09006893192162112,0.20180183852747693,0.05597025905970652
0.11,0.06167272611002571,0.1246126590968391,0.06279259791291847,-0.09119401772163611,-0.002495750471454084,0.09276453571504699,-0.07614128150685609,-0.13029499942173225,0.016681119565025954,0.0783811492603764,0.1962491180501785,0.05100945032077904
0.112,0.05314011541488966,0.11619082847863874,0.06329364784575754,-0.08348248966238878,-0.005760652373022705,0.08826539534370188,-0.07343953889726397,-0.1316166930408387,0.013070609547542371,0.07189166299701821,0.19445758136394178,0.04864242606372912
0.114,0.039340364128346274,0.10765917264463024,0.06881563875993342,-0.07328037987187573,-0.014926049726586859,0.08681103651388614,-0.06928468650026237,-0.1300814435479057,0.013282364267439988,0.06702509102791836,0.18877662101791604,0.042201089527833476
0.116,0.04745341919782666,0.10337903617871702,0.056499502904346764,-0.07588789221254759,-0.005094192117947746,0.07911627554564331,-0.07423454574996485,-0.13429764747806938,0.008226420436416809,0.06005244169734446,0.17692194625237728,0.030186987299563237
0.118,0.06489277385268838,0.10190578263172054,0.037528228709009966,-0.08382019787713361,0.012464998384161626,0.0691864625291886,-0.0855826337366963,-0.14189959359532334,0.0007138567771202453,0.0529627108012657,0.1665432837688445,0.020675537323050303
0.12,0.06725000372641264,0.0973909510216722,0.030494352449861574,-0.081971589360652,0.01678362005205075,0.0632205449811282,-0.09457226588815017,-0.14645584329708394,-0.0024539926236161968,0.04851499984085458,0.1642894936191235,0.02083188788913712
0.122,0.05670106412497315,0.08655631528666582,0.02998065303048502,-0.07020168843471974,0.011659459392306986,0.0575685060325367,-0.09911042239646188,-0.14708982019557007,-0.002690211319896226,0.04488365918850532,0.16689086061234984,0.027634635622918628
0.124,0.05217101510696862,0.07308920081130295,0.020860382867146032,-0.060344186833680244,0.013960311361662902,0.04658450607060424,-0.10236647504302188,-0.14664993699351,-0.005686399857321167,0.039888400175130685,0.16724739293478516,0.03306790097757057
0.126,0.05535465754194224,0.06262108996590898,0.0071511462271895195,-0.056577682299218064,0.022668413247271806,0.0344054591206701,-0.10383957710483262,-0.1448944645152098,-0.010916644620209904,0.035760776918046314,0.16337186568333656,0.03400761727197881
0.128,0.05294790417358846,0.055248607907746626,0.0021486696319729607,-0.05253127553569662,0.02444233300795604,0.027652051211652467,-0.10102743501634343,-0.1399068693598046,-0.014511806226837216,0.03326627210700096,0.15540828242210292,0.031158852027404784
0.13,0.046157191731892325,0.04765694876285475,0.0012105370964192734,-0.046707523503475054,0.02171817195270151,0.02303257563410082,-0.09712826368669367,-0.13431896190932324,-0.018515682693217954,0.02612130582800169,0.13999166059561427,0.02211182415304892
0.132,0.04847083995780429,0.03975056430105227,-0.00911329278337238,-0.04485663015630613,0.027707174354006395,0.014050127643429139,-0.09705110408950073,-0.13249953296328154,-0.02745127211025359,0.009570006031149096,0.11580089952051015,0.00406983605339058
0.134,0.05901266000472576,0.03413821633599252,-0.025136309605589647,-0.047251211890779035,0.04030463281565261,0.003382681251704942,-0.09848367013834551,-0.13300764824724418,-0.03857311631585475,-0.010302064560060584,0.08965904437663119,-0.017997945369270827
0.136,0.06458506741264426,0.031026806605700064,-0.03355162392978345,-0.0475959243507946,0.04658887639872885,-0.0024917898887737845,-0.09646748605412801,-0.1316813336164458,-0.0446468300856941,-0.023840971923003582,0.06909273781131102,-0.03464222285981835
0.138,0.06088273249418765,0.02707400200854327,-0.03366857941926857,-0.042638174831751585,0.044465950076587664,-0.0045445825848800196,-0.09268985992153496,-0.12919321119503277,-0.044054823587719796,-0.029381032202704202,0.053422446017847215,-0.04322744778005166
0.14,0.05423088600104016,0.019349370856625636,-0.034810626041109335,-0.03464336634901751,0.041938771172094366,-0.008826124156831311,-0.09223909569757799,-0.12847855901188385,-0.040905403275047596,-0.03207083594689729,0.0380520652511358,-0.04940587846482636
0.142,0.051631108281473444,0.009435350700870008,-0.042257086929985456,-0.028258879281803134,0.044936722250148844,-0.01773754918648102,-0.09530258716366427,-0.12807226952449005,-0.0378344737861189,-0.03637363282439613,0.022434053160341187,-0.058334307819896236
0.144,0.056556153447578215,0.002983064034568518,-0.05378373082618392,-0.02782701473112391,0.05377965200221933,-0.027303937678051813,-0.09721175661270653,-0.12319378024692994,-0.03468368013233446,-0.04278024671078107,0.009526312858203307,-0.0691926208929015
0.146,0.06509212654049319,0.004051160595848571,-0.06150600151614417,-0.032971981990931785,0.06234816482443704,-0.030552951474684075,-0.09413863867101752,-0.11218619989620429,-0.0322804889874701,-0.04909847121281793,0.0008978704361200498,-0.07775324418254802
0.148,0.0634854116269185,0.009577647784658387,-0.0546296312503817,-0.03531438875404502,0.058350983563471466,-0.023281633979023955,-0.08541836083343385,-0.09876737734536511,-0.0321598618485981,-0.052924064322764065,-0.004450225797446644,-0.08132547107620357
0.15,0.036289860489531076,0.0114080797444605,-0.025543041276634922,-0.02308229169284025,0.030474137149728762,-0.007018515521931337,-0.07088645952091553,-0.08629981679693263,-0.03248264103197109,-0.051799850840987434,-0.0067155593649763255,-0.07964913420524694
0.152,-0.0171556097434638,0.004152866258218577,0.021071327060664884,0.007278054679255488,-0.0192392836345017,0.011944184350978698,-0.05129911723330238,-0.07369263786213706,-0.029321543963391743,-0.04446572587169402,-0.004497727528734648,-0.07353830804931062
0.154,-0.07391659168656073,-0.01040382734009712,0.06367154838590616,0.043579183063475545,-0.06894446676990874,0.024347654741647767,-0.03360134890197964,-0.061958706238567404,-0.023664192537604555,-0.035781246635558366,-0.00015215687696994103,-0.0667386318250684
0.156,-0.10378185788780125,-0.02613298783462637,0.07785579658876557,0.06688607898284872,-0.09167155915172479,0.022860625923552168,-0.02814532310112538,-0.0587864476662753,-0.02193753113619578,-0.03498222900499786,-0.0007995072745455405,-0.06569960829352331
0.158,-0.09895485899695113,-0.038297893280015774,0.06067997737344155,0.0702839164185998,-0.08179106904822776,0.008971063671861021,-0.03638912377771017,-0.06895860006445216,-0.027909646167133696,-0.04547169046063251,-0.009776641190470572,-0.07256395964076996
0.16,-0.0799615020046054,-0.04623557686936838,0.033649284979340006,0.0639164311647797,-0.05961422331459598,-0.007529531852943092,-0.047853521497798,-0.0852705210185191,-0.03858132503597527,-0.06105334438025682,-0.02185024362245949,-0.08166369570717116
0.162,-0.06982586782931917,-0.05186252897199423,0.018012797224303826,0.06087338766672726,-0.04672453343171396,-0.018100612855417468,-0.052932242863219126,-0.09604682870827734,-0.048647666167919816,-0.0732374606854958,-0.029990716814626756,-0.0864246286212595
0.164,-0.06995065371243005,-0.05707046168754515,0.013100935092226082,0.06340419887789045,-0.043584143088273006,-0.02343248242774354,-0.05354530435589739,-0.09901096574300139,-0.05587477425736233,-0.0793777800645775,-0.03333106258705057,-0.0871388869369582
0.166,-0.06558069300236868,-0.06223384720562459,0.0034863467433644242,0.06455278804662241,-0.03575833752123618,-0.030479388132421868,-0.05704286273862335,-0.10063164590330954,-0.06113009052798847,-0.08288320644398589,-0.036076665343762034,-0.08890905313631395
0.168,-0.049970035785525675,-0.06653051619190659,-0.016719807824238594,0.06002590681659251,-0.017400090463445206,-0.04220599586351303,-0.064292728157759,-0.10364962377588702,-0.06511187790368385,-0.0871586864351844,-0.04105311220402847,-0.09380274451316918
0.17,-0.03399114101615009,-0.06951544477756963,-0.03582598016148385,0.05424324038841239,0.00022820706555547863,-0.05345353467124341,-0.07013518835769288,-0.10539541901987892,-0.06856292601065049,-0.09288082681497316,-0.047731548995054905,-0.09971180555039673
0.172,-0.031303668992752345,-0.07225273209024653,-0.04106123603569819,0.05420100902884882,0.004053117381581022,-0.05808555704061528,-0.07223431819430413,-0.10665689837493116,-0.07412116384056866,-0.09977164209950895,-0.05507353471463358,-0.10603389524849377
0.174,-0.04284110624621195,-0.07647864685475686,-0.03341916028320931,0.06145301653876874,-0.005697968198656947,-0.05660052475639418,-0.07311636806354718,-0.111080338639949,-0.08253813508206635,-0.10626931009754696,-0.06272459147144625,-0.1144634428900447
0.176,-0.05817493501527576,-0.08178215917422112,-0.02316068470225125,0.07130964524349982,-0.01858252786782303,-0.05385744972444392,-0.07540654846078576,-0.11774888413295004,-0.08933044949425516,-0.10971056747656793,-0.07043687392011827,-0.12407576873583558
0.178,-0.06664703019882753,-0.0843247764356263,-0.017242630796304458,0.07705784245470634,-0.026093883461457964,-0.05184612641876549,-0.07891220630643339,-0.12196264245052457,-0.0904027920124107,-0.1102520848134568,-0.0782201850556063,-0.13099624771514704
0.18,-0.06727105077828052,-0.08083334069499207,-0.01338721905027594,0.07606169368479473,-0.029000252751263732,-0.04806334271264749,-0.08066040778417198,-0.12077007194134087,-0.08773705141807846,-0.11154690804071464,-0.08572764337860327,-0.13315905721347837
0.182,-0.0689419577025988,-0.07325812065776804,-0.004486232964039105,0.07292261402617894,-0.03465281912292045,-0.04007703894523868,-0.07679560160024686,-0.11484790217874005,-0.08581732753764876,-0.11583238585244038,-0.09126736510870274,-0.13205674597087863
0.184,-0.07630853671966986,-0.06612425491569167,0.009857447174792526,0.07235756842334544,-0.04487342344471782,-0.02969860840554832,-0.06748033427923382,-0.10762215865343099,-0.08605646010452787,-0.12121693089965938,-0.0932961151696095,-0.13023544168643766
0.186,-0.07934949359241199,-0.060073633346380904,0.01914374467807557,0.07043462601865205,-0.04969680699352649,-0.021944231700449155,-0.05875698997582358,-0.10234414160483639,-0.08708897851945635,-0.12403455541562336,-0.09235153420678013,-0.12815315339016614
0.188,-0.0662778353513394,-0.05196725164327752,0.014528124408090936,0.05993518856138814,-0.03994737929514231,-0.019726464141821814,-0.05572041377405885,-0.09930793479895954,-0.08831776510453333,-0.12209769776251467,-0.09018034657690288,-0.12377639633937874
0.19,-0.04127852154809272,-0.0418853761397603,-0.00028148426336718334,0.04247696436883519,-0.02044049365347435,-0.021928242424452342,-0.056779486964684274,-0.09746653404029097,-0.09099273295346506,-0.11676020948710403,-0.08800678550660036,-0.1164373051033024
0.192,-0.02106261924237256,-0.03593413060206043,-0.014757455117011351,0.028970320275412128,-0.004462774291125799,-0.02665087945349639,-0.0573926319769939,-0.09620932279697872,-0.0949764698964281,-0.11173160357453142,-0.08569628891869292,-0.10881686654031386
0.194,-0.019196270794096117,-0.039081980133746766,-0.019995135077612722,0.028924131761614496,-0.0018829988638875519,-0.03143969093215158,-0.05525286248440246,-0.09403376236228587,-0.09676909342055226,-0.1084726971529582,-0.08186357203672513,-0.10280686934408557
0.196,-0.03710061001262277,-0.048668713902617636,-0.011665019591183778,0.04235615425161244,-0.014667504623128613,-0.032174043181486506,-0.050014619585587776,-0.08928045101731781,-0.09282192299780985,-0.1046138546766157,-0.07569123339055599,-0.09688769087247033
0.198,-0.06303092861611174,-0.057925952718596435,0.0052141523100987484,0.060160330922920446,-0.035096301149001585,-0.027989873039808676,-0.04208560452336188,-0.08242925712779105,-0.08328674392289354,-0.0977872920802315,-0.0685856823505952,-0.08968443141613852
0.2,-0.07800576140490427,-0.06276645089005506,0.015499672715212609,0.0704070559456285,-0.047305914369590356,-0.024940750570412947,-0.034761525042112586,-0.07620738410769283,-0.0732982960411316,-0.09008754788945528,-0.06404323770346192,-0.08391962719592828
0.202,-0.06903063886996301,-0.0638919625347569,0.00526490124854149,0.06667160595052322,-0.03801578664004415,-0.030642413705010616,-0.03489166808076645,-0.07489872037483088,-0.07126029137335198,-0.08873146943866259,-0.06700361693889888,-0.085765559237582
0.204,-0.039438010150938355,-0.06412783190556183,-0.02489891841423331,0.05212255993317265,-0.008583049480049537,-0.0460322699865962,-0.046229112322409005,-0.08160608549928701,-0.08134903539524022,-0.09936197556547098,-0.08079835683824596,-0.09868459904629111
0.206,-0.007315596103600457,-0.0645642634085941,-0.05770965121235002,0.036535105059081925,0.023589509481385638,-0.06274957928494623,-0.062308773420917236,-0.09316887461136521,-0.09701273097667913,-0.11712501153776528,-0.10157450180639685,-0.11678934684922616
0.208,0.006719348412434102,-0.06388803379048182,-0.07118795189961959,0.02958452616607938,0.037047663072326896,-0.0691202821264411,-0.0704097090805085,-0.10011345335361524,-0.10647918413266916,-0.12957609293653163,-0.11860526199260765,-0.12858561421558964
0.21,-0.004306563714551676,-0.060403885369660355,-0.05675112009312202,0.033702904428704994,0.02400062758128791,-0.06000724111052057,-0.06350559280118132,-0.09496189685622654,-0.10434514351098817,-0.13012125919406226,-0.12317424907691701,-0.1287028362762482
0.212,-0.02753663113712182,-0.05405475148085198,-0.027079469777633976,0.04216686517324962,-0.0024833679639331575,-0.04149649512390874,-0.046615020202202886,-0.0804455380214734,-0.09505674293129968,-0.12332122649337225,-0.1158405515385286,-0.12093553482951734
0.214,-0.04298817200101212,-0.04781315389535779,-0.00504844754305938,0.046366708576672945,-0.020697476515530482,-0.026458216685563644,-0.031364671511478544,-0.06686219088024513,-0.08661206463385523,-0.11663240107393753,-0.10486100077478082,-0.11125122543483783
0.216,-0.04344009880629904,-0.04570262966820965,-0.0021293006899003367,0.04486739656500885,-0.021528484529317167,-0.023235101001517943,-0.024617285305161687,-0.06026581794700383,-0.08214801332889957,-0.112202132888056,-0.09846034345393637,-0.10351602763943446
0.218,-0.04037837606788761,-0.04819854773441596,-0.007512318183441847,0.044030581457997396,-0.016859858394118424,-0.027430671052290016,-0.022765482690137857,-0.05677126649141708,-0.07790181785595143,-0.10761272134428009,-0.09813882723855068,-0.09967989674038367
0.22,-0.04637876310825081,-0.05162642822399711,-0.004885978942853792,0.048575533479253134,-0.021416740718012934,-0.02896163705201811,-0.018483161810772253,-0.05057461926582784,-0.07120376796383032,-0.10218221749027119,-0.10057029032682943,-0.100117351876553
0.222,-0.054737304064793275,-0.052270570676035535,0.0028126980858573887,0.053247009735829666,-0.029684157277328795,-0.026295073596849988,-0.011454863636029211,-0.04283055923667588,-0.06677353091816471,-0.1000586438595132,-0.10448916652905349,-0.10384242757339814
0.224,-0.05163879318664358,-0.04970836441764275,0.002152340229851295,0.050879202075540565,-0.027511089587958403,-0.02508358822879239,-0.007027102720640777,-0.037876006029507005,-0.06813056924502704,-0.10288600535203223,-0.10874994907378824,-0.1070136925266999
0.226,-0.04585197730368245,-0.04659233365098492,-0.0006199628597637983,0.04723307120278673,-0.022876620390588482,-0.02418409297384819,-0.005044263910498132,-0.034396931697822,-0.06801788594620925,-0.10195549389401866,-0.10588828117810424,-0.10254340203471982
0.228,-0.060065881157183885,-0.04569376164111828,0.01459096095425479,0.054608242578351715,-0.03765127413686974,-0.016084351500807642,0.0003426580399211195,-0.027527716491575357,-0.05765020504724223,-0.0877051178156498,-0.08940900454865862,-0.08729280507025322
0.23,-0.09283019159022458,-0.04723685266686589,0.04594053242522425,0.07161221119313013,-0.07006567766850388,-0.0017824305795799188,0.008646309499743822,-0.018285280833966414,-0.040697177849749445,-0.06497719602632075,-0.06578771873727587,-0.06844022446793888
0.232,-0.11594649556945076,-0.04994917278193066,0.06615204578041119,0.08373344720308881,-0.092303343827568,0.006639138510268846,0.011276907093122231,-0.014219548283043821,-0.029259821108215425,-0.04843495849837012,-0.04904025144643616,-0.0565352922402922
0.234,-0.10925217438094648,-0.05295418115828496,0.05598854187164448,0.08177516727508209,-0.08454676007732063,0.0004102723963043395,0.003414894625374672,-0.020094379039584075,-0.029864000241450448,-0.04560766168091526,-0.045811615881712626,-0.05431672145934804
0.236,-0.08031957515991614,-0.05404437333009829,0.02571138779856597,0.0689233246774843,-0.05510696540671135,-0.014778057145796872,-0.009307990158648475,-0.031274181135700366,-0.03795407383645466,-0.051065877170171595,-0.05084541142955726,-0.05578180339081221
0.238,-0.05298554930284309,-0.050535351077799766,0.0021099667210237065,0.054658682683661676,-0.02904457845417849,-0.024884269742178073,-0.016885946244920513,-0.038361311296167135,-0.044002314652393494,-0.054206824281803255,-0.05395392299341279,-0.05366073332172445
0.24,-0.04617258186338608,-0.045335300299562155,0.0008963256298113251,0.04879325791970164,-0.024495545924546884,-0.023342376989412335,-0.015198963923850528,-0.03718433436910978,-0.043397184655733716,-0.04973430440935441,-0.04983015459150067,-0.046668177211045034
0.242,-0.060446555154139776,-0.045633330252324036,0.015021046009298877,0.055409769005227504,-0.038906190349988844,-0.016579340709799033,-0.009181635974282183,-0.0312953440453305,-0.03951143051966538,-0.04196039927701205,-0.042748588156155634,-0.0405039702636802
0.244,-0.0770389249280983,-0.052509824694561176,0.02460411114268668,0.06660813633768257,-0.0524284437124931,-0.014932107741836653,-0.006387801549921746,-0.027213229219448767,-0.03890100289119645,-0.04032803989372193,-0.042147092779350866,-0.04233877889417459
0.246,-0.07028708468967741,-0.058595133153632434,0.011617758207839167,0.06633660537516893,-0.04258786760653193,-0.024029495799245282,-0.010096696006530263,-0.0304421207042018,-0.04675355840714577,-0.05116361975662895,-0.054225629731478375,-0.05535726693283908
0.248,-0.029065260972769902,-0.05832875496910368,-0.029339750597977332,0.045903094937818356,-0.0013692603359095573,-0.044007526405904905,-0.01880791296728487,-0.04145810457949212,-0.06359227981226324,-0.07258692248620799,-0.07774357048543434,-0.0772753153187569
0.25,0.02899212671158454,-0.05470518998120305,-0.08369365731611689,0.015078702565512041,0.05487478700315354,-0.06941106726474973,-0.028637330785928915,-0.052532377418353114,-0.08183093039942545,-0.09497668786410242,-0.10427387764597852,-0.09981716944118454
0.252,0.06669102228416568,-0.05342304273997621,-0.12007085969146324,-0.004896782630143654,0.09207940534595975,-0.08771294081024988,-0.0343669949377266,-0.05301286880283181,-0.08909428661180714,-0.10569868429583744,-0.12048076744335603,-0.10980571823097156
0.254,0.058117892546347645,-0.0547671911008925,-0.11286644576057311,-0.0007633483951453959,0.08434351619572517,-0.08583093861955053,-0.0317166065780811,-0.04073881909480675,-0.08038557627020795,-0.0976957086872334,-0.11626587829316651,-0.0983964305105039
0.256,0.012321133775738737,-0.054283228456252115,-0.0666190182128029,0.021239404192076632,0.03800287537216858,-0.06277023714734241,-0.021657387246217456,-0.025036517167759342,-0.06385136847226351,-0.07619387392938497,-0.09455789814205834,-0.07167007296020289
0.258,-0.04021003530045895,-0.04954966222579111,-0.009356791370508566,0.04512308864201652,-0.01742667927461387,-0.030885416452148755,-0.009622302287629546,-0.015330869875104429,-0.049023176046704045,-0.0526512971141502,-0.06759893544369969,-0.04488324959144926
0.26,-0.07956054981659233,-0.044113033763895415,0.03544731542524145,0.062436957050962846,-0.05949133961036928,-0.004641405283005195,-0.0001080227529896216,-0.01112298024536409,-0.035687640110775846,-0.03319826396367271,-0.044235401337509465,-0.026659101482829326
0.262,-0.10159258221903916,-0.0433442168274453,0.05825763564219517,0.07326870434936274,-0.08126701532279973,0.007107523225855828,0.0033991592246274413,-0.008418950986411712,-0.022084355606037158,-0.019568430567915473,-0.028214457717555094,-0.016936135283861828
0.264,-0.10091745821745655,-0.04656002612355271,0.05436196923392288,0.07478624863297527,-0.07832919470533137,0.002354427171080144,-0.0034564557305804913,-0.009903854071934951,-0.015506422334963334,-0.015895772352308508,-0.024278924936382486,-0.01663131343766746
0.266,-0.07342792031424447,-0.04780064823250501,0.02562438028705182,0.06231437938912125,-0.05009698717408883,-0.01340988102424493,-0.02017083730894235,-0.019880417672789443,-0.023957629046508902,-0.024907126032829883,-0.035323432763913296,-0.028675418096489432
0.268,-0.034264867165858026,-0.045158070295177564,-0.010919000006379968,0.04186228634644121,-0.012608004662425731,-0.029573101591146202,-0.037209534299182945,-0.033611627455452736,-0.042341534674019535,-0.04134395517723895,-0.055927282803469903,-0.050435248733327685
0.27,-0.010197884244721792,-0.04142803115159311,-0.03136172697467744,0.02731211976284693,0.009484512362207691,-0.03632873820917182,-0.04352641287983295,-0.039590878791676186,-0.05501709093395844,-0.05522284278899758,-0.07608914138194615,-0.07167677397147848
0.272,-0.012350870003675804,-0.033660040603311944,-0.021634610910997935,0.0231129744912144,0.004070832391307221,-0.026750935590140964,-0.03398686381874615,-0.02844140964599613,-0.04829085806760046,-0.057417234901884905,-0.08822474375776207,-0.08014006593717153
0.274,-0.03087332510807058,-0.012938740568404036,0.017513068715726075,0.021271627086699805,-0.024124362231361995,0.0027098944498907193,-0.007902018299524185,0.0043170099827062065,-0.016584237797854107,-0.040774015643540884,-0.08670945043703294,-0.06917550518643707
0.276,-0.05092155564581454,0.019805394842167746,0.07047085032020746,0.015450819354143578,-0.06083754051444301,0.044456778577714254,0.031667458684793315,0.05748688004562496,0.03705811749128593,-0.0029695780491126368,-0.06717441339304313,-0.04374530347935359
0.278,-0.06066194183006548,0.048108491862298486,0.10877330577888947,0.007214518371789273,-0.08585582191090252,0.07676907256490206,0.07500917203861993,0.12171330244148075,0.10228397143362385,0.05048218523111354,-0.030163506323337284,-0.016829441705705384
0.28,-0.05264233527958948,0.05796234185578059,0.11059711206585675,-0.0011915606910089657,-0.08334860047510974,0.08218661450920324,0.10894729542688328,0.18225970845684444,0.16806000242010002,0.11216735960601923,0.020624415136452745,0.005704445246446689
0.282,-0.029447433390631696,0.05411974204647817,0.08319401545136125,-0.011223746707304931,-0.057423279822355615,0.06704486672143112,0.12592630145670994,0.2288240697612081,0.23164694037723002,0.18298865307543424,0.08653541095424594,0.03376974755429909
0.284,-0.000261765925635636,0.05221501589786806,0.05181220177777555,-0.025658267915223684,-0.025983625271687717,0.05151426670776467,0.12727016615646916,0.2636898248414228,0.30095860175676376,0.27348646000125626,0.17592431200803035,0.08208022433561535
0.286,0.033491633458850985,0.060902046853264245,0.027025102348049997,-0.047164522618834324,0.0036410186105492264,0.04422441483392876,0.1185832911389159,0.30039609263307215,0.38840400268379094,0.39524226398467804,0.2970258294429009,0.15556492209340878
0.288,0.0813032028894603,0.07879649241835222,-0.002185009246337743,-0.07925012892559227,0.04135365972764364,0.038223221621489854,0.10683479946127163,0.3535797088745063,0.50162631087589,0.5521591292486546,0.45177375985948787,0.2502505421297581
0.29,0.15114954269646966,0.1042035015554533,-0.04614009976086863,-0.12580715079581878,0.09721883433544007,0.02778148552198792,0.09988029272666592,0.42752384377536673,0.6371158469786611,0.7360853983562434,0.632746757417089,0.36086355953073995
0.292,0.23855773919423845,0.13758269732170084,-0.10024431497354021,-0.18626054222538746,0.16770362402519778,0.01661368164613617,0.10203231025970683,0.5133479990297279,0.7805270289909093,0.9259954963073233,0.820467634123126,0.4795685815498733
0.294,0.32978649498311674,0.175328812004267,-0.15414351006169635,-0.25207762379510784,0.240827438315028,0.009071105673485054,0.1088151003650485,0.5960317981199674,0.9126692784873366,1.094531191591943,0.9886154423029022,0.5932412325956978
0.296,0.41682919127782614,0.21038373175891972,-0.20655429605712086,-0.3140975727030509,0.3111285748762113,0.001825671836280904,0.10843545756429751,0.6606085498816223,1.0153051214360114,1.220152533283599,1.1178217350030535,0.6892917901006501
0.298,0.5053473381250264,0.24055382284894514,-0.2651200567763703,-0.3728092102256312,0.3844073419204851,-0.011479391825150842,0.09077362694112827,0.6947916548198514,1.0740827079729076,1.289784378242137,1.1994439843970295,0.7591604151877465
0.3,0.6004623561159556,0.2675303667036182,-0.33320821661830685,-0.43249586482492336,0.4649862445458426,-0.03255311558598922,0.05772412780516037,0.6960190559475231,1.0804215725526602,1.2877720065933627,1.2212825266123468,0.7911592754132352
0.302,0.6874535759216112,0.2808599444960906,-0.40674818439250215,-0.4822598225160307,0.5444267284340502,-0.06421121172771894,0.02447993887111133,0.6770221586794833,1.0310395188460117,1.1915574581585766,1.1579973476521492,0.7656921913298915
0.304,0.7405807298026024,0.2535510781237399,-0.4872428532171095,-0.4958413731580556,0.6113381390378257,-0.1195832689191611,0.00689204787617089,0.655731253754556,0.9266227917586366,0.9915228848089443,0.9921443436805891,0.6679286298321071
0.306,0.7541569223121348,0.17079605552183172,-0.5836895333966858,-0.4617360437386498,0.6671669828186003,-0.20960120764302678,0.007858272732534614,0.6386097020142301,0.7780482256334776,0.7193241414411744,0.7506295499566145,0.511292649083742
0.308,0.7492195046602009,0.057041838921941194,-0.6923265671448888,-0.40224705875897115,0.7197905118811853,-0.3200779372382283,0.01944322924665508,0.617896664147012,0.6114532415346925,0.4429952085376286,0.5025586764321555,0.34135097568110045
0.31,0.7439819159395099,-0.04280717535345821,-0.7864865816656734,-0.34965405934656246,0.7644906691746981,-0.41605106407949555,0.03379509603076246,0.5794079644074583,0.45010182199569615,0.21521788594884766,0.3017547206072288,0.2024808314349991
0.312,0.7298635112204069,-0.10671972922800797,-0.8360257893417213,-0.3109904297093528,0.782077094400686,-0.47231143399775355,0.044883080445072374,0.5057667674832903,0.2864906643964092,0.027297904340870927,0.13838830173463273,0.10064745691675296
0.314,0.6817269971299106,-0.14893640496482702,-0.8303224267356105,-0.2659757287089364,0.755197988072802,-0.4907953028127096,0.04411540131939124,0.37942102938850913,0.08790576424190913,-0.17111933026393428,-0.03723067115852638,0.008095026331370027
0.316,0.5875750576602538,-0.19197112488389237,-0.7795794779728613,-0.19696009926767372,0.6832012710390462,-0.48735938255869055,0.02607854003810169,0.201399710368696,-0.15726612194547743,-0.4032082488428768,-0.24624817799603105,-0.0974851572454633
0.318,0.4643097394958394,-0.23852272028056207,-0.7029075575185169,-0.11145318391534262,0.5837467710312909,-0.4724276791511071,2.5568183583448637e-05,0.011944123080276871,-0.40503712658915025,-0.6281120924520164,-0.45091450031862085,-0.20795992463992932
0.32,0.3420711815550345,-0.2805221650656386,-0.6223423444021633,-0.02901409143078591,0.4823131309828007,-0.45291523808747836,-0.017192111705330748,-0.13200656173260292,-0.5885159354192714,-0.7845332613144986,-0.597118113129218,-0.3009009122214524
0.322,0.23700830087761535,-0.32325304798858656,-0.5597659891325591,0.04490226581663784,0.3976361141876894,-0.4427393754341734,-0.02548253704364526,-0.21680382982689544,-0.6902382947992034,-0.8602962159124613,-0.6730574687273938,-0.36963623093509146
0.324,0.14402971568500333,-0.37896248579469544,-0.5226603239482323,0.11889486105166544,0.3313367153821225,-0.4521746831743747,-0.046629558098115254,-0.2884772017546031,-0.7576408560810028,-0.8960987438844714,-0.7097434528263612,-0.4242119099282018
0.326,0.05439243798155394,-0.4393197735899536,-0.4937626605257181,0.19316099466096573,0.2713268101294507,-0.4684474808769851,-0.09680972160388465,-0.3903731307511707,-0.8331657974151333,-0.924930875141687,-0.7327749818870136,-0.4684240211914333
0.328,-0.022937122399852072,-0.4734241399872711,-0.45080698578398437,0.24837971920401256,0.21157450329388833,-0.4644986874547957,-0.16234540874874412,-0.5025719370100463,-0.894682715763061,-0.9343160529497961,-0.7365822972919098,-0.4918630308348437
0.33,-0.06409391490737619,-0.45957206987889315,-0.3959096497214774,0.2623821260491805,0.16474691137050723,-0.429988585013928,-0.2112292580436356,-0.5653286224780634,-0.8893105834171947,-0.8944652334497654,-0.7066128112233304,-0.485274854433749
0.332,-0.059886923586992116,-0.4101122292730488,-0.3507187664245073,0.23642084341001735,0.14517423872272234,-0.38182970081772005,-0.22551663240796122,-0.5516376204606732,-0.8076477952563045,-0.8040939036066227,-0.6467338786526459,-0.45359523691845316
0.334,-0.03394414448436516,-0.35754361305133914,-0.32408690730795015,0.1978426555834113,0.144742667023986,-0.34134728743201237,-0.21554510976380797,-0.4924188717448667,-0.6950791927712482,-0.6940844097840826,-0.5753698268220504,-0.41034002356377586
0.336,-0.021912542188980453,-0.3218645937572397,-0.3002370683622377,0.17436095269364724,0.13830811284138805,-0.3116455434238688,-0.20287578782147608,-0.4324824513928883,-0.5971134515502524,-0.5932771430860089,-0.5042995946360238,-0.3638824319151459
0.338,-0.035806315012679855,-0.2993706668484246,-0.26351678332916784,0.17030297436828692,0.11301373626244944,-0.28320618527833363,-0.19689032199502424,-0.38536317303672185,-0.520229674578662,-0.5061775707299375,-0.43273703033762423,-0.31480547046463697
0.34,-0.055872915540362895,-0.27728293587216823,-0.22124585639813643,0.16919326319956637,0.08225779943325534,-0.25219581427393223,-0.19067387769808508,-0.33742561305006924,-0.4472419080399922,-0.42502429518350243,-0.3602047127045522,-0.2647934443194401
0.342,-0.060675600680785646,-0.24845718128296113,-0.18783733904310018,0.1565760904224131,0.06313330288458935,-0.22123907752095243,-0.17284240375968665,-0.2775116920414698,-0.3684132960866866,-0.34775909577870684,-0.29322998751983526,-0.21913970572834748
0.344,-0.056667108746222605,-0.2127067801574251,-0.1562976693365992,0.13598183726435975,0.04883386531884442,-0.18697117222994092,-0.13926991845587416,-0.20957723348064117,-0.28754747842346307,-0.2761402453044168,-0.23581185112596814,-0.17869433243701094
0.346,-0.06304263385094908,-0.17279030513258656,-0.1099145948250867,0.1188493485578852,0.02206621632112736,-0.143154596465787,-0.09784974453140821,-0.14514596751522263,-0.21170707564456892,-0.2095671434668946,-0.18414349792995835,-0.1392059352756149
0.348,-0.07478673732259292,-0.1339339953548284,-0.059099736849599065,0.1053136858795184,-0.009030347424667717,-0.09797242069964283,-0.06505892191931745,-0.09649295050552045,-0.14943298792377493,-0.15234816567101755,-0.13797238293568354,-0.10316060232301376
0.35,-0.0669942216985038,-0.1029746570540998,-0.03586268495933313,0.08607854474857224,-0.016316906155251307,-0.07101355836229094,-0.05351497889780994,-0.07331479158435757,-0.11148832593016238,-0.11638684837476838,-0.10699006477665479,-0.08195323910956318
0.352,-0.035857231528824154,-0.08230199236172821,-0.04641145686893968,0.060038817085186734,0.004444911537141676,-0.0665579771621585,-0.05932028613671013,-0.07440002071318046,-0.09921952996612457,-0.10516755517188944,-0.09638562209170401,-0.07931238897520262
0.354,-0.008146564496147809,-0.06862098427390757,-0.06052226566630913,0.03882782858085136,0.02450952670571717,-0.06733240289316035,-0.06663311606615023,-0.08553149497742678,-0.09889882389976,-0.10517396778251513,-0.09678543028208864,-0.08364110778902448
0.356,-0.003322785791470522,-0.060731027429767895,-0.05742754796694856,0.03223054430443602,0.024510620215043306,-0.06172117469428519,-0.06797871783751722,-0.09468080731167702,-0.09864806817814546,-0.10343520691011951,-0.09877049306871856,-0.085298159035105
0.358,-0.010246128876983219,-0.06030969229804691,-0.04994792039055172,0.03613953161939857,0.017292428977287506,-0.0569944399468937,-0.0714829202064672,-0.103640387455315,-0.10058331774873053,-0.10237965253395792,-0.1051974368497616,-0.08871461102194934
0.36,-0.013555260762181998,-0.06406624709988885,-0.05028940226862827,0.04067953651737017,0.016572320257848768,-0.05842404995412212,-0.0826082002068121,-0.11625329684591856,-0.10696949652775223,-0.10721230815400618,-0.1182820509279804,-0.09800833517486772
0.362,-0.01936436699092206,-0.06496962734151251,-0.045501312137058596,0.04437218465335405,0.01201047709152522,-0.05664669463041291,-0.0911366813470866,-0.12489829104417716,-0.10854514374160588,-0.11077705812223544,-0.12705460450747785,-0.1048454218529624
0.364,-0.037160505121846446,-0.06100645876363837,-0.02400079212761377,0.05094736288420454,-0.007422077695030967,-0.04427957910866052,-0.08678913541025156,-0.12050006337061138,-0.09760783358818391,-0.10320372358631438,-0.12039619165666124,-0.10117101389372819
0.366,-0.058158991845186254,-0.05633659306085235,0.0016850195372245874,0.05869522047377858,-0.030817361709509307,-0.028586611498016938,-0.07592991144462773,-0.1073616246164473,-0.08096408454226985,-0.08831118208009882,-0.10373188788547535,-0.09181814410071669
0.368,-0.06990139407711257,-0.05536789635523719,0.01487291001258686,0.0636346231390937,-0.04313700405890014,-0.020253837572673256,-0.07037693457939188,-0.09635014335252245,-0.06991488817538535,-0.07854968745271006,-0.09108658886199994,-0.08510724066412323
0.37,-0.07705241288224876,-0.05862241162720768,0.01926812952113192,0.06840281496744248,-0.04847457570072727,-0.019141457599977103,-0.0693582050358254,-0.08952409164430296,-0.06498371671987048,-0.0767002258604701,-0.08618953519478038,-0.08006515012699492
0.372,-0.09119327540223421,-0.062406318269098246,0.029576649834877383,0.0776375246962017,-0.060316389246476025,-0.016954321449034294,-0.06441976507081296,-0.08157243814559587,-0.05875540050709083,-0.07334729775450942,-0.08193648828434547,-0.07091327945642084
0.374,-0.10515091869651826,-0.060981244180271114,0.044407867482865175,0.08505729359263607,-0.07464928542935399,-0.010648305609480761,-0.055828904470903704,-0.07315371682893296,-0.05049083828613091,-0.06371976470660992,-0.0754795308361033,-0.059178063739016726
0.376,-0.09629567867153027,-0.05161001275839599,0.04445779997165982,0.07696680521825752,-0.07031960387977908,-0.00699423814403698,-0.05326207647583877,-0.07279622406700029,-0.04919408326723012,-0.05605611993624116,-0.07302393960838559,-0.05390384428658433
0.378,-0.06087575605601754,-0.03868831775520392,0.021946708548360543,0.05279598964217198,-0.04138477422624539,-0.011703476700306097,-0.061651684875425175,-0.08445794413733795,-0.06003749590325445,-0.058326394269545195,-0.07828399401565977,-0.05919058286077136
0.38,-0.02630207284103707,-0.030220657847561207,-0.003920192603168489,0.03041555300186845,-0.011477591604195146,-0.01989031210631541,-0.07402417178769653,-0.10098147489443998,-0.0753520790690547,-0.06612877519052139,-0.08446130164554884,-0.06697184533584187
0.382,-0.021082123026202097,-0.02963730720988752,-0.008406015292331903,0.02643213659708286,-0.00738382833073101,-0.021319134772064974,-0.07904951996240478,-0.11124320263096359,-0.0825332923666466,-0.06866809872541448,-0.08119746873555334,-0.06567036456695105
0.384,-0.0452925659522993,-0.03244252672100468,0.013043288589136637,0.03912798343662804,-0.030714659716949883,-0.01120456172576755,-0.07154270604428294,-0.10850673137339256,-0.07564457124949472,-0.06036571402264426,-0.06564181426633778,-0.05305410242248901
0.386,-0.07522015362854442,-0.031749748290108834,0.043758519757347764,0.05350262426392756,-0.0607332709543846,0.005452920952324936,-0.05561130870352577,-0.09344115570805382,-0.05855244738265188,-0.04481888623300819,-0.044867793482258236,-0.03755808416465562
0.388,-0.0908081636512502,-0.02736987420072892,0.06380847593172043,0.05951138560030238,-0.07822232956388663,0.018025192724673338,-0.039986642600062,-0.07353826565772331,-0.04050899610350897,-0.03050665394673015,-0.028861252494104976,-0.02824334818237621
0.39,-0.09095509820221885,-0.025879203423068417,0.06532782979422243,0.059600635566515354,-0.07965353983043774,0.019043128395262357,-0.03163064839203296,-0.058228177380086794,-0.029067505105322605,-0.022767431506824583,-0.022499169834983818,-0.02699098069154526
0.392,-0.08003702354691627,-0.030195879881786,0.04984232807770338,0.05685945659196956,-0.06748342695336229,0.008512506250119095,-0.03337117615168381,-0.052977684636245546,-0.026888013480976344,-0.021391891459939593,-0.025353055630212465,-0.031852497359520865
0.394,-0.05521092792900047,-0.03484386523916813,0.020236055711491476,0.04682051198766196,-0.04044863955934468,-0.008620848359293935,-0.04326131559328465,-0.05765555665398717,-0.03411272451874944,-0.02609183827155724,-0.03634404350495511,-0.0426452562297987
0.396,-0.0183225203732866,-0.03360916628581972,-0.01535745325941468,0.02758657559253822,-0.003240168496381494,-0.025169152464064225,-0.05444514597319606,-0.06802517010929303,-0.0491934319814666,-0.03783794764574984,-0.053376583184954904,-0.05835634792052512
0.398,0.016094655364116132,-0.02657875409682286,-0.042638975526868156,0.006922859331796707,0.02876178708044731,-0.0347531304444626,-0.06046189535406067,-0.07851146595296643,-0.06623888469556316,-0.05301027392867813,-0.0701681723509423,-0.07313720571836123
0.4,0.035096612506854905,-0.017545733035396836,-0.05258737062645497,-0.00685794425857751,0.04366576534271042,-0.035295514214106274,-0.060458578623307106,-0.08500087308898945,-0.0764303368428624,-0.06300992429475796,-0.07872271159423687,-0.07921942869460431
0.402,0.03389243267335752,-0.009281221641395781,-0.043143860289057916,-0.010388972237815052,0.03805722348876503,-0.026716212060190817,-0.05553336781811939,-0.08482959269360951,-0.07443259159844755,-0.06164870880239131,-0.07485189803939478,-0.07264965804188113
0.404,0.008736272491720213,-0.004007510952363046,-0.012638566426003596,-0.0008116714240089607,0.009743442470590665,-0.008689402436896213,-0.04551394405580175,-0.07670715265759477,-0.06169385353404846,-0.04991293007775796,-0.06073340631864414,-0.056440605406733804
0.406,-0.03420295689167659,-0.003281588039202556,0.031232037722346166,0.019679998798473652,-0.0339872648584757,0.013761312710889248,-0.0332022246847038,-0.06319865842006661,-0.0439977152296991,-0.034656275477821165,-0.044104360649559686,-0.038887548638001965
0.408,-0.07021959169976864,-0.004117650257451965,0.06650883012580734,0.03741197601221288,-0.06985961169311554,0.03037003461778992,-0.023640569472592705,-0.04936235498083151,-0.027161878285933094,-0.022762546482732758,-0.03287073822936872,-0.026321379434560897
0.41,-0.08098545508838934,-0.00036899174797396547,0.08075279483583116,0.04070842484870454,-0.08257330755521726,0.03820420567505773,-0.016413198749297246,-0.03739155583064139,-0.013590155784389076,-0.014083562533442772,-0.02760506277842495,-0.017474282665900977
0.412,-0.0775655919022989,0.008752877850246438,0.08596776397014032,0.03523412482958832,-0.08330185960161395,0.04472112228167658,-0.007116543082452348,-0.02716168845906782,-0.002503579772058879,-0.0034044516459435965,-0.022533943904725903,-0.008042430202613922
0.414,-0.07866569008838577,0.016159301891367352,0.09425112425816178,0.03330722681871863,-0.087252322959122,0.053034475250888335,0.002489873093181881,-0.02142541742547059,0.005369343933303413,0.008827717822469683,-0.015297539633578409,0.0006580150114694828
0.416,-0.07922181485920156,0.01623284505218969,0.09513199053106897,0.033969346941600816,-0.08735456535041874,0.05466723328486962,0.003672899435720939,-0.024690583142812514,0.0058794484852956255,0.0150748300799317,-0.010575163424138978,0.002352277842393813
0.418,-0.061118628684989226,0.012190729753247326,0.07336033599366451,0.026318242219564428,-0.0676104014856459,0.04264241467641792,-0.008312121708128173,-0.03685968911968725,-0.0028182791382432453,0.012064607387369475,-0.012499979216086261,-0.005049766185475917
0.42,-0.026421435550310828,0.010903617907075778,0.037398620001523795,0.008930871926385439,-0.032751401542699676,0.0239033865047378,-0.027070351489914005,-0.05202571822778871,-0.015495603715722311,0.0056641337279448225,-0.01823978795909837,-0.015507693304785136
0.422,0.0024567032441980834,0.014832263276634559,0.012136123690257817,-0.007340702657506291,-0.005524591817240639,0.012190838488558136,-0.040969693244535005,-0.06337446173620473,-0.0243700094180991,0.002914720483667755,-0.021272766978887407,-0.021574418982190903
0.424,0.012480054858529875,0.02165150397933986,0.008803286530571343,-0.01497708395333128,0.0016419982651878157,0.01295874660334062,-0.044451816439961385,-0.06691342351066021,-0.025852003445638927,0.005684399449685855,-0.017774380234489892,-0.021305125953126502
0.426,0.008472315220241035,0.028007985909937968,0.019534905488062047,-0.01569632671083823,-0.005793428439585425,0.021672109978766303,-0.04110435992995535,-0.061588332905233203,-0.01996251013982309,0.012862509276423347,-0.007290723491403093,-0.015587821141034627
0.428,-0.003459996528239756,0.03165904304813283,0.03557416552816265,-0.012091913703100417,-0.020231075167788645,0.03261458268695341,-0.03706693488966695,-0.04978514828590596,-0.00814201225791055,0.02321586376156775,0.008817945750510824,-0.003802548931515884
0.43,-0.018817526870778877,0.032675779122881415,0.05193739962522239,-0.005996113652000207,-0.036120134154373,0.042024846004721006,-0.036031102549498394,-0.0391199401995492,0.0036572301265199707,0.03387360873578789,0.02501233986316999,0.011919818521729924
0.432,-0.026092872130993688,0.03304882064519857,0.059217858409893354,-0.003309649560169175,-0.04316291838875641,0.04554504292180213,-0.039919588681168884,-0.0387700863265166,0.006309625608650695,0.039578950803463867,0.032419381087350256,0.02370545658985923
0.434,-0.015446265288611833,0.033097349551915185,0.048489599354856035,-0.008744748506686564,-0.03291518029113385,0.03960679834095397,-0.048876717222331896,-0.049731909288848374,-0.0019629938637406655,0.03748443684798464,0.028144992008094297,0.0260339226245773
0.436,0.006384499069046576,0.03097556574340842,0.024935680252147013,-0.018038932682861445,-0.01136222080025082,0.026899370192904393,-0.05963081474036815,-0.062063939925462414,-0.011799567347192829,0.032144250852228586,0.020185257401179314,0.022337712436065832
0.438,0.022826643143729574,0.02803230041310089,0.006131493442492992,-0.024025917004611215,0.00568832611119555,0.01686886134565317,-0.0670253501635745,-0.06553235024548304,-0.013589244906316607,0.03126500656324771,0.018208641086727092,0.01903751722193045
0.44,0.02819915113075035,0.029381219362837142,0.002282872748276039,-0.027240662591847736,0.011152534282348926,0.016144813495554328,-0.06926857933772518,-0.06120395637403618,-0.008670717171924549,0.034736520275471444,0.021522729141098807,0.01651911933712899
0.442,0.035268419582913074,0.03637571964642228,0.001781365706632073,-0.03499370642860922,0.016255156323515086,0.018817742412299318,-0.07160538028003184,-0.059823946533859654,-0.007674877184247445,0.032859298203303224,0.019698779119045304,0.008896140235118241
0.444,0.058511529748166854,0.0439053465623512,-0.014563603408356897,-0.05117701146017398,0.0361968541511675,0.013045042190552025,-0.08085738375233227,-0.0680594758904458,-0.017559146606964553,0.019851273258424115,0.006059094254332613,-0.007421693641673548
0.446,0.08823062502985257,0.0474216021655915,-0.04107530159113385,-0.06780095034999871,0.06333619019982749,0.00035619189944661274,-0.09348027740583698,-0.07792470908624445,-0.030031381473361846,0.005392446267242241,-0.010687813365475406,-0.024622467028508854
0.448,0.09008910119670138,0.04815706792580687,-0.042087382517290134,-0.06840583349945678,0.06422709012351419,-6.153394832684794e-05,-0.0946827877646489,-0.07346896530781503,-0.026843575592929454,0.007607043302267021,-0.011490992273317091,-0.025771301683242587
0.45,0.041702448476108184,0.04988593707787886,0.008243652604617322,-0.04450530303955631,0.015356204508844368,0.026680589994678646,-0.07506753094409185,-0.049045599873175444,-0.00016065022883583616,0.03532722487026398,0.014222980686983223,-0.0009601780674351359
0.452,-0.03557682296142585,0.054654736458650585,0.09034210777299974,-0.008184030150124604,-0.06384301094837751,0.07136550016437881,-0.0444902307561843,-0.017807934129406136,0.03610133705501026,0.07848156771772848,0.056648632631521936,0.04055267933349229
0.454,-0.0923745454117868,0.06247469492183791,0.1548696357055192,0.016379497007591642,-0.1249276243874646,0.10865812645341243,-0.024840983018715006,-0.0008478748832326552,0.05875217916744594,0.11464334066316549,0.09422443357802443,0.07808282022370112
0.456,-0.09741688284056915,0.07131742426310878,0.16868426048093763,0.014983425457222255,-0.1352849424077946,0.12041580904710067,-0.029903687664924312,-0.009150368536507292,0.05708502063269379,0.12719366451283884,0.11247108376804205,0.09707729150301615
0.458,-0.06369793077905292,0.07846140459109428,0.14212443439173528,-0.004977455143999066,-0.105433244613546,0.1102775518113849,-0.052635174169402936,-0.03422856901292551,0.04215994566814448,0.12046123939053291,0.11459885357136859,0.09852350192170435
0.46,-0.029610945286307335,0.08431418501650556,0.11393574792223687,-0.025133148835225026,-0.07338169256253449,0.09814118209492616,-0.07281968443334227,-0.05603266333818725,0.03453706934413376,0.11348326742732681,0.11491875711905257,0.09446763489186563
0.462,-0.015515190604897712,0.09151683997496388,0.10705612277671447,-0.03640104654580084,-0.06153729277321588,0.09750491151563105,-0.07886445832196545,-0.06351798313827843,0.040781762159694805,0.11667311315680597,0.12122936189288036,0.09412319557948436
0.464,-0.006757155123233703,0.10004479245327214,0.1068076551409574,-0.045247360103735666,-0.056599713919704406,0.10161128767358299,-0.07719909463284419,-0.0635002242503605,0.048045120873231824,0.12258389936242184,0.12777884314825866,0.09561630701033721
0.466,0.0146446685306201,0.10675168169400255,0.09209659301382693,-0.05879856568317667,-0.039380133791760315,0.09821824983454695,-0.07774244574942561,-0.06512621791337217,0.04507325135310883,0.12108193651471874,0.1275210326125212,0.09336411071402231
0.468,0.038322962392086254,0.10847452899901934,0.07012153621737122,-0.07109523522922201,-0.01744746751559339,0.08868387310670824,-0.07980853095821396,-0.0659605156976584,0.036298665985187974,0.11228968495329336,0.12199896819708744,0.0878310159988945
0.47,0.04310011518290498,0.10486235591381277,0.06165468676857378,-0.07218749777119009,-0.010578882997619847,0.08281983857845983,-0.07737496806767226,-0.06052496059952139,0.030488936616790252,0.10233230179186849,0.11556998769054222,0.08373776154112696
0.472,0.0321800599069596,0.10034055224616838,0.06796967467175559,-0.06542641544227629,-0.018164891952629058,0.0835431115989613,-0.07026889692818729,-0.0522190383975741,0.028572150089593813,0.09558177347383671,0.10946849283220983,0.08339477617576362
0.474,0.025105782821935093,0.10086695676479702,0.07564557840578813,-0.06251494125311825,-0.024901529234219878,0.08725471374036085,-0.0640305162138816,-0.04848251707904057,0.02826636872976418,0.09392812115058251,0.10560207392506504,0.08624751160745965
0.476,0.021752193427142505,0.1058134033966066,0.08411674479507471,-0.06313449954388788,-0.03111383455978491,0.0934831041330094,-0.06265286503568906,-0.05093444960225382,0.03028422144625246,0.09818005812265665,0.10827476000898549,0.09204263364427351
0.478,0.007536366538792483,0.10797095843254649,0.10051783898147032,-0.05724973469758407,-0.0474392595218481,0.10242407570065155,-0.06656446338362253,-0.05735564497029963,0.033715000623318836,0.10560488981769854,0.11691778602409539,0.09929359414446522
0.48,-0.008729256073242958,0.10526498501966619,0.11401946311287726,-0.0481833342100879,-0.06352333762506573,0.10786001294941286,-0.07428110096099808,-0.06751454564777393,0.03307558421071393,0.10897683461483178,0.12314989967780539,0.10309544814075033
0.482,-0.0022200478823808266,0.10526107994020714,0.10756676470892919,-0.05128172230306058,-0.05772821042509609,0.10495323698771666,-0.08179834679526386,-0.07999969351762641,0.026144826646784088,0.10449358517026565,0.1211702639199704,0.10057924630636132
0.484,0.024115103213513383,0.11325014364381687,0.08930730423334424,-0.06765576822521681,-0.035092526343778074,0.09981856650313232,-0.08446932660763938,-0.08885283058149425,0.019061653282429914,0.09820436168556464,0.11625887150927702,0.09614812368861234
0.486,0.03983863216924585,0.12272638546063135,0.0830190871252183,-0.07977338207721675,-0.02305553811207696,0.10076296421330792,-0.08187268123602613,-0.08940211470949287,0.018994130934184644,0.09775437765947315,0.11679911528031986,0.09583811307638226
0.488,0.03029363846164122,0.12340034150066541,0.0932092689449252,-0.07577783129511403,-0.032182195779562224,0.1056377037971637,-0.07726782015840025,-0.08322359041538424,0.025275967178666123,0.10145629089447021,0.12196078634244115,0.09910521924496063
0.49,0.014624932602608047,0.11525980365056879,0.1008847482777713,-0.06460347866894416,-0.043836201406510934,0.10581554558721486,-0.07301944039072601,-0.07523747068186826,0.03030393974533661,0.10176176112910709,0.12348723047018616,0.10035923981619312
0.492,0.016748348302399498,0.10806102617410226,0.09168901781449268,-0.061916361390692745,-0.038439564695808996,0.0987457979314393,-0.06938185574610636,-0.06946325142359616,0.028375791401254923,0.09586087885542147,0.11762543589936347,0.09676114799791574
0.494,0.032295351976157544,0.10676642785618684,0.07462551808348007,-0.0680368640385174,-0.022301371876044727,0.09047502564142,-0.06540300609501214,-0.06670147156182031,0.022617826472448633,0.08885489012432345,0.11026743967181138,0.09181537473747345
0.496,0.0367816414556179,0.10565828261391907,0.0685514813382007,-0.06921802486240662,-0.01720194472175409,0.08699277713488694,-0.059588035760263454,-0.06435881465678826,0.021272280011849023,0.08847475740992818,0.10984495160240801,0.09111249254124253
0.498,0.022197724759422985,0.09965820686164403,0.07688907362615216,-0.059490407653606324,-0.029047590325304313,0.0876253719785769,-0.052448027759047326,-0.060782365528535824,0.027414229980501446,0.09664388619521509,0.11717980232388155,0.09508193079570379
0.5,0.011027574529812553,0.0930810971991606,0.08171810690616432,-0.051183114274097934,-0.037548802418246485,0.08629239615864158,-0.04868828504658842,-0.05990228049154984,0.034577922971749185,0.10477109232334075,0.12299549213980358,0.09719360736460166
0.502,0.027965103888188753,0.09199060614573978,0.06409097767441686,-0.058908250537896806,-0.02057176327815055,0.07694633992937237,-0.05318517449834002,-0.06755920567059526,0.03246271257854771,0.10122048629219912,0.11701567545011694,0.09147783371422309
0.504,0.06346171112415123,0.09432184063052798,0.031068406667720965,-0.0776345433129447,0.013712113376419728,0.06152206099582985,-0.06298187903555502,-0.0808856392801868,0.018817270373549477,0.0868495768224566,0.10229038486801527,0.08233980163394372
0.506,0.07701716670806741,0.09502635246831287,0.018080910752191464,-0.08535101842552954,0.02718468223496019,0.05469153420333106,-0.06557851271321506,-0.08441895539689144,0.007944076371908262,0.07859431456002365,0.09755448229622683,0.08376647774784828
0.508,0.04403210352390899,0.09674209836515793,0.052612043985674435,-0.07035469007060562,-0.006224114464934657,0.07203214511279636,-0.04989910209081399,-0.06398473723614692,0.019286281284057946,0.09128924269408296,0.11740814703493657,0.10431014678558657
0.51,-0.007406190485387786,0.10606611982028356,0.11326566220541284,-0.048861540855613825,-0.06164526609552818,0.10687271156920612,-0.02145157180534086,-0.026816346906666153,0.050925895516529596,0.11752161633404816,0.1505771501966849,0.1327971922268554
0.512,-0.023607497212814518,0.12093296945798321,0.14421814026540436,-0.04700433464123584,-0.08456798010649648,0.13010841457412073,-0.00031866783726575165,0.0011260168506768262,0.07637763372486203,0.1334549168102403,0.16873279950765574,0.1456752861780493
0.514,0.010295543534298108,0.12961340765621499,0.11893864443822869,-0.06769457366485285,-0.05484966418817095,0.12203680634661178,0.00098928330040455,0.003320002729268861,0.07551037210096233,0.1256266318248082,0.15824889458334981,0.13169414132294455
0.516,0.056610315127809764,0.12340019823507198,0.06655228425254281,-0.08805679076335458,-0.006003610200387813,0.09295128212699488,-0.009961149483945423,-0.010799872881929209,0.05586188197053727,0.10367766748320568,0.13159997983206165,0.10279451203536767
0.518,0.07772814175889022,0.10675018097733034,0.029032625889993637,-0.09054886904317978,0.02261824809160357,0.06657063069598827,-0.018842035544833092,-0.021710228478685395,0.03841512183519587,0.08515893881579031,0.10736516067375636,0.07828088919607372
0.52,0.07279885848871294,0.09238733845834865,0.019695346595272983,-0.08049657152289547,0.024336064025095208,0.05569470228411104,-0.01976836247423904,-0.021317605521054134,0.03489635161594253,0.0769854224517226,0.09211483289447181,0.06597339054737864
0.522,0.05697502495080016,0.08752212776903721,0.030479120388384212,-0.06954250339186487,0.010964378003207122,0.05896722691432151,-0.012462792595679449,-0.01198237509090549,0.04386618938533144,0.07615716126134124,0.08410637937327951,0.06257040397270444
0.524,0.03364796724225864,0.08810932175609952,0.05411907241727624,-0.05803690321477794,-0.012181668737455124,0.07045026830954572,0.004079224400154505,0.004853267642068423,0.059243779206524294,0.08014322451627773,0.08290252674558646,0.06445802846050541
0.526,0.0017196821676645465,0.08605950209234046,0.08401844246609928,-0.04150115325989021,-0.04273614831485971,0.08358466181498235,0.026516887111378416,0.026610307829185137,0.07446582791965581,0.08682183687038882,0.08768458968116853,0.06990913749858274
0.528,-0.027906037375583545,0.07830223074260255,0.10638436865507538,-0.023453298701389853,-0.0686755903949642,0.09056939885435221,0.044204955976273996,0.043649334400659184,0.08253716913909642,0.0892424379239804,0.09211644154742052,0.07455758097103389
0.53,-0.04123291522973715,0.06766633342607017,0.10956941082104336,-0.011741244840525307,-0.0770057401986339,0.0868777469700838,0.04940995151041886,0.047793028416919334,0.08002207022738189,0.0816394337932804,0.0889203047094734,0.072823644385206
0.532,-0.03543404612470831,0.05779549781809051,0.09371925211373104,-0.009362638644431232,-0.066131886371718,0.07415195373657264,0.04433509942481205,0.04104449319817644,0.06956842369158542,0.06711730925208925,0.07654503496730376,0.06265411603186001
0.534,-0.012373944392712671,0.04985068340343561,0.06195696390513658,-0.0165610319813685,-0.038614188303028,0.05439940043217436,0.03451357799154997,0.029558018601818326,0.05500187296641094,0.05147686101178383,0.05746378108573104,0.04511234792121345
0.536,0.024732063901341805,0.042989948053089456,0.01744581719647485,-0.03217267004973554,0.00219845642214536,0.028820196134739514,0.023274481322910427,0.016756080654025646,0.03827173482754159,0.03588775814963359,0.0353282779999814,0.023003766658591333
0.538,0.06208005083719456,0.03644345862562553,-0.026300726130582174,-0.048623008520660045,0.04265201657003821,0.0040542770208225505,0.014378805138435383,0.004992582163099585,0.022760662960010405,0.0210380598442568,0.015876425731545796,0.002222821874159009
0.54,0.08119255449314725,0.030874515282205955,-0.05044159752620267,-0.055723446521703295,0.06425015049614559,-0.010340589129297958,0.012268094358099795,-0.0027085548941536567,0.01348364258646746,0.010842771286781445,0.004686955315084954,-0.010375185905691598
0.542,0.07336314723287896,0.0267904083909878,-0.04634813422988736,-0.049052051725282785,0.058418911689416236,-0.010539861243317943,0.01808874073371508,-0.0038804863521854902,0.012160337795968389,0.008375297055471914,0.0024143832840539743,-0.012745541100821706
0.544,0.04151872482861142,0.023064443110789163,-0.018281980791443563,-0.03061169385303261,0.02856232085661523,0.0008323681143923228,0.02895654535215874,0.0018461114085192743,0.015835119642107074,0.012284576953773827,0.004727372472334835,-0.009458896702406475
0.546,-0.0007642423228855473,0.018358980080050564,0.019113146809162127,-0.007304357053355658,-0.011295869176963081,0.01694569075755865,0.040515421928099773,0.010986581387737946,0.020473376240682805,0.017062865006730564,0.005822172727298222,-0.007683711090425429
0.548,-0.03303744813658235,0.011491788021635986,0.044554243583926255,0.011612854980317742,-0.039930362298340794,0.02705079339159867,0.049298956825413645,0.017736487285094634,0.023236251610506787,0.01589248206097903,0.0013945080842309482,-0.011627150717934461
0.55,-0.044267651272124744,0.0021383562412286526,0.04670006625928471,0.021426755690465496,-0.04609372945999549,0.02425303082952777,0.05426190959575787,0.020045602671057695,0.02235551671484359,0.006709663899582325,-0.008696480256233166,-0.019908897873230743
0.552,-0.041944164816541535,-0.0057013742912095655,0.03670706020399371,0.02420193247073973,-0.039696152234877505,0.015034887315264058,0.05653230929138059,0.02137158343970862,0.017949793304904666,-0.0049926125010780874,-0.020001241631409993,-0.02766473177652655
0.554,-0.03943443215357896,-0.005809171928313131,0.03391876858594739,0.023489422132538643,-0.03729880092588289,0.012563133700721521,0.058032147789349335,0.024608713932612575,0.012975401509944666,-0.012446997323797938,-0.027507237315978726,-0.03100973175884699
0.556,-0.04277735859975394,0.0017778011603625749,0.044524889977225035,0.02183858451463141,-0.04456566193531069,0.021053043402458792,0.06069580051297592,0.027761007584621633,0.010804008733497048,-0.014151072887543246,-0.029811198403046524,-0.030130224613400702
0.558,-0.04850986206653344,0.009376163243400107,0.057717333415154996,0.020968543646267004,-0.054100268263857144,0.031453212299037074,0.06403933408353277,0.025940000009013718,0.010290162620312184,-0.013949198157047238,-0.030151691233627494,-0.029749933415246635
0.56,-0.04516205240488248,0.010198946243542102,0.05528936148865228,0.01896397362048112,-0.05111668594152037,0.030618951007948886,0.06281913187268265,0.015842660449703144,0.0055199998965165115,-0.01827100654738709,-0.03467358559832215,-0.03613041337455812
0.562,-0.025209876942776627,0.004600084613829143,0.029864563005572817,0.012372345926532526,-0.028291091146360758,0.014980208741399466,0.05264487664372591,0.0008610093722547057,-0.005816618814761546,-0.03003729339621361,-0.04635233257074397,-0.04986412604105002
0.564,-0.0007089578965910484,-0.0020401742329878925,-0.0012661567299916418,0.0041366611260650575,-0.0005412694726841119,-0.0035907106758104896,0.03867771319766357,-0.008814755523847948,-0.016194065777706632,-0.04294295931255604,-0.059120332650311844,-0.06177851180222646
0.566,0.005456253096635531,-0.005524486991148883,-0.010979074791829283,0.002951408470332118,0.007010574334369449,-0.009468221766876858,0.03216766697773272,-0.006083580400726018,-0.016311802861109774,-0.04720647876785056,-0.06272097781768178,-0.061434319331497574
0.568,-0.01506174923734118,-0.0076219418289456,0.007405249038774154,0.01383267264841401,-0.012990577923640396,-0.0009002492595252021,0.037462346735473086,0.004854280820581482,-0.0074347848994273085,-0.041147367768222226,-0.05466675552313445,-0.04978474342684708
0.57,-0.04720445464746649,-0.013494779501055442,0.03367032215738101,0.03225395980118964,-0.04260737942110733,0.008916851007489747,0.04737284729916999,0.013747118404350242,-3.796141854717813e-05,-0.03255806690871807,-0.043684795500394585,-0.03838904811321842
0.572,-0.06407899804158253,-0.023394828123705448,0.040563377092667996,0.04523765521618713,-0.05443733036695362,0.006484724388212033,0.05081678143731997,0.013709985373401462,-0.0026081064125162558,-0.031086545320492355,-0.04138135891357399,-0.03731247166177797
0.574,-0.047275207190848836,-0.03198699516940442,0.014975315303463766,0.040802023172068734,-0.03264926739480024,-0.011151639490257789,0.04223442433006458,0.0038900220728325502,-0.015380521033934185,-0.041057980519624115,-0.05192315368428579,-0.047628273856873175
0.576,-0.007327842663039897,-0.0369239025074355,-0.030017470959914878,0.022748631610407192,0.010643974403969051,-0.035562907622002406,0.02569295882168362,-0.011046229066035607,-0.03149115126730933,-0.05706894407170702,-0.06782827843994019,-0.06242103484870922
0.578,0.019972765301933548,-0.040456045629844894,-0.06069170550320046,0.010396356795979993,0.04023349581007456,-0.05152757057516616,0.011349107714630479,-0.022806080427530566,-0.04171027206989783,-0.06685295704773969,-0.07579960948204477,-0.07142198541617169
0.58,0.009591653597359117,-0.04251079396362105,-0.0520809380625722,0.01691589721397342,0.030725380103667967,-0.047724081979511404,0.0066660335709434184,-0.02540228314060074,-0.040414452161090575,-0.06231937274105606,-0.06861834785827513,-0.06766786536372746
0.582,-0.02920564535520881,-0.040843014459018806,-0.011489548248406097,0.03638307011441213,-0.009544864505177986,-0.02691037010953532,0.01075400484395497,-0.01998089667396606,-0.02919261343436359,-0.04612305199608297,-0.05041171596585569,-0.05260736009110174
0.584,-0.07119013975648382,-0.037124050058361155,0.034132544627272186,0.05603155146881254,-0.053810809960651226,-0.0025919017019488755,0.01672763865668521,-0.012471734937216365,-0.015445761027968833,-0.02706053371621041,-0.030694244167179065,-0.0343998549005351
0.586,-0.10089776388581027,-0.0353212561372013,0.06553082036296852,0.06988538285271256,-0.0842992070843971,0.014052046405698671,0.01913093334290699,-0.00657442926060135,-0.005888932413160573,-0.01239641618191928,-0.015861701019605774,-0.020833851247091376
0.588,-0.11487774122165643,-0.03578515133682746,0.07903461522454962,0.07711399022293296,-0.09794972842593473,0.020789996064793027,0.018278170452956488,-0.0011306435957849283,-0.000868756488183997,-0.004834734313630459,-0.0069527258658694585,-0.014632762983436177
0.59,-0.1127122149355431,-0.036550186604923714,0.07615888230081726,0.07664059510410129,-0.09571426254471431,0.01922266326724598,0.01569156574379623,0.0035019305946907583,0.0015916103618193447,-0.00484243241443892,-0.004750246301658985,-0.01578273726482831
0.592,-0.09662053852557345,-0.038502965429787483,0.05814755779320178,0.06923121609764638,-0.07886410442033354,0.009505518946082576,0.0093474882584218,0.0020759130885423006,-0.0007763972959383332,-0.012763239713164615,-0.012799684624804599,-0.02450424379536813
0.594,-0.07743767360849144,-0.0444296682134662,0.03304598186483214,0.06147425049883501,-0.056488015104998644,-0.006006358595622336,-0.0011886055610256625,-0.006915672892414779,-0.009717209000494841,-0.026294292424409404,-0.030930882005746816,-0.03889296165465253
0.596,-0.06907951300662303,-0.05297931206542807,0.016222832237500873,0.060633171838012,-0.043634329452244935,-0.019137758685125204,-0.009977190757269522,-0.016514187214996215,-0.020218195707352248,-0.03928308192826149,-0.050802244514974296,-0.05367559091153864
0.598,-0.07416702577538792,-0.058061595786167194,0.016441895679375464,0.06596825018678593,-0.04638901942581172,-0.021988219595025376,-0.011317268503495887,-0.02118185423723256,-0.027377857883804094,-0.04723155386146978,-0.06418480624095496,-0.06439951400440598
0.6,-0.08255004990105547,-0.056385799924879076,0.026716751825909553,0.07052367845041273,-0.05614001563881444,-0.015842438650945548,-0.007583212397578861,-0.024523491731162386,-0.033731956885808025,-0.0518077629578689,-0.07123513858700001,-0.07043813353607578
0.602,-0.08380965949191227,-0.05100357347731946,0.03339540298306798,0.06939299177901645,-0.060703934319806044,-0.009460195410262941,-0.0058819532586709905,-0.03202885447016017,-0.04225337477467553,-0.056238389365800584,-0.0756189912941668,-0.07289720044511185
0.604,-0.07781046523493987,-0.045143217005140866,0.03306799069186471,0.06329915139775291,-0.05807763940390532,-0.007020324114239753,-0.008598497135429952,-0.04084691287900215,-0.047784897129831555,-0.058585115558812934,-0.07645763126213521,-0.07177241291137314
0.606,-0.07140885626978329,-0.03833840475064591,0.03317854650301718,0.05602105448266373,-0.05512956407825572,-0.0043390436678655,-0.011439291539523706,-0.042755742726401307,-0.04342305577088585,-0.0550684106633095,-0.07127167426244259,-0.06725122301921893
0.608,-0.06518036616719389,-0.031555497780384835,0.03353311197827495,0.04951316475313051,-0.052114034227497816,-0.0008746357165635555,-0.011146390693087357,-0.03621659357450357,-0.032675221109516546,-0.0492722582794184,-0.06421187177484845,-0.06308466448809887
0.61,-0.05282182597234288,-0.03069182149792732,0.02202986819387611,0.04353547034274899,-0.04018021938775343,-0.005474122985599127,-0.010275179751035535,-0.028879248977951574,-0.027813716724725903,-0.05054508207119857,-0.06430637457869806,-0.0647168605277172
0.612,-0.037217225953523544,-0.039783309060902376,-0.002571540080991019,0.04027822688301512,-0.020207047737410094,-0.021889612362902527,-0.011575391894965696,-0.026565063007834237,-0.03437966168474698,-0.06083249219839023,-0.07383451749670726,-0.07177243520134358
0.614,-0.03494482432376132,-0.05335659344072747,-0.018340641916289046,0.04484594919434939,-0.011062387337307446,-0.03690500807296268,-0.011332026115129516,-0.025280652276812823,-0.04219770897302434,-0.06911405889585327,-0.08245909622606407,-0.07494006312705107
0.616,-0.056319176819460234,-0.06107278562620877,-0.004595783791951032,0.05844175803891103,-0.02798838044892527,-0.034116065895252345,-0.003739980704552162,-0.018017310867884273,-0.03759640351378832,-0.06317443355259625,-0.07704388346759773,-0.06475158534904622
0.618,-0.0857276834101108,-0.05909927478026132,0.026942036326878964,0.07242682409760964,-0.05756870727738163,-0.016789050989493442,0.007624776550796452,-0.007900442650592913,-0.02292027683893774,-0.04512654050578649,-0.057905089985617275,-0.04436229378515055
0.62,-0.09405824721360626,-0.052986486041973924,0.04147344407131083,0.07436773200882081,-0.06823587056284258,-0.005714662405646519,0.01036124855707458,-0.007535956939182307,-0.014540148630108567,-0.03015206944123737,-0.04001291086934608,-0.027872802986700477
0.622,-0.07445872477692575,-0.04947276542461862,0.02523902812389058,0.06295932292563687,-0.05000875576772444,-0.012098679038824745,0.0004936162016425574,-0.02094342572548703,-0.019669871024069068,-0.02770169969775543,-0.0344579351271802,-0.023103821210745067
0.624,-0.05138730536780335,-0.04863131772729797,0.002740532510693995,0.05059024090876765,-0.027682322736235446,-0.02372643417205633,-0.00998996526577262,-0.03567155887770087,-0.02715644926871138,-0.031127740051572202,-0.03666387723797751,-0.02435319390506312
0.626,-0.0463519383677257,-0.046316480310753964,-0.00010411469912875466,0.04693044256290592,-0.02463321719322765,-0.02458604054101477,-0.010918457048771252,-0.04094667297652925,-0.026299844602398405,-0.030959418008325298,-0.038391721260391906,-0.02576813723431757
0.628,-0.04845125729636621,-0.04163174288106519,0.006753695539179386,0.046077305103262335,-0.029333554836201113,-0.01846741124734617,-0.009671338588884835,-0.043160814965701164,-0.02277804333339524,-0.029617211117520685,-0.041302881848556496,-0.03163016613070151
0.63,-0.03265663219529982,-0.037840628748685656,-0.005142505644981322,0.036294783349849445,-0.014636201005220912,-0.02164392504385054,-0.01890771841804375,-0.05341826244136712,-0.02809622782271827,-0.034822436286977974,-0.05088730268664731,-0.047737393480888346
0.632,-0.0011432374717397333,-0.03716879720779394,-0.03596993638314981,0.019640286675841112,0.017475399909036574,-0.03622831202166335,-0.03513136580042422,-0.06762509928761332,-0.0407067728688385,-0.044514634924202365,-0.06443770318996149,-0.06909176290270688
0.634,0.013195753265262997,-0.037978479507501293,-0.05119185938328112,0.012563157982090534,0.032175272570575265,-0.04440878370980412,-0.04077754272821012,-0.06956806592133173,-0.046026081282273326,-0.04778828084648146,-0.07314272736154863,-0.08218490746777138
0.636,-0.012132812274127304,-0.03714414376417651,-0.025170791418615508,0.02536688339788742,0.005343638742830337,-0.03138554498099311,-0.02622920250691383,-0.05152874837735913,-0.0340514107339946,-0.039345603352447134,-0.07299784997660298,-0.07853908252852898
0.638,-0.06018399629091151,-0.033668078956214646,0.02617270370516677,0.04862299618557237,-0.04566421481429942,-0.004281314247496754,-0.0008727301135704533,-0.02460758413214199,-0.011879532891925015,-0.025921623583632872,-0.06825125731940056,-0.06323699040355485
0.64,-0.0937909507602904,-0.029645180398613084,0.0637309609192901,0.06384594905300002,-0.08171321907850838,0.016263114961773146,0.018983557474243386,-0.007059661283666363,0.003932788903508461,-0.017674135319997772,-0.0651537404857476,-0.04931064054877185
0.642,-0.09934041908667803,-0.026913324607452823,0.07216195047262065,0.06492473979470054,-0.08806183807679359,0.02165745776347431,0.02832371193803237,-0.00349786486919397,0.008350035911302636,-0.015505886233014597,-0.06379078757120529,-0.042952566297140476
0.644,-0.09982265207281282,-0.020667270338580263,0.07902943800971478,0.06149711483743306,-0.09042559961444481,0.028161752414134992,0.03725343444952156,0.0013449402934754002,0.016611438059116555,-0.008019455749440171,-0.0563948545031003,-0.036356144362689684
0.646,-0.11644596856036064,-0.00022144600404998922,0.11590563554680992,0.05923717560196234,-0.11599641319329691,0.05676688606231821,0.0582082810420061,0.025045648299105577,0.04570812170435249,0.015928377402843353,-0.03692935936247673,-0.019383391427715852
0.648,-0.13503487556744997,0.03697715842749115,0.17129955064730912,0.04968145909436761,-0.15285092771546174,0.10285725688465952,0.09299614200782566,0.06980441097829591,0.0936045566028584,0.05323662059473158,-0.010477509119525044,0.00546802888616081
0.65,-0.12929983020770078,0.07594831522158024,0.20439401612242847,0.027021071804137046,-0.16768431909688097,0.1385528792039008,0.13293357194045277,0.1272505478558514,0.14642969041360698,0.09263220792812028,0.014552769717458676,0.027140256436403158
0.652,-0.10081031065375293,0.09663452181702342,0.19683386465585181,0.002351818062442939,-0.15105137138277397,0.1447140030192111,0.16698456815093848,0.18935880372008057,0.19836529088359534,0.13247809094653631,0.041406984370763546,0.04212392888669203
0.654,-0.07139915618273882,0.09406478029238115,0.1652111494155863,-0.010585049784991906,-0.12080190510551136,0.12730069678925052,0.18753211798543384,0.2466876545963994,0.25310357722488647,0.18285874271052377,0.08348701958365337,0.058994840263011106
0.656,-0.04755211333538676,0.08205674307319687,0.12961262319207686,-0.0157580989114001,-0.09016060109837072,0.10347933669069762,0.19321784088336358,0.2897298929087045,0.3147877566768703,0.25495197364388433,0.1526099841191584,0.08960146266493844
0.658,-0.017591497864376582,0.07941733193069953,0.09719734810032053,-0.029066741211804543,-0.05789699219882778,0.08635321858100288,0.1907481816754687,0.32277096316015386,0.3910739541794103,0.35961955291339226,0.2577049007701119,0.1435404088600277
0.66,0.027177668460687286,0.09638570450016834,0.06957014690529834,-0.060123128343568505,-0.021198849771721557,0.08171712487948848,0.18990405992749337,0.36510820011473827,0.49607622644206,0.5080451529853012,0.4059618483021462,0.22816559382348292
0.662,0.09227881020199988,0.13182694630277714,0.03996341531586755,-0.11067727544999059,0.02601298504347264,0.08524671450096033,0.1918832051352747,0.4290877652095227,0.6345401668348554,0.6980576947983246,0.5919273784632813,0.3428999252709005
0.664,0.18684777014917142,0.17736371520937724,-0.00922630426507103,-0.18087747659083103,0.09735649855323937,0.08369930875302843,0.18748657653562983,0.5063221844084735,0.7876057033700203,0.9026033168899281,0.7899798698199896,0.4718157653316115
0.666,0.3095625946776669,0.22304107509157067,-0.08642134308651195,-0.2654083960997721,0.19674251060619452,0.06785315547197876,0.17180548731394404,0.5812678044070578,0.9251325596402483,1.0829587624456756,0.9674253745721644,0.5903024405715211
0.668,0.4389733079597977,0.26231129248904644,-0.17647260756066274,-0.35038179625612276,0.306106013087324,0.041939759865044765,0.15359051883108035,0.6463129652786466,1.0280885415254373,1.212915960212264,1.1036865612749247,0.6826557958556111
0.67,0.5491188325668607,0.2941496795165994,-0.2546031869947718,-0.42175375976702806,0.4002065421286852,0.018070991126980046,0.14341302180478388,0.6979857122834069,1.0923749405594876,1.284294402580986,1.1917908366360324,0.7485322429313452
0.672,0.6240589298070043,0.31858205245560417,-0.3051763096281139,-0.47103996890213934,0.4634513085305017,0.004706978301560967,0.14028860999251375,0.7310654772561822,1.1167180704689943,1.2920253569865863,1.2233027639883771,0.7891527823758208
0.674,0.6560734544313386,0.32644810104873523,-0.329598706434833,-0.4899862145467857,0.4925742329296055,-0.0033130067308707323,0.13815753552362076,0.7442591777445965,1.0949881261389904,1.2225120399458533,1.1787572690054837,0.7902359853549031
0.676,0.651122583971651,0.2989341205846314,-0.3523115091183267,-0.47300279494621617,0.5021322808340573,-0.02810810721076929,0.13822319853831747,0.7448529948343596,1.0216348742309556,1.0638675639571202,1.0414347724894861,0.7267333252963349
0.678,0.6409568071368894,0.22818467745700588,-0.4127320442360507,-0.43263843996943596,0.5271578401912594,-0.09356021851967519,0.1459182506516684,0.7414554825549604,0.9034462051067838,0.8322266451353084,0.8274463590451984,0.5935581363613172
0.68,0.6624317607316902,0.1349619736126952,-0.5270881210648775,-0.39715377259806084,0.5943012569470589,-0.1973056651320678,0.16052463372853867,0.7319187068266039,0.761080793704443,0.5793513734145925,0.5935078387508808,0.42742728684150083
0.682,0.7133704957422571,0.052356413057584913,-0.6603950766150029,-0.3810339707553425,0.6856547956927553,-0.3053338507991508,0.17291543514249796,0.6974316791536521,0.609110128974159,0.3541551321339845,0.3936758068704093,0.2809443506414406
0.684,0.7499433087367167,-0.007459516762888344,-0.7567840888482466,-0.3686181771073307,0.7520580898418735,-0.38376149063331527,0.16916858002037496,0.6076857117172318,0.4323944550121444,0.15346803817678362,0.22552981180991524,0.17147887280714447
0.686,0.734905890549189,-0.05908368718510647,-0.793490088407373,-0.33515658596387093,0.7634173671692822,-0.428346651149431,0.13768499002869813,0.44047983242114663,0.19701125200679764,-0.06994237067648526,0.03877101918098247,0.07043530572399725
0.688,0.670541124929873,-0.11829989044557092,-0.788425136805696,-0.2744172861327527,0.7290608961723717,-0.4554300326447668,0.08306645285572607,0.21267050570766166,-0.0980059729667748,-0.33850196882591177,-0.1941497512139349,-0.052343289651272606
0.69,0.577073523901595,-0.1833209811164711,-0.7600333404942021,-0.1964493807484359,0.6680418417196057,-0.47320806616099687,0.03309366839987815,-0.008388508843585964,-0.38652021781453494,-0.6015895833632953,-0.4305381421242881,-0.18720096544863674
0.692,0.4568298606486236,-0.24335019871843613,-0.6998786296890176,-0.10658148417469294,0.5776083899494433,-0.47271405018074875,0.018021044006025208,-0.15023851029639113,-0.5816729685054705,-0.7769913522018645,-0.5946468450201485,-0.2959697210743261
0.694,0.3016746452095654,-0.29490298568811946,-0.5962788872216225,-0.002507174036596187,0.44782627060010466,-0.4468030235241149,0.03526601490343668,-0.2076958768738908,-0.6653574654803692,-0.838706604128841,-0.6560404163982028,-0.355540753796983
0.696,0.13240257065182717,-0.3407831929912646,-0.4728666212148905,0.10590672835102267,0.3008282339485122,-0.4081668750496628,0.04459215404200289,-0.2502254337051784,-0.7036143256991495,-0.8382442298844859,-0.653678330302142,-0.3779193297817367
0.698,0.0010257664024590442,-0.37457615919755577,-0.3753877045854845,0.1889490637172005,0.18610456014839802,-0.3760489931865701,0.011092826129513204,-0.3369637884721215,-0.756024411156714,-0.8323758353385332,-0.6410322090458537,-0.38733076507436065
0.7,-0.06063884455417609,-0.37947351750782066,-0.3188045315012921,0.22222452218829275,0.1276354030343115,-0.34995989141662853,-0.052204031114800625,-0.4420388377055685,-0.8000274902101869,-0.8195875249097536,-0.629072753247698,-0.39045739085511977
0.702,-0.0738544075586633,-0.3505244577830282,-0.2766677231668931,0.21396093205250766,0.10091173231728856,-0.314431036490751,-0.09883963864291886,-0.490580879457341,-0.7743302162935917,-0.7655361741428045,-0.5957422877424899,-0.3781878603374252
0.704,-0.07861313099547343,-0.3061315484862376,-0.22738512621302523,0.19376216736053695,0.07386084244568215,-0.26744231357737497,-0.10301172813465743,-0.45360145297825627,-0.6708582198482458,-0.6648956268755057,-0.5320240280197933,-0.3478478345300733
0.706,-0.08144913087596527,-0.26918164655377697,-0.1876339598599211,0.17666108895533897,0.05158117004175259,-0.22865779154927127,-0.08483385164509524,-0.37521720516256685,-0.5459256522453371,-0.5523599721002842,-0.4574969700843814,-0.31094287282411726
0.708,-0.05847546295521698,-0.24638183586028214,-0.18815850388349203,0.15380142765530297,0.06272387139738698,-0.21726927187728579,-0.07972556055679604,-0.31128723770960154,-0.45260523612777304,-0.4631113287336619,-0.39585528572053297,-0.2797494962741661
0.71,-0.005904831084585567,-0.2293917702118689,-0.2240869245776281,0.11882277662658142,0.1072698835014365,-0.22705964370026313,-0.09350648247399743,-0.27098275263083293,-0.3931495331498686,-0.40084661900972096,-0.35007542573657713,-0.25405146011682045
0.712,0.039809091382314546,-0.2072190420215266,-0.24756988610614772,0.08472247777362488,0.14221956708523315,-0.22846489772806006,-0.09766070056046139,-0.2272470259026818,-0.33713978541135525,-0.3448701150312012,-0.30556958368519915,-0.22410422176989153
0.714,0.041982220263761263,-0.17514942677829687,-0.21718802119557307,0.06787001664504175,0.12799269327866178,-0.1978674094352033,-0.06714607600220195,-0.16426243883968808,-0.26480874905950363,-0.27829873587411763,-0.2511519463278076,-0.18381917938251816
0.716,0.005022082879889682,-0.13669548251048236,-0.14122880093388784,0.06751567303988024,0.07141661966753976,-0.14081710344338844,-0.011186899870815451,-0.09599862238000514,-0.18359671710014488,-0.20326187243096921,-0.19065248654194794,-0.13771567577504654
0.718,-0.03396281223290989,-0.09899046695176097,-0.0643294610456091,0.06791314017321612,0.013739580525070483,-0.0832535264791418,0.038220855140150924,-0.04440034213952926,-0.11221228941588585,-0.13342599007974,-0.135934211147631,-0.09571092750461939
0.72,-0.04483678779936189,-0.06681376954760604,-0.021513935789092154,0.0564525277169708,-0.012758818259391375,-0.045126677796835615,0.05929116381111219,-0.017008858756416213,-0.06186971710496321,-0.08067580327894121,-0.09507600505054586,-0.06477798351709058
0.722,-0.030429441926673424,-0.04242771566935434,-0.012011016611172922,0.036647499952069854,-0.010196028703961782,-0.027375469562000935,0.055142015444747075,-0.007919462886905938,-0.03298086469517101,-0.04919181135778883,-0.06884334824535765,-0.04600055561272408
0.724,-0.020500060701656168,-0.02868128792248019,-0.00853963439237963,0.025115907337814238,-0.006993637681624632,-0.018507544640262767,0.04328579189862274,-0.0067902759991341245,-0.01818134423168412,-0.03406883888169941,-0.052333486755513164,-0.03467852712621552
0.726,-0.04172684834702003,-0.02705225239045578,0.014330952012649018,0.035278117157175104,-0.02900737133855034,-0.007025031258220828,0.03870339777729662,-0.0034504895972110178,-0.00640234725548415,-0.023663082131257777,-0.037427958745080044,-0.02262134514479374
0.728,-0.08692813838660583,-0.0323670979480444,0.054413242723533074,0.06056923276930926,-0.07146093493327382,0.009320673296954969,0.0438813957657533,0.005273516602904751,0.007252681468483473,-0.009993224439538262,-0.019884779497839386,-0.006288564172691632
0.73,-0.12085868032659762,-0.03447261718377292,0.08635549237505047,0.0785193440352796,-0.10405615035043808,0.024024864719798367,0.05055108348083009,0.012106601919522486,0.01702690622879828,0.0037389936666940397,-0.0048549475370834785,0.007828417814905883
0.732,-0.1221351860023139,-0.028046292428409385,0.09421933153095356,0.07596899427476367,-0.10844477600167671,0.031598782358177244,0.04984788654565403,0.0089999330265759,0.016678625614820405,0.010468631980477289,-0.00019055443385779805,0.010431122524744747
0.734,-0.10378433451593035,-0.018430613451699104,0.08579623212728214,0.06194220230706133,-0.09538397466315587,0.03242559743142196,0.039551240051717146,-0.0036272072590535992,0.008317085147940172,0.008899020941764434,-0.006262793205150801,-0.00026202045218623893
0.736,-0.0890754838925717,-0.014782379192165827,0.07482223921621235,0.05245163575935879,-0.08298430175974975,0.02887048456184054,0.02359340587840389,-0.019892240906085063,-0.0012503454126282928,0.0028370660553104915,-0.016252143549140105,-0.01712767535625758
0.738,-0.08386990938722028,-0.01802649567544928,0.06600791302552843,0.05121229143268918,-0.07587115154846287,0.02327372501953414,0.0076180022139383,-0.03458821048840203,-0.007331528415615246,-0.003561127024313887,-0.024130740089628875,-0.030513364498632928
0.74,-0.07785623829130725,-0.01949518569357104,0.05818590298244193,0.049385385946999406,-0.06864057543700451,0.019087252097889456,-0.00518317107483616,-0.04470577138358465,-0.009281925409970127,-0.00823339328233794,-0.029029398310681492,-0.03548883259103913
0.742,-0.06474945886125022,-0.01309182991543806,0.05159126271674069,0.040754270080250204,-0.05914241203791639,0.01905441062882509,-0.014024976789016555,-0.048876710148298405,-0.008600896766171552,-0.010891973836652937,-0.03227735290015486,-0.033728833815973705
0.744,-0.05021957639541684,-0.0036996055298429077,0.04672262535628825,0.029708174463078895,-0.050284023017783265,0.021034058354119412,-0.01884369114821836,-0.04854962376951366,-0.007827454965247461,-0.012291083818147973,-0.0346835429939709,-0.030456848389294976
0.746,-0.039055715069665306,-0.0008468311773207911,0.03841513814053136,0.02260548859609867,-0.04087432419478931,0.017703054787731674,-0.021841116046759347,-0.04894959816757709,-0.011314527620282013,-0.015753136510564265,-0.038706589547284086,-0.03143598658557814
0.748,-0.03160848280198847,-0.008333503607057847,0.023276533887108833,0.021573232465571846,-0.029253527336687245,0.005510998456424085,-0.02613622713373783,-0.0537151679527251,-0.02167409228287264,-0.024963587393870983,-0.047181723116516576,-0.039112187993854707
0.75,-0.03570084258145236,-0.02030511849292645,0.015280097020844867,0.02851021397594999,-0.02710768098545491,-0.004972198388064113,-0.029130495870116742,-0.05820340769550823,-0.03302355727431489,-0.03581365900710636,-0.0560778468669372,-0.04791293096619604
0.752,-0.06096765731796382,-0.025886604364653683,0.03502202096243119,0.04366662496813556,-0.04972198112692658,0.0027650857171531455,-0.02399077116435982,-0.054909826249744435,-0.0346438533868865,-0.03762799760223651,-0.05571938936411463,-0.047725057104842906
0.754,-0.0966867117764549,-0.02096662726326652,0.07575447739779011,0.05935144435155321,-0.08770740684063272,0.02705233903927305,-0.012213268322310952,-0.04687086866990937,-0.025700354318081202,-0.02828712300996502,-0.044620601600483215,-0.03685297987789189
0.756,-0.11227926866476325,-0.012996240805189067,0.09933188134748269,0.06309002302506421,-0.10662855415529615,0.043677627716873973,-0.006985259460736643,-0.0472275131386441,-0.019021575013549046,-0.019426572163800015,-0.03446782690061621,-0.02657768571886059
0.758,-0.0898827972567612,-0.009110863452763341,0.08075470093364993,0.04941978218604796,-0.08578200552422054,0.03588269486339903,-0.01700081775400342,-0.060403431627974125,-0.02372495930543805,-0.020071368515968583,-0.03450390431915254,-0.026317830316566083
0.76,-0.049604519877869416,-0.0062700520785171415,0.043178761549695986,0.027525978969655866,-0.04699579119569622,0.017674527705583348,-0.03282023204677766,-0.07263117576157027,-0.031706818231544705,-0.02391392703099963,-0.038501575560043265,-0.030035264055351122
0.762,-0.028493654070058036,0.00026103208556341,0.02843497720376019,0.013806443209661793,-0.029263267363218742,0.013241428740661894,-0.0386532077750455,-0.07051685749848541,-0.030307785242087285,-0.020517166257790594,-0.035434377217094463,-0.026536544217119224
0.764,-0.03478344573970982,0.006465158128852256,0.04096382150367725,0.014114422314227375,-0.03888979041691287,0.022370235201967882,-0.034497685587111936,-0.06115690124216453,-0.021640475796740125,-0.012341160508239564,-0.027013552271099705,-0.017974975162486945
0.766,-0.040964399641557694,0.005656998101192599,0.046704148746666695,0.018051363097638707,-0.045181084179104374,0.024106574818952065,-0.03492789494023298,-0.06252243700777381,-0.01969102774246944,-0.011648640202718653,-0.02510401592964724,-0.01659933676124016
0.768,-0.026138131475232293,-0.00024626891926762633,0.026341784062311146,0.014419329120324578,-0.02758107538338933,0.01021796646478933,-0.046061850836369676,-0.07929242026514136,-0.032076072674436476,-0.023141865716520785,-0.03420395775611801,-0.025565314512991467
0.77,-0.005708661036016397,-0.003024408385579405,0.0030804415011171592,0.006407606646259934,-0.005263477972900946,-0.002922729112473708,-0.05618318398847344,-0.09771515263947672,-0.05088509748330535,-0.03670303122164047,-0.04446616939656391,-0.033761891811708335
0.772,-0.01285527485212078,0.0008139335209412595,0.013703394958257854,0.008209521286610393,-0.013838221565422224,0.00463265713824704,-0.0513997309496284,-0.10119005467185396,-0.05952605382232047,-0.03673312427494884,-0.04149167105716002,-0.029187351306451313
0.774,-0.06135495809955861,0.006496767675383523,0.06766100598839686,0.029354875400153326,-0.06519568156528976,0.03468805282733233,-0.03212938179685942,-0.08664217467468213,-0.048352445558582494,-0.0173189638307367,-0.02035282518290716,-0.011003621290977839
0.776,-0.12444164769102285,0.008041713710575417,0.1323441954037289,0.06026799589123635,-0.12928751972721914,0.06802090708847175,-0.013457100148100738,-0.0684883573988656,-0.02656872331102018,0.009074797169350965,0.0069335073467033485,0.009298983749137745
0.778,-0.1527927868105651,0.005755069489169182,0.1584610007965004,0.076178592921533,-0.1566861279142317,0.08053560983342961,-0.011416201556524386,-0.06477843558065792,-0.014082245640778274,0.022038821609620153,0.020466987796180808,0.01691547051551008
0.78,-0.1275924700468934,0.004393248992137706,0.1317432449522317,0.06456202999223015,-0.1310409830940148,0.06725607280752212,-0.026296609454192838,-0.07642517199785807,-0.01794930397483917,0.016438503079029856,0.014489245459578548,0.008857164728875854
0.782,-0.08475928870091332,0.0055060636144476805,0.08985944295362953,0.04216654464256534,-0.089112967420132,0.047108746497017025,-0.04187913754194475,-0.08659518408862374,-0.025109476819879913,0.007211857251022915,0.004084328122635901,-0.0011964312904980757
0.784,-0.06967420531060049,0.0060599776483189075,0.07541849058201268,0.03361545590123991,-0.07455436404240513,0.03970497810946479,-0.04466748184315154,-0.08328126412716477,-0.022425598827764646,0.007952116334187031,0.00471986838846934,0.0011679381785670458
0.786,-0.08239357924554036,0.004280211810777458,0.08654079446570831,0.040564501857755314,-0.08622009429983972,0.043821620545082,-0.03866376374835576,-0.07372266104657278,-0.014347942463860092,0.014688405392314627,0.01339834571965046,0.012957561495999298
0.788,-0.08546024013823963,0.0022136132677795903,0.08749999942055052,0.04329144362803172,-0.08790490171373615,0.04321681794414092,-0.03689903887358903,-0.07251577374613262,-0.014620958477839556,0.014210640651050564,0.01551666841383655,0.01785510931037016
0.79,-0.05651275587131454,0.001217643302039418,0.05738964040088583,0.029161057475993814,-0.05861001141208498,0.027858959242171303,-0.04402995417950595,-0.0828750891592244,-0.027658643092108467,0.0009688794408975718,0.0035762607089528256,0.006228810644263516
0.792,-0.015403512210342193,-0.0012302732327408882,0.013876227749572485,0.009032610320187272,-0.016951783528777863,0.00464194128232538,-0.05262443639768814,-0.09499675134890645,-0.04484704263872667,-0.017226797414261905,-0.015774799679775686,-0.015492794163166592
0.794,0.0007774559255609927,-0.0067770410803265554,-0.007593182603773294,0.0030354862259498886,0.001729429924425921,-0.009449962420766754,-0.052651515594604716,-0.09795956499646492,-0.054535343643672504,-0.02647600124866113,-0.028837781583035734,-0.0331924831706226
0.796,-0.019829813314832995,-0.010604054605275645,0.009384998501525752,0.015366314561429392,-0.01621048712624737,-0.0030129238536720825,-0.041158697494503065,-0.08882488963981441,-0.051161441369924066,-0.01923664692097182,-0.026737450873595595,-0.037124850132805684
0.798,-0.0505241442553825,-0.005531355725482835,0.04521823317450496,0.02860730694052117,-0.048387289432714,0.01801078067013422,-0.025492898298419633,-0.0738532121515059,-0.03866029711234271,-0.00194606885000366,-0.013442513616587836,-0.028152683013290016
0.8,-0.05823112371310985,0.007674198621987946,0.06620601160901793,0.0258747125418419,-0.06253465560059358,0.035783161683536645,-0.01711564642971368,-0.0631280948702473,-0.026912458054599863,0.011167512316669714,-0.001359573685959318,-0.01521061768927787
0.802,-0.04369503567666014,0.01900294461760053,0.06305658250339852,0.012858774980710447,-0.054445603932007196,0.040232851102854315,-0.019441830676811683,-0.06120255556164411,-0.02203338733549775,0.013481253590466154,0.002694040376490209,-0.005397801682103751
0.804,-0.03366610107776001,0.021295454785856222,0.0552007323005794,0.007250016577171308,-0.04643522582942414,0.03771728226664426,-0.024897970194844993,-0.06402704994082688,-0.02188552429123842,0.011284840674287352,0.0028584209628112374,0.0013830799568120998
0.806,-0.037869588623643334,0.017982220736508472,0.05583115699831096,0.011922582080100027,-0.04941053738346685,0.03651642817832838,-0.027590783035701675,-0.06741935918720077,-0.02341382751210095,0.011409773024447487,0.004042013517522593,0.006525658296353636
0.808,-0.038959353536931904,0.015670535900803986,0.054374582067092725,0.013902438042884753,-0.0492256921997026,0.034121325651684214,-0.0316083269133877,-0.07311763850554993,-0.0280735022344364,0.011547603329451189,0.004433574342060584,0.008210714452910776
0.81,-0.024530932936789873,0.017272070430993602,0.0413861496365908,0.0052645591161365815,-0.03507062765021188,0.02738622394990332,-0.04031613363851855,-0.0819006572122335,-0.035610156173851173,0.008519383839631882,0.002428455910293258,0.006735183814243404
0.812,-0.006452944515998041,0.02427938381319144,0.030210600602436608,-0.008026351373887436,-0.020070936037910377,0.024791156959384015,-0.04623356079139611,-0.08696777559260817,-0.0392916777557621,0.007124003501651336,0.003166929227781118,0.007945771015093764
0.814,-0.004199566155255019,0.0363872266046479,0.04005592976548723,-0.015270345207869178,-0.023761623745123337,0.03633193557214671,-0.040356874178057944,-0.08096331186027658,-0.033017879311991995,0.013539470472744106,0.012560394082437988,0.016764673638223367
0.816,-0.01867513924746053,0.04814574220871196,0.06640971165568323,-0.013408243348260818,-0.043743066024677424,0.05624012800214056,-0.026376580150443148,-0.06709649645076125,-0.020286755361975727,0.025520700353151907,0.02840962334335842,0.029828548576570222
0.818,-0.03072972492404284,0.053471408515998485,0.08395741191911182,-0.009768400377233503,-0.05756595800431821,0.06791245245593891,-0.01707713127014601,-0.05639896709835633,-0.010869215534820204,0.03493630677264256,0.0416438624066516,0.03772500425054436
0.82,-0.028280202537407446,0.05381767737274554,0.0819747142765847,-0.011388532475223999,-0.054748755604206494,0.06686940311371396,-0.016724063857391287,-0.05232210729382787,-0.007093198034262209,0.03896298789762809,0.047249364021401924,0.03643429630764299
0.822,-0.02334303942064472,0.057075137072750984,0.08042844445973421,-0.015812733682141162,-0.05197083265780335,0.0677431296698015,-0.014761471033872382,-0.04500687099760447,0.0008287103560768992,0.04422128491953917,0.05109316339246993,0.0347344222553495
0.824,-0.03248695202388145,0.06719693182702574,0.09986920843480161,-0.01659897541105202,-0.06702940137278175,0.08295039656647851,-0.0010401145767399715,-0.026253409995668765,0.02030512147836302,0.057183538217973534,0.06176426557857738,0.04424175502227755
0.826,-0.05001729472099174,0.0787182333817085,0.12897076807706545,-0.013833431792087528,-0.09031187771507579,0.10350559268952289,0.018275483186520468,-0.004264731884479393,0.04253829575918534,0.07370615269090053,0.07752622156215253,0.062482416430233535
0.828,-0.05313448545763519,0.08495985365565561,0.13818250189641684,-0.015121955615073623,-0.0957456675010553,0.11069735014607625,0.02661178023262555,0.0045936528462967195,0.051296659699062136,0.08322155697027622,0.08795406693934518,0.07483118505124706
0.83,-0.033293305106825016,0.08804959843063952,0.1212916965459207,-0.025716282707254845,-0.07684227622782468,0.10274263203360746,0.01737267010567812,-0.004268058033861912,0.043074668081421505,0.08290634818248441,0.08911698946991865,0.07459656334357231
0.832,-0.010901651056417222,0.09474093748594986,0.10568637460499328,-0.039717954585955874,-0.05786713566699897,0.09778197459929731,0.0018101736328817871,-0.019521223105888295,0.0312029242532765,0.08228024013496586,0.09010059794715713,0.07149217057502287
0.834,-0.011358942457615123,0.10505478779062428,0.11675807697918776,-0.045217669981494985,-0.06386415475170405,0.10920394934926861,-0.004702443750576411,-0.028241540747544692,0.03028954712917204,0.09207356766715641,0.10163656103216893,0.07774308422852465
0.836,-0.036441500765909525,0.11284093905287312,0.1498812515841256,-0.03751931912387967,-0.09311243308708239,0.13086258578310322,0.0014905426804110262,-0.027807858810515677,0.04229462261122427,0.112616431205829,0.12368947803633669,0.09411430174344251
0.838,-0.06891200291050413,0.11572068075506574,0.18524006290893583,-0.02268139674563667,-0.12735548992927906,0.15030878736150746,0.012465815801816424,-0.02312611742894135,0.05867900502851773,0.13495862047568194,0.14694857232465425,0.11222853951204634
0.84,-0.09274367500126401,0.11644537694225625,0.20957329785229956,-0.010190616685189086,-0.15231541257063447,0.16215966048776367,0.019320572116205102,-0.01838318604838129,0.07028075822521275,0.14915411193461373,0.1617461228570936,0.12391206960367253
0.842,-0.09708550067302331,0.11651147143722801,0.2136873506680753,-0.007588689561480053,-0.15760139946589366,0.1636964953583396,0.018547250445677718,-0.01557080108677867,0.07222726298276809,0.14899240257022547,0.1630089194567398,0.12568255383591528
0.844,-0.07582849081096125,0.11612439180778057,0.1918616541843539,-0.018407474333805355,-0.13648204655090745,0.15295833733047795,0.011955600396410002,-0.015756197424872786,0.06541888084898986,0.13488564519133853,0.15231688470839563,0.11941132567997417
0.846,-0.03731652552964656,0.1178104577541032,0.15503676054804683,-0.03875953601423971,-0.09848125356054284,0.13630193919039832,0.004728072941115177,-0.017053650566724365,0.056517603100871776,0.11645544105105095,0.1385567260741733,0.11092369557943597
0.848,-0.0017376299916154892,0.12300739536117311,0.12474401468532043,-0.05869511770809214,-0.06515483119611719,0.12424812464712301,0.001136096664765213,-0.01631082327577431,0.05095263610148623,0.10540113135397608,0.13045701184209157,0.10474679352037511
0.85,0.019160255037714416,0.12776343485494293,0.10864908175896969,-0.07083278838093465,-0.04659768480294645,0.11806535297726324,0.000606329823503431,-0.014536517356854819,0.046397496367000544,0.10312608226118962,0.12718645687083147,0.10026953462346062
0.852,0.028079498577102333,0.12720625791444426,0.0991712126750688,-0.07472629518463261,-0.03721620076512069,0.11179602331226418,0.00041704002793988286,-0.0149698661942461,0.03918343978845961,0.10280441764468509,0.12335033730156572,0.09569113708042074
0.854,0.027888304418514663,0.12230589956792572,0.09453500414838738,-0.07254542597524784,-0.03425877658807945,0.10605865802148594,0.0011628934974592074,-0.0163665302083701,0.03327751449292423,0.10273885679606921,0.12101342451931421,0.09389485916718358
0.856,0.01544898524449403,0.11982541662808105,0.10470699304894304,-0.0659945773226029,-0.044639740136484564,0.11010117063534444,0.006363881056468366,-0.013222017411729688,0.03664275796306163,0.10938257335400298,0.12892715411184075,0.10125883936193397
0.858,-0.007318301904117679,0.12596573431461763,0.13383656342465608,-0.05862067447625614,-0.07020375546110307,0.1286611376591831,0.01685058955052001,-0.002735378632037247,0.051593944130174894,0.12720790312699196,0.15106424934820006,0.12011250726819578
0.86,-0.02502739137698298,0.13934536732370104,0.16496529190559853,-0.056815220192584365,-0.09515435748068812,0.15118568893461978,0.027577481234210752,0.010711341951251379,0.07204834543285708,0.15055072205128806,0.17946566996477403,0.1433494051358505
0.862,-0.022663393689193435,0.15119708155475542,0.17426273447605428,-0.06372433103402383,-0.09982310676569488,0.1609444497843546,0.03271102662928852,0.02037911857243131,0.08925902582542591,0.16819635048843423,0.20013601482002816,0.1600925502431977
0.864,-0.008616936508742973,0.1538641001671544,0.1625881013310619,-0.07181240146745771,-0.08800297642596167,0.15569809761205777,0.03341552482042034,0.025432651893435118,0.09865419116344543,0.1749000564772192,0.20716073702209964,0.16718549656386386
0.866,-0.006071520990631519,0.147522178273809,0.15350062383682322,-0.06978884239332303,-0.08219106608835677,0.1483901437025026,0.034912020675803845,0.029142749374543028,0.10017189296622209,0.1733199617563419,0.20628367409390783,0.16930956358229696
0.868,-0.01488035043644439,0.13832652664124906,0.1530847336690605,-0.06081863467136688,-0.08545067980678592,0.1446147794976232,0.03595134572645416,0.03001616199634732,0.09390261430670062,0.16537983161570666,0.20255973355575513,0.16806652813166703
0.87,-0.005935742098952883,0.13254114291235627,0.13834079982323252,-0.06251805653498609,-0.07295322128762848,0.13482002420451264,0.029965195726038778,0.02245695830940274,0.07994509236636581,0.15077174156523873,0.19389883422416118,0.15985878047837068
0.872,0.034621415656357166,0.1333142480087605,0.0984149660836045,-0.08297501373510469,-0.033198239609435534,0.11508728820275656,0.0182152863656336,0.008008278550888481,0.06356485706540674,0.13494561271490152,0.18075488216525543,0.14609432639096373
0.874,0.0804447982912254,0.13954702622735757,0.05870593118999055,-0.10819996654122904,0.008704506092184396,0.09824654015083843,0.01205235261845207,-0.0013202021806779695,0.05460526118296206,0.12768969567445687,0.17102694563961549,0.1355005649469343
0.876,0.09789070780657409,0.14538425275768288,0.04722391771087685,-0.11893223617203029,0.023202910141432127,0.09544817476245471,0.01854331088171904,0.004115475275108373,0.05803774096287703,0.13106375092763986,0.1696763547166438,0.13293470036657987
0.878,0.08250846435703733,0.14493893353377674,0.06243518888546252,-0.11069057039635072,0.008838101125149782,0.10264529045847799,0.032343789092763794,0.020734706328217216,0.07001451113984737,0.13830046699320922,0.1723453327340398,0.13468010150141485
0.88,0.05343482379268503,0.13896633619046886,0.08567498319100861,-0.09344409556002514,-0.01654150349360194,0.1108688974447231,0.04462127711545054,0.037960788877522,0.08444151317513769,0.14466628376791488,0.17290826123954375,0.13633110557937933
0.882,0.03208600303776214,0.13319935080244186,0.10118686873863307,-0.08021370754188971,-0.035053791121009356,0.11538372483656835,0.052021945643659466,0.04970983415733135,0.09724853760733582,0.14968451202268027,0.17061709588055185,0.13707921868238326
0.884,0.032984846781271566,0.13196835755071673,0.0989435665012099,-0.08009919613818675,-0.034171187677784334,0.11356298807237504,0.055079761763056505,0.0563436368762496,0.10533792235107216,0.1512076976424648,0.16811520185364567,0.13628089303541221
0.886,0.05674329755548421,0.13492524971385542,0.07810092536187536,-0.09351927081671754,-0.01234897335427298,0.104649822216206,0.054497148222347316,0.06036629730165684,0.10764078636850687,0.14664045995906083,0.16658017811468342,0.13254792881088948
0.888,0.08608915542298619,0.1369418096231784,0.05071452775463358,-0.10962196836433208,0.016218460107906663,0.0917505260443778,0.05105938472423063,0.06342364851195981,0.10616942053246303,0.13802044797327995,0.16417306804159681,0.12648141653502532
0.89,0.09950380755052292,0.1327467738375169,0.03294438887994268,-0.11485815368588154,0.032336594711297934,0.08035510023158883,0.046652191640503875,0.0656151105971315,0.10335392866837002,0.13067644144549362,0.15886084018496524,0.12080441942773497
0.892,0.0914023577507519,0.12268602330172226,0.03087855106417538,-0.10615941650881006,0.029597393627792613,0.07413247882611364,0.04364010567412172,0.06596548804267498,0.09995341166117162,0.12778539440001296,0.1520318798344094,0.1171627010739689
0.894,0.07700062859206701,0.11141497267512024,0.03415143713829365,-0.09318045140166056,0.02070065522094274,0.0706095042732782,0.041979998567481656,0.06301077726321182,0.09564946034146943,0.12697953839154677,0.1468367479577537,0.1139619211680839
0.896,0.0744238504574472,0.10289818737511328,0.02848695360137048,-0.08716309894069696,0.022068047578094312,0.06462212368142829,0.03898856701370549,0.056668362414829566,0.09094788664997144,0.12355999846144025,0.14369202133061004,0.10939294116890642
0.898,0.07914008802648341,0.0987060002798109,0.019709492126067686,-0.0871941209370028,0.028607760436139076,0.05933499675654344,0.035606871385825016,0.05190628265944242,0.08962094136126846,0.11904196971989296,0.14171285227870792,0.10639594530064471
0.9,0.06675535128978255,0.09805012125103083,0.03134211169348809,-0.0809784772895022,0.01642009219755793,0.06541130928808714,0.03878093797718685,0.056622728254461144,0.09684104442276373,0.12069982216434544,0.14186837675623712,0.10930033008274068
0.902,0.027766090994352885,0.09747065596000064,0.06953122597484272,-0.06175507466003576,-0.021993744228640113,0.08401156997408346,0.05165601697596678,0.07127088988604786,0.11111117197044458,0.12799213869610174,0.14281778558917121,0.11455171726398548
0.904,-0.015511837616701617,0.0928113573990176,0.10793800906279337,-0.03801491696638827,-0.06217712151864703,0.10027015534152338,0.06598463573975046,0.08520840084968638,0.12108587804605886,0.1284806302219831,0.1377749367311041,0.1121307832973464
0.906,-0.03460623377763878,0.08330682907664863,0.11746347165269655,-0.02319229123365593,-0.07601274421589435,0.0997059031536711,0.07044952530496988,0.08770238975598445,0.1158205703437812,0.11331115012803161,0.1212441367216588,0.09750062652908492
0.908,-0.02607094241032124,0.07226958721950345,0.0979826368164871,-0.021065484762646424,-0.062368013766714005,0.08417323031047795,0.06315281809286281,0.07850891622093761,0.09705801377697017,0.08842596182260037,0.09584561454354877,0.07603556890114974
0.91,-0.010516809328967935,0.06309317084723368,0.07332482076087779,-0.02399600431863437,-0.04298048904072177,0.06714042105422059,0.05125790009729073,0.06501721240912767,0.07663510700064574,0.06611841571377994,0.06974979357979205,0.055711526087350825
0.912,-0.005938047538536172,0.056154403478995765,0.061807777553185284,-0.023456451595197325,-0.03518565987900084,0.05752508841802209,0.040996966722210884,0.052796294623085036,0.06269648104421961,0.05189894185474543,0.04946288279525846,0.03976891688774559
0.914,-0.009578725023128997,0.04983786597550799,0.059211464754055004,-0.019313191738983833,-0.03568455498895073,0.05252046159412538,0.03319523947550979,0.04243282242554886,0.05365564992105863,0.042409108776141645,0.035819387577702304,0.02673740774924228
0.916,-0.00797466802403583,0.042943621767591096,0.050874071100446255,-0.01704562936833607,-0.031038278601730647,0.0448746050657982,0.02740036005803519,0.03340028238375539,0.0443617803801358,0.03188772209272078,0.02525337582021556,0.01481855139615809
0.918,0.004220356134440288,0.03533908358248063,0.03108290443395797,-0.019297293473816906,-0.015442461906753736,0.03177148138714401,0.023931190801034417,0.025584998491187293,0.03201623023410161,0.017397826833069962,0.014042373774562324,0.004273550029891986
0.92,0.02168782185120807,0.028070622500004,0.006120351093885604,-0.024190955985663502,0.006099074319065935,0.01616700986762512,0.02151593345327665,0.017411111729755013,0.016439447750903315,-0.000137483468255285,0.002077316995327561,-0.0035736867903657693
0.922,0.03547057568504518,0.023532425397866562,-0.012378746429538593,-0.028504642997814977,0.023070138076956,0.004551875052755225,0.01795582683923372,0.007362318898936158,-0.0002694912793625786,-0.01604040877060716,-0.006744225935363362,-0.00788272955991028
0.924,0.03642300059747906,0.022821350869097423,-0.013923067007133806,-0.028296799471642892,0.024405132186230166,0.0030693457422883794,0.01272508749315548,-0.0034025838969693628,-0.013300528412893352,-0.0236444520181855,-0.007840658789054726,-0.00826006180805463
0.926,0.0211009174486317,0.022656781921192897,0.0014386855093761594,-0.02032822856306905,0.00793636934276286,0.010806543908866218,0.006607846407525628,-0.012713714601993078,-0.017997545592326154,-0.020252363835488646,-0.0006444335865004426,-0.004674185467688299
0.928,-0.0006178112778053772,0.01752682149628067,0.01798133337761679,-0.0068063087811360175,-0.012405212245475162,0.017083141097789,0.0003597421692794234,-0.020170918595109846,-0.015873497252222733,-0.012546598227179857,0.008490739569366725,-0.000258662608991086
0.93,-0.013417113088846511,0.005452460772476628,0.018525229874330293,0.00560225088364191,-0.019052177661977966,0.011338987718139317,-0.005111818514058434,-0.02728944793676742,-0.015301530468981347,-0.01201626526455373,0.009831029727824302,-0.0018757152302427056
0.932,-0.016518359299248678,-0.009492517172396688,0.006699437047518422,0.01466616204086319,-0.013603922841779028,-0.002807184559654226,-0.007995609315700316,-0.03504015979099813,-0.02262631378523379,-0.022198992611691688,-0.00022924847827938646,-0.012752744388941454
0.934,-0.026511667976840476,-0.020903470058111374,0.005436598176567425,0.025726630737162436,-0.01720984973371382,-0.009493917770907852,-0.005656030446676627,-0.040147383896096435,-0.033614477660124535,-0.03365688880386111,-0.014434312216335603,-0.026099138581428833
0.936,-0.05490959186051203,-0.024980352236647345,0.029742424811949778,0.04225814829787606,-0.04378358853452513,0.0014457279015674717,0.00323479065906303,-0.0362352494215134,-0.0371568004786594,-0.03472223487258385,-0.021683095583455426,-0.03050019258039201
0.938,-0.09037946508635576,-0.02160661088767583,0.06844682746890304,0.05781728815417655,-0.08126103987999976,0.023414516699297748,0.01581008107299531,-0.022344294479581882,-0.028406096605664177,-0.025141304463130513,-0.018376374573555537,-0.022082469058735323
