time,I,II,III,aVR,aVL,aVF,V1,V2,V3,V4,V5,V6
0.0,-0.00043879241376928345,-0.0005265508965231401,-0.00010969810344232086,0.0005265508965231401,-0.00021939620688464173,-0.0003290943103269626,0.002150082827469489,0.003115426137761912,0.002566935620550308,0.00021939620688464173,-0.0008556452068501026,-0.001294437620619386
0.002,-0.003262564308903012,-0.0037878273706905222,-0.0006565788272343878,0.0037878273706905222,-0.001642251964795738,-0.002298830792030126,0.01501902784126349,0.021542868624333883,0.01782118207439266,0.0013131576544687755,-0.006086658162720648,-0.00904206778198516
0.004,-0.010883089293412784,-0.012302463636641146,-0.0017467934031748697,0.012302463636641146,-0.005463323288052902,-0.007319814794670093,0.047413250405659954,0.06746916458567727,0.05569202946778456,0.0036032849097920607,-0.019402882224426595,-0.028250094215386917
0.006,-0.021427929747064648,-0.023972386026007982,-0.0029890011160099896,0.023884627543254124,-0.010560193820890663,-0.01431547186757736,0.091325170947633,0.12855995263366699,0.10514199644909622,0.006524882955812047,-0.036974700239116566,-0.05252722315446586
0.008,-0.027303856726210652,-0.03156180939352218,-0.004666748724815947,0.0308390897455385,-0.012715556282620725,-0.019873435720599786,0.12497925502721297,0.1716228959117628,0.13828085410199678,0.009765523404918451,-0.048182994135345346,-0.06607672556895064
0.01,-0.022717298289900656,-0.03058625440733103,-0.00832395710337457,0.02789727969232692,-0.008673246001997134,-0.022126622962213294,0.13905665813352627,0.18152431449325945,0.14410042748889715,0.013292460335524005,-0.04864008059189775,-0.06299584606272955
0.012,-0.011434360318257265,-0.025174836774788857,-0.014476019891624428,0.01913640627385096,-0.00042199259631997544,-0.022746449665548157,0.14397463498068433,0.17704389899098144,0.1394308946800825,0.016034037044091547,-0.04529806365551657,-0.0542063574877788
0.014,-0.0036637852994241826,-0.02340131361416557,-0.020701817172906836,0.014118318201102025,0.006314535759180492,-0.024454029024705018,0.14919170646506863,0.1822142047559128,0.1424900272846222,0.017328779520076772,-0.045513066559650685,-0.05151811128818519
0.016,-0.0051493896473032265,-0.02780915058891456,-0.023511618675517022,0.017264740468499025,0.007647975281380883,-0.0273124319414413,0.15008976090097398,0.198748192794415,0.15246420033586117,0.019163922015867713,-0.0481080970537101,-0.05445737453128138
0.018,-0.011823443683052291,-0.03253113178262458,-0.021328851472729272,0.02325966806041506,0.004238188615029436,-0.02816653289017302,0.13934623818658246,0.21213345468712977,0.15833208075692265,0.024254343041761713,-0.047484719116040276,-0.05520580462575594
0.02,-0.01603076893563106,-0.030843977184456955,-0.015462023651929,0.02444627766400381,-0.0007734018943203764,-0.02464669524297056,0.12238293725718064,0.21336361779733376,0.1559257218313295,0.032325425157603525,-0.041621803006945034,-0.049693659270567375
0.022,-0.014877825963619867,-0.023131336643231592,-0.009066587425496353,0.019784699268404544,-0.004396434967584262,-0.018416117103551514,0.11299170554603119,0.2065354119411471,0.15064298250449829,0.03986586526024707,-0.033992422423566815,-0.04102955045109315
0.024,-0.011421905846668617,-0.01530806685181401,-0.004562647574004361,0.0142126093292658,-0.005572494592425485,-0.012884081857410173,0.11641712202578922,0.2002459831084813,0.14886428232291524,0.04371404945122956,-0.029244341811439513,-0.034721179520717224
0.026,-0.010588331140591954,-0.012447668979800552,-0.00205693869830914,0.012540947959543648,-0.0059518832924186004,-0.009906187969458335,0.12578240205740757,0.19995980757937223,0.15254178150505218,0.04438109636572769,-0.028183683930418108,-0.03267890959792913
0.028,-0.013720633563538623,-0.015254787345860006,-0.0013629473472063424,0.015442061289585819,-0.006939065617927037,-0.010002002978315029,0.13365017482877284,0.2073472088966671,0.1608851511349882,0.044680602188267096,-0.02825288856346529,-0.03287707910719777
0.03,-0.016129989483923895,-0.020311451133781792,-0.004108320496382542,0.01907518536404096,-0.0063339927963002515,-0.013289172333467405,0.1382978829930452,0.22070730821426665,0.17274745967886881,0.04583345202019702,-0.028301620736590462,-0.034073463253637755
0.032,-0.012431181275193215,-0.02333484009470891,-0.011228018117163466,0.01876351584033455,-0.0012130470978796643,-0.018461803620266524,0.14010230820771039,0.2361621219856692,0.18664540589093004,0.04779926050684492,-0.02930161494623159,-0.03706789563725388
0.034,-0.003974490172840723,-0.022703836802795852,-0.01925907751825508,0.014077971730530596,0.0066207590784248494,-0.022198836279281372,0.13950105186416017,0.2506285954265139,0.2005772225338821,0.05163833697064978,-0.030769433501997654,-0.041060389645666946
0.036,0.0024863965650330257,-0.019540495909610947,-0.02233566978730943,0.009071889997890605,0.011337287610816595,-0.02152100156900111,0.13773913475234628,0.26248455975871526,0.21225567406613743,0.05776573841262412,-0.030604807687464975,-0.04293415964277113
0.038,0.002936728317759995,-0.014911292214485432,-0.017789848768510686,0.006894297212244065,0.00915880386857225,-0.016193257926085114,0.13576073859002827,0.2699349405421249,0.21947400657132402,0.06453869455043082,-0.02796880480605584,-0.040294968979170606
0.04,-0.0005212845513588071,-0.008322329673970303,-0.007610808587430939,0.006133937196904636,0.001702049343723295,-0.007924268393059817,0.13435685372545475,0.2713752798432275,0.2211592363314368,0.07091072820324261,-0.023991786917491452,-0.03345089024221052
0.042,-0.003975997046743948,0.00015498033385791265,0.0041977070620202546,0.0040043386711090785,-0.006463790292540382,0.0011389080742376285,0.13595213576602416,0.2682247584463863,0.21847124683750088,0.07694407627418967,-0.02088891784754965,-0.025861535457139536
0.044,-0.00610687680397815,0.007264947994851331,0.013303146799410982,0.001321576988426354,-0.011816728611766466,0.008235526573716782,0.14237473247077095,0.2659897795033789,0.21460047408362817,0.08160226689666909,-0.020523538494582213,-0.02202273141911237
0.046,-0.007581506580871249,0.00841076936531977,0.015923175743601862,0.0014118924514841934,-0.01326026253614104,0.010328373483320137,0.1510854214058575,0.2695696935842732,0.21360381936436948,0.08384968259363194,-0.022268969271109926,-0.022533495368170973
0.048,-0.008014311316501831,0.0031264258931784066,0.0111448223044644,0.004447682101645029,-0.010942614320379806,0.006586111876112009,0.1574547098815292,0.27803901506379414,0.21919591629374807,0.0847624867664287,-0.023667904926285916,-0.023477090215138337
0.05,-0.005837415603473401,-0.003401665283371315,0.0024752592616254735,0.006542636066855723,-0.005755125883461734,5.536047953868033e-05,0.16014670884285206,0.2884121589749478,0.2329236468170319,0.08640728535168601,-0.02403204077917771,-0.022315272417308216
0.052,-0.0013390868447311188,-0.005927278278574369,-0.004571551739106876,0.0053013900448263315,-0.00021299183222175846,-0.004697637739342799,0.16145987786946228,0.3019638500210621,0.2524276187540919,0.09051930009637972,-0.024608031316611583,-0.020570779009109728
0.054,0.003249629123027569,-0.0037085903166334264,-0.0069718134932023005,0.0020738485661420986,0.003056462814649732,-0.005387369052276069,0.16323279225160367,0.31980153823469537,0.2721104295107904,0.09795120666359063,-0.025075541112969273,-0.019721317372391054
0.056,0.007334419884240126,0.0015383248844446627,-0.005811662006589939,-0.0020573509498744065,0.004475925454064683,-0.002754009514481606,0.1643504068063408,0.33562378552104766,0.2861766480911516,0.10720409773550316,-0.023532082245613834,-0.018718801323410174
0.058,0.012221074789095463,0.0087136379645842,-0.0034855143065249056,-0.008029024521590829,0.006365549122521924,0.0016635410145073755,0.16301762530023256,0.34139938646046336,0.2923160101278015,0.11521680916755549,-0.01955984300729799,-0.015808126766366743
0.06,0.017536641949717557,0.016916132911646543,-0.0004807070798449382,-0.015604562893053826,0.008647600987768102,0.00726012715385092,0.1610756373039653,0.3384782723558269,0.29341727537394996,0.12111917961588967,-0.013978746317244238,-0.009841916506418826
0.062,0.020450469454469683,0.02390926762163627,0.0038122193366233654,-0.02146658143849664,0.00875486248505136,0.013133146969106725,0.16345203311934878,0.33667158078531806,0.29451286477567845,0.12664385056848504,-0.007120724725632363,-0.0012197601058388915
0.064,0.019191778499163082,0.02711000173830559,0.008491393204987647,-0.022407640603539038,0.0057115029354202875,0.016960260379858923,0.1716728819928476,0.34323633810332277,0.29794135438910213,0.13243944658187018,-0.0002721042472529652,0.007095681274680409
0.066,0.015354046322808023,0.026344789372835634,0.01170151640081156,-0.01938723317300929,0.0014310956791877538,0.017480528874384057,0.18046738376927884,0.3566730714751355,0.30333527874696464,0.1370061648926812,0.0031749148806652864,0.011298587122464811
0.068,0.011304061733457701,0.02322569472804696,0.01264577935145678,-0.015536650086059561,-0.0020979445932749995,0.015853131462604825,0.18389143485767392,0.3709779138737984,0.31127583756930743,0.13896621781234617,0.0005497168507656227,0.009713519237920932
0.07,0.007448388119912492,0.017960803722628343,0.011046578424732164,-0.011431654923195544,-0.004104540348585447,0.012657186876883992,0.18290723236651937,0.3831165704756345,0.3234870489410603,0.13877796516180457,-0.006628571127866782,0.004186206504270968
0.072,0.004199114271365522,0.010389362343226738,0.006357877395446838,-0.00642090898569409,-0.0035203876063145756,0.006985573523302599,0.1833076438873069,0.3948022314096207,0.3395935754855428,0.1390727060452362,-0.013020323575402183,-0.0008943831935354475
0.074,0.0037097676728961785,0.003988485009505894,0.00017479418003952843,-0.0029139276891091514,0.0001716584718633972,0.0006848292701728987,0.18795066472813815,0.40748776484381416,0.35658783534982263,0.14282320431004933,-0.013867410679685858,-0.00216178671249637
0.076,0.00728379185545379,0.004697285399747098,-0.0025866283214678806,-0.005011023248963806,0.00434524916688799,-0.0004996720313068634,0.19386520173566257,0.4183083296851271,0.3710870465245782,0.15059976967449828,-0.009165019480273314,0.00028335430476639207
0.078,0.013261684808574661,0.01408074848758783,0.001284724558517099,-0.013006527413009526,0.005380797659023585,0.006432356767294113,0.19613220639305798,0.42397977210153776,0.3806675331235086,0.16047097599427718,-0.0026653453195465294,0.004951956915961348
0.08,0.018542456201449703,0.026540198387037552,0.00897434925695816,-0.022057106057640483,0.003236817039879135,0.017183652741994085,0.19401524577063997,0.4263892650333109,0.3851565892131518,0.1696109300821625,0.002862569712781021,0.011571625338100962
0.082,0.020968285125650802,0.035076466585965534,0.015310495270116997,-0.027074543358624522,0.0006662937236893623,0.0250447508229863,0.1923727090713005,0.42998174761144636,0.38787368872347866,0.17596060142760037,0.007438669543468831,0.019951203671467105
0.084,0.02042977872132037,0.0373294300621371,0.017992135722770076,-0.027227623489308565,-0.0007881526273983726,0.027165490348930402,0.1959387137741147,0.4365625417926877,0.3935064748241764,0.18036656072617052,0.011724419542546946,0.027995931032988995
0.086,0.018755317495465933,0.03534405903986414,0.017412243760546807,-0.025365125200823,-0.0011628906601025871,0.02485978643704016,0.20474375820174873,0.4463111196580382,0.4041322811132724,0.18587250842341724,0.015260688523661798,0.03268042126477785
0.088,0.018135147329755436,0.03189609230115216,0.014330382748918753,-0.024249784489257707,-0.00020067078326926568,0.02066563857499403,0.21593558849349198,0.4599065892286993,0.41863893644617234,0.19316262670702794,0.016456288529371803,0.03287168271064971
0.09,0.01928500156940586,0.028409771954747535,0.009534353359210438,-0.024129138653329316,0.0024575042862768127,0.016431677894850227,0.22595828599091206,0.4773658838194001,0.43589622204150413,0.1999225997892829,0.014412661804293325,0.03096873375165919
0.092,0.021888256337053345,0.02620437266673834,0.004616740999001764,-0.024416345635972017,0.006321522381635623,0.013660816312959173,0.23110296650191234,0.49789723981843886,0.4563241136363115,0.20564663331397,0.011188790856510401,0.031124113639905172
0.094,0.0255557119886695,0.026998609632627197,0.0015907042786547036,-0.025691657309734644,0.010240870197540239,0.013735557205549302,0.23045514163686526,0.5201330777708357,0.4790302181630638,0.21266192342352602,0.010229207328632299,0.03518751828899174
0.096,0.029125010082255747,0.03058835377802026,0.0014423774962198622,-0.028282665804969652,0.012791322978553161,0.016387093189028677,0.22729272774371503,0.5406656249077817,0.4994966997955841,0.22233548640941947,0.01272536427764584,0.04173690369962557
0.098,0.03123579501067153,0.03526195648773153,0.003938592924807842,-0.03154843168887245,0.012805426086749337,0.01992528564783605,0.22547808985010367,0.5556988421678569,0.5127929182163947,0.23359810086990818,0.01785691345034834,0.04920183880061616
0.1,0.03240623060064497,0.041052384292432846,0.008608588919345664,-0.03566430924330544,0.010572647701760585,0.02386101899947593,0.2279034210765353,0.5652265318159646,0.5187800896945317,0.24475291845321603,0.024725121695551865,0.05719523485341987
0.102,0.03436942666007419,0.0487457532643707,0.014381506949141358,-0.04102198031057839,0.008184230598362815,0.028898287656694926,0.2374626152958169,0.5731041660184697,0.522807204429053,0.2550161580336842,0.03169847831426424,0.06470876868816527
0.104,0.0369404097602912,0.05616162267769467,0.019123364387669213,-0.0456942306082213,0.007332536593994229,0.034392858194010674,0.2524998313331753,0.5840080331046819,0.5309513591529348,0.26398321673676417,0.03609827596658525,0.0698204629192185
0.106,0.03792927057232054,0.05968717725129499,0.021432037878075755,-0.04710458415187603,0.007325621502933303,0.03844981810200567,0.2643538791199381,0.6004887304942139,0.5448737547505396,0.2709269513986401,0.036060913729416916,0.07162750323046742
0.108,0.03716172642815617,0.05921991867957885,0.021618189990724714,-0.04614188237575841,0.0071447176742204625,0.04007095761571615,0.2677550466458239,0.6203294131928742,0.5626705805683039,0.2761665644832118,0.03208239314560808,0.07138405871360601
0.11,0.037547084595899574,0.0572916258460187,0.019479841528365082,-0.04573395927421496,0.008200879190439837,0.03868842201503204,0.26771535596749724,0.6389893676688362,0.583982149344853,0.2818211363093324,0.02711644334905342,0.07182081785553025
0.112,0.040876889030199225,0.05427710659182431,0.013430992550602311,-0.04624571097374624,0.01264212416092629,0.03314076459127689,0.26992498354348343,0.6560007361832035,0.6094789425316136,0.2895765849884129,0.02479527340118059,0.07500646120927533
0.114,0.04601585046929328,0.04993138530435108,0.004068760805661388,-0.04664916834644506,0.01986006672255525,0.02473857602477091,0.27318411670407844,0.6739299874707436,0.6354806842558683,0.29830855990813243,0.02662872266645806,0.08022511270139489
0.116,0.0520311496358384,0.04834862059350813,-0.003618548388342132,-0.04881729559613879,0.026695108675705258,0.019438432212428046,0.2748393203501429,0.6919128990990723,0.6559346684690617,0.3054281170483655,0.03119352169132584,0.08509182054954435
0.118,0.059146964483501936,0.0548045325963022,-0.004370310336843937,-0.05564157709724865,0.0305421150226295,0.022621068394034,0.2758382265467649,0.7062174825773554,0.6697478534154847,0.3114124821969425,0.03614900722568541,0.08938507190180885
0.12,0.06510126447049841,0.06737486394662726,0.0023463180664842227,-0.0648243627180333,0.030312350432255646,0.03268329145869083,0.27841762686610205,0.7157026422611567,0.6800836005058363,0.3201909477419146,0.040458655785416665,0.0953696485064631
0.122,0.0651705552631981,0.0776991887059774,0.012854863314062546,-0.06978032526552524,0.025463573904057176,0.04314895035822088,0.2825921403362851,0.7230657220276424,0.6884774629769358,0.3325370103450786,0.04437469605383737,0.10324818015933263
0.124,0.0592530791083504,0.08119158891812574,0.022414313718244483,-0.06842819820815048,0.017658684281871746,0.04986180017852501,0.28640665685785893,0.7326675846158194,0.6953699570554838,0.34356406860778244,0.048096870305668976,0.10965046764945513
0.126,0.05416428992579477,0.08089350279198668,0.027131646957608984,-0.065851076039106,0.0121666108876426,0.05293952418590128,0.2895051352554643,0.7489508212703043,0.7040248616978829,0.3499296850055055,0.05098126295393656,0.11212866889539255
0.128,0.05512581159738486,0.08117931715603251,0.026345651898639532,-0.06682799960869772,0.012902468536088833,0.05382162262049517,0.2947880660076224,0.7732826538843693,0.7192574213199404,0.3543708462300879,0.051727010265146874,0.11196932982149307
0.13,0.059789328023156625,0.08297201928449317,0.02344642052155607,-0.07062485681460953,0.01737451485212302,0.053566118006466254,0.3044869696348853,0.7996241708737165,0.7423617630310696,0.3606903109659358,0.0498265713709646,0.11172228828216181
0.132,0.06323751501561214,0.08462145633816891,0.021575257359464157,-0.07372204184854138,0.020501376257107316,0.05246759414124614,0.31619105452086144,0.8189279800351267,0.7689809865830866,0.3692959925333171,0.047094931815122976,0.11284613547504091
0.134,0.06428044356223948,0.08457406777033454,0.020320735543386,-0.0742733940237541,0.02104338788249074,0.05050161787293073,0.32495414964033725,0.8304817870752269,0.7927168527799109,0.3790064219773133,0.04681201903696052,0.11623279607000125
0.136,0.06479430799651259,0.0833591677447196,0.018479210478058342,-0.07334917452889321,0.021191538766079345,0.04859459639009067,0.3279963119579208,0.8419998124725129,0.8100175602922496,0.38879517146394776,0.050602766587474445,0.12237461199217287
0.138,0.06629436121687808,0.08319794237241644,0.016840676054311294,-0.07334532052005503,0.02251620275250954,0.04813434306379148,0.32662137250355383,0.8576734910759343,0.8210296440655229,0.39714107195987897,0.056827280482537955,0.1302831530076052
0.14,0.06887990457781784,0.08579590765823289,0.01690766869489888,-0.07579853465114948,0.024488862194120043,0.04964361297220775,0.32471725039216254,0.8725010643574735,0.8274052521561425,0.4027567879022501,0.06317151839297441,0.13821159420595897
0.142,0.07118509856554116,0.09089743047202546,0.019621731746583427,-0.08002998023808354,0.025043118882230594,0.05324229614684682,0.32517129246768744,0.8792672631063388,0.8306873886116937,0.4064283341401295,0.06921410356322295,0.14559658414031487
0.144,0.07092422348601767,0.09664753661234608,0.02540828540322058,-0.08356320191183024,0.02210727311484776,0.05895043157136728,0.3279089866763883,0.8784839881770472,0.8327245640197065,0.41110107808151797,0.07480941813212967,0.15304791366146722
0.146,0.0679438656964356,0.1009858805373204,0.03260325278904978,-0.0846295045074467,0.01652691934584669,0.06519336567446182,0.3321168929815245,0.8788371645813261,0.8364798564927273,0.4189667849806128,0.07887270393885236,0.16093617424810847
0.148,0.06610079692731244,0.10287698776407574,0.03652811255187637,-0.08436931516632933,0.012997775600113087,0.06856094995153274,0.3383564767432161,0.8865972107112198,0.8445618734030133,0.42788149807119236,0.08096974923194966,0.1679888481166379
0.15,0.06927262975405579,0.10255023260899913,0.03343647623359358,-0.08542293274810145,0.015667974867627582,0.06672224587851729,0.34687734048372065,0.8989134278920048,0.8568217035448236,0.4333179819361125,0.08107931304256412,0.17104874821729643
0.152,0.0760581204531254,0.10069119746620143,0.02511508666092187,-0.0880977186518056,0.023093685368106874,0.06103564046632351,0.3554596964705134,0.9096932847926675,0.8700589725877259,0.43483570165906854,0.07884462682935388,0.16851076408374557
0.154,0.0813557003276842,0.09806471926384379,0.017198012164671938,-0.08996671668429822,0.029995660153011815,0.05548114048041573,0.3594786514923401,0.9166460789143934,0.8799241894293057,0.4369502833249626,0.07586059406589842,0.16430383957660075
0.156,0.08268064286430557,0.09620977603886614,0.013757200599999629,-0.08987085138166172,0.03311989675743107,0.05343463568568779,0.354303998142168,0.9203212595949364,0.8838372511094046,0.4427029583367257,0.07582916573084035,0.1644337017544517
0.158,0.08184325057763955,0.0970471078760062,0.01524978226516915,-0.08963752337245304,0.032645443198834376,0.05553086851620384,0.34070966352386367,0.9200546897564428,0.8820159010068799,0.4497950230088835,0.08048500628137438,0.16939185553550046
0.16,0.08116573002357805,0.10097301087098053,0.01998695794291263,-0.0911442845036641,0.02971220733257936,0.05991961184865757,0.32701543636524044,0.9134297469395691,0.8750491869713902,0.4538648413202666,0.08760052090159495,0.17426808315725242
0.162,0.08065488659297419,0.10566449175196094,0.025400503846769566,-0.09340937162237359,0.025591619453234307,0.06393983019371353,0.3211207030326122,0.8999440504171305,0.8629535390372554,0.45264385282547764,0.09256589548995028,0.1750625972424116
0.164,0.07930321322581076,0.10740280856888286,0.028439315333395273,-0.09356693072269061,0.022399386650331178,0.06550142993831126,0.321844806571215,0.8845351248030501,0.8479287503630328,0.4468593334848718,0.0922976627727023,0.17185355448480144
0.166,0.07831510661519099,0.10474296551507645,0.02658043794774464,-0.09102634797232828,0.022769978412932386,0.06379668355333223,0.3219378689972683,0.8755430532957269,0.8346920672341301,0.4399066314852118,0.08964844641961292,0.16826484153075885
0.168,0.08028151219175154,0.10014748242969528,0.020058379918996623,-0.08874552034812909,0.027495651589415797,0.05957896656493826,0.317893055670913,0.8763344896472662,0.8266579072736332,0.435541276858149,0.09001495660678299,0.16811346040436198
0.17,0.08457312414397695,0.0969998941434509,0.012886684463171833,-0.08901775397555373,0.033527753857514844,0.05498551357711401,0.31286453844599804,0.879806623460404,0.8234733476570982,0.4338952258515699,0.09259996423574156,0.17040533017617837
0.172,0.0874174035266403,0.0962184779343574,0.009421544236949167,-0.09053360225137286,0.03661530954695403,0.05224416424328283,0.3096536540440321,0.8754320063950842,0.8212007748044384,0.43161543199572616,0.0918777491576858,0.17025437201800217
0.174,0.0872240054954858,0.09626374211794987,0.009527693170118213,-0.09094567796637028,0.036299726724381844,0.05151888589681189,0.30521465701278994,0.8599645757980372,0.8138107424317296,0.42626351538513557,0.08710723803527844,0.16620343035736562
0.176,0.08678889666999587,0.09624636622623635,0.0097333777036291,-0.09073215855518971,0.035998032555951534,0.05149066893103077,0.2949283738969019,0.8378942558632747,0.7975274670907315,0.41881277980062276,0.08348972366629791,0.1625626426893638
0.178,0.08938645813561777,0.09791462630508174,0.008888568763298714,-0.09275638167401674,0.03811944266096028,0.052341045872806725,0.27961298977604904,0.8148827827260217,0.7746822459776642,0.41231630379656775,0.08477667753219623,0.16304428014887865
0.18,0.09378223810939272,0.10221116262876125,0.009188565528586021,-0.09714656455361684,0.04098390168947179,0.05504407502759532,0.26524858122338224,0.7921479465873362,0.7503846004016456,0.4082008323765047,0.08904062095424287,0.16587101035515503
0.182,0.09395547203437273,0.10512856213575657,0.012178442668375505,-0.09851222062258201,0.040289552529636195,0.05801512558849937,0.25591107449141026,0.765926893977365,0.7257979580748454,0.40300715302740037,0.0913326123282188,0.1663735471667272
0.184,0.08464231944209398,0.10104337427517718,0.017116980361978444,-0.09123709742563985,0.03294842643761125,0.05819495737661171,0.24907434562904981,0.7344477704178007,0.6980600845121934,0.3909409129745006,0.08885808262582712,0.16156759343052196
0.186,0.06825506008942168,0.0904955662236779,0.022355037892653716,-0.07727462208756744,0.021005909485469244,0.055440995694930884,0.2400306111907904,0.7031189663163534,0.6669524814149611,0.37174921290777224,0.08334774546858001,0.15242587277074993
0.188,0.054949484117570904,0.08080009789897191,0.02559624015892193,-0.06564014391254365,0.011744231314057248,0.052531717847244454,0.22925367568223434,0.6778425917795369,0.6380484910624719,0.35300696485848904,0.07823105910251461,0.14337661230112994
0.19,0.052803867504195474,0.07716351295027386,0.024170867916333647,-0.06288602608155822,0.011302440176831042,0.05036155844681841,0.22085019169152925,0.6570717015772893,0.6164013805869282,0.3408932846609176,0.0740141850933666,0.13731344143149013
0.192,0.05916504143992686,0.07702063160735922,0.017915232971574584,-0.06649337945155169,0.01809923363000561,0.04682466141938245,0.21474095088879527,0.6354712811649292,0.5991328952654574,0.33210418202120706,0.06851639125663583,0.13125804931069124
0.194,0.06464693982541699,0.07560798427948845,0.011232343738261754,-0.0691565230587346,0.024538574400793482,0.04189477112308665,0.2059030542355219,0.6112135172820662,0.5780862488938685,0.3195759612830018,0.061842617829665415,0.12107088048724314
0.196,0.06388032303839314,0.0728121927608339,0.009448770322566127,-0.06724258124210042,0.025098424850867822,0.039387071976485555,0.19144999684519143,0.5856005391022654,0.5489408355076036,0.3025566256202575,0.057743141456087395,0.10873327915948315
0.198,0.059323519270931616,0.07134388873707723,0.012877073668223729,-0.06314732378354848,0.02116006347817016,0.04132700101252039,0.17430765872661955,0.5580735581947626,0.5145398227584485,0.28633725859677833,0.0587094932594952,0.10012271482739277
0.2,0.05554074709982084,0.07150045786749581,0.017076649814437864,-0.060585665980443404,0.01758404955829304,0.04458341159673978,0.1596666307058262,0.5254547388594358,0.47990754860867324,0.27426425296140294,0.06242896568371555,0.09747029114129484
0.202,0.053354875024755825,0.07095321070470964,0.01871493239415105,-0.05984820671899608,0.016507575878164718,0.04511306387178055,0.14993628699034203,0.4873828896896988,0.4471767762201561,0.26357939337029573,0.06459990684502233,0.09767484233662727
0.204,0.050528892139642775,0.06825588014788687,0.018586487140600853,-0.05830220026944649,0.0158823072321679,0.04277824362791174,0.14271160314921563,0.449462687859163,0.4156791693574207,0.2495645096110075,0.06330025385636423,0.09586640028820483
0.206,0.045618565005324165,0.06423902798223527,0.01907311044545726,-0.054308274367532716,0.013183068185753707,0.04042763440527707,0.13347612004825704,0.4177556320681175,0.38471640480353136,0.23191835246088172,0.05910468408432884,0.08876425700202772
0.208,0.039985486248835585,0.06035887993212215,0.020430904455128854,-0.04933113347583744,0.009314448616904426,0.03948188615897246,0.12096934718211902,0.39265448237464595,0.35586514949098325,0.21492108057642165,0.05294278500445506,0.07746383377180652
0.21,0.03613157391634521,0.056725494600994755,0.02045224529024119,-0.04546866864219838,0.007530269671531622,0.03805001532986766,0.10843769294218249,0.37083494995552035,0.3324779972705478,0.20199973677736696,0.04597737181477107,0.06711913422367079
0.212,0.03434750846996217,0.051826418815207304,0.017375222071318912,-0.042168495260630545,0.008883333698281476,0.03364850971811304,0.09927383224344914,0.3501124982372182,0.31512026074159927,0.19289345366259975,0.04039387315792458,0.061331698140416904
0.214,0.03303492556179917,0.04508864780410352,0.012071108669216088,-0.03800058058394509,0.011300902339753924,0.02682395489469113,0.09296699157086205,0.3298844401888893,0.2988233823100555,0.1858392374443078,0.0384302636156927,0.05870586831715408
0.216,0.03234152206166269,0.03967996331389336,0.007400517358069072,-0.03469762919712781,0.012843518424640307,0.021388339905296035,0.08556156542848174,0.30934955339635173,0.2782660672464428,0.17929935541397884,0.0404280369721895,0.05652076525462484
0.218,0.03447710189570919,0.04025721550982082,0.0058006833172859484,-0.03591670870186364,0.013564261309117389,0.021016850569063984,0.07422014020857455,0.2875939182651632,0.2540042009055175,0.1716378538681975,0.04439220289964931,0.05474620755035546
0.22,0.0392080632762418,0.04662648830530475,0.007394888086823017,-0.04135118953567617,0.013974479819523456,0.02544814280514403,0.061040839618409885,0.26420656743633586,0.2297351768409472,0.16149051265236064,0.047672013551539,0.05463798160900402
0.222,0.040901834756360604,0.05138306426995372,0.010480828673816342,-0.04447129724374909,0.01281259823745088,0.029882144373955886,0.05014493758562931,0.23901050512799987,0.2054839032003965,0.14813480325905615,0.04862862745822377,0.05531288295164001
0.224,0.033475692274852566,0.04657862070221183,0.013236395462360271,-0.03865655121589419,0.008111543790536288,0.02911283594790544,0.041812645382897404,0.21318935173399217,0.17855619819406926,0.13179412481083616,0.04678696125148611,0.053746124654538235
0.226,0.01896130025229604,0.032856628521382845,0.014235942207500513,-0.025233661100532382,0.0010866817218978843,0.022767049563739275,0.034177876370863336,0.19031917599720677,0.15051985032350398,0.11493844222664822,0.04205951856537993,0.04772681512696211
0.228,0.007107974712085175,0.01911761514369888,0.012437368642935778,-0.012800617480560217,-0.003498527038050355,0.015188955318476008,0.02915470454822403,0.17262820995834832,0.128044266416112,0.10102018503762271,0.03441788696376118,0.03789205790752938
0.23,0.004475023142162237,0.012351898230575621,0.008127663252267573,-0.007908456293060421,-0.00252870091234232,0.010112084263236044,0.0298130049406279,0.15776600737905233,0.11558900630667245,0.09057270098166177,0.025336065804400475,0.027238859192417735
0.232,0.007366490825657758,0.010402138342961723,0.0030049094187548035,-0.008300090207751475,0.0016748775308138004,0.006860479891156627,0.03290008315807052,0.14302127109963014,0.11011576285436066,0.0811980082317607,0.01848860354364897,0.018690829108895825
0.234,0.008084374536546068,0.006647515399922093,-0.0015824810929079424,-0.007111413705225743,0.0044869283468637906,0.0023327197706858697,0.0308239547301801,0.1291902342087692,0.1038517462640005,0.07155840035233173,0.016273466429283866,0.012996986939660385
0.236,0.005015808617415025,-0.0002339260468990661,-0.005310103125919465,-0.0022668312652875024,0.004517834927683666,-0.003992005641771256,0.021342872499006675,0.11746338948090855,0.09118757906875741,0.06271862856702962,0.016752199186973522,0.009329788445584332
0.238,0.002569479029052082,-0.005159367486692011,-0.0076814519591966455,0.0018909452870468513,0.0038228896192316585,-0.008785793272574786,0.010258997769895962,0.10638022230824017,0.07274675244527218,0.05562293310784516,0.01667177007601306,0.007189310553062067
0.24,0.0032930419636076603,-0.004401732028677731,-0.007639305430715535,0.0016083092956935211,0.0036284380111397748,-0.008904654092280237,0.004032398108640948,0.09304725916563543,0.05313206864227246,0.049174587919646386,0.01581967380828724,0.006514041891553499
0.242,0.004716755609921148,-0.00013456677804325225,-0.004850305045589133,-0.0015325303338638888,0.002873018676934821,-0.004904168858814984,0.0035604497226726325,0.07547718792028597,0.0358995531124216,0.041248293305420194,0.015851278312483574,0.006394819310667332
0.244,0.0036123001645943635,0.002590649085940577,-0.0010512849140675517,-0.0030514072922179446,0.0009808116722444084,-0.0005108928178674023,0.005688042097602144,0.05518033312513686,0.02214195014500864,0.03131264351511387,0.01638359389128194,0.0050254204168461505
0.246,-0.0003200622592271582,0.00045696090009454297,0.00076231557587318,-0.00014124842560793227,-0.0009133765056307577,0.0002280795365536873,0.007731554086311724,0.03773153786097796,0.012149929299859814,0.02118687924918934,0.014807270225574274,0.0009855130998643886
0.248,-0.005858317201370335,-0.006498213623636542,-0.0006527081175761886,0.006799863463780308,-0.002312097184320296,-0.004011311511158664,0.009593886077751523,0.027853195088673996,0.005422607857581767,0.012316964720182387,0.009550767445319413,-0.005715457441141027
0.25,-0.01212143010753279,-0.015842158491556797,-0.0038616043721088414,0.015259275003812956,-0.004140391112228131,-0.011035516909945501,0.012327419453910016,0.024707485357611934,0.0006478068939820541,0.004374570013484125,0.002149925350424884,-0.013382943323021068
0.252,-0.017570633046738164,-0.02462044672444318,-0.007529556315994534,0.022371001836811438,-0.00620668880337838,-0.017715658259463765,0.014851886274160607,0.024043758037661195,-0.002444119250099102,-0.002207882219213959,-0.0039820537937263955,-0.01957381005091789
0.254,-0.020091360024452203,-0.030758141960060575,-0.011576371328628226,0.026574791798236665,-0.006703635719262505,-0.0223310168408655,0.01387720395620149,0.022263452811215344,-0.004107619602211643,-0.0060927968510280425,-0.006640966732889948,-0.022863264592866726
0.256,-0.01900712846462095,-0.03320226511673511,-0.01533553943508643,0.02772480453333243,-0.004765965900963132,-0.024450380497691052,0.00836863744325228,0.017112122240103052,-0.007565161720247185,-0.008559169464642602,-0.006679003790012891,-0.0238742305825068
0.258,-0.015639106033070612,-0.03237166576602566,-0.017732629817487654,0.026452089405053492,-0.0013381499481276596,-0.02490103088877558,0.0015110052977428043,0.008157520927163127,-0.016783124838961022,-0.012476539327916883,-0.00628122360401847,-0.02429116158302824
0.26,-0.012169604877093098,-0.03014725287747338,-0.018612876393909246,0.023997767023534972,0.0018149425950120639,-0.025037077327476034,-0.0033600447544677213,-0.002419689954884616,-0.03151761656159506,-0.017513751208227766,-0.005732741445232989,-0.024671725373726586
0.262,-0.009967152369283847,-0.02715068307244903,-0.01753144585102668,0.021011134803878326,0.0028029805987369594,-0.024125989722733925,-0.006215252423619431,-0.01204222515123372,-0.04713027123343065,-0.021122161681374825,-0.003832101166927189,-0.02486697007459206
0.264,-0.009562721700998977,-0.022857068186953915,-0.01352973239780611,0.017911692817944493,0.0006025661656180962,-0.020475468794683857,-0.008088177512791601,-0.019834323321928676,-0.058337242098061196,-0.02357827842110787,-0.001487941856138593,-0.026836814134274512
0.266,-0.012524770454092879,-0.020256623574537128,-0.007881763935110473,0.01771840083173593,-0.004191820475048661,-0.016102767534460417,-0.008225064906275842,-0.025568569878914423,-0.06294121725537018,-0.02819130202487277,-0.0019588383465399106,-0.03341670342352496
0.268,-0.01994134207042676,-0.024466187578104474,-0.004540334797932576,0.02373169602720786,-0.009555294869182112,-0.015777066120431695,-0.005639107818072439,-0.029125275295236577,-0.06327756626391269,-0.036707948715693,-0.006770301252233281,-0.043526373129026234
0.27,-0.02847281776998062,-0.034863660098983756,-0.006319535980680719,0.03344947854509618,-0.012740986634979344,-0.020820264428009553,-0.0011152173372492257,-0.03094840968222293,-0.06298266850716748,-0.04612624947750869,-0.013642941274823482,-0.0524088902927952
0.272,-0.03268589822835353,-0.04450674492158702,-0.01177117388462624,0.040366686493484204,-0.012363018710481347,-0.027555213766635504,0.0037992587768473024,-0.031177534981290844,-0.06263457203913245,-0.051185348550206754,-0.01909010799992525,-0.057041811853695085
0.274,-0.03169664289088811,-0.048580066070780754,-0.016895891946662016,0.0417618126067648,-0.010013456636006184,-0.032231900216082444,0.00764260937830543,-0.029465038775310953,-0.06107259634856329,-0.050571412762424404,-0.02165081666919178,-0.05801805954842545
0.276,-0.029233797232576998,-0.04836806230679589,-0.019167341694280252,0.0400325286328067,-0.008206557244990411,-0.034278882829907334,0.008212126556239043,-0.026502054828583834,-0.059553670984951436,-0.04833221456546848,-0.022091941711286478,-0.05685031519235677
0.278,-0.028094582790059504,-0.046261138616287195,-0.01817591409057598,0.03764266938029804,-0.007945446258669395,-0.03380118012489988,0.0037129632032310185,-0.024847089375394347,-0.06147675103785707,-0.047837024105698144,-0.02142760242519037,-0.05467812140858475
0.28,-0.028308918846609212,-0.0419608900338255,-0.013638516526982463,0.03489884562862431,-0.009495529333334057,-0.029599874027391154,-0.003905290771356586,-0.027848698664544713,-0.06845123733563215,-0.048068351538259745,-0.01981736858290399,-0.05243054666051326
0.282,-0.028703782006170218,-0.03493960897869491,-0.006224290019526417,0.03145175415317216,-0.012591139391335085,-0.021884353331132658,-0.009156657982228516,-0.03673163615153714,-0.07775047059068714,-0.04727074024633841,-0.01748654161801954,-0.05017836628320096
0.284,-0.02837751922830042,-0.027625147401007993,0.0007505575215882223,0.027927664954043835,-0.015499727978566257,-0.014284321567754733,-0.0077926476246359296,-0.047716689823418326,-0.08384560290622606,-0.046090842152838006,-0.015844928712360675,-0.04769443123610003
0.286,-0.02905989549351244,-0.024729109205081878,0.0043236293911693875,0.027108030573397335,-0.01749430821443052,-0.011117058891014081,-0.0005901716902911735,-0.05405233855877675,-0.08347838785350309,-0.04593391101598714,-0.016502465600850925,-0.04592259812495789
0.288,-0.03411502055864677,-0.02882459996317048,0.005287991883193092,0.0319695885231832,-0.020499997134116956,-0.013339003611844497,0.007346208088525872,-0.05236974131441094,-0.07892300973814588,-0.04713736110958912,-0.019204763140680748,-0.04649947309312264
0.29,-0.04267376086893032,-0.03700896252469882,0.005667543098156817,0.0409586002845353,-0.025058701998299397,-0.01800065562593845,0.011370907282342049,-0.04440978241709716,-0.07434887777869376,-0.04909867080173174,-0.022479253678174122,-0.050230764336274825
0.292,-0.048770050812730066,-0.04374955386439346,0.005023133141096488,0.048057438473829525,-0.02800510198179136,-0.021719481433222408,0.011166936110502452,-0.03393735870267481,-0.07046994329660515,-0.050798351226292275,-0.026226792169222437,-0.05611489204599778
0.294,-0.048205807816823515,-0.0466561188172375,0.0015494503338832949,0.04910545952335301,-0.026322155261201973,-0.02405319657452243,0.008449903759112795,-0.0267391275092802,-0.06627067502485855,-0.051909770049315386,-0.030973884835523234,-0.061084179748853766
0.296,-0.04336846031836049,-0.047823864431365874,-0.0044569567040392884,0.04625790262554308,-0.02115991933904706,-0.026772530774515017,0.0039827834617232995,-0.02867358632863,-0.06365825614545305,-0.053178542692057476,-0.03450967994289344,-0.061827210854752825
0.298,-0.04028335071513726,-0.049639683085238355,-0.009356943715654143,0.04488789480701972,-0.01714920820648831,-0.03009745082854204,-0.0002938818466894132,-0.03816114326334017,-0.06566791867689706,-0.054127647268806756,-0.03294918012638866,-0.05804931150570251
0.3,-0.04203266230644322,-0.0511962842437883,-0.009163066665608652,0.046905691270521785,-0.017736982105086535,-0.0313538689326186,-0.0013586190057427948,-0.0467492261221606,-0.07204294041258671,-0.05266370741193493,-0.026438822034555706,-0.05302428630694453
0.302,-0.045900768045673786,-0.04995901372044505,-0.004057646822999081,0.048981643672883345,-0.021676383605601878,-0.02845374310044464,0.00011153713859922507,-0.049266315299028314,-0.07959858690989767,-0.04925668373824464,-0.020449710755477364,-0.05036831317104647
0.304,-0.046799484255932965,-0.045195730854679796,0.00160373642041342,0.04721566893415947,-0.02489043009033892,-0.022967854579956287,0.00042339096304485995,-0.047410617270109805,-0.08459705233612197,-0.04800227620500883,-0.01972670695708411,-0.05115869048879301
0.306,-0.04268842287709522,-0.038719324499680276,0.003968763459135095,0.041611302741974346,-0.024835719137911827,-0.018448935546076156,-0.0010164095911535513,-0.044867572708619866,-0.08437430982650283,-0.05096315993997223,-0.023532065091970377,-0.05419560988763219
0.308,-0.03672407464373365,-0.03404240467363464,0.0026815192617170264,0.03606763315128575,-0.022361245880048584,-0.01732623247361666,-0.001003604553440561,-0.04374519934002436,-0.0794359573670849,-0.05514403835616042,-0.02804529572183382,-0.05788271670321143
0.31,-0.034787740975833426,-0.03515288952675154,-0.00036503776475921344,0.035721275085178784,-0.02034804207328069,-0.020044462016466036,0.0028573440264825136,-0.04344791362893009,-0.07301016287491048,-0.05726693144072888,-0.031271578595758145,-0.061098735864625664
0.312,-0.039785979854078585,-0.04320298439914751,-0.003416869382457568,0.04267254370275852,-0.020681429318582075,-0.02541179086164717,0.010265247349876013,-0.04108677063373815,-0.0670918394770284,-0.05740973730854358,-0.03384210860236715,-0.0628074723825259
0.314,-0.04695328910523591,-0.052861965105821786,-0.005908671898113777,0.05161132647731432,-0.02185927914154193,-0.030692750224771848,0.01858029325333141,-0.03525790753468885,-0.06152269012960206,-0.05620661655988446,-0.03619102929395231,-0.06236730170811821
0.316,-0.04802920493799215,-0.055964113978893774,-0.007934980842725653,0.05362996708480173,-0.020765741227972537,-0.03278063699054687,0.02267866983541774,-0.02905279198491913,-0.05742733362237725,-0.053405993278486004,-0.03744800902460619,-0.060236877589552
0.318,-0.04232375802836538,-0.05112235495316098,-0.008798633460094019,0.04771081875612143,-0.017615374634743698,-0.030905423539334825,0.018529283837481703,-0.02717484141112944,-0.05731933532608464,-0.050675180670488346,-0.03688692140786523,-0.05726511159357323
0.32,-0.03806535706780894,-0.04475398567337171,-0.0066886068728927665,0.04226051282215761,-0.0166297023560356,-0.027072663130406273,0.009240180134463725,-0.030910176147369677,-0.06051261607059756,-0.0507157620217485,-0.03421035588235404,-0.053915856339777
0.322,-0.04096579978312509,-0.04209331575522245,-0.001127485653219561,0.04328697550825865,-0.0205024020334079,-0.02340588944347824,0.0037738287992445437,-0.03727626808919951,-0.06242721463764645,-0.0527975550410857,-0.02930141673424841,-0.050758371559152464
0.324,-0.04792147150195447,-0.04301833409402363,0.004903140029862804,0.0482925133966256,-0.026718887243877016,-0.021004807639653553,0.007575008729967157,-0.042003820469448595,-0.059909272582539544,-0.053503496919866944,-0.023998580578488613,-0.04891755766538003
0.326,-0.05270674269900213,-0.04529176663450973,0.007414960771152184,0.052006626151621986,-0.030565563298602345,-0.02050027495334216,0.016304780095826088,-0.042373516952090524,-0.054218376555089015,-0.051472145232016236,-0.021938362779010248,-0.04962981426161934
0.328,-0.052616529243368175,-0.04702432523035625,0.0055921952772255675,0.0520564769029031,-0.029959958659535414,-0.021571034715373853,0.02137302033268242,-0.03807279543505554,-0.048397005899198854,-0.04845518574881536,-0.02436668272826371,-0.05288869419480651
0.33,-0.04919720404422495,-0.04731830137169806,0.00187890684576916,0.04936945232353645,-0.026502290335489977,-0.023102679268976477,0.021153424056307733,-0.030818577932879433,-0.04395996124183937,-0.046954021646990446,-0.029075401000115096,-0.05674141350420152
0.332,-0.045488408391982094,-0.046775969048766394,-0.0012875538960929198,0.046576127716987784,-0.02298811704457323,-0.024674813251517096,0.021522782763625348,-0.023708641829604055,-0.04031031401026699,-0.048011890203437615,-0.03426966027450252,-0.05925620458003638
0.334,-0.043359110358022056,-0.04682118010768597,-0.0034620687978230208,0.0458839204298982,-0.02076541679537301,-0.026623036717443115,0.02490821176449491,-0.019595040824941783,-0.036647921121188566,-0.05002307702007446,-0.0393102446015919,-0.06023828303488168
0.336,-0.042738131322626015,-0.04799865487459957,-0.0052605267867891214,0.04702998930907374,-0.01943404817638891,-0.028553738596577137,0.026566454327601546,-0.018938667608635697,-0.033926451177994664,-0.050048868995525714,-0.042280304610829704,-0.05967180218310115
0.338,-0.04292665594276661,-0.04911151945690254,-0.006184865578702806,0.0478339914831726,-0.018758124264443177,-0.028920274584464067,0.023240858939757348,-0.01995791517352174,-0.03437763223955188,-0.04723122225872638,-0.04147966405345245,-0.05676270137864784
0.34,-0.04392644474448793,-0.04826485171214741,-0.004338406188495427,0.04719381492631045,-0.019781144952473347,-0.026570339824591303,0.01807786394866044,-0.021291187386807343,-0.039155689181046525,-0.0440850534896973,-0.03812448642594396,-0.05215593380482562
0.342,-0.04588965400533408,-0.04525486343288256,0.0006347920713052304,0.04637803093278057,-0.02311508593227243,-0.022558206670640214,0.01531301987963992,-0.02360077508324579,-0.04635884436896056,-0.043966118764175395,-0.03459845400313319,-0.048855647872272985
0.344,-0.048174973884385915,-0.042645265253120936,0.00552970892199162,0.04703127591652083,-0.02704276038864818,-0.019767324779011594,0.015527469457756918,-0.02752154461098423,-0.05143274389219886,-0.04748946487848896,-0.03227310798148999,-0.049040174034222166
0.346,-0.049312003062770234,-0.04278707014821763,0.0065249322354601486,0.04847467607393568,-0.028516347302439293,-0.01997576021153851,0.01693461830652774,-0.030868326133418923,-0.050634132076672195,-0.051600974581733544,-0.03224187088066961,-0.05141191737056088
0.348,-0.04830778071593777,-0.044960364940481744,0.0033474152924279675,0.048586976951577085,-0.026322817382492335,-0.022184707804746746,0.018107091728119827,-0.029984428000012487,-0.04422303783888212,-0.05249299299772632,-0.035013052947933485,-0.05332189794619132
0.35,-0.04688697156231589,-0.04792597213332871,-0.0010390004311368888,0.0481763266081032,-0.02289753433601838,-0.02492559034625372,0.019321040678973535,-0.023507292208876554,-0.034851061367225426,-0.04917120904076858,-0.038765525793934566,-0.05371919873250887
0.352,-0.04787901922009954,-0.051785027821776165,-0.0039060082712645454,0.05033216169751768,-0.021719252519639257,-0.02788297813363629,0.021750850432831797,-0.013713396843090475,-0.024464780178088574,-0.0441407163960195,-0.04073881514385046,-0.052670496648549094
0.354,-0.05040970779002382,-0.05481028532796271,-0.00440057745644955,0.05395324323195835,-0.023168252298949286,-0.029826120553621174,0.024885316047701497,-0.005203977377385887,-0.016002593447580368,-0.041139554185377084,-0.04062523952723284,-0.05062965171389815
0.356,-0.05052537245115512,-0.053622419073820794,-0.003097046764055492,0.05384076886048557,-0.024570817614018976,-0.028776923817984256,0.026422777487950855,-0.0018186577484999667,-0.014181894143810832,-0.04152573583565966,-0.04006212381519322,-0.048949738042382986
0.358,-0.04673018017660029,-0.048497659526028435,-0.0017674794614343137,0.0485603362092958,-0.023652690666239852,-0.025638554079257154,0.025241479646300507,-0.0036960411196924653,-0.01947242104046146,-0.042825883458663554,-0.039007061531818744,-0.048305636341336916
0.36,-0.04186463872669526,-0.04362298148252182,-0.0017583427321671264,0.04275681030353249,-0.020959340485005574,-0.023472371386725366,0.022415928309571957,-0.00854533316228892,-0.026102861468528245,-0.04243495558741357,-0.03599123864017825,-0.04754254737870312
0.362,-0.039663399247415625,-0.041632733850192276,-0.001969334530351231,0.04088150446727443,-0.019216140292867327,-0.02301638919507534,0.020111780954430995,-0.014533199417719762,-0.029666414082952983,-0.041538874419891895,-0.03188986628788535,-0.04654513258845566
0.364,-0.04111121031879886,-0.04238563671206908,-0.001274426371587374,0.043027731824174,-0.02008785236732463,-0.023163831202456877,0.02050571177279002,-0.019788080807385172,-0.03130703207793187,-0.04277861261461969,-0.029671439589258424,-0.04720767688555481
0.366,-0.04421209072500827,-0.04549380646022732,-0.0012817157643863876,0.046957696715382594,-0.022072687371353032,-0.02435028522307105,0.02397182791895769,-0.02196797570579734,-0.03292013627969067,-0.0456785698403898,-0.03020604945034476,-0.049576967826355046
0.368,-0.046163366998023814,-0.04973233259473211,-0.0035689656224730743,0.0503561871900902,-0.02244401023293292,-0.02740152790758341,0.02827888926695708,-0.02024545932430179,-0.03297493144266021,-0.04725994331841874,-0.03152230393458486,-0.05106818507827245
0.37,-0.045596088690988544,-0.05287477032047592,-0.007278681625876738,0.05172750390273756,-0.02030214828631334,-0.03131038783502196,0.030181969239809602,-0.015540914837281544,-0.02869886253050202,-0.04656817869802028,-0.032960446116352626,-0.05080784261237156
0.372,-0.04338130679367166,-0.05436423204009114,-0.010982925230634393,0.05135683580761655,-0.017142104871103472,-0.03447023177808157,0.027727970480418983,-0.008959256418445543,-0.020854345956394883,-0.04586754698369616,-0.036683858354974126,-0.05091688834823228
0.374,-0.04129937511220336,-0.05494970682881001,-0.013650331711037238,0.05033708825919723,-0.015191279636425555,-0.035922683725680624,0.022085167964614755,-0.0020385292681799963,-0.014626466993300486,-0.04670192934148696,-0.04266716670111115,-0.05269507389606572
0.376,-0.03990672186248238,-0.05408613138121414,-0.0141794095246858,0.04868289416203194,-0.01506125217759091,-0.035241602623045924,0.017016553799321054,0.0021666530906721366,-0.014467408976439944,-0.04779598142168339,-0.04644894728801703,-0.05454009537519887
0.378,-0.03803616713570852,-0.05030618853202989,-0.012270021402204715,0.045594721424988674,-0.015196130571840726,-0.03246288329630026,0.015199721100754779,0.0006223902108012473,-0.019268896831346975,-0.047885433221577664,-0.04531281698382534,-0.05416573382846011
0.38,-0.03457138466863338,-0.043350202507385145,-0.008778817838312712,0.04075392038220448,-0.014480609844141797,-0.027789992138233428,0.015582129208690171,-0.0061804544177238695,-0.02465676766026738,-0.047300592759547955,-0.041985662358337575,-0.05113627890046673
0.382,-0.030124457727963478,-0.034968717086316395,-0.004844259354932523,0.03473191166642578,-0.013884967156723795,-0.021882681739790386,0.015952736713288545,-0.013828793374763384,-0.028464906543297912,-0.04652047917727271,-0.039993490945952545,-0.047496473245176904
0.384,-0.027099550855266316,-0.028616158145359286,-0.001516607288698805,0.02952990139422965,-0.014566018021938533,-0.016757156194975423,0.01607253568289983,-0.018578248397911147,-0.031515260110484035,-0.046243699402956334,-0.04003995348685799,-0.046640303530456624
0.386,-0.02872935639154665,-0.0283517988163573,0.0003775575739886881,0.028942540623113987,-0.016533459121278883,-0.01509985118872218,0.015573791825612866,-0.02065426674171266,-0.03442071715640082,-0.0476040975462215,-0.04134802614328318,-0.05020783317797074
0.388,-0.03554707599198643,-0.03506113410512271,0.00048594188552938077,0.0347877142581053,-0.01908579168565142,-0.017761167670005084,0.012851951468143163,-0.021058602543519704,-0.035700129204655984,-0.0498562774524162,-0.04272752012667214,-0.055567340883149526
0.39,-0.04193874726551147,-0.04340002101910999,-0.0014612737535806455,0.04224724304948078,-0.020444753714775808,-0.022595726936526988,0.008668643578723358,-0.01808330575236433,-0.033170062622009236,-0.05028498930372286,-0.04312453587206013,-0.058071857039972564
0.392,-0.04086757736995289,-0.04657957092923741,-0.005711993558547803,0.04407880428259295,-0.018440129004511085,-0.02660511016892011,0.005701113592807665,-0.01114710003774258,-0.027515063394331598,-0.04796472480862591,-0.04308887727414477,-0.05620429310142619
0.394,-0.032605784794155004,-0.043483484399659246,-0.010877699605162095,0.03912888255042862,-0.013481272664017475,-0.028186981913356716,0.0038816678965090546,-0.005324239678387744,-0.023076865297615434,-0.0447701296352502,-0.043493990352278876,-0.05249258997427027
0.396,-0.024276478899102068,-0.03783483433961692,-0.013558355440753471,0.03228022695395483,-0.00907763585400291,-0.02710924426171844,0.001136497025269358,-0.0065088748728546145,-0.02279481308172386,-0.042167128387152635,-0.04273597873734396,-0.04920124903550487
0.398,-0.021312390328256433,-0.03291877402710232,-0.01160638369914658,0.027993134550515587,-0.008122490663964033,-0.024100401549165835,-0.0022638423842267744,-0.013525221968337735,-0.024862094233927004,-0.04003947107458581,-0.038809746294425955,-0.04589080443242817
0.4,-0.02284416968850775,-0.029289859581766404,-0.006423750272583606,0.026761023715772367,-0.010230894976805474,-0.020320925213466505,-0.004128978020006904,-0.01963766009885724,-0.02691476715161748,-0.038409492132033186,-0.033101820725031636,-0.04178383367827611
0.402,-0.02473085513697992,-0.025934901202659476,-0.0010946699207634554,0.026330457759466033,-0.01305310183379656,-0.01645693666404568,-0.00409559850222721,-0.021039131306914295,-0.0298775509671714,-0.037540564308159115,-0.028549559837363042,-0.037777286516304416
0.404,-0.02476385777004359,-0.023211421072355923,0.0017485399922699423,0.025497135034265032,-0.01461315650476953,-0.013418621119674961,-0.0039336093935115465,-0.020099900386150022,-0.03486887753280113,-0.03704489597161617,-0.02589100244202073,-0.03500929674209282
0.406,-0.02488350499928785,-0.0241923181862438,0.0007863729694291544,0.026444818471144348,-0.014821577026080194,-0.013313220173857323,-0.004728527438430773,-0.02006277889987244,-0.039655694438522064,-0.03654136038263676,-0.02428182613656369,-0.03328240286991234
0.408,-0.028127280096509392,-0.03081203368533005,-0.002851818133897129,0.03140339523532941,-0.01523050717310195,-0.01734332172496163,-0.005926393379508918,-0.019455810430413452,-0.04110944733229793,-0.03634943419722169,-0.023458605740168073,-0.031941080240966556
0.41,-0.033111471960721985,-0.039959367424058,-0.007107169974161043,0.03793048164892527,-0.015743224221737257,-0.023811264631116637,-0.00640438164033686,-0.013836756042792359,-0.03895393542196229,-0.03686651594309034,-0.02351946749914653,-0.030972680273768326
0.412,-0.034620227598597016,-0.046877596538391936,-0.012246176320855591,0.041412882688208266,-0.01348541167634909,-0.030242822231968242,-0.005594775338776503,-0.0031611685441451393,-0.03489932513942223,-0.03752338386819608,-0.024003673942974604,-0.030481320883087328
0.414,-0.030716206479668176,-0.04983678618562308,-0.018710579749526727,0.04072761837956726,-0.007842271652143157,-0.03519444880771676,-0.004813872024533819,0.005285909001866798,-0.029995638491893455,-0.03709480222668934,-0.02416462703161333,-0.030363413600859097
0.416,-0.025321136081602285,-0.04926333777868556,-0.023410250850336434,0.037984130066783486,-0.0029902219405482256,-0.03730780175301629,-0.006758198684239038,0.00402208002116722,-0.025429554654136703,-0.03591916681429807,-0.023597541822677204,-0.03059095270305933
0.418,-0.023104670712248393,-0.046450130385837604,-0.023079630599873436,0.03541729031876548,-0.0025608365410648855,-0.03591853766911619,-0.0121535823452321,-0.007098410079297077,-0.025053581660786948,-0.03635958312176476,-0.02252652185439059,-0.030722981680141672
0.42,-0.02466449151919457,-0.04317816155573666,-0.018593600680839834,0.03410392224773883,-0.005597604208897147,-0.03213902993376247,-0.01822213516851722,-0.02214426688048397,-0.03292718855886721,-0.03935111860504326,-0.021900881226233886,-0.03008115340379865
0.422,-0.027165277098322792,-0.039807903069969376,-0.012820189521757328,0.03359709196496106,-0.009380697263181052,-0.027363974756898037,-0.02153140487101655,-0.034028587270388204,-0.04671962039487794,-0.042567662897755,-0.023083181348113786,-0.028867160773699548
0.424,-0.02816078555051793,-0.03583153276020857,-0.007741615126733914,0.03291437803234602,-0.012435401067191671,-0.022552209545753273,-0.021290353568320822,-0.03813073736233503,-0.057973208963070115,-0.043558511296665034,-0.02639527526320156,-0.02766222670298358
0.426,-0.02716547283816719,-0.032263194123455345,-0.005180707486547358,0.03160468434962478,-0.013475961811113508,-0.01929243485834367,-0.01926776880002237,-0.03470758447746335,-0.06118534378804756,-0.04227659271733623,-0.029453375184262984,-0.026300151105953944
0.428,-0.02453510994872405,-0.030881635402144614,-0.0067450967643779,0.02969366168108188,-0.01110986553721928,-0.019216355533414994,-0.01762584749847501,-0.028409509233666433,-0.05860822966032783,-0.040524899566113236,-0.029119143349241223,-0.02463830803907359
0.43,-0.021522991149025415,-0.03245506380886741,-0.011691313327480302,0.028425111774571857,-0.006365046072619214,-0.022393122913061,-0.017782520749448808,-0.02575135077077493,-0.05529567072271793,-0.04131293934031185,-0.026272732753946336,-0.02355070477931431
0.432,-0.0201011185894603,-0.03657021124766857,-0.017184321858741372,0.029697382387133438,-0.002453671199228402,-0.027342093247636756,-0.020244585463589582,-0.030802112378714195,-0.05380924729785485,-0.04640735044659184,-0.025607515666943113,-0.024130263448765173
0.434,-0.020431904611914627,-0.04143385211676135,-0.021244496392146327,0.03290230113419865,-0.0007989358886159708,-0.032036278269400045,-0.024080265831106867,-0.039454320391602064,-0.05423486873148922,-0.052659511948639284,-0.02915712631380213,-0.026243539668494482
0.436,-0.020470138396024108,-0.0443659537121946,-0.02368824498751251,0.03485785518169437,0.0001166476203006612,-0.03488405960299152,-0.027108326382128525,-0.042234711021705715,-0.05578087868472649,-0.05467258030258665,-0.03282282904556296,-0.02797132572649876
0.438,-0.019480805107026454,-0.04435681107576806,-0.024522000206663338,0.034274646108525875,0.0014049987506642495,-0.03566397297529654,-0.02793008937552217,-0.03804417237903347,-0.05786130927837609,-0.05209927714639938,-0.03171721759353959,-0.027042320113087825
0.44,-0.01942275909043778,-0.04293174371105327,-0.02318761389335955,0.033316895462844165,0.0016019685546551448,-0.03495839553686489,-0.02763717983781738,-0.03867590083230913,-0.06133075089367285,-0.05011962534131096,-0.027264612290197138,-0.023758070719194915
0.442,-0.021366053010743,-0.041187736186575584,-0.0196409758278372,0.03346445573965548,-0.0008902327842065114,-0.032602058863245714,-0.028416529959434146,-0.052434157257359046,-0.06764443250077695,-0.052548392886453736,-0.024968234137552198,-0.021317387318941915
0.444,-0.023195933653110835,-0.03871756038529755,-0.015677209432783397,0.03325835569690728,-0.004549134659890984,-0.02881109226248318,-0.030700458115342267,-0.07034592190584901,-0.07605988519004549,-0.058157127670703065,-0.026027652531379685,-0.022022485022537026
0.446,-0.022514339783218405,-0.03614911511451337,-0.01420600191430243,0.031312026328982834,-0.005893817318617622,-0.02605596453746106,-0.032899074150756144,-0.07808004521863565,-0.08380553750111766,-0.06314390353818208,-0.026764467053947853,-0.024847459410960105
0.448,-0.01990730925293894,-0.03539874635138503,-0.016303479359664808,0.02865489737148711,-0.00374822600027787,-0.026648723491124994,-0.03320608765186348,-0.0750790110785343,-0.08871987124547316,-0.0648218696113758,-0.025834653775178306,-0.027650408539755665
0.45,-0.018097701404407543,-0.037261703297225064,-0.01994514979284828,0.027496279283138813,-0.0005813970778259516,-0.029692473418343884,-0.030404781270789754,-0.07218213025104375,-0.08992395757526991,-0.06415171471669569,-0.0261317516789848,-0.02981333987050798
0.452,-0.01805760362033207,-0.0405167581616061,-0.022968493346428465,0.028543997010915572,0.0014055974300846528,-0.03287079059036463,-0.024746751596748717,-0.07559623262759027,-0.08801396494083424,-0.06492107959691171,-0.029116498155976913,-0.03184592746329615
0.454,-0.017684776270376158,-0.04341336543763339,-0.02585336143134058,0.030221194330520163,0.003410612387582236,-0.03561516414000792,-0.01960577556348418,-0.08160935618910742,-0.08587244228768538,-0.06903389822202037,-0.03199709039973088,-0.033725841879802834
0.456,-0.016061860969607666,-0.04562695213805348,-0.029431918690735005,0.031337463049627916,0.006615000128463357,-0.03849707164898057,-0.01928773709738139,-0.08416909687127738,-0.08692298232760688,-0.07422955801515596,-0.03226486184103332,-0.03470312069980015
0.458,-0.015815851410020867,-0.04789413024024897,-0.031922709055507446,0.03262405099172687,0.008588694468831929,-0.04087674404958078,-0.02344806385940599,-0.08242074504624347,-0.09262783117266196,-0.07759922078363977,-0.03160100456255523,-0.03463113584171068
0.46,-0.018880764933579094,-0.05017667571953638,-0.031163000779383315,0.03474923411097075,0.006576197467192367,-0.04148532202749494,-0.027455509251419676,-0.08167401712213747,-0.10254808563146411,-0.0791107549918146,-0.03289668172691578,-0.03457200665746139
0.462,-0.023638511102802937,-0.05177501754248953,-0.02785612726895736,0.03727299824050401,0.0016244200919217182,-0.04050199656725389,-0.028922239526145258,-0.0876949428122689,-0.11441020780564232,-0.08074227799460618,-0.03606277373548238,-0.03554322796079875
0.464,-0.027397403105760262,-0.052776825925201526,-0.024837662471276233,0.03961777612748273,-0.0026210707137917146,-0.039460689230427407,-0.029475691672795585,-0.09982489444078581,-0.1240952289092635,-0.08395215897923992,-0.039312274783510404,-0.03742978722191142
0.466,-0.028560547870552015,-0.05395915088029744,-0.02466349061038848,0.04125798946937625,-0.0033816194808584726,-0.03994381916022419,-0.03121066387126752,-0.11155235079383503,-0.12867532171505777,-0.08842676050390426,-0.04242155821182935,-0.039545682355135586
0.468,-0.026838669383485527,-0.05530573151282993,-0.027692354819647803,0.04156338970706302,-0.0007861582040103051,-0.042219852229535115,-0.03474321656652877,-0.11706320651928831,-0.12872701852136897,-0.09218459963520938,-0.046134872409786414,-0.04149067994428141
0.47,-0.02397995330178105,-0.05615502434603592,-0.031487247391630196,0.040916293630656325,0.0024963738309087447,-0.044693121271001536,-0.037968565649429985,-0.11587100893176609,-0.12630411512894338,-0.09359280599468049,-0.04954869375059181,-0.04339290129360324
0.472,-0.022837404596333297,-0.056702113058072476,-0.033253745227951846,0.040931249349845746,0.003983663536670674,-0.04586311145922357,-0.036137761911968116,-0.11244831010907974,-0.12315718282922092,-0.09358870859115422,-0.05006223777159763,-0.045308162790917705
0.474,-0.02372142128616181,-0.057450451473486513,-0.03311243980587977,0.04208672160161734,0.0038404263804992485,-0.04618915258937444,-0.02732490051846431,-0.11141836762968586,-0.1211583090798064,-0.0943008779668489,-0.046833548779926355,-0.04642883264079959
0.476,-0.024168914549717965,-0.058197816069480345,-0.033477405973430865,0.04294518824431259,0.0038802236163170555,-0.04706629079006773,-0.017106809730558555,-0.11378288630852351,-0.12180193515576497,-0.09625836175759557,-0.043764218664778455,-0.04642983170979613
0.478,-0.023364566339464668,-0.05888606280690097,-0.03514697020997796,0.04285665112219428,0.004626981831411307,-0.048803056615947686,-0.014814366094965616,-0.11873038633921949,-0.12549912598352797,-0.09858445519118268,-0.04582919338739715,-0.04709655478580955
0.48,-0.023450172122575216,-0.059622754685820525,-0.035789598377970716,0.04291935978488397,0.004701532013093659,-0.049793598694591726,-0.025287022748747615,-0.12609844158871014,-0.13223405122227683,-0.1006876629654199,-0.05210992548681098,-0.05027573748583237
0.482,-0.025717904645791077,-0.0598901103438931,-0.03343773076326745,0.0437095583824675,0.0031085260904992907,-0.04829709784325845,-0.043296468185390374,-0.13510240449652688,-0.1410802694234805,-0.10259789054438846,-0.05656333808323608,-0.0552013552222695
0.484,-0.028374083665735943,-0.05947379602401313,-0.03000045665324146,0.044529865751609894,0.0009808873469854193,-0.04555751139974363,-0.05614956830381926,-0.14284577381822905,-0.14874076861538552,-0.10421798110616241,-0.05571816362252683,-0.0596201688555481
0.486,-0.02956857185019263,-0.05959019256504834,-0.02897078765928293,0.04538022703358003,-0.00016643287381875704,-0.045063501129497884,-0.055658947265093135,-0.14611461790275054,-0.1514300192955606,-0.1052760292597854,-0.05216242857703577,-0.06263518192945454
0.488,-0.030442465667189625,-0.06189463128112613,-0.030890815088376548,0.047581451678441654,-0.0008275442573464555,-0.048111724920341874,-0.04667143901520486,-0.14448808285406503,-0.14884771981143283,-0.1064779341189814,-0.050527619408063565,-0.06538289228552986
0.49,-0.03201237136604943,-0.06575643928440074,-0.033713359457807665,0.05079751760476779,-0.0015542303059612374,-0.05225113835089191,-0.03929118661067402,-0.14113958279876992,-0.14455181388893135,-0.10937275588384433,-0.05217718734816412,-0.06863132854149982
0.492,-0.03169328894347561,-0.06749941958762411,-0.035898834408334176,0.05152049141897849,-0.0006444514338477489,-0.054226005888646275,-0.03672345705004012,-0.14010331114324667,-0.14244067035991806,-0.11404727940069448,-0.05460373085572816,-0.07078490086454893
0.494,-0.027671447706618325,-0.06499039283019023,-0.03710834938978447,0.04789149394488932,0.002782376353473116,-0.053342487681005725,-0.03712030686223366,-0.14244782140967613,-0.14399190944205392,-0.1186124384768556,-0.05544951975739099,-0.07027825357114698
0.496,-0.023774329610300793,-0.061838564655619786,-0.03758575544182173,0.043960924586905606,0.0059303224476790865,-0.051913282536474266,-0.04089651819854453,-0.14611708994393502,-0.14877891348506062,-0.12174902775460154,-0.055598336576467164,-0.06877505259530614
0.498,-0.025427982729685293,-0.06300419044222177,-0.03723304769300423,0.04521421266689545,0.005132410114123771,-0.05192204409615107,-0.048126497677440656,-0.14924578249970624,-0.15576439404564943,-0.12375644996216137,-0.057192797033803235,-0.06927647880450721
0.5,-0.03253310807948927,-0.0671117014572865,-0.03457054071566399,0.05102462213341825,-0.00013751488984839997,-0.05171126394307284,-0.054451611072275544,-0.1516253518929234,-0.16351012895666028,-0.12505357641555326,-0.05968182905940617,-0.07182316382810176
0.502,-0.03894563458779981,-0.06776629061944571,-0.028854861039595652,0.05486099915635373,-0.006340275507501616,-0.048430566457702884,-0.0553580155805988,-0.15347261138323917,-0.1705780420314767,-0.1256822443676292,-0.060133585085304676,-0.07334396937120512
0.504,-0.03904246120344334,-0.06277027474719135,-0.02333656020849331,0.05243681753984037,-0.008597706097580492,-0.043361627965869384,-0.05093367967649043,-0.15489971008045064,-0.1756936125919415,-0.12573620239643352,-0.057425466422444636,-0.0716205131839495
0.506,-0.033984347020375366,-0.05751307006448139,-0.022591056642478614,0.04705707723930186,-0.005706086379262943,-0.041244075647567005,-0.045289874614452656,-0.156216788672988,-0.17776650362141477,-0.12549047030181057,-0.054028188735041636,-0.06792649417267957
0.508,-0.029756834305670735,-0.05792927154744158,-0.027091307458983332,0.04496748940643463,-0.0012714635175889147,-0.0444954626447342,-0.04288844917119082,-0.15726736777474992,-0.17688524858111218,-0.12586559484705317,-0.0531241745011709,-0.06550730566720471
0.51,-0.028715118499582016,-0.06281872273898162,-0.03344539529169811,0.046740304917445144,0.0017952417515192027,-0.05035917847052614,-0.04351170552931687,-0.15717332035689138,-0.17406954512242095,-0.12731767748733636,-0.054802474277526346,-0.06571733696596
0.512,-0.026929090007320314,-0.06477541571296856,-0.037778660916361825,0.04656228090123361,0.0044293198524678005,-0.05322737539907518,-0.04226290030185062,-0.15555098928925082,-0.16972273658567494,-0.12774078847854425,-0.05589129936495498,-0.06627189201876772
0.514,-0.022481033557299808,-0.059976052355411376,-0.03761983172245516,0.04176912186987805,0.0068307854318428105,-0.05046122513120532,-0.038298100942088784,-0.15322263327806457,-0.16470664866318957,-0.12505156905835257,-0.054428090319288594,-0.06530244336934668
0.516,-0.021603244263685904,-0.055651735648246894,-0.033873289589773675,0.03939267784774225,0.005710785108270285,-0.046691035394678795,-0.038903964678298084,-0.15215066784020692,-0.16267971951910415,-0.1221772261833901,-0.0532948410936235,-0.06576110525687716
0.518,-0.03072294530239977,-0.061788717727421276,-0.030587045465412858,0.04759456588084333,-0.0006247464975460868,-0.04870791744192359,-0.04914572857024072,-0.15495135288795184,-0.16761369017026648,-0.12449329236038315,-0.056591485476771695,-0.07094083026014812
0.52,-0.04473622543152579,-0.07498852165260313,-0.029867907316802757,0.06188258250624471,-0.008288289514193024,-0.055019850797433406,-0.06254864142354256,-0.1624225051479851,-0.17767969277600057,-0.1315764179525497,-0.06268926982989856,-0.07759934073879658
0.522,-0.050653500904815504,-0.08011312614889621,-0.029333120170892537,0.06791528309247663,-0.011655902526969325,-0.05662240968614004,-0.06830655839213219,-0.1712708938842426,-0.18545847424970754,-0.1365902703602451,-0.06500482118110108,-0.07971424302682684
0.524,-0.04410439211262086,-0.07124424806701442,-0.02700607061925923,0.06023063335296533,-0.009478087781539206,-0.05025991834260568,-0.06420209638722359,-0.17674081005105652,-0.18682150378017176,-0.13493912402520963,-0.06084443741500868,-0.07703364215541345
0.526,-0.03496293262065403,-0.06012866965591479,-0.024840448207603415,0.049610391372157045,-0.005883085069400105,-0.043373512291802495,-0.05717106107382332,-0.1775026540671787,-0.18553045862624445,-0.1293404716224205,-0.055150417868313095,-0.07466380380424013
0.528,-0.03393248182130261,-0.05949184935938881,-0.025247902837001127,0.04823242134308703,-0.0054210448497920526,-0.04351431445058542,-0.05344490850309328,-0.17609459111148995,-0.1862112722871351,-0.12562049728607833,-0.053647994179388765,-0.07584239302509972
0.53,-0.04021539275663533,-0.06827702697727857,-0.028007627255195806,0.05562529588987561,-0.007776116968516808,-0.04987839394734941,-0.05281248123403265,-0.17517913838469032,-0.18771719676561072,-0.12684033766964056,-0.05644317156037725,-0.07899336688068871
0.532,-0.045440304585265046,-0.07669391286453349,-0.03139148327233709,0.0627160929484115,-0.008998866638891424,-0.056380343456482164,-0.05197720984556329,-0.17444702842551094,-0.18652729031036566,-0.13171648285291337,-0.06004608940441394,-0.08101472577059654
0.534,-0.04479484961223834,-0.07819914440910156,-0.033507058187153826,0.06350372371286056,-0.0074485909161832314,-0.05832476195905532,-0.049968846449376866,-0.17097853473894808,-0.18233564289937776,-0.1361451360945324,-0.06219606820834043,-0.0805167528419129
0.536,-0.04074173069197736,-0.07405742354496597,-0.03329277251754055,0.059496386263771135,-0.005321964225575215,-0.05594521971419858,-0.04856496633194458,-0.16380709468798874,-0.17788133089025102,-0.13658192865654153,-0.06288813754198902,-0.0781299958186763
0.538,-0.03802711754395619,-0.0696817838235498,-0.03158777057861446,0.05567383412700068,-0.004722298340040799,-0.05296473675077425,-0.04851405775948408,-0.1579471682229351,-0.17616512737107468,-0.13352831411766727,-0.06262841970346245,-0.07571989752006411
0.54,-0.03832064225768693,-0.068380735616266,-0.03004026857731706,0.054663308634409685,-0.005494088031142701,-0.051787257717478885,-0.04870205581149257,-0.15997239850109768,-0.17878971856904854,-0.13083807597049563,-0.061809135715167204,-0.07528790247849035
0.542,-0.039489042491910105,-0.06870000622782176,-0.029237850173911843,0.05484696938903764,-0.006312705108318127,-0.0513703522232783,-0.04959560625511046,-0.1692303182569853,-0.18485026950541533,-0.13122154530329705,-0.06123600921922827,-0.07735258736399402
0.544,-0.03898104274326629,-0.0679714421999365,-0.029014057489035634,0.05389252792882203,-0.006135563686497952,-0.05025385985221611,-0.05282009117674585,-0.17761668006226392,-0.19101265498703837,-0.13369900520570013,-0.06131609191971761,-0.08023320747814451
0.546,-0.03738307733768439,-0.06698944039040693,-0.02960300935473276,0.05287230259823519,-0.005175611654426477,-0.04940934805860413,-0.056725328351070754,-0.17832695047746316,-0.1937851970204583,-0.13562013832628747,-0.06123447648878235,-0.08179318020381257
0.548,-0.03734967920864145,-0.06870522720704292,-0.0313410422260381,0.0546699981112201,-0.004625984370444446,-0.05069775387000773,-0.056879266869866156,-0.17239029763520172,-0.19164673671698051,-0.13606171579550363,-0.06070145267174344,-0.08200173995299427
0.55,-0.040085875407087655,-0.07354358223732071,-0.033452608262745556,0.059447663685627435,-0.00541701459198941,-0.05392717144444139,-0.051304874785541556,-0.16687617942305508,-0.1856144968523787,-0.13605866295979946,-0.0613284383191293,-0.08277330227013899
0.552,-0.044460652474260696,-0.07864886113682137,-0.0341936885468319,0.06420279484791509,-0.007377002189398596,-0.05685429917739693,-0.04353186192843015,-0.16699991343143203,-0.1792458864616031,-0.13609678263553085,-0.06430522499444352,-0.08506225216992509
0.554,-0.047911069970666686,-0.08104763211039044,-0.03314196172674562,0.0660199153564269,-0.008978738316363708,-0.05791854055169495,-0.04019532047747446,-0.17043298695772524,-0.1767709996357647,-0.13579317232173357,-0.06807724748505653,-0.08738342342626884
0.556,-0.04809334100018518,-0.0805457576198013,-0.03245200526531325,0.06470444301921092,-0.008455652181857096,-0.0581110778529343,-0.04465431687183153,-0.17201331199658482,-0.17937237519087806,-0.1358670587860188,-0.07016089175894832,-0.08806301866079949
0.558,-0.045420847199277234,-0.07927883825636245,-0.03385484793471936,0.06252620174026502,-0.0061659370985769485,-0.059038094407185604,-0.05309666244713616,-0.17169864305173993,-0.18450623490827142,-0.1373525535847725,-0.06983437287917266,-0.0874924962188056
0.56,-0.04282947205377722,-0.07805543130201685,-0.03522468242065537,0.06123007994644846,-0.0048291014066621,-0.05955707104218999,-0.05801099936124683,-0.17283335073603218,-0.18923829121996236,-0.13906151348147813,-0.06806849613455872,-0.08680986636727757
0.562,-0.04184697959992868,-0.07493825781883987,-0.03309238361056309,0.059881803815064555,-0.006261229236583496,-0.05674135172189677,-0.05532138355483398,-0.17646274184515198,-0.1924134035636388,-0.13903237874311328,-0.06651726908242626,-0.08606498560406187
0.564,-0.040852806858397,-0.06914122912281336,-0.028289647052499218,0.05683700279611546,-0.008714250994459343,-0.05082650178184314,-0.04820055046373178,-0.18122025324296936,-0.19433328760735635,-0.13790169953316853,-0.0663932114156565,-0.08506779882969036
0.566,-0.03837279623206,-0.06426257144294316,-0.025889756998120184,0.053230989432975835,-0.008810556391956895,-0.04665542566344921,-0.04404603442821653,-0.1840713299058278,-0.19584585417718384,-0.13775074480802244,-0.0669397476707087,-0.08483738094797762
0.568,-0.03578844384030894,-0.06456681817057243,-0.028777697235487013,0.05226364241411388,-0.00576662912143749,-0.04815789308193794,-0.04649372769597671,-0.18132606265325477,-0.19633476172265044,-0.13862831555032226,-0.0663147894312525,-0.08667949940986848
0.57,-0.03535309738208911,-0.06935616628299646,-0.03400275542258576,0.05485614792481478,-0.0023500855232571134,-0.05335745437812054,-0.051432119293525584,-0.17419849539139165,-0.1934819242361548,-0.13911595949874767,-0.06472288770920925,-0.08994459631855362
0.572,-0.03745977557960178,-0.0745876136102687,-0.03712805780268538,0.058621054684087764,-0.0015092609085228955,-0.05758952946488712,-0.053289913044623945,-0.16925586963667918,-0.1875300135225956,-0.13911602053335523,-0.06440923066986279,-0.09247825159054866
0.574,-0.040651584113284026,-0.07830552486148736,-0.037654216795782826,0.061202960577407324,-0.0029585546957972514,-0.05940667959863555,-0.0522966920935773,-0.16881821047964987,-0.18295028067203226,-0.1396644176798892,-0.06578563220575083,-0.0931792991160003
0.576,-0.04337189386089281,-0.08126861365173618,-0.03789673171156789,0.06257515017308933,-0.004115174185148848,-0.060406417034114285,-0.05208520870568173,-0.16878734640201082,-0.18342358838538772,-0.14073265022801443,-0.06627162808165261,-0.09234708166717098
0.578,-0.04531293139167619,-0.08414402694344848,-0.038830950600161646,0.06401633867581336,-0.0038640794644500165,-0.061595387390515365,-0.05378639329655166,-0.16880282657070278,-0.18812816929999113,-0.14076805784656576,-0.06412050673631717,-0.09060345966218698
0.58,-0.04622858764308637,-0.08576836542049245,-0.039539702035160273,0.06534453666019402,-0.003105227553973308,-0.062280952319465135,-0.05614315563655069,-0.17375552421061274,-0.1940150263639372,-0.13908048649847574,-0.06108910156896906,-0.08917336870053616
0.582,-0.04464407592804207,-0.0840427065313519,-0.03939867352813837,0.06435054962842696,-0.0022201392425617236,-0.06150394962125156,-0.058174640361852506,-0.1834282394044403,-0.19904011403998395,-0.13784465367951534,-0.06003082177901175,-0.08953015557263803
0.584,-0.04037092861903076,-0.07906087714764552,-0.03869001036617357,0.06029513880334928,-0.001109897874139506,-0.05953988719100148,-0.05855076807801356,-0.19066336716377835,-0.20216595711813526,-0.1395098215142889,-0.061158340478805216,-0.09135933737880132
0.586,-0.03666552211572074,-0.07408972933567338,-0.037424213331878016,0.05609986594839496,-0.0009547388420249043,-0.0576277081884936,-0.05546811242752788,-0.19113963787601215,-0.20221872668579485,-0.1428071411541836,-0.06228555735763732,-0.09288494114090091
0.588,-0.03670317796631298,-0.0724602963410126,-0.03575708754789233,0.055202612101600525,-0.0025002183841218153,-0.05674478218688551,-0.04962266588059773,-0.1881885179343609,-0.1988115120715091,-0.14425467254895294,-0.06220207938701239,-0.09343248211388556
0.59,-0.03899398240155432,-0.07463947665131615,-0.03564547618976999,0.05759895892714469,-0.0033962209333519983,-0.05751104764246706,-0.04452935864481905,-0.18650499823834957,-0.19339778355994325,-0.14288055576347214,-0.06154120945200482,-0.09313722659117876
0.592,-0.0395818742780318,-0.07852300043915317,-0.038941134357587504,0.060530262897440575,-0.001182041870064758,-0.06002277862170023,-0.04278676517356516,-0.18567303099883584,-0.1878201780757531,-0.14055559213020846,-0.06094048665831661,-0.09171590534901898
0.594,-0.03797947145765277,-0.08173976956832037,-0.04376031188150735,0.062146177423452555,0.002147951942932838,-0.0629171193578193,-0.044008649338364944,-0.18296777326015315,-0.18312827570303414,-0.13871742463301318,-0.061044765460770416,-0.0901170426169974
0.596,-0.037325399481652845,-0.083410825625285,-0.046085428248336786,0.06284934629691616,0.0026613822940694727,-0.06424409259522412,-0.045885968545367396,-0.17945709184144126,-0.1804475878889178,-0.13761619885579301,-0.06283748906936923,-0.09031652906408018
0.598,-0.03953070741302229,-0.08404212138954818,-0.044511407466779784,0.0636144005666888,-1.556074010069554e-05,-0.06360823890433463,-0.046153500174755946,-0.178903705226855,-0.18122272612009915,-0.1378333587587168,-0.06533006737052506,-0.09210848220434545
0.6,-0.042888651019057145,-0.08387245387103852,-0.040983798593983684,0.06420635934713852,-0.002890774638643836,-0.06198861840110459,-0.04519730760042941,-0.18203426119922045,-0.18588837461380314,-0.1395301311436256,-0.06550359972854651,-0.09354590623900048
0.602,-0.043981725932086164,-0.08177679484829627,-0.0377950704348774,0.06329205827727877,-0.0038122150775484645,-0.0598051454829115,-0.04620994050497455,-0.18558005630278754,-0.1928834686406249,-0.14105036216325115,-0.06267090369154754,-0.09367533980797235
0.604,-0.041708041816116224,-0.07700964729586987,-0.03532354814952943,0.06051453990152935,-0.003741817149894736,-0.05667644154109069,-0.050131600023095794,-0.18671960396419032,-0.1993969380732663,-0.14162998743732025,-0.059839445898968925,-0.09259445585875033
0.606,-0.03911898477508005,-0.07138425448310187,-0.032396586101107676,0.05759113460853098,-0.005118377036798324,-0.05287624336512928,-0.05296062665145206,-0.18594993796387102,-0.2029706194005134,-0.1435116684749981,-0.05950861326393033,-0.0916740310736569
0.608,-0.03962390827526099,-0.06838381907376763,-0.029087328494289872,0.05661016740257178,-0.00803590507504157,-0.050323241121047184,-0.05111319999715205,-0.18485618656354136,-0.2024510978873151,-0.14763774397771787,-0.061161557458524474,-0.09337560458399059
0.61,-0.04222912319436952,-0.07017251592607311,-0.02836599695396547,0.05796453667290924,-0.00914371829945059,-0.051401794187742815,-0.04606479106253565,-0.18353435157716302,-0.19849527510775392,-0.15082244024036598,-0.06367363876099764,-0.0973976262386733
0.612,-0.04313035953383759,-0.07483533019114061,-0.0319605115982834,0.059971820233464,-0.006408315751563309,-0.05545120450981816,-0.041364091527432235,-0.1821231330341057,-0.19311836806445526,-0.15049027783148483,-0.06697588808077523,-0.0997767050866567
0.614,-0.04139007348090059,-0.07742929939322635,-0.03601355312348169,0.060545385012362285,-0.0031688084802479833,-0.05812077209846354,-0.03879981633373765,-0.1822441987317759,-0.18794493645442634,-0.14825560897035275,-0.07031360666006349,-0.09851279349698329
0.616,-0.039718908061333644,-0.0756376904391545,-0.03577298594465553,0.05951379500413545,-0.003637487156810698,-0.05669746616706861,-0.03913769028247733,-0.18448087917761183,-0.18413031080275227,-0.14662167118957248,-0.07169608774537689,-0.0962172204610565
0.618,-0.03961192688423616,-0.07205946755640995,-0.03236238505780748,0.05824554410879932,-0.006545744617172408,-0.05334326793591097,-0.04200844685442414,-0.18635368094188615,-0.18387599440429447,-0.14532598439727992,-0.06994547245081106,-0.09567742890411898
0.62,-0.03929378597057771,-0.06913704755130251,-0.02973613588466337,0.05691725481726741,-0.007581060105144512,-0.05081110339267908,-0.04464118651956142,-0.18544168580121564,-0.1888565014181226,-0.142963129679687,-0.06617950079010226,-0.09676137342609771
0.622,-0.0374357603563218,-0.06626913154193008,-0.028431054727526602,0.05462672169874627,-0.005950266600928332,-0.048916661322175675,-0.04600893423563657,-0.18364180846126107,-0.19691368980710502,-0.1406325586586642,-0.0633866384111537,-0.0983814224244565
0.624,-0.03647845310655562,-0.06447701911994327,-0.02725070302238521,0.05307509784764569,-0.004918689814042761,-0.04764045213601249,-0.04934575164610739,-0.18424200718181066,-0.20331950535037868,-0.14132428235829825,-0.06383889474226483,-0.10018311432422689
0.626,-0.03973784091119723,-0.06727567303981953,-0.026830080481553113,0.05571864867915652,-0.00699846050734017,-0.0487033689477664,-0.05496532821139927,-0.18497581579817027,-0.2049010649463225,-0.14491428077872193,-0.06630800086044061,-0.10173314580248147
0.628,-0.0453919334738852,-0.07350002678133606,-0.027862907646658126,0.06114518851627965,-0.010436892244552683,-0.05169003765317274,-0.056314309942400026,-0.18100915468822287,-0.20135147179693644,-0.14677456685906162,-0.06762032500989379,-0.10200519565780114
0.63,-0.04762200088981636,-0.07759805086142098,-0.03015634085908442,0.06366755627626783,-0.010935683998723038,-0.054383738517627705,-0.04960795038742746,-0.17494291631289574,-0.19520667358168947,-0.14427283243129824,-0.06728072752262736,-0.10069960000476011
0.632,-0.04499969562640551,-0.07877517451689613,-0.033997057279405246,0.0623434696079824,-0.007113612517254393,-0.05720553576730231,-0.04229525342657937,-0.17445122258649487,-0.1910627473853018,-0.1412800463577568,-0.06807610435119148,-0.09956505736438731
0.634,-0.0423846037490127,-0.08054074782393139,-0.038174418432701716,0.061705959558082855,-0.0027408480432027545,-0.06090710793945966,-0.04429738341189563,-0.18035125232781318,-0.19126927489417453,-0.14232355681772188,-0.07162213178816897,-0.10076869252747364
0.636,-0.04296049494141282,-0.0824957611806496,-0.039426429036255935,0.06311937364961097,-0.0017688861043312558,-0.0626367447719084,-0.0541145310565415,-0.1866138874729886,-0.19354664864995944,-0.14612063760290644,-0.07562804047461225,-0.10377094823198992
0.638,-0.044109391067767525,-0.08145565099248904,-0.037284028195129076,0.06326118093086947,-0.0032471057525223068,-0.06033202537384506,-0.06163809974333924,-0.1903087897161401,-0.1952897298529412,-0.14862479740628629,-0.07637200025064753,-0.10570564094063656
0.64,-0.043328673562860374,-0.07791768196926828,-0.03461814057189893,0.060988406636278164,-0.004281527320388432,-0.05653622397655282,-0.06176963227556846,-0.19310024211324056,-0.1969061203949909,-0.1485628350999204,-0.07250711398925531,-0.10491361071763466
0.642,-0.04236302021710568,-0.07481018613874911,-0.032494889243811005,0.0589935256308648,-0.005025706290285143,-0.054144393889140725,-0.05795070242516662,-0.19554642798062472,-0.1990376124041317,-0.1469416324619124,-0.06628476639113602,-0.10251651858323957
0.644,-0.042412550877188336,-0.07283927755113825,-0.0304336402859391,0.05849549678715862,-0.006368790981241553,-0.05323649902850184,-0.05491045794383388,-0.19623354538896556,-0.20020571610265478,-0.14462339974729085,-0.061627586978722886,-0.10047563258036399
0.646,-0.04133341952391579,-0.07126817439295988,-0.0299120391321066,0.05764346949720792,-0.006533642690911072,-0.05315126561044974,-0.053752256699283546,-0.19471816821087276,-0.19918882228673757,-0.14278086572341242,-0.06044865397652403,-0.09932456173507885
0.648,-0.03874185128551591,-0.07114956665449262,-0.03239309899088528,0.05618009300922372,-0.004260913967978556,-0.05405958216009196,-0.053179160460105755,-0.1922450060320084,-0.1972739666779075,-0.14318020167383494,-0.061746684885313985,-0.09868147409699225
0.65,-0.03823449847441016,-0.07506868376360602,-0.036839599250261826,0.05745848730959662,-0.001650642654285524,-0.05688449957912692,-0.05222589108727698,-0.19045322722219254,-0.19639068219545988,-0.1464289940531636,-0.06488747442718402,-0.099076624836396
0.652,-0.04168994355743314,-0.08290110730857041,-0.04122172502828066,0.06315981951882332,-0.0009953467447905034,-0.06191793924457566,-0.05114370162862123,-0.18925524465858737,-0.19633792363769773,-0.15065559362355024,-0.06978176995966838,-0.10109795495775795
0.654,-0.04536620351626809,-0.0891025500328124,-0.04373843633368102,0.06867977450563335,-0.001571604360792315,-0.06642927953289106,-0.050440028145523494,-0.1862760446665667,-0.1955452241204796,-0.15227454741662558,-0.07302521280467802,-0.10308786494049457
0.656,-0.04471606420652046,-0.08810777005300058,-0.04338694057646508,0.06822619773341738,-0.001475081121393302,-0.06654524572252613,-0.05037323257067785,-0.18113290131006715,-0.19412719180253576,-0.1494079459549956,-0.07031668201032747,-0.10274280403575455
0.658,-0.04087030229677891,-0.08170285967341802,-0.04082914081902956,0.06302175038394245,-0.0009398753499811164,-0.06245903403763591,-0.05152973737601505,-0.17757801933925302,-0.1942163649659695,-0.1448570429216094,-0.063391000844848,-0.10084368462926697
0.66,-0.03885432388404113,-0.07639436100324197,-0.03754100571642323,0.059387948494040596,-0.0018695890177907986,-0.05810904550712698,-0.054458821264862955,-0.17749741777813716,-0.19647181169496164,-0.14313740620117338,-0.0585449506231589,-0.10009837424360546
0.662,-0.04076007654882079,-0.07564779889056979,-0.03489004948903775,0.060392510448226626,-0.004624212157621242,-0.056305266097805215,-0.05801405665566051,-0.17835487190441346,-0.197927582040048,-0.1448763414038474,-0.058614209245868916,-0.10088170197183749
0.664,-0.043996852949183506,-0.07855561146312005,-0.034559341498094996,0.06376887639216176,-0.006901639767277844,-0.057311136232428776,-0.05867216365021623,-0.1790572695995599,-0.19581290853962935,-0.146930810001841,-0.06062482277445349,-0.10146505317953548
0.666,-0.04552000531810208,-0.08288187200381311,-0.03736087517176104,0.06627418021171093,-0.006332177561870236,-0.060281768373620453,-0.053898857581994856,-0.18154603197326372,-0.19260859765217764,-0.1468734272259096,-0.0608790071305762,-0.10163506433027972
0.668,-0.04511485472290123,-0.08651697238070181,-0.04140132590853893,0.06697792003942295,-0.003411107565525858,-0.06372504522567386,-0.04707071218397881,-0.18602780365142904,-0.19281069226982325,-0.14464061201592374,-0.05939560788376611,-0.10249811348762632
0.67,-0.04402892449988454,-0.08790983824949955,-0.0438810766592119,0.06669057968153487,-0.0006843474774348105,-0.06597166724621868,-0.044795532734587404,-0.18918255996467623,-0.195198834088223,-0.14110296070302067,-0.058752004953743484,-0.10331284139311644
0.672,-0.04272603373261493,-0.08686265447429566,-0.04413713063228456,0.06601889037664989,0.0003677590443700269,-0.06628647011019778,-0.04798420308459897,-0.18730574318798834,-0.1940429867835073,-0.13769581510526954,-0.06022775881955323,-0.10229751096944002
0.674,-0.04133281558466133,-0.08444338676181845,-0.04311072582526423,0.06479072438308268,0.00022738418990851948,-0.06498142489817108,-0.050473808595910635,-0.1810606920568815,-0.18791732948519052,-0.13659963061200553,-0.062256448963577106,-0.10003494789912197
0.676,-0.04043270734701192,-0.08161672892673441,-0.041183817188932,0.06273536101729241,-0.00031002360472847165,-0.062481574034383064,-0.04734418325169736,-0.17640866295325358,-0.18222583116081997,-0.13905666288520369,-0.0627373098018548,-0.09890541868530063
0.678,-0.040734761114022563,-0.07858481125827543,-0.037849868120937394,0.06039212750042527,-0.0016635495051103863,-0.058896331530081475,-0.04135714885556842,-0.17817574294772195,-0.18253174219207402,-0.1436811578161256,-0.061948238336503834,-0.0998737676212535
0.68,-0.04205176662116471,-0.07513416440888736,-0.033082422384237455,0.05869453279858915,-0.004588902428139106,-0.05454182449171925,-0.04020646102533068,-0.18460421802771962,-0.18914831372350854,-0.1476252648534104,-0.06166599227656867,-0.10161457859790729
0.682,-0.042299237643821846,-0.07143847002539777,-0.029139343464586114,0.057453925721446114,-0.007540051344423697,-0.050972864425224994,-0.04652468584660048,-0.19083568205225074,-0.19820484689921947,-0.14913768298446145,-0.06224291185573627,-0.10219049561938384
0.684,-0.03992580611970613,-0.06906631147594094,-0.029140544992673285,0.056206767776312005,-0.007625031861689278,-0.05046522533408134,-0.05303058270921548,-0.1941265743794508,-0.20476745818777733,-0.14848562123996326,-0.06305791800790475,-0.10129554412292688
0.686,-0.037591926316657066,-0.06962912907671691,-0.03203716107200523,0.056162444500396064,-0.005491515849750551,-0.05278685359278113,-0.05259613861690112,-0.1943253428400356,-0.20596929027802569,-0.14721023419118814,-0.06470929151807084,-0.10084386771783503
0.688,-0.039421138952518184,-0.07262207297014713,-0.03320089247460203,0.05879342629121368,-0.005124081115026697,-0.054962660985711675,-0.047675685395107886,-0.19267818374045076,-0.20309067185855606,-0.14654521584349647,-0.06743359437497282,-0.10220979301589045
0.69,-0.04421216061184167,-0.076014232195586,-0.03180207449066262,0.06262361843180735,-0.007235671642097378,-0.05576507209266836,-0.04254768197680043,-0.19063519251661926,-0.19893199818137464,-0.14631756885155164,-0.06910833497493823,-0.10351759608741565
0.692,-0.04509033971424729,-0.07699115401514207,-0.031900838360396575,0.06295568131455083,-0.00733782334386719,-0.05633729075312627,-0.03563086635876897,-0.1892395352056564,-0.1941835685761061,-0.14614020028926664,-0.06830832262272676,-0.10206915011347868
0.694,-0.03817050684518766,-0.07363308347964709,-0.035462586540222225,0.057049878723962506,-0.002406724266872171,-0.05669652326504953,-0.028080848683942287,-0.1893422029934932,-0.18909194419458059,-0.14617432475936687,-0.06698666053980258,-0.09870760181578112
0.696,-0.029705061114503235,-0.06904075505316072,-0.039335685540361286,0.04985637242481699,0.003693416918143148,-0.056148732328456,-0.028680859923687664,-0.19085673302051462,-0.18600002211547775,-0.14591349405041362,-0.06759417506291947,-0.09715430090813802
0.698,-0.029575495189149544,-0.06902681759834693,-0.0394513129919054,0.049480559675017154,0.0043334098639304635,-0.05530583221337943,-0.0411804396300496,-0.19290567025413663,-0.18727511884102782,-0.14511181500697956,-0.0695637893121794,-0.09943644274442573
0.7,-0.03727837861025225,-0.07279764555388987,-0.03549732740788072,0.05539784872583434,-0.001058439093695642,-0.05432510034990741,-0.05608161913057593,-0.1954862852706936,-0.19225036207180177,-0.14526443592265886,-0.06996154490712556,-0.10350084013262584
0.702,-0.041844659228682454,-0.07303053028813292,-0.031054560473807367,0.058356360869621496,-0.005845090224439479,-0.05206961935241894,-0.061756642090384964,-0.1987856519523813,-0.19764213713109666,-0.14731758566700365,-0.06716251176610825,-0.10558886171303516
0.704,-0.03822945874492045,-0.06819020381982967,-0.029633328442771573,0.05467077420811915,-0.005247165630892121,-0.04955431991432442,-0.05762413517742305,-0.20157396211653458,-0.20097291819218976,-0.15000860253617118,-0.06326967757983987,-0.10479241839786703
0.706,-0.03454162840140789,-0.06635599070122625,-0.03139175541635498,0.0521382936839217,-0.0024112440081936956,-0.05051682178044216,-0.05196128746317296,-0.20200429529403516,-0.20250486125547387,-0.1519905563303738,-0.06199167660034658,-0.10393155220998464
0.708,-0.03873568886157327,-0.0729919125877337,-0.03400068093358825,0.05757457507665061,-0.0027583714158137757,-0.05586334283279731,-0.05031499222633155,-0.1988809304175956,-0.20264418139977636,-0.15307731559845114,-0.06440729080483695,-0.10533652759404998
0.71,-0.04716504979809918,-0.0828857744849432,-0.03574639804354615,0.06658524442479188,-0.006147064666576361,-0.0613487595576171,-0.05050250601320368,-0.19239416341598514,-0.2000585468630985,-0.1531408757130927,-0.06805032536607877,-0.10794277988405905
0.712,-0.050853615805269564,-0.08762762227350024,-0.036919804183092944,0.07024846147989479,-0.007843590730516787,-0.06302869297302768,-0.048541675307554176,-0.18487891037529028,-0.19502476874314417,-0.15208639554877562,-0.07007249120920081,-0.10903170266674803
0.714,-0.04717178073346949,-0.08537796482326773,-0.03826940038579135,0.06643595502690297,-0.0055607951466057105,-0.061711133732972594,-0.04549632471493978,-0.17991321765418142,-0.19140694441512895,-0.15057910793072204,-0.06965842248442027,-0.10701135709659818
0.716,-0.041603860226079696,-0.08105920892940899,-0.0394092184582058,0.06088542195509171,-0.002349561158994994,-0.060663769322788066,-0.04602296505775388,-0.17974617434686452,-0.19207623739846819,-0.1490376939439727,-0.06730875079332706,-0.10280477123636593
0.718,-0.03969001111303153,-0.07925311472786851,-0.03950668481742272,0.05905553691989511,-0.0016912239051870507,-0.0609924332089104,-0.05134337657884881,-0.1840865728493475,-0.195041881993919,-0.14704876724283888,-0.06406708211230669,-0.09934816925852326
0.72,-0.04050168793310771,-0.07907811254136657,-0.03857426342039956,0.06013322846637455,-0.002808314545766355,-0.060736895407335095,-0.05676180990060034,-0.19088012402470936,-0.19655459466781788,-0.14494097854705554,-0.06147915696412914,-0.09894720966478164
0.722,-0.039490318938145946,-0.07710549079162826,-0.037644777894074874,0.059959409298332725,-0.002704740470046008,-0.0584777542776102,-0.057439367782158184,-0.19693115133081954,-0.1957610765954957,-0.14381268889443258,-0.06058891234800705,-0.10096874842903567
0.724,-0.03556682762567774,-0.07300493269771664,-0.03745342360276269,0.05717964462245007,-0.0007141314083879333,-0.05574190804314351,-0.05369599513795527,-0.1991018049656966,-0.19453669463646334,-0.14359107198848822,-0.06123607574016896,-0.10281151296678405
0.726,-0.03282037245770804,-0.06965372320884552,-0.03682452981574581,0.054421270652412874,0.00045839537117991764,-0.05446296252973584,-0.04855199782244735,-0.19715907776013147,-0.19414596363710304,-0.14342207597639164,-0.062425769149814486,-0.10292827453395548
0.728,-0.03452955646932626,-0.06903350275993121,-0.03449138011949315,0.05420287969289085,-0.0013599050424902195,-0.05447787122677397,-0.04355739687667833,-0.19421402448132505,-0.19363440895951534,-0.14333512537739823,-0.06298468183653035,-0.10203542112830241
0.73,-0.03782308984744326,-0.07020929447253864,-0.032385016072646204,0.055521716797094944,-0.003877492253551186,-0.05492930579097577,-0.03944255034963717,-0.19278843420700698,-0.19193639618357655,-0.14378112210383898,-0.06300381487538756,-0.10163438600091691
0.732,-0.03778016860094694,-0.07111068636402607,-0.033336806784751476,0.055726725283544956,-0.0033672046297990436,-0.055692639676669556,-0.0375914382311562,-0.19203363690530456,-0.19007949761507695,-0.14469067769572475,-0.06450151934871905,-0.10252026361883114
0.734,-0.03479375197715986,-0.07137931937720755,-0.03658921968973144,0.0547036837132958,-0.000345503524403381,-0.056868207004833825,-0.03870379173125746,-0.18936743748556992,-0.1892966665945632,-0.14577149728962396,-0.06868234517940917,-0.10465318469128859
0.736,-0.033712389884838316,-0.07311653266952468,-0.039402455262431864,0.05522737597753608,0.0015969574820832058,-0.05877981980912886,-0.04138759243907801,-0.18339070448047973,-0.1890719012480236,-0.14692058838819227,-0.07307905058732664,-0.10717603680037122
0.738,-0.036837234598701925,-0.077519664564061,-0.0406796308168224,0.058754075024564825,0.0009150708163949654,-0.06129923192160542,-0.042525022283006225,-0.17639955775247085,-0.18918806262722995,-0.1479373651006824,-0.07357152338678073,-0.1080712095679398
0.74,-0.04095433414498077,-0.08106081186177012,-0.04010606162450321,0.062303112563317366,-0.0011145925627564358,-0.06207507096492544,-0.03953707330225691,-0.1744788853574989,-0.190503230472259,-0.14814167479533902,-0.06924948918416465,-0.10535257371304889
0.742,-0.041771896961252754,-0.07863176037572941,-0.03683925260512384,0.06158698056710192,-0.0031270709973034933,-0.05836972385716307,-0.03385463057916666,-0.1813445265874307,-0.19265252553012502,-0.1471383640709417,-0.06422632077206727,-0.10011436674518442
0.744,-0.03909401594483132,-0.07054922490734855,-0.03132475497928191,0.05650205273361736,-0.004675759344308599,-0.05131475086005779,-0.03088023694172342,-0.19230107627507365,-0.19420874155373508,-0.14589899031821688,-0.06356357680600988,-0.09661495963152275
0.746,-0.0361224812024197,-0.06299692174535901,-0.02654670795341523,0.051331272661258455,-0.0053671563793838035,-0.04573125160814691,-0.03409757689404513,-0.19879187870592366,-0.19479989867453038,-0.14607252035916268,-0.06711458149935756,-0.09736606858269943
0.748,-0.03514731002862067,-0.06148589719428649,-0.02591536189579756,0.050008351686953084,-0.004661015307653726,-0.04550101853249042,-0.040068998388087654,-0.19794100054180588,-0.1947717604966883,-0.1479510965856019,-0.06969445754696897,-0.10004386747156922
0.75,-0.03545265855015361,-0.06552630274618867,-0.029817978453659594,0.05233418478657508,-0.0025924313191774866,-0.050052026838932596,-0.041083697687077494,-0.19379104305439251,-0.1935581981254273,-0.14946556256741614,-0.06804470598043645,-0.1007117698642086
0.752,-0.03509412945751091,-0.07027048759791825,-0.03520231023745672,0.05491243411374247,-0.0001528343893197145,-0.055430027593784494,-0.03347775717733905,-0.19080075448008565,-0.19038519396438483,-0.1482468297195353,-0.06411106263869867,-0.09857053511947478
0.754,-0.033379616398251724,-0.0725791531893101,-0.03934553474414892,0.05530394577100653,0.0017753889558665722,-0.05859230659949897,-0.02329117425004966,-0.18956476962522115,-0.18695544623289273,-0.1449253532166004,-0.06087858485059836,-0.09674389919628683
0.756,-0.031135342949063085,-0.07341353488193114,-0.042341351758495314,0.054166306406701156,0.0035482157713678806,-0.05974954623182364,-0.020974075721251862,-0.1879365385284824,-0.18730395691730659,-0.14266923891352193,-0.059214059013916784,-0.0986216748607845
0.758,-0.029861742922265944,-0.07434144320064225,-0.044433433785241956,0.0533867625226313,0.005234764957982661,-0.06025713024927918,-0.02913737265517176,-0.18463832602251234,-0.19274823786801712,-0.1433041261314119,-0.0592171117251949,-0.10359529921836877
0.76,-0.03083148689316118,-0.07452417376531449,-0.043636233812421814,0.05372709774625813,0.005008995901735208,-0.05986668449059026,-0.039890940457098456,-0.181685322736522,-0.1984326487762152,-0.14532516924737698,-0.060559415439649586,-0.10721630683958659
0.762,-0.033663135672748,-0.07271306565940955,-0.03904782678695932,0.05469667500706322,0.0017773003807337409,-0.05760803584665671,-0.04529917968313785,-0.18190104643366264,-0.19833432226761458,-0.1455458568600983,-0.06155097581812991,-0.10614297740491296
0.764,-0.03579544357642369,-0.06994535613380791,-0.03417956499404221,0.055150280988429286,-0.0018078331017139047,-0.05430813818464431,-0.04509795520386457,-0.18478170202012226,-0.19330166442738894,-0.14247668485043025,-0.06123895145168089,-0.10237377544255218
0.766,-0.03475224308404809,-0.06797157293938035,-0.03323463890186881,0.053871059334666196,-0.0021188191576102526,-0.052096664208232654,-0.04351221145168489,-0.18791183009814333,-0.19003354255266242,-0.1385841738495588,-0.06145267857224271,-0.10101120239144237
0.768,-0.03152270405142719,-0.06724460486958343,-0.03571305003318259,0.05139987419732452,0.000410135859144557,-0.05208832692137147,-0.04313174862996259,-0.19064942773698462,-0.1917640503670123,-0.13806617591352263,-0.06408785600209378,-0.10345565191325491
0.77,-0.029986152850693483,-0.067694235623885,-0.03769550752002651,0.05039172545072582,0.0020666994240010053,-0.05375399011623747,-0.043085133786411475,-0.1926926138252402,-0.19423388760150784,-0.1413875542953298,-0.06768664089923607,-0.10569755878002907
0.772,-0.03199632895442399,-0.06891840173994743,-0.036920896184601044,0.05225847655824064,0.0010393252096377555,-0.05543879138614995,-0.041454263281342905,-0.19150528425089772,-0.19219364447263962,-0.14420187028508585,-0.06899223445038474,-0.1045069866898823
0.774,-0.03535288835916976,-0.07003289362324336,-0.03468630495073792,0.05525945525733382,-0.0011634388059993512,-0.055682209947854444,-0.03871305867182539,-0.18557746178106832,-0.18666903273620267,-0.1434118187619107,-0.06721634880918355,-0.1014581028578361
0.776,-0.037333768456172874,-0.07115845880353688,-0.033828341209005235,0.05712489922145449,-0.0026361656647590254,-0.055208026239050044,-0.03771642355257282,-0.1785391512048759,-0.18319149304760013,-0.14136513389050162,-0.06485616506618166,-0.0992052092363811
0.778,-0.037915157110445345,-0.07346182087918414,-0.03554496974423815,0.05774545858474431,-0.00304320867925252,-0.05619804541325566,-0.03965231794153206,-0.17564686467421806,-0.18388240235278436,-0.14172967701364994,-0.06450381083805011,-0.09793454168497687
0.78,-0.03871197918183615,-0.07668999308713394,-0.03797521243024831,0.0584681102450862,-0.0031670435181619444,-0.05865781941156147,-0.04209085480476503,-0.1769675337687566,-0.18495100210232135,-0.14429117821808568,-0.06643225250938573,-0.09732959297415347
0.782,-0.040113649477984493,-0.0786106203445227,-0.03849655721140943,0.059729925314328046,-0.0034477605650073797,-0.05992608075571182,-0.04207084183911103,-0.17857296980957926,-0.18370108050125383,-0.1459863106357757,-0.06863397067972644,-0.09786484828669394
0.784,-0.04109008799549816,-0.07791726329164092,-0.03682850654123057,0.060576994365914856,-0.0035124242022757405,-0.05866974511752856,-0.03929753561542625,-0.1795858180624615,-0.18355590697263346,-0.1449949624800095,-0.06859280512815263,-0.09870654617743696
0.786,-0.04106241963881922,-0.07559964554003801,-0.03453808751591006,0.060063010086545535,-0.0033219468223831435,-0.056351576709559655,-0.035764360805322123,-0.18181322566438368,-0.18791077463883496,-0.14270106470643965,-0.06650756445941053,-0.09845799279845653
0.788,-0.039995277982197854,-0.07319371930354794,-0.033198126383600354,0.0580707768318056,-0.0031705676624619508,-0.054772675643775096,-0.033520133472106896,-0.18405483754680158,-0.19350435946798578,-0.14221933073852414,-0.06534471597695882,-0.09809192800890584
0.79,-0.03799447543418256,-0.07197689454784713,-0.033981798478974076,0.055706483406484285,-0.0025438900545473697,-0.054875818708039856,-0.03293993900179285,-0.18394915085676547,-0.1946284325109184,-0.14477429398640812,-0.06631980155830164,-0.09921945222249408
0.792,-0.036081237770621485,-0.07254361469217094,-0.03646225234140227,0.05479715244123589,-0.0010089277700340918,-0.05643155314469459,-0.032290119591479566,-0.18308627576325753,-0.19043751897863148,-0.14788151765405483,-0.06763674600183994,-0.10094214690911846
0.794,-0.03552693709976586,-0.07382669880953391,-0.03830004089831564,0.05574193214538621,0.00047829405220771275,-0.057826633025859504,-0.02973474442365694,-0.1845485012553902,-0.18504587938627112,-0.1482055509624901,-0.06778878333425588,-0.10143720185192907
0.796,-0.03596987240716646,-0.07431027319969266,-0.03834060213455618,0.056750915443076935,0.0008957040213028472,-0.0579851435923567,-0.026847931074650017,-0.18739835435921615,-0.18233790202256095,-0.14528508356828898,-0.06648040574680618,-0.1002820744573946
0.798,-0.03564943157133333,-0.0734255520049295,-0.03777606424587309,0.05583649265207036,0.0007128368486756907,-0.05724485079278713,-0.027815961640721875,-0.18795946784567452,-0.18249322129574688,-0.1413574928612065,-0.06365337566368645,-0.09812285923544516
0.8,-0.03411044323338555,-0.07118553149941816,-0.03707495155065705,0.05318568825774648,0.0006468810855293538,-0.05563129376943615,-0.0332922777613433,-0.1860456561690651,-0.18343753115059344,-0.13882381592501714,-0.06063924577212277,-0.09634288992635347
0.802,-0.03322699775458359,-0.06846447539683262,-0.03523744300244806,0.05130006110745714,0.00022472062055638132,-0.053150257703027844,-0.03855239268269992,-0.18541986788652762,-0.18427112257325673,-0.1385840449970377,-0.06024397528761655,-0.09631956998496119
0.804,-0.03400506752074269,-0.06672802561855441,-0.03270107654002525,0.05178817121636648,-0.0007758057671939127,-0.05122118083004968,-0.039726530218930266,-0.1873733125191893,-0.1857237330834261,-0.13986739776468657,-0.06307334758023823,-0.09768080560400819
0.806,-0.034310187567700705,-0.06580832459645296,-0.03134492828038627,0.0525361063278323,-0.0011315854980436103,-0.05064874833468543,-0.037736563163011654,-0.1886770924181513,-0.18729655651404314,-0.14089992514355132,-0.06573216508171435,-0.09869378667699609
0.808,-0.03214347949085168,-0.06433289180017594,-0.031730668074404625,0.050686158362673345,-7.425966805738133e-06,-0.05027628826684215,-0.03496979929917587,-0.18696162685260723,-0.18677293037866038,-0.1401540972958139,-0.06493532141245864,-0.09861856064445294
0.81,-0.02976381720768698,-0.06392961515754289,-0.03341574372770795,0.048305865976023835,0.0014354331088540454,-0.05052756315782751,-0.03246667728533861,-0.1833783097385479,-0.18421720897309912,-0.13803005088205408,-0.061786435396212355,-0.09850520594566071
0.812,-0.0310863377689592,-0.06828649431125716,-0.036522001485783155,0.05038890333265883,0.0017313660782092546,-0.05397729631267085,-0.030757607002329285,-0.17839706366696476,-0.18266450718192104,-0.13691705893186612,-0.05997058317292314,-0.09958414738655724
0.814,-0.03472219161552086,-0.07535889414146993,-0.04040684727734606,0.05594159959208977,0.0017386243836483755,-0.059552761176618486,-0.03001857192510632,-0.16994002336537917,-0.18315299440951555,-0.13848770385439413,-0.060566659113390986,-0.10142113371923178
0.816,-0.03480587914795602,-0.07753392096290264,-0.0428995225993798,0.057801092119108756,0.0034218403456506173,-0.062038321500023315,-0.029614622814534152,-0.1591359222854253,-0.18348896778382495,-0.14127067094320409,-0.060749247904540296,-0.10215641312400978
0.818,-0.030453185343169997,-0.07283368682571831,-0.042589512390479395,0.05371665510330686,0.005807777616613503,-0.05967831498607217,-0.029193998730551396,-0.15375465254053286,-0.18223278094101455,-0.14195183761319702,-0.058211060405265636,-0.10081849644115924
0.82,-0.02808167011431376,-0.06821817930824364,-0.04015358846213397,0.050119276331848255,0.005189284757445114,-0.05637674750159994,-0.02948798701088863,-0.16071748122042676,-0.1803422004114932,-0.13963216395795722,-0.054832012632769954,-0.09893388526605353
0.822,-0.03171114219935566,-0.06922852247378905,-0.037414829685461205,0.052103020245623126,0.0007152105571337254,-0.055603842468450536,-0.03108140395253379,-0.17676852826832623,-0.17976071494083548,-0.13757125971891268,-0.053870434707332056,-0.09882291974266134
0.824,-0.037153487967244214,-0.07339894607043795,-0.036186881080717104,0.056584690711702496,-0.003453078335302341,-0.057041897915221365,-0.0328973957422706,-0.1907536621012229,-0.1815867625952599,-0.13886809130944133,-0.05530718085619314,-0.10051944201319646
0.826,-0.03909845447866503,-0.07583650111835702,-0.03676549375154467,0.05850487522233549,-0.0037980523175889466,-0.05877479508582369,-0.03318108476267191,-0.19492106170025378,-0.1845939000399015,-0.14208989100113023,-0.05707676152582988,-0.1020790437547519
0.828,-0.037989913367319134,-0.07568559912138716,-0.037740609787596205,0.05781092412129586,-0.001711638371831743,-0.05965017999560028,-0.031831524424883566,-0.19088439109595023,-0.18621069959946804,-0.14369018147437293,-0.05904219838033966,-0.10231261693777172
0.83,-0.03667604382822939,-0.0751585607935024,-0.03848901307087393,0.05716646166319032,0.00010854426505089066,-0.059890204122971885,-0.03020480901414999,-0.18476880712843152,-0.18527309135864942,-0.1429212088211565,-0.0624024733919697,-0.10131948196367918
0.832,-0.036099855628396155,-0.07582424804192223,-0.03970300488892893,0.05758297855953389,0.0012468306154987609,-0.06021395615341975,-0.0291837250388178,-0.18062860845964218,-0.18273972742794356,-0.14192380431786858,-0.06663814173028061,-0.09988992748846572
0.834,-0.036338129781974954,-0.07736931469451323,-0.04101743080225391,0.05849705890097785,0.0019418185294916208,-0.06054874109883675,-0.02868081742242994,-0.17888431734254093,-0.1800414976977021,-0.14185494385965317,-0.06886402702182223,-0.09947225370835804
0.836,-0.037100636851380285,-0.0781937324475788,-0.04109819658651963,0.05897351634928722,0.0018758102505822996,-0.060271115023271725,-0.028155906761956513,-0.17746556061796606,-0.178003551940639,-0.14133242940822405,-0.06636464450020871,-0.10074090559358492
0.838,-0.036872677193430035,-0.07619193856174152,-0.03930726297320466,0.05768057296413649,0.0010658090554812691,-0.058660873918765184,-0.027460791524360095,-0.17526529890135042,-0.1775693823885789,-0.1396155125852249,-0.06093507383929947,-0.10230943938360249
0.84,-0.03462073173336394,-0.07040139289421911,-0.035651309837491624,0.05371914947319074,-0.00016373356207790256,-0.054829874178479766,-0.027736434780709543,-0.17529340093693688,-0.17989058868183652,-0.13848631112696583,-0.05844618354806783,-0.10214510506365854
0.842,-0.03167877449108763,-0.06350858627326449,-0.03149790594284525,0.04885849202550077,-0.00122484348517318,-0.049739941029947145,-0.02995264736630079,-0.17982732914593297,-0.18438824502259807,-0.13853308767082476,-0.06123493925731803,-0.09944037367233938
0.844,-0.03036409981587869,-0.060630815378875616,-0.02984089523147434,0.047055692630926085,-0.0013707761528941997,-0.04707819724848902,-0.03220051732639773,-0.1841915869513905,-0.18803581917951348,-0.13709825103109824,-0.06494083111268185,-0.09509199088987948
0.846,-0.031646106769582814,-0.06370910698315962,-0.03180837238055035,0.0500575454280016,-0.0010863448066910377,-0.048897909925534666,-0.031338018074220125,-0.18280207029781512,-0.1879306134114346,-0.13319365423143595,-0.0653586952969896,-0.09168208058813172
0.848,-0.03472679378063433,-0.06938961905618603,-0.034690689317631834,0.0552934246825932,-0.0018239653762832267,-0.05271154170716702,-0.02749333446820704,-0.17767800245681636,-0.1841040668509658,-0.13031944092257555,-0.06378351405301608,-0.09189885802403357
0.85,-0.03762390933984785,-0.07287257968611599,-0.0353950151349368,0.05864467999932796,-0.0034382173951780213,-0.054849555837278983,-0.02341506665029634,-0.1737606405076806,-0.17906790072255763,-0.13126610832663496,-0.06368615136638767,-0.09523672382910606
0.852,-0.03841579905322452,-0.07209435271438873,-0.03374083576090289,0.05804354437410252,-0.004086588722599859,-0.054183909422792956,-0.020147339338459684,-0.17216473672144125,-0.17535238909042208,-0.13463667949166028,-0.06600208227176808,-0.0983275604638014
0.854,-0.03685914636639497,-0.06876847879443317,-0.03186245740884038,0.05475954443598982,-0.002923163328806584,-0.05224828998126347,-0.01767009468758217,-0.17304792921379272,-0.1745339879352197,-0.13809846408047155,-0.06941102395105854,-0.09963327650650965
0.856,-0.03361222438160978,-0.06581341709792556,-0.03214492798681798,0.051100532714021575,-0.0004771922258213362,-0.05130221068708853,-0.018021373297563814,-0.17705778864422014,-0.17692135898713426,-0.14040407305578004,-0.07219253901288768,-0.10047524011539662
0.858,-0.028437152717698522,-0.06354218460113364,-0.035103350727453804,0.04707597365064099,0.003024179707217777,-0.05158372854230323,-0.022275042832771957,-0.18177474178940242,-0.18046829952555118,-0.14035952641304736,-0.07230384007518177,-0.1011879284230026
0.86,-0.021455291880125835,-0.05973189152043125,-0.03830635089195329,0.041341048754458314,0.0072283073337710505,-0.05059691852506436,-0.02644975943537392,-0.18351853749622016,-0.18189775703231045,-0.1378370989286575,-0.06843765399963943,-0.1002375291089164
0.862,-0.01566903129817255,-0.05453450539959706,-0.03888060002830782,0.03559235584076962,0.010305088328435068,-0.04721801730557387,-0.026114944331737954,-0.1827344113088157,-0.18069191756249428,-0.1354782634972846,-0.06271854748967734,-0.09783470614356342
0.864,-0.015878834003601548,-0.0527789062884292,-0.03686914048554417,0.03498601065070162,0.009897717729628584,-0.044822442925911914,-0.02296688444312387,-0.18340538961637134,-0.18063354893879988,-0.13660460710796576,-0.06007215436406823,-0.09702794502348794
0.866,-0.022896547619785417,-0.05749035848868608,-0.03447189186630384,0.04135861545498404,0.00589775287903422,-0.046536031555676934,-0.021905542711802905,-0.18669209079628674,-0.1848093120669374,-0.14049401237817163,-0.06276605424440679,-0.09947439262099145
0.868,-0.030041869239670067,-0.06389971199041208,-0.03363871587021003,0.048573898923653505,0.001907350293052919,-0.050132696739552673,-0.02340192727392966,-0.18795587395603985,-0.18971217939153745,-0.14183011529531103,-0.06711855383769104,-0.10264576030743978
0.87,-0.0300161957544567,-0.06535168434941942,-0.03511531292868973,0.04948843453644844,0.001967295673789814,-0.05177584970690894,-0.02352734902759159,-0.18338261585167215,-0.18873926177897418,-0.13728543996588363,-0.0680024546798498,-0.10317924497345204
0.872,-0.024646053374231085,-0.06247558389036287,-0.037672789000222175,0.04538890900682008,0.0052148265735930685,-0.05155046569397414,-0.021252215208128162,-0.17696728508795467,-0.18173811708564994,-0.1309704061286873,-0.0654664851373586,-0.10109773519348376
0.874,-0.022569286781985273,-0.06182787680635942,-0.03911547233045329,0.04373804156530677,0.006815875372176563,-0.05221670646737271,-0.020645970177583055,-0.1752302282764074,-0.17557111977541695,-0.12995053865926925,-0.06400777943937677,-0.0989229820996291
0.876,-0.027462827299727193,-0.06650293623465448,-0.0389018950333955,0.047920718599678114,0.004665235548864359,-0.05455366436267152,-0.024460018217105157,-0.1780274902067868,-0.17469285375107818,-0.13488041744802726,-0.06591541816548589,-0.09781076454867813
0.878,-0.033500299209523396,-0.07143926857716974,-0.0378816684935904,0.05314242060713423,0.0015318820815342156,-0.05586858502156319,-0.029819194020777023,-0.17964176023115225,-0.17663345225510113,-0.1391406410437232,-0.06853763440589637,-0.09682022243403546
0.88,-0.033929415067076044,-0.07019071317322566,-0.03627714758150027,0.05338420595341166,0.00024866135670586174,-0.05354386181675683,-0.03169073069492441,-0.17586599364944666,-0.17734673511256088,-0.13791658480730756,-0.06811431615260077,-0.09542499156980461
0.882,-0.029765785201490255,-0.06369542238118339,-0.033830162966708585,0.04897426131841999,0.0004051832191921541,-0.048714753309614806,-0.028207590312531273,-0.16892300830629625,-0.17631736784144958,-0.1337407226029012,-0.06403962073425785,-0.09405752330718328
0.884,-0.026681507532073066,-0.058246073079992515,-0.031091695974892256,0.04461107363536786,0.0005264926488247781,-0.04483071661938506,-0.02174055879670165,-0.16649089385930319,-0.17538640858761206,-0.13212403650981214,-0.05933478116075454,-0.09257862839448294
0.886,-0.026610751677788834,-0.05723637170220638,-0.02971900863784489,0.04295991972559585,0.0008703948012632224,-0.04403029137725544,-0.01553013563005607,-0.17210130879293564,-0.17552152433436974,-0.13480373932975925,-0.0576850721764888,-0.0905855970141236
0.888,-0.02661799430123039,-0.05879443666955178,-0.031132369054489014,0.042922926468112875,0.0026850169360752153,-0.045870349174197286,-0.011472892479464933,-0.1793988199516136,-0.17599643713086613,-0.13802800336051188,-0.05993351124540548,-0.08912915510366538
0.89,-0.024873102680040757,-0.05982776244356192,-0.03415467940903995,0.04264346614563076,0.005359795731533758,-0.04802140331784802,-0.011432904150251551,-0.18157334882030804,-0.1755470880748164,-0.13732414468532353,-0.06370234535720985,-0.0901871984134697
0.892,-0.023525087871240153,-0.05955886842308218,-0.035502748095696215,0.042311253890341356,0.006239602747202215,-0.04841707437015471,-0.016257630597059126,-0.1798466568468663,-0.1739083523414915,-0.133122897066445,-0.06605325154403,-0.09356282001752526
0.894,-0.024639927048351194,-0.05937924124538411,-0.03422647447316072,0.04336346315323529,0.0042883104846050905,-0.04768768145729983,-0.022952639134425832,-0.17808631395102842,-0.17288924275816134,-0.12950139295129243,-0.06578623479463382,-0.09615890861957087
0.896,-0.02672645107990688,-0.06035889947738169,-0.03309002005944567,0.04547888419882214,0.001795934488525087,-0.04807876343366301,-0.0270813289543048,-0.17680908135110976,-0.17498931989002997,-0.12876604798622535,-0.06387280465333861,-0.09608748861701441
0.898,-0.027238268827543967,-0.06129790312038416,-0.03363332021857883,0.046221469277260445,0.0009743234159023832,-0.04954769377034285,-0.027637052319304266,-0.17597751641107753,-0.1799962587130294,-0.13016937209836768,-0.06232335058187713,-0.0953172788928944
0.9,-0.02671033047468648,-0.0602539346955067,-0.03313069815420139,0.04478487544349956,0.0007831151706209194,-0.049325368429109354,-0.02711329813067982,-0.17727662198457741,-0.18455473781200793,-0.1323154079313496,-0.062228279816337,-0.09614519504187494
0.902,-0.02811390483257477,-0.05780675047786928,-0.02899413123219169,0.043891285110878905,-0.0012061524572513644,-0.04615725502694012,-0.027509776494220716,-0.18025593226231637,-0.18562501759931727,-0.13412176203510448,-0.06287267630485945,-0.09732316843133296
0.904,-0.03185423736709196,-0.05622521805391383,-0.023404010701772286,0.045351014634920216,-0.004907238938668094,-0.04234191014028517,-0.027780917926811297,-0.18063028161391528,-0.1830522668946146,-0.1346142253578372,-0.062969920156897,-0.09618857581574693
0.906,-0.033737988397568426,-0.055697744841682405,-0.0211084391366077,0.0462778996139764,-0.007066172350500559,-0.04065514908790405,-0.025930507746599454,-0.17582555925136634,-0.17925522646289074,-0.13411489681969643,-0.06255215199623879,-0.09358220323872234
0.908,-0.029706157482517113,-0.054473253468300536,-0.024290066233046678,0.04317908479880842,-0.004371122850733489,-0.04152595038141975,-0.022415393378707866,-0.16983727395380713,-0.1769952626041052,-0.1347154332936317,-0.06283638708615466,-0.09346069188650213
0.91,-0.021649852958054744,-0.05233267383386489,-0.030477996572649102,0.037676265879383504,0.00235714021969377,-0.043450706483816506,-0.019163195540437165,-0.1693435386670513,-0.17665863032410298,-0.1374525364297289,-0.06403665123622052,-0.09694272970726006
0.912,-0.016430214182463578,-0.05125073128900403,-0.03461262792293447,0.034799563612304615,0.007452771696607633,-0.04467473351738334,-0.01646929876428786,-0.17523770212862289,-0.17615216368290057,-0.14043430514479222,-0.06512857427464426,-0.10061169078749997
0.914,-0.018175685824731856,-0.052495188724296704,-0.03384059954839934,0.03658864146752612,0.006392982927265958,-0.04470674445282672,-0.013726546601190083,-0.1806284933379452,-0.1740748466231369,-0.14165805502802725,-0.06574143979213189,-0.10172402733697287
0.916,-0.023564108951678917,-0.054955768878086564,-0.03051611139536947,0.040259390397566035,0.0016746854037208853,-0.04461290181409919,-0.011576157258369444,-0.1786463878411255,-0.1719414454343235,-0.14149365933516828,-0.06579712934154895,-0.10092751815634067
0.918,-0.02655563788257249,-0.05663266256678298,-0.028937652761632068,0.04225754646978855,-0.0008008489493449037,-0.04530650885583823,-0.010751292685150411,-0.1707463871537687,-0.17222712524282052,-0.14099445125646648,-0.06455952719474206,-0.09954004066960546
0.92,-0.025507380286425064,-0.05646568063842381,-0.029822008197960225,0.04160064985296984,0.00034503492708773376,-0.04597930557439733,-0.010687349963589323,-0.16541505325076217,-0.17513058575602003,-0.14048379996822027,-0.06253718994916749,-0.0978688664336236
0.922,-0.02330247650452611,-0.0549197529536203,-0.030639728710689887,0.03964593495074368,0.0017983679982624665,-0.04539224155699352,-0.010651978290830671,-0.16866289784444644,-0.17900100137712371,-0.14073962133108878,-0.06215424688301373,-0.09654709854312155
0.924,-0.022485897445036696,-0.053399004406494685,-0.03013778310772311,0.03830492839514282,0.0015608855997386029,-0.04377917340148989,-0.010239762632319599,-0.17680689405878253,-0.1823954839104584,-0.1427542476005898,-0.06460724869985406,-0.09678824393342882
0.926,-0.023063928608295318,-0.05252467477201269,-0.02897553156360701,0.03823322889142341,0.0006860239160804425,-0.04184628590637577,-0.008923529375777362,-0.18057423902058872,-0.18347572812857063,-0.14557514574684477,-0.0678290841738786,-0.09825144247196016
0.928,-0.023727046700374673,-0.051377647299546775,-0.027531716589897486,0.03815064376210675,0.000461513392784773,-0.03957338261748275,-0.006476425191098416,-0.176687694336121,-0.18032595990521402,-0.14665238492814525,-0.06867770426568429,-0.09856931171049961
0.93,-0.022945499920939198,-0.04914556334336429,-0.02630788854442942,0.03640480769343592,0.0012906690967985476,-0.03756881268533938,-0.003326126401801319,-0.1712346230762871,-0.17421026184519584,-0.1448113359191867,-0.06646622805100694,-0.09645024022274606
