time,I,II,III,aVR,aVL,aVF,V1,V2,V3,V4,V5,V6
0.0,0.0010750414137347445,0.00021939620688464173,-0.0008556452068501026,-0.000636248999965461,0.0009653433102924235,-0.0003290943103269626,-0.0007459471034077819,0.002457237517107987,0.0028960299308772707,0.003861373241169694,0.0033128827239580897,0.0017112904137002052
0.002,0.008255461024039526,0.002278500964761199,-0.005976960059278327,-0.005190353301332691,0.007072331300281998,-0.001969736481703163,-0.00490352843896312,0.017603395660927557,0.020536865659503606,0.02728010264945864,0.02336095951332124,0.012173316325441295
0.004,0.029290281883135483,0.010763374692827914,-0.018526907190307567,-0.019808430685629236,0.023645963005827768,-0.004384735002674506,-0.013758563347118884,0.057120041890758845,0.06570430039214151,0.08685397601974297,0.07422409332315531,0.03924455686262247
0.006,0.06408430730837711,0.030805807126869648,-0.033278500181507464,-0.047135702962184466,0.04802656562504926,-0.0023318546680977173,-0.020587864245461763,0.11220366687507302,0.12694803082743303,0.16658263787223265,0.14229734473328878,0.07699256858025151
0.008,0.09743119690512966,0.06006549878662665,-0.03736569811850303,-0.07851813538025662,0.06649838802733879,0.010001907427458545,-0.014841656362082028,0.1520036362716455,0.1694364273282037,0.21976794318945025,0.18871687005523569,0.10571652370275005
0.01,0.11096357239090632,0.08570273234777219,-0.02526084004313412,-0.09804638290657429,0.0672179864089437,0.02938362859577611,0.0027528047016423633,0.15757231633764607,0.1744654359467629,0.22257710498601174,0.194200500062343,0.11398910495279548
0.012,0.10373199003250566,0.09648891687789375,-0.007243073154611902,-0.09917712176080898,0.05440301126069487,0.04464320328998416,0.017487194905377822,0.14344406428363554,0.15938409447137047,0.19994820320736176,0.1784514980074101,0.109919001370954
0.014,0.09463353880868133,0.09722402141628492,0.0025904826076035645,-0.0941453888500503,0.04443789964374267,0.05031602713447635,0.01775052493100592,0.13599281579647052,0.15094957686009688,0.18782072366842054,0.16908197141929776,0.10714303357794515
0.016,0.10122815929747248,0.10320800807286623,0.001979848775393733,-0.10045836355748984,0.04783595400608164,0.0525605934662193,0.008843433123398876,0.14317067340613054,0.15600331146855637,0.19365033861580375,0.1726929069343935,0.10954569326024022
0.018,0.12012331998933402,0.11979837799295907,-0.0003249419963749275,-0.11930329898661805,0.058808027194150535,0.05872236057529809,0.0055867557614590335,0.15340607322632413,0.16339928065310758,0.20187110989470533,0.1787651029222175,0.11181162937691047
0.02,0.13197599989647257,0.1345401870308369,0.0025641871343643637,-0.1336256948086114,0.06378277758867966,0.06663444455554665,0.014211640317353542,0.1549264597888984,0.16239662449256378,0.20020307585842892,0.17670367722266603,0.10865454182209365
0.022,0.12333439889901664,0.13150919352089285,0.008174794621876248,-0.1276579690831924,0.05687501639819963,0.06752187702092687,0.026196882114934143,0.14693733699401731,0.15209969387631053,0.1897307655288979,0.16476557864848754,0.10014020616607526
0.024,0.10030755542499255,0.11046327686656462,0.010155721441572046,-0.1045892463970035,0.044453555246656604,0.058125231683847464,0.030658156432889477,0.13615987138704272,0.13898789685174015,0.1783600037975746,0.1493678697056376,0.09068542876074563
0.026,0.08079885796092506,0.09001479488064955,0.00921593691972445,-0.08383072690890563,0.03533805346434688,0.04787639951862244,0.027722070343957562,0.12999906657014498,0.13132350957780115,0.17388734537184433,0.1397839252836746,0.08613222481874594
0.028,0.0750599970900777,0.08993296892228003,0.014851032211513841,-0.08103783091123634,0.029650362635142567,0.05093729676827982,0.02469001159772654,0.13095482801396455,0.1332835380443454,0.17930876128136908,0.14113055719316975,0.08969544332310501
0.03,0.07788093601657806,0.11146217654882264,0.03344992476679769,-0.09372643653686677,0.021159510726438173,0.07084706389065983,0.022527160263660487,0.1347691792087879,0.1418397726520819,0.19027806243299672,0.1505681864551373,0.09895734798790135
0.032,0.08040648180036522,0.13900752969256266,0.05827362883225093,-0.10891060509032643,0.008983015001790554,0.0967551559505392,0.013867482124911618,0.13599550529563,0.15058149958880157,0.19928360091035058,0.16059881586647956,0.10841658663945555
0.034,0.08126592371997028,0.15716945117258885,0.07545898261555192,-0.11831980681555325,9.05115249383719e-05,0.11432463827958725,-0.005946987815915237,0.13224994083866318,0.154430251693872,0.20147403488195506,0.16520477185259957,0.11358713054803014
0.036,0.08107359959208399,0.1589912460749757,0.07753079004607578,-0.11942829111440896,-0.0010781615278421567,0.11616534106321223,-0.0330146034923325,0.12034802974919268,0.14845465807725905,0.19452011321286908,0.16195932337370245,0.11172335138364943
0.038,0.07483066639487346,0.14333950671889825,0.068207094724216,-0.10906837108398074,0.0008504476778764238,0.10341254632650615,-0.061277297425063076,0.095237973714025,0.12777413991887904,0.17710569527936126,0.15053555185958914,0.10244872397815807
0.04,0.060151928910164174,0.11680397791372253,0.05637524039385894,-0.08846267552260868,-4.403100630289157e-05,0.08397198356042655,-0.08791191366507164,0.05805847518003615,0.09474056120187596,0.15176871081280624,0.13300887454157614,0.08926472891964092
0.042,0.048643088258562554,0.09666810069348929,0.04781074785308595,-0.07185606185613931,-0.000780176056525182,0.06970401340601749,-0.10913575968513013,0.022051890705576848,0.06321670670104904,0.12755063487641513,0.11566775833282063,0.07830397948297542
0.044,0.05678624655642058,0.09884011849600957,0.04188016009343053,-0.07649847763980183,0.00694173570501953,0.06834931234390709,-0.1171582402295188,0.005496756387656083,0.04927612663672949,0.11576223615021287,0.10671205390657901,0.07474369085718073
0.046,0.08413633197010693,0.12034712208977506,0.03584143357843101,-0.10141790534979304,0.023469930223862342,0.07659190754362663,-0.10732814815916779,0.015964863600453943,0.05682740640437944,0.12069952874240808,0.10980764530387843,0.07980062053480153
0.048,0.11023035135943084,0.14218379269435533,0.031264471630451846,-0.12598432624829634,0.037666944240461846,0.08528019445125752,-0.08595308920513844,0.04199380179424507,0.07461049858623257,0.1349154088275066,0.120099764605428,0.0896551129240491
0.05,0.11749397235683218,0.1502291846400885,0.03204054228042266,-0.13316949662522518,0.04004089362310693,0.08961950149092897,-0.06642194282754897,0.06340993435722192,0.08757113621911736,0.1460036511171318,0.12790976616774072,0.09806189756016895
0.052,0.10921018067897674,0.14683821024309623,0.037357062421582696,-0.12632494194779517,0.033853944453580115,0.09091217503961714,-0.05665378209607365,0.07043477967020709,0.09062403240253905,0.14888241992314938,0.12812690549803077,0.10173901278818034
0.054,0.09869389649384636,0.14151300614427303,0.04297959770537848,-0.1183698216262162,0.02742549635483865,0.0917016642925387,-0.05316007903232993,0.06937528562580526,0.08984643369899231,0.1482764334659692,0.12437622893854434,0.1020257958678844
0.056,0.09049164130946205,0.13656424036710454,0.04627671149350713,-0.11282774725207868,0.022692570620582345,0.09116859046883306,-0.04934246746265012,0.06975328489221,0.09053920686643593,0.14818367771563998,0.12141198940776582,0.1007175300105317
0.058,0.08070963188683994,0.1253717837428625,0.044562051736109574,-0.10297431970438856,0.018284742538375153,0.08417541580760267,-0.045494153306812606,0.07110396921941517,0.0891976170539588,0.14455363506265023,0.11730694416316997,0.09689417175750419
0.06,0.06700332397596925,0.10285158608496073,0.03543770252552396,-0.08436412722578342,0.015245812349028992,0.06748318160123362,-0.046164771334424086,0.06530368838037404,0.07924776731033306,0.13175239688000628,0.1075235188544068,0.08901995191678665
0.062,0.05250627271161305,0.0754161167420824,0.02257300093074837,-0.06277049905832055,0.01448278063977841,0.04725541950455216,-0.050912390202509525,0.04931370742875269,0.06049820418888036,0.11209736442060274,0.09347662327727597,0.0788063777200436
0.064,0.04472246815809136,0.057594853693271796,0.013100148309347649,-0.050171781631640044,0.0157702306906036,0.03458401816508565,-0.053616069356817085,0.03087707961894084,0.040358924965519766,0.09449583770071916,0.08237979886419587,0.07135273599919273
0.066,0.048647439613382935,0.056322787263760304,0.00849945942995763,-0.052015330055617044,0.01980882896729819,0.0326311892266103,-0.050435630784610455,0.020235548836989168,0.026991463959085665,0.08483931128125868,0.07893822080966588,0.07022600309866553
0.068,0.05790400660347054,0.0624688749503151,0.00539854452846353,-0.059628275311199685,0.025379899317627182,0.034046881119939996,-0.04366475496185158,0.019641842577934266,0.022672406328479475,0.08175640193949021,0.08021282814291057,0.0729316171307133
0.07,0.05956798367849329,0.06236150234024691,0.0030648559343867,-0.05980523072233477,0.027462296967911567,0.03176601016263961,-0.03666575051750627,0.024009160542086856,0.023870713724354956,0.081410385813515,0.08022911998787786,0.07301879226455768
0.072,0.05144962027199448,0.05405028988955511,0.0023673776788272535,-0.051144353341878515,0.02426876065669793,0.026503893211512832,-0.02874431409586348,0.029851712017684644,0.02633991129540252,0.08174704857502485,0.07743319199598028,0.06690860816020294
0.074,0.045189431119376545,0.04567005143468403,0.00019762087652596267,-0.04369439709006954,0.02179940478057316,0.021638486172105578,-0.01817335613761174,0.03778368746264783,0.02798617250999153,0.08102479635447557,0.07367924045871899,0.05673401273451514
0.076,0.046848548855993676,0.03952405556127565,-0.007442466386511732,-0.04144213005406958,0.024922946219095066,0.01564287901368508,-0.008219043439138487,0.04529465294547384,0.026811441705270056,0.07580731421014612,0.06715382275759911,0.04549030814110402
0.078,0.04546074692278192,0.027112748235575735,-0.01840924648305208,-0.0347731257525845,0.028695695115549112,0.004065661441185122,-0.005688413076187438,0.044432320673617694,0.01933796870247799,0.06263996741176356,0.05280318926072151,0.0324364644711543
0.08,0.02726786256582985,0.0020990691466274748,-0.025194603252312806,-0.013672542349219404,0.023749517358348925,-0.012586491823558279,-0.013007146068716691,0.030724414269011183,0.0038398003167377038,0.04192093701977359,0.030934171138288696,0.01610578186436021
0.082,-0.006709736765470099,-0.02921997884951469,-0.02238307699544656,0.018644144812067494,0.007191191435396314,-0.027321293585949365,-0.024310826321109678,0.010270590081394634,-0.015512371436070236,0.020001351523655394,0.009707803378639622,-0.0009759488180019417
0.084,-0.038861796988090384,-0.052519583319382765,-0.013433330701821341,0.04641125570739416,-0.012110271694436712,-0.033982040363331946,-0.030327557893517144,-0.004852492058888956,-0.030431386948232414,0.005640399719841706,-0.0027573193164550716,-0.013709794707528774
0.086,-0.04746825569908932,-0.056643856312016565,-0.009038891260773948,0.053004675273836864,-0.018614752501885413,-0.033077208853602554,-0.026599276914868783,-0.007254043265363148,-0.03573386661722445,0.0026165601078370357,-0.005354531258073945,-0.018643627193041204
0.088,-0.026323826403659892,-0.04109237060403008,-0.014713358186408804,0.035084505397164914,-0.0057574204212185506,-0.028442643097345836,-0.016620414949383613,-0.0001621866821734946,-0.03367197621908819,0.006672369734783783,-0.002671362533528724,-0.015816102764422184
0.09,0.007205485244202332,-0.015707434786043722,-0.02283162665077224,0.006093349934184344,0.01472566291701596,-0.02127294548580062,-0.006852233722772964,0.007086243696813502,-0.0302638888552458,0.01037797194798872,0.0003475156592545114,-0.00868768446158328
0.092,0.028644433745286565,0.005993256867460654,-0.022705217894928357,-0.015507731909215446,0.025211830277940807,-0.011544982182063235,0.00019247424044515152,0.009051487366254518,-0.028644366279824994,0.010150996502882145,0.0017298128814024268,-0.0020289854827922737
0.094,0.028271562527277364,0.014014657280482228,-0.014687822917234522,-0.0197200694742915,0.020740759681960853,-0.0032681628867952347,0.005469927864464269,0.007752907339925562,-0.028271960219194026,0.007950331040330574,0.0016659618461246828,0.001171725789703601
0.096,0.015119333696281365,0.0067332972951554765,-0.008928645867093254,-0.009445919579399647,0.010998820325778319,-0.00286980986705392,0.007613138812321889,0.006544603130659105,-0.0295513664366285,0.006181878267223984,-0.0005497346481662879,-0.00010397606596747146
0.098,0.004004340190838037,-0.008658457757884049,-0.0127412714004259,0.004259623161508896,0.007234438341587744,-0.01191194886915091,0.00370099710496692,0.005006580872786626,-0.034195526953859225,0.0032764032529204856,-0.006391175354472568,-0.00551806100242628
0.1,0.00020076723003019977,-0.022781361579681414,-0.02260283714586382,0.013054475236129341,0.010130684066809049,-0.024497076003230887,-0.004692507349693474,0.00183533674332977,-0.040923991634372554,-0.0031451222763937726,-0.014718848051681496,-0.012302657351652693
0.102,-0.0015580726252931306,-0.031201625334525734,-0.0294654507991402,0.017065194324977974,0.012273020491973421,-0.03291697199617055,-0.012891102625632103,-0.0018470834107547722,-0.046290921233625305,-0.011362320031663433,-0.022456936577847423,-0.01734101786204911
0.104,-0.00373987039217918,-0.03397292071271574,-0.030599245360087474,0.018642126869968766,0.011382945271258844,-0.03470549665382289,-0.019224621343917343,-0.0046168524312088215,-0.04919752153712768,-0.017227629474844488,-0.02826109083268145,-0.020815355691853686
0.106,-0.0013776510680604097,-0.03219932564134015,-0.031316484774068634,0.016963815989425247,0.013116340512670865,-0.03308610902047414,-0.023884894788433465,-0.006253796949111996,-0.050578093271513004,-0.019047355853696532,-0.03167014316083871,-0.02388895251420793
0.108,0.00642246766395446,-0.028622283692951674,-0.03517185772617756,0.012701660960049974,0.01957702634730774,-0.03225313970644536,-0.024697176289046843,-0.0060375088153536635,-0.05114389933844032,-0.018806842678546147,-0.031725913239277856,-0.02520419971178838
0.11,0.009713266010452332,-0.028983568903735903,-0.03849721363571506,0.01228575356452741,0.023486026314444148,-0.03411288571255989,-0.01971519276258411,-0.003939460210007757,-0.051924438515933376,-0.0195390713432261,-0.03035389063588667,-0.024233956123983387
0.112,-0.0022808307788185567,-0.03762888745075194,-0.03517604180145025,0.02226877544860032,0.01622216819608896,-0.0374529596460382,-0.011364659160471526,-0.002777949404880337,-0.05430005555664074,-0.022612951591144105,-0.032339500668882304,-0.0243909046629983
0.114,-0.026951145955217394,-0.05109210968047698,-0.024164102200029198,0.04015095071246782,-0.0015095227929835297,-0.03903064185603754,-0.003928290924063455,-0.0041005192954283835,-0.05815057763481252,-0.027332249838944302,-0.038850413905290655,-0.028350729994055895
0.116,-0.04937191300018073,-0.06108503034163126,-0.011817751509831595,0.05549527178274057,-0.019257043736803117,-0.037576833813630584,0.0006300573194310296,-0.004779420705359373,-0.06133333546249463,-0.03206138410068961,-0.04612514750305006,-0.034245907681314525
0.118,-0.057528200193186364,-0.0636029373036938,-0.006112465668063791,0.06065320498047598,-0.026900623707812685,-0.0355725779886646,0.0026271924803467133,-0.0017484471855820525,-0.06144730107963592,-0.035291065768675835,-0.05116372165239375,-0.03899242505982179
0.12,-0.04956590928507685,-0.05886369217697779,-0.009258872975304798,0.05452452564098624,-0.021831494991372814,-0.03452677672100341,0.0040216704160426445,0.0045736681539009175,-0.05802503988028799,-0.03612565007721431,-0.053188081437607705,-0.040636481852261395
0.122,-0.029520905607132622,-0.04630525247903443,-0.016745182462309795,0.038630158721862866,-0.007888435977704514,-0.031786868218217156,0.008296818806059359,0.012553879984737571,-0.05352748439823149,-0.034393956032058755,-0.051507565191297566,-0.037718069035847415
0.124,-0.006262431019879732,-0.027897361525014847,-0.02163743898030769,0.0182147857046963,0.006885774925337226,-0.02501302158721431,0.017533257096545095,0.020099125666003588,-0.051372464087552465,-0.030653665171002806,-0.046787963117538967,-0.031392991793254624
0.126,0.007863087513816673,-0.01220268147094217,-0.02011027189888803,0.00345954890424358,0.01385172210869177,-0.01683813986600668,0.02953048626599385,0.02429542986366504,-0.05243967480578971,-0.02636770106584665,-0.042103580315656496,-0.02631191158920334
0.128,0.006008296969638941,-0.008832213571623577,-0.014981234517678996,0.0024135471873061583,0.010406796569772036,-0.013208348160475763,0.0387026871152969,0.023057985388826897,-0.05576971829309234,-0.02462287041129288,-0.041156860893719546,-0.026537316436167774
0.13,-0.007137797540862778,-0.019216582158796108,-0.012420324767740932,0.013752975497760661,0.0019208305858607142,-0.01748450685449816,0.03962654985335456,0.016560442357920792,-0.06147983799252557,-0.029234985421987155,-0.046221689516490624,-0.03256867363019753
0.132,-0.01990394565857607,-0.03361810043043448,-0.01428114689450318,0.027490101705356765,-0.004073700337419947,-0.025758359607238417,0.031838536039559995,0.007716168205625191,-0.06896205059023489,-0.040164627919549716,-0.0557883879013334,-0.04193556603315501
0.134,-0.023657949757088563,-0.03957608203267454,-0.016632438462221528,0.033182876617565506,-0.004532716987527687,-0.030054106201666632,0.021717849735970678,0.0013981765921616195,-0.07444039943522812,-0.05056854857487019,-0.06411385625175986,-0.050589063250381115
0.136,-0.02062563410055303,-0.03517095654281575,-0.01527452760955913,0.030052519204786975,-0.00314916368906117,-0.027315288601839734,0.01715701687485033,0.0010434935144110846,-0.07426815167312653,-0.05254236950457423,-0.0661946751531599,-0.05476465366853324
0.138,-0.02225662603370482,-0.030277675078010238,-0.008533760644094824,0.02809206122904058,-0.007357716720923412,-0.02157789794490438,0.020278684315816795,0.005125380709418472,-0.06952112285593674,-0.04672938238748096,-0.06391786284345696,-0.05373189045846145
0.14,-0.03669333572060727,-0.033855014618098755,0.002804534967129124,0.03637144998801118,-0.020576093151032582,-0.01760288972626084,0.026539173278285685,0.008510246409726464,-0.06548307461407354,-0.04215548203826873,-0.06424965289502241,-0.05132505149048524
0.142,-0.05720911564893945,-0.044660145328198966,0.013003725921123296,0.051661975356697365,-0.03569746897141238,-0.017392276257384043,0.02984250803925945,0.008335977385399696,-0.06685228449163572,-0.045123105216690974,-0.07031232670423088,-0.05291006500781977
0.144,-0.0678406229587174,-0.054657698620946216,0.01378017110253112,0.0620277020063526,-0.04069394798694622,-0.02116654261898262,0.027897608208498004,0.00641324556203024,-0.07389099888989428,-0.052983561579551225,-0.0782366626363826,-0.05945063782495562
0.146,-0.06347969628084958,-0.05836355501603072,0.005516884429578711,0.06182909658521501,-0.03406673200425841,-0.02659699738540623,0.02379740946809683,0.004660868142250039,-0.08273687516587708,-0.06025025881810968,-0.08381430927195331,-0.06632605725091253
0.148,-0.05767033236188455,-0.05863351952156288,-0.0007349386683355875,0.058917252421525894,-0.028407568644164282,-0.029884454108160815,0.022069448971052747,0.0015568785894480807,-0.08955960316624226,-0.06595227753615444,-0.08790971206058801,-0.06946421812268182
0.15,-0.06445738426425004,-0.06292876510911737,0.001762468173202001,0.06401512564976979,-0.03374254941065862,-0.031115004192490758,0.02254381387161733,-0.004648899170279831,-0.09457734693955598,-0.07296348002219921,-0.093533894486132,-0.07035641462321288
0.152,-0.07976125418569609,-0.07315419295213825,0.006818456687162043,0.07663108431502588,-0.044658323232697174,-0.03409310944305138,0.02053305069928657,-0.01160669881778285,-0.1000254035637995,-0.08242914494394997,-0.09991798554567809,-0.07264961987882594
0.154,-0.08724920575967739,-0.08159404852269193,0.005686081051619234,0.0853051305795485,-0.04838618062120639,-0.03928056567466523,0.013994740377273062,-0.014541985361319421,-0.10520077841066153,-0.09099718406944518,-0.1027920168137101,-0.07653669462140637
0.156,-0.07831324384219632,-0.08017523716629137,-0.0020775988351408115,0.08120220181337115,-0.04007359562004597,-0.04286950133249445,0.007097284056709371,-0.01196279147938892,-0.107590830014304,-0.09487928886958773,-0.10116529288396972,-0.0794134675312311
0.158,-0.06368908289523573,-0.07293734364941691,-0.00965196430431603,0.07068336982789353,-0.028522263084948877,-0.043501796599884936,0.00518305972741669,-0.007718630246837781,-0.10738536667438632,-0.09538666378650866,-0.1000551613863201,-0.07983325147865976
0.16,-0.06212412715267621,-0.07234363666841073,-0.010635635687454703,0.06930457824113069,-0.02664150302827157,-0.044071910584906816,0.008901497024760997,-0.006479007635346345,-0.10707368556365723,-0.09740490593623077,-0.10443215444042003,-0.07957984123226686
0.162,-0.07323444088703547,-0.07973972053459571,-0.006716208096112514,0.07841519834734274,-0.03363150645641246,-0.04584867608894207,0.015430679964329948,-0.006851895214283318,-0.10706897576712357,-0.10253724970536207,-0.11298683066879983,-0.08214958725347286
0.164,-0.07509990482597644,-0.08098105564521978,-0.005837337036598089,0.08028822071459162,-0.0347947949099134,-0.04574124425322733,0.0239884411615292,0.0003309997983343739,-0.10357074969167716,-0.1067842355725254,-0.12047001422163744,-0.0885223774331445
0.166,-0.05955720792910993,-0.07060237750885473,-0.010914910539128764,0.06746735120346284,-0.02485866174752083,-0.04275717312153938,0.03706796129449387,0.024021193399704134,-0.09196206627363493,-0.10618936335364888,-0.12587202304971054,-0.09734274491882587
0.168,-0.04784662588636547,-0.06510261729416007,-0.017210094436441475,0.05843019166673497,-0.016737008501934117,-0.04285538592454258,0.05577603994472695,0.06262272816631823,-0.07169674843800665,-0.10136670258622624,-0.13428252245531544,-0.10930002865614083
0.17,-0.05587053528103688,-0.07769086453963754,-0.021866270177595758,0.06833236385751178,-0.019290678506730483,-0.0509130441562298,0.07613937261225799,0.10398084077472372,-0.04621194564445822,-0.09370180069590966,-0.14754766118221344,-0.12464831270281763
0.172,-0.06841365611774129,-0.0948961033257199,-0.02652933055875729,0.08345456594828449,-0.023610765075934282,-0.06103649461817119,0.09082676484316336,0.1349944603820193,-0.01956150168961162,-0.08103102709981197,-0.15707011886845126,-0.13699819273076871
0.174,-0.06546594978524542,-0.0947932166452925,-0.029324976677837913,0.08238815158244159,-0.020595960812108106,-0.06210682134538845,0.09383933159887971,0.15012140423815742,0.006426619487518203,-0.05934240923179851,-0.15080485521919057,-0.13650489878801544
0.176,-0.051830755841628544,-0.07603254104091407,-0.02417525578976626,0.06603109773436784,-0.01587595846387696,-0.05099611901749399,0.08514860604192208,0.15452317517682462,0.03501967206623982,-0.024799030102857632,-0.12449267063243205,-0.11873137455114452
0.178,-0.04131490832015605,-0.05311417034246147,-0.011787841977898096,0.04859387596479697,-0.016266691776264983,-0.034673001157069665,0.07233683675440088,0.16147035996575157,0.0738346893606069,0.025627726142028386,-0.0823070922029695,-0.08725957543336496
0.18,-0.028098849790533138,-0.03316966813286288,-0.005079822427940493,0.031472542310221605,-0.012852655990020332,-0.021877514318421314,0.06455841345350732,0.18266616058959223,0.12753704285686412,0.0917992521556546,-0.02931371680822515,-0.0488240238708597
0.182,0.006686633467662491,-0.012251331348756547,-0.018926551396445744,0.003613287004975351,0.011199676099874323,-0.017577463771170924,0.06299154324057708,0.21755766007375257,0.19165411918391434,0.1685968744215673,0.03370073900758888,-0.00634099143371653
0.184,0.06595043604180888,0.011174839229362594,-0.054666334882668186,-0.037412546970109054,0.05879590909550982,-0.02260687984140138,0.06004862109114091,0.25198035731639906,0.2535857589032062,0.24656947765124887,0.10780310234601595,0.04278831881205683
0.186,0.12735917886622844,0.029347459810381518,-0.09780992683590851,-0.07673814233722576,0.11194419701097413,-0.034968054565931654,0.0473643601725618,0.26794173856899495,0.2977304049495733,0.31410952879247017,0.18867040170107438,0.0993974517686355
0.188,0.16609001339160714,0.031637852883804746,-0.1343322553688149,-0.09674495002484283,0.15030135960741323,-0.052994392546310026,0.021743522232920125,0.25619316156709004,0.3128796194456051,0.3613294417650426,0.2649635329156421,0.15675113259502801
0.19,0.1819042531922932,0.016126699096581147,-0.16581507986855376,-0.09676788453193584,0.1734382874854056,-0.07709899406231001,-0.014753157419042984,0.22098335944072103,0.30020291555382,0.3856755044063514,0.32818772119017603,0.2074249509029247
0.192,0.19688999212983957,-0.005225381186206618,-0.20207153389539426,-0.09413359002076296,0.1976078313079969,-0.10545371613396447,-0.05712090769232748,0.17567305116349405,0.2741770122125556,0.3958368726512724,0.38228931423249635,0.2529884962772319
0.194,0.22774569868459618,-0.013126948029914945,-0.2405703247800593,-0.10641539899018533,0.23117743053887932,-0.12787334371084447,-0.09782306042762284,0.13679314604290543,0.2537456618937498,0.4071149143975786,0.4367476950179553,0.300035647622252
0.196,0.2664766852304761,0.006102638460604971,-0.26003471077956347,-0.13587456657136704,0.2601417759028975,-0.12784643940575333,-0.12550560210205208,0.11928032167328552,0.25175597589117593,0.4277298138666574,0.4884737179874028,0.34688311301055696
0.198,0.28686911169948154,0.05005002044846855,-0.2367347516185915,-0.16805204193569198,0.2590408647301237,-0.09460974649936484,-0.1276314799769634,0.1321749113127087,0.2703220335028242,0.4485735839241071,0.5159711901442776,0.37871102217300545
0.2,0.2666236207027648,0.10139379461385047,-0.16538761783671507,-0.18312746256894114,0.21346070327662106,-0.03326712244075442,-0.0981784759162067,0.17667476943187418,0.3019962152461717,0.44843495235844677,0.49528829593509727,0.3785490662881209
0.202,0.20607010144022375,0.1433175979272983,-0.06300182069873017,-0.1731001413410299,0.1321789355776138,0.03961973790140137,-0.04402909008339266,0.24393059417488075,0.33246002040390116,0.4104940681697647,0.42135847704030804,0.3442125744136259
0.204,0.12739143197951,0.17401599850967708,0.04631144568077366,-0.1488390566071973,0.03873506945410553,0.11031355151195649,0.01741213510670599,0.3119897485178481,0.3440825148642577,0.33474963721714424,0.313611327767793,0.2922899636342367
0.206,0.05427432216663315,0.20153157999998358,0.1468836762257743,-0.12644025453990976,-0.04755221587578415,0.17414657919143858,0.06962914881195392,0.35169112477712533,0.3224598528506802,0.23520735629774267,0.20113945995731042,0.2420299455005668
0.208,-0.007719984956903694,0.22563895215143787,0.2329985394118256,-0.10793419628087333,-0.12180599613686596,0.22837350113643137,0.10666581011260363,0.34428764774656795,0.26332217064187957,0.12614254951251094,0.10171918516568637,0.19786558850024594
0.21,-0.07024402264016746,0.23421438601293382,0.3041087979299756,-0.08097958498120172,-0.18944161418557898,0.2675813084935141,0.13313130054560784,0.29667528843168345,0.17605602127028253,0.015316262714689012,0.014155307447961034,0.15113436978171477
0.212,-0.14433954690947592,0.21886955016741597,0.36277415937777235,-0.03624962783139535,-0.2563881363807501,0.2891955800212596,0.15844179474585507,0.23935017933755626,0.0829612028699497,-0.08904595856381199,-0.07167628185349317,0.0937621465465366
0.214,-0.22740361370074694,0.18335111344044855,0.4102582454401287,0.02279559546586708,-0.3216543497172743,0.29538624771944777,0.19034543354601335,0.2070395837803366,0.011628792241610356,-0.17405800744838384,-0.1609976636285822,0.024672705185022
0.216,-0.30658399189410496,0.13653094761530066,0.44281845057718794,0.08582175282248992,-0.3773302061980783,0.28854289964953583,0.23002431859588807,0.2169755331591921,-0.01925223734495695,-0.23052402599226968,-0.24874786187123496,-0.05207660267281165
0.218,-0.36741992967756704,0.08864895391567172,0.4562367057355409,0.14074304314607214,-0.4143375272157076,0.2715984609276816,0.27191838084188713,0.262245116201438,-0.009340088220399206,-0.25855666929369364,-0.3219828302216484,-0.12722789219252206
0.22,-0.3970599758334109,0.051274696322023215,0.4488168766008547,0.1745291184966691,-0.4252099162224456,0.24927278499556105,0.3088078022360244,0.3243798823820248,0.028980293740447405,-0.2609863901050659,-0.36704725015891154,-0.18658199430485894
0.222,-0.3892785565174213,0.03063937432571699,0.4201873066361905,0.18028194891199237,-0.40642404945211646,0.224561743946872,0.3368080348195981,0.3898336915235918,0.08229005215054214,-0.23952989481462722,-0.37941936939682525,-0.21957460610089008
0.224,-0.3546282081285621,0.023289639350693492,0.37771812319320014,0.1656879973271188,-0.3672578449446205,0.1995868704832825,0.35592102305209755,0.45246751537400065,0.13840345290323722,-0.2022044310270611,-0.3681258544993399,-0.22912142767187685
0.226,-0.321007772714118,0.019412554281040873,0.3401255097685784,0.15081892858301107,-0.33168086400707836,0.17866549996648934,0.3696823634839482,0.5078762589223256,0.1847079684806537,-0.16584673842082778,-0.3492620812798071,-0.22927805783239494
0.228,-0.3130908808086462,0.007861635658518308,0.3210185867518898,0.15376599602499103,-0.31875403959865917,0.16307173883655485,0.3853764523390362,0.556041071870378,0.2156546315052572,-0.14377924354273328,-0.3351383330283739,-0.23250578023847382
0.23,-0.32687404226023065,-0.014181688478484297,0.31300870260226155,0.17282179200242923,-0.32184042479386604,0.14809269955070148,0.4092170459523314,0.6046129898920546,0.23838861746571516,-0.1351224926733499,-0.32810845626645485,-0.2406987123925818
0.232,-0.3343322226272283,-0.034056649616469724,0.3003465101698438,0.18655711100766445,-0.3187622256994635,0.13229359292392537,0.4403262232254766,0.6581341242462961,0.261092273344325,-0.13127408141291752,-0.3232507257044078,-0.24774141893786086
0.234,-0.31781810787513876,-0.03604630347864467,0.2813702783813997,0.17845623440076785,-0.3007338073824682,0.12219943377738679,0.47429680803696744,0.7081624147947597,0.27942702955093696,-0.12870417908388912,-0.31721596368243216,-0.248258661007161
0.236,-0.2869240805469659,-0.019872414686384482,0.2664791119693441,0.15418028063667705,-0.2782138453509902,0.12249427241475278,0.5108517013740511,0.7433729668322376,0.2824323531600318,-0.1297376825303894,-0.3119214838067558,-0.24318235542030955
0.238,-0.2603549039195243,0.0002124134455599308,0.2602774779735616,0.13075243699055925,-0.26216215163166673,0.12843916546616052,0.5525792367464176,0.7642116911808785,0.2679663281570638,-0.13402139191459211,-0.3084750664522804,-0.2382070438704806
0.24,-0.24746639017988428,0.010270663224818836,0.25782765428306925,0.11940797923822857,-0.2542291419327652,0.1315876203055366,0.5988118313392224,0.7793658343190153,0.24575095879486678,-0.13668286048587927,-0.3039765789937067,-0.2380866216930553
0.242,-0.2482994550542862,0.0065388235347499804,0.2550340340434113,0.12149262834969543,-0.2527681843109912,0.12864212986137671,0.645976136500184,0.792741368527975,0.22657759679054879,-0.13586297802345945,-0.29763153856964125,-0.2426289032066118
0.244,-0.26044694140007485,-0.006676290894301571,0.25382244503718093,0.13396434070074512,-0.2580050377859052,0.12197196979185405,0.6918534551160935,0.7998343710542529,0.21201928897511446,-0.1369363114197564,-0.29404997080404016,-0.24848049908366018
0.246,-0.2843692195328334,-0.025855687121278986,0.25843470548776304,0.15608050994106648,-0.2721584806004361,0.11443912244064876,0.734468263954292,0.7909751116935085,0.19428908370724518,-0.14657419423003365,-0.2976111372745459,-0.2543528676331281
0.248,-0.32211639255989316,-0.050979678850154454,0.271048959114193,0.18867898683446085,-0.2972446151703882,0.10750612451849577,0.7685450777501034,0.7546373960932824,0.16432886952482736,-0.1651017180186683,-0.3072250745944051,-0.2612866464474335
0.25,-0.36898993156914434,-0.07918644564105824,0.28966141764607745,0.22666912730395078,-0.3303503936132523,0.10270307312502086,0.7901447327679729,0.6868703791393368,0.12048994797680596,-0.18710065953405206,-0.31820509957180493,-0.2678841156565161
0.252,-0.4100996532598885,-0.10080350579901921,0.3088785213567777,0.25706732760673817,-0.36148815593663325,0.10216910588742985,0.8063290234348067,0.6047809905533617,0.0727211929037641,-0.20650535328288752,-0.32651983314505784,-0.2706401338572658
0.254,-0.42851609513788874,-0.10310375912778891,0.3246539010646068,0.2661133604890847,-0.3794934288952497,0.10934047912920095,0.8339249879281228,0.5445775140580535,0.04003861264008419,-0.21721154958219183,-0.32894332531952997,-0.2683426643308825
0.256,-0.41850717234154894,-0.08024362881427868,0.33741618955839525,0.24946443729523846,-0.38102150251784017,0.12705568442509946,0.8837182627339354,0.5341159604483628,0.03771833378427715,-0.2133275240554992,-0.3228275118894111,-0.2625187836843602
0.258,-0.3937559814172053,-0.04439181687315673,0.3486605664688587,0.22002827685718726,-0.3735815209514374,0.1503041436820133,0.9475053264516367,0.5642735297367872,0.06139192803014153,-0.19555875415196908,-0.31028869523302416,-0.2564434722386257
0.26,-0.3787001506341832,-0.021026891539537032,0.35709624763310666,0.20168212906875946,-0.369091287291199,0.165843899330654,1.0040781324415005,0.596430906318135,0.08945665085753966,-0.1736389667598982,-0.29832117018150833,-0.25391221446545703
0.262,-0.38295676820899127,-0.022714465269612325,0.35978208902922154,0.20475911707082092,-0.3716198210841637,0.1659604260094398,1.036432746620878,0.6013290425599812,0.1057973738742098,-0.15603458345581256,-0.28975129921423365,-0.25440554047319813
0.264,-0.3886558358260983,-0.033104284728413313,0.35536412758843094,0.21217829964949012,-0.3723735072252516,0.1583646356489819,1.0393309258272772,0.5806347283058796,0.11356433577210658,-0.14055860993553165,-0.2787541697225277,-0.2512430575334491
0.266,-0.3745738035867102,-0.029378262502504224,0.34539254378146333,0.2026377518684749,-0.3613164054692352,0.15537314912889294,1.0129732276822094,0.5481268615709661,0.12281346354826525,-0.12126073623359139,-0.26024044927146295,-0.23918262759558098
0.268,-0.34392708590571586,-0.012839719431123765,0.33156180783241557,0.17925529842704596,-0.33956155333778937,0.15699800283841875,0.9585515688565629,0.5053319451588814,0.13275963754763703,-0.10079520744720492,-0.23906775865861188,-0.22134848131107593
0.27,-0.3141059853703243,-0.0014322061912523804,0.31314105115319474,0.159729070924001,-0.31472431814321344,0.15369355185328684,0.8829253698382277,0.4455522139915202,0.13252996703624412,-0.08868187189591967,-0.22490613335461826,-0.20489155280749236
0.272,-0.2918893444900583,-0.0016602829026211086,0.2904289045374289,0.14981092759139933,-0.29133563811225327,0.142511743798243,0.8005418445671285,0.3700079508076,0.11434443485175,-0.09041376525921477,-0.22141974741044962,-0.19353596322382025
0.274,-0.27228655625953035,-0.0039763566257437636,0.268233289964035,0.14140096878332742,-0.27052311116589894,0.1307601096721169,0.7247983301186328,0.2886164042283573,0.08103447987824686,-0.10335593496576828,-0.22344553080161303,-0.1863161185843545
0.276,-0.24935244463481238,0.0024982151081546534,0.25173221321232747,0.12600518110476738,-0.2516908144747918,0.12605625195357809,0.6563588113214586,0.20994757474490305,0.04236692536226121,-0.11982907770717688,-0.22189043478055998,-0.17855308830928607
0.278,-0.22085865622725998,0.018761128964303802,0.23971828413269589,0.10264244781829182,-0.23211737444616637,0.12798781171653062,0.5801818122744168,0.135754231544929,0.0051570119759390305,-0.1325697705327064,-0.2113534667169318,-0.16464523532840056
0.28,-0.19091913192697113,0.03256585992288373,0.22389206350342497,0.08040170167876028,-0.20921483490909326,0.1266397248409727,0.47905022169328015,0.06382786181272092,-0.03208166219342163,-0.14020271569570034,-0.1952908623297711,-0.14516103344574205
0.282,-0.16747039443220516,0.028260053372917038,0.19632975487576085,0.07139700356404004,-0.18308602734489912,0.11052916873604895,0.3553039193628938,-0.003784393953781136,-0.07171013272912408,-0.14640454046449225,-0.18208076497364442,-0.12886717882735343
0.284,-0.15235858876002867,0.006216394598871406,0.15914852000431895,0.07561116708866059,-0.15627960329116833,0.08086935037560028,0.2358397229011299,-0.056057776446869725,-0.10664353915510613,-0.1527288868612662,-0.1752371370727302,-0.12280744270780329
0.286,-0.1381749841829402,-0.013525944605638496,0.1249949122848969,0.07830470055895818,-0.1322358334148928,0.05412766797367762,0.15215096670717213,-0.07998451612853039,-0.12401880049155861,-0.15529725022922797,-0.16985625521572303,-0.12229110847864039
0.288,-0.11785712075748185,-0.012749244041705302,0.10507753955825751,0.06669939650409035,-0.11297103114181763,0.0450590792681749,0.11633122877663969,-0.07321783493449226,-0.11934569830357705,-0.14993749526723246,-0.15922563667098197,-0.11604789821034493
0.29,-0.09436873030355901,0.0031112252162668235,0.09707533248701156,0.045805318671284304,-0.09762693089476014,0.04943279394088703,0.11260972104425328,-0.04914857466683282,-0.10333821114172216,-0.13905878764470733,-0.14399046084703626,-0.10131268955445104
0.292,-0.07755724898192924,0.010233877207847717,0.08725727285163316,0.03337041380773843,-0.0837392200802269,0.048139442727524635,0.10973199036122881,-0.028757676289989455,-0.09330833382596132,-0.13095658717722733,-0.13270870035592858,-0.08745996971863718
0.294,-0.07062189521656052,-0.004196570202835849,0.06605218166837813,0.037651393424750906,-0.06917551633565719,0.03000296061545791,0.08774555598414331,-0.024261179077760497,-0.09657053608270866,-0.13020741403474886,-0.13064916773581825,-0.08222710757410143
0.296,-0.06388172760847746,-0.024907763982412973,0.0388674300572177,0.04555972812072547,-0.05270838797285667,0.005674698342028146,0.0537237745360613,-0.030313741445340804,-0.1036661916378599,-0.13125818066070508,-0.13179190855820505,-0.08108097475188593
0.298,-0.047814651713932184,-0.03002308754015692,0.017998057469361662,0.04042752936518537,-0.035051178486425805,-0.007404751081772632,0.027259609026281374,-0.03450006737531248,-0.10193189477365226,-0.12599560750671276,-0.12797010686087582,-0.07566868992768265
0.3,-0.02816961250057591,-0.021499050276761657,0.007195548946188275,0.02586275322255329,-0.019890051624896165,-0.008197149602291547,0.016226437857627812,-0.033866635958611196,-0.09274358906230713,-0.11501015531781879,-0.12118437803026216,-0.06707445497741353
0.302,-0.018071282413770397,-0.018933704552191174,-0.00037640882241642,0.018949186149987394,-0.010467879332508635,-0.010110525246266048,0.012847200949565514,-0.035394308628962236,-0.08808369827684538,-0.10619851835624151,-0.11898286210038378,-0.06287266423522775
0.304,-0.018973524954213415,-0.029721423625088783,-0.010890312223981907,0.024626131550273028,-0.005198557233468954,-0.020468918592394095,0.006682902506746439,-0.04279829601723162,-0.09299268807800533,-0.10473951286327743,-0.12201451940306211,-0.06475032579970054
0.306,-0.020855100672525526,-0.04284045720903907,-0.022837159207518547,0.03218239215829143,-7.792894464404563e-05,-0.03353277689786655,-0.006119269494373495,-0.050816134003448823,-0.10073589363835767,-0.10878415687464915,-0.12386465823432721,-0.06697336315225497
0.308,-0.01784744269417992,-0.04876380187669437,-0.03181432608820674,0.03375733157552214,0.005938992439298573,-0.04216200423584211,-0.022431993677149507,-0.053639813068417745,-0.10432212022963859,-0.1133738498371719,-0.12051171596540011,-0.0653117982980474
0.31,-0.013445789249047345,-0.04958197109525207,-0.036426217887112,0.03217438835296454,0.010672850821858296,-0.045777520464000895,-0.03529856305105921,-0.05239449265129927,-0.10405221875389793,-0.11534640160766876,-0.11444215919217199,-0.061069672406018585
0.312,-0.011673069606776124,-0.05010568576263901,-0.0381736452309024,0.03173018190052267,0.012819351230730035,-0.04671866021919039,-0.040009238571083454,-0.051565149828065454,-0.1032357735208495,-0.11466534684745518,-0.11043446654960598,-0.05713617672561663
0.314,-0.010438524042669955,-0.05088630811098789,-0.040164011899037795,0.03159144842632376,0.014552445120478614,-0.046891309443298404,-0.03913183143426682,-0.05323106296619474,-0.1031645448582462,-0.11327082636536417,-0.11016158025700586,-0.05476849717908203
0.316,-0.004469514023510703,-0.05018297880969651,-0.04570788573452232,0.02855303973213772,0.019665733722206438,-0.04804603928719611,-0.038736877302907806,-0.05716942654859402,-0.10314464055945213,-0.11296717027950873,-0.11107625251772534,-0.05330119343378391
0.318,0.00857871405625571,-0.046165416989671186,-0.05489280282881568,0.02077999312624471,0.029749556011828365,-0.050390962913744265,-0.04098230220891317,-0.062349011193224654,-0.10204982771067554,-0.11337591656678689,-0.10979602986440999,-0.050702890604609765
0.32,0.02363090386354686,-0.0395023675533774,-0.06320761242112105,0.010770467417021706,0.04111382435446788,-0.05210630021920041,-0.04459490587300325,-0.06719116733722395,-0.10028277753060673,-0.1126462413352436,-0.10648948042627267,-0.04652330636784379
0.322,0.028931377513977397,-0.03693577508099817,-0.0658220915250408,0.0070947188331552695,0.04570240925213129,-0.053157087828275155,-0.05046341371993823,-0.07129482021344606,-0.10069585403905992,-0.11057196334682494,-0.10525557421852187,-0.04403891443508599
0.324,0.019148180665180026,-0.044937263750278296,-0.06402351190452878,0.015424307713606273,0.04050712595293407,-0.05661441507083818,-0.06086930235242642,-0.07560549055735481,-0.10505682571783047,-0.10899783602198095,-0.10852534945048971,-0.04589081810238174
0.326,0.008844759155081537,-0.05605926995545726,-0.0648990205056943,0.025183122377213794,0.03556316588252664,-0.062374614261374146,-0.0727141725193464,-0.07809546375185382,-0.10972861174308332,-0.10792939088156116,-0.1119555278008364,-0.04846337518505754
0.328,0.019733229979805332,-0.05234775125263869,-0.07211235995709539,0.01718701755891422,0.04394346296407725,-0.06360869811889426,-0.07712977425961746,-0.07306857045930819,-0.10832240294927047,-0.1040738568625749,-0.1084074844408385,-0.044743004857870465
0.33,0.05220263750538495,-0.027865820312319798,-0.0800861721641915,-0.011512485852673185,0.06395047727628982,-0.05483683525430745,-0.06916369970903581,-0.05938523538518887,-0.09939896153660217,-0.09621257960630908,-0.09733964909641041,-0.03315404995677506
0.332,0.08218882179497777,0.0014401986371310074,-0.08071802178233115,-0.04107013325718395,0.07959703362463207,-0.04037269405645001,-0.05490547605793549,-0.04573258172669238,-0.08891282635144689,-0.08899834674353034,-0.08686631291064402,-0.020611472158238876
0.334,0.08741898638935937,0.013223184264112007,-0.07405068318387599,-0.049155602535531744,0.07914932007083546,-0.031467148739180925,-0.046136938682093086,-0.04297463729128591,-0.08469943527113039,-0.08826681013583425,-0.08571948011810275,-0.01641026846818362
0.336,0.06787516170587535,-0.0017184146554791182,-0.06926429138785786,-0.031165154984699885,0.06701017237430339,-0.036827151544650355,-0.04928557037737059,-0.05315316668721399,-0.08984670040809675,-0.09535153120922892,-0.09524601313158043,-0.024289809014885904
0.338,0.04177243334248048,-0.03296305327758052,-0.07431952279969915,-0.0018393404719160558,0.056570442938540015,-0.05484800538724097,-0.061290161979778136,-0.06820092405782624,-0.10033430095152124,-0.10657279403888958,-0.10892692211755195,-0.039149345525922745
0.34,0.02645967820061162,-0.06013348527903479,-0.08634181331420675,0.019576673327597105,0.05510227855777569,-0.07411909419081229,-0.07507076771313012,-0.07889841938915372,-0.10926116417129021,-0.1156583411503778,-0.11833348677413046,-0.05113312984740565
0.342,0.02351231320968079,-0.07104067017723034,-0.09457703408356002,0.02632768798256469,0.057822574636873646,-0.08361152858904058,-0.08600980258157827,-0.08402584238746576,-0.11402206431285526,-0.11795580544117203,-0.11981195470416033,-0.053792792165359656
0.344,0.024046995378289096,-0.06843598649396868,-0.09262571650449618,0.024544170130727107,0.05707163298907876,-0.08153889709897696,-0.09214273094668803,-0.08866479163990144,-0.11650159278817311,-0.1136825862657055,-0.11555404859368279,-0.04791539175946829
0.346,0.02442888088963116,-0.06068489700401741,-0.08517641661992793,0.020222557580086984,0.05345898050961432,-0.07410962521851833,-0.0918869981207236,-0.09487608476207889,-0.11741730856195118,-0.10663744320959366,-0.10983592884565925,-0.039529505355909794
0.348,0.027428035230373623,-0.05348776255463761,-0.08087106325717378,0.014726886519753136,0.052846190518166754,-0.06845173710707145,-0.0850915053904552,-0.09897569390355598,-0.11555370984989172,-0.10098711419070584,-0.10594365720844404,-0.03498829959353396
0.35,0.03160164047362387,-0.049399096481242306,-0.08092336040088208,0.010347573751996079,0.055370902005143684,-0.06671776886638428,-0.07501705547049373,-0.09765088579237678,-0.11107325923648705,-0.0993795831855544,-0.10476694051729149,-0.03526159091054566
0.352,0.031049134677644235,-0.048283236944881305,-0.07919860198570032,0.01023043724783482,0.05476031646998959,-0.06570442811269502,-0.06710174805332397,-0.09188160223738367,-0.10542396086944521,-0.10153791123390464,-0.10482307765861994,-0.03588285744208056
0.354,0.026663063135409962,-0.04616753271946252,-0.07253210720766998,0.01164179890763906,0.049091992981462024,-0.06139110339548719,-0.06483044591917748,-0.08404491143825718,-0.09892934633172035,-0.10334325894325254,-0.10401123922833218,-0.032926986729844905
0.356,0.02920892991830872,-0.03739164815430034,-0.06619312839431697,0.006093092047850564,0.04642071411496553,-0.05350563753456804,-0.06694159805227845,-0.07566881244569522,-0.09169131508290292,-0.10011769528099469,-0.10109572089267621,-0.02672223932607476
0.358,0.04513024316960011,-0.02337553934984461,-0.06824171176434864,-0.008727973747873588,0.055147756149175935,-0.04734833362872117,-0.06987710671283189,-0.06994028611990408,-0.08654595171076798,-0.09270768947207664,-0.09648949757057948,-0.0209251052175839
0.36,0.06346598883759269,-0.01649449236756027,-0.07997381636974847,-0.02103899316139833,0.07094605657504154,-0.05012972991335604,-0.07246735095397587,-0.07189446792871576,-0.08725133100028358,-0.08712224243167534,-0.09259212381273553,-0.019148003140447855
0.362,0.0665931388360987,-0.026558492046820197,-0.09329618905846676,-0.017417819913249193,0.080018224104961,-0.06223370388590278,-0.07643077391384426,-0.083111801382433,-0.09378089100034014,-0.08743433261037634,-0.09189500564549363,-0.021660981760272893
0.364,0.05397312123045546,-0.04531624898066234,-0.09938066638189327,-0.002083616215040325,0.0767162177121693,-0.07439809699995434,-0.08241714888858113,-0.09835051248835457,-0.10243973634545046,-0.09179420410034986,-0.09375828002953356,-0.025513020729588522
0.366,0.045152240338872614,-0.053039956351739,-0.09825905164510744,0.00534042720631809,0.07093797981646507,-0.07683722593151054,-0.0872383768297869,-0.10922398328884207,-0.109215121797566,-0.09485437855209852,-0.0941495489198946,-0.02683697728094561
0.368,0.05645904787265816,-0.04005521435033409,-0.0966303801117513,-0.007487517449298325,0.07491470206623986,-0.06892778908415455,-0.08633846319660615,-0.11125601613237175,-0.11181960599331689,-0.09329451994667508,-0.08998040543474405,-0.023321336233335238
0.37,0.08159453182450403,-0.01679497338852302,-0.09834846777651533,-0.031407890383737785,0.08805819690356154,-0.05841493885291274,-0.07903802972212798,-0.10665160392950675,-0.11052485928558424,-0.0893769801667536,-0.08306364567914831,-0.016882753617680903
0.372,0.0987553458030973,-0.0026848737313702976,-0.1009749179237931,-0.04601920428379309,0.09833472266199199,-0.05337922445106473,-0.07023325980175986,-0.10044365643618769,-0.10721282860727241,-0.08784686835221374,-0.07805073181267255,-0.012647901818818558
0.374,0.09472562003830207,-0.007634615307382357,-0.10167303088525007,-0.04106257901338477,0.09703434412370342,-0.056562329213417396,-0.06631524044667439,-0.09669393892989347,-0.10413482475321069,-0.09024785210970027,-0.07755579063575842,-0.013612419562658525
0.376,0.07790035689457478,-0.025290642669831626,-0.10280736543191434,-0.024745226667409883,0.08889010970235736,-0.06585762143791374,-0.07000847940646943,-0.09836917233252805,-0.10427215364314733,-0.09444347292356697,-0.08084244602361412,-0.0182504983258788
0.378,0.06539224267427783,-0.04198556062173487,-0.10747319033186288,-0.011578805158833912,0.08435678205546626,-0.07631613147247458,-0.0792506330653789,-0.1064369926807072,-0.10947986414275925,-0.09790900626147583,-0.08532259675543842,-0.02333455404570244
0.38,0.06262951714194243,-0.049506192932498416,-0.11238905570993249,-0.006838469244726855,0.08533720829535117,-0.08209229307746121,-0.08982565483743152,-0.11786820183142598,-0.11717408169810425,-0.09971746021502835,-0.08781170210319383,-0.026484909029999174
0.382,0.06359629820702938,-0.049491000440918885,-0.11316696568911767,-0.006439214740601873,0.08671283092412636,-0.08163505422394397,-0.09838350913664357,-0.12707374331596694,-0.12232349916129469,-0.10025116316865001,-0.0857655303142081,-0.026165264286501278
0.384,0.06750075392572516,-0.04660754037368471,-0.1140118310824207,-0.008649706645338923,0.08943394085928656,-0.0799190578656163,-0.10358251420418338,-0.12976538298369655,-0.12263432621966647,-0.09925725758564924,-0.07851684770331915,-0.021806576741490277
0.386,0.08129036905903746,-0.0407516068614117,-0.12195230167407599,-0.017795329975672042,0.1001229255818871,-0.08116364975402927,-0.10577475916398757,-0.12545548135720835,-0.11955329760743927,-0.09537646195619078,-0.06794417391738175,-0.014797640404748576
0.388,0.10359405827848357,-0.030005438034637726,-0.13360877005736357,-0.03429055387981741,0.11704268277727149,-0.0827019528609372,-0.10686187771234294,-0.11800248243271602,-0.11532336921286168,-0.08903245045850817,-0.05819378107078745,-0.007990089890613549
0.39,0.12149738362741225,-0.017400533175136224,-0.13892917231194324,-0.0500514521648429,0.12915054282796393,-0.08015487843415686,-0.10936600306657908,-0.11346564071492155,-0.11115754214404824,-0.083505130692602,-0.05304664142040289,-0.0036648849307802257
0.392,0.12791671569794957,-0.009203473010109754,-0.13700923053641378,-0.05817565510873933,0.13193459304392863,-0.07527779568312724,-0.1137728841374905,-0.11516067577839625,-0.10814036495938995,-0.08166942175012286,-0.0527642351046031,-0.002379584095670712
0.394,0.1274233517864172,-0.009561463591714517,-0.13666005573886147,-0.05851683045761928,0.13166667760069045,-0.07448638245148317,-0.117556802102043,-0.12052441595322319,-0.10738760091832092,-0.08354168119681502,-0.054715338610533584,-0.002766958442944547
0.396,0.1234139207852858,-0.018214371493915634,-0.14133863128752525,-0.05255746276974325,0.13193802408304656,-0.08038660957918117,-0.1179745812526303,-0.12428283759523118,-0.10851987486951716,-0.0869068457986021,-0.056327798265972846,-0.0022003953005936268
0.398,0.11585823931289302,-0.029024415087709282,-0.14506472821369548,-0.04316498756854677,0.12986349724897137,-0.08791020227539369,-0.11515048466823816,-0.12471548905822614,-0.11071533205535286,-0.08922035578592419,-0.05615036101725003,0.0004730244069802151
0.4,0.1114838219737085,-0.032266446598456344,-0.14440612491516558,-0.03868129932770953,0.1272566038180433,-0.09011424866560408,-0.1124127475069062,-0.12548646632251173,-0.11473539982851655,-0.0897461080273564,-0.053487003443215414,0.0034086196199322213
0.402,0.11982329593661291,-0.024151521798469633,-0.14447637451149803,-0.046251395745012865,0.13172287585486306,-0.08650385365840367,-0.1145595045487344,-0.13163613593908108,-0.12077532266884727,-0.0897406727793882,-0.048586287778198956,0.004741948811804296
0.404,0.1368420517839622,-0.013584349873572937,-0.15029302177000767,-0.0599410207941946,0.14342224248519045,-0.08389765981863678,-0.12458652236352102,-0.144543081976606,-0.12648740215965726,-0.0902029495905096,-0.042834429859347725,0.00514971591854945
0.406,0.14503313619398467,-0.014821416866208649,-0.15939876267207387,-0.06400786075780632,0.1516917937393007,-0.08898617544376965,-0.14052222493417632,-0.1603397282510162,-0.1302760738732133,-0.09117413935387142,-0.038535060378012784,0.005425512061177773
0.408,0.1341201026808649,-0.03252294610261737,-0.16655646005884758,-0.050629064203304,0.14901249490793775,-0.10156477668387297,-0.156556456558941,-0.17308974635186877,-0.1341972827502836,-0.09373066680812124,-0.038827423853534535,0.003873606221361684
0.41,0.11339821316871068,-0.056059158906110816,-0.1700451195684733,-0.029195072466630254,0.1400975917932315,-0.11489478111796937,-0.16724222458616275,-0.17883714025474556,-0.14058137181232427,-0.09954784485678009,-0.045566021988671,-0.0008435678381414684
0.412,0.10027972468582311,-0.06925495656213343,-0.17048129917890753,-0.016105405145928637,0.13402457273533008,-0.12128548178968121,-0.16974571356903417,-0.17671151689689465,-0.1469117902603346,-0.10653634133281098,-0.05457386009794425,-0.005110630508861848
0.414,0.103125112529188,-0.06537045474320566,-0.1692226612010977,-0.018833822216551162,0.13487784280834578,-0.11851476186688267,-0.1646751213154261,-0.16882506632642888,-0.14721274518497965,-0.10864220516530534,-0.05642595296252278,-0.0020779094354857162
0.416,0.11858541961545571,-0.050895357601542256,-0.1697263060170686,-0.03267725707995896,0.1426382807799749,-0.11150541783444244,-0.1569143488049121,-0.1598272864556122,-0.13944665034033352,-0.10279218729871169,-0.046647897572600176,0.010439573043383497
0.418,0.14042431097771646,-0.03530832176147053,-0.1756975367346403,-0.0503789244863252,0.156822274154532,-0.10667098220174333,-0.15403378907029852,-0.15469246607003193,-0.12933259001574418,-0.09256178779138916,-0.03166938381386258,0.0261377137305481
0.42,0.16456868114768067,-0.022590079092011543,-0.18706737912727853,-0.06865207361336134,0.17555357973393054,-0.10600579674934102,-0.16168244200046775,-0.1565051714635567,-0.1252296874131155,-0.0837831987509687,-0.020650487843712245,0.03660287208953787
0.422,0.18653173438108547,-0.013534212173146858,-0.19992508390643865,-0.08495679260967341,0.1937823893568706,-0.10783996231409243,-0.17927095628348982,-0.1659337210884149,-0.13024595302532194,-0.07996021449822821,-0.01589054511669957,0.039478494559155954
0.424,0.20016443582125862,-0.009797638203854712,-0.20979184759107886,-0.09459134285241749,0.20545706904407546,-0.11060123934133831,-0.19937642716600734,-0.18028439761455986,-0.14020211012328263,-0.08124440641899798,-0.013851336913736252,0.03845170969052354
0.426,0.20193784810992532,-0.012051577406495605,-0.21388635809986672,-0.0946389995724146,0.20758869138567226,-0.11327303366329165,-0.21204748235471388,-0.1929941912174543,-0.1481987744504455,-0.08468034381418835,-0.01072562451155616,0.038285456541754755
0.428,0.19424070849254796,-0.017274282934806682,-0.2114248530593638,-0.0877962953990998,0.20166288226388332,-0.11416408220096562,-0.2124891643808961,-0.19843585278352827,-0.15030800594174015,-0.08619884660691066,-0.0051190842471533545,0.041549721657772494
0.43,0.18361715910593993,-0.021422241600271053,-0.20478042248644324,-0.07983234903955956,0.19271360333703752,-0.11285678956220821,-0.20593500012259242,-0.1979993412442662,-0.1478415249020096,-0.0839645570962414,0.0021319720049281974,0.047291342910513616
0.432,0.17883383042251408,-0.02270437794705852,-0.20112893121938644,-0.07633206689356106,0.1887174544145127,-0.11221479107824783,-0.20278312210489646,-0.19755617907186074,-0.145045431091765,-0.07923198126162363,0.009656039127555797,0.052792011979832854
0.434,0.1880308910289331,-0.02022732017925517,-0.20797216223773168,-0.08204746365185292,0.1970239582648722,-0.11490824289988662,-0.20820811281619378,-0.20015097751417682,-0.14484016510654918,-0.07433115773760555,0.016698538305766602,0.05783770412114569
0.436,0.2107207979878123,-0.013087785078661393,-0.22381216774705404,-0.09743816108053041,0.21641757128036437,-0.1190394144259055,-0.21868194679954592,-0.2049222211950914,-0.1473605256023703,-0.07136256450038557,0.022560728052822575,0.06424251588160418
0.438,0.235653559563826,-0.0021739571587043676,-0.23797926422515817,-0.1160366764079209,0.23603609757542912,-0.12006517111298634,-0.22795178686150702,-0.2106332009903969,-0.15156511040390694,-0.07142781633111465,0.026823870204120238,0.07166094287576107
0.44,0.25215959338619254,0.009656514970671059,-0.24255923142002256,-0.13010898414415223,0.24650515690658495,-0.11639484186762812,-0.23309762432929607,-0.21693899143976997,-0.156090034454317,-0.07288083509054706,0.03142833441735407,0.07874313649469127
0.442,0.2600162671343531,0.0194063512192137,-0.2404363409489743,-0.13789156154698703,0.24902238992457243,-0.11109433510656123,-0.23496194902247347,-0.22352849816905215,-0.15906447790452924,-0.07227716192519983,0.040269383605279555,0.08635238815819374
0.444,0.26635695706699025,0.025879299456274447,-0.24008755728274395,-0.1434281644767331,0.2514540948902151,-0.1080969911146722,-0.23621852740324398,-0.2294251605413676,-0.15915005799874138,-0.0685050120376925,0.054369178691743736,0.09530708681016545
0.446,0.27594492007690696,0.030259190752641142,-0.24525585990568377,-0.15066126007057126,0.2582858456132755,-0.10816178744843462,-0.23989796863212365,-0.23308663236730381,-0.15687906013640243,-0.06359313698015108,0.0692287174928047,0.10429844782498887
0.448,0.2861836443316275,0.03413679547918645,-0.25182189370467095,-0.15887511386306127,0.2666281016560355,-0.109077477908545,-0.24801533645205334,-0.23327801400298834,-0.15404491356169445,-0.05950977051449847,0.0795632735647129,0.1122680967339598
0.45,0.2919881345215915,0.03688790405632914,-0.2551664144462119,-0.16412134348644883,0.2719342882559605,-0.10952586555040864,-0.2609939222277459,-0.23064000509560792,-0.15255915895159217,-0.05700902321147607,0.08470630136531522,0.1192139761894775
0.452,0.29211891874397194,0.03525942579433436,-0.25712880333793775,-0.16340469560709017,0.2740468491470917,-0.11178781537816992,-0.27694297735789075,-0.22890708667605447,-0.15420849267096715,-0.05692665142229879,0.08672528269292341,0.1246783227675832
0.454,0.2899733195556526,0.02743058045947265,-0.2629195195391014,-0.1579370423801727,0.2764358020782975,-0.11871944556372559,-0.2905486931430905,-0.23246380583432497,-0.15929110029595397,-0.05954505619477636,0.08620589509975927,0.12811146904648446
0.456,0.2921255084787929,0.018473367082680537,-0.27402625679512194,-0.15433313636306786,0.28282458938096133,-0.12835514773363083,-0.2967447469398812,-0.24159310136265355,-0.16547991039314244,-0.06275659248158182,0.08330745461244689,0.13004627393240303
0.458,0.3027671893154118,0.01692888338125547,-0.2860438607842733,-0.15906896696579648,0.29349788094257484,-0.134675925990987,-0.29743832824545147,-0.2525426603835612,-0.17014113037273312,-0.06302275273093831,0.08117238655911713,0.13231986110384425
0.46,0.3167411624394284,0.024191420482744634,-0.2925262674102093,-0.17001021254177426,0.3032577602565173,-0.13439070280773147,-0.3002152145718372,-0.2621211590830121,-0.17321304977725382,-0.05871478420191263,0.08446402565894857,0.1369834306218834
0.462,0.3245968771069328,0.03287549448751565,-0.2916257036814635,-0.178523618880106,0.30676914171511643,-0.13049313470775023,-0.30893157512314606,-0.2692736497283106,-0.17617798049793226,-0.05186868937735006,0.09357395834004682,0.14407008862710982
0.464,0.32628463316456335,0.03706175007062589,-0.28930324022748943,-0.18138757538454633,0.3067974990900296,-0.12837953387202253,-0.3190458192157152,-0.2729912648523063,-0.1783749649703059,-0.04569304890802664,0.10388221126126312,0.15182046216659492
0.466,0.3318873195180574,0.039116662894828506,-0.2931566412743206,-0.18495411223662245,0.3117445150866063,-0.12971738004045763,-0.3241118300888489,-0.272604319633378,-0.17685494480625794,-0.04069008114004749,0.11212883845405644,0.15972121962817837
0.468,0.34526400019745945,0.043982983419794515,-0.3019020739917115,-0.19405832236504933,0.3227094783370129,-0.13114248155182406,-0.32471191314739806,-0.2705123736846769,-0.17144148001153728,-0.0355526988337682,0.11904978715575078,0.16863181321152249
0.47,0.35676384277698026,0.051218346230569374,-0.3062617595515925,-0.20354681904431174,0.3304009989458552,-0.12910209226598415,-0.32663063984995505,-0.27067404811481854,-0.16627668625663586,-0.030837208649406464,0.12543062237164881,0.17833914429242603
0.472,0.3594152770415007,0.05754519011632771,-0.30257087203666055,-0.20779623757518115,0.3296659892383522,-0.12421779030234323,-0.3312813026321682,-0.27359506828296265,-0.16390631457525048,-0.028005553151422197,0.13063104175740872,0.1878597058404509
0.474,0.36021976692399177,0.0631489090827159,-0.297590868255545,-0.2105254502900918,0.3273321210587485,-0.11946660649984857,-0.33498445718612296,-0.2766894083610019,-0.16239898771881614,-0.02644448908682774,0.1345957534288834,0.19625276117959128
0.476,0.36594711819722076,0.0691745427943336,-0.2969461747478645,-0.21624605737761887,0.32964103729697425,-0.11630639052127323,-0.3372273088299798,-0.27915892642183776,-0.16049499699023412,-0.02504044143518727,0.1378594177290767,0.20172004085686207
0.478,0.3716909537175957,0.07354345464530535,-0.29803220437779604,-0.22145020576614607,0.3330637178139659,-0.11431040642882491,-0.3421382311042924,-0.2821888605478116,-0.16067149408889128,-0.024768933606042556,0.14054463514630092,0.20325664188312917
0.48,0.3719185275621858,0.07525663734024389,-0.2965103029503745,-0.22233216548117007,0.3325766847118705,-0.1121529856945051,-0.3513228545857093,-0.28517779383567526,-0.16462622168989613,-0.026207406576177657,0.14290256248370362,0.20327586888031526
0.482,0.3696896483682613,0.07797673157988426,-0.29169299187749664,-0.2219526616551114,0.3291389647366128,-0.10804194264089736,-0.3600465956219935,-0.28548610832773735,-0.16885325628827988,-0.02584288293700762,0.14612242561659888,0.20560800228154497
0.484,0.37081603659099294,0.084896486536961,-0.2860114946327442,-0.22510909222054987,0.3271337711323143,-0.10197687904895442,-0.362374914890973,-0.28216462308931267,-0.1678940458239863,-0.01939943164042819,0.15166721027221164,0.21103918224260876
0.486,0.3769232984975317,0.09347836586901752,-0.2836208351099697,-0.23203549181148658,0.3296305954998231,-0.09729478347511297,-0.3584115158351082,-0.2775944901645042,-0.16179622957296683,-0.008819847501768468,0.15936124536143384,0.21654076553964213
0.488,0.3818120874089664,0.09709248393959949,-0.2850306349444,-0.23680699065530667,0.33315907616546,-0.09688777728595799,-0.3536563543957184,-0.27415052926771843,-0.15703994676797467,-0.0011854215584183212,0.16637222545503166,0.2187953477930629
0.49,0.373359141564239,0.09053993297285043,-0.2832317399830009,-0.23046216434470704,0.3276630974383282,-0.09924551966680421,-0.3523154848011705,-0.27172988135736487,-0.1589219443709132,-0.0006775591638856898,0.1688050594103723,0.21684028240993283
0.492,0.34777901304459496,0.0752208062308292,-0.2729386985590808,-0.21089288033572884,0.30920999689854045,-0.10102531391972139,-0.35415264897851395,-0.2699015201002845,-0.16551019658728117,-0.005004498112869422,0.16523130871188174,0.2115239211164015
0.494,0.32070791423648526,0.06152112089671189,-0.25948100492039794,-0.19053976745592863,0.2889743623573407,-0.10000993384755306,-0.35537173117770077,-0.2679518894629539,-0.1692397530363347,-0.008135798704492363,0.1589530214582904,0.20499984563486892
0.496,0.31303272754720596,0.06383401384374762,-0.24935455430631723,-0.18734116584895238,0.28037210835468207,-0.09282637210473905,-0.35036178484443303,-0.26185428510391656,-0.16318815782832105,-0.004578805675603583,0.15594590652194093,0.20104966143483133
0.498,0.3249634654102498,0.0852966143195474,-0.23952883912970832,-0.20357119620587555,0.2815476121442211,-0.0771535427477542,-0.33736458547170495,-0.24803212587215773,-0.14786801264641727,0.005927800871830073,0.15927997885412415,0.20235781644989498
0.5,0.3337404242865314,0.10842627540894291,-0.22490496055849046,-0.2192439836691623,0.2786725221814836,-0.05925727778169935,-0.32376502346919733,-0.23165602187362677,-0.13292360185535412,0.016700491487489852,0.16513808954673248,0.20576140193843734
0.502,0.32012630858858016,0.11266883704801632,-0.2071107827379819,-0.21420257794758513,0.2629038684574718,-0.049110243467421946,-0.31877793307903696,-0.2234644570732704,-0.1285746836507563,0.020621729893272794,0.16650100809259089,0.20423782296246884
0.504,0.28895189608655175,0.09878255410549984,-0.19013695709372244,-0.1912422378172465,0.23829494495294395,-0.04723530507824351,-0.3204850317696203,-0.22566926808840101,-0.1342093072816709,0.01839095212919267,0.16140899599072991,0.19570768987666953
0.506,0.2597591145984776,0.0838151801699737,-0.17610865210179225,-0.16898956035568827,0.21599827805209837,-0.046725620867039554,-0.3185724821474591,-0.22854654433893662,-0.1395283537708504,0.01617631099135476,0.15374200615861394,0.18508483936103579
0.508,0.24529212185360427,0.07885069277970216,-0.16654525450857732,-0.1594439391396223,0.20413899663747057,-0.04438412375712405,-0.3089792269865855,-0.22345609724609833,-0.13700629248326687,0.01693150873527236,0.14656167371091694,0.17692656233830886
0.51,0.2435497123806377,0.08258589689876082,-0.1609051857338099,-0.16072307667944077,0.20155332645188564,-0.040932428805485935,-0.29663604029936375,-0.21162171096510943,-0.1283230423501537,0.018875309926118022,0.14007363066806253,0.17164747006859832
0.512,0.2449271779796801,0.08936688363954778,-0.155355051384167,-0.165199487414823,0.20026395537487965,-0.0358913723144949,-0.28528427664334766,-0.19871581409032937,-0.11921509839654872,0.01971104130086942,0.13423373729840152,0.16781701217100875
0.514,0.2405908258672933,0.09408445913783584,-0.14614133459905385,-0.16614563920140027,0.1931195916768109,-0.028699591792651843,-0.2735399761635874,-0.18824179593335216,-0.11368441446900215,0.017728300904681166,0.12825524780481723,0.16310164898602852
0.516,0.2240865053800205,0.09123503986375495,-0.13230829360734572,-0.15735359992715814,0.1772019931966788,-0.021911263487743703,-0.26120321783034456,-0.1814697569052758,-0.11398040156087347,0.011324659293370225,0.11934582506683562,0.15479032057405415
0.518,0.19242582106501377,0.0754728905796745,-0.11626281336162674,-0.1339131571608944,0.15321227230332532,-0.020635947879970282,-0.2530627459412723,-0.17841700243667707,-0.12091547386341052,0.001159438106687733,0.1051418794055167,0.1422000814388068
0.52,0.1509916660316112,0.046912441793952396,-0.1033705322650511,-0.09841852372255992,0.12610679561633284,-0.028450088073680244,-0.25366320750111654,-0.17750348913209757,-0.13161359000074724,-0.009381180209342204,0.08657078596230974,0.126911323088774
0.522,0.1145179879377394,0.017411853506256885,-0.09666698520371521,-0.06502757288855802,0.10403003346685945,-0.04093057997033471,-0.2596029664133098,-0.1761359208388376,-0.13997671121991942,-0.01728974072329354,0.06826957213116444,0.11137334977290429
0.524,0.09918130542415865,0.008463266503790961,-0.09074319194031222,-0.05313979119818543,0.09288887948571294,-0.04371474984937861,-0.25903760424967087,-0.1708771391128168,-0.14038296506364512,-0.020249112070228222,0.057526798192582926,0.10017948297834484
0.526,0.11031546239996057,0.033211751285591375,-0.07733101083579406,-0.0714254207844861,0.09200320126121227,-0.02510210929607686,-0.24153952168119516,-0.15772283063827156,-0.13032216737705,-0.01573541588062717,0.05961633727353355,0.09891269423104511
0.528,0.1362522001574336,0.07855642275801648,-0.05768688779097861,-0.10696078448351469,0.09566721313558872,0.007806378551398125,-0.20963098178109393,-0.13617008459723765,-0.1123702645788172,-0.00500711330975623,0.07039329067512277,0.1065335421616203
0.53,0.1563285701631952,0.11445320561795484,-0.041608044413198125,-0.13464601342285804,0.09767719585218122,0.03428681037566123,-0.1773779671873755,-0.11247073581087651,-0.09417385018797099,0.004843972842066026,0.07711264696600945,0.11287942271492478
0.532,0.1552629273656789,0.1215489743679724,-0.03351734951224253,-0.137391367399544,0.0930293351299607,0.04181193406134978,-0.15635129623116337,-0.09550300050910383,-0.08308761216717842,0.006832486516152398,0.07029469056104572,0.1081000626997013
0.534,0.13153423421406119,0.1041910086639675,-0.027381417948545105,-0.11655831482350183,0.07844680531504161,0.03580784514957794,-0.1463637936789085,-0.089476898398862,-0.08023233178153989,0.0002851465236410227,0.052199398921021795,0.09205235088233012
0.536,0.09815248631990574,0.08169347306728601,-0.016588374869704006,-0.08846210869136281,0.05643635180728262,0.02998207545571902,-0.13946367270099364,-0.0905218145672282,-0.0806758372833271,-0.00927778665330164,0.032667777831579245,0.0732921522418684
0.538,0.07386288398829596,0.07099686071792496,-0.0029099500532291725,-0.07113468790193381,0.03670444164405399,0.032178424719871715,-0.1297047411955566,-0.0903161583697758,-0.07912712822905273,-0.015382384987483523,0.019448085143261646,0.06050970539772261
0.54,0.06573904997642804,0.07244538459555241,0.0067554310571464014,-0.06824680552413248,0.02713002735793318,0.03847436414342916,-0.11921978265063642,-0.08531541895745481,-0.07555774207683111,-0.016896266898487933,0.012725657010113097,0.05468531705589953
0.542,0.0633507311059808,0.07275831532985318,0.009477158222541226,-0.06773385454987413,0.02493072579136317,0.040053088544656903,-0.1140988085070298,-0.08092233040394861,-0.0744613208202037,-0.018788091997676743,0.007001955862483966,0.049623752752293
0.544,0.056056997753487325,0.06425604067631065,0.008326460262753547,-0.0599820676019306,0.02260011022653234,0.034821646923266635,-0.11461210225517836,-0.08317475337987688,-0.07848087761321954,-0.025483522054348052,-0.002317738180170781,0.0405830780338964
0.546,0.04546711909090306,0.052264332489585105,0.007096797268942304,-0.048093972268859565,0.017839755702830723,0.028189915648063498,-0.11475744882272108,-0.08985915539451131,-0.08559824070943796,-0.03573725066661391,-0.014514417277923929,0.029793503343926827
0.548,0.032342533648382354,0.04003341973151863,0.0081023123995358,-0.03457662338198557,0.010189660392162646,0.02328430649094757,-0.11108647950198268,-0.09420521224561404,-0.09249188235450354,-0.045633919263119625,-0.025870416347495446,0.021687719125336378
0.55,0.00843082710619349,0.021547485040736898,0.013382042630168234,-0.013387737088099969,-0.004226525000471565,0.017517699623305235,-0.10501547042524932,-0.09349955261809872,-0.096949631657416,-0.05358540211930382,-0.034694403630197906,0.01605663047607192
0.552,-0.024655894140751044,-0.002174714219515955,0.02244436855650501,0.013969674009913,-0.024367578300102798,0.010349991127572003,-0.09728442974821541,-0.09008665005484089,-0.0979065401644571,-0.06028645790840997,-0.04274023655350039,0.00925765384877084
0.554,-0.045076764093264575,-0.01410604213291763,0.030693397510573383,0.029215555953808127,-0.03828703221090898,0.007905639529182388,-0.08649348189011585,-0.08639790527787336,-0.09576752604131965,-0.0655468211030011,-0.05179325841066517,0.0007426314425857968
0.556,-0.035478079154638804,9.781988147052772e-05,0.03520120814795648,0.01750245767601531,-0.03628327745442466,0.016643787302866024,-0.07234895680860623,-0.08125988576775285,-0.09080229144251067,-0.066730412299654,-0.05933073458952729,-0.004594345086001424
0.558,-0.006314160100784183,0.03360287479985664,0.03966912724953461,-0.012915301265638748,-0.024495656499281735,0.035652551228687504,-0.05608020832632016,-0.07124857258072494,-0.08160426153241727,-0.060948407093567775,-0.05986778695312042,-0.0015685452874990937
0.56,0.018575620080533387,0.06694793436341723,0.04850257032821545,-0.04153387385380526,-0.0163784939937232,0.05695907786053169,-0.03848962066775799,-0.05644855591996955,-0.0684860535100914,-0.049332540491424,-0.052468326730365965,0.008510424653579669
0.562,0.028422449779090236,0.08710484862578649,0.05913527424586764,-0.05690429596817196,-0.0165584918160703,0.0718719016624746,-0.021129834152084033,-0.04383670943649927,-0.05668302214366902,-0.038310128468456106,-0.044325252955652275,0.01737436825697918
0.564,0.025194834667804953,0.09098996318614215,0.06616695410393608,-0.05787986934580387,-0.02187017956989403,0.07646196483800911,-0.008554032742347808,-0.042374904263703245,-0.05304732845343527,-0.0353583525890332,-0.044076184995578895,0.01686226377617363
0.566,0.010219637196095407,0.07869278490532874,0.06847214774698245,-0.044527883708200405,-0.0305652029183563,0.071560157124202,-0.005157143117422994,-0.05438946847768437,-0.06025825975637716,-0.043191710571635955,-0.05331519080650154,0.006286717608697635
0.568,-0.01189589496350717,0.0545040046800305,0.06608481346150243,-0.021301128818586923,-0.0397573078677857,0.059614717816230296,-0.010131387040696854,-0.07308694263913793,-0.07496049436720194,-0.057992333173583155,-0.06659643453269927,-0.007768803573252229
0.57,-0.02643008521847564,0.03175067192009028,0.057746653402126945,-0.0025323491321974454,-0.04184885417554904,0.04529495047063869,-0.017977991405512626,-0.08782993654362484,-0.0901922172182833,-0.07236074100107805,-0.07744441764126113,-0.017983358386619897
0.572,-0.023937485513354548,0.023455841631511036,0.04701642510345356,0.000366280858415723,-0.03474513296022916,0.03577747960831501,-0.022707942474803833,-0.09098243213983997,-0.09970998175577397,-0.08027158300597698,-0.0830707816102391,-0.021558225606192992
0.574,-0.01652520791198937,0.024613786200903508,0.0409413005370924,-0.0040886270180094265,-0.02846319038993652,0.03239918429431551,-0.022543056211694484,-0.08329939229282399,-0.1031512613519285,-0.0821350188888677,-0.08629831411380111,-0.021368353547540967
0.576,-0.023443419415554265,0.016424895159705778,0.039754286663072166,0.0032819982479630845,-0.03258591674131176,0.02672942767144358,-0.022057628156801155,-0.07465676937799695,-0.10665102468952979,-0.08467127052902186,-0.09285150726649981,-0.023493941191895684
0.578,-0.04425388191524539,-0.006268817300595584,0.037635228566911726,0.025301368017782787,-0.04329291163732432,0.01387592358350209,-0.02551550662577211,-0.07461947600458813,-0.11405358560864141,-0.09158878313129888,-0.1033382114256965,-0.03067486415641028
0.58,-0.05877991613025857,-0.02447799132283603,0.03359010424829132,0.04268280580724182,-0.0492013179510461,0.0031208268549807417,-0.02836770035621046,-0.08074608844401568,-0.12013753556718923,-0.09681483058980785,-0.11000748531600736,-0.037540605857514946
0.582,-0.053530935267952266,-0.01929581185025123,0.03349707802984042,0.03862576331741107,-0.04634644233132994,0.006431614162152291,-0.02218779833703452,-0.08149547247151227,-0.11789383654702182,-0.09301787976386991,-0.10550938971871736,-0.03597916291758171
0.584,-0.03887747228362543,0.003267967923118735,0.04174538321177905,0.02031498524555428,-0.042615845414162155,0.02204663696091724,-0.007359283885900002,-0.0717739951906236,-0.1090867093949856,-0.08383454897411775,-0.0930055021853604,-0.025792783142010715
0.586,-0.03316887871137065,0.021882614046607404,0.05489730390617772,0.007612706692990979,-0.045821018858166314,0.03734168396039863,0.006225528512145467,-0.05946102137599473,-0.10229607825469465,-0.08055217328119291,-0.08369821028439818,-0.016083256263112265
0.588,-0.036738562317405625,0.02750603784085582,0.06405291266961986,0.006188733431594983,-0.05152148429420902,0.0440331691720366,0.011543802673648336,-0.05399068499567718,-0.1022833162419425,-0.08766983893418187,-0.08436520909341998,-0.01468986795023931
0.59,-0.036951689491012185,0.026914402446299453,0.06363713773982227,0.006647275933842266,-0.05054615023113809,0.04333749795655744,0.011636005304552697,-0.05497842393901199,-0.10590874471912531,-0.09843253854189844,-0.091146883169096,-0.020206797922072008
0.592,-0.0329399176707793,0.02417099005237786,0.057026635500205904,0.0057874122878992275,-0.04464540328990175,0.03902996681818088,0.013157360472368027,-0.056272553873815745,-0.10793325455033499,-0.10510662721108667,-0.09667803364638497,-0.026008620470172206
0.594,-0.03427015131717502,0.017421224941712204,0.05176988206243627,0.009010617849167006,-0.04292348687969911,0.03345250275667498,0.018130380676641838,-0.05553408640446903,-0.10649968633065056,-0.10695538172515132,-0.09843035268623801,-0.028204988607670366
0.596,-0.03880179524732618,0.011481766801735082,0.050374098300286704,0.013655076657987378,-0.045362617814809436,0.02955625093193751,0.024130076713124997,-0.05494569439977104,-0.10334424718670801,-0.10714326431893605,-0.09839635449427354,-0.028102736791808573
0.598,-0.0332637760603385,0.015155208488875103,0.04842247260572848,0.009318029248884762,-0.04237732481911561,0.02952754742086714,0.027920458603958705,-0.0559621630074336,-0.10168112085270767,-0.10784595146191293,-0.0992536717067442,-0.029318576614622067
0.6,-0.018300861273726533,0.024772425364017275,0.04304761488838458,-0.002454424257684597,-0.032542562317634076,0.030973494545739166,0.027126902971738125,-0.057754922548098525,-0.10358391622629493,-0.10965562354275984,-0.10235432257063977,-0.03373407119880525
0.602,-0.015773998762475143,0.02363284834455964,0.039513156412983814,-0.003248250114551438,-0.029547187095989795,0.028969271206939904,0.0217813752947354,-0.0597172019569814,-0.10900331122719846,-0.11256154417383465,-0.10717139716001414,-0.040192750490949725
0.604,-0.04190153176947946,0.001962047286462436,0.04420489244831881,0.02008777520496743,-0.04460224897191261,0.021777007484839475,0.014520561490541003,-0.06287767357412324,-0.11733801671526162,-0.11689574746630359,-0.11254390542842624,-0.046799367180294794
0.606,-0.08396985419070191,-0.029520691518063198,0.054892047894668033,0.056733995789937,-0.07034357277518505,0.01277213240026995,0.007765077457643493,-0.06849325764746851,-0.1278488181589037,-0.123457222232568,-0.1183953280477329,-0.05319621933536674
0.608,-0.11451096062334525,-0.051502164288397545,0.063266458962266,0.0837947701217497,-0.08959235963713685,0.00634814033948169,0.0024058616157922727,-0.07612623003073798,-0.13818304512805737,-0.13176488530876845,-0.1250622737032043,-0.06001996901766675
0.61,-0.12215769668930762,-0.05790128722401348,0.06422068886123687,0.0919476267610613,-0.09444380454581926,0.002650017963138407,-0.0007098193447348577,-0.08400636169551169,-0.1452664645945777,-0.13932056957269928,-0.13200574527328798,-0.06711530212858208
0.612,-0.1171535695195895,-0.05618728819241606,0.06079258803520568,0.08904454262605124,-0.09091061184127766,0.00045381395234003817,-6.951905180559788e-06,-0.08927136550829833,-0.14737390265439246,-0.1433059528416947,-0.1374731277276274,-0.07192569927349558
0.614,-0.10736695964375634,-0.046504954445468726,0.060648170787494945,0.07907462571704542,-0.08593582119556084,0.004826929837194838,0.006706344175820891,-0.0857448015477042,-0.14272793203544643,-0.14075842167563343,-0.13753575686905467,-0.06921043908278807
0.616,-0.08527612888059144,-0.018920595292279123,0.06594743871866478,0.0540936972090937,-0.0767108226290186,0.021757443027739812,0.020179891778138358,-0.0681030451973459,-0.13001556918504414,-0.12974510946568513,-0.12846650077878263,-0.05611668258112489
0.618,-0.04997749804579828,0.020052505548118278,0.06933711298633953,0.017039638826112653,-0.05991821454248058,0.04312694847053478,0.034627840647194846,-0.04388037562916317,-0.11500511835444657,-0.11567363232754956,-0.11408364941922838,-0.03932710430197673
0.62,-0.02358876572684971,0.04097065552401454,0.063881316999839,-0.006807752341099528,-0.04405793520442581,0.050333106308303184,0.03877155352665198,-0.03149511575566157,-0.10954839938657482,-0.1106432846282574,-0.10549612918610717,-0.031288920069423236
0.622,-0.02538090960252488,0.028357690967746773,0.053477724796322706,1.2202456471237087e-05,-0.04054821429282198,0.03846271483960537,0.02829321324824675,-0.038622361325533254,-0.11718276251145206,-0.11888585287187498,-0.10835989893004445,-0.03624499463200329
0.624,-0.044536804398728654,0.004806728485494915,0.04947823156605229,0.0213759900899399,-0.048684449686757704,0.025184967957887935,0.013683328129735477,-0.052024379617292886,-0.12656783723874554,-0.12909131994093878,-0.11532565849718511,-0.04477211036610608
0.626,-0.056637858330771826,0.0002702592832352737,0.057017572614869484,0.030057729353344456,-0.058277385494698415,0.027574251452175454,0.009419388686118038,-0.05490073258012495,-0.1256037010869472,-0.12864212182020976,-0.11560460764786842,-0.04531545838010558
0.628,-0.055218933614148404,0.012524471813059143,0.06757716510199138,0.023311747865513707,-0.06219604443143378,0.039357897175612784,0.018083364931880702,-0.04656638211552778,-0.11681690638657818,-0.12042012175607776,-0.1084718631348812,-0.038630191202551074
0.63,-0.05267051768903678,0.01716741867648575,0.06966288635496706,0.019276791395903357,-0.06171559491980297,0.04225790484142877,0.03028862607466051,-0.04010652067541226,-0.11269142219760458,-0.11811766173035199,-0.10333863100380075,-0.0361414881021795
0.632,-0.05794681621834518,0.00526622028211638,0.06344622120058353,0.02722696503452066,-0.06183379076083787,0.03230718066529711,0.03702698061013038,-0.04506995292423749,-0.11936404042773387,-0.12770884211814182,-0.10799327686486573,-0.04412491138524982
0.634,-0.0671310566340104,-0.0103962655500447,0.05738924220260923,0.039388828572626856,-0.06427376936656923,0.020963692581458696,0.03673162492502003,-0.057162821788304244,-0.13116231396216893,-0.1411068021781178,-0.11947759917425448,-0.055926379322628804
0.636,-0.07340124428339351,-0.018794837634123377,0.05534922168274577,0.04728469709754417,-0.06648844149777487,0.016155301573655464,0.03314410392143466,-0.06446283157975291,-0.13917167157240953,-0.14761989927427893,-0.12682842501530842,-0.06121323688003564
0.638,-0.07568364679077316,-0.021049756118386904,0.0552530003012172,0.050592224602818356,-0.06652541300829914,0.015775448442984584,0.03080227902273906,-0.06110458951943661,-0.14015686884118897,-0.14560472802712787,-0.12331115487813697,-0.05786442762174547
0.64,-0.07783103822875428,-0.02187486930223825,0.056418795373869506,0.0524764207719197,-0.06686500952833074,0.016379279871097777,0.03115312680843093,-0.0528473560982654,-0.13731721627452773,-0.1413606171874704,-0.11457413385426433,-0.053082173266717214
0.642,-0.08216899180715104,-0.021361827190428097,0.060986647375731284,0.05368996771798272,-0.07106224760455927,0.01907062002424062,0.03228268253632339,-0.04808766463914647,-0.13454029996389422,-0.13909156077805984,-0.11026049665535484,-0.053439252918828305
0.644,-0.08137129759939139,-0.01242209144468117,0.06875176241976538,0.04801525449388809,-0.07554033665500974,0.027625269791070377,0.034058519711678226,-0.046416746696502836,-0.13123085567216658,-0.13513961706744834,-0.10940044362957109,-0.05527359654589736
0.646,-0.06404104281679346,0.011783912531662588,0.07546420464914037,0.0272988425752011,-0.07116861758675659,0.04311075961978467,0.04035119890172336,-0.04129566690106479,-0.12418264450221683,-0.12465354968629573,-0.10272165165594492,-0.04972283631225979
0.648,-0.036787106443653884,0.04103718579602911,0.07755436855326281,-0.0003885371084147046,-0.05827036497225419,0.05835625078037031,0.05188475349627014,-0.03220108376623157,-0.11455883703265254,-0.11168705419549574,-0.08966156718719555,-0.03759216751996948
0.65,-0.026373035617631713,0.04910534347204317,0.07527525183404138,-0.009230659622023223,-0.050757075531966664,0.060542363958590445,0.06086667187735563,-0.026920670590367714,-0.10973155594796835,-0.10716401369382057,-0.08233687468780096,-0.031133718001893476
0.652,-0.045682508504475576,0.02462284672782957,0.07014296753021762,0.012872026374391436,-0.057110250583049485,0.045101346883322825,0.05908589852905005,-0.03092203403783086,-0.1150322895224231,-0.11619477772870404,-0.08916622308124617,-0.03827591525673803
0.654,-0.07229346649713866,-0.009527542612745096,0.06284702436527323,0.043403385130539374,-0.06700798453649748,0.024102899493777884,0.0489381898020816,-0.03978616451393256,-0.12593342140367825,-0.13120384888811926,-0.1037615157331696,-0.052621853132062656
0.656,-0.07597530991150787,-0.02090788642278363,0.055450394467021095,0.050929569350571385,-0.06596171954980505,0.014943905211020618,0.0405411690748728,-0.04485305329865108,-0.13261241187271153,-0.13918720939818977,-0.11409733891931513,-0.06210288943212078
0.658,-0.056470309631698516,-0.004612032510020389,0.052223147110144155,0.032732958143550046,-0.05534293746690124,0.022196471519774403,0.039167066966542485,-0.044011652954992424,-0.1316897731676465,-0.13538316281897617,-0.1163354212375502,-0.06232859247227047
0.66,-0.04113499326789744,0.01466869749787439,0.05585928738077417,0.014738820396353533,-0.04969995971344756,0.034545000922351604,0.040723582683082814,-0.043033513479283005,-0.13003840738441122,-0.12871406086313608,-0.11621234358192897,-0.05909081182728481
0.662,-0.05085378738423537,0.013870832744646181,0.06453925171410285,0.01907764212115509,-0.05866448564822713,0.03890737121484429,0.039704012150225766,-0.0466489020487094,-0.1356745657052011,-0.13098510783848574,-0.11965022693665998,-0.05956273135221529
0.664,-0.07868861867898484,-0.005426390659355704,0.07299311025607623,0.042151030305353616,-0.0769065887503854,0.03314029499529197,0.036374863614001496,-0.05300805649916534,-0.14723525857259104,-0.14191732786388678,-0.12534130168288074,-0.06351653545664282
0.666,-0.10171100877835466,-0.025503660657767508,0.07575689993768023,0.06417488220472294,-0.09062423944930914,0.023999560701591732,0.03397913146991182,-0.057171213345537576,-0.15552945966624465,-0.1505198080099474,-0.1280791414693813,-0.06523501136669363
0.668,-0.10654352723847249,-0.034027254093584904,0.07171233589988898,0.07176974302751496,-0.09186055450192891,0.0178223926105324,0.032961844714508234,-0.055918315631418976,-0.15455298323436306,-0.1502108786744947,-0.1269307883183371,-0.061955243940388746
0.67,-0.09992162550209348,-0.032875426924685244,0.06606149412893075,0.06811905916778878,-0.08570766725442665,0.016089007362955182,0.031272333626736586,-0.049382556539684506,-0.14771141456406814,-0.14597361286848498,-0.12604525401275243,-0.056952945229206714
0.672,-0.09571976679152154,-0.030157606043126724,0.06487758107486269,0.06410598456833999,-0.08225289410610837,0.017204299524598374,0.029153705074521977,-0.040607496404290476,-0.14225858455792179,-0.1455716324400993,-0.12785188196871758,-0.05489930271517292
0.674,-0.09545567773285699,-0.027576348781239844,0.06776854727742855,0.062478406778645745,-0.082902044876766,0.01989417015690309,0.030521847465436392,-0.03295319922231797,-0.14029509732644024,-0.14834950304229988,-0.1290425672936226,-0.056245865372101224
0.676,-0.0896279158809841,-0.020677389016189464,0.06918995682315604,0.056852472114701985,-0.08059683337081758,0.0236980570431221,0.03667936787225752,-0.02788811325253166,-0.1390134427493548,-0.1474491615293115,-0.12574970084160203,-0.05747539211990247
0.678,-0.079448616241458,-0.012934670221879548,0.06669366358434729,0.04863181877449795,-0.07442365032782569,0.02603879629517628,0.04066227376647048,-0.026686331489623332,-0.13841523483685209,-0.1419531465293504,-0.12125153094540128,-0.0568598856663589
0.68,-0.08045258609229086,-0.016800890617727767,0.06359587544988063,0.05083289093492962,-0.07334549440966508,0.022684367361092993,0.03448665400694322,-0.03134123083075312,-0.1421573179216833,-0.139055219071486,-0.12279840594521046,-0.05717431381499709
0.682,-0.09678616939233782,-0.03324483886258556,0.06329872319620165,0.066472800652412,-0.08113263541626164,0.014618922261238641,0.021789542323403206,-0.04006181682349141,-0.14929191094015484,-0.14211954797478357,-0.12995164242740967,-0.060601655462334675
0.684,-0.11058893440013741,-0.044416033535599246,0.06581038913777662,0.07859672605610075,-0.0891600568828951,0.010450346692574827,0.015285034351328317,-0.045779255113391405,-0.1521280243193932,-0.14509142103455092,-0.13325746040231076,-0.06386166972050239
0.686,-0.10576544591696935,-0.03617926424156277,0.06922894841993388,0.07194463802553565,-0.08841351589971323,0.016348022892432628,0.020587864786843352,-0.0440273627057834,-0.14626915664848886,-0.14262986438165315,-0.12698914420770815,-0.062404108456622955
0.688,-0.08665651571463709,-0.016109559718193642,0.07044055372057839,0.05196076646152119,-0.07932126663178905,0.026880536759761958,0.030276703115141017,-0.03836483912519303,-0.13754503751641842,-0.13754775863437876,-0.11673388229257008,-0.056969260381321996
0.69,-0.0674095381409825,-0.00019580038022680755,0.06740888879223178,0.034127533626142285,-0.06813536651010454,0.03273785303165571,0.03598916015443745,-0.033830851200186175,-0.13434119973476896,-0.13386940797318114,-0.11092931571993565,-0.05117323287276917
0.692,-0.05592003993799608,0.007506339443624874,0.06351213447407929,0.0251671824504124,-0.06070649029420983,0.03384319767799135,0.03865058847154886,-0.0299339046601756,-0.13698437387826537,-0.13065641013722748,-0.11062342005060327,-0.04605055969413659
0.694,-0.053031570816272515,0.01179535765605269,0.06438680216555895,0.02280150413022221,-0.05995328467471598,0.036105262100532935,0.04252022364121246,-0.024083336150215094,-0.13936324492098887,-0.12678357206012655,-0.11175936119692464,-0.04222341977601549
0.696,-0.05732460330546482,0.012640544747188655,0.06922401553034158,0.025221031871358875,-0.06433299224252974,0.03909642677962721,0.046027948947236365,-0.01669343551812999,-0.13759246550854254,-0.1244447217428648,-0.1125517981667687,-0.04277684508717017
0.698,-0.06656988002929687,0.005485695052469666,0.07163253732841672,0.033031016045837414,-0.06975900293069759,0.03666380849248717,0.04468235612436094,-0.010073105550807725,-0.13303299496288679,-0.12513174680976824,-0.11450280139053397,-0.04892212496757161
0.7,-0.07999961896203543,-0.010402352601659072,0.06970286791119455,0.04678585441985339,-0.07550532329023363,0.027344291045499455,0.03879070199816131,-0.007683563016166999,-0.13041529406403796,-0.12830995513005006,-0.11957130224701727,-0.05719353877200732
0.702,-0.09757545684352321,-0.029793704410464347,0.06806132996315743,0.06490945768186296,-0.08382817551986874,0.01662046881527545,0.03360548580818461,-0.013696160074749638,-0.13475806059426856,-0.13434393430307562,-0.12821709012945398,-0.06367029014685784
0.704,-0.11249008861375388,-0.04349991056583532,0.06905485958312273,0.07979459686962939,-0.09187330122429124,0.010570050632469678,0.03380651212789956,-0.026617550095212685,-0.1450067583463356,-0.14228340103541096,-0.13719555266070635,-0.06670182509998043
0.706,-0.1102200858014818,-0.04095318073372209,0.06905009114101182,0.07812567245930928,-0.09053123474504693,0.012413450146050798,0.03938037739302184,-0.03642663243817046,-0.1513386787084232,-0.14601356564248372,-0.13970195112124983,-0.06502272374923053
0.708,-0.08326149341485699,-0.017607022003409314,0.06535966365135253,0.05282497096157328,-0.07534589375071636,0.022713609390142574,0.046494363687278,-0.03380644898190625,-0.1446658303878449,-0.13944522826354358,-0.1317291747869924,-0.057548513342043965
0.71,-0.045426988391268124,0.015832904873972927,0.061175656503927756,0.016079741383602814,-0.05494293067735472,0.037605500238182085,0.05217390394421139,-0.019716321667347693,-0.1278028074495137,-0.12516933806087666,-0.11829311921482712,-0.046110823043492385
0.712,-0.022849629615558583,0.03790130792269408,0.060954985048718005,-0.00723597629740555,-0.044008346023317706,0.04877757122822229,0.05609614130464052,-0.004004480013508853,-0.11355669820675349,-0.11354068912112855,-0.11003403180557966,-0.03638023845490856
0.714,-0.02802383014404841,0.03640881634627241,0.06460472344383943,-0.003847133092028913,-0.048463768219381774,0.05006474396017265,0.05732887826569701,0.0035517667648114343,-0.1120292007617531,-0.11235441386618022,-0.11260059681513856,-0.03407938627970019
0.716,-0.05004457578501387,0.019499933033747516,0.06931567691750284,0.016301785278375752,-0.06181213382553838,0.0436563761197004,0.0530089027651598,0.0008259781389465064,-0.12121869892268973,-0.1195218611263909,-0.12174816263688386,-0.039853367000286605
0.718,-0.07087779481130643,0.0036602653894527142,0.07401049172477514,0.034996158962979765,-0.07475088028771824,0.037329742883233846,0.04270197341745311,-0.007098241469169938,-0.1312374617052373,-0.12772140541705243,-0.13009492939799766,-0.04929186528055371
0.72,-0.08075664963795955,-0.0024116715551826626,0.07795921317080456,0.0429857740445052,-0.08181488014298935,0.03610165990133908,0.03192112300531364,-0.014101391453146109,-0.13592542038184022,-0.13300451232669377,-0.13456988361879327,-0.05742070398632099
0.722,-0.07820958765563964,0.00016661923154751032,0.07825105669677689,0.04045616179497054,-0.08036257888864366,0.038449922941008144,0.027818797123334134,-0.016975478979230067,-0.13665124325598102,-0.13518901398548014,-0.1351035432517068,-0.06155547418220138
0.724,-0.06774579588372692,0.005789387529416209,0.0733039384670307,0.03211053618503931,-0.07166848421815865,0.03982538140275174,0.03166514095305189,-0.01620932274894001,-0.1368397983816194,-0.1346640316985224,-0.1319725250010191,-0.062008532878820875
0.726,-0.05958063905499459,0.007077845186442277,0.06613044216171104,0.026489510203479134,-0.06299569852752432,0.03685647308256201,0.03824680317354104,-0.0154763529678043,-0.13808509315481723,-0.13322977872193886,-0.12762638105025606,-0.06198888131279232
0.728,-0.06240092663051395,-0.0014496245044908406,0.060535096808480814,0.031482258914774776,-0.06162853195814853,0.028627753958087417,0.041470792637396545,-0.018005704104908822,-0.1410848946037566,-0.13430042040317083,-0.12663469188025064,-0.06487347651632776
0.73,-0.07356388634788875,-0.01729729143159011,0.05637871332781752,0.045494766084274496,-0.06613595401557502,0.017305111633750717,0.03841311214273399,-0.02330787020852878,-0.14627355354025426,-0.13965687847671873,-0.1315016465747043,-0.070942484386662
0.732,-0.08199030372315341,-0.031288017026265054,0.05112612347554626,0.058191150426534916,-0.0685206853592814,0.007294046965237999,0.030709672393596,-0.029194317989156685,-0.1531015860486459,-0.1475894472192652,-0.14021606741881076,-0.07802907778979909
0.734,-0.08268366842610701,-0.03773175229500292,0.04517757728805616,0.06280592571382652,-0.0658315488026446,0.0018052540793829198,0.024131232473220847,-0.034281595373123336,-0.15996765971396082,-0.15437643507148985,-0.14829617575097717,-0.08395288323977947
0.736,-0.08290763121441042,-0.03857830852761278,0.044244495833912205,0.06276790171326756,-0.06506862946296026,0.001863168771226809,0.02434389452804463,-0.03630808632002974,-0.16374329571091015,-0.15661134693369066,-0.15203844430048832,-0.08625071784177256
0.738,-0.09000636993117507,-0.03514375476470785,0.054837511556790376,0.06295660025298337,-0.07383474249527905,0.009170954840057909,0.03219922124086788,-0.031882700253880306,-0.16001990540066335,-0.15246947141964676,-0.14924558687815107,-0.081550783478559
0.74,-0.0975780544247025,-0.022701722609211376,0.07528269304997375,0.05945267282379744,-0.08819274364493712,0.025162332669681448,0.043936150016611684,-0.02132501939342807,-0.147496042435746,-0.14241802123376557,-0.1390018662978047,-0.06912098460614964
0.742,-0.09197709587353994,4.7205736606005446e-05,0.09270321653289337,0.04551501111006013,-0.0943826980692419,0.04474344936951271,0.05395282480565292,-0.010798639643180643,-0.13220460263967665,-0.13049319828714412,-0.12437581786424079,-0.05495842602144986
0.744,-0.07224453296347966,0.021676651436169415,0.09417473464274052,0.025801493645198157,-0.08489453899368254,0.05648468418811195,0.05708489702302884,-0.006526913440853107,-0.12360385056160529,-0.1235784854778889,-0.11381919186032327,-0.048339494985849045
0.746,-0.05359351753453228,0.02862909045457828,0.08153131967886587,0.01398989907401405,-0.06837747199317769,0.0543292866233624,0.05221521346720799,-0.00891696227471971,-0.12533147289471605,-0.1257702076718804,-0.11418757425010004,-0.05258452227869297
0.748,-0.04909367835691643,0.02172882385603328,0.06947503746132004,0.01576653471657917,-0.05938485184738419,0.04510549309728612,0.04449753302859402,-0.014112338458345827,-0.13258512367891234,-0.133737942361622,-0.12281057447373166,-0.062031954185784076
0.75,-0.05757466605522734,0.011428576527499647,0.06778345951831016,0.024909768327881356,-0.06274623515280241,0.03859347469471404,0.04021877787663094,-0.019047205661282447,-0.13946696553308147,-0.14106674199106145,-0.1314297783121276,-0.06948446529757285
0.752,-0.07124933760822216,0.001406867154232762,0.0720181949115377,0.03575882254738808,-0.07252058054224855,0.034942037522098075,0.0387910710935259,-0.02331109476715446,-0.14524251090923687,-0.14650737926180157,-0.1366252274781069,-0.07379272884129373
0.754,-0.08546219696224902,-0.010978365014986342,0.07427307563568174,0.048141658664938046,-0.08206929635294515,0.02933827491622845,0.03396826233508733,-0.027274151516920295,-0.15179110894865813,-0.15352128789398456,-0.14115158593890145,-0.07803036632207491
0.756,-0.09752674989763604,-0.022370410462559942,0.0751090955001041,0.059780728425176184,-0.08944666087449123,0.023773545816995555,0.0246007397168878,-0.029479647519708833,-0.1581110944390527,-0.16127292836047136,-0.14599915276061304,-0.08219080573550058
0.758,-0.10302221608201458,-0.024119193421618515,0.07904533430923513,0.0641184284237316,-0.09400912660884962,0.02482181797592328,0.018697803987123982,-0.027261328350325072,-0.16003564817703275,-0.16255787373274505,-0.14740417076242618,-0.08211857572216638
0.76,-0.09803409596536466,-0.01412539474340534,0.084246207421776,0.05766737884781085,-0.09310506872362022,0.03275430657430424,0.022664598107521985,-0.02142967343031371,-0.15598765195578115,-0.15409666392672364,-0.14344928807679008,-0.07649556930189573
0.762,-0.08308250413328021,0.00032071298697963275,0.08359516963820339,0.04374735020467288,-0.08440452920675015,0.040263087390918356,0.03242577225919425,-0.017096811758972905,-0.15038985337475402,-0.14195804540547963,-0.1377475395985577,-0.06916068020688641
0.764,-0.06383853313525356,0.010846265573950638,0.07438371897562607,0.028827512796407533,-0.07006147179724788,0.04122620966711915,0.03993662107779267,-0.01701029900223146,-0.1481412835342438,-0.1332342294689139,-0.13353475248691202,-0.0627762560675358
0.766,-0.049904982991813604,0.013511580380198503,0.06271792046160107,0.0195736181624262,-0.05759513935932029,0.036453900194288257,0.041669785440631435,-0.019162950627147547,-0.14978009599035774,-0.1302609560037161,-0.1306521554284574,-0.05745217395872698
0.768,-0.05074366686670944,0.006279352134915037,0.05633698705369603,0.022435407075538268,-0.05486342253399546,0.029334415970279602,0.03757175306683838,-0.022599237114301174,-0.15485539814135307,-0.1343958758059266,-0.1308252257923989,-0.05643346378687957
0.77,-0.06744967923736149,-0.011180684923610447,0.05587626640017844,0.03919210504748623,-0.06260168104407346,0.020428636830383935,0.02953894557985092,-0.028461753979655818,-0.1632337024252646,-0.14596272996611614,-0.13759133261863868,-0.06405574310887222
0.772,-0.08986127494223158,-0.031520908171052235,0.058167803561482156,0.061395363942694084,-0.0747005157206947,0.011586679392234964,0.022290509951901464,-0.035523753056419166,-0.17175447635368774,-0.16023549532828943,-0.14974247158794768,-0.07740307549375845
0.774,-0.10698446321635459,-0.04345484642567115,0.06330992756471099,0.07690663774259361,-0.0861657210047777,0.008350776662729854,0.01950270995773488,-0.041568067112804585,-0.1767062255198282,-0.1714680769789032,-0.1621575678484744,-0.0881724113967492
0.776,-0.11644057884677464,-0.04493719834421254,0.07117416891147471,0.08232366120907482,-0.09541510165626968,0.011837851160373294,0.020308666305939204,-0.04661246650798878,-0.17839199874636527,-0.17829444882772483,-0.17091157925210254,-0.09229395193546037
0.778,-0.11918467490732523,-0.041740396790782355,0.07730310091864222,0.0812560433583016,-0.09988930080812593,0.01681822179916524,0.02274159627412548,-0.049786609631729054,-0.17775833228001858,-0.17956361660225637,-0.17270754687181367,-0.09115261551975054
0.78,-0.11416192447859842,-0.03640229633220436,0.0780684626843684,0.075789999280927,-0.09703612794560322,0.019804933008852634,0.025878952408648296,-0.04904751181663855,-0.17378819132760817,-0.17266182742569774,-0.1661832245566556,-0.0868026190482391
0.782,-0.1033651813220793,-0.03002313471529389,0.07392045499206301,0.06780627706945852,-0.0887706679275827,0.020514284859043223,0.026943151012724056,-0.04779137260396214,-0.1691544613912288,-0.16165529839293022,-0.15762151130865543,-0.08241833910883703
0.784,-0.09233526338937442,-0.025805752458022652,0.06699764642656109,0.06047373885357131,-0.07964925931282969,0.019014908716391863,0.023188469788011836,-0.05241697701586461,-0.169965412692861,-0.1565339690164301,-0.15605792663416937,-0.08144711194618591
0.786,-0.08402850073824228,-0.02301295128006272,0.061286174355000736,0.05415518500048155,-0.07315665737999884,0.017903161571580894,0.01808690345066091,-0.06057825334263534,-0.17547802836233373,-0.15969514291981446,-0.1602333454577215,-0.08171664064682593
0.788,-0.08001919149424741,-0.018358285220609533,0.061878613071276754,0.048829504604391324,-0.07215817205412411,0.020832976043016996,0.018364211139654932,-0.06339668452415552,-0.17775470763483986,-0.16410701433610783,-0.16045565977289514,-0.07852360954966003
0.79,-0.08294915264983348,-0.01476533877808708,0.06838646340645128,0.0482986870160305,-0.07749247728752473,0.025604038523355886,0.023607771350942514,-0.06045150211834356,-0.174645335211288,-0.16629793561322964,-0.15435959141498132,-0.07473929983358443
0.792,-0.08919344008004121,-0.01652402795271632,0.07282580518693767,0.05282569566601548,-0.08336190925580489,0.026297499892704204,0.026743279241783872,-0.05953582996745496,-0.1729096572477265,-0.16922752355675177,-0.14984899993620665,-0.07746401728842187
0.794,-0.08658709560985013,-0.01736834179433791,0.06932256180940628,0.05263566541137731,-0.08065135230846068,0.0238802944405691,0.026213940355917537,-0.06142838541916549,-0.1754907337305655,-0.1722632392758771,-0.15092343833043095,-0.08464381183933317
0.796,-0.07029525787108921,-0.007687119188872788,0.06250556397858019,0.040215969300609604,-0.06909793054353283,0.025728994889933972,0.027977094068368444,-0.05887648952499527,-0.1762476389677555,-0.1704894113153268,-0.15184784460404863,-0.08653459756655932
0.798,-0.05559721829580842,0.005860216500438229,0.06096652602298866,0.026247734777294238,-0.06070081453729841,0.0321323512551998,0.03298966665461169,-0.05184771178743865,-0.17194271850405807,-0.1650778200405077,-0.14856555016901662,-0.08119755290347927
0.8,-0.06323275170058085,0.0029769378335178427,0.06554372653827821,0.03103937377978034,-0.06642651336273578,0.03294167952709295,0.03317263112904355,-0.05149800264172729,-0.17033489974905097,-0.16462668619879928,-0.1465954352794807,-0.07782037133539553
0.802,-0.09212377245455365,-0.021989560836856263,0.06977504635657857,0.05740619518703675,-0.08264352853051245,0.02274582035793358,0.02439813018396315,-0.06482165793647963,-0.17931341198472292,-0.17342080702659995,-0.152995952497575,-0.08307588112412098
0.804,-0.11498422895774714,-0.04437237100864827,0.07070747736645391,0.08009866373708874,-0.09432510988875709,0.012814346186941385,0.01599251500926851,-0.08160597778750289,-0.19184707078085392,-0.18288168888404066,-0.16392117396940392,-0.09101922524295425
0.806,-0.1064901840264432,-0.032996014700369954,0.07375621480351077,0.07056705254261937,-0.091522048851134,0.020499738191266784,0.02061534066863797,-0.08400913987328967,-0.190821346333045,-0.1791982249174673,-0.16565369044635225,-0.08917634177224106
0.808,-0.07402700256940155,0.00953057426478601,0.08376209184763012,0.03297420582069414,-0.08039544396343291,0.04598545667937544,0.036496292064039655,-0.0699612748701832,-0.17229644277412481,-0.16162454427713316,-0.15244326006969197,-0.0747306142659383
0.81,-0.05171861826256285,0.04300584131351255,0.09498148469145011,0.004633507829544569,-0.07526597413342603,0.06706129483062956,0.04723702987127253,-0.057352850198816446,-0.15426123415625204,-0.14725561355275954,-0.13749707854839388,-0.06087689346860606
0.812,-0.06232646809303865,0.034705467022211396,0.09750168405450528,0.014211554441150617,-0.0824466226625685,0.06387359489327693,0.04135608637981249,-0.060565146810217484,-0.15459786708602208,-0.15112681796627758,-0.13757552756720023,-0.06175511301657723
0.814,-0.09711661079759878,-0.00522258652880132,0.09248663307383025,0.05240999138415044,-0.09779194227671126,0.04215543616586212,0.02437593401702783,-0.07436480381014694,-0.17030813282082016,-0.16882574436674574,-0.15317777481032835,-0.0764196153135788
0.816,-0.1330727417073655,-0.04251773528956336,0.09100231018457994,0.08963881926069144,-0.11512523014611237,0.023376769790934133,0.009336362315596104,-0.08624607516998312,-0.18657314513044723,-0.18541545847629445,-0.1717792551818961,-0.09346441055167651
0.818,-0.1526809115271029,-0.05657201451135675,0.0962374453634483,0.10608039309601487,-0.12730252651284968,0.01867765920732002,0.0034881292685601333,-0.09248357461051365,-0.19569849650447155,-0.19270811280601247,-0.18268736588833046,-0.10375002610519525
0.82,-0.14757032645816426,-0.049674924604136625,0.09778803113970072,0.09920223342221227,-0.12497081734166758,0.022100592619802368,0.0059281393406327085,-0.09562118919342767,-0.19884799508983697,-0.19162925244449558,-0.18226830783970338,-0.10379468011927546
0.822,-0.12149456669742457,-0.03287202871020658,0.08850378928621731,0.07753171050908798,-0.10664975731670283,0.025392025532310535,0.011486357363330042,-0.09606003566801298,-0.19791318526427443,-0.18584374154690106,-0.1721882026318975,-0.09483800516050866
0.824,-0.09287965014840689,-0.015222523802986169,0.07765129950087454,0.0550782880584203,-0.0866667572048153,0.029058825284793244,0.015760531128525865,-0.09314566853388319,-0.19384490148601435,-0.17918527465346512,-0.15860203455789107,-0.08292615632851137
0.826,-0.0816561374708825,-0.0025999555484796967,0.07911534883236351,0.04409062727631979,-0.08201369533919418,0.036826027096229515,0.01927348614951997,-0.08885390556957716,-0.18893834215221877,-0.17447563671604038,-0.14884259553404375,-0.0746991850247415
0.828,-0.08884927853142342,0.0027139446981228007,0.09159470065535193,0.04562343813302836,-0.09198435579974852,0.04635388871358618,0.025099848029819315,-0.08581852231700006,-0.18592141063662876,-0.17167544134543178,-0.14598973504170334,-0.07190379754324416
0.83,-0.0963707095168652,0.003077616719919222,0.09943146203384823,0.04909914210251951,-0.09931351615718498,0.05078103883791445,0.03199092514249194,-0.08520959630670645,-0.18607518853788482,-0.1704423407744418,-0.14898847318119254,-0.0728970140171234
0.832,-0.08973308805364665,0.0027911739914950814,0.09249916078092311,0.04497905195352155,-0.09188667753214724,0.04739790580386094,0.03481949014684998,-0.08733335755351851,-0.18880776298854315,-0.1729159237082397,-0.15607732731303342,-0.07617845387973997
0.834,-0.07373665398543885,0.0037713421757528277,0.07750520510300753,0.035255915228477125,-0.07584949058988372,0.04063749727163086,0.032782417937131714,-0.09071655326101927,-0.19156206342065105,-0.17921167454390702,-0.16424970849577836,-0.07957092772416134
0.836,-0.06282083002428597,0.005037140962176743,0.06787031741604962,0.028761952613808848,-0.06557244821856037,0.03658367338809053,0.03161071687136182,-0.09203569988641819,-0.19140586053537048,-0.18377523949927968,-0.16895843966302204,-0.080429505025864
0.838,-0.06322674905531515,0.005787075816336751,0.06902123938836975,0.029542131620283296,-0.06716308769483449,0.037481040272988604,0.035355489370925336,-0.0902366074144229,-0.18836766938990462,-0.18166617018766734,-0.1685612346989403,-0.07887823849080733
0.84,-0.07010601233908675,0.00559824285482626,0.07570105940130745,0.03458223801274232,-0.07509622295208963,0.0405658637539663,0.04014979883612007,-0.08898938898605205,-0.18617859358967961,-0.1758393539199494,-0.16664565768581996,-0.07790951807134848
0.842,-0.0786701608645216,0.0008024350536848918,0.07946702406133276,0.042009153559361884,-0.08170321329798365,0.039706681169304946,0.03918959457867308,-0.0930706523316873,-0.188838594201889,-0.17401101189202792,-0.16797855852096327,-0.07988334570444645
0.844,-0.09125279807019199,-0.01389065095417596,0.07736122997881652,0.05509571229039613,-0.0862543911623092,0.030653452279521737,0.03106983981040709,-0.10331700051551213,-0.19729266863283343,-0.17970424447092703,-0.173753774082872,-0.08485747462969288
0.846,-0.11008655980266888,-0.03689386467884118,0.07319529771706652,0.07472142728031975,-0.09256191526815487,0.016485841758700163,0.020490752263488798,-0.11531452543537239,-0.20888494553535883,-0.18907821694456076,-0.1811233285030322,-0.09148367615637056
0.848,-0.12804395203760585,-0.05683724446146718,0.07120845117702754,0.09273769321265792,-0.10007029910903467,0.005631741529964495,0.012724648139143797,-0.12225343577314629,-0.21802796631227087,-0.19564971047739207,-0.18622644319966475,-0.0975098025443229
0.85,-0.1352228566154849,-0.06307150587692412,0.07215076327002432,0.09950376158527659,-0.10408466659299657,0.0037210507377754038,0.00921732232178054,-0.12054671055893416,-0.21990029800605054,-0.1969786364874511,-0.18789455082472167,-0.1008799949879202
0.852,-0.13163853875034684,-0.056859218357230436,0.074778088263761,0.09514399040454385,-0.10339172304335978,0.008831146613625706,0.008593215529544607,-0.11367528045563001,-0.2161907585774948,-0.19658986686836408,-0.1885220382539871,-0.10191926995226303
0.854,-0.12379803596382434,-0.046689546007839894,0.07710822202086712,0.08633334923956697,-0.1003046190652901,0.015178402484056492,0.011013717486080338,-0.10818646445830898,-0.21283193717073695,-0.1980094207325997,-0.19026904847977585,-0.10238394116574562
0.856,-0.11473871524508221,-0.03724600771090184,0.0774932519559443,0.07691617495772098,-0.0962019451313612,0.01941954303309681,0.017805422840149174,-0.1060681034196477,-0.21110765448092825,-0.1992364642797883,-0.1916492511991342,-0.10264623721901037
0.858,-0.10740838045435988,-0.030368909393756548,0.07703987732461465,0.06959586642895135,-0.09328588770557442,0.021653660909582186,0.0259093396715264,-0.10507430140033783,-0.20741156775140546,-0.1971936840107061,-0.190237615145186,-0.10263468538526566
0.86,-0.10952965344412675,-0.029950090428927205,0.07957945996539488,0.07013677550706299,-0.09651877726917268,0.02268446774746192,0.0287060178819197,-0.10565962327755223,-0.2016228159638479,-0.1938246782350456,-0.18700766805861754,-0.10378620265606993
0.862,-0.12451433365910733,-0.037266667246966284,0.0872693351028316,0.08088261563034527,-0.10800782383215304,0.022975750330977318,0.024250168324649615,-0.11152580822038924,-0.19907415532981754,-0.19324515877821405,-0.18554595421975545,-0.1073190622753065
0.864,-0.14330791290485762,-0.04689169885225454,0.09656939626441742,0.0948773599418476,-0.1218370734893306,0.022809863362781027,0.01745517284273008,-0.12225183385677388,-0.20333946442696568,-0.19647146773360857,-0.1878884037236634,-0.1118223090149776
0.866,-0.1525169513232492,-0.05248899835806266,0.10048680069133765,0.10254115325295576,-0.1284564737114654,0.02192417239531592,0.013731837384940812,-0.13090883464538966,-0.21092157267219858,-0.20090923231086674,-0.19164150599613125,-0.11381662399486268
0.868,-0.14614897516378383,-0.05166806874537788,0.09523102455525057,0.09972690662361083,-0.12279338109706299,0.020204979975750804,0.014476009722363353,-0.13162223423102548,-0.2146237108131494,-0.20248693273812823,-0.19178364832772013,-0.11079006720139847
0.87,-0.1270913557083683,-0.043262784872454225,0.08450669994401058,0.08679810280708805,-0.10751959005517821,0.019837175264491788,0.01862357533503837,-0.12478229103812784,-0.21036231863003846,-0.1987110265642524,-0.18598699579433717,-0.1033864312722811
0.872,-0.10373461235362455,-0.025766109982823488,0.0781763707245894,0.06634692858506752,-0.09189440557861274,0.02565524792319547,0.025969217332547728,-0.11254571672101736,-0.19917067935781313,-0.19052524549997116,-0.17604464953298718,-0.09386365794601656
0.874,-0.08699034976971455,-0.0027169250944722033,0.08399255932599556,0.04546472756336689,-0.0860598471473036,0.039647188788528485,0.03606757192397572,-0.09701820456874681,-0.18577644374146343,-0.18144067187124976,-0.16561172638252283,-0.08462411053874087
0.876,-0.08602814405862508,0.012322758497411459,0.09794581013031917,0.036501569845108245,-0.09276574230060092,0.05384030306602561,0.042865019692580844,-0.086403361405065,-0.17788513879928877,-0.1766829230006466,-0.16071688448324087,-0.08053719143422206
0.878,-0.10257074772003419,0.0050013586274738515,0.10745985591964381,0.04855275196655205,-0.10602763240126077,0.05534954683913902,0.037155446029622036,-0.09138468089069977,-0.18153901490870772,-0.18042054356545137,-0.16696136601912864,-0.08694002024718014
0.88,-0.12559297922121856,-0.01945754117651101,0.10640504845790817,0.073549244377573,-0.11703088584911847,0.043162343667702274,0.020231175970182032,-0.10917623972692808,-0.19303583743874303,-0.18940707701647813,-0.1798265748923169,-0.1003167316475397
0.882,-0.1355878466097181,-0.03517601567887707,0.10077355126652154,0.08781335501190109,-0.11911803144388236,0.03222993062008474,0.007520689398861985,-0.1225240588443755,-0.20065543557319,-0.19394267974432194,-0.18557842952584452,-0.10859909362847459
0.884,-0.12296307364016983,-0.02516176957785868,0.09802529345245248,0.07688721584945366,-0.11126134588721168,0.03481499111419733,0.011394988783449562,-0.12016044143068666,-0.1976790302685536,-0.1892052138453073,-0.17780464132753607,-0.10565751079376216
0.886,-0.09892759822852516,-0.0016304139815995732,0.09749710292253778,0.05221990925562234,-0.09885495322884584,0.04559578488659278,0.027357594418218053,-0.10851027085038863,-0.18874971614356278,-0.18005165746045115,-0.16459622805232357,-0.09756793293095288
0.888,-0.08170030179681176,0.01229399467471841,0.09430106343837401,0.035499370460105276,-0.08863923626690777,0.05128767228250158,0.04247203781828796,-0.09995740271646876,-0.1819242596470325,-0.17315054324758594,-0.1563068031572725,-0.09240385462886318
0.89,-0.07876134596190551,0.009426256504325256,0.08847618106517006,0.03532698900328195,-0.0843305828760583,0.04781574854308786,0.05011135195476885,-0.098046203746901,-0.18003078330397837,-0.17061820161953706,-0.1550907248889553,-0.09140025032515654
0.892,-0.08651751326919249,-0.0017692629446500645,0.08492190163220237,0.04558896280242774,-0.08668581435595032,0.041092627647097126,0.05180372413839844,-0.09807862859261952,-0.18144975821834902,-0.17188485214158994,-0.15844912493431595,-0.09174794961616138
0.894,-0.09895109366837958,-0.014678229107001754,0.08445921269720415,0.05869681885274139,-0.09317895621629463,0.03471055007191154,0.05003076010355561,-0.09793579582312827,-0.18533950267032742,-0.1767490780006754,-0.16581566121078503,-0.0932552435927691
0.896,-0.11335042066399525,-0.03150110651844347,0.08205316018726111,0.07377369804576132,-0.09968592134388787,0.02510877023320071,0.044049922715822316,-0.10278104040241859,-0.19353090927659272,-0.18536926918036292,-0.1784434469167261,-0.0994334189346701
0.898,-0.1307358083585126,-0.05363825305296128,0.07706764355487515,0.09260423846375097,-0.1059843318406879,0.011159165298841334,0.03261826301470753,-0.11640131989580448,-0.20639418511600927,-0.19651067509616948,-0.1948145134388524,-0.11191965579075511
0.9,-0.14957723724908475,-0.07225491921527366,0.07706251490348014,0.11068712269619248,-0.1149628123416848,0.0012777231965837423,0.01915163848622931,-0.1316047573960229,-0.21809762375334105,-0.20584992564900292,-0.20801783796655196,-0.12532033160207587
0.902,-0.16142553325824288,-0.07587633608597565,0.08549203223693357,0.11829203016907062,-0.12454067994053634,0.0034981369856873687,0.0107522354768618,-0.1362842644967989,-0.2209477930583954,-0.20797142584319692,-0.21071799086544404,-0.13086970112631394
0.904,-0.1589105842457138,-0.0653785258125967,0.09389408009522077,0.11225486104296753,-0.12732469063162538,0.01341608403713437,0.010502364104341867,-0.12784945422466842,-0.2147066162119084,-0.20195450230184625,-0.20363795235703594,-0.12612534578220458
0.906,-0.14544480223974895,-0.05215113349202009,0.09372099045023977,0.0999044063867638,-0.12084002469502132,0.020647426513614058,0.014765510103961368,-0.11467870915022053,-0.2063326703281861,-0.19302606578405612,-0.19438427634667965,-0.11738231543673086
0.908,-0.1325877921354209,-0.04422505675782816,0.08845962905800157,0.0903667017259919,-0.11231868247392256,0.02208529604440619,0.01941677311006531,-0.10546975545276402,-0.2015815877042661,-0.18813032106665364,-0.18830113440539645,-0.11187921768600535
0.91,-0.12854319164606,-0.041098869345547115,0.0872669449563667,0.08662158758938925,-0.11002041966013212,0.02212752363470725,0.024811833055874432,-0.1028720175085292,-0.20070368448194253,-0.19031393967529758,-0.18571157148157103,-0.11124623213948169
0.912,-0.12956865406068527,-0.03659107017746059,0.09283266060936048,0.0839704663425045,-0.11312799641981552,0.025885873637208266,0.033650544818735244,-0.1044143972772489,-0.20009120235114047,-0.1955734128257254,-0.18520739189353883,-0.11209672157499193
0.914,-0.12531478887108488,-0.024817581018050996,0.10052116052442085,0.07571441554095315,-0.11435230014540106,0.03531308284895186,0.045665973761970305,-0.10585826091600416,-0.1963180169194779,-0.19678484863498297,-0.18508517431667243,-0.11039084940891436
0.916,-0.11338935845757801,-0.007916424735666365,0.10554123987571981,0.062395427108082296,-0.11076343240165815,0.047483635332968795,0.0559758537005112,-0.10486076506646036,-0.18986873144742789,-0.1922790243421123,-0.18423742076996033,-0.10571517417618399
0.918,-0.10187522666999604,0.0048975746024322985,0.10667189790593026,0.05155054357592998,-0.1061006415869595,0.05612445544992322,0.05971412768018965,-0.10237517466401035,-0.18502147667330165,-0.18685794177518758,-0.18365538253713684,-0.10157057544543079
0.92,-0.09693993378067102,0.007428944702793377,0.10400690634806865,0.04782669350856395,-0.10290901159203336,0.056559626830979585,0.057077735651014594,-0.10094744535712788,-0.18578457782511837,-0.18473734301189806,-0.18511574796238509,-0.1008625999053437
0.922,-0.09673175483067667,0.0021676323004159665,0.09844369083380691,0.04894697364634625,-0.09994330474724707,0.05018583152805606,0.052928491251695395,-0.10163019289772633,-0.19126205978152136,-0.1853430119560854,-0.1878769140315971,-0.1021551690354022
0.924,-0.09849115969846413,-0.004229684837489986,0.09400896595595262,0.051730533943326704,-0.09786294332038775,0.04370860668548069,0.05173144328751467,-0.1028820784253503,-0.19583659545667803,-0.1854157729414833,-0.18895561492534518,-0.1020302075996346
0.926,-0.10363740209655092,-0.010053397001828739,0.09362917747580879,0.05749669075146905,-0.0995037786947,0.04048679894634548,0.05239709299090346,-0.10412950279309968,-0.1967361290669144,-0.18408171507273102,-0.1878172633686237,-0.1007609067317521
0.928,-0.11314723408879013,-0.021055772090824067,0.09224491754682637,0.06920005737734887,-0.10320247239127052,0.03451492028421439,0.04933077116232565,-0.10848310473085664,-0.1988521843317165,-0.1855184118634967,-0.18840789145865797,-0.10279609174527665
0.93,-0.1233089685616517,-0.04026002686227076,0.08310517563295723,0.08469143061830663,-0.10362001067188967,0.020216020443635064,0.03992596655147935,-0.11811474472699593,-0.2074810678119795,-0.19422542995414324,-0.1945029313445048,-0.11057653586618876
0.932,-0.1303045389553159,-0.059148951031822355,0.0711019438182701,0.09693938391448625,-0.10123931587092634,0.004873950794896855,0.02905240751871969,-0.12863024172500245,-0.219439861824145,-0.20725134998954095,-0.20434113816674776,-0.12062560416361917
0.934,-0.13623737915406453,-0.06668327563224472,0.06949790613756118,0.10241875565475837,-0.1037689484775757,0.0010894839956859734,0.024469935702637585,-0.13248551219436025,-0.2260023708183886,-0.21525089895605,-0.21175715076910606,-0.1273646241019136
0.936,-0.14587626010845486,-0.06318096774723021,0.0826973373767255,0.10480773537411858,-0.11561055104656613,0.009949507978570681,0.028684747827889004,-0.1279786550765219,-0.22316335508532215,-0.21352735346428947,-0.21252767105614573,-0.1288488296933907
0.938,-0.15820920164857555,-0.057460328619298694,0.10078036733634883,0.10817057705657279,-0.13102072470444895,0.021053247270962246,0.0366332678873059,-0.12128878697890985,-0.21577327173778685,-0.2075711809763338,-0.20809798442599362,-0.12722779999946301
0.94,-0.16435850617362102,-0.053760719669078846,0.11061171155159989,0.10997781439205076,-0.13874972234385577,0.026278198458396317,0.04177716471816325,-0.11885695436350574,-0.21113360878165782,-0.2042440412104157,-0.20251949535907154,-0.1247720896289855
0.942,-0.15505633879094824,-0.04710468791229803,0.10794113387024418,0.10288013946748482,-0.13200513621456314,0.02746536929333279,0.04331422822061454,-0.12070495663311022,-0.21143092247259987,-0.20250554425434142,-0.19784928564193138,-0.12167457786858692
