time,I,II,III,aVR,aVL,aVF,V1,V2,V3,V4,V5,V6
0.0,0.0020403847240271678,0.004497622241135155,0.002457237517107987,-0.003203184620515769,-0.00021939620688464173,0.0034225808274004105,-0.0026766337239926287,0.0017112904137002052,0.007064557861685463,0.006647705068604644,0.005133871241100616,0.0033128827239580897
0.002,0.014669603703667598,0.03163675036462969,0.016945207040273632,-0.022704380686086854,-0.0012034595510264548,0.023907840237113308,-0.01880685521195401,0.011953920118556654,0.049348234335580034,0.04652414048176239,0.03597145845911229,0.02336095951332124
0.004,0.047395179615299037,0.10026827189432916,0.052741776513583236,-0.07247729991998045,-0.002837007979115352,0.0753143078990958,-0.05929886124922027,0.0373829086909421,0.15510626594868315,0.14669617112111166,0.11368288972759924,0.07444348953003996
0.006,0.09151751074023197,0.1913583737403455,0.09953538356085553,-0.13908894741039413,-0.00423120882884511,0.14332015623923924,-0.1119469122233002,0.0696895367412067,0.2932645802076065,0.2787912413358698,0.21703337755496246,0.1436982608705114
0.008,0.11981999331712682,0.25113643128118956,0.13102514851313146,-0.18295635988283557,-0.0057960058164103,0.1887523656992459,-0.1444747799466039,0.08798461380826146,0.3811165411148784,0.3653348418592593,0.28678284192860976,0.19271378030268446
0.01,0.11880972279990927,0.25354538326853154,0.13480753885719973,-0.18446400053118367,-0.00814978082854965,0.19261378135973337,-0.14365500462516073,0.08375935973219033,0.38082586049595585,0.3698706053013461,0.2939987122041161,0.20122522504457133
0.012,0.10663343575757157,0.22908409904324145,0.12289894196218575,-0.16692082006691777,-0.008326006458877964,0.1751590680430419,-0.13125020273008292,0.07034324412372622,0.33982548929782724,0.3356304475048353,0.2699778100982119,0.18778967253202689
0.014,0.10794202858652839,0.2193184822317912,0.11179973054399912,-0.16265906473106526,-0.002397182114305635,0.16444322530082953,-0.13270095506554483,0.06304965531434249,0.3202529339593618,0.32053763189304124,0.258578716874079,0.180380288695947
0.016,0.12443415187436865,0.23102329131589192,0.10675799745704928,-0.17641042589397932,0.007691820746166939,0.16688366584623884,-0.1481366886638951,0.06255450695307176,0.3321348730230198,0.335066109838975,0.269439128816157,0.18607802834381756
0.018,0.13796679857284871,0.2445570929300526,0.1067257868903109,-0.18996254007101915,0.01357070535717019,0.17336979798786167,-0.16045007390762225,0.061480594406445106,0.347294413578514,0.35316410488884176,0.2844670695452989,0.1940906734429149
0.02,0.13401623383741537,0.24711237374601666,0.11339911109224021,-0.18936703302758978,0.007653340432129943,0.17884785365833542,-0.15989777666165822,0.05722685086014166,0.3479818669142017,0.35542260593939523,0.2896782457566588,0.19593163400832697
0.022,0.11647416119593752,0.2440862261887315,0.12791157444595905,-0.17873633350951193,-0.008432065531098043,0.18579019537029096,-0.15324430253152616,0.052355763871179434,0.3423947029809549,0.3473453800799101,0.28866154090461865,0.19544890745743787
0.024,0.10052290991060561,0.24473741461921322,0.14427485537606677,-0.17052629697903254,-0.024322886044262713,0.1947850390142362,-0.15192959468395187,0.0483167330656319,0.3436072904853095,0.3446981455734825,0.2909825121181407,0.20102231181519248
0.026,0.09454654456087776,0.24969584584737356,0.15502098420939886,-0.1699133082880918,-0.032297656111904875,0.2023688677798315,-0.15800899508791563,0.04469886960618927,0.35191922993848973,0.35295121670037827,0.2990029018948392,0.21334094617748842
0.028,0.09480290199408231,0.25470888956811344,0.15980434518524006,-0.17306522249311718,-0.03411995331303969,0.20693589327239573,-0.16521264335993815,0.04134263474245972,0.3588166346704483,0.36409137548693976,0.3080110084842034,0.22479636188871194
0.03,0.0960697627074143,0.25842016208985524,0.1623467052252793,-0.17621889712907435,-0.034541907635797904,0.20988712069572596,-0.16946776941635186,0.03807861806095887,0.35850587172739445,0.3693447232707558,0.3136550507649034,0.22971553822648988
0.032,0.09822179545853163,0.2615273284446609,0.16321632826027707,-0.17933594715541074,-0.03413033470248793,0.2114527816435366,-0.17191735785260726,0.034713952198778326,0.3528727495838435,0.36914833418684867,0.3159057544264973,0.23008606084158423
0.034,0.10232500465047195,0.2626967306521864,0.15993400735207636,-0.18237241047302444,-0.030677663947405915,0.20971810694663282,-0.17392517807996782,0.031355580486896434,0.3471854948135011,0.3681829539372642,0.3159878358693606,0.2294161229312852
0.036,0.10795683507892888,0.2606585338877993,0.15192690952003654,-0.18428691795247368,-0.023448519487847333,0.20434997815548972,-0.1751975767419517,0.02754228684329365,0.34265428830043443,0.36580611813671954,0.3130841169727499,0.22630891143583248
0.038,0.11413081466729674,0.25745628043999236,0.14262402501093008,-0.18520247351593536,-0.014785429155329377,0.19833575892788458,-0.1757087142776254,0.022789634229193428,0.33584994685491076,0.3579462179490647,0.30631817019275165,0.21803046036218113
0.04,0.11861303752048659,0.2551396818633679,0.1362991466231767,-0.18534366323769083,-0.008934560930486744,0.19452287874911878,-0.17596337533959205,0.017678790071773993,0.325401674749005,0.34531338087733254,0.29683947917929043,0.2066214373080789
0.042,0.11821247399014823,0.25257006649652247,0.13454290006208497,-0.1833829428375968,-0.008994789951779119,0.19278478536591726,-0.17612221999773314,0.012623115124458498,0.3151102129620439,0.3334542915615899,0.28684016014669467,0.19751518077007074
0.044,0.11240614636840793,0.24833486253786696,0.13614304494817028,-0.178724213952195,-0.014034555490572595,0.1915031656928479,-0.1759996857654483,0.007131787755054134,0.3082385461841736,0.3259131250524808,0.2782456790360496,0.19328231637738363
0.046,0.10533181015820367,0.24335975928921455,0.13804002381099043,-0.17360427575542828,-0.019098558653558757,0.18955412919171888,-0.17512197194702486,0.0012061421229523758,0.30234465414646133,0.3205567493478122,0.27121915070475117,0.1912977001380362
0.048,0.10213785803559008,0.23876117338300262,0.1365154725194147,-0.17038082519110914,-0.019317582099617564,0.18626272801788527,-0.1726601173718139,-0.00423384356901967,0.2931197419684429,0.31244590429012775,0.26363654777034085,0.18772050306594268
0.05,0.10316138484477241,0.23331040391086705,0.13006870567245593,-0.16775819673730757,-0.014830893634194988,0.1808430642920131,-0.1681748689410258,-0.008292631580440735,0.2801334450867743,0.29928860894843734,0.25369352384783195,0.1813180737329935
0.052,0.10400330599916605,0.22501395027566587,0.12093170038150836,-0.16266235787025654,-0.009838530289214109,0.17281262239650869,-0.16242857471845368,-0.010485220744405027,0.2653898134108332,0.282875866541703,0.24151048354386878,0.17241209126684923
0.054,0.1015679479963503,0.2137676907042415,0.11204987838012773,-0.15488124053839286,-0.00678297584706789,0.1625485870397594,-0.15668150059472716,-0.01085608307359844,0.24924595575685068,0.2653976563268693,0.22709304741032532,0.16076440713460113
0.056,0.09585993496291857,0.20066842796313772,0.10471880197486404,-0.1460890744016299,-0.0055949832410665205,0.15137524686873877,-0.15097713818758796,-0.010006706740644872,0.2315720395963912,0.2472143262456916,0.20995808728348744,0.14656001653327852
0.058,0.08631069678497445,0.1869792961361581,0.10081308066372045,-0.13604991559417634,-0.007968971449939863,0.1419225228012185,-0.14371911490815525,-0.008388250030193573,0.21512319163658403,0.22873378182932919,0.1914707963245772,0.13183530429583923
0.06,0.07318805947315118,0.17453620424675761,0.10161557991502974,-0.12424300990284769,-0.015067174702267044,0.1361872100611527,-0.13401844350186706,-0.006578690098336952,0.20317744200901172,0.21091343545666802,0.17413929895458047,0.11847241761265674
0.062,0.0620816673747328,0.1643747744503933,0.1024189718541842,-0.11323672002876273,-0.021438621333045586,0.1317582175830606,-0.1239748762087637,-0.0064659180828633075,0.1939984499497563,0.19292092283220166,0.15850263986971783,0.10572031497288507
0.064,0.05809296108034866,0.15508323262067483,0.09691795145237918,-0.10554785798977707,-0.020699918819233557,0.1243327361923481,-0.11606926020141174,-0.009345505138127578,0.18227406967524168,0.17290458934901182,0.14316482028165525,0.09207672659660437
0.066,0.0572859239293508,0.14471159891844637,0.08731809683799467,-0.09933158204408715,-0.015903287998365583,0.11444386441627313,-0.10943869618332362,-0.013497099483585583,0.16605604876736593,0.151846578563829,0.12730048296619245,0.07804166777850152
0.068,0.0542321215633856,0.1337134506671064,0.07946628543789439,-0.09248558327041106,-0.013178904848388717,0.10561745654082658,-0.10278411327543396,-0.017336202438063514,0.14790089660051844,0.1330378330102624,0.11153234041097952,0.06480912588310479
0.07,0.05234465132592763,0.1234876477800879,0.07119401776767222,-0.08695178722020254,-0.009864046613659675,0.09686963104437638,-0.09824576774867748,-0.0223491695412457,0.1297004009164348,0.11703353466246316,0.09635568132145622,0.051912775458854934
0.072,0.054913336450181004,0.11282830867098027,0.057947788606639974,-0.08313846263792052,-0.001957040664977181,0.08447635896260616,-0.09736153233694564,-0.02878161596741193,0.11077881183400823,0.10052313668252877,0.08074852486299679,0.03795045564874873
0.074,0.054878364815153194,0.09964883575409667,0.04478039030405876,-0.07625741815250936,0.004142673717382408,0.07027186693468399,-0.09637611497079329,-0.03238896385038609,0.09115464178010055,0.08156945985090144,0.06380144148149293,0.023304977163530843
0.076,0.044878982047731886,0.08542247980315747,0.04065118446718021,-0.06362628730673862,0.00017165230362345136,0.06083278286061356,-0.08980270935832807,-0.02989760907457958,0.07322341674264204,0.06257607194618689,0.0465382071090507,0.01035516597247117
0.078,0.029119808074562673,0.0739161340757181,0.045119006332199056,-0.049706286097859244,-0.010671976634331226,0.05837850683277703,-0.07669446349342934,-0.024167769947024017,0.059411448006564595,0.04623081413353453,0.03043226773214931,0.0002885376747518845
0.08,0.016032673087769154,0.06574110258083171,0.05014165923753977,-0.03921507027561834,-0.019374914112695815,0.05820119367425567,-0.061312027046397266,-0.020037878152064113,0.04970462249539142,0.0327743504698024,0.01697876329469963,-0.007611280442055935
0.082,0.005088467982852438,0.0570611908746967,0.05223592359255685,-0.029521737414820635,-0.025107917730559173,0.05546670710086822,-0.048143629600382036,-0.018173221609416704,0.042159358907038834,0.022666181107832802,0.009070584698679898,-0.013183082818549316
0.084,-0.009094987133775715,0.045120304963047725,0.054187480034409236,-0.01615352452167817,-0.03309118672697691,0.05014363890276478,-0.037905556234581805,-0.01668453059067858,0.03528240001599126,0.01636953713400149,0.007143218889923624,-0.015876324934187242
0.086,-0.022871993157687377,0.03307636440979864,0.05579735951282669,-0.0030815282282775826,-0.04121794363759704,0.04439066330291502,-0.030070321239475464,-0.016485651434632032,0.02839132321104062,0.010401749194180744,0.0046704756940179745,-0.01847385328598028
0.088,-0.025782786099011985,0.02591936988582125,0.05163762289753491,0.001161112994977846,-0.0406047084112742,0.038256177148491555,-0.02682047058989567,-0.021384657114969167,0.019505525364648685,-0.0006062208932461005,-0.005528523023775905,-0.02616085535875483
0.09,-0.01652938774656566,0.022687231237639126,0.03928689779501432,-0.0032050834433691657,-0.029453596275984283,0.029806829208371372,-0.02968067269719491,-0.03224384104469508,0.006209125582491745,-0.016623374550043035,-0.02130451485262037,-0.03983325942441612
0.092,-0.007283726626251612,0.01668624080571852,0.024159475696719085,-0.005442273343904487,-0.01712398509351257,0.018553696769206415,-0.03395544793483384,-0.04306713995419585,-0.009853147629435021,-0.0318517183358467,-0.033670588309617354,-0.05316786764935824
0.094,-0.008802881497694832,0.0042424724765165525,0.013374575965092839,0.00231720351790416,-0.012261345416409265,0.006773183935913472,-0.03279789902611966,-0.04645863950821384,-0.02346154913780993,-0.042685442698907554,-0.039005749372098455,-0.059498994310134286
0.096,-0.016328002176629233,-0.009455026358837127,0.007264835921463856,0.014408423507733237,-0.012279040250136045,-0.0028854138474852732,-0.026349364938324023,-0.042908791775031714,-0.032475684771823644,-0.051657654750575564,-0.043198692115514595,-0.0600606281846694
0.098,-0.017448912620343163,-0.016471097959610263,0.0012176882279940297,0.019312028423711984,-0.009332493009248584,-0.009431558022795612,-0.02101563571798305,-0.040015496401091186,-0.039514664643856605,-0.06240217485472984,-0.052294010305139804,-0.062335603721357
0.1,-0.011265578519604247,-0.016613372553368876,-0.00536419143799354,0.015763544879605493,-0.003342949155500042,-0.013052571413358097,-0.02005288615220373,-0.04205783660070619,-0.046339967326025244,-0.07438415871087224,-0.06417996351037801,-0.07052320017125648
0.102,-0.009260747500238989,-0.017078621324661748,-0.007950696644953091,0.013908266874010537,-0.0017285275258464234,-0.014549504170527541,-0.020448133023171198,-0.04570002141949479,-0.05141063761633921,-0.0840841428862196,-0.07247842904640092,-0.08042647943575121
0.104,-0.01796674624316184,-0.0222370272152785,-0.0043323618005258425,0.02067135763206675,-0.00793486052629458,-0.015183278225950366,-0.018992161899905456,-0.04661479766992128,-0.053386038734999315,-0.08895678708970357,-0.07449167404141571,-0.0851610985242001
0.106,-0.030895289334315276,-0.02859962990724609,0.0023352522444887083,0.031201502679426868,-0.01736570527990211,-0.01534945852160635,-0.016223984940503297,-0.04471083383787527,-0.05311832041351176,-0.089163955089441,-0.07221974935473792,-0.08298900075250597
0.108,-0.03859152634217412,-0.0311852955654557,0.007458907601774577,0.03702744517273366,-0.023913954342485434,-0.014487367709892833,-0.013819541835177127,-0.04243332630228077,-0.05232012933987546,-0.08726926994772258,-0.06891090990062775,-0.07753415725323533
0.11,-0.039273230679777574,-0.030883804162001826,0.008393367951496741,0.03713528268424461,-0.02546885629748269,-0.01346369887861032,-0.01210279020010136,-0.04212466712970688,-0.052926424920763895,-0.08657868062866074,-0.0670844711778626,-0.07355947046730774
0.112,-0.03722249634722269,-0.03226239387682495,0.004933388810141855,0.03661879966952354,-0.023230403007499578,-0.01484098496148863,-0.011191408061518185,-0.04433919252171776,-0.05688737744588387,-0.08890483199401708,-0.06815723153933055,-0.07403042431395865
0.114,-0.03573355158993701,-0.036896914105087844,-0.0011782710224087075,0.03825835534963565,-0.01928494413756386,-0.019702700440341864,-0.011876097657388215,-0.047151116295284026,-0.06455070793426755,-0.09402135774823879,-0.07284191647763427,-0.07896584398121544
0.116,-0.03537822907070482,-0.042201993009577485,-0.006816325592384663,0.040657350312547566,-0.016130267319392134,-0.02548676069144463,-0.013998400895552926,-0.04864552707961186,-0.07350058537705696,-0.10047335447906483,-0.08109583745258395,-0.08592680836157394
0.118,-0.03635490843177116,-0.045266332175604586,-0.00889974173014852,0.042485225876426246,-0.01600993151842873,-0.028184552205554072,-0.01567320751336591,-0.04934085410367384,-0.0799301850539105,-0.10642213351590578,-0.090731594777408,-0.09194226517467619
0.12,-0.03874974351687235,-0.04585026849246602,-0.00709900423352262,0.04417787356520332,-0.018605060787246337,-0.02701143069099052,-0.015274049245375917,-0.05050438091891843,-0.08148102776842076,-0.11056293452967289,-0.0978948989233254,-0.09584013504559673
0.122,-0.041150716518109844,-0.04586900458529399,-0.004723935911630495,0.04590137841099465,-0.02080293983988973,-0.02537685013242208,-0.01332513828944571,-0.05192161261551539,-0.0790691294160896,-0.11253318505844251,-0.10066293772143212,-0.0989305834359608
0.124,-0.0408383749090699,-0.04684278013141563,-0.0060079325343910025,0.04629950668609854,-0.01949437524082943,-0.026788866686850207,-0.011773615886495335,-0.05297732743754749,-0.07631907681368776,-0.11273894606467368,-0.10080821719620088,-0.10263778677505352
0.126,-0.03602132910536045,-0.04838692598122039,-0.012364199562829987,0.043955378011253425,-0.01386385492915039,-0.031277968267506534,-0.011826316574124014,-0.05412343409907624,-0.07649194300806765,-0.11214386717060905,-0.10094464633260966,-0.10564464287382704
0.128,-0.028960616300903904,-0.04904664072973382,-0.02008343210332242,0.039891378632981776,-0.006639291653077138,-0.03550083791208426,-0.013028548898766869,-0.055528246049382154,-0.07918616364586843,-0.11150566050859637,-0.10109987889457608,-0.10461890543880717
0.13,-0.02655338845730356,-0.04846392978147385,-0.0219100656479461,0.038151138827576266,-0.004042022809206195,-0.03569690933112111,-0.01377452786869318,-0.0556209579260954,-0.0808955845731831,-0.11026647198798159,-0.09906227247302113,-0.09828037663961099
0.132,-0.03452373276101858,-0.048174652904904226,-0.01365210762651841,0.042315796155880867,-0.011010959078041439,-0.03123047861759364,-0.012302970354338636,-0.0531498721691359,-0.07942389831184396,-0.10735212755240976,-0.09411898192864744,-0.08997876524675356
0.134,-0.049568020184723685,-0.049977369179488945,-0.00041017578699171207,0.05086781318845748,-0.024172527432988485,-0.025702795597335296,-0.008593126951900036,-0.050064722423717845,-0.0769707340480694,-0.10408315150948452,-0.08983098516575987,-0.08572523905523906
0.136,-0.06013800854355414,-0.05394822707013289,0.006190034589763666,0.05762435073754657,-0.03261353428397111,-0.024372444794573664,-0.005428981581415744,-0.04987236697974457,-0.077995134770617,-0.10438273453629282,-0.0909772282243316,-0.08920441893018904
0.138,-0.05708521469350108,-0.058018308846868476,-0.0009325220513982017,0.05749068494087529,-0.028270676900239555,-0.02970672927330007,-0.00583465789740181,-0.05336163397445769,-0.08406588119648181,-0.11015694291195036,-0.09732141008429564,-0.09799025161914253
0.14,-0.04234242457499778,-0.06022204771842429,-0.01787948800778193,0.05129703826196409,-0.013448565366040215,-0.03957970737531252,-0.009699917415292872,-0.05815505780289061,-0.09201472070709735,-0.11833142471853479,-0.10384914981984798,-0.10608706189854791
0.142,-0.025940347325150395,-0.06085729371622992,-0.034917194052305825,0.044178967730839444,0.002948367341879697,-0.04940676287328783,-0.014568445334732559,-0.061914887222937455,-0.09763643856743895,-0.12406120172567592,-0.10738002744449938,-0.11085255051185217
0.144,-0.015369320825834261,-0.06048849989578857,-0.045119371113189824,0.03908999108492702,0.01391749904877082,-0.055022018334118225,-0.018722730865847876,-0.06415107174748716,-0.09963515763237188,-0.12533303765027634,-0.10883977723499445,-0.11411122856925686
0.146,-0.01009441213525892,-0.058304721446386466,-0.048210265886985224,0.03464679748875457,0.018513615667931204,-0.055398004842788305,-0.021571736992361513,-0.065251838281724,-0.0990861074494148,-0.12396481842814125,-0.10945909123789054,-0.11596897607544206
0.148,-0.00703634760124778,-0.05497878514705438,-0.04794231200158528,0.030419141386763642,0.01929026133876046,-0.05338846733086644,-0.022337656904188683,-0.06511782528117041,-0.09674872604879806,-0.12274816893223679,-0.10837044454705544,-0.11294555175700519
0.15,-0.00774242516878204,-0.05388138272257651,-0.04613892128456505,0.03021346140614239,0.016955104685743853,-0.052011150840841104,-0.020437919079578065,-0.06331681536919265,-0.09258440115662259,-0.12173134332830228,-0.10419720563794196,-0.10426077099831439
0.152,-0.016072912033350286,-0.05691089094336116,-0.04083803009824927,0.03706530645624256,0.009592823319481214,-0.050926394315468235,-0.016407727865485954,-0.05991723185137324,-0.0871832652929654,-0.11900514730176603,-0.09786151937500917,-0.09510784725323043
0.154,-0.030448515897250797,-0.061102991973638505,-0.030676459940346762,0.047427444026041335,-0.0026050131816917834,-0.04781115399140809,-0.011592227754219316,-0.05553973928003684,-0.08226708824061373,-0.11481159174668287,-0.0930159424441834,-0.091431869135509
0.156,-0.043526040148119276,-0.06220442858038588,-0.018831637016796146,0.05459624879885689,-0.014972752355219922,-0.042202562964940946,-0.007681503852335418,-0.051126178821751044,-0.07946281352900786,-0.11130628937502987,-0.09237862208687381,-0.09418573403960896
0.158,-0.0498835705539167,-0.06065968378115573,-0.011256760279917092,0.056823948004202235,-0.022134501975830553,-0.03711776174738711,-0.005973779608879397,-0.047643930304084633,-0.07863045843638176,-0.10933689297820381,-0.0943855749650067,-0.09940989600368844
0.16,-0.05002284616748282,-0.060432468825911176,-0.011290953327404717,0.057361370205949384,-0.022383814072759613,-0.036251583936843655,-0.0061171949135208886,-0.0457512026060168,-0.07820808491191818,-0.10893293655743409,-0.0956592056521546,-0.1028010352534386
0.162,-0.046113035954497665,-0.06284745727207211,-0.017739996737526974,0.05752615616112323,-0.016856666260225358,-0.040381983087427326,-0.006900553295509629,-0.04654710612775246,-0.07811441160604973,-0.11063095313701844,-0.0954001305615073,-0.10352136028458718
0.164,-0.03778256855613015,-0.06508338973682239,-0.02793136410469065,0.054493493373621374,-0.006444577738977322,-0.04721007707482867,-0.0083504333975719,-0.05125428280891099,-0.08023308354298515,-0.11348566305221777,-0.09513499352575017,-0.10303830305326832
0.166,-0.02618471193462809,-0.06404373243335078,-0.037811774455342964,0.04710737437522632,0.005684191025448093,-0.05249636235847313,-0.01053373920220906,-0.057465865437800634,-0.08351632232469619,-0.11392229380519327,-0.09549754203361487,-0.10165597238500354
0.168,-0.019330952120262604,-0.060005666699452405,-0.04013454342025019,0.040727753506023756,0.010674646437525439,-0.051812774807445096,-0.011101726413480255,-0.058713010064238604,-0.08227614096209092,-0.10904803801085278,-0.09446782670887086,-0.09806983059774939
0.17,-0.024512582876049082,-0.056754591900105136,-0.03180977444013699,0.04176714220322051,0.0027979021968293585,-0.04552759052401019,-0.008035306707795415,-0.05285910909212095,-0.07473186581992412,-0.10176787728024528,-0.08996931559607944,-0.09277989578334395
0.172,-0.03523880043779917,-0.05778212552575628,-0.022785853891685325,0.04802514408233599,-0.008536027837538934,-0.04111083152999312,-0.004164652723918684,-0.04730143223976517,-0.06909918452488069,-0.10030880321741596,-0.08517046173976481,-0.09047799254362406
0.174,-0.03610573795905979,-0.061726000450954,-0.026522611527639444,0.05018482860693351,-0.0072769518668936726,-0.04495701663517777,-0.004207686938631762,-0.0492572963630182,-0.07347652404504831,-0.10833956222935012,-0.0865757380977333,-0.09521765004983405
0.176,-0.02353090536557638,-0.06379243965164688,-0.04124576614376438,0.04439388279384729,0.0073538096886804115,-0.053607378566429845,-0.007564130844069584,-0.054924620975773226,-0.08349692280650606,-0.11795240721912664,-0.09450267407967763,-0.10375968263632603
0.178,-0.012470898784531077,-0.06289818448948105,-0.05100502334689321,0.03848603677479859,0.018522674364975636,-0.05857641467073884,-0.008584249832063623,-0.055256738668500865,-0.08786556199015762,-0.11900427691839155,-0.10188282180228596,-0.1091935180085931
0.18,-0.017868786465703824,-0.06313272036623323,-0.04543283522666006,0.04216264351458084,0.013097703282673382,-0.05673517544780326,-0.004319734544559122,-0.048849344095875956,-0.0828889534269721,-0.11243610517703914,-0.10410622559178859,-0.10998969337584383
0.182,-0.03614499381044275,-0.0668221256593977,-0.030673310850695214,0.05409004146429354,-0.0035533814294905434,-0.05163030537753983,0.00127271063934274,-0.0428057543750674,-0.07518751242835202,-0.10708658995556514,-0.10319082413212688,-0.1094585311387984
0.184,-0.05063811858446136,-0.07088293394246171,-0.020244410583180404,0.06349963172937395,-0.016142604831717505,-0.04774949987767329,0.002169801068401099,-0.04250133588621524,-0.07186212662853188,-0.10676265296747828,-0.10167081143768486,-0.10804664946714825
0.186,-0.05180746706992852,-0.07128512842531368,-0.019602800208362556,0.0635844963682437,-0.01736905771548998,-0.04619492660098526,-0.0022050270962033275,-0.04563830606349235,-0.07258338892075016,-0.10748324786344311,-0.09908627029348023,-0.10324279815016262
0.188,-0.0456208363098505,-0.06845789831608835,-0.02316641024036051,0.05854981356634836,-0.013009183349249342,-0.04563385311457434,-0.006701441695024348,-0.047406730570145335,-0.07251394295097387,-0.10509964070813559,-0.09519855277038745,-0.09625124116446511
0.19,-0.04146639270461737,-0.06644191345333145,-0.025399736486458716,0.05583540159205097,-0.010154151093648976,-0.04608108929191492,-0.0073178927002272055,-0.04723450097575132,-0.07038081350834695,-0.10066768907684813,-0.09188860279437129,-0.09191756346978232
0.192,-0.03959213844167243,-0.06684464182960893,-0.02750780658198775,0.05589053403906116,-0.007996657194504243,-0.048486921871783904,-0.0053831421809555705,-0.047397961895311626,-0.06978578376607653,-0.09898590992682778,-0.09137592545922678,-0.09244401784119156
0.194,-0.036252954393563915,-0.06701645532629394,-0.0307591450177608,0.05452375246531692,-0.004339436379439713,-0.051102121919278216,-0.004336641650753396,-0.04772875136257934,-0.07255844325332811,-0.1028560902856847,-0.0936301925125403,-0.095438766080381
0.196,-0.0344323079235823,-0.06545589281918403,-0.031031000202826682,0.05217450503410954,-0.003219655437064183,-0.050676095012393424,-0.0042093741466287995,-0.04503495219300277,-0.07506157921989805,-0.10840382339860623,-0.09481670231341653,-0.0968159370510546
0.198,-0.03972677937677335,-0.06453755997614548,-0.02520661363470888,0.0535852518059851,-0.00873263340590016,-0.047266604935168606,-0.00115647791305955,-0.03788253731872979,-0.0735179034469588,-0.1091493441457936,-0.09106441435952439,-0.0944367873171514
0.2,-0.048330483679877155,-0.0661386445013377,-0.018604470862867685,0.05867290753681729,-0.01580506368795034,-0.04485063367215141,0.0061882091007845474,-0.03038488376930573,-0.07012406738002469,-0.10565283958643025,-0.08545689738483456,-0.09081381657691553
0.202,-0.0498725049814423,-0.0685415449651628,-0.01940350172268016,0.061227864546698846,-0.015379947015454984,-0.046459211031795886,0.012381249198255959,-0.028777235174226035,-0.07003250509551118,-0.1048213282859321,-0.08532365425751845,-0.09086302752495208
0.204,-0.0425907642032015,-0.0690828192901018,-0.02670201018966459,0.0581335109478303,-0.007654094035052727,-0.05003409600383921,0.01119155834180386,-0.034009125714886006,-0.07393970731779075,-0.109008816558543,-0.09085218567311792,-0.09526605137342672
0.206,-0.0350934482975255,-0.0671893586856688,-0.031763511702697804,0.05306241018216016,-0.0014656580059620398,-0.05110170120614172,0.003964911381793737,-0.04079178973577569,-0.07786428539361881,-0.11353867902011028,-0.09436423368016651,-0.09898525706565742
0.208,-0.03307038033062725,-0.06454933158752742,-0.030927271296953836,0.05022217418201346,-0.0011259180991693531,-0.04908509802572983,-0.0020319337911699105,-0.04415709930061743,-0.07879924441999733,-0.11432900070102996,-0.0919831134917429,-0.09787937637550134
0.21,-0.03461281427224206,-0.06375203467670931,-0.028708387438152242,0.05050107587638256,-0.003082167297178559,-0.0476723461110823,-0.0019684713962897574,-0.043531859147733984,-0.07661217379032412,-0.11148965086671694,-0.08753647919577179,-0.09350626028790789
0.212,-0.0371299554618099,-0.06576005350729208,-0.02848965129796296,0.05305233270042758,-0.004352159339230194,-0.048825880729742,0.0027701022516493576,-0.04056233065253677,-0.07199484975471868,-0.10711332866067198,-0.08456930815826244,-0.08968654311463888
0.214,-0.04057896357630156,-0.06839176966572875,-0.027898217515604923,0.056349600083279064,-0.006340094359378712,-0.049932263296769336,0.007824922785281853,-0.03645900223216096,-0.06616542473112082,-0.10324325930934244,-0.08242426784749067,-0.08763535396936908
0.216,-0.04590439445415659,-0.06864243193543283,-0.022872036851296594,0.05912578128856963,-0.01184477880909211,-0.04717605514198122,0.010884926246812726,-0.03167500624928574,-0.06146840886785682,-0.10089061512178724,-0.08047017191837158,-0.08671235669877878
0.218,-0.05284935197019715,-0.06628364179995859,-0.013580259705255471,0.061349990326752896,-0.0207798635392605,-0.04056221111111519,0.012927532103021618,-0.026736105396079988,-0.05989004188717722,-0.10020718719596458,-0.08039358954472618,-0.0869080549709026
0.22,-0.05612482215941365,-0.06428054420402558,-0.008432210029089903,0.06216052651283325,-0.025968984577604378,-0.03635468078204243,0.014484081744903786,-0.023730513518840726,-0.061584224022799686,-0.1016617752645565,-0.08364669889073673,-0.08835049582113084
0.222,-0.04847734589852071,-0.06497934898213285,-0.016892372163850967,0.0588951643299982,-0.018486619749499514,-0.04120464207978848,0.013495632033307397,-0.025688912927954936,-0.0652173987244751,-0.10531679689630812,-0.08868036187394548,-0.09017746387164689
0.224,-0.033278536722027276,-0.06670905797056262,-0.033720004407933275,0.05183426899535909,-0.0024291049089162826,-0.051683915994658866,0.009208130050066267,-0.03232616429512498,-0.06868339619528292,-0.10870608224828246,-0.09151317953960537,-0.09105710549320015
0.226,-0.025557763274093807,-0.06667548842438809,-0.0412684825682496,0.0470571542599339,0.005690667681701208,-0.0564745443867227,0.005148253724191012,-0.03813567022277468,-0.06953493363144382,-0.10819812890285774,-0.08965847735875376,-0.09023100027555524
0.228,-0.0334602303733089,-0.06564342333648188,-0.03250064970278863,0.049786554118336476,-0.0018921353587463708,-0.051282116164015644,0.005010813111760047,-0.038102270142719795,-0.06652879559179188,-0.10342382087058463,-0.08478968513152199,-0.0882305127953308
0.23,-0.046193815520188856,-0.06610482073900024,-0.020587343776664595,0.05663705490171014,-0.01338346300187253,-0.04441424911923245,0.0073000048257201074,-0.03439547130042983,-0.06215604494049715,-0.09848832329441738,-0.08105372231632836,-0.08688779916922933
0.232,-0.04725181686845982,-0.06802533184971374,-0.02149033069357802,0.05930237487277367,-0.012923411609397665,-0.04552867506465412,0.007489390538695391,-0.03340135334519393,-0.06130810518885228,-0.09763316284663262,-0.08113926740128005,-0.08722628361115362
0.234,-0.03471947272421959,-0.06975098619066812,-0.03534188888890577,0.05511778822353211,0.00011539636951217496,-0.05427307647699131,0.004699606236763592,-0.03687381018632959,-0.06518135820860871,-0.10063686511663028,-0.08387700412950573,-0.08753805244645615
0.236,-0.02079735410024278,-0.07086092555661302,-0.05003067560075851,0.048933337899674766,0.013594863809508518,-0.06296284201750778,0.002071831876125972,-0.040558621560583645,-0.06946514491750111,-0.10392501825215852,-0.08655546957881004,-0.08611294307576241
0.238,-0.014285645826275783,-0.07150162669655105,-0.057306042800697024,0.045129514355538705,0.019738911393917268,-0.06668989312559735,0.0013584074387381546,-0.04094500933975672,-0.07034588290442258,-0.10515018872198412,-0.08878686904106506,-0.08444323913721248
0.24,-0.013978646796550014,-0.07096194491048889,-0.057371319761285997,0.043922893275154605,0.020155635860735478,-0.06606422787898152,0.0017025962597316128,-0.03925733884955973,-0.06902219027714088,-0.1049036768450221,-0.09157721648774332,-0.08502146926908376
0.242,-0.017579507581271553,-0.06896788910454588,-0.05175356220762471,0.04509261324809879,0.016591317181411217,-0.06257052535284165,0.002581991047856502,-0.03868338559632375,-0.06851396146578369,-0.10483330778032184,-0.09431111362506599,-0.08751339365505313
0.244,-0.02461729981169787,-0.06657527419674296,-0.04200380989350301,0.04845582468355967,0.008759289014756198,-0.056996988636766936,0.004085630314898269,-0.0401983580990181,-0.06866148060260296,-0.10536509415182055,-0.0949924154257125,-0.08837398127753243
0.246,-0.030490067193835936,-0.06468577053547397,-0.03404670743560606,0.0507369500213275,0.0010277116681002242,-0.05191411830832202,0.0051128908551170285,-0.042364438465606065,-0.06731462481460049,-0.10576320557076639,-0.09254512517545205,-0.08466508667428106
0.248,-0.02833960462714422,-0.06346355149300315,-0.03516310867356001,0.047948896211926835,0.0011525443175874417,-0.051248916390829624,0.0035281460801980923,-0.04452936002294442,-0.06536578941133701,-0.10630979899815567,-0.08903479062941685,-0.07885826077875376
0.25,-0.01917488574366195,-0.06350024393124773,-0.044819623627584675,0.04172270320335241,0.00990963371289261,-0.05574594562465986,-0.0010697355485300604,-0.047267453235088526,-0.0662818448794807,-0.1082069492649635,-0.0884984959219246,-0.07681054788437423
0.252,-0.013239525076339582,-0.06566622051700488,-0.05327775440831902,0.03893335592122107,0.01788352462146424,-0.061064744501248484,-0.004914179153235056,-0.04906755315443542,-0.07007561315373936,-0.11051544942856648,-0.09138542161470524,-0.079824888873526
0.254,-0.016337980679165875,-0.06923073155604052,-0.053720982750314436,0.04249120903788534,0.017702706219789744,-0.0630488958529182,-0.0035080216760695103,-0.047361377190030245,-0.0725394428936083,-0.11034756180452122,-0.09367573586592086,-0.08340643431582233
0.256,-0.02064102900457347,-0.07174964280759123,-0.05165379301685936,0.04653365114348008,0.014796739934566535,-0.06309220751920555,0.0013491020078758614,-0.04389124496744534,-0.07204734776878183,-0.10762342277496188,-0.09369331864765393,-0.08414158836843601
0.258,-0.017910206168830805,-0.07157928685358024,-0.05404696888810964,0.04553801909499133,0.016872901407306625,-0.0641104288909445,0.003225014913991037,-0.043097573018707175,-0.07173365811367728,-0.10603125914281916,-0.0942830941335702,-0.08270490536040667
0.26,-0.015064336525339365,-0.06910791509033799,-0.05455474434795606,0.04344149294333387,0.018148483318689814,-0.06321324922748983,0.0012621455755995807,-0.044317985697532015,-0.07264175980384747,-0.1068152434516078,-0.09639229037882112,-0.08028260221837748
0.262,-0.023652271695847698,-0.06559713266059158,-0.04266940141450318,0.04688087117911795,0.007792261572587177,-0.05535777837445476,0.0013721522011265054,-0.04242018560043012,-0.07122677791202939,-0.1059364642714294,-0.09658391119479062,-0.076911143721045
0.264,-0.03953020781835795,-0.06215466882344838,-0.023264389021866436,0.053601773480828174,-0.009990540399258346,-0.04330762954419765,0.005677020468945038,-0.036898576142775696,-0.06629864996010026,-0.10070194715762311,-0.09310551894913331,-0.07381589174956645
0.266,-0.046854126235611734,-0.05929960810166101,-0.01266368896521823,0.055123834668411094,-0.019040608550124242,-0.03610196962298172,0.00922848740378436,-0.03338803011264672,-0.06175298458229635,-0.09476498501185861,-0.08923187706072375,-0.07306207316993538
0.268,-0.038569477605117794,-0.0572195069248593,-0.01849114458272067,0.04855753678399699,-0.011688160309573363,-0.03838370056256503,0.00793979074120992,-0.03585445872239088,-0.06122465443009895,-0.09334877499038789,-0.08834156576220564,-0.07406473487569383
0.27,-0.02238843787889692,-0.056741411134090154,-0.03417831410608952,0.039505112318031166,0.005005448456056588,-0.046906266903996144,0.0024269299436987654,-0.042756687633812,-0.06523730740528128,-0.09691616403276883,-0.08956612481811806,-0.07428022959373223
0.272,-0.009311682442971295,-0.05878665712943286,-0.04956669665456952,0.03422703682988686,0.020116980679629658,-0.05582703716670057,-0.004804340366596549,-0.050121538586209734,-0.0722109694726408,-0.10195345205846178,-0.09053196564115551,-0.07396977583955913
0.274,-0.0022054842945730146,-0.06225626127137496,-0.06034250768385727,0.03290802372789695,0.029416783783136703,-0.06214227130033808,-0.011134736402753994,-0.054789705721207886,-0.0790622341046987,-0.10558083805233284,-0.09154522848622279,-0.07608429948701333
0.276,0.0037600954529478344,-0.06424603745311842,-0.06817883808630436,0.03136527771472726,0.035756672236737036,-0.06636502262924131,-0.014690097371154546,-0.0558864933362427,-0.0830806245261252,-0.10747344755343245,-0.09430351698176903,-0.08073709578595278
0.278,0.010013755101361451,-0.06353795628979675,-0.07351278359629,0.028267645113414744,0.04030338872363912,-0.06898488071473334,-0.015320946536245982,-0.0551852438747508,-0.08425572540574545,-0.10885326296454588,-0.09814837450472808,-0.08466555184753828
0.28,0.010085017532230681,-0.062010285721510745,-0.07223064234842988,0.02735122000759335,0.03851653766518616,-0.06844973800808234,-0.01374538824722722,-0.055037284926094915,-0.0840754722889214,-0.11045807397181671,-0.10020674788251588,-0.08617551196951904
0.282,0.0003740232671035253,-0.061403246344964864,-0.062378774602157724,0.031040261478052535,0.028538748923942966,-0.06365858995847407,-0.010465106498627778,-0.05534278614401536,-0.08285507294767436,-0.11077317324754055,-0.09868663989134036,-0.08583546488783443
0.284,-0.013244836417879997,-0.06082793050225399,-0.04823241578508111,0.03661174126958635,0.015790141905712162,-0.055794587009990626,-0.005944673527927982,-0.05380214688270818,-0.07960893940408803,-0.10736131611073879,-0.09418060839088269,-0.08384763414413049
0.286,-0.024169742053625706,-0.058498253761455475,-0.034353332829505534,0.04067575357362219,0.004932056967791486,-0.04666681310548028,-0.0006456267698680353,-0.049386991848438005,-0.07362642366659587,-0.10056059163666335,-0.0879780058844908,-0.08055434876786266
0.288,-0.032491376589905634,-0.05460608405501936,-0.021526278372923587,0.043379368558031345,-0.005205902021090625,-0.03775524748371907,0.004549487900004609,-0.04446959815637439,-0.06615454334607174,-0.09395994124504388,-0.0814449168633448,-0.07767387779397666
0.29,-0.039849645650038956,-0.05179274057427534,-0.011414959238468044,0.04634079692710733,-0.015017361548967996,-0.031644003291872766,0.0075529604413279265,-0.04263500989027341,-0.060974792665644074,-0.09085708220554224,-0.07686657591713018,-0.07689084534075981
0.292,-0.04233883063894937,-0.052516590655859965,-0.01015266002161276,0.04838610240277702,-0.01814108124194327,-0.03192370898341362,0.00670576475517584,-0.0446335151356709,-0.06162205415467632,-0.09233414954790627,-0.07625654474269096,-0.07841770132266351
0.294,-0.03515044186985366,-0.056451551557236156,-0.021567913605998475,0.0466371776207367,-0.008703512925447757,-0.03956099351920874,0.0033181108907011647,-0.04795017355937406,-0.0675688369474475,-0.09794046786154298,-0.07954510672517108,-0.08134159747594545
0.296,-0.02296733486707918,-0.061576075897497674,-0.038757716203775494,0.042495119380658725,0.007235975833777638,-0.050408577700086575,0.00046051635328592374,-0.05026669795997153,-0.07476318970226783,-0.1052141529305493,-0.08479005280178169,-0.08425201245454832
0.298,-0.016906452355233203,-0.06652315181518892,-0.04956798552606466,0.041486084547021726,0.016350618783761102,-0.05849304001970773,-0.0005363459569526903,-0.05144666982878585,-0.07974232085806464,-0.11039539742541071,-0.08969759013470484,-0.08656226652296521
0.3,-0.01984985352392677,-0.0702286181163668,-0.05041724686780018,0.04497225846233289,0.014679128580510833,-0.06151013212607352,-0.000794132960327689,-0.05226955228911335,-0.08178401896978955,-0.1121172573673521,-0.0934545785837683,-0.08958818255093783
0.302,-0.023346474598551138,-0.07105141473989764,-0.048168947534427985,0.047568272246372986,0.01076567722563597,-0.06149087022940141,-0.0014725401035334497,-0.05280916073643087,-0.08140173500695759,-0.11173963768445865,-0.09633487138873999,-0.09333044082407667
0.304,-0.020750843496534454,-0.0682134906948203,-0.048398483521949,0.045136611299494867,0.01170971915632775,-0.06040570871174081,-0.0019955860727848746,-0.05266552226613144,-0.07902102524780094,-0.11017922446326663,-0.09719330185021954,-0.09390509157189349
0.306,-0.014816377757098875,-0.06355884247474307,-0.04978314618585463,0.03997945677407601,0.015717491299732596,-0.058318309862574996,-0.0013227688154780822,-0.05251849705205338,-0.07593782126782542,-0.10786428945428628,-0.0943343690137668,-0.08902950843630818
0.308,-0.01006080972309095,-0.060820326169083165,-0.05139904228723162,0.036224667288091525,0.019827240481747402,-0.056825217019393325,-0.00028543754622734177,-0.054398978397147586,-0.07457064245252339,-0.10638519512838819,-0.08923790119132197,-0.08315587367470009
0.31,-0.006614675115333386,-0.06227663048348473,-0.055742625816228325,0.03515178633592026,0.02461603131841566,-0.05913185514912967,-0.001254802123787058,-0.05957977557258082,-0.07657847194880489,-0.10751828486000935,-0.08595720432775567,-0.08217601140971544
0.312,-0.00456904601602048,-0.06580437885136446,-0.06112692467871343,0.036167999519134186,0.028486847473975892,-0.06392779456847006,-0.004445469408200384,-0.06591196793947929,-0.08071255975915913,-0.11077605501568373,-0.086191196713769,-0.08546391315771072
0.314,-0.006874591547693791,-0.06696046290639956,-0.06026182906921177,0.03851601606920295,0.026267185628184045,-0.06473361381164579,-0.005776713396054506,-0.06839567386294236,-0.0830571569600068,-0.1125508630346528,-0.08753629247939007,-0.08727875914468833
0.316,-0.01476642809336603,-0.06512770140766347,-0.050831415442012626,0.041868996027225935,0.016900315726270546,-0.05912634450614395,-0.0017209957123734835,-0.06469015883391552,-0.08135677551450682,-0.1097286071751589,-0.08735210800125337,-0.08454872172666453
0.318,-0.024026846341318048,-0.06468259582817504,-0.04103562528479067,0.04620790222503689,0.007221946229699142,-0.05360649808604349,0.00476200357635755,-0.05875684390751727,-0.07842760269796409,-0.10479964065605467,-0.0864777972078747,-0.07997835495679449
0.32,-0.028190729016395702,-0.06851311960488246,-0.040473363662994255,0.05019392181534139,0.005266432698511435,-0.05520957818568892,0.007468434392651558,-0.0561750628964389,-0.07843412149046915,-0.10335687688113726,-0.08756878479723405,-0.07812925320421014
0.322,-0.02558425209622379,-0.07381082518074215,-0.048495344486648356,0.05160007263114271,0.011081754580557948,-0.062068871691823346,0.0049521951423192176,-0.057772898084229224,-0.08097058452511012,-0.10592315088198981,-0.09037413910491608,-0.08019684403364884
0.324,-0.022543180454164417,-0.07565237877830615,-0.05378421918031329,0.050960438553030236,0.015356819062872151,-0.06554672509533854,0.001437338502677121,-0.06036010446478451,-0.0818890128318826,-0.10773769427757715,-0.09111550880135914,-0.08292206608669947
0.326,-0.02801877010556788,-0.07260984614218466,-0.04547657674390522,0.05203083944777616,0.008306756574808604,-0.05973369820780304,0.0009048513829613847,-0.061193034620907326,-0.07887764534707419,-0.10645860765275028,-0.08743667197999365,-0.08269848271260229
0.328,-0.04293015763759007,-0.06800846496754125,-0.025845514533927146,0.056731575663156925,-0.008806954396315441,-0.04774137793399343,0.003371004460379236,-0.05954187100706321,-0.07343926348816941,-0.10417652799168646,-0.08162922140459328,-0.07946074960119205
0.33,-0.05542310410171982,-0.06594511587947502,-0.011130909343415258,0.06127875437950448,-0.021879437202089663,-0.03955254233378979,0.00592992899854429,-0.056799691048773235,-0.06878259787451393,-0.1031343158249498,-0.07816011675378175,-0.07597412742263679
0.332,-0.05166443252859469,-0.06696285398791135,-0.015882079815524676,0.059707328435769494,-0.017278346249524158,-0.04260384163802026,0.005548105164011892,-0.056284488871466865,-0.06792434983058925,-0.10421130028256176,-0.07947383466968912,-0.07488690168594823
0.334,-0.033212035781159756,-0.06855623634302609,-0.035992634399800355,0.05166898656582814,0.0019065300897916498,-0.05358624730491381,0.0022262203042597217,-0.05963273608679667,-0.0720514945406955,-0.1073235373976212,-0.08385599022188525,-0.07645449835586654
0.336,-0.017423980168759092,-0.06881516176259339,-0.052082376271568365,0.0443313123788823,0.017599103752243692,-0.061843470116628774,-0.00040535766210344386,-0.06379566882613961,-0.07923571752152402,-0.11106470218785067,-0.08725528696079499,-0.07850699855784515
0.338,-0.017274166117472168,-0.06819902316322349,-0.051469980347404846,0.04433051692967175,0.017174966383464163,-0.06156752231401118,0.0007100798509294956,-0.06448266899614556,-0.08538195321513055,-0.11395959836256049,-0.08782311943506557,-0.079153233318457
0.34,-0.027379091245621563,-0.06836749990908149,-0.04117655394713797,0.04991213634408254,0.00658286498796685,-0.05726348490549096,0.004147027440201494,-0.061196902124001466,-0.0872858279236462,-0.11544633345840291,-0.08745776337947551,-0.07913658723981448
0.342,-0.03382950235500765,-0.0700551877311113,-0.036103680574792796,0.054002026625146894,-7.155811118790008e-06,-0.05619461839203033,0.00579551596377181,-0.05753340486823133,-0.08570286793303114,-0.11531334242146624,-0.08881186133245211,-0.0807428125679237
0.344,-0.031044094750947708,-0.07185364343804866,-0.04064718886877057,0.052991984850076106,0.002890302041568548,-0.059309687640308424,0.0037715380893043743,-0.05751237340262854,-0.08446003970488798,-0.11469147782225517,-0.0921479250112065,-0.08457480964265718
0.346,-0.024027532795820837,-0.0716798620046829,-0.04763104472064359,0.04921017916055316,0.010027732173686965,-0.06229759939386106,0.00013945313453156752,-0.06175689249226582,-0.08556845773416279,-0.11614846445594618,-0.09515703237904179,-0.08837667226834056
0.348,-0.018231824669287626,-0.0699447943220469,-0.05178819920551578,0.045891398348140926,0.015827167262559026,-0.06336741878475448,-0.0022978595729624633,-0.06744024244515394,-0.08755572905067892,-0.11998019200239675,-0.09577242753772817,-0.08956915120157154
0.35,-0.013703773981385402,-0.06946204873021383,-0.05580608112888532,0.04343794929281716,0.02029450640890453,-0.06528674788822639,-0.003185800167520601,-0.0714408044702696,-0.08880983149090396,-0.12267656310865607,-0.0944729447775786,-0.08790467253319059
0.352,-0.01069284624408296,-0.07141530920159829,-0.060704756477438865,0.04196243478232726,0.023274653813670516,-0.06873119434385992,-0.003175948324029692,-0.0719096365652656,-0.08898789418924029,-0.12124510462500086,-0.09307112575702274,-0.08484793442492072
0.354,-0.013716693838839118,-0.07394713460001633,-0.0601960406629137,0.04377982316557967,0.020378565422971433,-0.06947270317241148,-0.0013264595882100426,-0.06831256222491669,-0.08758533479625674,-0.1169844642626611,-0.09223802371101787,-0.08134429674005514
0.356,-0.023951001911740512,-0.07575071127179286,-0.051792925283163906,0.05000593391474282,0.010826098436367426,-0.06572812391756948,0.003006017949096733,-0.06266255596763232,-0.08477028061023222,-0.11371561353003022,-0.0908196521517418,-0.07750330152034647
0.358,-0.033568320418515256,-0.07782554616827676,-0.04427273373377233,0.05699794329078859,0.002738378600033749,-0.06244585199866352,0.007194326106235267,-0.058863130193580096,-0.08265599808071498,-0.11361492433246946,-0.08808802610427703,-0.07439298807619982
0.36,-0.033520598333394366,-0.07996612045821253,-0.04647856490681121,0.05888199834345399,0.00425177095388829,-0.06409998717123067,0.007805457092962612,-0.058764172808307744,-0.08287632232767442,-0.11535214961426125,-0.08626799230677502,-0.0741459639422232
0.362,-0.02404981623544735,-0.07939510153545744,-0.0554734423879392,0.05370273477848438,0.01346526915963039,-0.06813797932497193,0.0049196497579136285,-0.061159394309064447,-0.08455180516050287,-0.11635650161423679,-0.08808975887815763,-0.07722867136085415
0.364,-0.015182615886196776,-0.07540295028246811,-0.0605401866147595,0.046710186421971334,0.02029064777878789,-0.06887249665481612,0.0014317595373370467,-0.06501718427886102,-0.08612659425107873,-0.11658899422372407,-0.09239560804567909,-0.08122830503671835
0.366,-0.016341864404632988,-0.07176457737157087,-0.05584342789903062,0.045543049309054714,0.017335219292289435,-0.06484850869200989,-0.00047226125885687417,-0.07033854318702036,-0.08688354445452308,-0.11813102172575762,-0.0955456249851945,-0.08292269489879281
0.368,-0.025250583065808397,-0.07240003583063567,-0.04740821988342105,0.05115526550612231,0.008729096010598576,-0.06062993257437741,-0.0006358631592155636,-0.07589976638156726,-0.08669480673550692,-0.1211535682530378,-0.09588006406836772,-0.08078364970462698
0.37,-0.029867816377742093,-0.07686975899415933,-0.04697884180074565,0.05626558097577089,0.006424686820678803,-0.06200072893974088,-0.00018211942209167,-0.07937291020843565,-0.08652543616983711,-0.12350538668577625,-0.09425343766023238,-0.07647056114414394
0.372,-0.02232950615328357,-0.081222464641961,-0.0587466299576714,0.05412893568573779,0.016552353045973234,-0.06962047793384582,-0.0003949110549995658,-0.08013034779602708,-0.08832408962390277,-0.12444771095961192,-0.09242569417156872,-0.07443892186513222
0.374,-0.008353019831431541,-0.08242165048452771,-0.0740037569174143,0.04663351269059974,0.0316699273688697,-0.07791012356376194,-0.0014857848719575621,-0.07975306462111878,-0.09253532006604234,-0.12529155083738383,-0.09214610326351652,-0.07775191968380739
0.376,-0.0010620305070087373,-0.08108934317657264,-0.08007294091209428,0.041788651323378063,0.03851302080167219,-0.08057622152201219,-0.0020716777613072565,-0.07920789385142632,-0.09599418457794383,-0.1263438274615431,-0.0934591994149708,-0.08366955377892574
0.378,-0.007476507775724004,-0.0796910450005787,-0.07227162074237398,0.044607455795603046,0.03129269316742937,-0.0761411402642738,-0.0002950468016839595,-0.07705470593863814,-0.09403824485814315,-0.12636647545126292,-0.09417463961638801,-0.08627351077459287
0.38,-0.024175831175432785,-0.07920173530474484,-0.05502865677827259,0.053231967473356095,0.014414602777099982,-0.06748709359764918,0.004814628151918758,-0.0712143542041218,-0.08545076031186681,-0.12407601917370457,-0.09192248911714836,-0.08291010211812026
0.382,-0.04310549799552331,-0.0788241242192552,-0.03568893994397308,0.06274885211660267,-0.004177160827152879,-0.05842741188089238,0.012509276597807734,-0.06265747212727127,-0.07440735616279325,-0.11871984123239929,-0.08568504070281995,-0.0752036615494507
0.384,-0.05698509244208054,-0.07800144765984506,-0.02102261520697114,0.06932914584923892,-0.017908119783388837,-0.0519530606684958,0.01958394595296292,-0.05661518197327289,-0.06728583054883888,-0.11184436740867384,-0.0771426591895589,-0.0665542908996782
0.386,-0.06181026892273049,-0.07707117329698612,-0.0154009123819852,0.07115455251102605,-0.02333923245739802,-0.04946978301633835,0.021928409113094727,-0.05773931950140576,-0.06730379250832287,-0.10776483016407074,-0.07145173765383965,-0.061074563012122086
0.388,-0.05780960614046922,-0.07684846478210669,-0.019378979462926806,0.0684172988823701,-0.02048750614675153,-0.05109081842329125,0.0184573064780995,-0.0644855146642384,-0.07180026405756869,-0.10906510369094213,-0.07245065093726033,-0.06084408967508287
0.39,-0.04822700401624097,-0.07835057143079123,-0.030547496179529794,0.06343982726129797,-0.011429039436203573,-0.05658617669995081,0.012385858509388134,-0.07144107570638844,-0.07590908981238557,-0.11387785250878085,-0.07733189494516068,-0.06323302389164719
0.392,-0.037928162570370474,-0.08153047027461569,-0.04385154984074753,0.059614620951526046,-0.00011638654366992819,-0.06402961868510194,0.00790559467397381,-0.07600341292374464,-0.07866630033296325,-0.11933367430183689,-0.08105601946817759,-0.06465667271994867
0.394,-0.03279531171032999,-0.08485445260715839,-0.052029736932436295,0.059506498154643477,0.007138243386840561,-0.06903556542988479,0.006784754980158978,-0.07888099893842068,-0.08287613701437799,-0.1241919083462418,-0.08330759958735784,-0.06536232740749794
0.396,-0.036319250019822634,-0.08738271131751932,-0.0509193200452814,0.06339176971174623,0.005842719151788755,-0.06894141155183231,0.00854878194374849,-0.07977187393452702,-0.08915665229066667,-0.1274189082794142,-0.08624291444546332,-0.06733519631763535
0.398,-0.044354307538158645,-0.08923167026086672,-0.04481697347934837,0.06825671875658278,-0.000638619387578014,-0.06625679751778765,0.011709375914428685,-0.07759643097535042,-0.0936595851041448,-0.12767429552685705,-0.08960509749700622,-0.07027792524698895
0.4,-0.047564387647472006,-0.08931962851528572,-0.0418018174838095,0.06928683889781787,-0.0038964581529731613,-0.06478404855610027,0.013650796700256646,-0.07428100252156326,-0.0930173442523364,-0.12512076930655236,-0.09177697075562104,-0.07238476003007331
0.402,-0.041976055581676386,-0.08594514792235254,-0.04402418156154978,0.06479630782016277,-0.0005481329666775002,-0.06464847713886768,0.0122541790675929,-0.07364727309980909,-0.08900165961867715,-0.12213688819212376,-0.09211693366946769,-0.07284321627632805
0.404,-0.033036596514517055,-0.08081131305115823,-0.047775999053054685,0.05864295537268631,0.0054004905192985295,-0.06464966929243274,0.008793121597336376,-0.07655113241265489,-0.08632054658140807,-0.12169760644102791,-0.09089609927452018,-0.07194938802172132
0.406,-0.02755611813407261,-0.07878627649030581,-0.05120085819558506,0.05564727250900884,0.00997132246946266,-0.06615670691967845,0.00617427256380642,-0.08053623615511775,-0.08724058773541694,-0.12494717725295079,-0.08920234530779575,-0.07080220068386778
0.408,-0.026110720300460525,-0.08159481483553743,-0.055469401620808274,0.056103500568641024,0.013226662968225809,-0.07024462387253008,0.004818518889839038,-0.08348931476994007,-0.08998694297003572,-0.1294659195859561,-0.08832104434419602,-0.07073776749670356
0.41,-0.02580117678918691,-0.08571412215334752,-0.05989995858163021,0.0573185616530142,0.015846878649469015,-0.07447127811771506,0.003556566060388202,-0.08477017759785778,-0.09174880458501775,-0.13088697671700647,-0.0882880370826571,-0.07141889766788354
0.412,-0.026155949471092673,-0.08821426391593769,-0.06193928644098125,0.05849094772103038,0.016729939405273148,-0.07642022588394166,0.0029906360168178757,-0.08414672302231276,-0.09185734354835867,-0.1280603411989507,-0.08805042689490701,-0.07159468628342693
0.414,-0.028731632935917774,-0.0901124771244508,-0.06105440871498378,0.060899318314936314,0.014877676547202488,-0.07684300689656898,0.004926069557868253,-0.08158962424905987,-0.09139649647774022,-0.12439336862569234,-0.0865855035500702,-0.07130683910464795
0.416,-0.03347031171560082,-0.09277914345122695,-0.058879991529138545,0.06473150979175915,0.011227160887928212,-0.07710563431369499,0.009102145229216272,-0.07780441760445034,-0.09122248592058946,-0.12284835395581778,-0.08379414118467436,-0.07067063236538566
0.418,-0.03738791474859371,-0.09486565229923123,-0.05721868225277336,0.06764790149882408,0.008555266953564499,-0.07706246845954419,0.012335460553678396,-0.07478891219092854,-0.09170593189191743,-0.1230397397470887,-0.08127531539535306,-0.06954766916120225
0.42,-0.038243665110338575,-0.09438767812660633,-0.05617141026785524,0.06762530705924352,0.008035160541677654,-0.07577119225936378,0.012141225521875743,-0.07405116977961076,-0.09196207512118629,-0.12309790483512807,-0.0806427839770498,-0.06895961323709172
0.422,-0.03978204398346556,-0.0919643178714669,-0.052330811841359084,0.0670640332574864,0.005310121627533972,-0.07211620736962583,0.010741499030889909,-0.07375931947146379,-0.088986425327866,-0.121431328557415,-0.08045721960589934,-0.06860377078715857
0.424,-0.04685551580175238,-0.08969548990511768,-0.04290355850358947,0.0694548543166058,-0.003768575997654993,-0.06619897795851486,0.01255221466743066,-0.0713328538856387,-0.0817277069832113,-0.1178526908191588,-0.07812673819601373,-0.06602414702758796
0.426,-0.05525932842284508,-0.0883363864131214,-0.03302960816067665,0.07263785402720123,-0.013537593673279759,-0.061133190453944955,0.01717691450441159,-0.06835617832338338,-0.07477415150596937,-0.11428788636796774,-0.0750280639927617,-0.06185451551996613
0.428,-0.0554175722659037,-0.08823737966988973,-0.03276255741981422,0.07183827782744841,-0.013131182587673889,-0.061403048439910665,0.01904880824075537,-0.06870876639952445,-0.07305095869807778,-0.11306375516847682,-0.07509223446765331,-0.06039287341912831
0.43,-0.045243937044945524,-0.09005749679214274,-0.044789782046979316,0.06704971395191034,-0.0006137314740570566,-0.06788910256090673,0.015267898742094204,-0.07312593053968612,-0.07554428687613335,-0.11468094875320087,-0.07827349473472303,-0.06283937844866096
0.432,-0.03282635475753423,-0.0924150260398983,-0.059487569489683964,0.062422294350528665,0.013684262072435506,-0.0755506784324987,0.009753488445710301,-0.07844525810703375,-0.07820478761393464,-0.11789436313682734,-0.08029566234681604,-0.06558652498151826
0.434,-0.028279120634558463,-0.09292107782980431,-0.06435191034056516,0.06167089760979517,0.017820028704115098,-0.07813007515301264,0.008231551034804406,-0.08081194927762929,-0.07897206910185998,-0.12046571778115972,-0.07854580781918918,-0.06531984008931675
0.436,-0.035548224369940436,-0.09239316716436854,-0.05654455512368242,0.0662346359608135,0.0092513589474076,-0.07486138511499127,0.012021150206906495,-0.07871997886599308,-0.07766522250077558,-0.12015190480140803,-0.07450363733898242,-0.061577634477077016
0.438,-0.0488492921143944,-0.09395245353645285,-0.045140339330763835,0.07405999820077723,-0.0034698920810272613,-0.07093205108463428,0.017742093651565413,-0.07449593120283053,-0.07537437883512009,-0.11739926427468476,-0.0714465596634358,-0.056399951323123684
0.44,-0.0560305711518535,-0.09760238008903921,-0.04188764162269813,0.07911982213651199,-0.008168605943366509,-0.07155850412784066,0.02109706654842589,-0.07274395697368198,-0.07452829893313409,-0.11575678228041822,-0.07150578136576526,-0.053684146461536214
0.442,-0.04959758350508289,-0.09944657250280128,-0.049907390722743535,0.07610728552282084,-0.00028931380636763746,-0.0766232881830266,0.019963885929416603,-0.0757653274364824,-0.07635261842610445,-0.11743545235739189,-0.07374533575632876,-0.0555647656685581
0.444,-0.034840888684507285,-0.09714742955548217,-0.061771907034221106,0.06676991325631458,0.012851380135950144,-0.08163313575325344,0.015158049544351833,-0.08116000311065616,-0.07933993574544604,-0.1206766476963263,-0.07569135440039532,-0.05955017569665246
0.446,-0.023445695431651772,-0.0931322115858185,-0.06875662919578461,0.05845847902856121,0.021028886247522548,-0.0833761266482204,0.00948677019614598,-0.0851671330544535,-0.08151683439086228,-0.12256157192236018,-0.07695169442841926,-0.06222679380731505
0.448,-0.020821858036791967,-0.091081085204019,-0.06925914259260392,0.05607849362541223,0.021796854667352678,-0.08271580698948716,0.005748286583677108,-0.08671213633741588,-0.08196447135424385,-0.12195284671753215,-0.07843903733603529,-0.0630720349147471
0.45,-0.023660495650417383,-0.09147929805899142,-0.06687128094426634,0.058260806190942906,0.019505958088331696,-0.0816376914228089,0.005236438388467811,-0.08649958646279697,-0.08024012657629813,-0.11957728882819839,-0.07874194677795483,-0.06204990198296517
0.452,-0.027823515965455337,-0.0924845050358917,-0.06383169564775347,0.06153093288077639,0.017081526816290205,-0.08018531899030341,0.007800137909187631,-0.08412260305266663,-0.07709890738774086,-0.11700957601526278,-0.07580353821251404,-0.05808945638852395
0.454,-0.03319695577792157,-0.09326363653021437,-0.05951028532147695,0.06483072415303949,0.013058697409152843,-0.07743716812559209,0.012040865673466189,-0.07912818315622387,-0.07520884718379633,-0.1152877850549099,-0.07164364604190546,-0.05249205166349523
0.456,-0.038988382398307014,-0.09404724071088176,-0.05478957756557091,0.06788615009569145,0.007396322039990212,-0.07428446304079027,0.015412427918897898,-0.07422888073833674,-0.07681112497008953,-0.1142756301692885,-0.07092074518415403,-0.049475420472868556
0.458,-0.04039610885562408,-0.09482037996675505,-0.05412341608921916,0.06867727252090769,0.005390384676051279,-0.07373467867582283,0.015829372280931932,-0.07360734999087613,-0.08107848745538203,-0.11400086425240753,-0.07497223540010362,-0.05168794722587454
0.46,-0.03592359197840075,-0.09586847155833234,-0.05933843399337286,0.06662739121927613,0.010140699835482835,-0.07710593347894497,0.013865689122327144,-0.07708561903858735,-0.08452906005773933,-0.11507715800454137,-0.08025599022460655,-0.05726586352517363
0.462,-0.03194260653296758,-0.09780179838025747,-0.06517401076979615,0.0652361474014477,0.01588456053936917,-0.08156996441180031,0.012165471211717821,-0.07986336881982134,-0.0842379096387198,-0.11727364579453126,-0.08287338061042504,-0.061642914701017494
0.464,-0.03343319063359481,-0.10013506428539913,-0.06637118673136655,0.06718114222638401,0.01606898474403079,-0.08388947373450982,0.01190749968464933,-0.07957098198458093,-0.08138182475379392,-0.1199124901449301,-0.08311228470670842,-0.062418688454298446
0.466,-0.03652074566874863,-0.10098883720830876,-0.06445205008305292,0.06971664021919216,0.012761270645741314,-0.08392365000832193,0.01199352401634938,-0.07903251757258435,-0.0797280111009918,-0.12256370833990297,-0.08380770612435892,-0.06156350998604925
0.468,-0.035440873951356144,-0.09910000261542522,-0.063413629850663,0.0688353262795937,0.011978299080217403,-0.08293252754033315,0.012224702149870599,-0.08056322023658995,-0.07988337132135973,-0.12377086383580696,-0.08472978327821994,-0.060754200269983044
0.47,-0.030385471769094872,-0.09576748490932249,-0.06454882199973214,0.06484500758636323,0.015318417443081064,-0.08203146369285105,0.013094117473922905,-0.08276176055175995,-0.07951779979291422,-0.12228832036998383,-0.08284738426078615,-0.05759401745208128
0.472,-0.024037605753480587,-0.09353798860184367,-0.06839285208725138,0.06043497178321207,0.02110010320475912,-0.08279205085346926,0.012890819582573739,-0.08406100157701189,-0.07901064203961491,-0.12007856262428396,-0.07894017357165001,-0.050929943113078684
0.474,-0.017113786234310296,-0.09359073163376307,-0.07572730492797757,0.05693987385502808,0.028350399411551774,-0.08625233906452176,0.01016550457913953,-0.08472567584456438,-0.08094350522188783,-0.12031428873505846,-0.07808269385701123,-0.04580624979483575
0.476,-0.012810201041547132,-0.09549188778403749,-0.08250741999644555,0.05582712861297867,0.03372712310312109,-0.09021935452174824,0.007660244726185462,-0.08456913164775477,-0.08448113743283071,-0.12235050063262165,-0.08153726325596485,-0.047116148648763255
0.478,-0.01920186191113984,-0.098337354638676,-0.07922413622713433,0.06039649655812058,0.02910090291531662,-0.08960544220143263,0.009625832256154382,-0.08195814133762033,-0.08494369980061955,-0.12180644597907728,-0.08382806915812435,-0.05149309823598034
0.48,-0.038568410231694696,-0.10149487229708874,-0.06300761849843464,0.07154958194058061,0.01160779025894629,-0.08286913034637565,0.016184954232594275,-0.07638410997038365,-0.07946244465977477,-0.11642618744155286,-0.0802798167613972,-0.05139094207400995
0.482,-0.0574823837791432,-0.10473250928333601,-0.04735699280363418,0.08271508058480284,-0.0057325271424838705,-0.0768672000998347,0.02247973789542424,-0.07079179536549604,-0.07124703079807121,-0.10997696186351684,-0.07363508151671613,-0.04616352439601222
0.484,-0.05824176839784564,-0.10782057125930522,-0.049738002826954134,0.0845734009664593,-0.005190097497151742,-0.08007748143725206,0.023521162088118986,-0.0695065325451881,-0.06687124553078601,-0.10864743740199508,-0.07103470584705524,-0.04336792826481024
0.486,-0.04169944335851793,-0.11036860441184455,-0.06876343028261234,0.07712556125501313,0.012190572822665486,-0.09109355977867635,0.019388195034753135,-0.07324719873160496,-0.06865035245400418,-0.11359727920546332,-0.07489259971272601,-0.04705766864211638
0.488,-0.028439002203862182,-0.11179115207249285,-0.08334520421861816,0.07110280370633616,0.0255166634056415,-0.09878045729187247,0.01501749866139132,-0.0777111992967948,-0.07155666487257976,-0.11896648244348768,-0.07885986065288217,-0.05079857255887786
0.49,-0.03309505030338452,-0.11083422627571735,-0.0778007686034237,0.07366937143421269,0.01993146074106186,-0.09493513084636253,0.014534255527302416,-0.07841945862937491,-0.0702031796457541,-0.1190306528378772,-0.07596345934801818,-0.047209935692431856
0.492,-0.04707628224724732,-0.10622178290973508,-0.05943033799586267,0.078995498688094,0.0037196721555351705,-0.08319185208316571,0.01711162976072595,-0.07552729029477727,-0.06635262366754881,-0.11508475779483605,-0.06820834232316164,-0.038856179257011396
0.494,-0.052164672110400184,-0.09948749065895067,-0.04764182244680445,0.07774288945389907,-0.004250624952857216,-0.07442661148735077,0.019343099436296165,-0.07273372794622347,-0.06573976108588993,-0.11242408766006098,-0.06358473305464131,-0.03424588780604372
0.496,-0.043029391872481844,-0.09565995729255578,-0.05256149226628732,0.07015659820646396,0.003662968757694995,-0.07577797719470274,0.019503852374793077,-0.07305602730205234,-0.0700343535927126,-0.11312885347880462,-0.06605196644207191,-0.036845650926149984
0.498,-0.029968208324045616,-0.09766471358299396,-0.06709181335972939,0.06385095424486484,0.018446759654113187,-0.08414554196210375,0.018270010051777603,-0.07604522614661055,-0.07531343579832454,-0.11494318909122697,-0.0718918860751981,-0.041768714800493614
0.5,-0.0240458916124803,-0.10161864589146324,-0.07667575028467434,0.06266225353428673,0.026797044197765824,-0.0900468770556348,0.016919423521788206,-0.07847534961039514,-0.07716696542833035,-0.1154559603155546,-0.07494468449481938,-0.04286566065589975
0.502,-0.026005182807829395,-0.10190250464523609,-0.07497298953057276,0.06391268332465036,0.02495891155219287,-0.08852858983945112,0.015755727719904262,-0.0785806681186809,-0.0756459637341549,-0.11504702810040951,-0.07386473830964928,-0.041342913949422154
0.504,-0.030387906717806324,-0.09886347600999955,-0.06768944204499037,0.0649147605467097,0.018748947052328283,-0.08350159829210424,0.014796749243253299,-0.07839275314272996,-0.07433631784962828,-0.11616347779534934,-0.07285460144227851,-0.04351662848626597
0.506,-0.03471132155021739,-0.09764409488130577,-0.06253688537618728,0.06670551906630107,0.013678717355574129,-0.08084353912347893,0.01515075977275712,-0.07992194409058269,-0.07470476966137522,-0.11996980454434211,-0.07511453502477171,-0.05011874504377248
0.508,-0.038713848809977094,-0.1008719901484299,-0.06233523290622094,0.07012261895297588,0.011525324920793379,-0.08230074587956202,0.016997698140721534,-0.08196440343569315,-0.07462169592518061,-0.12408393265102932,-0.07862148158609925,-0.0546201804952058
0.51,-0.03952697668902404,-0.10506612494470459,-0.06597585824582827,0.07219980851943811,0.013095944918874891,-0.08571513589975102,0.017865387203775483,-0.0828695429421977,-0.07309710536833988,-0.12535227230737198,-0.07974999103466159,-0.05331845605329197
0.512,-0.03620948602370227,-0.10493785668107102,-0.0688005372121838,0.07041635512811922,0.016350823852836698,-0.086955684377654,0.016625423263580852,-0.08238524063337342,-0.07161750202408439,-0.1236082486194612,-0.07787147866243126,-0.049834397196181615
0.514,-0.033812465341738256,-0.10029834553835251,-0.06601587614566165,0.06732984967086837,0.016264018539501258,-0.08368022067300408,0.0159899659231104,-0.08010781263556956,-0.07089833856529143,-0.12084633302628009,-0.07513628122891006,-0.0483697813750812
0.516,-0.03484061008379127,-0.0960027227769128,-0.06055391078228452,0.06605144813949144,0.012986049548225609,-0.0790555832628495,0.01714407623558193,-0.0769395524014471,-0.0712743848894956,-0.11924073723868761,-0.07445192445378179,-0.04947840170703596
0.518,-0.03313122634118878,-0.09517263709983538,-0.0616398417038523,0.0647221673156422,0.01410259679460827,-0.07879205297065052,0.016590199470578777,-0.07642911909187368,-0.07424581903328199,-0.12034781059975569,-0.07782351822883227,-0.052952589698213544
0.52,-0.02362277682674999,-0.09625852549370638,-0.0724063411682139,0.060483339578763264,0.023721636321116457,-0.08419420335986218,0.012058228220266788,-0.08017028295398425,-0.07952903894645216,-0.12356939578071396,-0.08393871601558851,-0.05806478988083795
0.522,-0.013034530331044372,-0.09677212000881591,-0.08350129773503974,0.055784864350025234,0.03420489884091842,-0.09012021400232192,0.007011194768049885,-0.08502273739754135,-0.08347564246588439,-0.1264296122005361,-0.08801561830973345,-0.06125780934173359
0.524,-0.013692492497462709,-0.09577674712998654,-0.08174067005501062,0.05586437137811728,0.03321917343112959,-0.08942829233068768,0.0065410281745856185,-0.087386969220294,-0.08331740035045526,-0.12723410794749898,-0.08698652451095286,-0.0593116221366722
0.526,-0.02844212080005112,-0.09322347580073813,-0.06440268536514648,0.06155898439450534,0.01778362802469857,-0.07977433558616416,0.011598145458300223,-0.0863477280692342,-0.08037502081437176,-0.12557702072756155,-0.08332419442003755,-0.053669988153701866
0.528,-0.04748686758061421,-0.09075810280402963,-0.043030770160015164,0.06902449084395999,-0.0020283443851668707,-0.0672467297527652,0.01876776543441511,-0.08239021417182375,-0.07695541434411635,-0.1211777497604462,-0.08044443637428474,-0.04777101150074825
0.53,-0.05999170398884668,-0.09168041670335592,-0.0315798428964627,0.07548661052568603,-0.014098636081755784,-0.06135495950717684,0.02421944083919002,-0.07739594140978191,-0.07326862166943042,-0.11486590884140063,-0.07764912056587492,-0.042673677719508175
0.532,-0.06346300172384092,-0.0970819077315884,-0.03343758519006411,0.08089054105750247,-0.015264102934768998,-0.06547982225177423,0.025984328563860706,-0.07517081110991941,-0.0700264813001518,-0.11014921453467612,-0.07403127052927076,-0.038835734049061855
0.534,-0.06097987139381813,-0.10378789421517132,-0.04259294630754884,0.08436820919163246,-0.009729950211195017,-0.07468834990165267,0.023410092789270285,-0.0777715246404305,-0.07019430233182727,-0.11101968591349873,-0.07302013258503463,-0.03878305527209253
0.536,-0.055290577829631295,-0.10738234862606692,-0.05227816876530468,0.08349527181389761,-0.002266601305616024,-0.08204324812641604,0.018085849640598353,-0.0819869548099636,-0.07452385935746764,-0.11713524151250757,-0.07770780814959143,-0.04350490664597197
0.538,-0.048845971021113495,-0.10604288490309081,-0.05805591893976833,0.07828863930504001,0.003327984422722583,-0.08407548277105499,0.01462567332372215,-0.08271024424806968,-0.07873243075847561,-0.12300798403809636,-0.08471496734788773,-0.04876192191474739
0.54,-0.04430898753603865,-0.1014463510542958,-0.0582865637023391,0.07230115037109935,0.004910732828952585,-0.081619115267241,0.016171449788591807,-0.0790875540941171,-0.0786078350470532,-0.1235187623164777,-0.08714393580247132,-0.049253501407900045
0.542,-0.04173057990076261,-0.09703901629782001,-0.056049147272654365,0.06850535303379982,0.004703235429980078,-0.07820653750103422,0.02008110398183569,-0.07514085919071214,-0.07523624581098001,-0.11952848925906279,-0.08262154303835424,-0.044979196433999384
0.544,-0.039419246788768514,-0.09569488955250945,-0.05632671278409304,0.06740438618213253,0.006545570955944117,-0.07719776106171235,0.021434641916686745,-0.07494926716698301,-0.0727432881073714,-0.116807998031877,-0.07589057496376699,-0.040587802210606656
0.546,-0.03767466015140126,-0.09771230166756656,-0.059739171148456914,0.06849115796885027,0.010062670311790815,-0.07898351255409887,0.01922461194660224,-0.0784877769638144,-0.07288372436836146,-0.1192722142256015,-0.07332632574678642,-0.03953360875814915
0.548,-0.03753244190783721,-0.10050423213774339,-0.06277413013050281,0.07032306408835298,0.012089392685930875,-0.08125142289320428,0.016480093458882027,-0.08258274265797519,-0.07409878507111473,-0.12490158063253749,-0.07640359362418482,-0.04112460250486828
0.55,-0.03755621500483465,-0.10140684380050556,-0.06378717137786624,0.07066979062509207,0.012401223395325312,-0.08236712844495862,0.015595040874721654,-0.08503131646969052,-0.07511796667083917,-0.12920197940291023,-0.08150789887310063,-0.04294170791074553
0.552,-0.03584592528363158,-0.10054426533638253,-0.06451819830935399,0.06884935875540703,0.013312547339860743,-0.08311847800302692,0.01632573800724494,-0.08556793609137782,-0.07643899439468393,-0.13026363902184768,-0.08489256368095015,-0.04376397605520783
0.554,-0.03392144220026948,-0.10000564895251501,-0.06581619547071169,0.06707314413940632,0.014648730384770927,-0.08453560228817122,0.01765666901172052,-0.08445995107955123,-0.078161145741233,-0.12921154338705565,-0.08586157429990021,-0.04348700726417575
0.556,-0.03435429781333938,-0.10090260036128335,-0.0665634469292329,0.06769656924774606,0.014354418917363953,-0.08605748233731,0.018633525066552713,-0.08348600341313289,-0.07981910438045187,-0.12820445150313245,-0.08577951842044473,-0.042597559025488375
0.558,-0.035353682702060275,-0.10217204219423956,-0.06722696970617593,0.06945100333443183,0.013739694131251829,-0.08702695959518307,0.017991513658169637,-0.08523208754935499,-0.08238035643979572,-0.12910984266228162,-0.08618811908568753,-0.0427826901724296
0.56,-0.032292172291936164,-0.10198658384754768,-0.07010773784854894,0.0685568153376476,0.016800903225463806,-0.08807366829458019,0.015404555674865818,-0.08886695151496457,-0.0868909612384673,-0.13248120442869313,-0.08793293650985777,-0.045737608897934844
0.562,-0.024583474726494636,-0.09973568528045347,-0.07521710148489454,0.06373031153017948,0.02380583646910108,-0.08958709314089361,0.012621495585515596,-0.09061067097798808,-0.09095057358470325,-0.13663576000769925,-0.09046931235735753,-0.050139847297828964
0.564,-0.018201410930026068,-0.09689836898329596,-0.07848960655053804,0.058591040127876165,0.028963156861797897,-0.09028031993509912,0.011837541902538117,-0.08933999474213693,-0.09050502674900221,-0.13822515010623326,-0.09177627418058301,-0.052096214060041744
0.566,-0.01881118599327621,-0.09554356891749662,-0.07646962138437804,0.05747459453294017,0.027242164892527038,-0.08892571485962718,0.012967954964587547,-0.08802791979847358,-0.08616314966047403,-0.13561948544895122,-0.09056359590559365,-0.05029931819585384
0.568,-0.022803004707371326,-0.09561048311389535,-0.07251483222977571,0.05910726869545952,0.022641821404100693,-0.0868466844975223,0.013830927411619802,-0.08935882653134757,-0.08330507636136796,-0.13153811683256686,-0.08855742230209278,-0.04821741988257788
0.57,-0.021646957570691832,-0.095599209838818,-0.0736177249148423,0.05858893368610187,0.023775775564206198,-0.08677721939007844,0.013118943293065538,-0.09229141745007603,-0.08458345433090995,-0.13002497821265388,-0.08855279802597017,-0.04920302986249665
0.572,-0.015569916468059778,-0.09568446888469372,-0.07990443021807474,0.055762052194349654,0.030780742347510597,-0.08902764499449331,0.011740450690581397,-0.09342913745927033,-0.08682475047707496,-0.13148177729441926,-0.09046519835064387,-0.05199768507563525
0.574,-0.01474322065187827,-0.09726227147758905,-0.08266129776899765,0.05617495670075319,0.033405169607231104,-0.09044844273848869,0.01171326874444868,-0.0908042341020644,-0.08606463351863246,-0.13213417857377316,-0.09085088180453427,-0.05244103738673717
0.576,-0.025676778663507326,-0.09993545573842218,-0.0748328834694159,0.06310895495543078,0.02382468834915866,-0.0878712663711199,0.01431612269460039,-0.0859959171962992,-0.08181144170575545,-0.12845559126594358,-0.08705302761483052,-0.04855433776114199
0.578,-0.041443024347599736,-0.1011775150234423,-0.060553245083974895,0.07203325652861667,0.007665961452004289,-0.08194988734287662,0.017999302286052378,-0.08273630063593225,-0.0768585799052156,-0.12235766905142476,-0.0821163209036686,-0.043594164311468356
0.58,-0.04908675098672864,-0.09919137922185911,-0.05075581949199852,0.07530975036323026,-0.0017492036383782118,-0.07661951059878855,0.019338059788274162,-0.08298980559187005,-0.07515314752432507,-0.12000469505470594,-0.08242273987705753,-0.04225387084718344
0.582,-0.04570951822849634,-0.09499637149596993,-0.049466451715302534,0.07176836410705068,4.969220285360007e-05,-0.0741407164802526,0.01762464162232039,-0.0848608501218224,-0.07818865229079076,-0.12412191263438671,-0.08834727134567393,-0.04402485225798545
0.584,-0.04035316261677221,-0.09113274169061834,-0.05059842175534142,0.06733114642408011,0.004855392223717386,-0.07281974630967353,0.01565629244157949,-0.08581283109800937,-0.08303658639648763,-0.13072441723590103,-0.09262505121908346,-0.04482786072842481
0.586,-0.03968804387170368,-0.08978984886623695,-0.04989350837662899,0.06632096449519505,0.0057797636175362255,-0.07151463928642059,0.015083765666770426,-0.08643184381092876,-0.08590770135339773,-0.13470299943129685,-0.0908172629366489,-0.044432689565822976
0.588,-0.0405168605324445,-0.09204994280036331,-0.051400786350834234,0.06724695503294607,0.005983537699761629,-0.07261903502155814,0.015118699370196692,-0.08841815318388817,-0.08663848620505275,-0.13518362694692515,-0.08717910276904604,-0.04634232183223083
0.59,-0.0381793361367417,-0.09640073702430844,-0.05799187822615434,0.06720116402931205,0.0099063636004046,-0.077096707912025,0.015594532300717003,-0.09103213681387497,-0.08772436874392404,-0.13450758286250153,-0.08733973406608984,-0.051427562921951504
0.592,-0.034711203748917514,-0.09889859388934444,-0.06381236004088021,0.06620765092503947,0.014074545101797554,-0.08070603312699293,0.016556163523535762,-0.09237629361452034,-0.09033266299442563,-0.13477145718337585,-0.09092105665115405,-0.05679178810032742
0.594,-0.03392612609441068,-0.09753131231273751,-0.06334142279252218,0.06569339048989774,0.013601593650919251,-0.0801076721552009,0.01621767924430852,-0.09219352780737365,-0.09317935652852054,-0.13636325600734603,-0.09410225328636448,-0.059539340242014925
0.596,-0.033113905501809954,-0.09549524480930345,-0.06252005024724437,0.0652762551571129,0.012883430925865663,-0.07970186595267344,0.013146621501538646,-0.09193932645486462,-0.09491181076664554,-0.13883098742177657,-0.09573100222995223,-0.0596481936103941
0.598,-0.02704904500750404,-0.0973020172041187,-0.07085473689800699,0.06387880261741166,0.019868348910984095,-0.08573031347540834,0.008794728213615051,-0.09299554278971744,-0.09572912590963302,-0.14167195730816365,-0.0978882758629669,-0.0602539371326571
0.6,-0.01972608558216782,-0.10228274014408244,-0.08341243481411771,0.06314841770761977,0.030139196128735158,-0.094555063154496,0.0066947006202152624,-0.09398352335302813,-0.09555972120540406,-0.14308488446771192,-0.10079628128343099,-0.06335155329298556
0.602,-0.02319736407443133,-0.10561415330131753,-0.08319146405060181,0.0666363217827541,0.028671799648794166,-0.09524563208149843,0.009831717642821359,-0.09123289999954558,-0.09300456903285372,-0.14040558256619498,-0.10099915017922596,-0.06604964994836693
0.604,-0.04028519762419774,-0.10482356239134025,-0.06503340952311303,0.07412442320973721,0.011418462978775799,-0.08485093589259989,0.017222103489924312,-0.08470382959289253,-0.08850348016009633,-0.1342470662879569,-0.0970588276811055,-0.06517653404077939
0.606,-0.05739153987317952,-0.10140385164664595,-0.044252315344470876,0.07986121164824048,-0.007002407870468484,-0.07263416282258948,0.023631874102002712,-0.07956522940156291,-0.08532300290217523,-0.1289617730386457,-0.09245475096800901,-0.06246833095877641
0.608,-0.0612065970601523,-0.09747376443827542,-0.036342194916408506,0.07928352436964357,-0.012591631687755116,-0.06755019379463537,0.024805085795131066,-0.07893182868643925,-0.08484553177078681,-0.12718713846965435,-0.09024049394632623,-0.061355060681568103
0.61,-0.054001510484081076,-0.09389859283785189,-0.03987400823553267,0.07430829127064781,-0.007643795786036994,-0.06868952976811994,0.021521749314067067,-0.08033840742790814,-0.08480880115840268,-0.12742301735977238,-0.08993325984230974,-0.06264416826658466
0.612,-0.046948280112414205,-0.09116445154988176,-0.044166791845316314,0.06996589932896013,-0.00276050765931781,-0.07010944724593797,0.01764957114119461,-0.08083126859444685,-0.0837124878664703,-0.12766698542271732,-0.09066777441693796,-0.06548376868588311
0.614,-0.04568307661147473,-0.09036614757206463,-0.04466477032233277,0.0687685010675365,-0.0024151703853242563,-0.06978544214746744,0.015846453759993346,-0.08074855963702339,-0.08322520709896848,-0.12849747101058834,-0.09272871749294584,-0.06921300251174153
0.616,-0.046534902334618815,-0.09213685964528226,-0.04561746160970699,0.06925624349195435,-0.0024207590383069784,-0.07048691918018084,0.015219516430502527,-0.0822788388351059,-0.08546125564512072,-0.13161071904258137,-0.09585292555713842,-0.07321459120174317
0.618,-0.04365365263263401,-0.09483340936618251,-0.0511971875269747,0.0684773239135162,0.0021311809229683314,-0.07394257643864717,0.013045943188689742,-0.08619779291970611,-0.08990812811582496,-0.13666001449515927,-0.0988627076644019,-0.07688036070360478
0.62,-0.036469489075823584,-0.09539212546422572,-0.05890093167502645,0.06522433699135713,0.009997808546757163,-0.077710575005375,0.009017665114197796,-0.09025324510021175,-0.09388829011214253,-0.14118149873266256,-0.10092303622651949,-0.0803678188641198
0.622,-0.028988865891502298,-0.09296170108346646,-0.0638322442892951,0.060966012507841096,0.01638015362457349,-0.07903920936482126,0.005763462441408894,-0.09213567370597883,-0.09603066363520818,-0.14369749779234098,-0.1019955677395316,-0.08381101846187407
0.624,-0.024408390954681083,-0.0903103455919432,-0.06556997264065176,0.058231133276680495,0.01931610808559123,-0.07891965390712141,0.004592578339640671,-0.09259082817140575,-0.09772604782880796,-0.14536199861771562,-0.10223570799472918,-0.08580818045496541
0.626,-0.024076181284269554,-0.09011051261367763,-0.06561459043946109,0.0587380189558783,0.01918497334933331,-0.07913600165312136,0.00440860453169427,-0.09257393860082831,-0.09969519691237055,-0.1474399525841623,-0.10135404208496694,-0.08474966158626102
0.628,-0.02981525307540678,-0.09185398041507509,-0.061787039282908414,0.06293403587010253,0.014548289764284544,-0.07828261055442978,0.005630610476537185,-0.09035039122972251,-0.09943247488072685,-0.14795396763049226,-0.09871553059616557,-0.08088078654240807
0.63,-0.041685567397486675,-0.09378645701079366,-0.05212684051472527,0.06968467559439208,0.004368007109850077,-0.07466624814776299,0.010168788004475494,-0.08500694933706984,-0.09473386423716158,-0.1438673676199929,-0.09488684400072983,-0.076004606199916
0.632,-0.05370581307251491,-0.09517013591448427,-0.0416081503666244,0.07566370641529785,-0.0066303507195838,-0.07040040049782875,0.01665399092398836,-0.07967743987168056,-0.08777527015169669,-0.13691475520686272,-0.09223162223318479,-0.07218152656152452
0.634,-0.057267473754334705,-0.0953175194654131,-0.038112169727774745,0.07684399166481083,-0.010591452952140349,-0.06883728444951284,0.020859086523058713,-0.07811958041589924,-0.08291150347974188,-0.1324944778255148,-0.09189868616861759,-0.07027284005627472
0.636,-0.0498341693810486,-0.09214275265221132,-0.04226300644923446,0.07158924664507332,-0.005557476437423563,-0.06905451633767998,0.021179887234864095,-0.08017663162224795,-0.08192510016928412,-0.1324415991603452,-0.09230237142307357,-0.06966219580086061
0.638,-0.03804269508869966,-0.08405464401854781,-0.0459563905187594,0.06248114223452797,0.0016260841801289897,-0.0662441151508641,0.01985452666535923,-0.08223047811731149,-0.08341090787938556,-0.13380987639203742,-0.09250409061522075,-0.06950189918728109
0.64,-0.03175246811539597,-0.07352920134335572,-0.0417746809804219,0.054981082525978275,0.0027212606073629656,-0.058266243176265116,0.019388522492530008,-0.08097462142383942,-0.0850060872626102,-0.1335704281852886,-0.09331071399665604,-0.06891307351532655
0.642,-0.034892507419374504,-0.06541950145447405,-0.030556182580073032,0.05261177078288969,-0.003676431671866282,-0.048415579746822236,0.020498083887799282,-0.07634130078662564,-0.08455390968700695,-0.13052976435181884,-0.09385272983944055,-0.06721550353555268
0.644,-0.042726578948049904,-0.061069256677700565,-0.01835773739229496,0.05358457076427111,-0.012693066507485818,-0.040436671264847984,0.022970896891055418,-0.07080383601894313,-0.0807704658944272,-0.1248510000306497,-0.09154630842307726,-0.06491598435750873
0.646,-0.047939721834022196,-0.05730872097242584,-0.009360282391037688,0.05337028207044964,-0.019527092608687093,-0.03435435921835135,0.026272343939069145,-0.06631728542625319,-0.0741931901065772,-0.11813207410247817,-0.08629720610427302,-0.062441360439849075
0.648,-0.04689767061184558,-0.051068547128451505,-0.004158501381668667,0.049394769980300665,-0.022405967743299334,-0.028595505092393787,0.029118530119413833,-0.0633581956440957,-0.0671125141276226,-0.11250861561293897,-0.08118959597837071,-0.05912716319673695
0.65,-0.04002222997727518,-0.04235302002879709,-0.0023296358904846726,0.042204144703434594,-0.02090860033573891,-0.023256552080941826,0.030170881769016156,-0.06198849110408265,-0.062295345111443856,-0.10923883028251065,-0.07846163764485893,-0.055700285932525774
0.652,-0.02962712053136865,-0.032858021323859773,-0.003237101988468606,0.03339776405928722,-0.015268176449361147,-0.01939752057685173,0.029558877891550667,-0.06158267767229173,-0.06111201472728561,-0.10828787402149231,-0.07744645126429298,-0.05483164164489202
0.654,-0.01904322915796165,-0.0243534708836787,-0.005313833296847502,0.024627410418605358,-0.007761496122629337,-0.017071482863948897,0.028691516798377073,-0.06038373710834264,-0.06237072482093456,-0.10838724116304048,-0.07702876757649592,-0.05696186107394888
0.656,-0.011319694724321783,-0.01877470910638338,-0.007453345785834122,0.017944995803323496,-0.0016576265834941902,-0.01594964204746342,0.028450561350383503,-0.05737224112159449,-0.06352747773076912,-0.1081488912471099,-0.07760903602703631,-0.05859420382133597
0.658,-0.0066941315426650196,-0.01692520749373934,-0.010228318978175983,0.01429195463573174,0.0019884787074646755,-0.01605938723091117,0.028187953260280507,-0.05399889532832868,-0.0630889819252432,-0.1077500042467792,-0.07942832986680462,-0.05703910744570416
0.66,-0.0031585693819192306,-0.017022525020186186,-0.013863549363001292,0.012318243072161342,0.004340296891799192,-0.016730195332727477,0.026811647378988644,-0.05242831437369995,-0.061655221685703775,-0.10824485207056544,-0.08090567706435099,-0.05413997463089076
0.662,-0.0003900469894181642,-0.017470972872131417,-0.017082236366966184,0.010996348896818997,0.006229948552976057,-0.017373113381096737,0.0245229708124017,-0.052780074661829914,-0.06107289605402082,-0.1097749354897446,-0.08019062511442714,-0.05294055860286273
0.664,-0.001044789064950934,-0.02037031823384479,-0.019326376839709853,0.012384405809191396,0.0072744607811107195,-0.019688202358374495,0.022317071094394698,-0.05422262358835193,-0.06281823417115635,-0.11231963213629981,-0.07813254893449254,-0.0539554145768724
0.666,-0.006957599561953303,-0.028784755751851434,-0.02182684592146148,0.019105303537314558,0.0068160891512592595,-0.025855774226927194,0.019563442115025153,-0.05777816431775461,-0.06726758270622957,-0.11664130700534188,-0.07860218168818027,-0.056708419528348035
0.668,-0.015015408435618932,-0.040756288563430526,-0.025718329712250174,0.02897976685611013,0.0055278622931124975,-0.034460673061006426,0.013986002270226143,-0.06497592056383127,-0.07380859182487894,-0.12279250053226223,-0.0843789133631704,-0.06123591741330706
0.67,-0.019801948934295037,-0.04970739972303145,-0.02977401259502515,0.0358967307234251,0.004924907708658368,-0.04094479254645411,0.005402871115253014,-0.07404245010672268,-0.0802635627214282,-0.12919314611394794,-0.09286362987283103,-0.06627312905954531
0.672,-0.020189959356185117,-0.05087744950711171,-0.03038228555825539,0.03662040333867554,0.004326134511258356,-0.04172290232564506,-0.0019555631357308307,-0.07957512829992054,-0.08286928960732305,-0.1331075534072346,-0.09709732530082538,-0.06796209322012882
0.674,-0.01804508351994576,-0.0442056402404115,-0.02584752574258504,0.03203548129837919,0.002352565969869256,-0.036558341708593914,-0.003379148875700509,-0.07697555103433333,-0.07903080027143794,-0.13144937635805914,-0.09198130258079874,-0.06290640829868772
0.676,-0.011856974433799121,-0.031803600521523576,-0.019887133341079496,0.02264952632185854,0.001773744692593589,-0.027832282863776737,0.000315196147737597,-0.06771012795652513,-0.07024974036658588,-0.1235630820411544,-0.07988596305857679,-0.053124731968487986
0.678,0.0005825596305942991,-0.015799923477696296,-0.016503208172849032,0.008602685408569526,0.006237495823777709,-0.01779743653489113,0.0032803203861321065,-0.05881271829762172,-0.06076209108923868,-0.11334103779368077,-0.06822303849679612,-0.0448239213807517
0.68,0.013993656926861355,0.0013582411258592935,-0.012636053430527575,-0.006318221077670301,0.011944711546638806,-0.006522566345398975,0.0015688214851721507,-0.05557715969357523,-0.05310930676095316,-0.10568908126182,-0.06111251505037718,-0.041256279017350725
0.682,0.017110093453526376,0.01590891121585474,-0.0011145567445002827,-0.014815141336758056,0.009041640029564806,0.006488459231828745,-0.0021606305858534024,-0.05659673923839438,-0.046496589820014395,-0.10133651236927951,-0.05680023704305353,-0.039884095427216285
0.684,0.005448769832325296,0.023791408866909527,0.018181427153891806,-0.012872612944240563,-0.00596907910025426,0.018972571135092826,-0.0024624458082278056,-0.058447068072457885,-0.040334873252148795,-0.0977882717545013,-0.052746372492087266,-0.03730668938098896
0.686,-0.009705649664130291,0.02391367560857294,0.033170566759029844,-0.0058958976584900175,-0.02193437369406663,0.025451936489208397,0.0006907270447027295,-0.06264169216525464,-0.03771515998107867,-0.09462545227710753,-0.04960939894479074,-0.03476971142572663
0.688,-0.01123400793817405,0.0190457408696352,0.029917053117310924,-0.0036829692763756822,-0.02255901976920856,0.021371177413557953,0.0012288350784829501,-0.07242748434839148,-0.04248276139775442,-0.09445713179911956,-0.050249130070687806,-0.03619838413628982
0.69,0.0036798655250581927,0.012460436916818913,0.008766359659844736,-0.00852495720545464,-0.005228692785945123,0.008379301047136677,-0.004214219334580605,-0.08436384253322311,-0.05326539255997092,-0.09828497273143914,-0.05548796861216652,-0.041058148745210576
0.692,0.02005670077243459,0.005198631043687875,-0.014673346106926558,-0.012957395218396678,0.015273054018217862,-0.00609674533622361,-0.011414697533180673,-0.09030328580706706,-0.06336476185221838,-0.10312110386597188,-0.06154260796637492,-0.04385586428588929
0.694,0.023070921353647342,-0.002592650599563154,-0.025559778971681116,-0.009875366450768384,0.023230172656236527,-0.015327478855891696,-0.014122698993667885,-0.0869891255711108,-0.06663424571244637,-0.1051510664895562,-0.06372466583739131,-0.04180722731537418
0.696,0.013220863433322091,-0.00936798008095398,-0.022636693392626396,-0.000830452495139109,0.017141717793974134,-0.017889695747808784,-0.01080906138919777,-0.07821964410625014,-0.06220085950949075,-0.10335508444998034,-0.06154497343133028,-0.0380961214734992
0.698,0.0020509106304121526,-0.012339947147561125,-0.01447022041041934,0.006673428265977917,0.006857961428572781,-0.015729319423853475,-0.0048837232997935055,-0.06938679701115985,-0.0543120798091242,-0.09951386442762092,-0.05785161820469174,-0.03633312786913283
0.7,-0.0023736752550877565,-0.00952121206127778,-0.00715972980104582,0.007655645753940811,0.00013444753080173245,-0.010027663582860028,-0.0003854890529719593,-0.06359997594929935,-0.04815661961707864,-0.09590296293767853,-0.0544579536184775,-0.036065311569137816
0.702,-0.001786292318563932,-0.0026114238320370303,-0.0007878028364341823,0.003979034609940282,-0.0029918471095526197,-0.002033095512298933,0.0014219944832006028,-0.06113374616142045,-0.04574908597865269,-0.09392630643628294,-0.05097384091792254,-0.03524677089407246
0.704,-0.00021695034775945496,0.0026145886597642447,0.0028560200112843007,0.00045068082661238955,-0.00341145843726091,0.0032816972656351034,0.0011515785715004807,-0.060416076312360935,-0.04575616841335041,-0.09388252918994158,-0.04749174125840681,-0.033751187999942055
0.706,0.004237450078634808,0.0019391236576391836,-0.0023069847235119476,-0.0018824904037487865,0.0021941808930295522,0.00014379241643982214,-0.0012942969703126984,-0.060209525582122676,-0.045898342451066554,-0.0945785836220187,-0.04598010287477737,-0.032686603771728204
0.708,0.014602141439222388,-0.002370536862654665,-0.01699016665769382,-0.005591128979822526,0.014899685919784167,-0.010361621001272994,-0.005808657757954493,-0.06064689448544117,-0.04492888898608418,-0.09424330928779423,-0.04774881552057777,-0.03267808179076482
0.71,0.025926366272596195,-0.005554003370168611,-0.03146205839702333,-0.010329978395605507,0.027225184393821107,-0.020355296724575367,-0.0097750665259543,-0.06164948599988573,-0.04326835413111634,-0.09271712230730196,-0.051064412519956595,-0.03376506733710363
0.712,0.02961895320767515,-0.007013048372783158,-0.03649287606314156,-0.011609159025704184,0.03070954306301542,-0.024207800168509087,-0.010510617240569444,-0.06240302781380793,-0.04271301221654938,-0.0923398565058584,-0.05322834832605477,-0.03524831537328493
0.714,0.02509804943433181,-0.009514335057403801,-0.034257315683671345,-0.007493311006559034,0.02672773034237539,-0.02389615106864012,-0.00950618382919154,-0.0635377358561567,-0.04567437157882724,-0.09631854544991965,-0.054282126417963976,-0.03596883838994374
0.716,0.019443062527710255,-0.013927323677301272,-0.03281799970870942,-0.0015527676529518825,0.023174926967004433,-0.024321130983727898,-0.010394111622537354,-0.0667814242301558,-0.05287913010514106,-0.10466902652975144,-0.05603562218288706,-0.03553355006471535
0.718,0.016474030041332337,-0.01884049612239582,-0.03473541549087246,0.0030256329691093005,0.023232317066026277,-0.027184677692334847,-0.013128570195324967,-0.07127298948291591,-0.0612218826082839,-0.11233338715415352,-0.05829960435189711,-0.0348551017646162
0.72,0.012989169988394986,-0.024173167126770312,-0.036766406460746706,0.007686946314270028,0.02342608097818367,-0.031437953822024335,-0.013984542453353314,-0.07398074774261154,-0.06668457593134457,-0.1148289391854108,-0.059904235203092245,-0.03583323433023804
0.722,0.006067192902058184,-0.031022675846053466,-0.036978502344307926,0.01447112651282816,0.02091517331273097,-0.036153928598628,-0.01109222770789034,-0.07439751470962701,-0.07001071352923371,-0.11457823042819532,-0.062146967596954,-0.039749209815036636
0.724,-0.0019657637663598824,-0.03914816771865807,-0.03729191150291072,0.022268836244331843,0.017527701837654813,-0.04111488605233465,-0.006600056414660872,-0.07531393243910013,-0.07610628619598073,-0.11737926875056676,-0.06712774506023728,-0.04563079154247363
0.726,-0.0074011654559986255,-0.047949639469331576,-0.04080165033813524,0.02931155521253311,0.01657589317487361,-0.04699642521608138,-0.0032720545523476407,-0.07913688215493996,-0.0870265776826768,-0.12462647414796482,-0.07440791251565236,-0.05187841033098848
0.728,-0.010106467684860633,-0.058057913731149845,-0.0484178207357845,0.03585775420513377,0.01849443065504728,-0.05493652324369325,-0.0015402984547954754,-0.08554192226332105,-0.09942351935251431,-0.13346860719013715,-0.08266596600775515,-0.05874927326023616
0.73,-0.013230873234626399,-0.06956339533246465,-0.05703451897708359,0.043091713491770614,0.02039396317053116,-0.06417703003671026,-0.00035413284000532783,-0.092197961883779,-0.10974225197501083,-0.14218517345418252,-0.0920977517121053,-0.06709715802918734
0.732,-0.02053253031978691,-0.0805414761055407,-0.06063800571546437,0.0518084913319127,0.018205776789348142,-0.07105322154973447,0.0012635397573866462,-0.09653137960978002,-0.1173394868515694,-0.15046272761973345,-0.10199583747900164,-0.07537186588877759
0.734,-0.03456208593045553,-0.08896442469599952,-0.05451374412731698,0.06264613798633026,0.008843701053029474,-0.07206730422892021,0.004355706462485394,-0.0965985995014116,-0.12171164209571388,-0.1562826661744405,-0.10895002752633712,-0.08016435589839867
0.736,-0.052883387834721206,-0.09479822801160753,-0.04145871288539312,0.07466129648189551,-0.005638383922202703,-0.06855342624203198,0.00942132928284714,-0.09226312858100513,-0.12165984880649763,-0.15771695161610677,-0.1107261275248222,-0.08021568240258721
0.738,-0.0657010466346889,-0.09936918518508397,-0.03319271207546347,0.08351967788916002,-0.015555402101138973,-0.06702911383073458,0.014437012548726256,-0.0870674265354942,-0.11862061116841185,-0.15688814085822667,-0.10964760328355765,-0.07838427969369502
0.74,-0.06412312155101019,-0.10342685403669111,-0.03947989867048993,0.08492183716342097,-0.011943223904994,-0.07252008588984826,0.015474151043283682,-0.08642553650720591,-0.11729549931696924,-0.15829526272231545,-0.11019344662472244,-0.07920102779738392
0.742,-0.050311894789570155,-0.10597251965653089,-0.0565325258090226,0.07936932553219875,0.0027278527741272174,-0.08230026684232677,0.010720113751334718,-0.09218104527816882,-0.12116188249477453,-0.1637802285159382,-0.11476808937192083,-0.08466052473690425
0.744,-0.03398571478878929,-0.10519316291326217,-0.07209236465824635,0.07079258464454614,0.01811818969649615,-0.08925480740582126,0.0031444377823297443,-0.10068224419554027,-0.128433703790231,-0.17080091606857498,-0.12204766037368825,-0.09187615854487988
0.746,-0.02228095702694206,-0.10107493373353968,-0.07906422047460566,0.06261463318852688,0.027473236099026997,-0.09015058918791645,-0.0018744155292677888,-0.10669628361572192,-0.1336334083349777,-0.1750035519398817,-0.12807802959917303,-0.09572467051685979
0.748,-0.01656287292045712,-0.09594670993765962,-0.07910026601318353,0.05664897256232423,0.03082922408857495,-0.08741162130703753,-0.0016666972742516788,-0.10789607047034486,-0.13306262847361058,-0.1740414231637851,-0.1289544107688829,-0.09415856358980619
0.75,-0.015782010510712697,-0.0920622242088776,-0.07587488291380064,0.053838399112516755,0.029929998781003317,-0.08418569090821014,0.0015873169955301547,-0.10583700241059758,-0.12804611465218765,-0.1693641175607247,-0.12395172329827102,-0.08941220479459086
0.752,-0.02004386726696226,-0.09012953233644798,-0.06975890204214234,0.05496103619283269,0.024421944329900164,-0.08072484474230804,0.0038796126980371473,-0.10364431153896216,-0.12292863012118274,-0.16462290222316717,-0.11677931123633822,-0.08492265928497707
0.754,-0.029615962406669694,-0.09023446723858247,-0.060364177917149694,0.06016404076277756,0.014267047870774756,-0.07619564663574836,0.003741585693028128,-0.1027435260962568,-0.12073855742269023,-0.16243004847602943,-0.11257907694901137,-0.08318233451900815
0.756,-0.04168118538445557,-0.0929980733783652,-0.05128441537127073,0.06807050705556675,0.003305770427808514,-0.07241629096962568,0.003209011262973,-0.10203316081392873,-0.12108994778952659,-0.16268529587911276,-0.11335331081266517,-0.08521062780139833
0.758,-0.05105044114968498,-0.09864691904062056,-0.048034929664333086,0.07597060560960844,-0.0029743267572382194,-0.0729713736200081,0.004770999479250944,-0.1003770777434671,-0.12170424225143114,-0.16385931551084984,-0.1172081381129757,-0.08976365269568756
0.76,-0.053832442077188215,-0.10524350734737185,-0.05224699663752834,0.08084873572532117,-0.0022476675165833183,-0.07864948449537715,0.00787359398395053,-0.09876112677016977,-0.12163354753280882,-0.16538196249208995,-0.12134515244979593,-0.09380300919872615
0.762,-0.050436596366899546,-0.10990922569984188,-0.06021044739769905,0.0815477297590948,0.0031712220960893184,-0.08610866771412082,0.009574011075407276,-0.09902144037868507,-0.12260361524671963,-0.1676733981255264,-0.12421756181214616,-0.0954823455439235
0.764,-0.04512233488754886,-0.11136296579466709,-0.06645533207427683,0.07982754641091884,0.008872113998431484,-0.0910353939350907,0.008450355695829073,-0.10118013354013967,-0.12643465481661456,-0.17005557454947967,-0.12547193325005024,-0.09601176700799877
0.766,-0.04094896136365431,-0.10989632690226751,-0.06873619383635003,0.07745045728410936,0.012722265551723413,-0.09181218350698667,0.005828727282112019,-0.10339523059627972,-0.13180588667503787,-0.17096102545300895,-0.1254182632668406,-0.09731366147388698
0.768,-0.03841212268218711,-0.10619387554157861,-0.06756166747731344,0.07451595891967418,0.014332291984605615,-0.08904935783530299,0.004121015610024052,-0.10382489409701848,-0.13474429443011846,-0.16982378723279667,-0.12384983584950714,-0.09855134569925222
0.77,-0.040175307233286904,-0.10112949688480699,-0.060931391807949216,0.07237450334623564,0.010376960071485345,-0.08232091283254137,0.005609904006811505,-0.10134219466906863,-0.13246394849744694,-0.1666393922484574,-0.11971646440511824,-0.09648211550309936
0.772,-0.04893975335694138,-0.09632691746012072,-0.047372188555823994,0.07371930097457446,-0.0015231903923044346,-0.07218484693593186,0.010503930860677291,-0.09602473455046864,-0.12682180155220787,-0.16142910770486854,-0.11397179121573386,-0.09008095356363349
0.774,-0.059780076190918977,-0.09393738471381163,-0.033908159332531315,0.07788639901120632,-0.014645397742092368,-0.06414138325246006,0.01557943840839637,-0.09007561425224872,-0.12307721950330636,-0.15592135380391323,-0.11065384228607326,-0.08347357845900504
0.776,-0.06393926671566744,-0.09493964567803781,-0.030694990325634764,0.08081297455961019,-0.018834604696149563,-0.06380325330998558,0.017317854880753897,-0.08667695034132748,-0.1241738093851165,-0.15370687670913574,-0.11254310527710745,-0.08185769700265802
0.778,-0.06031311181793952,-0.09834608403103066,-0.03821030414212625,0.08102123734494501,-0.013335876991332735,-0.06974938375715739,0.015794074862390338,-0.08723840006549756,-0.1279949570570372,-0.1567525451140828,-0.11794241337796438,-0.0859847832274286
0.78,-0.05546281291198727,-0.10258376155103792,-0.04802477921260335,0.08101945189551102,-0.005764853022992459,-0.07640393330148908,0.013594594738924016,-0.09024364578320289,-0.1309438721966491,-0.16240972099321635,-0.12292672481536038,-0.09274418717774018
0.782,-0.053201782745348654,-0.10689281096402235,-0.05486693003230873,0.0821556828739553,-0.0004433751202844507,-0.08154926516676932,0.012415694618375576,-0.0926045491105081,-0.1315628656482077,-0.1659225353888674,-0.12482051912195419,-0.09827548424641323
0.784,-0.05099430400264865,-0.1104712573275507,-0.060228033044906676,0.08231116244528607,0.004476650780236097,-0.08611261407418584,0.012122762893287179,-0.09264156864152283,-0.1306132236558796,-0.16589359883225924,-0.12367122269515435,-0.09982998493234169
0.786,-0.04663527301192313,-0.11098293818463699,-0.06450995583260058,0.07950209726239914,0.009370677462113664,-0.08860142559703948,0.01177289679196956,-0.09198777390162104,-0.1298016217816002,-0.16481480149480285,-0.12160252251099378,-0.09789018432396307
0.788,-0.041833011684278644,-0.10660160961964038,-0.06479424584336575,0.07452325854233503,0.011314069313578718,-0.08616969220908063,0.010717413281644968,-0.09309860086034923,-0.12988111718205156,-0.16454264550399889,-0.12048304897370585,-0.0957435601104877
0.79,-0.03726752048743189,-0.0995343681955364,-0.06252311591645494,0.06886425115553467,0.011305517382882624,-0.08118989967365028,0.009023953777364402,-0.09560281248093316,-0.129798838473232,-0.16443862078939014,-0.12068648882463465,-0.0959303904915758
0.792,-0.03159356608997922,-0.09493085353452502,-0.06366696982295189,0.06375619749405972,0.013989613958045863,-0.08004115493892854,0.007280056162915289,-0.09719716866243737,-0.12878113220586387,-0.16367865392585546,-0.12176576931099693,-0.09868332747900715
0.794,-0.02795631263431612,-0.09589708743804459,-0.06806025997023357,0.06229544027628703,0.01789215344019658,-0.08391042997952444,0.007255577071113777,-0.0959540889926665,-0.12720083892226783,-0.16249710135175244,-0.12241559545106757,-0.10215347706086512
0.796,-0.03267767387441878,-0.10098141270423794,-0.0683080954655913,0.06745696934337302,0.015778058367131087,-0.08719406708189381,0.012754846940954603,-0.08920848235447419,-0.12428140104003824,-0.16172179891807276,-0.12152638481509465,-0.103597571141847
0.798,-0.045276238618691525,-0.10826412135395841,-0.06319438717221171,0.07804968456806216,0.00720268492816498,-0.08795046376212348,0.028318628431467836,-0.07177055573730219,-0.11850178726466788,-0.16344694015017644,-0.12246147746007213,-0.10415163279225527
0.8,-0.05794842807625431,-0.12112299451583007,-0.06360559557191232,0.0913861419598263,0.0017141093429698152,-0.09417295851743722,0.05783656632878603,-0.03602187420818408,-0.11045665045742056,-0.17143035963489806,-0.13390397948129795,-0.11176555744640854
0.802,-0.06636349930485153,-0.14581636695817407,-0.07980021921884839,0.10813567630184383,0.006267026635064227,-0.11474162753606716,0.10553118775790088,0.027057703764553742,-0.10107315749918176,-0.18873874421285902,-0.16249103109884044,-0.1351666841241754
0.804,-0.07374638008500915,-0.18226259044972307,-0.1086509907866328,0.12985359732592158,0.01679372759746743,-0.14756816021847804,0.17496943968476586,0.12437509955074709,-0.08766557484876267,-0.214642166829774,-0.20552046667817628,-0.17545264536201244
0.806,-0.08262735703692889,-0.22050117045450449,-0.13803136826289866,0.15301588529154153,0.025819234448205913,-0.18097562586316773,0.263106291354195,0.253627638599873,-0.06520987780348302,-0.24363564313368893,-0.25277576521884343,-0.22496085826896833
0.808,-0.09029727575471216,-0.2477500799132833,-0.15778479997433684,0.17019574135552104,0.03070453656404637,-0.2037782392282471,0.3568415624947441,0.3986438591411586,-0.03087836206610198,-0.2669478431268646,-0.29341265841642417,-0.2713203852872797
0.81,-0.0942494013319402,-0.25673982945009777,-0.16279213066529571,0.17664318918923955,0.031083428977316536,-0.2105412227046286,0.43869461489076317,0.5342102304246167,0.013127939238126232,-0.2764164232833308,-0.31910960205475297,-0.3018880163543746
0.812,-0.09340142238424867,-0.24633194688522134,-0.15297622738994235,0.17099223838424088,0.027180562754485244,-0.20086835928693217,0.4950604652944966,0.6377188433514508,0.05992050216876245,-0.2683136690338563,-0.3235877203776035,-0.3087936184318278
0.814,-0.08355821432997314,-0.21652381820419675,-0.1328290957204078,0.15077163166139929,0.02267427455163503,-0.17643921319596703,0.5191045010349437,0.6986225740599937,0.10419100911898127,-0.24173891605021644,-0.30273981738289724,-0.2913633277093756
0.816,-0.06045289918962654,-0.16345520222094095,-0.10290472382298035,0.11200637131464665,0.019984726590322698,-0.13488414590693354,0.5108689587017702,0.7209490785521131,0.15168449838945436,-0.1927626203156543,-0.2544247175970333,-0.25223371244635867
0.818,-0.026275796388980616,-0.0797098955444499,-0.05345874890910956,0.05277394413456853,0.01325130204095998,-0.0676871329679574,0.4765305335561352,0.7179580602021333,0.21747206699518315,-0.11433576795563537,-0.1775931050593116,-0.19297210025959727
0.82,0.012850038574448991,0.036658800823263366,0.023721930255686093,-0.024225688252688952,-0.005362415510773211,0.02944066769005006,0.4243851968030607,0.7015319286340933,0.30989381876090666,-0.004389085756193603,-0.07365197344956577,-0.11425593268666895
0.822,0.054218826446634165,0.17375499589895627,0.11938692956200603,-0.11198471000376398,-0.03319522097189601,0.1455963879835983,0.3621073833942007,0.6788414522898393,0.42355521677704483,0.13112285167135324,0.05262359145375853,-0.01699917513135457
0.824,0.10046842253981639,0.31091986942479827,0.21015072881369545,-0.20254128314898528,-0.05667136471233521,0.25928074257416817,0.29791292042984485,0.6609725688271755,0.5530612390412722,0.28692160020781854,0.1963353179605185,0.09704579989980223
0.826,0.15403484780892887,0.4323988962632234,0.27796397544519863,-0.2900428377507758,-0.06454656200870887,0.35408284631383496,0.23750931543458043,0.6607537382575774,0.6987324837116836,0.46263401426393835,0.3545866354032343,0.22363425619876384
0.828,0.210323207458288,0.5360399528244805,0.32545741444672543,-0.3710409889886296,-0.06024440711371318,0.43000094916313775,0.17633160377974616,0.6673453699254599,0.8481808049640688,0.6524639530394286,0.5237995043045925,0.35674776783922263
0.83,0.25885797214552636,0.6335834909546114,0.37473709236770736,-0.44526863811314593,-0.06051146253145082,0.5034503891737065,0.09892761404237072,0.6313778420799074,0.9703620061599011,0.8402975021833038,0.6988859772251377,0.49348033940089747
0.832,0.2924349697466863,0.7453221360192408,0.45302829641399045,-0.51822714356509,-0.08280164513805799,0.5983594584922766,-0.010466699363104669,0.4950915266327505,1.0445184495539934,1.014807363890931,0.8778424372158904,0.6368002599862822
0.834,0.3141374867037481,0.8863403874573037,0.5722935208711573,-0.5989505050927593,-0.13127953160056285,0.7287493608954616,-0.15497068932987784,0.24778387355656303,1.0846078970576327,1.181887677342822,1.06255592691874,0.7902161528924017
0.836,0.3350737171186499,1.0448847292406873,0.7099232941552358,-0.6881472689947699,-0.18874627088145848,0.8771394595367837,-0.3183800911329971,-0.04893280919385663,1.123550365984234,1.3509705813656718,1.248127942187246,0.9472110709542593
0.838,0.3644774036237009,1.174911264806152,0.8108356584905282,-0.7681622877098722,-0.22327970937651598,0.9923394621274572,-0.4701209077604311,-0.30136421772691907,1.1769077071100233,1.5115946972898082,1.412616711800208,1.0867774994981148
0.84,0.3999801222295652,1.2232754587131556,0.8240401376102343,-0.8109286481306635,-0.2113225958168398,1.0225944736648263,-0.5827062977491784,-0.4583494840975106,1.2263972868064994,1.6307500402530468,1.5241391880459492,1.182677052889959
0.842,0.42741023637981196,1.1694205258677444,0.742716861947325,-0.7982516701991772,-0.15699880247045375,0.9549442140904049,-0.6470880361343455,-0.5375858486891021,1.2392523110765798,1.6737560569025434,1.5585661774004635,1.217513195489712
0.844,0.43188337588130954,1.0345008032415925,0.6028637207065077,-0.7328261872795274,-0.08542899606601828,0.8178341330445935,-0.6678737160988579,-0.5762483812429923,1.2005176938951694,1.6251171741161954,1.507976351166097,1.1870131653688556
0.846,0.4082171199917959,0.8551535393560079,0.44673536145538745,-0.6308262616939905,-0.019764083391929185,0.6500705442071854,-0.6460091743339327,-0.5821515078622933,1.1189888757425677,1.4893532714430506,1.3772948502558355,1.0950457239546953
0.848,0.3600120872309791,0.6604716496952334,0.30010662391716,-0.5092224022298557,0.029129913070525412,0.4789663998251921,-0.57564076344048,-0.5488143770407271,1.0031001648548177,1.2805707431513824,1.1820805335272855,0.9522343458576086
0.85,0.2947544641258851,0.4764040726391712,0.18128131435571582,-0.3845672828683917,0.05572921564849582,0.3271446027122171,-0.46295542557301095,-0.49580262041091183,0.8451432929789852,1.0216701176919156,0.9512177835404647,0.7812824608480583
0.852,0.22335406789168585,0.3328646532122379,0.10906520998123932,-0.27689049271879673,0.05581522596717362,0.21944629787031383,-0.34003668422356337,-0.4681959331306075,0.6327064975156712,0.7452895103413969,0.7217643263192569,0.6143299424227934
0.854,0.15679601012315764,0.24655366720914268,0.08925909022786538,-0.2002792925015361,0.031862322865322666,0.16700401190585462,-0.24845489880414753,-0.49555693642830845,0.36574625158359153,0.4783237796728364,0.5202703844310588,0.47397365289399357
0.856,0.09843739422848352,0.20232349357931154,0.10359161611736348,-0.14921393703685396,-0.0048903276511639785,0.15264453588795948,-0.2094463023683851,-0.5629687876385598,0.06758465025796248,0.2310025385266746,0.350220675180464,0.35866012795160596
0.858,0.046527558830081826,0.1684859057905948,0.12212830428502656,-0.10691866859325426,-0.039786015492688336,0.14531100505701353,-0.21524778478241724,-0.6258117160692699,-0.20569711217406483,0.01634882235773584,0.20490650935150612,0.25530486126268226
0.86,0.005221329351231751,0.12983831164023676,0.1251214211886175,-0.06755063759670615,-0.06112047598209835,0.1273921412753772,-0.24335794278825906,-0.6467762617667073,-0.37843806945822106,-0.1320958666880909,0.08925646318158167,0.16287798787875393
0.862,-0.017838313301388072,0.09477915888956462,0.11301726405501805,-0.03872142839556193,-0.06616686627802432,0.10333145171608869,-0.2698152755975381,-0.6163108403846346,-0.408333645811286,-0.1865353377473666,0.017816403473440667,0.09364789946709681
0.864,-0.024590180412580796,0.07342882644959911,0.09816804613599832,-0.024204030500436517,-0.06233271798916718,0.08486889238128002,-0.27418718610589604,-0.5472307391347024,-0.3315203017930759,-0.16491993748446174,-0.008857893773076497,0.05359863239762046
0.866,-0.02544610638488635,0.060868237138154424,0.086573636204618,-0.01649203009181003,-0.05721126594540359,0.07286935756322233,-0.2471480045453694,-0.4607278688474839,-0.2360090326998714,-0.12319659286206922,-0.013520545086489958,0.031750398317283095
0.868,-0.02670060668675014,0.04453733109359686,0.07188737718020888,-0.006906967488311839,-0.050275382896977944,0.05742211309752186,-0.1987284371038453,-0.3762151343292297,-0.18562684688036407,-0.10547747084854564,-0.022627182899596844,0.01109601226792954
0.87,-0.02750393938935763,0.021520908586631984,0.04976016096940253,0.004895337373404584,-0.039277008489786325,0.034527464776319426,-0.15153661095118598,-0.3055861629134433,-0.17977661082886162,-0.11418645022166725,-0.0439778580273671,-0.015094496831163736
0.872,-0.02559727356093304,0.001033545579245663,0.026920698279879942,0.01346591053707689,-0.027226701706831447,0.012551281446771855,-0.12029642350741962,-0.2503945181950929,-0.18092195815138906,-0.12669992905874244,-0.06664773078902424,-0.04014520633546806
0.874,-0.020110905618799767,-0.010536602196370672,0.009279856012017907,0.01614703196196725,-0.016692265049490472,-0.0019383338873962222,-0.10123735287193655,-0.20383685388358652,-0.1633568635085977,-0.1270003237066484,-0.07750458125188964,-0.05429831707018978
0.876,-0.012222850714385298,-0.0189451635420375,-0.007277375119376592,0.0167660639406132,-0.005297001021162533,-0.014034398832592975,-0.0827230765415389,-0.1599996139696111,-0.13282829298613333,-0.11854853732854043,-0.07538879781650358,-0.05628304403908629
0.878,-0.007555547221482368,-0.03236363933093118,-0.02514038822517521,0.02169898910544123,0.005984584472807225,-0.029348493602432853,-0.06013870346828,-0.1217451380096934,-0.10934321518666416,-0.11392429555043061,-0.07051336775576902,-0.05386871573010616
0.88,-0.013917569177670223,-0.04884376911649993,-0.03474107810280486,0.03330312404481681,0.008067889433453964,-0.04232397996038587,-0.03703529281915553,-0.09516093740992172,-0.10019948970261558,-0.11699221684250655,-0.07078194764011483,-0.05308389380144313
0.882,-0.030609344463274957,-0.05986818582749583,-0.028733828204951167,0.046881683789587535,-0.002983531936911789,-0.04521692536625271,-0.016639575154069632,-0.07852416604731863,-0.09457803098929828,-0.1187058873887992,-0.07347703636203677,-0.05216287221006966
0.884,-0.043624023635645874,-0.06323009507049734,-0.019229343830639133,0.05464504922484239,-0.014138988460151675,-0.042908961238324314,0.0016397953007112704,-0.06332863330012502,-0.08155681312700579,-0.11120976007411747,-0.07324786842924562,-0.048941393025396164
0.886,-0.03930682362361381,-0.06527443735512456,-0.02598354821152534,0.05323235721114517,-0.008524143735129436,-0.047956192135801455,0.017601895264215472,-0.0449256797747474,-0.06383028394620083,-0.09893222635343168,-0.07038311210676364,-0.046322550132634185
0.888,-0.021836968428689894,-0.07109090892760564,-0.049457996468141155,0.04741423051723796,0.012032243785763976,-0.06270362672405216,0.027873880116571832,-0.02627893818387216,-0.050296798077082774,-0.09078388440214129,-0.06698489514617514,-0.04592539213384904
0.89,-0.009220074359885465,-0.07936837316885179,-0.07024456869927552,0.0456652011657995,0.028916769298747154,-0.07673717052582997,0.030577306471109716,-0.011875125762192958,-0.04346316912876027,-0.08839046136495517,-0.06305748702923254,-0.04484906160379692
0.892,-0.010435812346182486,-0.08654688492020535,-0.07604933134337882,0.050436215094783424,0.03156208442736725,-0.0823693658566592,0.028458124720089642,-0.002774035151697534,-0.04005688448874005,-0.08797030959118679,-0.05969090830690404,-0.04274334222703988
0.894,-0.015954649791021926,-0.09035934520173525,-0.07432293159748475,0.055166212537395426,0.02840627380313376,-0.08276369674358076,0.025808347494048478,0.0028712660892841603,-0.03810771649563306,-0.08793161810982271,-0.05996927648523318,-0.04390236237646793
0.896,-0.014770086062596579,-0.09046745414709458,-0.07566968150768864,0.05403867311095481,0.030137624771819357,-0.08359101499426808,0.025563017582039164,0.008162614174283375,-0.03762042349977732,-0.08880364570511291,-0.06467581165491,-0.04965568126292357
0.898,-0.010364600213589398,-0.08899943520978502,-0.07854522477152892,0.05040328211053094,0.03394244199028526,-0.08491399267318997,0.02920184738574376,0.015488656069451752,-0.03712297566291599,-0.08927371851605563,-0.07033376309267818,-0.055472043584728736
0.9,-0.01278400794417502,-0.08854498300526588,-0.07545660393639941,0.05106156196740105,0.030842763363649533,-0.08345072394995026,0.03588849766577022,0.023405400612428618,-0.03382577782350279,-0.08746639291222555,-0.07294752361540113,-0.05756437567550202
0.902,-0.022020762657739362,-0.08856745654834765,-0.06613429647640479,0.055878579710438,0.021073949616945545,-0.07831733762904355,0.041742010625060125,0.026578094666934723,-0.027409469208338352,-0.08479640485192015,-0.07220126476854703,-0.0575897293597952
0.904,-0.02802547212424093,-0.08597285703776597,-0.05782692587025631,0.05809971569317544,0.013844250026906682,-0.07194859519329605,0.0425108446552108,0.02133850869992284,-0.021308103879425406,-0.08390020493077108,-0.06995022467776772,-0.05851415536247097
0.906,-0.025326836760656335,-0.07921474659820346,-0.054370039926165334,0.053829603961968515,0.013777313913046079,-0.06634932771530867,0.037769552302037025,0.01098011704885426,-0.01856553840032872,-0.08356024027026869,-0.06626010328503713,-0.05896875597678903
0.908,-0.019960531684254372,-0.07073730107792964,-0.05168141900272985,0.04723149965326421,0.015280916745952102,-0.06127953846302314,0.03193375831318058,0.0037814956230314673,-0.017931803556463018,-0.08053021214580468,-0.06068112076403055,-0.055177905351703284
0.91,-0.020201109571902923,-0.0655422255910989,-0.04608793760840695,0.045218753208303396,0.01210163557468008,-0.05706615782310552,0.030193473541933195,0.005475441055168402,-0.016234710801938525,-0.07528286351258323,-0.055606965474396086,-0.047406807348118384
0.912,-0.024387120223828253,-0.06657617594144545,-0.042370582953841586,0.0483671541849974,0.007733723376651843,-0.05655805481297496,0.032749338699298323,0.01439109394939218,-0.013475499222875045,-0.07190453230009643,-0.05439575472912956,-0.04134260400410678
0.914,-0.02273229956467378,-0.07218515460516368,-0.04922093140848595,0.050502359021983134,0.01175000441755936,-0.06261393459400186,0.034914400754845865,0.024225416136409043,-0.013102862614539957,-0.07353021336071748,-0.057711474772712636,-0.042308111950819335
0.916,-0.01336220586439491,-0.07951315656938777,-0.06593905589155732,0.04909686448928292,0.024620134847120754,-0.07376240362855772,0.03470101490576003,0.030958864981115938,-0.01678119113626737,-0.07936043082461226,-0.06340901289517638,-0.049331635492826466
0.918,-0.00944329015240455,-0.08719892672178997,-0.0777480745293563,0.05028940271344321,0.03209487163392175,-0.08281639521584264,0.036459365466866775,0.03579890805713496,-0.020542099377617706,-0.08463073683229608,-0.06804309538475643,-0.056093713482353445
0.92,-0.022973187030224294,-0.09324919063796556,-0.07026383541107603,0.05942856588277659,0.021205064588802308,-0.08219818443883327,0.0435398030843089,0.04109438284962863,-0.018395959874635694,-0.08410320328340706,-0.06861662692752468,-0.05720542079945589
0.922,-0.046385310706164126,-0.09471312489873863,-0.048049751847055226,0.07170509440176645,-0.0014323511115081307,-0.07245105662666117,0.05169088183821058,0.045401349836959,-0.009859780577662822,-0.0771937580052665,-0.06514957759410603,-0.05260804797803091
0.924,-0.05811226354896299,-0.09083607491626913,-0.03228224404694877,0.07620052351769879,-0.014482229641869081,-0.06292383192006641,0.05388361759487985,0.044733070958009706,-0.0010904417439411423,-0.06837867208050401,-0.060965131943934464,-0.04653453124326635
0.926,-0.04669847011734549,-0.08355788897901073,-0.03668887494842222,0.0676472081299626,-0.006107708673469243,-0.060943552207403835,0.04888878826165802,0.03817306481086,0.002637039882566001,-0.061858255703090476,-0.0584533218186864,-0.042699952796821414
0.928,-0.02327984028253212,-0.07485432142536368,-0.05194969244492099,0.05167116444348817,0.01312740522913437,-0.06327111398946599,0.041471349317705034,0.02986996622369034,0.0022129568997849864,-0.058175642623322935,-0.05642059378266407,-0.04103812817622064
0.93,-0.006950537583530992,-0.06628891496211883,-0.06008537154288389,0.038371787392998145,0.025181877703740273,-0.06265083131042756,0.035756850840076446,0.025205881882773302,0.0011769324270332767,-0.056169082506968906,-0.05375219525494832,-0.03966656086467523
0.932,-0.004048848259739906,-0.06066972606866849,-0.057410366751629034,0.03312286294933165,0.025281656140956222,-0.05907957375543882,0.03241580030702877,0.02694269611883233,0.0011305552463409406,-0.055064185983849843,-0.0521193868428921,-0.03797836508479358
0.934,-0.006834152754925218,-0.06065773807439624,-0.05451565065301756,0.03408608756924737,0.0223200112108048,-0.05860295501210231,0.03141572261820231,0.0345493237748739,0.0016143555223270467,-0.05469354234789235,-0.052906924653847075,-0.03703734926783817
