time,I,II,III,aVR,aVL,aVF,V1,V2,V3,V4,V5,V6
0.0,0.00021939620688464173,-0.002566935620550308,-0.00278633182743495,0.0011847395171770653,0.0014918942068155637,-0.0026766337239926287,0.0,0.006647705068604644,0.001930686620584847,-0.002566935620550308,-0.0008556452068501026,-0.004058829827365872
0.002,0.0015325538613534173,-0.017930880177834983,-0.019463434039188397,0.008275790851308452,0.010421366257203237,-0.018697157108511688,0.0,0.04643638199900854,0.01348647397991007,-0.017930880177834983,-0.005976960059278327,-0.02835224643503822
0.004,0.004806744460818515,-0.056238910191576626,-0.06104565465239514,0.025956420088419977,0.0326858623335659,-0.05864228242198588,0.0,0.14564435716280102,0.04229935125520293,-0.056238910191576626,-0.01874630339719221,-0.08892477252514253
0.006,0.009032796624600437,-0.10568372050782511,-0.11471651713242553,0.04877710177284235,0.061423017047282966,-0.11020011882012531,0.0,0.27369373772539324,0.07948861029648382,-0.10568372050782511,-0.0352279068359417,-0.16710673755510808
0.008,0.011368807131406474,-0.13591107336833302,-0.14727988049973947,0.06288345271641052,0.07869008459693727,-0.14159547693403626,0.0,0.3509031649433362,0.10219558558384646,-0.13558197905800606,-0.04486489870900839,-0.2146011579652703
0.01,0.009798914875561053,-0.13498671311737173,-0.14478562799293276,0.06333550658523292,0.07639740858378402,-0.1398861705551523,0.0,0.341810948867155,0.10124947874620076,-0.1325781842218993,-0.04180613879918245,-0.21116472549427112
0.012,0.005066758209308516,-0.12360607296583306,-0.12867283117514158,0.06015605476727421,0.06550272285713127,-0.12613945207048732,0.0,0.2943603864440305,0.09169356795793637,-0.11551998124048625,-0.030573824074283957,-0.18746654385816858
0.014,0.00020854894335878282,-0.12493034572586337,-0.12513889466922215,0.06331545827209711,0.06083782188367406,-0.12503462019754272,0.0,0.2709799740845639,0.09035663762264157,-0.10812374314512287,-0.019693379959693863,-0.179997689631846
0.016,-0.0016661623618397427,-0.13843604089861827,-0.1367698785367785,0.07091144055623486,0.0656859542137698,-0.13760295971769837,-0.00021939620688464173,0.28251163128302315,0.09675208110359373,-0.1137403400108154,-0.013675241782947437,-0.19097743347183335
0.018,0.0004679131192303254,-0.14935228841020398,-0.1498202015294343,0.0750550487851772,0.07387872375703239,-0.14958624496981912,-0.0015325538613534173,0.3006293945393833,0.1001470012297252,-0.12187383760729717,-0.011488374196288745,-0.20039181160643596
0.02,0.005221681169129984,-0.15025794942036394,-0.15547963058949393,0.07277120582048202,0.08001351357989427,-0.15286879000492892,-0.004806744460818515,0.3051236181403994,0.09560502473956731,-0.12691149563609855,-0.010471572094508035,-0.19695222352739947
0.022,0.009783832384336132,-0.14601064692480653,-0.1557944793091427,0.06804607902085245,0.08309116987315533,-0.1509025631169746,-0.009032796624600437,0.30117029885188995,0.08814150462707404,-0.13234909730155217,-0.009699031720417736,-0.186457909939622
0.024,0.011724755984248804,-0.14345543384015624,-0.1551801898244051,0.06574832028370094,0.083710434324626,-0.14931781183228063,-0.011368807131406474,0.30142451161727307,0.08480907679133283,-0.14129107891097886,-0.009190784525163748,-0.17839922794999163
0.026,0.010992046892647121,-0.1427170166807949,-0.15370906357344205,0.06608245540762951,0.08195993642157562,-0.14821304012711844,-0.009798914875561053,0.30800990528393885,0.08717250841660737,-0.14975131194995853,-0.007469631072514384,-0.1740389859661612
0.028,0.009638130096381165,-0.13912939801265936,-0.14876752810904048,0.06558855314992335,0.07792778146993212,-0.14394846306084993,-0.005066758209308516,0.3140736501548857,0.09213933223344645,-0.1506826153717428,-0.002109483378617189,-0.16842991818876799
0.03,0.009313916402349277,-0.13098194134340932,-0.1402958577457585,0.06230402254737785,0.07288329812501503,-0.13563889954458394,-0.00020854894335878282,0.3148597824664343,0.09696510497677663,-0.14273605119702568,0.006663912894394379,-0.1594813408418835
0.032,0.009755811692947676,-0.12212053610274409,-0.13187634779569174,0.058015111728627444,0.06882540165886923,-0.12705329100093907,0.0018855585687243845,0.31242012329632385,0.10137357304195188,-0.13260530421635588,0.015181449779400278,-0.15041471482322422
0.034,0.009428986684236591,-0.11694116243206862,-0.12637014911630523,0.05563694959375585,0.06643071199766583,-0.12198394518780405,0.0010646407421230919,0.31152245301289583,0.1063662098269151,-0.1285656638037299,0.02053538800132869,-0.1437055190501669
0.036,0.006938440291580996,-0.11595497172671229,-0.12289341201829332,0.05626010702090871,0.06430852537760737,-0.12029758857409019,-0.000414936708311469,0.3144728188038684,0.11217078908300814,-0.13345694677858175,0.023620094781180892,-0.13755647396563608
0.038,0.0021420898226174045,-0.11681062545501719,-0.1189527152776346,0.05887988343671336,0.06075464867968243,-0.11926647282088859,-0.0007510357597356964,0.32014456623574,0.11708105559970149,-0.14335876019443108,0.027112444075042055,-0.12997513528870974
0.04,-0.0038478432689029664,-0.11739663959806534,-0.11357073594985084,0.061801387069979945,0.05549773988895792,-0.11693011729190285,-0.00013655264595768997,0.3263912038625048,0.11918578572183286,-0.15157949429827508,0.03206095373790387,-0.122639713225736
0.042,-0.009949015067185506,-0.1172357035858111,-0.10743994390476094,0.06412134266763213,0.04934005781709455,-0.11325352544281968,0.00033942184426734886,0.3327325708896285,0.1195314383290493,-0.15357782736405817,0.037058603991721416,-0.11911036610639317
0.044,-0.015656416970882752,-0.1168883180257295,-0.1017125755009286,0.0660140313277047,0.043300857493778995,-0.10933446970201392,0.00023537257374586665,0.34023573307249766,0.12132437958968059,-0.14878096968815308,0.039985670102132005,-0.12089408203622093
0.046,-0.019999714224829483,-0.11682294237531175,-0.0977265078129423,0.06764893416651788,0.038834902989739795,-0.10660086233701087,-7.257083439005671e-05,0.3487543249466258,0.12528107052795445,-0.14007040545579003,0.04021942331485329,-0.1255638705974314
0.048,-0.0218706483501576,-0.11675974648540706,-0.09602597884839008,0.06856621450867613,0.036945271232688336,-0.10558622540437747,-0.00016286502682326376,0.356267791699734,0.12859520457877113,-0.13163121098046554,0.039348434923476575,-0.12867210016883193
0.05,-0.022285419129214324,-0.11555443913241195,-0.09424891149075373,0.06849384694320297,0.03585968409739105,-0.10447136379163664,-3.8133723564241274e-05,0.3617860877187901,0.12956306570435208,-0.12501101443022125,0.040210035703120525,-0.12774711784207832
0.052,-0.023958986449867412,-0.11224594627965571,-0.08879363565071918,0.0679766362489478,0.032215833974278844,-0.10062751792407659,7.065182232921527e-05,0.36638411079360217,0.13037770264410695,-0.11819253195294888,0.04521682312219949,-0.12361975834288244
0.054,-0.027482951645486354,-0.10794476893963909,-0.0804826721884886,0.06773146412323208,0.026090070106596405,-0.09472196424174617,5.4545928249003074e-05,0.3704332505083812,0.13392883642236686,-0.10989255347551793,0.054576143129122935,-0.1183034737442526
0.056,-0.030423572083198788,-0.10559170941177042,-0.07497958147169916,0.06810145799491546,0.021697622493474865,-0.0909593498359874,0.00020689154189564412,0.37276401701717476,0.13997556148806203,-0.10224889102697125,0.0658267892838738,-0.11303369193035871
0.058,-0.031366433163038256,-0.10719448084949934,-0.07572158361224875,0.06962031275144295,0.021609920005117744,-0.09222284902406025,0.001496814637397267,0.37387883132611827,0.14601070411121175,-0.0979546813775813,0.07576967707274422,-0.10807330517638836
0.06,-0.03236704505954607,-0.11195164022015139,-0.07962608883143647,0.0730221767208334,0.02327870398869179,-0.09680088965102517,0.00479649809060886,0.37722354497886035,0.15065197356950571,-0.09710814125877613,0.08283519758550716,-0.1033114563638853
0.062,-0.03605016000654161,-0.11680384375063867,-0.08082878732007065,0.0778018142717096,0.022415504471013606,-0.10022805178704829,0.00904740623026854,0.3854205986570944,0.1546990649962716,-0.09780012489712904,0.08762348394198981,-0.09866768804804557
0.064,-0.041436557125873456,-0.11866204073499681,-0.07726107849440761,0.0814965065444414,0.018328721846675482,-0.09965741561141034,0.011491075230583065,0.3967101336732316,0.15891601443275225,-0.0987325665812067,0.09144794770583364,-0.09426729350087591
0.066,-0.042704127027067114,-0.11652335490909481,-0.07391660146304782,0.08055695000182672,0.016186351060819452,-0.09675116441570222,0.010453524992743313,0.40598229450571366,0.1614172075242041,-0.10134529729773359,0.09384023474877583,-0.09102182826616233
0.068,-0.03278986526260322,-0.11177639721352998,-0.07929041375349866,0.07247258255842022,0.023678424304607818,-0.09639162150359491,0.006586355297587964,0.40866504345855137,0.15871865624840942,-0.10880962346135599,0.09189434169875144,-0.09078863442536501
0.07,-0.010766541493601177,-0.10722001501629617,-0.09688333582251217,0.05878713130877704,0.04320099805811059,-0.1021571584865067,0.0014429486051076585,0.404231205786012,0.15057732715418404,-0.12155073036847122,0.08364800882324161,-0.0945661834475013
0.072,0.014860958252639942,-0.1050806738428723,-0.12019151964887516,0.045105809175866755,0.06748277297933919,-0.11243292396544617,-0.0034454198077982475,0.3970367855585166,0.14208463996408321,-0.1350113359971585,0.07213482308505491,-0.10035304044733524
0.074,0.03165866264421715,-0.10462793372554162,-0.13611148089584216,0.036819625407031695,0.08381996339287139,-0.12030210662081771,-0.005701374457190137,0.39395996763031055,0.13982337075601672,-0.14294612738806423,0.06532355251193432,-0.10358461455649415
0.076,0.031961389357757684,-0.10303388035990026,-0.13438367310335286,0.03584599856415303,0.08317571152592798,-0.11874777671158067,-0.0025387130643611993,0.3999549448610794,0.14688801415025074,-0.14177815139562253,0.07080876975481114,-0.10049782352588453
0.078,0.018310254336436065,-0.09955604317828574,-0.11704760293535546,0.04063632784769774,0.06776152429954484,-0.1081609799406234,0.005801970825087667,0.4137321692026407,0.16066522056795557,-0.1324901152645826,0.08850786635453001,-0.09193203329340435
0.08,0.001082035643402791,-0.09690336128521025,-0.09737657104821393,0.04773883014481362,0.04935469165411974,-0.0968182578571608,0.015029858217210177,0.42859925065159094,0.1750179423437127,-0.12002361376126085,0.10938470925277359,-0.0831966807150444
0.082,-0.011059634562148325,-0.0978766814861405,-0.08680042734381416,0.054302336721416745,0.03796536501096622,-0.09217902128370445,0.021476224320849203,0.4394290943662408,0.18606583470231883,-0.11057932645610281,0.12290320523506584,-0.07949202438582587
0.084,-0.017068397438684872,-0.10222201324235843,-0.08580894609195741,0.059448169511972696,0.03438353428856998,-0.09427661775342991,0.025416649454485834,0.44713259679061007,0.19472639953334833,-0.10828967295410469,0.12500595521652413,-0.08185753187228759
0.086,-0.019810477973427113,-0.10687405098010054,-0.08814479822038779,0.06295999691254259,0.03412703913678736,-0.09809910867293965,0.028327909990168793,0.4553454467471202,0.20284699566591477,-0.11296952953578479,0.11983172217534252,-0.08687435391133996
0.088,-0.020796987247808704,-0.10864770738250445,-0.08898811124710197,0.06421851412725443,0.03406679999438907,-0.09950111339749901,0.03012448104595778,0.465313987931114,0.20993751927937654,-0.120294984497398,0.11534842923284429,-0.0897250503124417
0.09,-0.019825714535751264,-0.10661589651056226,-0.0876765429641891,0.06302603897711045,0.0339321243900746,-0.09791959801336488,0.030824948635735837,0.47522112573177333,0.21500315187365673,-0.12473545861605974,0.11705041427397116,-0.0879980622126825
0.092,-0.016681035459616737,-0.1022373265413008,-0.08601773351794569,0.06005809677222159,0.034687065239990544,-0.09520008015247851,0.032280077699477966,0.48286955195622827,0.21878912904604328,-0.12349433211904368,0.12496202376501274,-0.08295990215426267
0.094,-0.011820230289052353,-0.098144191937514,-0.08637371488384868,0.05636454388233421,0.037282146119379064,-0.09365251500176015,0.036298727023601776,0.48792947595733177,0.2228116301236162,-0.1186955098524926,0.1349909507572557,-0.07805387999632908
0.096,-0.006128824294270542,-0.09645813598376235,-0.09015715241076457,0.05286049277099702,0.04201756953355541,-0.09468848325416855,0.04245537400247216,0.4920085194147361,0.22752977259613977,-0.11558128106171675,0.14212703637714125,-0.07643075412034665
0.098,-0.00020961304275877288,-0.09713961458622412,-0.09667283982072301,0.04972315773885293,0.04830168648407729,-0.09778331481290793,0.04906181411526708,0.4972126735238302,0.2319833061945332,-0.1184674779732738,0.1427572337114946,-0.07942250837902129
0.1,0.0055686642954363074,-0.09833550104461353,-0.10344531098502785,0.046630088020494564,0.054748315791414724,-0.10093651549918216,0.05492355499083002,0.5047401905935074,0.2347002681195117,-0.1282726408055332,0.1354940062671713,-0.0865233669448382
0.102,0.010043863958428118,-0.09860445238289854,-0.10780935403357038,0.044015575375231986,0.05938229597480927,-0.10255848209650265,0.05906607193257032,0.5143319076940539,0.2351168492013248,-0.14211833487768968,0.12234654254464221,-0.09540443843812846
0.104,0.011522499823164292,-0.09810946280648608,-0.108514320443995,0.04303891487256468,0.06058824256673313,-0.10250005351327418,0.06075679076876444,0.5248457534179596,0.23456167048219734,-0.15496910750499052,0.10896391317154426,-0.10249214505126618
0.106,0.009162864138034814,-0.09772711088821973,-0.10588469329423186,0.04428548105492722,0.05801218108102604,-0.1012880942791839,0.06119486073944013,0.5354802346985436,0.2359719083417105,-0.16273586014043992,0.10174855591035889,-0.1050844897715361
0.108,0.0030409060327974123,-0.0978110627857417,-0.10032279339815085,0.04751840999855985,0.05193369088175715,-0.09892604165359772,0.06297784927318256,0.5458655432418358,0.24176032678871462,-0.1638990551078454,0.1038454370319149,-0.10308293896458241
0.11,-0.006236761943996972,-0.09805846561840437,-0.09178199494674837,0.05219860115535314,0.042794141100345594,-0.09497880060543552,0.06654137060020439,0.5549657885941792,0.2509063519833487,-0.15948204048809,0.1127675016643267,-0.09907899893009463
0.112,-0.016716774167129793,-0.09802111337872076,-0.08137530715033701,0.057315952209249156,0.032246675012206925,-0.0897650385343043,0.06933148254147488,0.5614740631279527,0.25947775734469497,-0.153092459104668,0.12192984135101238,-0.0966069030850951
0.114,-0.0245918640665917,-0.09715455132292569,-0.07234659987574651,0.060984159884310475,0.023659905682301155,-0.08475336946736194,0.06946698918680905,0.565681043450516,0.2651487313981228,-0.15039012841197583,0.12546370443433563,-0.09743969810819827
0.116,-0.02639233852918505,-0.09466385832261133,-0.06780225559822174,0.061187585153485165,0.020085238995389037,-0.081203187334439,0.06806687884482293,0.569479798153815,0.2690250116230174,-0.1561287685669342,0.1214224710684815,-0.10090824488779233
0.118,-0.02281598870360336,-0.09016047789704901,-0.06703066213579029,0.057773238418297866,0.021029802141740342,-0.07857016986534633,0.06725727777580837,0.5742560527549608,0.2723145978677569,-0.16958069250951147,0.11163441428460814,-0.10561506759506611
0.12,-0.018818755594945627,-0.08474933322902066,-0.06605234429331001,0.053334868654636526,0.02255744057226288,-0.07539921011620117,0.06793448032911509,0.5800847066067655,0.27443857860482057,-0.1844322870642798,0.09990066329947357,-0.11082708310745512
0.122,-0.018652282372173548,-0.08140105045702266,-0.0631056437524924,0.051466661655838644,0.021807613562346166,-0.07242992725313173,0.07062076542021246,0.587405600603456,0.27580542605734326,-0.19521266688306066,0.08943831397366432,-0.11674514032264242
0.124,-0.022423535650286017,-0.08363197649095094,-0.061260281125375605,0.054293193242155535,0.01980790266680612,-0.07311985339190666,0.07640164163097161,0.5976533449045502,0.2794980435499183,-0.20149510707612234,0.08166916219964986,-0.12418651802376701
0.126,-0.027807804228729652,-0.09240922969412886,-0.06405251357084427,0.06129438371962989,0.018924945657118046,-0.0795583104996003,0.08486363053573402,0.6107001536835142,0.2879863224222336,-0.20498256864747472,0.07722352093072231,-0.13353772702691033
0.128,-0.03274202376377243,-0.10428535550454827,-0.07076564609101205,0.06967097441142585,0.019641241793196006,-0.08923275436237058,0.09280342985201324,0.6235986473358464,0.29944550767250044,-0.206809256579437,0.0758277952568295,-0.14395662079750668
0.13,-0.03532667325464906,-0.11343938877656809,-0.0777530302857478,0.07553751541890331,0.02119304097424143,-0.09711488898221421,0.09674185989851493,0.6335926911051174,0.3086175300430856,-0.2097902758514702,0.0742880888625107,-0.15419309028194614
0.132,-0.03308188109112735,-0.11564444077831736,-0.08286138069743958,0.07553013427242787,0.023981480951136166,-0.10014096538049772,0.09554730368404708,0.6403477909286686,0.3110253190073281,-0.21895915379759706,0.06767350191957158,-0.16387429710164808
0.134,-0.02487656464785347,-0.11100454552137229,-0.08686292940086592,0.06911839760688228,0.029409591097250384,-0.09924434223265335,0.09053291708389814,0.6443202194820143,0.3065648645847044,-0.2359883309216478,0.05484399611097794,-0.17340340414189342
0.136,-0.013455088184291471,-0.10383634672901855,-0.09121644836916547,0.059834276228298566,0.03726951943000548,-0.09765377663571614,0.08441821769344504,0.6456344110300744,0.2993163840706589,-0.2559059675002807,0.040168554401103236,-0.18306796977281578
0.138,-0.00459530575362881,-0.0998339287884983,-0.09593129590737631,0.05327632690997742,0.04467773009009355,-0.09801982100852562,0.08027263941525542,0.6455825382434967,0.2938153697482488,-0.27268819257487853,0.027596908663288375,-0.1928319039332536
0.14,-0.002802372238472685,-0.10269149118767884,-0.1003559946651071,0.05333593308774886,0.048650588423780214,-0.10152940109376979,0.08038250328403145,0.6469031907937014,0.29183310366471027,-0.2857107108728467,0.01626737011273877,-0.20265049628330503
0.142,-0.007015515524850865,-0.11211243082462888,-0.1053680636793948,0.059451804069831936,0.049680265688485756,-0.10853816187237748,0.0849033949921099,0.6512493723122946,0.2923013607817803,-0.298415944443649,0.004033454649389808,-0.2124891638536697
0.144,-0.011764059536315898,-0.12408523927840996,-0.11242643448426856,0.06735635116503286,0.050959741759854515,-0.11803870782021213,0.09176093503551598,0.6576126692703596,0.29343304852778573,-0.3129821135884139,-0.008234255931186525,-0.22211854702582437
0.146,-0.014017316730232852,-0.133200170028066,-0.11915723289335241,0.07323706951368092,0.05278552315957914,-0.12612798797217534,0.09904720922789792,0.664239701793129,0.29495310720697765,-0.3283341731853623,-0.01800322500044418,-0.2309852733433261
0.148,-0.016741075354830035,-0.13555390241418952,-0.11874574255455214,0.07655597626311275,0.05043821241179126,-0.1271683247891949,0.10672102297294749,0.6711504871222516,0.297882037878186,-0.34181138124334465,-0.024336867140731133,-0.23831986257083662
0.15,-0.024061522837971694,-0.131071443101601,-0.10698455324682792,0.07877768666933202,0.04019004511665921,-0.118880677995171,0.11481953059566821,0.6796394594000559,0.3018444955771648,-0.35128161603117364,-0.028520544133992666,-0.24379581437493592
0.152,-0.035374653086544666,-0.1239169122867365,-0.08856404958894129,0.08117148522796723,0.025164397810469037,-0.1059040544447124,0.12192738886397071,0.6900648174824854,0.304240808911857,-0.3569894632515627,-0.03286262342962984,-0.2483322136833014
0.154,-0.045842702810997255,-0.12016661658488002,-0.07434820310849688,0.08438779546105873,0.013210575086383847,-0.09695906043307845,0.1269841087072525,0.7014030531838548,0.30284091810461866,-0.3624964733375298,-0.03978760800165907,-0.2541428768392492
0.156,-0.05117915078474742,-0.12374194134759912,-0.07256287098390625,0.08863352618414316,0.01008328240842534,-0.09799487983314291,0.1309129086492275,0.7122484341542582,0.29815641168933993,-0.37204748632575574,-0.05075456395714527,-0.26365198215087005
0.158,-0.05114717377549875,-0.1330436053374726,-0.08190527941873735,0.0932521694021241,0.014828218389387852,-0.10726601356231809,0.13528031138724883,0.7211981007118597,0.29322830934781424,-0.3857367154927253,-0.0644376029901888,-0.2775626910762054
0.16,-0.04878801233891108,-0.14219135547885417,-0.09352835726070036,0.09675416004828566,0.02156973991186125,-0.11747605733849009,0.1403032851347722,0.7270501866047792,0.2910749389404083,-0.3994219056824199,-0.07726820320963283,-0.29368403983456637
0.162,-0.046203763226977036,-0.14671625830171306,-0.100844030782468,0.09767487692149997,0.02639497041498845,-0.12346377282019114,0.14466796286561184,0.7291006023751293,0.2919057200601519,-0.41026445834662556,-0.08701253408306518,-0.3080742472880898
0.164,-0.041978837881063186,-0.14695607289809953,-0.10542717949799071,0.09531369042263892,0.03112802479612097,-0.12629698061888228,0.14692033444408545,0.7273629429643298,0.2934223433736532,-0.4192376435955529,-0.09394656211927031,-0.31773767302598427
0.166,-0.033890162640510355,-0.14587484048532845,-0.11239380686785821,0.09023547444980197,0.03925567085588633,-0.1296935878700032,0.14693701871059092,0.7235064833571837,0.2937707489711454,-0.4275364242745257,-0.09835931797457609,-0.3227517417617182
0.168,-0.023154985384885293,-0.14549978635050465,-0.12279701514096864,0.08436842739383135,0.05018554448116445,-0.13485500730329986,0.14635398148575418,0.7209831021258482,0.2929225299094529,-0.43440419405524117,-0.09985136127351686,-0.3258039307632817
0.17,-0.014892402708613615,-0.14587587767191185,-0.13171750581210911,0.08036376741429506,0.058686336835657285,-0.13937087442932078,0.1479600224057558,0.7229547618106343,0.2911198326965926,-0.4397833374599489,-0.09953234416818875,-0.3290959730211463
0.172,-0.014520955129171948,-0.14621826251542056,-0.13264045493410104,0.080442341735205,0.059086705872142195,-0.13985882135585428,0.1538646425980236,0.7300303040262612,0.2879510377605295,-0.4459479197706147,-0.10034459601239773,-0.3321475818861615
0.174,-0.023095911188813385,-0.14616735713863208,-0.12379319464745664,0.08488480713821937,0.05029712142649968,-0.13539635174016246,0.1629629394557607,0.7395622294684623,0.2840409749429596,-0.454868308146113,-0.10425238066971479,-0.33333733880629596
0.176,-0.03617920942713765,-0.14606828497040622,-0.11018296058847009,0.0916120407470176,0.0369353108009478,-0.12855216541326603,0.17114124161286173,0.747231127176063,0.2814692727228789,-0.46575429499119053,-0.11047303732934333,-0.33285600847616836
0.178,-0.04806545588728317,-0.14676467989762554,-0.0989467825002076,0.09816314299850416,0.025102179147551296,-0.12315639242471957,0.17484870511644923,0.7499654750259644,0.28083209296536876,-0.476236420309082,-0.11709009360891695,-0.333167510013702
0.18,-0.05597969138582848,-0.14924901408475885,-0.09395781529448388,0.10356876554161257,0.01817400018712713,-0.12168054442815705,0.17341422445668522,0.7476709389308994,0.2797748168002577,-0.4843797751642789,-0.12291710750775181,-0.33629466741683445
0.182,-0.05981012273935132,-0.15384209632824497,-0.09506170377930932,0.10780267465010322,0.01658414471837634,-0.1244352700830875,0.1684111673514012,0.743194477273723,0.2759287337410347,-0.4889676998212509,-0.1270448821824683,-0.34098268979393853
0.184,-0.059879480923520426,-0.15929945251393268,-0.10018624249487945,0.11043027159417484,0.019347049742445926,-0.1299551476421087,0.1619061492945033,0.7399034557827553,0.2697637381866708,-0.490253251416654,-0.12877257089281127,-0.34414793017290707
0.186,-0.05527110708750733,-0.16284023185641794,-0.1077167203733575,0.10987141190736475,0.025857532679467908,-0.13604255788362676,0.15433876329361068,0.7372832830029145,0.26311896552870095,-0.4917664250485962,-0.12935724690865633,-0.3457343103008303
0.188,-0.04404705903059566,-0.16208185919308893,-0.11788973106227917,0.10414081151936753,0.03693228520356255,-0.14134303897312012,0.1442455170474761,0.7307805154383444,0.2561537619444702,-0.49858545666289356,-0.13146636738645928,-0.34941180893574963
0.19,-0.026634698662972526,-0.15797653944408435,-0.1314639007331859,0.09372027188007269,0.052652981626242934,-0.146286741777112,0.13135957007527016,0.7183365309947836,0.24754273682749206,-0.5115880774745079,-0.13544338996968847,-0.35705415806631663
0.192,-0.008022634717039063,-0.15438610084487628,-0.14682784782448768,0.08264937075438021,0.06961845143289679,-0.15193388285851245,0.11866591484782436,0.7042515048275546,0.23704878670617732,-0.5254926472337966,-0.1379369057897748,-0.3652660113760189
0.194,0.005190666515716879,-0.1533435892566494,-0.1589188280887161,0.07507155510658949,0.08185163515052818,-0.1571886276606444,0.11033229593177299,0.6945292507155132,0.22638125639564505,-0.5337284428392798,-0.1344599355491321,-0.3682919714771058
0.196,0.009104697183011925,-0.15261776049267783,-0.1617360358472959,0.07202917995196793,0.08449346350864011,-0.15825617155984023,0.10878570742902055,0.6911512657340124,0.217977399952354,-0.5338795235029337,-0.12256458370080925,-0.3624375123226799
0.198,0.004597631310993599,-0.14923601138864334,-0.15363672039505005,0.07202094775057014,0.07759207765135644,-0.15270142583222002,0.11332776640360373,0.6918646597851067,0.21361886776397726,-0.5291338849211289,-0.1042438617012928,-0.3484078415480755
0.2,-0.0036040341765091626,-0.14368675162450015,-0.13999573586603978,0.07316122460029399,0.06662939909573537,-0.1431490762004895,0.12020765273541843,0.692868370734309,0.21292069963611604,-0.5248868019620752,-0.0849235635205375,-0.3308865404589253
0.202,-0.010992263499978975,-0.13966178841203375,-0.12887495619189604,0.07493200638135801,0.05801247190187361,-0.13530857652980258,0.12450435426832608,0.6903882050763305,0.2123454642227295,-0.5226704172802136,-0.0679191619137449,-0.31512592095170855
0.204,-0.01626162255295238,-0.14019151042014458,-0.12449478538808853,0.0780099753048534,0.05419446538046081,-0.1329249161271928,0.12343215078511917,0.6819139962673382,0.20763955269260845,-0.5190256034831999,-0.05172248975008521,-0.30338961145929816
0.206,-0.019734442289741833,-0.14419524341309398,-0.12537621760449583,0.08191946391765705,0.05363034438984075,-0.13506284048524458,0.11879132473479417,0.6685710235825489,0.1986368915531671,-0.5116543413999237,-0.03436543378771362,-0.2944387079626874
0.208,-0.021005547979686037,-0.1473281971192021,-0.1274195165424087,0.08420899144611389,0.054077827212031644,-0.13768019506525808,0.11500251097239839,0.6551552180719596,0.1895700830813371,-0.5031151809025056,-0.01699920485472458,-0.28542121371508256
0.21,-0.019305339534681505,-0.14609650801211813,-0.127745327637024,0.082675575001344,0.05475650708487231,-0.1373619799810697,0.11365798624559165,0.6461292757463496,0.1835826553306662,-0.4963919502085778,-0.0010606208692336356,-0.2736289293306395
0.212,-0.015037455651704817,-0.1399835730160863,-0.1254623196714155,0.07727109847512692,0.05553765461623401,-0.13308883371935215,0.11220353640577378,0.6425713057193728,0.1798214723560672,-0.4903719394886743,0.014895826562686352,-0.257731793160607
0.214,-0.010458386264598087,-0.13044625172685836,-0.12004924614231015,0.06999670477492427,0.055180812048225454,-0.12532769189624263,0.10892581493064989,0.6427436009962034,0.17675832624888937,-0.4821263380596745,0.033178741617607185,-0.23919301155633646
0.216,-0.008466133139618661,-0.1197507316691931,-0.11125297699698193,0.06364730628129942,0.05186124230948608,-0.11533087029757147,0.10586506834472682,0.6437933339112549,0.17457009894459108,-0.4712219970590126,0.05376748807820821,-0.2214543671854562
0.218,-0.010394418228714817,-0.11062815284220116,-0.10059956024594444,0.06027978059453793,0.04543955888091301,-0.10541943328575178,0.10536669909072809,0.6428430392519908,0.17255470354417918,-0.4595929018480148,0.07487934088606774,-0.20617142629132293
0.22,-0.015114653193344423,-0.10552578898203507,-0.09134989674473967,0.06025984239685746,0.03817868166121431,-0.0984737852214256,0.10673651827368236,0.6378441882440959,0.16791795705221554,-0.44892130932424174,0.0951199315449388,-0.1921088960354859
0.222,-0.01977295827730439,-0.10492500896604481,-0.08638767849846185,0.06214339813921453,0.03319188641885899,-0.09604063722904777,0.10773701462871114,0.6287055757776314,0.15971854339468697,-0.4401143571657973,0.11363779113656428,-0.1785328613195754
0.224,-0.02144888860128418,-0.10622269307693383,-0.08590276191994729,0.06338543185597445,0.03213622790830067,-0.09672414367007062,0.10719245421238507,0.6173957093997633,0.15110935275893242,-0.43378234574951063,0.12974288963100067,-0.16670129539445563
0.226,-0.01839546649301421,-0.1047050430618708,-0.08711075535435954,0.06129295755431696,0.03437212010819776,-0.09677839913920326,0.10458624533988244,0.606009734150372,0.14539941058353142,-0.42954673608969274,0.14379223469242086,-0.1572218902700134
0.228,-0.00980794619020074,-0.09669334100418381,-0.0873255127080597,0.05377723180600816,0.03882474697384881,-0.09314417818022779,0.09904752681861088,0.5954913428260602,0.14219121276127866,-0.42590145199494706,0.1573834200009227,-0.14866063004555322
0.23,0.003943897177977816,-0.08313092683233574,-0.0872789884081425,0.04091318651966805,0.04568469894568887,-0.08656613356356077,0.09099524135368317,0.5866623745599661,0.13883280973749615,-0.4215559649761966,0.1717966085244043,-0.13943480177946585
0.232,0.020097961361021557,-0.0693728810250611,-0.08968269697302084,0.026075355494799043,0.054956526491542305,-0.08079892620681824,0.08346104739437905,0.5805736426095026,0.13390595346188452,-0.41650149923674895,0.18667913426937158,-0.12938035360172626
0.234,0.03391933870447927,-0.060430068118580225,-0.09467241968950625,0.014107619996212361,0.06424680041709645,-0.07825507016819065,0.08007016480454018,0.5772849678393505,0.12813183758016844,-0.41191399166287435,0.20017289738576594,-0.1193792374795991
0.236,0.04135496229212248,-0.057359399299249214,-0.09897499712276102,0.00810949780220276,0.06984292217152807,-0.07802139088703129,0.08198030162742828,0.5758707199984023,0.12272491240091105,-0.40923953162061744,0.21010231205457547,-0.11091451313454605
0.238,0.041983403597100774,-0.05793796395505202,-0.09994966505996185,0.007711668056226272,0.0703860792549241,-0.0781820910023831,0.08662224214449066,0.575532277479192,0.11794378630469597,-0.4089028475389771,0.21582878057883836,-0.10584779418115677
0.24,0.03917026974686977,-0.05889337856508258,-0.09794125800069839,0.009734511814056178,0.06788802345786009,-0.07762562796421861,0.08986960205127124,0.575992564508482,0.11317924808010649,-0.40969674387145205,0.21947194072092993,-0.10451534326441912
0.242,0.03620774583968714,-0.05716894870591067,-0.09329571989676116,0.010851238449867302,0.06404719806202172,-0.07485441339151505,0.09045641781858163,0.5776232672721655,0.10779866933284929,-0.40956841965710983,0.22503493903495347,-0.10334172254229552
0.244,0.033406209914221933,-0.05105441494267666,-0.08448562615501592,0.00981141326021859,0.05810964682551392,-0.06789847181173825,0.09114832573392773,0.5809651634211722,0.10209605445822426,-0.4070292251998356,0.23546914140878222,-0.09686878915944182
0.246,0.030263894293296966,-0.04193306132229972,-0.07227489046643976,0.007250847941794361,0.05032010684868461,-0.05758416564841223,0.09476120022188902,0.5850634494005517,0.09771401940569777,-0.40211414091105546,0.2496403391795166,-0.08392993892006796
0.248,0.028303285244879545,-0.03374633619266881,-0.06219440223879718,0.004187428336470541,0.04437488937270906,-0.04858092986584455,0.10052710704939304,0.5874094269955014,0.09614006842250682,-0.39653080652483985,0.2627105213986055,-0.06986022585987611
0.25,0.030182611069235882,-0.029331091875479786,-0.05981714085047467,0.0008558097553076872,0.04442696320613077,-0.045306387710582076,0.10492517779583384,0.5864061452162509,0.09634222919869777,-0.39332235697860707,0.269959261832034,-0.06151699014846634
0.252,0.03695683459109507,-0.028334304478797763,-0.0656949449588034,-0.003156881652720316,0.05116620199386896,-0.04815322008323009,0.10496913561454571,0.5826080570861278,0.09519933714440641,-0.39573533295344326,0.2700675058485253,-0.061388920237924104
0.254,0.04640784313683155,-0.028775837431009206,-0.07544331108084593,-0.0076289860003268175,0.060974914178507346,-0.053821220885106956,0.10056675285151978,0.5774790437012753,0.09083897801818938,-0.40462224020637905,0.26593904527982354,-0.06608516937006553
0.256,0.054836509452521116,-0.02897592777046408,-0.08379896990120435,-0.011714013462542399,0.06916757960368468,-0.05833744140591539,0.09432327370454247,0.5720114723584304,0.08434898694364225,-0.416717047435866,0.2626806699788665,-0.0698218919128106
0.258,0.06169910508470558,-0.027769301217217136,-0.08930426845854215,-0.015999058491487216,0.07504552471588141,-0.06003423938379603,0.08930924236594515,0.5663404271948917,0.07776967100710168,-0.42669080745623755,0.2636636745869235,-0.06984730753939566
0.26,0.07041239577914264,-0.024642622622407642,-0.09483360577463035,-0.022498721285320898,0.08221848855051535,-0.060241521573014385,0.08705953044923012,0.5605573438631886,0.07210271866935265,-0.4311597689142191,0.26825454194897613,-0.06796803470323516
0.262,0.08291196474287274,-0.020779330277523753,-0.10327436634918083,-0.03123155977043246,0.09306255427005802,-0.061585667933188426,0.08714522674268416,0.555944667714521,0.06803842991107863,-0.43076907298081196,0.2729965669844613,-0.06701180041067108
0.264,0.0959352832191177,-0.018327507864577857,-0.11354787694371235,-0.03914629732161078,0.10492441923637148,-0.06514149954231574,0.08832526143117438,0.5541838342149192,0.06647623973796436,-0.429057888246079,0.2751003727849607,-0.06743735644553003
0.266,0.10376897425823954,-0.017307866586950885,-0.12027220147639474,-0.04346118528618624,0.11201358801310649,-0.06826576782913184,0.09066786018762445,0.5550559948321987,0.06714440074592855,-0.4296033958586565,0.27547746184387956,-0.06746484061083619
0.268,0.10274294228254739,-0.01533830626309541,-0.11749528297628326,-0.0438016990646637,0.10980858264109121,-0.06640022789004833,0.09578336172941218,0.5564269994109089,0.06830968386849857,-0.43346590117181677,0.27732703551763516,-0.06527176850540364
0.27,0.09356519293743257,-0.011643627034952385,-0.10494135673324968,-0.04099852801980975,0.09890293843504801,-0.05857770290624281,0.10379022098186866,0.5566958471847145,0.0685915883290109,-0.4383670850067323,0.2813135880268696,-0.06070090711832145
0.272,0.08118565497508799,-0.0087690330741496,-0.08991599266661765,-0.03615774431767783,0.08537496550886306,-0.049564536158814114,0.11153155000667321,0.5559966507392616,0.06801087689522266,-0.4411478058669439,0.284283253129649,-0.055520993313624395
0.274,0.0724389952655538,-0.009298254962706877,-0.08177071506379807,-0.03122615768333074,0.07688136938620405,-0.045518408451396236,0.11504371522069352,0.5548225593265379,0.06688624947713874,-0.4418434725410669,0.2831458252770052,-0.05292587299667697
0.276,0.07253290434589761,-0.013132357684823315,-0.08557896008781748,-0.02880218019559788,0.07834661130796776,-0.04917488165274436,0.11307788941724861,0.5526624264221972,0.06468508371726643,-0.4434852673169961,0.2782779928036132,-0.05588791414032007
0.278,0.08173511002023567,-0.018415178405663323,-0.09984338864495465,-0.030210064971467936,0.08950759535939046,-0.058911005601454645,0.1083432769731745,0.548760043650132,0.06073610864261117,-0.4471924773908586,0.27312033769042854,-0.06398439129632187
0.28,0.09485706807462865,-0.023440587705654055,-0.1180057645973808,-0.0340948473951716,0.10496586411621883,-0.07054677332000049,0.10530155471032027,0.5435741601153593,0.055330966702150305,-0.4503582696497766,0.2707597982079285,-0.07276769413286636
0.282,0.1051789654537287,-0.02727045575074211,-0.13266452418178945,-0.03775419575219436,0.11781646044074559,-0.07988583998725864,0.10629131966243315,0.5388103180372852,0.049279459268285995,-0.4506750427027028,0.2705291696313207,-0.07796150604940381
0.284,0.1093078995898998,-0.029416401208541162,-0.13966039358548563,-0.039541187594398314,0.12408534272758748,-0.08455434728670311,0.11041274839152469,0.5361526164809609,0.04335966838663122,-0.44916179487463354,0.269161791049757,-0.07905028108689974
0.286,0.10857880865570166,-0.029834916659759913,-0.13972710153783616,-0.039603895112590125,0.12433882359876891,-0.08483031373995976,0.11569095114606692,0.5359208649195246,0.03889373313982397,-0.44819177363923624,0.26567101599300985,-0.07825009111628657
0.288,0.10647235186191643,-0.029467111213673083,-0.13711417814379473,-0.03881354712978215,0.12207525761101286,-0.08330929803189005,0.12116528768094838,0.5369727017039716,0.03737967520469305,-0.44841218644366154,0.26277877195366045,-0.07752281329260609
0.29,0.10449577076582127,-0.030254074287961882,-0.13553318723546273,-0.037094435598276757,0.11999778655983272,-0.08287724704377318,0.1274525506056975,0.5383373180494994,0.03900045406848255,-0.4483316216623805,0.26315024770047046,-0.07686950608219041
0.292,0.10068420754161213,-0.03354792044134976,-0.13461680791551428,-0.03320681610378337,0.1173095592866446,-0.08406441178706005,0.135503236386017,0.540543052443121,0.04269154444119101,-0.4460794329838108,0.2666693770318694,-0.07480718487355252
0.294,0.09268227655499063,-0.03805655184744964,-0.13080504633183915,-0.02691876936051989,0.1113541908206902,-0.08443097102193219,0.1443725609514225,0.5445321514613978,0.047447031883887,-0.44126254663692466,0.27166306607957813,-0.07040136652110066
0.296,0.0817191530260525,-0.04051854408351192,-0.12213711941252707,-0.020510747427191584,0.10185168012432237,-0.08133763588976713,0.15121043325601227,0.5494867425693124,0.052463617714655374,-0.4355715379762441,0.2766536357418809,-0.06512362494385822
0.298,0.07284758092563397,-0.03885706910833193,-0.1116158377115889,-0.017245395803484803,0.09262836126752581,-0.07524104159726494,0.15364862259450432,0.5521834790881015,0.05619827150936159,-0.43204108604688196,0.2801656588946315,-0.06315248302057415
0.3,0.07077609654747803,-0.03401305101191364,-0.10479123047670065,-0.01858087600123705,0.0884652843091271,-0.06939899138989908,0.15153383590866157,0.5492427394739042,0.056437975038085585,-0.4329318389186854,0.280308409722016,-0.06881880416136155
0.302,0.07486308920876363,-0.029151292289652176,-0.10406103662517821,-0.022594469578805412,0.09010835124695583,-0.06660215969071746,0.14728646833465758,0.5410241114208917,0.05229433603559832,-0.437094759415252,0.27626952129059223,-0.08185745437835584
0.304,0.07970538394302587,-0.027445512535706745,-0.10717245173135642,-0.02541835929720136,0.09384353276932686,-0.06730878787928155,0.14467481278349864,0.531938064670122,0.045516236148361866,-0.4406404780572314,0.26960861234354616,-0.09633384044101401
0.306,0.08187526450219729,-0.030376067080632847,-0.11223668006272118,-0.024857621584134328,0.09698880722448541,-0.07130846582225393,0.14610428181692292,0.5254623230822211,0.03865770855353142,-0.44163019767268547,0.2623117493842026,-0.10593136409321134
0.308,0.08320098467684592,-0.03751531387883462,-0.12069766410519028,-0.021933228282367854,0.10106416525757288,-0.07910759421924106,0.1508716468834349,0.5211628780696164,0.03296604138183839,-0.4423771541517674,0.254587020649371,-0.10896664661673175
0.31,0.08598126990003074,-0.04656884002922205,-0.1325272427983607,-0.01883165248985604,0.10750849237292011,-0.08953645773595485,0.1558102301286665,0.5177508097598637,0.0290294792726617,-0.4459186405546322,0.24636419266943416,-0.10802496718289363
0.312,0.08865338162248139,-0.054191980780729225,-0.1427237485107564,-0.016492686532939983,0.11366980162140528,-0.09839131042012916,0.15814478892334347,0.5157846692494887,0.027763199178543915,-0.45178739838992876,0.23940423751426176,-0.1063868753484827
0.314,0.08780725047836058,-0.05837134032438102,-0.14585630646325348,-0.014329865859679101,0.11539005187659816,-0.10195002073021223,0.15860561095238127,0.5159072343429739,0.029713766763321464,-0.455875440636578,0.23633127017708216,-0.10497145175208336
0.316,0.08183415196280275,-0.05955801934628206,-0.1409447857790049,-0.011293381089310883,0.11096311134159852,-0.1000405446235163,0.160374320334183,0.5170294536992515,0.034097378209637555,-0.45372942595711746,0.23811971667759296,-0.1026043520739924
0.318,0.07191636118431108,-0.059334644943480966,-0.13083805221817016,-0.006854037979623365,0.10169944481505806,-0.09495884146757021,0.16426894266992426,0.5175870853043667,0.0385953239157904,-0.4444917543859977,0.24254834802814446,-0.09918181360001618
0.32,0.061225281076687885,-0.05913533649565137,-0.11992712066588443,-0.0015354305781978984,0.09101149680269255,-0.0895549181840397,0.16756478392849186,0.5172711469128911,0.040485910716105286,-0.43228144283288966,0.24543201590254413,-0.09694950392608369
0.322,0.05377801056107415,-0.06022351970140615,-0.11339936352614868,0.0031931102265181695,0.08372046645121307,-0.08696076810801236,0.16855549002883244,0.5168146020295578,0.03855338904659569,-0.4235313262303097,0.24403714947651384,-0.0980971647829569
0.324,0.05246750768774362,-0.06329325264482191,-0.1151470522000495,0.0058298911924449335,0.08367983812230069,-0.08949206602279582,0.16939046143157563,0.5167645081523737,0.03388659989139099,-0.4221998119516885,0.23913814006052833,-0.10230135620103219
0.326,0.05623293271920733,-0.06719397057037228,-0.12315036516388256,0.006076866252776232,0.08956529993854097,-0.09560083657576178,0.17293894301394602,0.5169883421116092,0.029256124170856084,-0.4264622086926036,0.2341174146198775,-0.10679210240046956
0.328,0.06060352346104487,-0.06969473478643527,-0.1304123846882266,0.005147756258650767,0.09551372254973475,-0.10064870198444544,0.1790831108967337,0.5170129898519538,0.02723522339581447,-0.4306212079763451,0.23192499158864335,-0.10898238671956846
0.33,0.06330901463522087,-0.07071732687954548,-0.13423304595342037,0.004435067194885159,0.09884077488304939,-0.10329231941002628,0.18566075241683194,0.516210884949619,0.027967044916547966,-0.4310864256050874,0.232071361648255,-0.10953325146705915
0.332,0.0669648367824256,-0.07266158860185357,-0.13967355184857977,0.003944725016069557,0.10334913324880807,-0.10730906359011759,0.191177429686401,0.5138379820546939,0.029364176560530815,-0.4291908417329248,0.23120653483512443,-0.1114175894295261
0.334,0.07401425281851465,-0.07634257403697656,-0.1502698848005548,0.002592228101174609,0.11211848636109492,-0.11470910921250985,0.19493875325254412,0.5096323521231192,0.029709510491155278,-0.42798805795483863,0.22712529022917086,-0.11532615406565093
0.336,0.08195097664840292,-0.07911473513227625,-0.16102015121600036,3.203785777212325e-05,0.1214470836298804,-0.12147005302822628,0.19657487755571795,0.5043079264327481,0.02903472262247482,-0.42832659845299315,0.22089892301540798,-0.11845921258670744
0.338,0.08536152575673131,-0.07804957578541533,-0.16357903077798192,-0.0023911217292436433,0.12439338854404519,-0.12199879378595281,0.19730982038903688,0.49892930019259396,0.027832961328772148,-0.42854576891221,0.21463361111275553,-0.11865079775544764
0.34,0.08114655682878394,-0.07332397734163784,-0.15499490096749718,-0.002761547587193364,0.11786721039361694,-0.11508700754741817,0.19954864596519045,0.49395626649028535,0.025646860148405944,-0.42664751917788574,0.20920532158354121,-0.11709527851950063
0.342,0.07163003861769976,-0.06819481793252491,-0.14071907413239346,-0.0005140846708758324,0.10587244792229403,-0.10523051190957881,0.20350899713856868,0.48916750309505264,0.021747058674961055,-0.4221740847897493,0.20516629767319022,-0.1161732219838221
0.344,0.06259450417359104,-0.06585803491115554,-0.1294404364761907,0.002930072802491868,0.09578259864569544,-0.09849481377882578,0.20647237118661488,0.4841384077104831,0.016686163562217558,-0.4161380638184828,0.20360143396619532,-0.11632990310386875
0.346,0.05753066438710385,-0.06601879240064104,-0.12416452985716701,0.005439091499152375,0.09060949745080953,-0.09628060689477061,0.20655658367596008,0.478514088233709,0.012694468358491043,-0.4092077384670096,0.2049608175167925,-0.11569825491434439
0.348,0.05487963898568997,-0.06533902770321308,-0.1201736777880476,0.00598789772069241,0.08685538852929027,-0.09433367943441752,0.20504318976921565,0.4725628229120117,0.012412665123899226,-0.4010600718577965,0.2085517202844835,-0.11254816296223762
0.35,0.051317771898472024,-0.06149404910920229,-0.11225922941195057,0.005271606187635988,0.08042191688943491,-0.08848945809159463,0.2041998824719325,0.4678572795775737,0.016560154668759073,-0.39233030664113516,0.21337956016638385,-0.10801097946804648
0.352,0.045732563457036295,-0.055779435497703166,-0.10092982378977744,0.004862592079647326,0.0715927817949993,-0.07949481223069708,0.20459049162444132,0.4660541096457726,0.02296920703799506,-0.38488925391148165,0.2186938650129411,-0.10512956956978989
0.354,0.03898835315890952,-0.051940818402842266,-0.09068741446320573,0.006335735363876741,0.0634524158050924,-0.07168278579577156,0.20523592988416806,0.4663612695952082,0.028813973464661306,-0.37834787426123123,0.22417695925891964,-0.10470825411206447
0.356,0.03148796401262848,-0.05277628002785054,-0.08423783985501739,0.010706298831814351,0.0574055727225252,-0.06815530740310027,0.20533486793183608,0.4655546647152303,0.03332093479054924,-0.3692759827703095,0.22961539419510352,-0.10424125663814351
0.358,0.023169393650624277,-0.05708537719499075,-0.07994914947086898,0.01714786467818319,0.05191962785967739,-0.06779445551097615,0.20492170992068265,0.4610389116459818,0.03746049170084209,-0.3563961844361967,0.23393374780532677,-0.10192351611679666
0.36,0.01691740713708563,-0.060394387912534424,-0.07645297004085906,0.021929453929672996,0.047183046895196555,-0.06780267384799236,0.20395652462125655,0.4529459785784805,0.041155982870918144,-0.3433918198466927,0.2352424504263903,-0.0996305689004746
0.362,0.02026721734660792,-0.0591562802370535,-0.07833653016089501,0.019803724602288943,0.04942117416922177,-0.06866340713434967,0.2016235627820423,0.4427725260087211,0.04149090227312522,-0.3337874538122641,0.23201316554374352,-0.10110782445678954
0.364,0.03788483240568077,-0.053500149551100565,-0.09065949146407402,0.008819335810103192,0.06391478476620281,-0.072739772533461,0.19724927623018665,0.4311895327177711,0.035656486120736894,-0.32614563173210487,0.22462358646955854,-0.10813854779650856
0.366,0.06091552856363834,-0.04676035899750782,-0.10748011410568244,-0.005137592174779009,0.08328427930039442,-0.07822531097600977,0.19159432846232688,0.41860331858510635,0.026321673980602117,-0.31729762256452637,0.21695408416012246,-0.1179084413615614
0.368,0.07220824500945178,-0.04318456300426552,-0.11533716101424597,-0.011973957289325288,0.09234879102232176,-0.08031725095331284,0.18674109413626983,0.40661152722183047,0.020706041755334685,-0.3072487826754752,0.2144591442870833,-0.124800515866082
0.37,0.06448436768068193,-0.044543496499874574,-0.10877515150641684,-0.007426312763856767,0.08538926625102523,-0.07774785819778006,0.1849276012561579,0.39696968346271,0.02322042563006041,-0.29767995833850625,0.21865587588877,-0.12677539098774826
0.372,0.0466009895300498,-0.04825320882228308,-0.0945424547458674,0.003136996179190537,0.07033646819903407,-0.07298999276019742,0.18723917997946235,0.3897534829124735,0.031503416898549984,-0.288668854932872,0.2256753898501627,-0.12798103126532534
0.374,0.03271114924307285,-0.049889066397123705,-0.08250930301950736,0.010864927719629054,0.05808998864179181,-0.06810859550746699,0.19272963522231068,0.3834029319848535,0.03941920861082732,-0.2799805564322026,0.23105276477636136,-0.1327411117997971
0.376,0.029586658729758776,-0.04774755272568931,-0.07745456789689098,0.011539430146986284,0.05336461151296755,-0.06389472196417197,0.19873509157342215,0.3757374070214841,0.042727277600363676,-0.2728425043899533,0.23374103364952215,-0.1396550702180918
0.378,0.033584531234461465,-0.04407963870814629,-0.07777831692075879,0.007847767711667866,0.05404933103483497,-0.06110251734298936,0.20210073674362114,0.3648387126194638,0.04190332741325199,-0.26800958285449905,0.23455524802692904,-0.14410849423671232
0.38,0.03830775416913277,-0.04168902587298764,-0.07998872639754882,0.004209438158050521,0.05673772879001353,-0.06052047743760486,0.2009736729323159,0.3509414160939233,0.03926789071690063,-0.2637869879552725,0.23278964541540684,-0.14480709753988555
0.382,0.042165639199377596,-0.04062166141097332,-0.08272129856128801,0.001326776789061137,0.06060905555869362,-0.06185624665219097,0.19667598951428053,0.33795562221437586,0.035134760611780766,-0.2573932780070594,0.22704721999976155,-0.14517903685208736
0.384,0.046393632533189955,-0.03931134338379312,-0.08567748362253598,-0.002236782720144084,0.06511206985197071,-0.06342492899669148,0.1926977817676376,0.3303276676561827,0.02895111542575647,-0.2477811751356909,0.21857748078386444,-0.1478453921788818
0.386,0.04913510180766015,-0.037751808899326986,-0.08693159256884544,-0.005135164980644322,0.06701734852034465,-0.06348841137652765,0.19090492814532778,0.3272865544266344,0.02270295233219219,-0.23660465391013114,0.21124247250175965,-0.15040192464956614
0.388,0.04565786296635319,-0.03719356729057536,-0.08300860852460765,-0.003735736205429294,0.062291401607140945,-0.06103686342299775,0.19041833769507338,0.3229896486553891,0.020048561899541094,-0.22675450404700592,0.20805620987759627,-0.14943129267623584
0.39,0.03533482429802993,-0.03719925451404902,-0.07288339745320849,0.0020011611478750286,0.051305051349224466,-0.055938947841999105,0.19017411037412285,0.3140238974209353,0.021690209657415978,-0.2204947154826477,0.20866007458649888,-0.14610432862172384
0.392,0.02470653584756512,-0.03618262179699695,-0.06142895234210301,0.007290068855741344,0.04042501802519425,-0.05009692592538594,0.19076666652152702,0.30396457363141394,0.024229266474494634,-0.21796497555891625,0.21007184344476587,-0.14424756019249058
0.394,0.01950547006670448,-0.034898897968678816,-0.05498060214738982,0.009272998494666892,0.03525741214338124,-0.046832902813936365,0.19374882422133488,0.29775612798543827,0.02503887944643921,-0.21593509006117287,0.20926679587086558,-0.14502882964670405
0.396,0.016991600459758182,-0.03609682265854429,-0.05348985053751551,0.010934717023753324,0.03368461729982854,-0.04719280020792047,0.19934064077239178,0.2942459577528623,0.02586838165886962,-0.20981529017616518,0.205409636273363,-0.14645814718322725
0.398,0.010767749992625602,-0.040211882955211976,-0.05109519441357106,0.015792142165797267,0.029305137721635188,-0.048240183546616563,0.20493928553952612,0.2881250521991135,0.02940831428381314,-0.19922653897417314,0.20064154227180736,-0.14674718180685536
0.4,0.0003251056083666947,-0.043923738440557365,-0.044160280206160134,0.022274369366163546,0.02045496327604287,-0.04627806950746719,0.20708102216499188,0.27721993940953904,0.03435342945313508,-0.1888261195671639,0.19781246444006068,-0.1464399100852377
0.402,-0.007684997754256795,-0.044277451594311706,-0.03648976789787254,0.025969941729210987,0.012860071792491289,-0.04167657986916109,0.20458741108099232,0.26375810692858404,0.036037697849991786,-0.1812379982248096,0.19611144010598217,-0.1479456064363864
0.404,-0.006933560206824523,-0.04256313959760627,-0.03562116231600931,0.025210336211217467,0.01310009009951102,-0.03927161281364762,0.19876756856389996,0.2500739390333203,0.030875094425278478,-0.17332569885747448,0.19061218721280995,-0.15309066645534428
0.406,0.0007595083331981929,-0.042068158562415,-0.04287683198045429,0.022495110861670234,0.020217965721452513,-0.04204841605857726,0.19180243086113258,0.23704500130341422,0.01975073801318565,-0.1623302158060045,0.1779286214112963,-0.16050828678015852
0.408,0.007227413979332175,-0.04356879868356089,-0.05082432656218511,0.02101424844887303,0.026731031509755473,-0.04687308120725382,0.18573897285642588,0.22527040379443455,0.007705317091638013,-0.15127324418557486,0.16062708021525607,-0.1667166338534952
0.41,0.009804405305867115,-0.045418097471970356,-0.05520949015907954,0.02025168054472269,0.03021341247975982,-0.05034786949254163,0.18174812719095534,0.21423807096188663,-0.00017304761918365927,-0.14504808960760363,0.14452983480299159,-0.16995027443605526
0.412,0.01597370393702491,-0.046330665769728885,-0.062282943665975726,0.016201966683594957,0.03759668461494942,-0.05463974777831356,0.17956431938469974,0.201845721694365,-0.0028503857275283435,-0.14447285814690397,0.1333333628504437,-0.17104680007921402
0.414,0.03030000143971067,-0.04615409903139137,-0.07645096298632927,0.0077170915187480624,0.05224723708354291,-0.062059108819493766,0.17812933019235302,0.18790943844366137,-0.003156312328657114,-0.1467199789313333,0.12682693771886316,-0.17126836026536732
0.416,0.04340064781173563,-0.04574321401565942,-0.08913209751119204,0.0007265949961934508,0.06469181940698317,-0.06866015968882878,0.1770401496554762,0.17625665070378288,-0.0038872466935165385,-0.14898429724475593,0.12262455106026712,-0.1709518632424243
0.418,0.04209202425708619,-0.04699058935073406,-0.08895786436670138,0.00268939306663314,0.06355775932602582,-0.0690458729062975,0.17634753875909673,0.1696064999552776,-0.005152310480321342,-0.14937225746018076,0.11846879889917089,-0.16946137722624005
0.42,0.02546335973557494,-0.05119148010041378,-0.07634694439077919,0.013969690365123707,0.04927630352775999,-0.0639999769981553,0.17516250239902606,0.16417172746387654,-0.005596301437141894,-0.14643687139912026,0.113505714812107,-0.16610715146142713
0.422,0.004040671740903193,-0.0574974658975329,-0.06124211156853732,0.028061339848386945,0.031563462675854755,-0.059197819341318986,0.17284769089386096,0.15375369827570015,-0.004531854433208775,-0.14082345436451055,0.10814768752958423,-0.1619251354476648
0.424,-0.013095698454395954,-0.0643140245796147,-0.05128926078407745,0.039640823439162476,0.018156599139027386,-0.058571712598409036,0.1713168794440436,0.13813562782425368,-0.0021452284244240206,-0.1356611694868842,0.10350606186026395,-0.15910674421596938
0.426,-0.025517431295543527,-0.07042805231828907,-0.045361033781627265,0.04871635788349364,0.008739200275046825,-0.060274538111561915,0.1735345564008867,0.12350232111666853,0.0013245831266884328,-0.13249811505117726,0.10155059683970297,-0.15740369410173413
0.428,-0.03751613204507973,-0.07335519176326892,-0.03624193132283591,0.056408586185976876,-0.0022083761930479576,-0.058003025765974936,0.17951160543748593,0.11498357489682531,0.005608077225125369,-0.12906032414623053,0.10411464344529131,-0.1538319538673223
0.43,-0.04879885314165744,-0.07015897206274713,-0.021397229419082155,0.060378075116434844,-0.015620647946032594,-0.048417945576673296,0.1854168524878136,0.11164693834139096,0.009552058281070232,-0.12351035044730611,0.1098148425744209,-0.14757961142556383
0.432,-0.052112591342982066,-0.06219255371811407,-0.009886992303503272,0.05742096555629941,-0.02315518645347054,-0.037449180240074736,0.18742483080068215,0.10869319641114811,0.011450932876439486,-0.1177164286611199,0.11386314032316129,-0.14207027398020058
0.434,-0.04377914592028073,-0.05578975411883976,-0.01189071133092299,0.04955381897771484,-0.017999276954839105,-0.03470438778420675,0.18534699198210386,0.10192617902122336,0.010777218877911592,-0.11385457184563648,0.11246934444289865,-0.1407403448700994
0.436,-0.03089883371770138,-0.05596699438136953,-0.025134513009066314,0.04335645931325872,-0.005132979543742897,-0.04221207932424753,0.1815601793020527,0.08975166446762574,0.008253888239441473,-0.11104190522370563,0.10575788166914056,-0.1431962216818042
0.438,-0.021460085527651964,-0.060937950128793536,-0.039673620359996394,0.041593350542313424,0.006640484255140673,-0.05323127458709407,0.177954843387108,0.07360679881854108,0.004573182494539462,-0.10743118642700361,0.09674454727457799,-0.14613951292822208
0.44,-0.013036947912925558,-0.06425856256525718,-0.05143512500613881,0.03927618818041073,0.017056008722960998,-0.06099683318068205,0.1748270523272851,0.05713905805504247,0.0005635188712434052,-0.10284992557626801,0.08897749046087286,-0.14667614702598317
0.442,0.0016016553829355648,-0.061602882479319505,-0.06326106872704526,0.030684688052200034,0.03133333725833934,-0.06440026003544314,0.17121654127245825,0.04293166669398177,-0.0028754378449212517,-0.0978385933451526,0.08365073329220041,-0.14467114572107645
0.444,0.021759333867654024,-0.05450959139870713,-0.07607390661531833,0.017264578387744013,0.04896557737380669,-0.06577705896796436,0.16630897733124203,0.030246203212906195,-0.00592162879563231,-0.09261636548335583,0.07851902135336877,-0.14269304776828334
0.446,0.039325127586501134,-0.048206216671305875,-0.08725785395517842,0.0054960775166065425,0.06374209813334664,-0.06754399790152747,0.16139675949390264,0.017246438799670385,-0.009046172113339069,-0.08820830321128245,0.07144171260958747,-0.14359163638515826
0.448,0.049858192457557265,-0.04637921869356205,-0.0961142851317517,-0.0008072939710039705,0.07305908351890816,-0.07135022559015707,0.1590413198998119,0.004065277154822076,-0.011728195584546621,-0.08629829189468435,0.06389141637945657,-0.14748906726401279
0.45,0.055397348756405715,-0.0480902503595354,-0.1034217545193934,-0.002665551592912436,0.07911546141930166,-0.07680217526135591,0.15975486851606735,-0.007339059776856529,-0.01348419493484969,-0.08686783958856177,0.05879459231368632,-0.1514546647138992
0.452,0.05783139419848299,-0.04976895072725758,-0.10724292945044463,-0.002387367479327199,0.08231079313377607,-0.08068085086535635,0.1611394020855019,-0.01528210010471828,-0.014606815934049734,-0.08745189786286535,0.05626875753918387,-0.15274729172676257
0.454,0.05695990460437293,-0.04912317832640936,-0.10533687783692086,-0.001691575544536156,0.08083931428943449,-0.08004408677989644,0.16051188934267877,-0.020071105738907243,-0.015274566394938432,-0.08530111492593474,0.053812908161820446,-0.1516523805132889
0.456,0.05399833189354602,-0.04665796459696076,-0.09992518349735434,-0.0018654937096966437,0.0757737364989788,-0.07591652962850208,0.1580401702492595,-0.024310332103358038,-0.015145047133144594,-0.07939773407705648,0.0505809691143631,-0.15031401726657057
0.458,0.050968078228704854,-0.04474711542424424,-0.09545770606970803,-0.0023617068671880335,0.07090715679641363,-0.07208864201588903,0.15719338872202301,-0.031148347979008128,-0.01375829272667899,-0.07044114358657053,0.04929375212540134,-0.14961556485954702
0.46,0.04724997831656739,-0.04550640591378819,-0.09294341829834975,-0.0005994311127361495,0.06768848101482582,-0.070623787123444,0.16068145900189912,-0.04088678329322908,-0.011354617243432561,-0.06044211657707583,0.05242195212046278,-0.1485239337554919
0.462,0.039835160370185446,-0.048789449745241645,-0.08885610858453945,0.0050769103142107985,0.06291341989350412,-0.0698044463646045,0.1667061213468983,-0.049493750012604,-0.009128098274050938,-0.052340635836180524,0.05783793692823008,-0.14610222657276842
0.464,0.026084026913945756,-0.05256855066326141,-0.07867192228082122,0.0141644240560624,0.05167218112461803,-0.06632486371725511,0.17148971666726262,-0.05279951141891654,-0.007664227080705313,-0.047647130383288175,0.06040112893449105,-0.14286862569316283
0.466,0.00710428732957364,-0.05541593950355893,-0.06242843289628106,0.025016332539069805,0.03384575388673989,-0.05944850333760629,0.17350510020433063,-0.05234852153664554,-0.006297776932322715,-0.04416059513493658,0.05743186966019084,-0.14049692468160316
0.468,-0.009795916153993065,-0.05789772775505584,-0.04816797330696353,0.034664723453934246,0.01787580250027491,-0.053429509000912555,0.1733112806687635,-0.054405293741287504,-0.004890736134815115,-0.03824016380832109,0.05077843188153325,-0.1404869082963834
0.47,-0.016005505617018342,-0.061416298166524295,-0.0457686193739144,0.03990390995959523,0.013699268555290047,-0.05413228214194884,0.17193656980829777,-0.0627860927854693,-0.004270522015885578,-0.02973046159195035,0.04358859003721159,-0.14225503814186397
0.472,-0.011202519995970394,-0.06614518194816951,-0.05541519429217512,0.04043040606845768,0.02122193824289319,-0.06204916108624104,0.17053704568829056,-0.07526578470508713,-0.004639369274190943,-0.022794055306825343,0.03691750045924489,-0.14362029246387514
0.474,-0.0037906631282132973,-0.07025696955575989,-0.06672911722295798,0.038909526718782055,0.030580434236607612,-0.07074644394042776,0.16948389264120312,-0.08752279509273717,-0.005308289070624738,-0.02119693972563509,0.030198061032133267,-0.14432262093685397
0.476,-0.0005827832060546713,-0.07145505559462083,-0.07082285084456387,0.03742361999392903,0.03419168100974037,-0.07367609168591802,0.16767676590494873,-0.09766899060466754,-0.006058078728284567,-0.02458694887460486,0.023723972720170745,-0.1467779171329924
0.478,0.0002386375231188483,-0.0696563570961888,-0.06973389398498576,0.03541513818066719,0.03443781797163468,-0.07131287927009336,0.1644474264743943,-0.10578604103521212,-0.007438023059018382,-0.02976618462433047,0.019293049256911624,-0.15202527536822855
0.48,0.004461997811560751,-0.06718361646824142,-0.07156610782733305,0.03155360964383674,0.03806448561646979,-0.06960669116084398,0.16155186667030771,-0.11217250962851533,-0.00937496919747144,-0.03316200397809821,0.01828721413248452,-0.15746709534664843
0.482,0.01257122076473742,-0.0654609131520014,-0.07793605720226776,0.02656316137645392,0.04556760218529352,-0.07135877573445859,0.16124680227342947,-0.11806332911391827,-0.010597906638047603,-0.032237111692976675,0.020023039391615746,-0.1596798868389026
0.484,0.018028544240653272,-0.0634151914047039,-0.08104361360360238,0.0231330807104064,0.04966664297003841,-0.0724212279616989,0.16314619449470485,-0.12549878803907738,-0.009935147079038196,-0.027101915325807833,0.022522592212229256,-0.1572479737821334
0.486,0.015000900139765457,-0.06055811966296398,-0.07480617535230792,0.023437585618161727,0.04474157998209582,-0.06852423718102597,0.16497350542031392,-0.1343623793665214,-0.007707270815508803,-0.020535974223031245,0.024203643749936082,-0.15095270145268772
0.488,0.005317063949910404,-0.059126784893108825,-0.06373252029229322,0.027421418876588822,0.034226911414336446,-0.06231772068463891,0.1652016214661845,-0.14165891008213236,-0.006101136295843051,-0.015428951357627188,0.024070632138899165,-0.14356585098486227
0.49,-0.003531944165242112,-0.060661910927707834,-0.0568857910884659,0.03253993746534042,0.0263817305489936,-0.05953567584502634,0.16372381641724326,-0.14579733283946356,-0.00796346767007308,-0.013302685270675539,0.02040921580844527,-0.1392095096133789
0.492,-0.00615103821096275,-0.0626725719543035,-0.056704259052612005,0.03513371102502966,0.024971923186691603,-0.06068617868288159,0.1615496779440371,-0.1499312297026881,-0.013770542668430521,-0.01455576257170965,0.01150824055781162,-0.14074170747262663
0.494,-0.003238081278731405,-0.06191301809666414,-0.05887518722323847,0.0335352020873764,0.027424981594219855,-0.06169874889857591,0.1602045104329617,-0.15856140809911295,-0.020128634810552975,-0.017547320104783264,-0.00037874357605705033,-0.14685729346926657
0.496,0.0023293062656745372,-0.05933419787308858,-0.061549426361155256,0.029304939882449966,0.03149128433420427,-0.061564081397712724,0.16031093213980463,-0.17171534490770063,-0.023059196640667582,-0.018727536415754076,-0.008862801675664353,-0.15287150584789658
0.498,0.009119150157710544,-0.05891279829283313,-0.06759486337610793,0.0255259902699696,0.038035004225130446,-0.06389355141926892,0.16116233593313323,-0.18525768286265842,-0.021773416280806025,-0.016104309104239798,-0.009754699353269496,-0.15512927983048036
0.5,0.01411783400648755,-0.062483850359053586,-0.07611701710517027,0.02529325432275222,0.04504918020917261,-0.0700623054247102,0.16215142340529648,-0.19595281185382635,-0.017839037441154827,-0.011059125751283958,-0.0051381176041266985,-0.15375008697301507
0.502,0.012034597373367283,-0.0674981815748173,-0.07932884341592118,0.029839639500034994,0.04577331851757969,-0.07514642479871868,0.16345030244659683,-0.20317640517766397,-0.013292052642069774,-0.005818303967925738,-0.0006804530228088844,-0.15130496753961994
0.504,0.0022147708234182897,-0.07006385076638624,-0.07248349629473126,0.03652197112345794,0.03737196885866099,-0.07373656338381494,0.16461735297501812,-0.20734378264471628,-0.010992833779813312,-0.0009462961084025117,-0.0006485121939015595,-0.15007268909689803
0.506,-0.008032429634274113,-0.06919392196426159,-0.06164140800061699,0.04069449287806457,0.02657762047920637,-0.06743483003257313,0.16424256811108562,-0.20982294226028475,-0.013259316111818393,0.0043439154076976025,-0.005145466510569828,-0.15041387199135348
0.508,-0.010618177616501322,-0.0668252948644553,-0.05667003191378584,0.04014773109826608,0.02238070620436084,-0.06269666506228468,0.16215093828870494,-0.21281397906518756,-0.018482015935887275,0.010254555125131386,-0.011150982150549776,-0.15118416055709238
0.51,-0.005157048668286212,-0.06471569874188651,-0.059753470012960636,0.03652235194801378,0.02594883173385287,-0.06257608222307419,0.16022414594791107,-0.21701680373031362,-0.021980971597106855,0.01513530815690682,-0.01509476983097625,-0.15128136193773342
0.512,0.0011894572928586892,-0.06328193196459117,-0.064394827620988,0.03319641459017306,0.03056470920713099,-0.06432425144245855,0.16021235476320497,-0.22046654623322695,-0.02098371106656801,0.016956390776448473,-0.014274494959178633,-0.15012230722302825
0.514,0.0008156878857619784,-0.0630244045012187,-0.06370273746336849,0.03328883802682543,0.029454429107537317,-0.06433809175068937,0.16209172148196788,-0.2213359486888383,-0.01690753028809283,0.015748041477692168,-0.008703161718204113,-0.14746398974195776
0.516,-0.006303322630740453,-0.06525085149482342,-0.058915965214969016,0.037629615595407645,0.02350454047647945,-0.06327781672886013,0.16376794944362222,-0.22201714897938044,-0.013649923086339524,0.012755834979208553,-0.0034711591838391337,-0.145380705649489
0.518,-0.010589568236565566,-0.06934581089055467,-0.058790942595805626,0.04191582462070127,0.021598440020711793,-0.06485158081188852,0.16191056631565814,-0.2277871166674145,-0.013935612694487091,0.00866689107853236,-0.005269793917077985,-0.14864810144038337
0.52,-0.0038417527722509,-0.07037099312710869,-0.06642016886456391,0.039534016501201114,0.02900063729895847,-0.06853889192889814,0.15663070394277193,-0.23840337957119578,-0.014122010998284168,0.007244746647962956,-0.01233620264645382,-0.1566412122443356
0.522,0.008205127962822432,-0.06453620296156494,-0.07227318493167029,0.030693259328837215,0.03815524246295285,-0.06853670089844269,0.1541144972530548,-0.24487624382583753,-0.004018047595021506,0.018894550958278983,-0.011550606691453892,-0.1571267818571567
0.524,0.011954887275024669,-0.05508348706029499,-0.06625989324487457,0.023413944529161557,0.03744405562168972,-0.06172057903856062,0.1583075841933227,-0.23956847304510973,0.024933619701843802,0.05434594388456804,0.010534256761270337,-0.1366075576579731
0.526,0.0027525983019452533,-0.0445286051918893,-0.04659460239700827,0.021638343396131153,0.023395328010915668,-0.047819530278475256,0.16362347990674692,-0.22320974512181266,0.07714086485762091,0.11915951208121514,0.05992774485185192,-0.09202726566864287
0.528,-0.010607972004291939,-0.024491451358078963,-0.013665083903708342,0.017644266553104318,0.0003226847331199163,-0.021981933591935142,0.16307734975043675,-0.19697161402558405,0.15887249139450638,0.22068468654809947,0.14234871924529827,-0.024593532452068956
0.53,-0.015612548423711499,0.016552077088434935,0.032005008179912024,0.00011057668649843864,-0.02483608950424179,0.021469012933929856,0.15700865841008185,-0.15982641821810886,0.2704095456166728,0.36932977860731847,0.2678308871987463,0.06920677631894014
0.532,-0.006783632846585167,0.07751932180611552,0.08420476074356527,-0.03352478745993308,-0.04587296039571506,0.07835420214883396,0.1478547333860426,-0.12203696777387352,0.38711077090398854,0.5631886663792347,0.44098595581886413,0.1934784474478499
0.534,0.011578223568011678,0.14492848693523508,0.13355741311779337,-0.07565732835336592,-0.060869434518782385,0.13676043892094897,0.13446862818512054,-0.10873596019448104,0.46433606365879904,0.7797326732498402,0.6540452505183126,0.34744452523015834
0.536,0.03157817071287456,0.20736584270452352,0.17609695308458023,-0.11729106746420942,-0.07252109439970701,0.18914039585670922,0.1141693901117633,-0.14270829889536377,0.4652575041967577,0.9855419437545544,0.8924452957152337,0.5269904181624554
0.538,0.0491769855176895,0.2648242096848189,0.21573249970257638,-0.15553546360004977,-0.08442236563012064,0.23799467453604486,0.0833396598293469,-0.23223051487051627,0.3748544242566004,1.1474339897165318,1.1401720544336558,0.72605119713914
0.54,0.06461530600612846,0.3263491709259911,0.26151808881378297,-0.1939976072989498,-0.10001527192221049,0.29255130549431835,0.03706869259227267,-0.37474434364120773,0.1961545318237772,1.2413948237467363,1.3809071598820224,0.936499985127876
0.542,0.07874160215230874,0.4014695626383816,0.3223960268039244,-0.23828808330906143,-0.12307426931136689,0.3614490140228509,-0.02648924724852546,-0.5598481762462567,-0.04980860248220603,1.2636081414308942,1.602413199780865,1.150544049720299
0.544,0.09379562891438235,0.4919233997147357,0.39794592184233174,-0.2914485930607309,-0.15286185927449508,0.4445895344931087,-0.10324512696632389,-0.7686435951139255,-0.3267159259534621,1.2302863400049167,1.800467633436428,1.3638262128206653
0.546,0.11724953786760427,0.5916237936828682,0.4745167248461486,-0.35394233520782764,-0.17937630783904612,0.5320801699536327,-0.18905140415525315,-0.9823430866253297,-0.6029523898106339,1.1615830243605214,1.9757692395951234,1.5754846963934261
0.548,0.15728266312042552,0.6937135926710727,0.536864499823321,-0.4252390385278424,-0.19069175717353115,0.6136252743330928,-0.28706106866577935,-1.19403862484632,-0.8668222963138952,1.0714719022659303,2.131560067998423,1.7858164688803475
0.55,0.20987863080287178,0.7933044858445889,0.5838759860784966,-0.5006351380841447,-0.18775182677307936,0.686832661673708,-0.40282186866028213,-1.4032317057521433,-1.1132026779286734,0.9736982772602766,2.278345990162266,1.9963391289150363
0.552,0.25742500320980966,0.8867047182631891,0.6293725285384554,-0.570453558870578,-0.18646897580902375,0.7564914820324568,-0.5320079119274439,-1.602085712208208,-1.3278887546843225,0.8837043925853196,2.432260029685627,2.2116572580768583
0.554,0.28690319115379315,0.9753000029896621,0.6880020739654991,-0.629715150334119,-0.20123646541181486,0.8301058698619255,-0.660882993648744,-1.7822640091631106,-1.4998894273400685,0.8065514175491779,2.597878771872981,2.434179645563065
0.556,0.30273985205040876,1.0670245357334642,0.7637132743825135,-0.68440987810194,-0.23170333502202733,0.9136960129628523,-0.7785805031925354,-1.950173458498846,-1.6386324250004696,0.7288003367270992,2.754477400574038,2.653014840064095
0.558,0.31478728624464886,1.1680665663382612,0.8529597379030545,-0.7416280487434007,-0.2707100037779525,1.008785661421605,-0.8798353948845286,-2.114979506275571,-1.7662566415422338,0.6260818635591494,2.8645309169982776,2.8423725027606035
0.56,0.32370159505722357,1.2750328377062268,0.9512834614929566,-0.7992521519057532,-0.31569744182469683,1.1114227090017335,-0.9581263085945055,-2.265841434551153,-1.8970138170879478,0.48104229638077833,2.899076711028908,2.9768695869025237
0.562,0.32935156088165474,1.377342500788156,1.0478598079219705,-0.8520149703387577,-0.36142055030357273,1.211039372411764,-1.0085791578508543,-2.3791597507579345,-2.0254800710730265,0.3042115876480023,2.86399559464325,3.0534161687198433
0.564,0.3414426231302505,1.4648574808808552,1.1230484022329592,-0.900517444538442,-0.3928971006318766,1.2927386547620319,-1.035622649011273,-2.4426698640197864,-2.128909763896374,0.1380593028183771,2.8015923944902874,3.0950966366416766
0.566,0.36268673857295564,1.5289843410369848,1.1659651541838314,-0.9426456695355798,-0.40304028856078733,1.3462488116951947,-1.0444236329379912,-2.4584485722966143,-2.1847680313139923,0.021745843436117664,2.7451795139245854,3.119220915841145
0.568,0.3695737799937329,1.5522396003315422,1.182602292543303,-0.9579739015959426,-0.4069813699198791,1.365594362861216,-1.0251525890657522,-2.4295830863707466,-2.1934324337019873,-0.06222680634664318,2.6563914856867616,3.093816313184268
0.57,0.3330705862099506,1.5011342705319557,1.1680876016734625,-0.9146826471090005,-0.4176328753002212,1.332362605878564,-0.9570884584129744,-2.356830191045144,-2.177928059355604,-0.19563777597442722,2.422297141352386,2.9379448169125575
0.572,0.25706427628939194,1.3470731398572382,1.0897857162537778,-0.8001706449510377,-0.4170194705632308,1.2167700389694454,-0.8310771018198138,-2.242352094067634,-2.150824990787873,-0.45146332729717886,1.9501013009708241,2.589505961347674
0.574,0.175989464683752,1.1074262190033664,0.9309824778066335,-0.6406071218993588,-0.3789064915233201,1.0187040335640594,-0.664026006333299,-2.08518479085443,-2.0850201763451213,-0.797807361345102,1.2848804001507637,2.0859238882821693
0.576,0.11464197200288187,0.8527690795701283,0.7377996692965355,-0.483594212666405,-0.3131612595489225,0.7953330679462047,-0.4910214221180532,-1.8781865235650255,-1.9302897334620481,-1.089772713705752,0.6173151418240618,1.56175017345454
0.578,0.07051220808977274,0.650977058022012,0.5804511456579761,-0.3610998202498155,-0.2560158034224016,0.6154645819280617,-0.3438539680874834,-1.620103991869974,-1.662661076009413,-1.1785887247074587,0.15195210731875033,1.146444756451694
0.58,0.036765008597371585,0.5085931100842797,0.47187333835290024,-0.27251196347352213,-0.21789001706632316,0.489477963251407,-0.2345208479170724,-1.3300065974254194,-1.314441205220759,-1.0340178775876754,-0.03949993409009049,0.8695789059650354
0.582,0.019775998612773227,0.38386972234931527,0.3638537242296741,-0.20060240601479873,-0.17219681285252322,0.3726154836683115,-0.15602756025379866,-1.0462948368128944,-0.9592015090326554,-0.7635212230006971,-0.04782722665257833,0.6712703808936854
0.584,0.025876518643116048,0.24791831951486534,0.22154592139124266,-0.13494170381874232,-0.0984669571971453,0.23287069938394542,-0.09560701488019188,-0.8098371624923334,-0.6687617183300923,-0.5186855924492151,-0.027225911686903446,0.48704514169217733
0.586,0.04612451230078435,0.11526755343780981,0.06868407859634867,-0.07860170131620742,-0.01238354841576477,0.08956704286484757,-0.044094956076938106,-0.6414634809541033,-0.47336386287973786,-0.37831489484545094,-0.0656955652846478,0.3062039930667162
0.588,0.060774112591272876,0.019689332032260663,-0.04139334030660906,-0.03834027384844096,0.04995112557384326,-0.013458502619159762,0.0043338430486596575,-0.5317265585836225,-0.3532155761914847,-0.31425559995099106,-0.14469247968112314,0.15420678091713602
0.59,0.054397311653239536,-0.025543159549850713,-0.08018133625020049,-0.012829302341150407,0.06627179696299604,-0.05535223784548607,0.05194057936821996,-0.45583552341633876,-0.2678885931168098,-0.2604719480268174,-0.20931650669771484,0.04135503233171018
0.592,0.030072542759336938,-0.03938923592980205,-0.06963321905641279,0.006213836991081579,0.048937137831774495,-0.05679860199427907,0.09412382612156389,-0.3966208687268281,-0.192071368632425,-0.19269428114094178,-0.24529598507511116,-0.05152499964987618
0.594,0.007016766784083782,-0.05105854967416565,-0.05810539372287431,0.024053325792594463,0.032031498175224535,-0.05678370205048043,0.12457989566651757,-0.34805772343878605,-0.12225036313398858,-0.13134754250034625,-0.27506792592881263,-0.14224632320752487
0.596,-0.0027871529460059526,-0.07354338918215343,-0.07070478329208335,0.040838875492966636,0.03393944602799463,-0.07441082695608396,0.14548415537339254,-0.30511154547824654,-0.06100554572258068,-0.09354003793319644,-0.3088012049211154,-0.22229637643819233
0.598,-0.005736644039493419,-0.09843500746131982,-0.09277101000996482,0.054962683729939135,0.04337643966917869,-0.0979389645728928,0.16363802104962596,-0.2640466894961669,-0.00903396731974959,-0.07142789767264388,-0.3301527623065128,-0.2687436584979578
0.6,-0.008903131017389685,-0.1116736875958285,-0.10310691628261784,0.06272934148336064,0.045957312141565045,-0.10950456845689663,0.17755760158793943,-0.2306743114238053,0.029662449624770378,-0.05226592011151213,-0.3258905923949835,-0.2742434491557253
0.602,-0.00898220187428503,-0.11162142016562261,-0.10309799970696909,0.06178295035706217,0.04480284272141616,-0.10920381570449074,0.17950574846404146,-0.2159829626187237,0.04815012723218295,-0.03706558095568658,-0.308262142306377,-0.25857874576694934
0.604,-0.00428932855354968,-0.10886632544006397,-0.1048672458139142,0.056947070185055154,0.04768640972764794,-0.10883373419187635,0.16972159713844595,-0.22074473604839098,0.04710578815096694,-0.033085104941911345,-0.3007554116645386,-0.24862421887648342
0.606,-0.0009452956818335899,-0.10970314740215205,-0.10884999462637407,0.055074538337202834,0.051731213199401736,-0.11160330986579234,0.1588172987601577,-0.23169924368146866,0.038023406483787374,-0.037958502020529035,-0.31118617728115816,-0.25303108095457255
0.608,-0.003468033008564725,-0.10903739822701775,-0.1057375738604134,0.0562107832668488,0.04945164644403082,-0.10958470969491767,0.15514624140699326,-0.23608510351667114,0.03242093017073423,-0.03959546771880283,-0.326604916029888,-0.26158529216244486
0.61,-0.010363996677696191,-0.1011720504509318,-0.0911683851573249,0.056447066087895514,0.03916278552726526,-0.09748176990044172,0.1564433807179765,-0.2343713343730318,0.032845164422133796,-0.0302553769468271,-0.33152834377203305,-0.26269236854488737
0.612,-0.019965972764273605,-0.08866605832096609,-0.06900951971458391,0.055727834444119,0.02369820205483583,-0.0793057073627089,0.15599921912046458,-0.23513032536942022,0.03619262077705138,-0.014152865502276537,-0.32396758206608095,-0.25468480869589455
0.614,-0.03297827081122641,-0.07857586660396737,-0.04563153499659263,0.05746600196667739,0.005905510577568259,-0.06265683262791588,0.15233650837582263,-0.2419169597773303,0.04065358238797882,-0.0004076898541768328,-0.3121579245991958,-0.2440316770917122
0.616,-0.04825091308426985,-0.07535618544770215,-0.02695892679731949,0.06300421933390118,-0.010795065485627935,-0.05229248800589305,0.14961742561361155,-0.24958102292156695,0.046312994890669555,0.005577967910084583,-0.3032319389312377,-0.23811702586348157
0.618,-0.060400317155510315,-0.0788130370381314,-0.018316860947648464,0.0699874428564398,-0.02133988035553406,-0.049632116174410906,0.1516837978657906,-0.2514954012993867,0.0520190441352634,0.003561804709873913,-0.3009975075947276,-0.24031111288115206
0.62,-0.06326907611779943,-0.08604879852952547,-0.022810562057102572,0.07473008306922879,-0.02128570753676945,-0.05477179379484842,0.15841733747268838,-0.2463521651954345,0.05546069328961461,-0.0028221386859346763,-0.30853864941108433,-0.2494076188908685
0.622,-0.05652272798116165,-0.09338821609509956,-0.03693239828862028,0.07519911138196606,-0.011662795756795623,-0.0651146559941081,0.1663404831987916,-0.23790553485030635,0.05631780007200468,-0.008486617768026157,-0.3247219471769542,-0.26041801822307753
0.624,-0.04864478975785626,-0.0978956789633141,-0.0492444595821988,0.07347367669188744,-0.0014486358592281144,-0.07374757029882233,0.1719402138802436,-0.23148415422096608,0.057301242663665625,-0.010347179726393646,-0.34066953735402844,-0.26708436295851334
0.626,-0.049181246934059564,-0.09899062643602943,-0.04964910848105992,0.07408071897112953,-0.00043073576627812213,-0.07476300838623846,0.1743866947465871,-0.23126914275018848,0.06115655163422384,-0.007742042605149076,-0.34640493932890754,-0.26712166544853394
0.628,-0.05753311262747553,-0.09829861999847898,-0.04039385716881607,0.07817608812505754,-0.008304800917063074,-0.06987352371870219,0.1741186803254011,-0.2377121841237367,0.06697224079595018,-0.0015738391826370423,-0.34125649039372397,-0.2640435538483915
0.63,-0.06473372705259366,-0.09755756481260934,-0.03225311257485038,0.08216151692591592,-0.016020327496367812,-0.06556448186248487,0.17074639990357904,-0.24629018804102715,0.07036852235197007,0.004877322490383636,-0.3339485935707313,-0.2624283721378999
0.632,-0.06579921443420876,-0.09695744479883475,-0.030436626326720846,0.08308030213480729,-0.018255673734511396,-0.06462022320197708,0.16480563826190184,-0.2509779416432497,0.06823453483046606,0.0078025265677817476,-0.33194835510014403,-0.26323188110594115
0.634,-0.06390246561999252,-0.09565251653794664,-0.03089856087791394,0.08170945244567575,-0.01806902344351027,-0.06444567786613938,0.15907156151971477,-0.2505616905197006,0.062350172085664755,0.007242803551479056,-0.33453748154210683,-0.2644782335656433
0.636,-0.06276779001840704,-0.09365713074347795,-0.030023594621289437,0.0798971496860573,-0.018789672535247978,-0.06298642328353188,0.15554812628282108,-0.25004676289205807,0.05725518494466964,0.006665979667005396,-0.3373985028491198,-0.2647301167293318
0.638,-0.06153478333013148,-0.09245352015614845,-0.03034628549940935,0.07830753341624494,-0.018459781038098328,-0.06210677442570573,0.15343346788253096,-0.25425361093508136,0.055929405110783904,0.007673708446673307,-0.3388843784420629,-0.26476835498851586
0.64,-0.05780256230329164,-0.09364255938548971,-0.03586386175094519,0.0769319887515285,-0.013776646848633861,-0.06497572383491138,0.15176207729511373,-0.2619349122376442,0.058245033390686075,0.008320829350110396,-0.33968989599458266,-0.26625113578609616
0.642,-0.05192909011926267,-0.09732822196605906,-0.04606126238116793,0.07592903060471665,-0.00544187074636418,-0.07203138453567069,0.15171287278248327,-0.2679614772074967,0.062256509929704974,0.007520292941817503,-0.34048978983347294,-0.2689810534085498
0.644,-0.04778128937935737,-0.10143075447850103,-0.05469260752050271,0.07585222716229194,0.0011620481978804069,-0.07908151977976709,0.1543379269951856,-0.26919405088738685,0.06582872934748935,0.007645447123290516,-0.3414368796341611,-0.27031547514570603
0.646,-0.049390988459535046,-0.1030030098111651,-0.05458469624287081,0.0770363137857573,0.0005489239128097807,-0.08023713364746865,0.15761899255870415,-0.26670474812222517,0.06697509357038431,0.010873827953134869,-0.3422081539529881,-0.2685559716431792
0.648,-0.05643908720999664,-0.1011550607464008,-0.04512462508694617,0.07901260884050969,-0.00707405210819062,-0.07416473649201265,0.15843847120849436,-0.263871470196999,0.06465278650027831,0.015647337345122993,-0.34247947980667925,-0.2655354985558013
0.65,-0.0638082906253517,-0.0981142259531453,-0.03389358337841312,0.08097008700691036,-0.01549162688929956,-0.06628545002984292,0.15641526264425443,-0.2636161672394611,0.060584942137792606,0.01844845484422982,-0.34283027759747486,-0.26404090524684953
0.652,-0.06533211191864007,-0.09667175762694316,-0.030363884993250666,0.0817580409083803,-0.017458564603935706,-0.06384852622223063,0.15284382166712274,-0.26730880251143446,0.057832375594307414,0.017345371904754645,-0.3446491848276916,-0.2647342833534701
0.654,-0.05787627168361848,-0.09728147737084798,-0.03844610904098547,0.07950403517843148,-0.009613910472857558,-0.06924849426675204,0.14765649605922637,-0.27521854046628874,0.0569124932239215,0.013481643715529077,-0.34865259047998065,-0.26699168026649317
0.656,-0.04452382315578401,-0.09811588799880333,-0.05294276817631816,0.07355534770664475,0.004311018658567874,-0.07778943357299857,0.14143584351550836,-0.2857475101005367,0.056705997066691244,0.010546976439720348,-0.35346302056179435,-0.26996855867884767
0.658,-0.035273934771060604,-0.09700720702921961,-0.06121829776390489,0.06736535368244755,0.013224473358105289,-0.08103165130053541,0.13877364691982785,-0.29355001415086834,0.058494155787720464,0.01227003744263468,-0.3560459930177839,-0.2715421948263349
0.66,-0.0400574291155741,-0.09326991244669808,-0.052631862173210045,0.06667141837716292,0.006576843640567328,-0.07389893862674736,0.14443993837673416,-0.29209123083912264,0.06444270436597707,0.018997472644617593,-0.3542676404516427,-0.2689754488635768
0.662,-0.05758356145556942,-0.0887115418908681,-0.030551119738098584,0.0730484594894985,-0.013492143207633029,-0.06024248985383069,0.15612388996456328,-0.28112983227391763,0.07272256311726846,0.026851474278517497,-0.3493496893666364,-0.2623105509240061
0.664,-0.07515105141552973,-0.08624841026172425,-0.01071547688153815,0.08132360051408277,-0.03248751851729335,-0.04937964629799,0.16589132314598526,-0.2688564075556316,0.07831444389256163,0.030983643178001175,-0.3453179750264807,-0.255583723442316
0.666,-0.08121240897265801,-0.08662021166509266,-0.00530920844435973,0.0848267016726963,-0.03826552201256854,-0.046783526715897854,0.169053212362204,-0.2637121111654284,0.07827493933054713,0.029539815389752644,-0.3454341357378994,-0.2535671893782886
0.668,-0.07496156916072738,-0.08747859356214671,-0.012605702618190122,0.08181330137221397,-0.031584686627069015,-0.05024773934579403,0.16705948277265822,-0.2665011137810794,0.07425123927282126,0.024731659562364786,-0.34859139966655794,-0.2573949643434364
0.67,-0.06494038096256582,-0.08637830318153199,-0.021531358661995608,0.07637729830729285,-0.022780794623720672,-0.05375927215781377,0.16279933861572307,-0.2723645916063276,0.07086421128336534,0.021321732291010653,-0.3494612159930959,-0.2632179650001721
0.672,-0.060533329742917946,-0.08394675565344518,-0.02339505380707488,0.07391255217122056,-0.02076158607601658,-0.05365502508434181,0.15806828428312936,-0.27731207497583854,0.07188903016543312,0.02347071742628832,-0.3440611980917915,-0.26545054138912316
0.674,-0.06327848948170271,-0.08332376705930561,-0.019845464532296173,0.07575615796669764,-0.0246652326045154,-0.05209799808323259,0.15544665190061677,-0.2805110349518013,0.07679432177573811,0.031009978890493218,-0.3353251240863421,-0.261632348021863
0.676,-0.06666194501884283,-0.08609731741387641,-0.01895242036258818,0.07857629791352377,-0.026589867845612052,-0.053779730598867134,0.15816639939310126,-0.28282662557295807,0.08163272249393398,0.038727843488201276,-0.33084352708271,-0.2542065806729282
0.678,-0.06477646401112715,-0.08994577741260824,-0.024432757853123502,0.07884863907020466,-0.02182419785679409,-0.05930393357083072,0.1658619875235411,-0.2847101056655254,0.08410541507748252,0.04089147102358612,-0.33467466108018984,-0.24812405476134164
0.68,-0.05853826112344563,-0.09193153814769345,-0.032734654111660565,0.07663745501096575,-0.013267620446344287,-0.06497224747981475,0.17333262047509404,-0.2839878696159945,0.08576702920225104,0.03715557354471579,-0.3432300637776296,-0.2467173057272625
0.682,-0.05298623358297274,-0.09202167025399322,-0.038807548662428554,0.07439218723980556,-0.006714953748055803,-0.06784222630357249,0.17580459227444425,-0.2776488432277124,0.08775790471828206,0.03254812877420619,-0.35028903367737196,-0.24971284679355366
0.684,-0.0506522169491232,-0.09101909582978672,-0.04052865807583595,0.07285127941543805,-0.004715166370757397,-0.067430865704166,0.17305790163483908,-0.2676760914399702,0.08758685648057271,0.030941514477189052,-0.35397396308568546,-0.25466079945731873
0.686,-0.04854721878973457,-0.08812013879411995,-0.039776229038847026,0.0698145706027548,-0.00439702814841667,-0.06481623306340915,0.16770202058149802,-0.2609059160762951,0.0832683499588004,0.031480571771910715,-0.3556437817331718,-0.2587522104012183
0.688,-0.04244653816098679,-0.08335505262412975,-0.040928164248153126,0.06384306088024055,-0.0009962469911981434,-0.06263302778569446,0.16212963126517313,-0.2612703314848551,0.07770785534262593,0.03256496335157151,-0.3547300837266519,-0.25964902884335556
0.69,-0.03385226657146877,-0.0803401496069636,-0.04638967104922938,0.057913071044801444,0.005805435723771102,-0.06393037140488593,0.1576411375660603,-0.26576809534399626,0.07539796425553001,0.03460332866690336,-0.3505256422952042,-0.25668502670942805
0.692,-0.029502221554094564,-0.08297696557851456,-0.05341683630836221,0.057077600615225245,0.010815345252891542,-0.06892572019414288,0.15460541487136126,-0.26848587413169045,0.07680031144257876,0.03687800009997195,-0.3466004445742145,-0.25176164283340313
0.694,-0.0328622858775434,-0.0889556584513399,-0.05611877172901845,0.06181950066263456,0.009441711728144076,-0.07312385081580312,0.15264170137921088,-0.26569982284247706,0.0787613670142725,0.03681698395263754,-0.34690063938414945,-0.24809893444333989
0.696,-0.04024445947358174,-0.09117218683728236,-0.05094936834554213,0.06685063740059048,0.0025009042924525843,-0.07137690851223637,0.15150082168511117,-0.25688281116977346,0.07933410681769218,0.03411775726736811,-0.34909809197208785,-0.24731795100794843
0.698,-0.047401225487833654,-0.0875176926342491,-0.03999212341952931,0.06875363562910687,-0.006258204012347922,-0.06436658418352358,0.15221055596862987,-0.24334486911784897,0.08056754897858752,0.03196262118331197,-0.3470374271684703,-0.24767517914357348
0.7,-0.05498218745317611,-0.08374109278712918,-0.02841105922130439,0.07054913322730717,-0.014735099358237764,-0.0576089245886941,0.1561818872837671,-0.22796176758359174,0.08618881142955365,0.03331125629581927,-0.339313150074848,-0.24558287084265434
0.702,-0.06438411366253577,-0.08434878652163963,-0.01952851257673446,0.0754923607118157,-0.022734346820706314,-0.05405931944590731,0.1624380237883474,-0.21513356946995724,0.09657887072970658,0.03737388954402428,-0.3318476653570924,-0.23927421662377252
0.704,-0.07296465140377885,-0.08571802996205946,-0.012502509799270096,0.08081843505611018,-0.030254541405825716,-0.05083631029960152,0.16752714966705787,-0.20781751763035602,0.1080299564962501,0.0408466326474522,-0.3305601167514631,-0.2308036304060852
0.706,-0.07676146278561573,-0.08116925129679811,-0.0044430896227322155,0.08113302908298668,-0.03708061955544343,-0.043583768643700005,0.16975653004365204,-0.2041978316866484,0.1180370789353911,0.042907113612670626,-0.3335021229398073,-0.2237950104832844
0.708,-0.07534587756385885,-0.07048232825066322,0.004715703886689646,0.07557454269557713,-0.042327983766507836,-0.03295351730991791,0.1712844381624256,-0.19974997700992242,0.12747682965818335,0.04624180320516419,-0.333411983171291,-0.21964659474217368
0.71,-0.07153388314178691,-0.06096154952117592,0.010491453640900655,0.06868698331268329,-0.04405948259964297,-0.02532444414823504,0.17412829821357612,-0.19273320095276547,0.13595974642599357,0.051826889749449406,-0.3278513813454092,-0.2171567023061764
0.712,-0.06714261722823257,-0.05846159081360299,0.008599000741710189,0.06439766540222629,-0.0406819881867549,-0.02567582298593379,0.17710298564280103,-0.18547210343290463,0.14044649762516337,0.05703944440640559,-0.32299767860774464,-0.21537024591164833
0.714,-0.06181632491546429,-0.0605652607580022,0.0009792397193128521,0.06201374587525687,-0.03351074372508037,-0.03121144491659809,0.17856386575401587,-0.1804614162772522,0.14069605822992035,0.06079676556735532,-0.325118885810209,-0.21502795586445203
0.716,-0.05584222880242042,-0.06119267498336212,-0.005773008280333433,0.05927929518658958,-0.026517749039327323,-0.03513429951319692,0.17838951124585878,-0.17790286960858753,0.14088788973056188,0.0654015801680697,-0.3312565979380419,-0.21672823891081772
0.718,-0.050343685112131796,-0.05929555066655735,-0.009237574198435393,0.056306912160054484,-0.021662453768284268,-0.03578920330298434,0.17599993188153973,-0.17752787537665088,0.14370525447905907,0.07133039825443188,-0.332773687932413,-0.2188252512899605
0.72,-0.04531357231201167,-0.05858851989744782,-0.013263705184306685,0.054422306081828825,-0.017254002846169954,-0.03715101664516944,0.17100944193382683,-0.17969280753500932,0.14697494534635605,0.07504901784708438,-0.32673562409426504,-0.21872547890304145
0.722,-0.04098467833549404,-0.059961108966186755,-0.018821082524258022,0.05332579165725443,-0.013063167723706597,-0.04029505890063551,0.16622651639400868,-0.18310394353868034,0.1477473319120441,0.07356959945635079,-0.31919566230710744,-0.21627255762567182
0.724,-0.03858376029456373,-0.05979700423143896,-0.02113759741212869,0.05145424209048567,-0.011608926247999272,-0.04117817268888772,0.16506951854833354,-0.18443980265765222,0.14650388927802105,0.06811762341223354,-0.3175742503500272,-0.21402163424077392
0.726,-0.036511242135991114,-0.056356597905962584,-0.01989076047743276,0.04783613070449102,-0.011501167233803782,-0.038716145837299855,0.166264722042883,-0.18172571609199056,0.14602723436549608,0.06282193162128044,-0.32308102212411427,-0.21383031175493084
0.728,-0.030893049209265278,-0.05272674583676302,-0.021896551420884595,0.042884247776302224,-0.007239493530070835,-0.037817319571122915,0.16571328666307567,-0.1754229202220475,0.14827095212036423,0.06122728962642214,-0.33093272962702064,-0.21470146949170943
0.73,-0.02423981717056528,-0.05196949482693738,-0.02773530865892033,0.03926063637001953,-0.00034496476244974897,-0.040455279018435486,0.16337627094078735,-0.16624691521429363,0.1539268277620902,0.06455866193114192,-0.3356441294160774,-0.2139413766838243
0.732,-0.027158279607397365,-0.05291427392791291,-0.02572453339031273,0.04115333358274568,-0.0023819821303147693,-0.04006372012838012,0.16431910628106702,-0.15483508349776198,0.1633985828105551,0.07243508431908212,-0.33508229996066724,-0.209750283171804
0.734,-0.045844785159219616,-0.052463839207882924,-0.006579016385757624,0.049951452606991124,-0.02083907557935396,-0.030134319609861467,0.1719917775434005,-0.14272952501577846,0.1754790006655257,0.08289624373392641,-0.3313563807474768,-0.20329275996456433
0.736,-0.07285071249430132,-0.0502945455288843,0.0226789771717624,0.062030064865466056,-0.048255459699483305,-0.014254159737555205,0.1828735675158705,-0.13169010759995856,0.18634126640774218,0.09176487198646925,-0.32891266127690433,-0.19798607545449004
0.738,-0.09346575891133076,-0.0494428493291376,0.04433639626860832,0.07192658416545643,-0.06889274823861351,-0.0032148061379354627,0.18937424968602468,-0.12310829765123668,0.19239447193989928,0.09494514603556678,-0.3306656602735246,-0.19631429145810916
0.74,-0.09758981099047198,-0.0518547091240586,0.04617763347185689,0.07560811884053767,-0.0721848930415812,-0.0038418297711611715,0.1873573780476766,-0.11884171278795053,0.19321394457608507,0.09220693735393364,-0.3360814921907699,-0.19834587246593574
0.742,-0.08601778825139472,-0.0548316824899251,0.031579602877164756,0.07185983098539789,-0.059945667424655,-0.012697351537467934,0.17996606759200084,-0.1213512763874542,0.19117472716492157,0.08722829623935127,-0.3430138370608385,-0.20289973068994321
0.744,-0.0690370647411453,-0.054226215526656234,0.015138804742011586,0.06343153069220163,-0.04353879790970793,-0.020613985337789614,0.17425858352507506,-0.13049317599883722,0.18974436242345744,0.08392392120146111,-0.34953604592594484,-0.20824142944620444
0.746,-0.05859544360834142,-0.05041621468614758,0.008607708687068153,0.056141992368773104,-0.034322196822315326,-0.02206834866540123,0.17449745220624718,-0.13930975177517269,0.19217120073940594,0.08409522084034116,-0.35382398331893844,-0.21184582069053784
0.748,-0.05918119918364409,-0.04812422679027722,0.011704945102454331,0.05467541421981885,-0.03536915894083699,-0.01921656227121786,0.1785006742561351,-0.13835706461025837,0.19953252927832366,0.08743442377093588,-0.3545393517722794,-0.2120391473863418
0.75,-0.06511600539671274,-0.050574321577263534,0.015333494185111516,0.05840866659619425,-0.04032537864339691,-0.01805886940594219,0.18025784285326069,-0.12764942074867808,0.20849366792789686,0.09133951415829222,-0.35243989836804746,-0.21095815039198954
0.752,-0.06791893749820417,-0.05593359505226599,0.012728758759705923,0.06238352928488261,-0.0411077041886897,-0.021451545215239648,0.1768693247578383,-0.11779034836023551,0.21372925687895378,0.09262000519812026,-0.3502455219372494,-0.21252938044535233
0.754,-0.06574587487008701,-0.05934667231656566,0.007049688051250243,0.06292291330996395,-0.03741860769643237,-0.025976161613780677,0.17248531976246803,-0.11596395824114586,0.2146939917531304,0.09197078605224389,-0.35000108543626857,-0.21574204745554987
0.756,-0.06298529499748717,-0.05777143614379,0.00596190909076022,0.06084348037629704,-0.03537464158056316,-0.026577747401671153,0.17315014061474898,-0.11763990049081449,0.2162886573301732,0.09365887469149971,-0.3518227512667135,-0.21500431903554604
0.758,-0.06305259040431624,-0.05302243429608829,0.011020383797118578,0.05919795966167632,-0.0380327682331387,-0.02283324854736801,0.17869941022237476,-0.1149519327286549,0.2211015260122933,0.09824662715424055,-0.3554433201178191,-0.20935510695456888
0.76,-0.06535922119923052,-0.04975008481816631,0.016736009245731067,0.059585740996481354,-0.04228293508867098,-0.018687159301774302,0.18310007860371674,-0.10721128836321717,0.2259376300138043,0.10000603538722692,-0.36076321958908947,-0.20523253290757967
0.762,-0.06721182827469839,-0.050661711615754224,0.017623265350828084,0.06110276327589925,-0.04351132305137347,-0.018016156956087975,0.181860465015672,-0.09954076253958315,0.2279877291121891,0.09524624948593159,-0.36669577021741867,-0.2080001032523762
0.764,-0.0665508477736673,-0.05466125383919627,0.012858409478161005,0.06226015082566055,-0.04014983861566016,-0.021816851825367887,0.17618020580327015,-0.09498468836774776,0.2291851494496743,0.08877498356918567,-0.37206439478755887,-0.2159683537496406
0.766,-0.06396073120408541,-0.05860566905050113,0.006300366168712464,0.06267131781630547,-0.03499042253576591,-0.027449745938531285,0.17068737501877998,-0.09200149993656916,0.23202357553332942,0.08702532019898414,-0.3776162301975323,-0.22421020055011565
0.768,-0.06187618133362151,-0.05958883318727203,0.0032559318846372308,0.062276343253259724,-0.03255418112120571,-0.030247973701546988,0.1690236582518883,-0.08820635932830274,0.23593748640440626,0.08874290301166461,-0.384755652872985,-0.23064246529052626
0.77,-0.06125108009911738,-0.056697279447337816,0.005425722565726677,0.06043132731412858,-0.03401016900055275,-0.027875002757574277,0.17149419423279819,-0.08308637358514229,0.2403905149504831,0.08821334051757326,-0.392136520014058,-0.2362858388576548
0.772,-0.06074960249210987,-0.0518960551961617,0.00941200746295701,0.05726820739878671,-0.03610176181825243,-0.022934518329093746,0.175689442530081,-0.07696802657023386,0.24719683223292907,0.08447287385008878,-0.3957168367006103,-0.24129072493623144
0.774,-0.06088783171478571,-0.04898036697106187,0.012129992216668026,0.055543605178352606,-0.03719481393101482,-0.01977821814092515,0.17852771249664826,-0.06914498407320242,0.257358697719394,0.08186882501047442,-0.3940390333548019,-0.24414024240094867
0.776,-0.06649761002433031,-0.05058838264938495,0.01608775740359548,0.05935390388097609,-0.04161748911358559,-0.019108415764915305,0.17886486665368947,-0.05823606302125543,0.26853264289475204,0.08296919294320293,-0.39220443582749176,-0.244838769335531
0.778,-0.08065019788092186,-0.05557403169914255,0.025516150239781363,0.06947064959264591,-0.05342786473739358,-0.01773669883480376,0.17852840070009343,-0.04547967430783074,0.2768713338932712,0.08522242484902931,-0.39780776776020893,-0.24641254680325325
0.78,-0.09757118800824759,-0.05994068230670276,0.03838461905913442,0.08076801652381142,-0.06831387748384214,-0.013795420075734855,0.17960162758371911,-0.035451752417282045,0.28038741009858803,0.08511655847741133,-0.412928244397965,-0.252498421431069
0.782,-0.10730281740563535,-0.06093747884182165,0.047322806528014336,0.08661553987896312,-0.07736892155392147,-0.00944133281948001,0.1818360571559262,-0.030104098060739364,0.2809480443599441,0.08228373779053601,-0.43154149292136224,-0.26344404302672597
0.784,-0.10712390788433207,-0.059272133866658756,0.04889357790435606,0.08560888425649027,-0.07783066382290993,-0.0071819101421637995,0.18384431236649268,-0.025311747292988473,0.2824740107529215,0.07801082485535893,-0.44507562653388627,-0.2754466853962964
0.786,-0.10315613695389438,-0.056714488866431406,0.04746031965473114,0.08165701668362992,-0.07516229745576238,-0.006062901358893702,0.18498053262706607,-0.017294658163282375,0.2861829287787461,0.07268227256384187,-0.4508362611933568,-0.28480949994911714
0.788,-0.10080091885427257,-0.053687768967684145,0.04796379246782463,0.07821532157046654,-0.07438923126724778,-0.003926532328979032,0.18532332625539585,-0.008469582483361542,0.2893680061412877,0.06603813563422126,-0.45436873208284395,-0.29236651042640044
0.79,-0.098751181220798,-0.05084571392095831,0.04840719412411851,0.07545728280969397,-0.07383233887801559,-0.0020391491946081565,0.18518194371409472,-0.0030521042132540255,0.2895709622525012,0.05774895050041952,-0.46259024398578397,-0.3019723088223784
0.792,-0.09334345081128605,-0.0499817289491505,0.043447869952374076,0.07235092884069168,-0.0693264549363298,-0.004004317774074353,0.18494971489484402,-0.0008313172840219976,0.2871709150768063,0.04743742126025783,-0.4773745170897879,-0.31512837650482184
0.794,-0.08504269448094512,-0.050884624978041505,0.03400343294630701,0.06863902099971123,-0.06157079730435153,-0.009575275250479005,0.18488733323756784,0.0010668249647165409,0.2832499429751448,0.03509947934026974,-0.49709836914174005,-0.32974611222378825
0.796,-0.07938323643530426,-0.05103544320111779,0.028200349624057694,0.0658531236835401,-0.05651225540834482,-0.013414269039210286,0.18519148660622806,0.0038416178597707102,0.27830867297637796,0.021596851389369856,-0.518981238894697,-0.3438357589071856
0.798,-0.08197709801829083,-0.050603833435835334,0.03125597049818249,0.06732638953877225,-0.058819184794617674,-0.012168164287589952,0.18657876252582106,0.007495734302671793,0.2741504287353683,0.009491494910846308,-0.5384589642836016,-0.35668834789495685
0.8,-0.0916935859595568,-0.05272627593419854,0.03869031904325808,0.07410094442104982,-0.06639077810687877,-0.008895009790905465,0.19006296064512354,0.012649301487510808,0.27372914749633215,0.002172649370198622,-0.5520632398537892,-0.3672742822238948
0.802,-0.10057602695513619,-0.05759942196796281,0.04245000575453655,0.08162642555136375,-0.07254591819295146,-0.00820826484768056,0.1955578048878452,0.0198814675149454,0.2777281648772008,-0.0007875986145559379,-0.5614406128569231,-0.37536414525058276
0.804,-0.10293928526771264,-0.06180623707663456,0.04052416115713168,0.08479499797940795,-0.07356875359053079,-0.01075129238117413,0.201371342355938,0.028598325416638513,0.2829518896473119,-0.005705900763163617,-0.5711935374061761,-0.3828430481578758
0.806,-0.10166511550448978,-0.06347944161699849,0.03776157545367474,0.08443670377039585,-0.07229129175306549,-0.013720530162797168,0.20535712914527077,0.03669680289466457,0.28455804077940405,-0.018079133834712314,-0.5842012530646112,-0.3912968869592079
0.808,-0.1033412202497162,-0.06401157669025533,0.039221049967101115,0.08536294497115923,-0.07368312823693199,-0.014363860024891012,0.20658087289339214,0.04207003096687584,0.2806239766868544,-0.03505251907483827,-0.6001399802999097,-0.40025090640123867
0.81,-0.11087599415302793,-0.06530841044256375,0.045649883840843515,0.09013806829346185,-0.07958322778835938,-0.01214086536984494,0.2064572021699927,0.04578547473561858,0.27521665047694005,-0.0481820232673742,-0.6164774886465578,-0.4092907706104084
0.812,-0.12288007961112668,-0.06739867168384857,0.055456457669593666,0.097374635422219,-0.08920767756643139,-0.007877082724380459,0.20785434487020554,0.05150115352521305,0.2742435542855752,-0.05267391443515611,-0.6301833979295814,-0.41944157530701204
0.814,-0.13674255977984653,-0.06892050432627735,0.06749625755844095,0.1047857572223434,-0.1015346197262549,-0.0022775188768422725,0.21227683946341389,0.06016378721829606,0.2776788858849469,-0.05172347169667709,-0.6394010834608511,-0.4309227425595029
0.816,-0.14986863017925875,-0.06961302385714231,0.07977858305597957,0.11149571500172807,-0.11464569229401649,0.0034948696771709186,0.21822839194779636,0.06812131339333306,0.2796317674184077,-0.052809307592430944,-0.6448689297590543,-0.4418535201306011
0.818,-0.1589571922585867,-0.07123793361206489,0.0874368039021662,0.11689513211393603,-0.12401325422857584,0.006658169359428043,0.2225470520988781,0.0712466209104108,0.2757585666904604,-0.060756827742723646,-0.6505990757862882,-0.45102068834047393
0.82,-0.15978436540308985,-0.07538695467052232,0.08443953651374395,0.11897824126986846,-0.12357611154831324,0.0035863795795257735,0.22310686712906086,0.06886923918830458,0.26702699826052095,-0.07394199477339339,-0.6615887582674622,-0.46036487209017146
0.822,-0.15001690820063526,-0.08130554604688539,0.06887957296346889,0.11597718759673713,-0.11069605693198363,-0.006898549068671618,0.22017929825741467,0.06412324230536924,0.25707223573026977,-0.0875363803255407,-0.678807587058569,-0.47289841328641424
0.824,-0.1329101190913521,-0.08662656350960811,0.046370443261572206,0.10934366311215445,-0.09020029368964462,-0.021054073051775337,0.2150418811239276,0.06099782944389467,0.24838765524516845,-0.10022277201107946,-0.6978608233847965,-0.48902552710760744
0.826,-0.11583080858172977,-0.08983951072059455,0.026065097972359706,0.1029606314855358,-0.07119630097402044,-0.03306584306202292,0.20804872936880486,0.0601571795116588,0.2408119553211033,-0.11467685021409699,-0.7141771671671482,-0.505955464604118
0.828,-0.10380254421415647,-0.0913126786229067,0.012754488454856045,0.09894894523655805,-0.059052333107759584,-0.04049411616322702,0.19953169217225283,0.05886381508077981,0.23309376106460838,-0.13020339862331445,-0.7269357763242107,-0.5198118201661034
0.83,-0.09571947870599509,-0.09173809946232889,0.004404989997540257,0.09571546359121637,-0.05166426928189082,-0.0450392413970389,0.19179916486049428,0.055617114687585206,0.22547322388852672,-0.139791498619048,-0.7370867730071055,-0.5283926047613648
0.832,-0.08849665092301189,-0.09089064587647341,-0.0020819166274577195,0.09127304880155078,-0.044858920600293485,-0.04821144263285854,0.18822642781903207,0.052001315068208855,0.21956780534801923,-0.13809462323762814,-0.7448357431021645,-0.5328282586909174
0.834,-0.0841162626758266,-0.08903568571742597,-0.004775866559567807,0.08768163859128228,-0.04043189711537586,-0.048714651972276715,0.19065262638954636,0.04931599223157623,0.21619019990889055,-0.1290971342395866,-0.7495356862444474,-0.5353477247300715
0.836,-0.08838817018215891,-0.08817972706724139,0.0005320891494032432,0.08959046187725488,-0.044510993822495966,-0.04521224321743297,0.1981327706456593,0.046767582431669084,0.21468638887321898,-0.12237994890057269,-0.7504046980229991,-0.5355858649637656
0.838,-0.10185638247008484,-0.09062759163433896,0.012032839467894806,0.09795459467943654,-0.05725918534291256,-0.04010063115460241,0.20691161314605158,0.04373676578144262,0.21389748030895792,-0.12264787550696937,-0.7473766919267433,-0.5320889104091179
0.84,-0.11711661625681702,-0.09687546845255644,0.02129224876599349,0.10834334484651172,-0.07018596525739176,-0.03836782743229906,0.21248638502394024,0.041024304205148715,0.21275332810282502,-0.12550589806701024,-0.7407761853946158,-0.5264652814155807
0.842,-0.12578804490697212,-0.10457259168067301,0.021931740817092114,0.11547005332740376,-0.07504468454473771,-0.04223957089580275,0.2136556057804868,0.03882122582345824,0.2097088304396801,-0.12436264976202575,-0.7306716782388923,-0.5222170133897868
0.844,-0.12415036588782079,-0.10908878309926368,0.0151736110824359,0.11642903661595704,-0.07065618026954437,-0.04835605353380848,0.2126244385860308,0.03563162236014578,0.20251369638293443,-0.1191175110188589,-0.7179218347990882,-0.5204033194901844
0.846,-0.11448005448179656,-0.10718773230460298,0.007179091643334969,0.11145481548917016,-0.06182292773513383,-0.05145886331950355,0.210744688267724,0.031042377138263706,0.19066796748382633,-0.1154032793185117,-0.7043294535540459,-0.5189097809972991
0.848,-0.10429325188580443,-0.10100745490287381,0.0035851177325608614,0.10435064254924109,-0.055124689310393535,-0.04986143716461726,0.20796276021772947,0.027397415865003796,0.17759531621693125,-0.115897678903497,-0.6910656498612182,-0.5143094007872883
0.85,-0.10062503904216648,-0.09586393231446279,0.0056902916892263775,0.09982783023800208,-0.05426907592721067,-0.04586263423200422,0.20527029088047244,0.02629186020065063,0.16798212231749915,-0.1151728620501789,-0.6779223091116737,-0.5032822633400201
0.852,-0.10270671371997575,-0.09325136644944841,0.010579760929658526,0.09847675997533974,-0.05753960969854331,-0.04173697363770282,0.2038504710057248,0.025334274719097237,0.16337083455826756,-0.10532382065860997,-0.6636730513040262,-0.4853942436096312
0.854,-0.10303757361390202,-0.08930427456316334,0.014416853493412042,0.09618782032843619,-0.05993998764804035,-0.03771103565069203,0.2034281889412565,0.019728586581556466,0.161324481204511,-0.08592212737484592,-0.6478152350434622,-0.46546710581032286
0.856,-0.0960061704052076,-0.08203040765921915,0.014010362110713267,0.08973686870110711,-0.057131009941428675,-0.034674340321717095,0.20234818080848854,0.005520327749312964,0.15833297129717308,-0.06472089462468258,-0.6315816256231301,-0.4496578465509356
0.858,-0.08294206526720314,-0.07545748335838445,0.007209438345462745,0.08079340753221759,-0.04793369953021069,-0.03542270135266971,0.19779463745959427,-0.01745951466548586,0.15313929365625906,-0.04808008019313543,-0.6150102817631103,-0.4385348222958275
0.86,-0.07010266135043315,-0.07323639601170268,-0.0032889676391276634,0.07344145480285598,-0.036237380382656025,-0.03984036800414275,0.18785184788823442,-0.04268573988922015,0.14714817879827674,-0.03517057977646264,-0.5951227925786893,-0.4263199456170495
0.862,-0.06415323813634122,-0.07307341570694924,-0.008855138164676236,0.0702404776830543,-0.029831175645512634,-0.042363143396372795,0.1743145482898966,-0.05837701791451674,0.14203165024230116,-0.022308842198964212,-0.5699264723852931,-0.40763898468385457
0.864,-0.06741031276433905,-0.07099681180454115,-0.003473691034780675,0.07104334215440894,-0.03345045490948863,-0.03838566206581161,0.1609189744052544,-0.05716014645912174,0.1376171965937189,-0.008394951965841923,-0.5418100576275305,-0.3845411658789314
0.866,-0.07589744921061478,-0.06758363314200147,0.008332630508012666,0.07391033300036112,-0.04345685561441002,-0.030746995445164467,0.1490213178026796,-0.04614520922811633,0.1319815773957549,0.0048321245447212075,-0.5150895320673171,-0.3648394343294546
0.868,-0.08347031127705995,-0.06668183756811503,0.016714500041656286,0.07707867197485763,-0.05202365592095962,-0.026181791442706034,0.13793993467921614,-0.04240733913560291,0.12378570056130285,0.014903746484223483,-0.4924376466483208,-0.35217254168310186
0.87,-0.08718443992564105,-0.06865902205367184,0.01835911483189794,0.07952748871480797,-0.05544119539526249,-0.026258101109719878,0.12879169709808716,-0.054980368594359987,0.11483826823482793,0.02097417373563948,-0.47383447606257423,-0.3406380965093588
0.872,-0.08774529380925175,-0.06894769345399407,0.018459902634483525,0.08005665804174633,-0.05583192559382125,-0.026192226696403052,0.12434734470830919,-0.07595087829285882,0.10874908630503086,0.02568250780215227,-0.4564135216257269,-0.3218737476545942
0.874,-0.0873581525590737,-0.06544939868214733,0.021357530880348995,0.07866893687912375,-0.05622398977047305,-0.023228683697603923,0.12480221681184955,-0.09190264601939517,0.10626212184546131,0.03356953672060627,-0.43604076617225274,-0.29533051558633466
0.876,-0.08832592897081089,-0.06254701897136455,0.025048093577103768,0.07807064168455141,-0.057368754362782715,-0.020604315663349703,0.12648371287472418,-0.09890727660499068,0.1042801571749133,0.045896975663638165,-0.4116169900952212,-0.268295943506341
0.878,-0.09119110209233716,-0.06409454495178354,0.026230025235399097,0.08022654779246435,-0.058728402099106264,-0.02130182150699861,0.12577560868915472,-0.1038478042590966,0.10000798414017426,0.05839980291906273,-0.3868088922935661,-0.24650001394234455
0.88,-0.09419611159402672,-0.06688697640598543,0.026463171618549212,0.08291455899719535,-0.06041618133320985,-0.02253044394164667,0.12301984182790601,-0.11409525795481164,0.09372386408277103,0.06690087246010745,-0.3655476108418629,-0.22850641278998282
0.882,-0.09676460228918252,-0.06507655456103739,0.031232150845780796,0.08317326979806744,-0.06455884692123956,-0.01873454904382449,0.121543134657664,-0.12822909720600384,0.08773390352692574,0.07381973050479523,-0.34758986819106386,-0.20981697612495473
0.884,-0.10164223665096168,-0.05838287922214972,0.043461991632114054,0.08224278332300461,-0.07387173371817436,-0.008511706259529886,0.12330370366034243,-0.1382906433034051,0.08410194045085267,0.08468316284900543,-0.33049154145628745,-0.1894101340143886
0.886,-0.11008782057754855,-0.05234040039134682,0.05834976412276286,0.08329221456890883,-0.08654813761781575,0.0026527105995629713,0.12638705838446937,-0.14075937943722258,0.0826261012727186,0.09888810171555215,-0.31410158999114646,-0.17148071546739652
0.888,-0.11568828022056254,-0.05083772815355983,0.06526456128627005,0.0848603707491897,-0.09348167411189372,0.007026304644504393,0.1264731237458932,-0.1416100940146664,0.08107052533356039,0.10965910574068269,-0.3009734706643028,-0.16100341384801886
0.89,-0.10765979813442147,-0.051023264147977074,0.05659925488061609,0.08030852585618957,-0.0847626557489355,0.0022219451880681976,0.12019999945723941,-0.14883823231844473,0.07797291302831584,0.11325330414394824,-0.2929192186117464,-0.15701908589119412
0.892,-0.08453926482809289,-0.04710947369936409,0.03719493541726814,0.06636138147159946,-0.06235857315685669,-0.005964701036120287,0.10863931535363408,-0.1626955297018458,0.07370061209599958,0.11305532320643778,-0.2876710886289135,-0.15250368838138678
0.894,-0.06120298869280954,-0.03804206390987171,0.023061098439889793,0.050070976238702554,-0.04290875586918381,-0.008678957430569945,0.09835066552678368,-0.17562102401344473,0.06851941884438835,0.11436843294487459,-0.27924392178831164,-0.14262928585498286
0.896,-0.054594667606384366,-0.02892129680173192,0.025750082093532953,0.042499663934702114,-0.04132459738965971,-0.0026356047624460565,0.09619527817270371,-0.18107619626141408,0.06170763705333211,0.11872942655271933,-0.26379294029074307,-0.1298095017737905
0.898,-0.06526742493630339,-0.025240431001348734,0.04011786456361998,0.046587442395013404,-0.05473822595301628,0.0066736516484117315,0.10199029440474111,-0.17995953676051554,0.053232802690009996,0.12435478458040651,-0.24518369073904306,-0.11837563479717142
0.9,-0.07982927452214117,-0.02775883681260641,0.05207238860287962,0.05562909247780626,-0.06845626647169407,0.01141372785598487,0.10912294195108677,-0.17782752855497438,0.04501781637462312,0.13016959301738004,-0.23156207827854888,-0.10835980263969376
0.902,-0.08652618711970146,-0.032252194129143395,0.05422551064303454,0.06137002616177721,-0.07248958307225974,0.009891931467082653,0.1124214408292544,-0.17873812203216805,0.039693956868665586,0.13645513981666685,-0.22616882726109924,-0.09793105840556036
0.904,-0.08353902434592887,-0.03340955197016759,0.050127197786222204,0.060349319012460795,-0.06791478406534802,0.006999759255987621,0.11207535123884167,-0.18290361134594688,0.03833716676378139,0.14206780139404573,-0.22438445650368807,-0.08849159195044914
0.906,-0.07701304676015414,-0.029588654990479482,0.0475925190359839,0.05484152639251385,-0.06226115518122695,0.00792268093511452,0.10997312216900279,-0.18811580794003963,0.039108494232488224,0.14490246568988102,-0.22012240473666184,-0.08342238233510867
0.908,-0.07337406138138867,-0.023588303150043427,0.05028674248948578,0.049561356277441085,-0.06113263314303642,0.012832534837511712,0.10615280385955407,-0.19262334697503883,0.03808578902296792,0.14508429487289667,-0.21260328713391596,-0.0831714436668314
0.91,-0.07234692492953666,-0.019288739073800083,0.053941110836292626,0.04683910491685133,-0.06249976205254215,0.016863983015223166,0.10028601754307535,-0.19696136961941405,0.03292331975459077,0.144367272392819,-0.20592056599805567,-0.08394394265513129
0.912,-0.06945194321803108,-0.018244453703302497,0.052224668577919624,0.04526478511923745,-0.0607485684244406,0.015947867031072704,0.09397881537723991,-0.20235617169600165,0.025689158409025796,0.14323593493301967,-0.20374520302810542,-0.08150946425584613
0.914,-0.06524011018507815,-0.018666481576154623,0.047351620206249063,0.04338959958667469,-0.05684535154109808,0.012859014815960688,0.08992766429383448,-0.20783749840814977,0.020898507017738436,0.14173830400577367,-0.2054389576551876,-0.07542770997891027
0.916,-0.06702478305521971,-0.01741664200411867,0.0500224968142481,0.043096739983986596,-0.05946331045229843,0.014801370171112535,0.0895763098988493,-0.2104249984933501,0.021241264213413335,0.14153788420552643,-0.206774079169387,-0.06847717961150464
0.918,-0.07864093698063562,-0.013587094413738718,0.06524629430174422,0.046901974561645285,-0.07281322999598906,0.024132312972914665,0.09178643010748566,-0.2083021149760543,0.025547532609610464,0.1436940861352667,-0.20450269614918998,-0.06257295012753882
0.92,-0.09253844774239191,-0.009835536420819142,0.08281810997580484,0.052879480833666684,-0.08804347735426266,0.03424998712414345,0.09370524128817054,-0.20339258225822515,0.03012905299367257,0.1457722893072739,-0.19992051417682452,-0.05717550848611378
0.922,-0.09679069516540355,-0.009765666143302994,0.08718975705693185,0.05579930432784203,-0.0917822065225094,0.036325444240753055,0.09346772626668744,-0.20041541255253661,0.031669424693652234,0.14412907443185877,-0.19715271919730076,-0.051840634821783055
0.924,-0.08798081054017778,-0.014098657060484125,0.07429842887793628,0.053239720146267135,-0.0806521702645778,0.028449133424875334,0.09210268778290641,-0.20220427276235292,0.02930989158201076,0.1388015337993442,-0.19831978487686494,-0.048179088072422896
0.926,-0.07353111938610835,-0.019592258163192502,0.0546771208100359,0.04767311076063422,-0.06367298835133092,0.016953546787007157,0.09191947952032045,-0.20633147969859159,0.025134682317179677,0.13417762211835665,-0.20099141150844507,-0.04817159077779935
0.928,-0.06307762281494772,-0.022229451306780022,0.04166200572215679,0.04288364991833641,-0.0521988418018179,0.00978829819781057,0.09256873121361038,-0.2085761334031443,0.022465627077692164,0.1339901252576843,-0.20069504084035494,-0.05173810635777057
0.93,-0.06016758401241652,-0.02133699150326862,0.039408380696945994,0.04058417923056494,-0.04992216385716662,0.009359211982590862,0.09060383643007351,-0.20839355116530994,0.022563358933187644,0.13722400357260006,-0.195787715301259,-0.056571135772157256
0.932,-0.06127941133653894,-0.0195294294733631,0.04200888714735892,0.04005240956225955,-0.051926864521695,0.011713649039203432,0.0843840511157259,-0.2078286696909823,0.023486647120225017,0.14014814881539658,-0.18882137073904837,-0.05984950992761954
0.934,-0.06138270054112488,-0.018964828031067946,0.04245704902226988,0.039739430916545235,-0.052153846353265206,0.01232374795075602,0.07702424358401097,-0.20732998414624554,0.02282997401366054,0.14089788600901534,-0.18315665854436725,-0.06036885911798965
0.936,-0.059574637815339095,-0.019044223565553426,0.04050183907452227,0.039091415985701594,-0.050410480186174986,0.011242980550880733,0.07302162051040913,-0.2060181657795611,0.020781401751916367,0.14121381471683933,-0.1796741541475392,-0.059048966996176074
0.938,-0.05848140697880631,-0.018115557667645745,0.04045420678538005,0.03864422560252975,-0.05057670485465327,0.011338158767793611,0.07450655428906643,-0.20394159514890772,0.019827881828681358,0.1441958911503484,-0.17697726244043294,-0.057024927920411174
0.94,-0.059794481031964,-0.016547455749119214,0.043596112996335847,0.038966354834942596,-0.05368160422077817,0.013111787930400428,0.0810940637283464,-0.2017247013398933,0.022085822960893002,0.15033791016997872,-0.17374079798002143,-0.05456114983402874
0.942,-0.06310088387260619,-0.01652831528517902,0.04716904155099405,0.04059467148358762,-0.05699983002972063,0.014417535089594183,0.09036462257784408,-0.19923998270087093,0.02782207563400872,0.15651920578967043,-0.16997059301276013,-0.05236720124477609
0.944,-0.06804105244525921,-0.018430455964306248,0.05033490520476779,0.04386538725477699,-0.05970019744685585,0.014996305193560978,0.09906577286089377,-0.19523895312658698,0.035844206195259624,0.16003558142258945,-0.16583675517225607,-0.051207483446828135
0.946,-0.07433415460954523,-0.019273114474482936,0.05577930535372694,0.04742440984730661,-0.06424010099024738,0.01769993321864988,0.10599219400289023,-0.188139517056534,0.04359334388055808,0.16193913148036645,-0.16104469313148242,-0.049485030248893926
0.948,-0.080485074625183,-0.016323205925815536,0.06468596081752216,0.04888277554337353,-0.07162968991496864,0.02416747368816913,0.11192655456547372,-0.17838002751196844,0.047784274064015676,0.16454268794719215,-0.15658869212022422,-0.044481249239939014
0.95,-0.08513240731920978,-0.01112137200214178,0.07417705928395604,0.04826916347236214,-0.07945535278185095,0.0317353507708606,0.11617638583992675,-0.16955623750126955,0.04751257064041953,0.16785975358783056,-0.15499216079754682,-0.036608455656853146
0.952,-0.08869053433960636,-0.00810495717820942,0.08048636516781969,0.04856857213289068,-0.08497138216623852,0.03597295848019766,0.11681476558999314,-0.16496852943931892,0.04565938383015695,0.16988443351529514,-0.1570920414627497,-0.029564750462279077
