time,I,II,III,aVR,aVL,aVF,V1,V2,V3,V4,V5,V6
0.0,0.0003290943103269626,-0.0008556452068501026,-0.0011847395171770653,0.0003290943103269626,0.0007459471034077819,-0.0010750414137347445,-0.00021939620688464173,-0.001294437620619386,-0.0011847395171770653,-0.0020403847240271678,-0.001930686620584847,-0.0009653433102924235
0.002,0.0024085288954724467,-0.0055601072661975075,-0.00794669654098149,0.001969736481703163,0.005100985025159298,-0.007070721506862461,-0.0014228557579110963,-0.008932369678542839,-0.008275790851308452,-0.014143052807144457,-0.01337677587646775,-0.006743236989955035
0.004,0.006572257897842774,-0.016251303853701535,-0.02269224598609743,0.00587662920949007,0.014413854339617643,-0.020290483549107712,-0.0038210713232571646,-0.027374119181267885,-0.025627325778093013,-0.04371705034805083,-0.04120398001419926,-0.02103997752415914
0.006,0.0057273696615672215,-0.028590091903877197,-0.03396810288480944,0.013082315235627917,0.019527412207405188,-0.0326097274430331,-0.004987172429395441,-0.04913817778649525,-0.046368572877369896,-0.07973998820669441,-0.07458895068784828,-0.03875863201068057
0.008,-0.010920668359222995,-0.03403324536469357,-0.022536716402957038,0.024456234801614345,0.005556032914898973,-0.03001226771651332,-0.0016084817379379951,-0.05773409926833007,-0.05459990440486753,-0.0961483174809585,-0.08876067779477345,-0.04716186670016056
0.01,-0.0379769914530062,-0.02878178508448787,0.009909481865280786,0.03557137587548642,-0.024131084120987953,-0.011549989857940795,0.004913128649679432,-0.048864274758026606,-0.045566458322355195,-0.08367473857865776,-0.07558843602302627,-0.041411294703423966
0.012,-0.05072522470574589,-0.017901373142670724,0.03354820237926221,0.03660838005510092,-0.042626509725190866,0.005361550842855551,0.007960907257158865,-0.03764965091733823,-0.033607343787536895,-0.06309987677367787,-0.05534177223112677,-0.03167646451245658
0.014,-0.03574744730755573,-0.01060155512534253,0.02567824146328172,0.025155627176629072,-0.03183364460250086,0.0049312240226969195,0.003168739089718629,-0.03886996122637669,-0.03366549915645591,-0.05808124963592277,-0.050407270555312876,-0.029451778300862656
0.016,-0.008520701046472744,-0.010654057011122152,-0.0019667044636347926,0.01092614252758909,-0.004841089759908701,-0.008854657676805728,-0.0067562225155328335,-0.049818235726980874,-0.04383039301918067,-0.06825194520425111,-0.060202466694679845,-0.033564267734475454
0.018,0.010500752970257312,-0.013466248003894128,-0.0240923411208071,0.002437414745638625,0.01577618191213608,-0.021128395314352583,-0.016643578959829732,-0.05779096102372155,-0.05221853510005531,-0.07766055331719915,-0.06922873762094701,-0.035658725631638036
0.02,0.017613500845421688,-0.01594214310742034,-0.03370823794721508,0.0004222165869504015,0.024383843907805212,-0.02679071927595825,-0.025090047619617282,-0.057919326087965496,-0.05435770596310166,-0.07951579266162623,-0.07095138152441238,-0.03475295496405326
0.022,0.015927416063481088,-0.022714753321881172,-0.038657094037053565,0.0054523392349013254,0.026085951119004105,-0.03208701067735705,-0.033742884715980956,-0.05712363175586323,-0.056031937170841296,-0.08139525395755,-0.07322895497498799,-0.038264351835883656
0.024,0.0040419002779691375,-0.036092938496254466,-0.040061896336614736,0.018661935356877775,0.020737366553318322,-0.03897679567911234,-0.04175029509875462,-0.06127285826334538,-0.06124214835208797,-0.08926355458355931,-0.0819524169775515,-0.0487472930854394
0.026,-0.0168466148526894,-0.04707553092612069,-0.030185655003761157,0.03435305195298772,0.005274608449227569,-0.03926064273507219,-0.043928453416435406,-0.06564211041202837,-0.06497336520745563,-0.0967266919409076,-0.0900769048832657,-0.05764342721636776
0.028,-0.03715204221229181,-0.04392882453800162,-0.006795406118919483,0.04209312085834861,-0.016447538423893942,-0.02593901455592958,-0.036930768119838656,-0.06236175025825985,-0.06032772323479057,-0.09364300967163537,-0.08732735019797815,-0.05592596883109959
0.03,-0.046209778952499184,-0.026875865649967728,0.019279615550968444,0.03753449548405007,-0.03372709060967593,-0.004449525762691186,-0.02586331794461729,-0.05228928843882075,-0.0492286337046349,-0.0803526071976815,-0.0744455567298386,-0.04570949073162166
0.032,-0.04013182970004283,-0.010814071456767969,0.02918113349585012,0.026645359825444644,-0.03552979852177476,0.008626151203167383,-0.021383051288225815,-0.04513162553575761,-0.042710543800347264,-0.06902120752027388,-0.06311498230707974,-0.03754252515985778
0.034,-0.022751804393702942,-0.011722418694938693,0.010695124985072364,0.018876271644408155,-0.017865931547217467,-0.0005914613128448357,-0.029278942081863116,-0.0491435519838834,-0.049246146521235296,-0.07084110167401222,-0.06383508551105141,-0.03867819994036963
0.036,-0.004466946306581267,-0.028440854858634974,-0.02449578756886015,0.018195897431277905,0.008508710873373305,-0.026032281823722286,-0.04345535337336857,-0.061328356549221995,-0.06359117489625069,-0.08345900850413679,-0.07494822136352007,-0.04584969025321145
0.038,0.0044455765845521685,-0.04165857438941152,-0.04655920786523936,0.020052199223439246,0.023956434122222196,-0.04367611533507464,-0.0508880526262319,-0.06939014683916471,-0.07134056269923604,-0.0939266189553099,-0.08410718821218342,-0.04933216973764577
0.04,0.005087565675240819,-0.03624274051992154,-0.04140696099510878,0.016861902416589056,0.022078025825440283,-0.03906177866852372,-0.04563604254305013,-0.06603231342352837,-0.06611252283870514,-0.09440200192785748,-0.08258298135760331,-0.04470750667764255
0.042,0.005532525911027226,-0.021249856465820338,-0.026471069883808047,0.009426940124366963,0.015451880067197062,-0.025112420587980886,-0.03601655399079052,-0.05782524514629196,-0.0569501444511265,-0.09053798384177883,-0.07547976282375642,-0.038982722441031126
0.044,0.004758350501195989,-0.019507316073107007,-0.023918078897533942,0.009182276182335464,0.014448369945377015,-0.023683704370860436,-0.034463674230681196,-0.05580132465577192,-0.0559126124422424,-0.09244013058486802,-0.07381226253895082,-0.04147828004097015
0.046,-0.004631477769550229,-0.03759608176251279,-0.03288825732863204,0.02254563151543994,0.01471695394172425,-0.03714190280550955,-0.04256764415028583,-0.061959197526283656,-0.06374801234790137,-0.1012983345389854,-0.0800181950191096,-0.0508198159121852
0.048,-0.021287644188823247,-0.05659425655675,-0.03542427115224239,0.03970694819837834,0.007726280715227056,-0.04722591077602557,-0.0504420359312015,-0.06928742326357717,-0.07105535378662613,-0.10841372124061141,-0.08605306144427986,-0.056264576510313274
0.05,-0.03609264313338369,-0.055427144031968544,-0.01929432280832466,0.046360893844281784,-0.008178651746569619,-0.03787200076378883,-0.04898581510185381,-0.07047218421244059,-0.06940663528152992,-0.10511578509571393,-0.08314401873541202,-0.050043771974754375
0.052,-0.04405187064259552,-0.03412319681086377,0.010406302882499538,0.040214150581990106,-0.02776174336783534,-0.012079325489357935,-0.03855822770692908,-0.06361401106316833,-0.05865914261295496,-0.09062297297707875,-0.07010239374454878,-0.03409058114828224
0.054,-0.04671602338251575,-0.011328799934538378,0.03620747824082853,0.030735514397835787,-0.04255979966115376,0.012043607823027595,-0.027437841815101945,-0.053745910682476326,-0.0464377596501853,-0.07311296376229237,-0.05477515366543552,-0.017822105765837284
0.056,-0.0450157088716882,-0.005282085667874337,0.0404352589348538,0.02687919549787455,-0.0439611079132924,0.016945109402155722,-0.025288855007869857,-0.050413915375903354,-0.042952619372956385,-0.06493679976277723,-0.049222453544296677,-0.012340616002689639
0.058,-0.036658487470239615,-0.018703273188001624,0.018158130333350547,0.029081859957573782,-0.028821495182666412,-0.0008258515917137373,-0.0355760575154577,-0.05954884286628218,-0.05347926546521083,-0.07240012968074214,-0.05993205524635693,-0.022286320450924497
0.06,-0.022668300837470234,-0.038823885747670185,-0.016352726185015577,0.03208184393772989,-0.005157481306921292,-0.02806945434577069,-0.051496583286236665,-0.07654626436178065,-0.07269503229426276,-0.08915087772272394,-0.08075541879489402,-0.04100367579475741
0.062,-0.012977410068675308,-0.050802295309111525,-0.03803146450080447,0.03348425517602891,0.010024837825549766,-0.045366394217601455,-0.060744695362077376,-0.08919865268886915,-0.08743349303892034,-0.10181675593943297,-0.09674941198506308,-0.055327043825165186
0.064,-0.021392991546573197,-0.05089299486150179,-0.0295019248005946,0.038031963347783436,0.0017441656563916142,-0.041810750272632514,-0.05493072409235002,-0.08712392047479979,-0.08687908510745904,-0.10103074616597399,-0.09558360548489937,-0.05469120093988107
0.066,-0.05002882655494216,-0.04618905852756938,0.003948230944464646,0.050047870064651424,-0.02858747874248489,-0.022695704973183517,-0.03585469437088626,-0.07037391277423201,-0.07150288873617895,-0.08787702720988606,-0.07753368739664357,-0.038610946838902475
0.068,-0.07886730920709757,-0.0440082458774234,0.03491219309353294,0.06286956492114311,-0.057908146817637375,-0.005452034961256346,-0.015819957341164818,-0.05118140497300634,-0.05330699925527161,-0.07318077907317992,-0.056597937253408705,-0.019338091050210365
0.07,-0.08047323181412419,-0.04482197599594815,0.03559604101760795,0.06322044987299845,-0.05900647615423075,-0.005183884842242377,-0.009718475396004709,-0.044152544354593946,-0.04619302626975206,-0.06957008704606993,-0.04894267356012472,-0.012866891188915026
0.072,-0.05089227811934143,-0.04484830842467575,0.005867918820649753,0.04799239161436227,-0.02963456353004564,-0.020204715081565367,-0.021885115499331958,-0.05291259820155392,-0.05395483879145852,-0.08018934348986656,-0.05755935304769646,-0.022811093835123662
0.074,-0.01759423167341925,-0.041700837508062846,-0.024415310658139813,0.029930897500412314,0.00213322125631035,-0.033562994159894444,-0.04104064463951772,-0.06766128289103367,-0.0674818436646384,-0.094880822390323,-0.07017375322778038,-0.03653647119254936
0.076,-0.008499209341668356,-0.035128614064522966,-0.026875907869172593,0.022453123060344707,0.008267818082364388,-0.030843035983579212,-0.05101246738886141,-0.0750857262022614,-0.07443677586240464,-0.1002026523570326,-0.07357548070615841,-0.039837410836069044
0.078,-0.02136256942341612,-0.0250312654009245,-0.0034528356489429016,0.024373152183755593,-0.009653300871478011,-0.013969799938051992,-0.04610800186948591,-0.07032049403019502,-0.07102094730127366,-0.09284501074282225,-0.06746813186980044,-0.03185185001326911
0.08,-0.032480201103273154,-0.012593773294717734,0.020655708601322962,0.024645778495384678,-0.02738286488269756,0.0033200131228329315,-0.03447255814902158,-0.06038548741161577,-0.0635200034200635,-0.08146704181926231,-0.061967204784497965,-0.023247951330932756
0.082,-0.026352277576620033,-0.0019496588877000716,0.02521658509897497,0.01716504488011197,-0.026804163062044212,0.009801095953460901,-0.02734072811352023,-0.05601603319719593,-0.05965139017204296,-0.07631837750593605,-0.06414918025126896,-0.0231765132696614
0.084,-0.008708780243516739,0.001913767721450435,0.010936307561035393,0.006620004361413162,-0.011148047457080382,0.004625834474552067,-0.02743102973196247,-0.06055302406539877,-0.06054564530997771,-0.07883750934018445,-0.07160552500011519,-0.031149250352943317
0.086,0.0037406956256773377,-0.0025338628734628654,-0.006356001845189936,0.002137744851446401,0.0032701390929284783,-0.005328805815822618,-0.029311043847983304,-0.0684668758730632,-0.06218380847905669,-0.08303498630565123,-0.07846905409339221,-0.040075913641347445
0.088,0.003731940756297208,-0.01110406882320654,-0.014771019730904902,0.005749820299599709,0.007206449822472348,-0.013493908398958282,-0.029558298828863863,-0.07428036811641557,-0.06299564435213788,-0.08575326519507685,-0.08253748570198997,-0.04424989216694973
0.09,0.0020853370412786424,-0.017641767858856225,-0.019303015136979004,0.009337466042584251,0.008620729722580928,-0.01963559347407372,-0.03151985987518966,-0.07846525808303297,-0.06596285378594127,-0.08995188391598351,-0.08463242406111789,-0.04375772498369083
0.092,0.010497499540531016,-0.020156811517918084,-0.030137515596664152,0.006297705912893369,0.018025528594376523,-0.026637611340309838,-0.03834545667864962,-0.0829416133825871,-0.0723375215218729,-0.09720107179317454,-0.08491114487732532,-0.04220853664232063
0.094,0.02363297657467989,-0.021783890087031587,-0.04504162191007799,0.0007939408073834057,0.03162594298289905,-0.034379155321974816,-0.047326406709619025,-0.08666884195270277,-0.07839371004737723,-0.10393859592298026,-0.0834900043071831,-0.04220059608985306
0.096,0.025475178428111415,-0.026949024053824665,-0.05218264106337609,0.0025562459101829433,0.0360294596643401,-0.040056467043804014,-0.0534612572858043,-0.08759031656437358,-0.08030270645712966,-0.10611351837938458,-0.0820333284850504,-0.04336724238165369
0.098,0.004460482110658836,-0.03658736990102968,-0.040912313313069236,0.017751457974660566,0.020244946747327377,-0.03934829327358599,-0.053291530706075126,-0.08389459066174472,-0.0775504812407628,-0.10162454716790902,-0.08080565384401131,-0.042382215545500666
0.1,-0.03620920735958964,-0.04621585915425759,-0.009994100856496494,0.042993571999310434,-0.015248524845077662,-0.028821581390443544,-0.04615332263144286,-0.07497008106589537,-0.07179205551300123,-0.09113587415748699,-0.07771567093249027,-0.03605118420310043
0.102,-0.07382486367476601,-0.049147078206546256,0.024637533696726707,0.06345275855634405,-0.051337826380437025,-0.012871887971021156,-0.036455691187866436,-0.06485324588058242,-0.0664114548708054,-0.08126490989592669,-0.07327096340232786,-0.027037973872774346
0.104,-0.08119159972614538,-0.041855501773627325,0.03942365219090422,0.0630629163903327,-0.06216764714310591,-0.001982841096482249,-0.03123095198118056,-0.06009117414225535,-0.06507152220832772,-0.08007235506753727,-0.07124316686998891,-0.0229345661629701
0.106,-0.056574094859930965,-0.02903822857492196,0.027873234018596357,0.043378306793821104,-0.0433271385702883,-0.0016770527519712908,-0.03296668849505307,-0.06244382137037831,-0.0683004705978203,-0.08708747716989597,-0.07337741863038245,-0.027758846532144676
0.108,-0.027603945603647567,-0.022254584775826446,0.005800489236392665,0.02500263373263997,-0.01723971667997712,-0.009261707889440102,-0.038565087326837014,-0.06797700817269074,-0.07296269767100719,-0.09487606884112547,-0.07815180755399943,-0.03777763639626888
0.11,-0.018667036853095526,-0.027541095309467547,-0.008609954424349945,0.02361868352538834,-0.00606714208872993,-0.01875848458557219,-0.04411245013760803,-0.07196759168297442,-0.07486636721939015,-0.09854075661230609,-0.08253779198555998,-0.04503898823274954
0.112,-0.028167470875331634,-0.03801220465204731,-0.00988173889192012,0.034156996883939084,-0.011180515368860482,-0.02451635269626576,-0.04724316149666476,-0.07207683966350423,-0.07180443710451419,-0.09806636357631993,-0.0823322296515801,-0.04344883303070563
0.114,-0.04136877476658734,-0.04308791101600078,-0.0018750163637807345,0.04303501034906928,-0.021671871883546637,-0.023124832158504242,-0.04705620911013932,-0.06933104708169985,-0.06548670980889228,-0.09503931247302962,-0.07538409080040713,-0.03395228288745961
0.116,-0.04963885466590879,-0.039556773234258914,0.010020215331494563,0.04467117373241672,-0.030227501885717753,-0.01534895674287229,-0.04437634708873907,-0.06681416554333479,-0.06030318362610902,-0.0915022797179662,-0.06564772854506443,-0.023808976567678337
0.118,-0.053020877742510665,-0.03276081644854464,0.020312332112225332,0.042862575547377685,-0.035752239273482075,-0.006874062752256875,-0.041696252377090647,-0.06634003580325074,-0.05945764549062296,-0.09002331262416326,-0.06011351654402734,-0.01966974600232948
0.12,-0.053142627728737485,-0.029833402366476677,0.023367840444302068,0.04230058283166459,-0.03764922299908688,-0.004586551710905049,-0.041746292277785424,-0.06784436631463125,-0.06258069440600582,-0.09201011897857747,-0.06207855184723308,-0.02293639621862795
0.122,-0.04752548434080087,-0.030549934438669414,0.016975409971486555,0.04074900978394131,-0.0330440228508047,-0.009249174282664661,-0.044852344527300476,-0.0710969676033848,-0.06692357475416104,-0.09604007120489938,-0.0693744472108818,-0.03026677416818396
0.124,-0.03352268467091963,-0.02743323222368407,0.0060575490007033165,0.032295269259144894,-0.021598147939183566,-0.013755155075509623,-0.04767290124096262,-0.07476739005606105,-0.06952446646389886,-0.09830251350039755,-0.07691616181498877,-0.03594564263354162
0.126,-0.017566202278312845,-0.01796169001410428,-0.0004106478686298678,0.019094504204556297,-0.01052251487230363,-0.01176017524485209,-0.0467270353267594,-0.07615106577177101,-0.06855160805383154,-0.09541510866375554,-0.08004261708544304,-0.036646715640161975
0.128,-0.011294448899287638,-0.01109307086927035,0.00021152833084411707,0.01213923652638237,-0.007511697134928553,-0.006796160993363056,-0.043554357627251614,-0.07502409424154101,-0.06517467678143936,-0.08892188476221193,-0.07831674013275727,-0.0353265032812879
0.13,-0.015781904306820395,-0.01587429538928181,-0.00010121600920026951,0.016708993847704533,-0.009489543641363861,-0.00846721785684987,-0.04341076985700503,-0.07451721808709973,-0.06379078790590442,-0.08567464940591946,-0.07591577419340674,-0.036952876379593144
0.132,-0.0200819817490209,-0.027501778482081022,-0.007550387406449636,0.02477248910883358,-0.007889220946146669,-0.01811672029541432,-0.047360470454152134,-0.07593667895786216,-0.06676716145223335,-0.08936361743501345,-0.07515597302283018,-0.040133646032107236
0.134,-0.019887728340973496,-0.0320960605391639,-0.012542560993552786,0.0271718112450082,-0.005312581009948546,-0.02336462138102399,-0.048767400171730785,-0.07576721105704509,-0.06933180847669779,-0.09334033851915113,-0.07153786833521283,-0.03699132569925007
0.136,-0.025767883545487764,-0.025697419081043428,-0.00035578884127342343,0.027122944704571755,-0.014301567819724526,-0.013819193735568065,-0.04187680898555746,-0.07063063871121089,-0.06503836569591297,-0.08882267579728227,-0.06096961312999694,-0.024099133443865873
0.138,-0.04383455076858523,-0.021544480525624916,0.022058442886427367,0.03409049080514787,-0.034361504533295506,0.00030383330634593873,-0.03193247391120803,-0.0642422872313713,-0.05694333762231538,-0.07964474154148883,-0.05019440674606382,-0.011211298655943374
0.14,-0.05904916609881728,-0.0322280883198566,0.02695906093144108,0.046680078017620044,-0.04424872714370619,-0.002324638768377402,-0.030044343565431845,-0.06513431214076622,-0.05609634433888738,-0.07942561358561481,-0.05116150732092123,-0.01248016739961156
0.142,-0.051416450694418435,-0.0495638872283778,0.002194787485150223,0.050898122305201875,-0.028214331695710672,-0.024268742174328735,-0.038055916634650876,-0.0754406278831518,-0.06641249727238532,-0.09212283512115849,-0.064534916030628,-0.027960112613928008
0.144,-0.022020158731916657,-0.05406127652559576,-0.03188416201504664,0.0381685478972735,0.0028872978549747473,-0.04469907878951312,-0.04604482597618197,-0.08679898520309332,-0.07894923023781458,-0.10579729479768574,-0.07823886877237271,-0.042893281142458904
0.146,0.009068364100118619,-0.042068649062789835,-0.05135107523550144,0.017357719955258286,0.027546976155374516,-0.048548151834386474,-0.04630308347737378,-0.09112282260900527,-0.08417130341420992,-0.10934832555795466,-0.08354915903688229,-0.047907958089991015
0.148,0.022552499851769298,-0.02947075527671682,-0.0523605128347578,0.005608482993134969,0.03498711855622094,-0.04202936639317192,-0.04153197215255828,-0.08944905378139202,-0.08155727685159792,-0.10444477900025059,-0.08245823168776312,-0.047950085134096036
0.15,0.00984548487192144,-0.02877725972768495,-0.03876631603160114,0.012124575463115716,0.022831172863071764,-0.03470868043491424,-0.036691750814544184,-0.08585453155070075,-0.07473127304591247,-0.09686499362357982,-0.07829752627287369,-0.048158346469493296
0.152,-0.023739023335180083,-0.03542427615042716,-0.011704274730719562,0.031526870563339124,-0.006815421195480068,-0.02518924659820079,-0.03159261619607151,-0.08007882222408128,-0.06558695280892757,-0.08723370906656754,-0.07056398302545813,-0.04462772143404806
0.154,-0.06016413106086154,-0.0386171428958597,0.021343928236528212,0.05050777809695319,-0.04204682502606559,-0.010568984300337005,-0.025002258364647506,-0.07109694232357129,-0.05596107867711852,-0.07520152374236815,-0.06076317623998904,-0.033969291727417146
0.156,-0.08103467806494118,-0.035738886660464306,0.04487444961134102,0.05947711923702131,-0.06529030003697232,0.0033182069013044414,-0.01948293988132808,-0.06230767320021858,-0.04936404935943151,-0.06524805100181147,-0.05444667603526267,-0.022101417108313027
0.158,-0.07874422279909819,-0.031528923761275675,0.04687106438982003,0.05646980574616986,-0.06543742929226744,0.007105334500652303,-0.018867167561414072,-0.05889815588725853,-0.04866648781611196,-0.06367594515204421,-0.05555879957386834,-0.018303667553343304
0.16,-0.05655320761910714,-0.02902512335862987,0.027389630768557403,0.04390064137689626,-0.0438781348036758,-0.0015026706136117111,-0.02359801517524975,-0.06221673409546657,-0.053708552754648475,-0.0716669935266249,-0.06248683680265728,-0.024809398478915536
0.162,-0.025492529466772412,-0.02729127357063968,-0.0019816984668189837,0.027089082290355213,-0.01303654850890364,-0.015858457527808734,-0.030254009309891878,-0.0687579411152537,-0.06139423028118182,-0.08328195832420032,-0.07008307626166582,-0.03555869821983516
0.164,-0.0021414766175473082,-0.026202075579257904,-0.024523576492975954,0.014698376950186224,0.009456910940327759,-0.02704341788377609,-0.034174017095837596,-0.07332900323274132,-0.06761551786293135,-0.09016009804353704,-0.07372923681287376,-0.04259620183758626
0.166,-0.002219026827748858,-0.027601963669121342,-0.026010016372031635,0.01531816436947174,0.00912086263945969,-0.028880879596724852,-0.031611533696091404,-0.07232293961265954,-0.06897997709464661,-0.08745974396940703,-0.0710678999662358,-0.04153516937731748
0.168,-0.0259196488518826,-0.030919429575624914,-0.005467295367833261,0.02856794560918483,-0.013404927159681094,-0.02059413285344578,-0.02289804544467193,-0.06669638296824655,-0.06453873287607864,-0.07740401390759626,-0.063210669470647,-0.034280870953423505
0.17,-0.05020121281143573,-0.0330074458233187,0.01707399991935432,0.04160172121000876,-0.03615246580567587,-0.010258891410506454,-0.015332138930990034,-0.06309874395876124,-0.05879447078135441,-0.06938788278997643,-0.05628944971092303,-0.02888605816586965
0.172,-0.049591782603924724,-0.03357349614825994,0.01614075550532829,0.041849518132523904,-0.03428311366872118,-0.01018696703641663,-0.017535115860161727,-0.06848838477206366,-0.06023391103947351,-0.07245722853597052,-0.057309343493538625,-0.03274507372932168
0.174,-0.024752049772733046,-0.03551532634421217,-0.010642103179147634,0.031152118723988015,-0.007730983018706439,-0.023614673724798745,-0.028884969023282338,-0.08189578511766343,-0.0717234963652357,-0.0847170074361167,-0.06610739142011249,-0.04369328591090016
0.176,0.001465112877956259,-0.03897658864522761,-0.04044293791084369,0.020736968705387084,0.020546504851597248,-0.040336358187327725,-0.03988865457190351,-0.09421577461627346,-0.08486883252982068,-0.09539622777287009,-0.07524345559253813,-0.05195593576756823
0.178,0.010514082799323657,-0.04093681217324078,-0.05153669283348801,0.017823538518297214,0.030792042709935956,-0.04803287503079917,-0.04388267693782328,-0.09788908145227238,-0.0894003383806343,-0.09879540924615152,-0.07892443157115482,-0.05251942071143828
0.18,-0.00026813451125294856,-0.042204860294437804,-0.04209790562209745,0.023714653205565227,0.02084012518583295,-0.04474060721610219,-0.043131702174759194,-0.09495057613017467,-0.08593631961911158,-0.09980158802467565,-0.0788366569449931,-0.050764732139029496
0.182,-0.02209283291733329,-0.046512567164101654,-0.024726959181945545,0.03610643898919159,0.0009555309916947442,-0.03745461792784985,-0.04195543025951311,-0.09224693459357254,-0.08291518705463768,-0.10335197198543909,-0.07926446894384148,-0.05291915176144094
0.184,-0.04131849590892492,-0.05057481010572296,-0.009653108294689308,0.047339651275550995,-0.017155865252665506,-0.03035979369987139,-0.03892589285154909,-0.09045135098554083,-0.08254598576655951,-0.1049279503236512,-0.07887301259375476,-0.055734479208080875
0.186,-0.051782723670323154,-0.04696364633395997,0.00456484959709754,0.050972997095361676,-0.030504224047971804,-0.020846454145773196,-0.03053049285089282,-0.08442526812499539,-0.0785816508720546,-0.09786697715712804,-0.07288182061380731,-0.051594376228281724
0.188,-0.0599361287288457,-0.03812080134659038,0.02182756103660771,0.050916706095457814,-0.04336182886879758,-0.008889314883526157,-0.020165595459202358,-0.07460135044442551,-0.06914810713059566,-0.08628508264742789,-0.06362714177860988,-0.04172633295981593
0.19,-0.06750991298589641,-0.03374413299024555,0.033926386109198674,0.05243603510481424,-0.05251594425872491,-0.0021002671540796755,-0.016751379470271863,-0.07005665226474711,-0.06255146637435696,-0.0819969616472304,-0.061020588671269416,-0.03666594350722864
0.192,-0.06326021537025707,-0.034797023487490045,0.028661651676853986,0.050552766761179355,-0.047116710344080555,-0.005314998862285239,-0.023193777373442612,-0.07691378904957298,-0.06579811045933916,-0.08882028720484038,-0.06936707497941204,-0.04203430366623352
0.194,-0.04444460606295574,-0.0338364303196695,0.01089523142710881,0.0404462296401909,-0.02873729821252611,-0.012439255221850097,-0.032306158176278923,-0.08968923125581486,-0.07464836360157345,-0.09758317435330052,-0.08074773640144103,-0.05090586415923028
0.196,-0.027683735623560426,-0.029053628272588297,-0.0009811557609557852,0.029753023017920304,-0.01454534329605634,-0.015146751491740497,-0.03551731417071379,-0.09750044892171511,-0.07932054904028715,-0.09758801658920872,-0.08400681032143034,-0.05274659877967923
0.198,-0.026705488814599197,-0.024973221599259878,0.002114107148179067,0.02765722823237349,-0.015326098914124066,-0.012299821104562642,-0.030584550295371406,-0.09437346169133456,-0.07475147558984177,-0.0874342033945394,-0.07548641275296529,-0.04482620504268576
0.2,-0.034672217841281695,-0.02224273994603917,0.01275913236948964,0.030550389003572157,-0.023913436765296253,-0.006872987857162109,-0.02174296434669807,-0.08320051376207611,-0.06440536407343225,-0.07517675536294177,-0.061630768786403216,-0.034273527780743704
0.202,-0.03838459005486843,-0.017825732956955363,0.02085173180343464,0.029780205955054623,-0.029451892852928464,-0.0005297519309460676,-0.015721785046063284,-0.07326974696201917,-0.05690772350699921,-0.07088539675765108,-0.05340224507038692,-0.030825937912567037
0.204,-0.03775137323285091,-0.012861083643559663,0.025075076874772315,0.026139866912727273,-0.031838603137771655,0.005595575974932652,-0.01566877484765641,-0.07179667003594238,-0.057279040449805745,-0.076743656534577,-0.05591995477579426,-0.03662512800166647
0.206,-0.03916480902952859,-0.012953888569437456,0.026197076117663122,0.026288486047668338,-0.03417145867830408,0.0072253206958811725,-0.019109505186945756,-0.07712241165066484,-0.06251895614361874,-0.08547954908903202,-0.06458970583229824,-0.04535095897478891
0.208,-0.04017605598722512,-0.020621651069364453,0.019353859545352903,0.03056589858938433,-0.03193915412808138,-0.0005418961582593848,-0.02312691572996649,-0.08292971397397884,-0.06769428008819597,-0.09106589151297158,-0.07245583264950851,-0.05169504582931585
0.21,-0.03505986602726944,-0.02970019169370364,0.005108405886497639,0.032908750859816455,-0.022166625633991775,-0.013325218389453053,-0.027465133057002173,-0.08519066546096123,-0.0711839171784382,-0.0945046052642182,-0.07632509047072965,-0.055463671618987444
0.212,-0.026401305008234063,-0.02974168992083543,-0.0034152567972599913,0.029091727792421248,-0.01277706109525087,-0.017897862364370392,-0.031398417604376914,-0.08266585417620124,-0.07218317578566488,-0.09633488697192556,-0.07534450223357234,-0.057002976036012065
0.214,-0.02064335327535967,-0.017892065634410637,0.0029580485202052326,0.02078284257744767,-0.012276438879784192,-0.008350446770789255,-0.032327981232457795,-0.07675918453703667,-0.06919409780989437,-0.09275176679030506,-0.06988374379876802,-0.055299038718881456
0.216,-0.02286463802744635,-0.004531974167790388,0.018622121235473278,0.01573522778520753,-0.02135312364738013,0.006520851362928615,-0.028707173987412068,-0.07127257933157016,-0.06270707045139252,-0.0821894412789278,-0.06211737217741858,-0.04943786050238654
0.218,-0.03862401160139013,-0.004326480941487486,0.03440007187116048,0.023879818114390525,-0.03798076042133578,0.014492665794753586,-0.022135648840636245,-0.06837302823292678,-0.05610134623807901,-0.06942848483851051,-0.05467462397768087,-0.03988695227533059
0.22,-0.0653906791603844,-0.020442747864085644,0.04485245617052149,0.04538186048898158,-0.05681831314192558,0.011150239471502921,-0.016305296832675807,-0.06723773603414034,-0.05314754752354854,-0.06153298506356368,-0.049765914692952926,-0.030789791101216116
0.222,-0.0844218808309265,-0.03991866489282369,0.04439728829865318,0.0645879157309089,-0.06529803872649047,0.0002506258285940024,-0.014493002776826708,-0.06723181760278896,-0.055165490813713844,-0.06164111899970094,-0.048982933958435164,-0.028521033214113447
0.224,-0.07696036130237278,-0.048306296170080726,0.028652439472710966,0.06497993887541538,-0.05314877771861487,-0.012500951754368458,-0.01814601663921336,-0.06959763938528223,-0.06112751545007392,-0.06783416628049717,-0.05269517360652179,-0.03535613934683174
0.226,-0.044967953816112675,-0.04543644950044228,-0.0004119659359788949,0.04727215884089239,-0.02340110475288523,-0.02534641069152317,-0.027212971946632337,-0.076802518920992,-0.07037090701272367,-0.07787219569515767,-0.06122432708060502,-0.04781471627531139
0.228,-0.008592161258322305,-0.04148759284757403,-0.03286730573630692,0.026797711532685033,0.009712256067257853,-0.03865937871556637,-0.03970337574366889,-0.08949947726276886,-0.08205591081564241,-0.09097625720124367,-0.07407074836248319,-0.06081102506971908
0.23,0.011651054616487414,-0.04134145268629957,-0.05298783417326114,0.016664096415217947,0.029632515945867677,-0.04795651535064664,-0.05021269984747494,-0.10225805495683388,-0.0914403606842642,-0.10331524480995075,-0.08570253852919225,-0.06956181384610138
0.232,0.011504282565514052,-0.03927209863070596,-0.05066864064709698,0.016000316670415196,0.02934188556556239,-0.04584600875898133,-0.05277505016591651,-0.10630144838501283,-0.09254603006779441,-0.10798707669889822,-0.08816321363131184,-0.07032370905593889
0.234,0.004114299547938849,-0.029023186221985433,-0.03281191677157897,0.014450618886410332,0.017546500218674824,-0.03242859876837754,-0.04708134983214435,-0.09900806371920454,-0.0858566720043998,-0.10283559575081744,-0.08015784097191381,-0.06350133481070393
0.236,-0.002594325972899559,-0.014686270695580672,-0.01167930420713008,0.009734956256937701,0.0033394823003913654,-0.015402515885590499,-0.03736192670721019,-0.08591045785354752,-0.07713123050226336,-0.09244319809287146,-0.06755074238333936,-0.0528481295434031
0.238,-0.020469488389522294,-0.00765057712451693,0.012971804429565565,0.014038371138318918,-0.018875002822451525,9.83657645690017e-05,-0.02572318075975959,-0.07273769780516241,-0.06907893978949343,-0.08102167127016449,-0.05570635746789065,-0.04078433088245526
0.24,-0.055989912126944846,-0.012813650802308599,0.04295116414590809,0.03421092453566617,-0.052005366382455655,0.012740452749414622,-0.013455953626102862,-0.06190830918064296,-0.06131415294530435,-0.07038733852654507,-0.04737344771212785,-0.029541745694201694
0.242,-0.08799066443024865,-0.0230719546040486,0.06467246939489431,0.05655455575357057,-0.07825458485184468,0.019139068680065086,-0.005880026352979926,-0.0562420429346323,-0.056366910944065554,-0.06391228146747394,-0.04509878478695143,-0.02445015395661458
0.244,-0.0947500974240315,-0.030312327091027068,0.06454091988453477,0.06513157078142548,-0.08092156934428585,0.016282627147032585,-0.007232350385344465,-0.05858655050175225,-0.05782483653769498,-0.0645729354272157,-0.04957249744009426,-0.029461098245595167
0.246,-0.08392333352454803,-0.03509599774885657,0.0491572150133682,0.0626179680236945,-0.06806048650910462,0.0068820086465697155,-0.013681887915788601,-0.06729922194667119,-0.06398230744379979,-0.07054815198478163,-0.05755157237479892,-0.04128048325337001
0.248,-0.07265647693444982,-0.04036877216368125,0.032465838783731944,0.058775643470422495,-0.05489244796843424,-0.0039740585821713675,-0.018561163350712895,-0.07718412409972124,-0.06968464819706052,-0.07838102245625125,-0.06513944008153058,-0.05212964986078597
0.25,-0.06047339658836859,-0.042511064592002164,0.017881289413043507,0.05257107284827672,-0.0420678992033385,-0.01289283629312377,-0.020749733033196393,-0.08432854387356067,-0.07294344916133791,-0.08730028045075675,-0.07090151944125632,-0.05697563153990992
0.252,-0.042274023617160476,-0.03559979824524422,0.006534107354180996,0.03953122045808671,-0.02730292819947288,-0.01588671941792101,-0.02214389693229036,-0.08719682514566511,-0.07473696046980988,-0.09577861704423098,-0.07405309409975751,-0.05612444077469636
0.254,-0.024686108454149244,-0.021489352415811493,0.0031709319121028864,0.02393769625553648,-0.01635046781318653,-0.011028939620753667,-0.022372224723079457,-0.08594239680240805,-0.075304433699682,-0.09946148833306657,-0.07372980906139028,-0.052952193770095024
0.256,-0.013956016092264758,-0.009785217374875105,0.004234409596265346,0.013042641556018943,-0.010750965518138806,-0.004881939274887946,-0.02082548363239867,-0.08279510330066843,-0.07492118748744696,-0.09725687951966684,-0.07148560801378478,-0.05112570554680436
0.258,-0.00843259969238247,-0.006841657210422886,0.0016356485988373104,0.008713701499469333,-0.006075298461900913,-0.004633254888653091,-0.018113018823920957,-0.07971740471025152,-0.07407867961856367,-0.09275152802376727,-0.06983488091555953,-0.05188934608748765
0.26,-0.008859507236202366,-0.007959593567187246,0.0008867022347309691,0.009206764669688138,-0.005810175714993273,-0.004886580612223405,-0.013087043873317161,-0.07496799593789669,-0.07060679146669337,-0.0873323315997509,-0.06757019007235246,-0.052466505867932944
0.262,-0.01809957426178568,-0.0033018621789419303,0.014745086848726356,0.01163654722719735,-0.01756853819739621,0.005418077318314198,-0.0030387070435114,-0.0652205962062205,-0.0614528872138574,-0.07909336861714357,-0.06099485525846052,-0.04885735429815491
0.264,-0.030936438897282433,0.010247663872790838,0.041023388422495366,0.011948144644676681,-0.03710040798932271,0.025707010113497478,0.012582287201801946,-0.051051036859077144,-0.04777127097056372,-0.06799739159794055,-0.050076751119370135,-0.040835461313877566
0.266,-0.035156818214740815,0.027759454238499674,0.062448774122317516,0.0060500063944200185,-0.04943950950140923,0.0442728916548394,0.03037721103479721,-0.03781355028050749,-0.03458119311447988,-0.05666873002425855,-0.03930119699910283,-0.03204402325095905
0.268,-0.02191538769122191,0.04364886968421405,0.0646932805907776,-0.008115380842675095,-0.04334449225986149,0.05199794405932284,0.04331460429865923,-0.03211541655993177,-0.02705321838229086,-0.049270755116157146,-0.0333890575803285,-0.026343093950878405
0.27,0.0054555429451487196,0.052550454746002395,0.04608710698582161,-0.02645568646250909,-0.020062305985115485,0.04677165043332919,0.043488045517613476,-0.03823872332929764,-0.02905094354164697,-0.05166584927431086,-0.035860970769707144,-0.027363644260566988
0.272,0.03163982710004459,0.048965592616093595,0.01668850767781219,-0.038502859638228304,0.007619203949862876,0.0311028341740658,0.03023447019837078,-0.052995480705997945,-0.039718301287240625,-0.06494893773677196,-0.04675681426181411,-0.03622418355415686
0.274,0.04124935269355147,0.03604139968996317,-0.005162697701788983,-0.03754566614685247,0.022858043867561927,0.014443400179549523,0.01603419630613138,-0.06331568198028519,-0.048815452251449815,-0.07738138214282914,-0.057057419788124446,-0.044641683701460336
0.276,0.030960864446420464,0.027022611835255957,-0.0033734282628813087,-0.028034681686436306,0.0161324869268298,0.010399267154749602,0.016740415473921536,-0.05693951088574479,-0.04356336309755464,-0.07381818145614036,-0.0540280120699966,-0.0397289950139634
0.278,0.010131632320149206,0.030808510981906154,0.021264751159921144,-0.019386920050707936,-0.006922392377335308,0.023724683749264067,0.03438869228903492,-0.03632650585031152,-0.023580498890953833,-0.05486471585314205,-0.03687216260014371,-0.02083174606667796
0.28,-0.009003439522001756,0.04453151832403393,0.05375082103452953,-0.01689264631444377,-0.032412471414147125,0.046767861586654684,0.05714942263441553,-0.013912776741433465,-0.0006285683181404933,-0.03445669084309645,-0.01726782895254099,-0.0006304975635505896
0.282,-0.022611186750763842,0.06193153850966799,0.08441087616612213,-0.01920466369670818,-0.05417358946261005,0.07139620603944377,0.07571950866830783,0.004465007470613294,0.017513342002179685,-0.019029611609221026,-0.002943840432413773,0.012688202500440232
0.284,-0.035040244422733305,0.0778168451116402,0.11265986753656572,-0.02076153115562961,-0.0746862190965824,0.09368341159693094,0.08962084414474877,0.02148700011319936,0.032555148420759766,-0.003533430292581421,0.007468413815528329,0.021486723374839173
0.286,-0.046578173613984995,0.08426542497395262,0.1306923857247727,-0.017301753178407816,-0.08995247058943176,0.10563911404428596,0.09799727428560433,0.03654328631883479,0.04508029680869315,0.012731589525498058,0.014306455164517062,0.027113777046218136
0.288,-0.04942707778288,0.07424613669777115,0.12342857349977016,-0.010136841512980038,-0.08799998666115762,0.09676349912454915,0.09643734131800995,0.04348215867933627,0.04997914341727799,0.02106057933783974,0.014430352444665479,0.025886412288635464
0.29,-0.040531785612355806,0.051240496303598136,0.09139998353885345,-0.0032743749324887434,-0.06743669889062422,0.06921224255803726,0.08534748064367637,0.04042078160769942,0.04499437755601881,0.01683266745412785,0.008789386706964412,0.017262732318809308
0.292,-0.029062684786583727,0.028939678424336954,0.05772609036512033,0.0013942172040326036,-0.04451484359633032,0.04139014303287729,0.07250830014968354,0.03326494272197164,0.03583128264485778,0.00753569349988178,0.003330262538794865,0.007357726478314321
0.294,-0.02372795763987036,0.018971688496247426,0.04268811977602563,0.0031034383291959474,-0.033898600137200474,0.029542534167792754,0.06357581497357871,0.026883986438012274,0.029057842872136544,0.0021023529170401283,0.0017527235355087713,0.0033720842023804644
0.296,-0.021651216005626216,0.020072162681329775,0.04186272172299027,0.0013670341125511932,-0.03232499875735365,0.030723002684706867,0.054616744433155964,0.01843105700387937,0.02382207027998741,-0.0009395500644023133,0.00208214507844391,0.006836502073645494
0.298,-0.015378475639160984,0.022520261266132966,0.03797915082844318,-0.0025103594468823287,-0.02763196339143988,0.0305035451111913,0.037908082314934685,0.0032415530054124174,0.014342501384991258,-0.009023473941534521,0.0003999919063245916,0.012236731417154598
0.3,-0.0008998330333766764,0.022229460501224,0.023072953537802213,-0.008699397493973509,-0.013321022283976448,0.022186984812126984,0.01323331392783233,-0.01737399409345396,-0.0014264368052939866,-0.024354394250458235,-0.0054838890600286605,0.012112185739568364
0.302,0.02095738029417235,0.022486389470819053,0.0013374924147381726,-0.01928937679213923,0.008708347734733057,0.010290712480463279,-0.01078190827093541,-0.037905783719980685,-0.019526739728523604,-0.04169783474513029,-0.015325808769390693,0.004012528576724629
0.304,0.04196741566481869,0.023755915249419415,-0.018571227161716556,-0.031015935037717574,0.02977581567737309,0.0007459681573626016,-0.026067619304346423,-0.0536793902650832,-0.034683408245047766,-0.05383346051572765,-0.02581158590153346,-0.006907594080743372
0.306,0.050779191845516436,0.022278299730635876,-0.02902706275276604,-0.03579478514440299,0.03956895624768384,-0.004549163768433779,-0.03174943051937023,-0.06228987551600759,-0.04377989327707477,-0.05700953231862178,-0.03182275578111602,-0.012473292559800864
0.308,0.04522674946403557,0.017112453463457626,-0.028678344912443338,-0.030951136957134806,0.03609189051319776,-0.006756436799231095,-0.03159893612205042,-0.06427447039663835,-0.046379193595035444,-0.0532985882570101,-0.031030602814350206,-0.008951371388475104
0.31,0.034940895091046094,0.011945476739769242,-0.023398442518989825,-0.02275384632110084,0.02790564157204312,-0.007440250005820458,-0.028882966561912953,-0.06289789629049068,-0.0442128347675034,-0.04816610393454273,-0.025774085520932733,0.00045837696374072284
0.312,0.028917530903976432,0.011197901834046484,-0.01784259642358531,-0.018542049880939968,0.02261183337025039,-0.005657174029992397,-0.025013690925242957,-0.06106231558520986,-0.039605860155094666,-0.044711975482247576,-0.019671965441387548,0.00955079303921792
0.314,0.023990149763454885,0.014882531528125045,-0.009021720511019888,-0.017362005626986046,0.016722898535415403,0.0007819163470606449,-0.021573385812140293,-0.05959421728253913,-0.034378123934991234,-0.04158513292569303,-0.01474103182505336,0.014274072659679372
0.316,0.01011540205843558,0.016486055068740686,0.00647610616455251,-0.010968718389367504,0.002439961818784934,0.009699522849236395,-0.020895293398027533,-0.05862157407847297,-0.02964051859032096,-0.036844904569576994,-0.011536521487158155,0.01531703870006653
0.318,-0.014593349157377998,0.00954932719275235,0.024153869861945936,0.004737203767226511,-0.01935907517051796,0.015039882466700152,-0.022821585569551148,-0.05746211982662202,-0.024604495333334104,-0.030683799170140788,-0.00889772433201375,0.017103647472404317
0.32,-0.04090670787604593,-0.004199992764059618,0.036657366082615356,0.02393942473366425,-0.03974337179901656,0.014447828054917521,-0.023704370344236062,-0.05383861668050359,-0.017129443042684753,-0.024069236955246362,-0.003963862927095846,0.023046681427585345
0.322,-0.05917032175256519,-0.017789442003189115,0.041351162863723194,0.03859521628121158,-0.051574693476678375,0.01064553497251225,-0.02152459418342148,-0.047083389154848033,-0.00829920048329364,-0.018277322990762172,0.0040228924241912205,0.030894601569192937
0.324,-0.06313247105498844,-0.027298089856460938,0.035846728539505435,0.04466489692699252,-0.05041358231596247,0.0038372684653928974,-0.020373012818809152,-0.04250268211597979,-0.005290483314199564,-0.017430484940430372,0.00958354623868354,0.033796358649687754
0.326,-0.045724917959112175,-0.033002202597653366,0.012744698415392743,0.03935356570346866,-0.02993375567066318,-0.010881933165279644,-0.0273382808661148,-0.04855124843731494,-0.01580568474488166,-0.027596400671756022,0.004743219804193427,0.02712910170294149
0.328,-0.010014350788435983,-0.03493980531748749,-0.024899748308027964,0.023554899477266442,0.006331739579666171,-0.03185761955508536,-0.0423024577155954,-0.06467199159182034,-0.036024900018804804,-0.046519420299464126,-0.009127116441825614,0.015847153357785745
0.33,0.017089058822735478,-0.031812917632677136,-0.04880277909076221,0.008849093222597696,0.03144356650460008,-0.042928674000388835,-0.05292340243990256,-0.07588783243408602,-0.04838206115163035,-0.05846869445433411,-0.017531917599926845,0.01285569324228438
0.332,0.010778587900920277,-0.0250733047515175,-0.03568464048608098,0.007950777453942291,0.021872229520619273,-0.03254702030308385,-0.04882384115207318,-0.07093838631588778,-0.04183021031914535,-0.05188770167996045,-0.010403873551375006,0.023723418698075885
0.334,-0.013000410459835464,-0.020931440048224968,-0.00794296645677617,0.016819344263572972,-0.0037104327551291177,-0.015930629107868362,-0.039413551474003536,-0.062354701573612316,-0.031243958370926403,-0.038928680332511796,0.0002877203662763606,0.03573444730774492
0.336,-0.017729204634640717,-0.026003618863349075,-0.008610795366479285,0.02146003972905706,-0.005950567271600435,-0.01873453230136669,-0.04413357088802649,-0.07251559974755772,-0.04192736642074176,-0.04333595303621799,-0.0060187117893795595,0.03183121703039532
0.338,-0.0009673450128968317,-0.04050125112062272,-0.03977790524706699,0.020897140131417982,0.017936845575450503,-0.041690873430347976,-0.06478655815305738,-0.10109484613536704,-0.07479490016562547,-0.0695852632935476,-0.02964357024614603,0.01345254354710404
0.34,0.005698543660818964,-0.054642702822091556,-0.059969012727162284,0.025677940647825154,0.03169549362548388,-0.05854487181766545,-0.08123118014166969,-0.12275307701734851,-0.10164924702839603,-0.09590225434352309,-0.04882395430515543,-0.0002209140784307516
0.342,-0.011802260915037362,-0.05537623069768129,-0.04278917764352886,0.03581451389765225,0.014294390601714287,-0.04975115998246208,-0.07716131391483388,-0.11941836423753473,-0.09944529596005039,-0.1003047481058234,-0.04668092875900447,0.004160153704586029
0.344,-0.030208062048840106,-0.0416138100431395,-0.010920346061915158,0.038516584219737464,-0.011689535631022912,-0.026768988560063302,-0.0597463584812675,-0.10187251786142305,-0.0779937779141924,-0.08566740120543956,-0.030466958774555533,0.018991016854874986
0.346,-0.024915540327207778,-0.027847523462330766,-0.0030508236590826355,0.02853048739864858,-0.01360829676636843,-0.016591386485869095,-0.04881825789295302,-0.09401451338637626,-0.06564791990874758,-0.07403750137900028,-0.0214331786727525,0.026712179137843756
0.348,-0.003714759891402025,-0.02656045748670851,-0.02330805786577292,0.01649815479316927,0.007526391770874857,-0.027113061172545905,-0.05261011233559832,-0.10393386815957886,-0.07419818462660586,-0.07908517702330167,-0.02957702444868661,0.020578988787841066
0.35,0.007917404337802499,-0.03260346183686474,-0.04106337297212087,0.013131659152878504,0.02292799050785397,-0.039504332155253015,-0.06102954731661423,-0.11817965400491343,-0.08888008693276922,-0.09183999824851743,-0.04412107268317306,0.00934113436930871
0.352,0.003920680590627509,-0.031949875963731056,-0.036374961707093804,0.014657640932472807,0.018573197253399894,-0.03632687672753467,-0.0615454935380983,-0.12206958985712724,-0.09236843611493231,-0.09687286972316814,-0.05073950733085699,0.002904295327474484
0.354,0.000767060452277418,-0.022678901853868116,-0.02368430147836489,0.011850676436245756,0.010221775709739273,-0.024311288459237596,-0.054341765656404875,-0.11730538540031554,-0.08714855739677571,-0.09402454331571944,-0.05068517545830046,-0.0004694474175036368
0.356,0.005416352006972519,-0.019443153229987437,-0.024674915612770174,0.008159490243181515,0.013126188052532912,-0.022579911728007374,-0.04870364779637713,-0.11576840804649124,-0.08771062575135227,-0.09537926974798044,-0.05559970030340097,-0.009215891907545199
0.358,0.003646903922812424,-0.03391031736088208,-0.037195256442197386,0.01622391042424261,0.01918734287911647,-0.036560922243329685,-0.04966718221571703,-0.12166706811927502,-0.09807425227467048,-0.10555632438214606,-0.0685477270335968,-0.024521370661153702
0.36,-0.012131005802076763,-0.056453521562568124,-0.044165808348380416,0.03546784915500364,0.015396052327399549,-0.05250261086303955,-0.05382225667673253,-0.1277408917022818,-0.10824173487210145,-0.11592969992046426,-0.08031475694981634,-0.03783242334395784
0.362,-0.028854600495752364,-0.06630278046790118,-0.03753220106617832,0.049406156461491206,0.0037223208553195087,-0.05467745162512884,-0.05486035357122025,-0.1264469437039333,-0.10988169778301095,-0.11812393988582166,-0.08270510214982739,-0.041445218458689814
0.364,-0.041185992826197476,-0.05888935521340105,-0.01771241853419696,0.05256681655777947,-0.012891595197760626,-0.04036992855635774,-0.04779632927761191,-0.11691421761177774,-0.10383330617774807,-0.11303364367213314,-0.07616987362981092,-0.03522207194415926
0.366,-0.0640687302767569,-0.05210767664655636,0.01227573713521694,0.060473592560364865,-0.039876404092407225,-0.02106102224788076,-0.033471177611109196,-0.10475082311450493,-0.09532940489369567,-0.10679838152495186,-0.06705464425505218,-0.025053013072588257
0.368,-0.09725868860474769,-0.06136937896986399,0.03638178546132497,0.08061182279776768,-0.0687205955250375,-0.013768365901544856,-0.022872691022709113,-0.10072129102858828,-0.0913416826430072,-0.10629863087080861,-0.06441820039292052,-0.02019481965069348
0.37,-0.10964130297644306,-0.0785501207759958,0.031387281125920055,0.0943981507831898,-0.07227459395666963,-0.025830079119399735,-0.027553515191470347,-0.11212416553459302,-0.09712881269146773,-0.1151598780577392,-0.0735241006562052,-0.02660414552241926
0.372,-0.08177703016030488,-0.08433534035467682,-0.002624513324802748,0.08353023673075431,-0.04088560833559823,-0.04623360550687032,-0.04391435226936313,-0.13233960493323632,-0.10962659958104075,-0.12817585059990486,-0.08835088454731214,-0.03908342349320911
0.374,-0.03863982080197529,-0.07382316943914119,-0.035491446262157576,0.05775479860941534,-0.002431842476130162,-0.05669906644991844,-0.05638315852353391,-0.14608519673971526,-0.1191520485645032,-0.13410845395741872,-0.09651449770343755,-0.04519878041485792
0.376,-0.019489692929812646,-0.05875594990832012,-0.03966155897793828,0.04131339607383215,0.008941914039015016,-0.04998094603351521,-0.05492503283961752,-0.14454909609068123,-0.1188404567205624,-0.12697952993812284,-0.09185322435697092,-0.03758533649044289
0.378,-0.03228759844222537,-0.05018878428717438,-0.018241049301869254,0.04317428309825959,-0.009182650568509048,-0.034364190263239634,-0.042309949846409296,-0.13088128657850484,-0.10977741444280725,-0.11185339649910706,-0.07916999104910923,-0.0205035598304948
0.38,-0.054944381092876,-0.049825239572438486,0.005060889036497626,0.05385027824128393,-0.03271375035044787,-0.02284478537908152,-0.027440398495241148,-0.11409392802334767,-0.09846080200340701,-0.09902273734785912,-0.06865215882378388,-0.00577196674490245
0.382,-0.06932565133842189,-0.05388076302419085,0.01581863879423245,0.06311655216142335,-0.044664775277898576,-0.019992391834861335,-0.017165994283678643,-0.1016416753060319,-0.09103896391650647,-0.09444310682974508,-0.06656304764842165,-0.0017781285139915606
0.384,-0.07885723985701888,-0.05801312926049535,0.021507364381933326,0.07022752255315451,-0.05131903416073942,-0.019172245305606603,-0.012234662048808884,-0.0957193362164841,-0.08853492623493071,-0.09632210914386824,-0.07023784699008902,-0.005649169399512043
0.386,-0.09662897471739876,-0.061190934816611114,0.036067500059624384,0.08060902611491946,-0.06722699306114946,-0.01297647999600674,-0.008656401863218836,-0.09382349763279103,-0.087316297437828,-0.09984781085348342,-0.07252879158435911,-0.008157897306608628
0.388,-0.12166391943309171,-0.0659771274036099,0.05602755042503347,0.0952129774154879,-0.09007943860132103,-0.005237638124205005,-0.004929313229875812,-0.09396594757147145,-0.08605272139445173,-0.10383062094464336,-0.07076843067473913,-0.005774890787446117
0.39,-0.1304860148377443,-0.07290855231816708,0.05751426979579763,0.10297561512635817,-0.09554046549692821,-0.008804017468199988,-0.005895275289818937,-0.09905005684480674,-0.08956400632679477,-0.11122601737442221,-0.06954309563044314,-0.00427120809925528
0.392,-0.1039393368031593,-0.07819496570617472,0.02532647775518112,0.09226766873840826,-0.06617318790390635,-0.028928397897330396,-0.015121263797824774,-0.1121532114023912,-0.10110861065382695,-0.12286632604906801,-0.07423288982896392,-0.009794707514896861
0.394,-0.059991827119381606,-0.07896399023031064,-0.019472628383427257,0.07038854255571317,-0.02170016346086333,-0.05251763174024057,-0.02710982016491997,-0.1279908699503568,-0.11408055718485319,-0.13354540187569985,-0.08321257792681047,-0.019384976390077593
0.396,-0.037663065886274,-0.0752195290889157,-0.037807522221674925,0.056999385484552086,-0.0014230141795598824,-0.059559590899472575,-0.03246205335340078,-0.13515412487180056,-0.11743187849268355,-0.13639276436609227,-0.08855779187668716,-0.023277355828502676
0.398,-0.049084679747993624,-0.06673172194095367,-0.01755763216084863,0.05834747873305802,-0.017379647400377472,-0.04443298915710596,-0.028027842235695877,-0.1285452400366591,-0.10829569863499292,-0.12944705410095053,-0.08558194534170312,-0.016646851732034625
0.4,-0.06951477971334763,-0.05541811453665766,0.014369400095055126,0.06312607954115196,-0.043292819813393744,-0.02221576865156748,-0.01907978616822793,-0.115937625563058,-0.09571714203348322,-0.11780920146625572,-0.07958873354422093,-0.006391642668919309
0.402,-0.07029117604365223,-0.04908916981461099,0.02144729342744504,0.06058873887833523,-0.04644513249439248,-0.015139384199289124,-0.014762199059525463,-0.11077657170046827,-0.09231295985960453,-0.11137317841140505,-0.08121160157184842,-0.005021116813710319
0.404,-0.046042001838619305,-0.05424156473303918,-0.008166662104727059,0.05083181034160045,-0.018938363187789756,-0.03223948184694691,-0.021129671288447623,-0.11896640666517838,-0.10252014549020078,-0.11745642825003971,-0.09523170795324003,-0.01790169783595825
0.406,-0.01892305065046019,-0.06541270431773259,-0.04671320061097296,0.04233859557771516,0.013580597862006412,-0.056989495991812265,-0.03267552178573106,-0.1317581396452874,-0.11671551626395206,-0.13085266359350023,-0.112474059549777,-0.034911725398357615
0.408,-0.022421384572989783,-0.06935119925490663,-0.0472044228946409,0.04594652482920419,0.011344560518441682,-0.05924264352096977,-0.033178476779128205,-0.13275770748293297,-0.1184387993650885,-0.13534318535249412,-0.11445881333123242,-0.03681205297168798
0.41,-0.06712089766387051,-0.06138739238369148,0.005647204620350765,0.06486986906587834,-0.03755449687649705,-0.02879430251131161,-0.014167971849427271,-0.1154472623889742,-0.10235339842968161,-0.12195576149491838,-0.09301026362952897,-0.016140879951298624
0.412,-0.12247250877849639,-0.05052479801132912,0.07204284016276005,0.08764939662496743,-0.09800194573127928,0.00999272474192661,0.011002442755561644,-0.0923957958121467,-0.0827748004042097,-0.10146892407892472,-0.0633493036203514,0.011045162884283225
0.414,-0.14797375763997977,-0.04692774531627139,0.10114291378931534,0.09861136059016369,-0.1254099504772446,0.026477498517240242,0.022015356942511763,-0.08208648780230036,-0.07747344430312852,-0.09178219351275556,-0.048512434364687274,0.02266239612189495
0.416,-0.13737385175861458,-0.0525477136723623,0.08482364160155732,0.09621507856730456,-0.11287977074092428,0.01558627326209748,0.015625164644422214,-0.0882925119311326,-0.08640842861945426,-0.09743597906087224,-0.05415823275042005,0.014850311571462693
0.418,-0.11486515848574395,-0.06338906414478168,0.05142252138972131,0.09114534509467824,-0.08553305632137533,-0.006534302823274818,0.00489325951280783,-0.0988807814871296,-0.09569326309911105,-0.10860876124590582,-0.06853958845760524,-0.0003423372429809398
0.42,-0.09690081503747297,-0.07216583395572795,0.02471051701995363,0.08721849162182993,-0.06250758214511484,-0.024428554075611387,0.0010062446116174825,-0.10277330330179878,-0.09797436406369166,-0.11565502985353082,-0.08076591497722523,-0.013245199741084027
0.422,-0.08020167619656982,-0.07169556516344826,0.008523512977175997,0.07803960905854482,-0.04474244598402812,-0.03248412213996423,0.004985792825942032,-0.10002023638804561,-0.09761166053889672,-0.11696362893090592,-0.08822777503142802,-0.02207780147374393
0.424,-0.06282212914443885,-0.0632464713895481,-0.0003807610308884014,0.06357184614304316,-0.031056190833388172,-0.03277796929624964,0.0119034258456072,-0.09667004547162043,-0.10009018496509453,-0.11635229130764427,-0.09302052209310319,-0.028022264861651797
0.426,-0.053782149281225676,-0.055982962450818845,-0.0020686448623103665,0.05455414476941039,-0.026131680599196988,-0.030019217536993735,0.016745034517987006,-0.09776323767496804,-0.10711360202378252,-0.12018811870825676,-0.10044417832948736,-0.03434445700666514
0.428,-0.057486439065315545,-0.05222339452880339,0.005579067430725655,0.05529685926142232,-0.03221159170863381,-0.02456957618919162,0.019150658937407545,-0.10423619601300753,-0.11843955088356031,-0.13373548611546704,-0.11618588115997833,-0.045907490106628514
0.43,-0.06571295003072515,-0.041728917902847225,0.02440072952063258,0.055589651292389346,-0.045524945737994656,-0.010358238871972689,0.02585959488240749,-0.10886835291390677,-0.12887314303756336,-0.15379664786852035,-0.13901015584325885,-0.06324483993951904
0.432,-0.07282853403126546,-0.01705170923072895,0.05603576212205486,0.04733977311797722,-0.06451466020545174,0.017533159459093357,0.045863631123738584,-0.09780039521455416,-0.12691581559434595,-0.16807811110234872,-0.1592076642461592,-0.07917577115137223
0.434,-0.08602575039626245,0.014106666698542823,0.10011158977503629,0.03796799774787784,-0.09318724096268856,0.055239793326532984,0.07914571445175608,-0.06596707010139273,-0.10629493635518086,-0.16708517713668453,-0.16800602503927847,-0.08555029877983414
0.436,-0.10926664478091168,0.03939141467543776,0.14849078434568427,0.03674075666247365,-0.12940762459925578,0.09226212294213446,0.11300363624707849,-0.025992166999779028,-0.07443282656697989,-0.15238759517646616,-0.16514524138196332,-0.08191087086725372
0.438,-0.127575199190589,0.058782328754147434,0.18613863248132045,0.03640053261683783,-0.15757917713565425,0.12089221936952137,0.13403897575680476,0.009469923206315668,-0.03855809430638898,-0.12590208066083494,-0.15125953124495917,-0.07136306332984559
0.44,-0.12198529864981393,0.08380623988318994,0.2053994636108051,0.02100130273165698,-0.1642051207799602,0.143280563283604,0.1388442544209517,0.04473485777317092,0.011129347106463908,-0.07463706781391204,-0.1152935939596875,-0.048113052198451925
0.442,-0.09037767451272127,0.12365264263494274,0.21346867667409264,-0.015151936228596136,-0.15234493627433338,0.16769680155324299,0.13017749071884996,0.09157685223249393,0.09541519729255005,0.02438042097801997,-0.03884516124622575,0.0011895103846814182
0.444,-0.04254999837173038,0.1788557097895569,0.22103628246116902,-0.06681355256177089,-0.13247946145612505,0.19932789347993443,0.11311813851709752,0.1583098378208536,0.23009665147780797,0.1857433725340833,0.08668079615275556,0.08197635804755497
0.446,0.008640849825587119,0.24495811270739795,0.2363492404321102,-0.12524951884483154,-0.11483585151849969,0.23987227139645376,0.09933940298497872,0.25674588372346996,0.42230912502189877,0.41215807656073544,0.25834888178050225,0.18951624527451136
0.448,0.04677075794481727,0.31497251138956606,0.2682855145210422,-0.17917868156751307,-0.11192725965685067,0.2906203338549094,0.10401785200766975,0.4065085207874284,0.67828183782231,0.7118856031139744,0.48103799824459215,0.32568639025005663
0.45,0.06840683227146768,0.3803601559419931,0.3117225455999999,-0.22280883993929068,-0.12301107428115415,0.34488288613755474,0.13075531381526864,0.6238542059619608,1.011681790339723,1.113165259802807,0.7787984468573512,0.5062021441839191
0.452,0.10251323458730272,0.43535504696844674,0.33249218724409796,-0.26762118328666046,-0.11653340533512134,0.3826329790679908,0.16178842461935877,0.9016959293506388,1.4359267963661453,1.6466921341292484,1.1759998822014286,0.7439964363641273
0.454,0.18827557312119558,0.4783088974437888,0.29002597726621976,-0.3322124162456337,-0.05253719211344236,0.3830120334755711,0.16320023951299334,1.1798559264001893,1.9206438734657703,2.2886687367045333,1.6575725369865937,1.0276184999198967
0.456,0.3306602599711971,0.5052212692587326,0.1750374744365996,-0.4170266755701986,0.0762204115784927,0.33936603639477103,0.10247104296591544,1.3291944738405632,2.3416134525582297,2.90694347773987,2.141150476235085,1.314472144554348
0.458,0.48887510922954264,0.5075497233789279,0.019349914557774676,-0.49736480980326947,0.23338889279214853,0.26268472930009706,-0.02237946238406418,1.2178828033755031,2.519032181117228,3.292914105013547,2.50006729180048,1.5448449939345283
0.46,0.6038824438801856,0.4826555366797353,-0.12077269800623544,-0.5422122935246152,0.3610503845634198,0.17957282494797014,-0.16786444116516658,0.8401992478926483,2.360663201027587,3.295116403356761,2.6374780090726495,1.6729690180708405
0.462,0.6377931147152863,0.4415878493939589,-0.19619051899325152,-0.5382943832372583,0.4154720011602829,0.12081723799091533,-0.2840934749367659,0.3441206854411663,1.9532756537152123,2.933716116337689,2.547008105760053,1.692647536422914
0.464,0.6011056552722686,0.397517963473396,-0.2038076348976265,-0.4980690455429217,0.40045909310576117,0.09498050482149219,-0.3711801667688218,-0.10478213363907567,1.4771368465288168,2.3728368035833136,2.297755152201409,1.6288182953577308
0.466,0.5420409879364055,0.34778786300366415,-0.19424677901137766,-0.4445276978349069,0.3659258271991161,0.07515147630281273,-0.47095199882387895,-0.4598776394205384,1.0357892093863599,1.7800011418699666,1.963661042803585,1.5028008560958095
0.468,0.497865657875436,0.28119829853050865,-0.21626470694511787,-0.38998456698912354,0.3552124735982581,0.031126461308248497,-0.6069775649209385,-0.7915889908164729,0.5743740470127293,1.2058231715700949,1.5730304275744462,1.3156849029008426
0.47,0.4555870276335539,0.20436679246126005,-0.25069177509078,-0.33029806812808665,0.3517048987800886,-0.02420487287745773,-0.7568196104943216,-1.1831251515434495,-0.034363847676909795,0.5918436308056609,1.121990088518946,1.068625917835932
0.472,0.372046322836015,0.13875984522124163,-0.2328894918980944,-0.25444002060445964,0.3007806161585936,-0.047839267520522276,-0.8783444740022446,-1.6230077637758324,-0.7987950997085751,-0.09667333923981809,0.6269379605756911,0.7868857563653489
0.474,0.23971269871234893,0.08646942957209355,-0.15299496875767965,-0.16068394007793685,0.19418144896970627,-0.03396207687054249,-0.946822962103358,-1.9886265147199216,-1.5193022681491883,-0.7616658685277802,0.1529389772880982,0.5141508125656692
0.476,0.11270321512629564,0.02167300401196607,-0.09090297554328898,-0.06450722501697698,0.10001103478472001,-0.03554581700089664,-0.9717888393682778,-2.1567141515797554,-1.9507829723544434,-1.237775823856286,-0.22250320296183249,0.28334029931437804
0.478,0.04787776290231005,-0.07567834848048381,-0.12355144284089499,0.01559860187816408,0.08500262609909762,-0.10080639748420712,-0.986253607438826,-2.1253132109587938,-2.040200716383954,-1.4569441292302374,-0.47129292866232053,0.09890476665992626
0.48,0.040472776025773274,-0.1904405563535303,-0.23097488628187052,0.07575438695420326,0.13533170584651458,-0.21181830021227246,-1.0122199259748779,-1.9985567925714363,-1.9412925346842052,-1.4964295239368146,-0.6222082372605315,-0.047918848231887294
0.482,0.03908780295845467,-0.2845540058322034,-0.32370291775474513,0.12359374697099566,0.18002577982183712,-0.3049124783130287,-1.0361600095058843,-1.8707018845945393,-1.8227540587710152,-1.4716009201137017,-0.7124139545587458,-0.15705989844456578
0.484,0.008844226766095819,-0.3346326723935214,-0.3435964087793349,0.16435345202084722,0.17389084503828672,-0.3395651749344709,-1.0279318944624039,-1.7605744134052577,-1.7329325416171393,-1.4340371176569653,-0.7555178762285576,-0.22283269017600546
0.486,-0.03534074658175757,-0.3491031338758399,-0.3140628960293413,0.19375053496699057,0.13744039750764286,-0.3318010003531842,-0.978778749526107,-1.6427036468308047,-1.6362529417003355,-1.3766507008459095,-0.7537320056023772,-0.24863247265426555
0.488,-0.05337705779725863,-0.3493848531992234,-0.2964236207836894,0.20239023129669362,0.12097794699186493,-0.32330087035800054,-0.9086414228784417,-1.503633747008249,-1.508775154843246,-1.2911591166451055,-0.7182358867404713,-0.24766532737095173
0.49,-0.031001465910911814,-0.34443284620984244,-0.31369822494648225,0.18842379610826201,0.14153440877578624,-0.3303308067069623,-0.8386980822874506,-1.3565653048462525,-1.367513331233481,-1.191165633506134,-0.6680291565135228,-0.2324394651121281
0.492,0.0016869397322774931,-0.3274186491619805,-0.3290890126850551,0.16374131288123625,0.16472622495281042,-0.3306271845726078,-0.7682591698976202,-1.2149821028509464,-1.2332866006177508,-1.090462734777184,-0.613821404936726,-0.20769665500587006
0.494,0.007711365457780499,-0.2924038765274445,-0.29996763980263685,0.14345922539443665,0.15155680085177553,-0.29891807971448153,-0.6838764468628176,-1.0739781398669666,-1.1032268357254222,-0.9868377651572986,-0.5536441142984406,-0.1746914645766181
0.496,-0.011895306752501124,-0.2474820084011518,-0.23551766544019279,0.13110902065001218,0.10890217768150949,-0.2435346623696786,-0.5844540824476595,-0.926351027129063,-0.9678941218411677,-0.8768745565862897,-0.48835935262630065,-0.14158471441743234
0.498,-0.025496796188752,-0.2074282742112922,-0.18197581304217772,0.11840950048683029,0.07644709420560095,-0.19597874490515943,-0.48634829126297496,-0.7817971489211865,-0.8336615349474292,-0.7703472139839781,-0.4306078921188871,-0.12271892713988836
0.5,-0.017524084610514395,-0.17787977241048072,-0.16041442429105354,0.09983927426916635,0.0712669171308111,-0.17060074787392826,-0.403770564588745,-0.6555696357634326,-0.7141530632934279,-0.6790095260504441,-0.38996125936584075,-0.12260011682246831
0.502,-0.008665232223000838,-0.15395355727422827,-0.1453145123170333,0.08266726761731295,0.06857814051296142,-0.1516814894444473,-0.33487188151368824,-0.5476153007727251,-0.6107719932147087,-0.6010658428649388,-0.3581136202095758,-0.12700102407083597
0.504,-0.025320004069470364,-0.1313191907198943,-0.10610062817187653,0.07833653415344456,0.039771618497139206,-0.12065165299183422,-0.27032405615688976,-0.4470364630048479,-0.5139498580975046,-0.5257202771855928,-0.31892500266940904,-0.11740236498509524
0.506,-0.061804561903925734,-0.11071868241111955,-0.04922495434148351,0.08548256218477786,-0.008035955376911525,-0.08131009137091347,-0.20764715801903613,-0.35141357282129937,-0.4199517667032964,-0.4491237414997009,-0.2690554736870664,-0.09151517423876816
0.508,-0.08321011103748448,-0.09389792358458939,-0.011118780034261786,0.08807885319899067,-0.038426366975392354,-0.0538304131014933,-0.15308323010840497,-0.27041796315196537,-0.3377058060411611,-0.3794198163691894,-0.22149645101669893,-0.06435096752772063
0.51,-0.06686415993413976,-0.08197252621653106,-0.015376945305693071,0.07503827242627346,-0.028073213682588548,-0.05063917083472245,-0.11259565238492521,-0.2112444563852313,-0.27594688634716363,-0.3247832828344642,-0.18915895578938297,-0.050369189838340156
0.512,-0.031723598698511296,-0.07562499537674645,-0.04387738761191623,0.055557265093900014,0.004345083493643933,-0.061985099046630056,-0.08360417940988209,-0.16681571848733207,-0.22937494110372852,-0.28145494707667007,-0.16971481140601238,-0.04869837794716245
0.514,-0.014567061620032599,-0.07314173036371588,-0.05842255272254637,0.04650111965997432,0.020879789903908017,-0.06739749728027886,-0.05762074839055773,-0.12361182297853229,-0.18615316202912738,-0.2405861319938578,-0.15146503914216985,-0.047808893945961765
0.516,-0.023863235950066532,-0.0710546652312083,-0.04714622670699375,0.050008561132086314,0.010993143787777809,-0.05996642376452071,-0.03132019956807685,-0.07966724559112452,-0.1451039392452994,-0.20343136449473181,-0.13148630670427044,-0.04204629366998132
0.518,-0.034921324277314814,-0.06737984226258344,-0.03263753680875995,0.053164575469618905,-0.0017346443140881082,-0.050924761070217886,-0.00959465795531073,-0.04537530693399642,-0.11466333477454256,-0.17873743586327087,-0.11834064892704195,-0.03706936944330997
0.52,-0.027495280943933827,-0.06189296243624104,-0.03478441302166879,0.04633224342445304,0.0027512335032708066,-0.04995868411147087,0.004287625481059823,-0.02588050885047067,-0.09753067073683223,-0.16721866410081831,-0.11643120316679843,-0.038120165399711484
0.522,-0.011287195175693474,-0.05573379211509776,-0.04487188718506636,0.03491743098095665,0.015502160691015187,-0.05251446307194054,0.014478588809462092,-0.01348126591556724,-0.08570429052391113,-0.15919589071554505,-0.11762496521050625,-0.040978371517757184
0.524,-0.012286114477268021,-0.05170838036546304,-0.039646871590863275,0.033267134032294546,0.012517984455425608,-0.04810176462678281,0.02630728491491717,0.0011948623126029928,-0.06979999516458738,-0.1458872626147809,-0.11134437465392502,-0.03810032236626561
0.526,-0.040681965763846896,-0.05003068635310612,-0.009306807959190965,0.04693669413088164,-0.016060480798373907,-0.03215960053157173,0.0400584363522496,0.019094421869734937,-0.04845555623133708,-0.12685707434454108,-0.0965937066553737,-0.02830732220093943
0.528,-0.07562780890193137,-0.04644978180561411,0.029314717287625778,0.06331214074463096,-0.052057688709832045,-0.011100965186814235,0.051638249137343877,0.03409284243779528,-0.02926447825305426,-0.108986900123147,-0.08146118810905949,-0.017916554109980345
0.53,-0.08804387703680704,-0.04055133172976661,0.0475425560710454,0.06682118263701642,-0.06726151103182082,0.0011693532397450289,0.05684827006453629,0.04022936752485869,-0.020545591737831045,-0.1000907013524747,-0.07350818968124642,-0.013822762178485846
0.532,-0.07532148374299412,-0.038395412165406075,0.03687860378418515,0.05876819465040614,-0.05619477572613945,-0.0023981165226445575,0.05644108446971829,0.0395726323439987,-0.020543683573340216,-0.10046088477713543,-0.07193289618357687,-0.015269947683360334
0.534,-0.059405152466127764,-0.04208936178785667,0.017287878268813922,0.05200725990730945,-0.03936188024456617,-0.013291951881269207,0.05645799558022514,0.04218525182808839,-0.018568108606848446,-0.10169835028985236,-0.07033785424252949,-0.015113486927826146
0.536,-0.056269194582849937,-0.04658709853355655,0.009815116893569587,0.05285534868654937,-0.03467269733420695,-0.019310737647804967,0.06148148701977148,0.05420257290509767,-0.008763294964480502,-0.09628489876046169,-0.06654970705459297,-0.01123598302943574
0.538,-0.06383048153342097,-0.04873966228256378,0.015468047084715348,0.05825260311672393,-0.041301517822475146,-0.018453758989929618,0.07030635789657139,0.07008205911850172,0.004013454151547527,-0.08455530668809955,-0.06425609990545313,-0.010110396026015466
0.54,-0.07513664524546025,-0.05038458461812871,0.025340300260307633,0.06481901230551171,-0.05146611720214394,-0.01520269379997037,0.08001214315334616,0.08162723275708682,0.014146418106012576,-0.07051075915360219,-0.06462796666689981,-0.015603483026018324
0.542,-0.08766481910879409,-0.05208949340781905,0.03628032407008288,0.07151910183483395,-0.06274950888582957,-0.01069754122287728,0.09013393155442939,0.08868518396441055,0.023593673560043767,-0.056216819936400854,-0.06307184561171943,-0.021525291375539386
0.544,-0.09864927575943298,-0.051114679486168414,0.048269706789627304,0.0758349739905281,-0.07410136433465153,-0.0035887262530136157,0.10022004319551814,0.09503898062939166,0.036337041512063545,-0.042459790636930235,-0.05575699245888697,-0.019701497333967047
0.546,-0.10394557629643855,-0.047514670688377565,0.05711623282465789,0.07592603502109006,-0.08116550390832127,0.0036098410719766975,0.1067246138931112,0.0997798982881856,0.049209241914984915,-0.03162083595757995,-0.04526507111250126,-0.010830919069381
0.548,-0.10367139477804098,-0.045855697695441094,0.05844705111291438,0.07474144140082767,-0.08147210339247879,0.005826891999214931,0.10626440412239598,0.0995568478561243,0.05443164703231434,-0.027414575338363004,-0.03765255575390532,-0.0026571435009981933
0.55,-0.09806271675340059,-0.047069615435338386,0.051620787048987204,0.07338518931133689,-0.07520093456939726,0.001769600065690624,0.10014155404742629,0.09463360502036951,0.04995421278283297,-0.031147888244328487,-0.0357677080159195,-0.000405095106009408
0.552,-0.08106661315006605,-0.04631432910183697,0.03527601296561406,0.06570295852257263,-0.05934785303010919,-0.006623737310882095,0.09178438380912173,0.08694841020916201,0.04069713385405635,-0.04024985110056996,-0.03883384684299242,-0.004414430423620206
0.554,-0.051001080103523354,-0.042600435865346335,0.00861307804493219,0.04894283597827528,-0.032402118908617834,-0.01859485677362751,0.08249446114406904,0.07759546530537274,0.03151075815312693,-0.05115048532507682,-0.04608962103595464,-0.013631147916122594
0.556,-0.021590826728320595,-0.041276735291492256,-0.019806579276179077,0.03249803367576109,-0.004323049137280818,-0.03217675077677935,0.07373146544563051,0.07052972252021969,0.025140220007719847,-0.06043164711149276,-0.0558474017776062,-0.02576742313256448
0.558,-0.00883686179398701,-0.04360452473846264,-0.035063458058209415,0.026319272240397724,0.010074472779761173,-0.04063916339975365,0.07007682418275973,0.07220420203688908,0.02380204914677224,-0.06388011884836439,-0.06367543601400454,-0.036490616853293134
0.56,-0.011852373214140944,-0.04222994843520821,-0.030739985303245596,0.027098929922628846,0.007477866374797805,-0.037382254415205096,0.0759882750990929,0.08461195332509565,0.028552162143331703,-0.058519455684917746,-0.0650951163634828,-0.04126733609895934
0.562,-0.017693676108144606,-0.031590570056086814,-0.014227720313257678,0.02522659302543298,-0.0029128778331859078,-0.023471073480564666,0.09049414750672866,0.10275452278814831,0.03898088800052509,-0.0455544860953987,-0.05879702879103968,-0.037946268483693216
0.564,-0.02007345377753373,-0.01741722941087545,0.0026066498246872694,0.020009679880341514,-0.01248505389105401,-0.007699927684533111,0.10649574520970319,0.11865047659593447,0.05338452214617334,-0.029099303292704423,-0.04706520146229914,-0.028422183526690986
0.566,-0.023478961684124926,-0.010265825984843864,0.013685121408924208,0.01881192943959348,-0.020008869631106724,0.0013845614232778716,0.11632208209907392,0.12676772464368466,0.06799916775827071,-0.012762208873054575,-0.034099306305991756,-0.0174676609392706
0.568,-0.0327451535766779,-0.012454245659929305,0.021174115786709097,0.024926075658720126,-0.028136322786475827,0.00338272671237723,0.1182890586663808,0.12743577472002915,0.0778918664687921,0.0004604693167728751,-0.023466418571751323,-0.008770678063709776
0.57,-0.04634439167324122,-0.017573363426139826,0.029633965168125883,0.03426738767028165,-0.0383008699735291,0.004050044100141325,0.1161717609712995,0.12445350790503039,0.07997227717340095,0.006834177300942034,-0.016534327046947853,-0.0028956499645662274
0.572,-0.058704279374706105,-0.022140751710467258,0.037088863133514303,0.04261567874277709,-0.04758280174250788,0.004894412611619187,0.11257394374489428,0.12024390875625557,0.07508097071152757,0.004295779544378467,-0.013101305684875848,0.00035515017915480854
0.574,-0.06615491766249848,-0.029828295724365978,0.03653342054427045,0.050236391755583136,-0.051237826282346695,0.0009574698605867191,0.1072089721991193,0.11688969679553937,0.0680721044550215,-0.004115726655594929,-0.012441968236307936,0.00030591384808411297
0.576,-0.0685741492596957,-0.04130064481639914,0.027315905614274084,0.05724822770295939,-0.04849156352402689,-0.008761775792075254,0.10175800019030025,0.11830433943486487,0.06513998072376606,-0.012046068900105908,-0.013953976090738675,-0.003215167511819843
0.578,-0.06538067931041285,-0.04853232131859681,0.016827673316603772,0.05899160801217329,-0.04200951488452166,-0.017191701457527027,0.10015008126251597,0.12571424839814366,0.06827351582471373,-0.015183380118573467,-0.018262505549417985,-0.009994623060210567
0.58,-0.058047511574844404,-0.04511879169472864,0.012898265785740525,0.05293088632421143,-0.03637849265770705,-0.017530551554474517,0.10395459991262107,0.13549323099848237,0.07396256886034137,-0.01289907523800052,-0.02547207346069533,-0.019154413022668855
0.582,-0.054616367487962676,-0.03507307322144401,0.019532741401645126,0.04565955361914227,-0.03817126568663789,-0.009562248495315931,0.11164619903444316,0.14429142794207767,0.07904764847742439,-0.005911065609620274,-0.031850935598372945,-0.02684505287644511
0.584,-0.05796736889257282,-0.026045490987949164,0.03195270136239814,0.04310459754719575,-0.04659839130266499,0.001005558708972636,0.11961271830106128,0.15016391721665012,0.08326643189425738,0.0035900402634854193,-0.03313082902264597,-0.029266777306323998
0.586,-0.05645534113009822,-0.02042031917960021,0.03617637892020907,0.04025354054154745,-0.04851070915878565,0.0062199401306101965,0.12276579736118513,0.1500234105619131,0.0858236188789091,0.010689080608606141,-0.030503431371488025,-0.02828285100309157
0.588,-0.040844078189702246,-0.017199278994837926,0.023972535831433467,0.030817767983796842,-0.034965125011141115,0.00200340925591888,0.11932870308204017,0.14335849486448354,0.08538295562616928,0.011719477560876957,-0.028182311350837742,-0.028410496408355617
0.59,-0.020717392357467817,-0.016106700388876606,0.005028093886808835,0.019201227138310323,-0.015377455680049907,-0.007107475986230278,0.11414988198499845,0.13600359680573543,0.08314840813352982,0.00907018217465014,-0.026784770673021846,-0.02967836408323376
0.592,-0.014106457113601806,-0.016576876870011133,-0.0021956026157889763,0.015276883736521465,-0.007642811634315742,-0.011158489988963044,0.11303292534207823,0.13520968842447675,0.08217147356543125,0.008318585127569786,-0.023840165375286517,-0.028397659621761724
0.594,-0.02926547179363015,-0.017493022088761703,0.011879641710478273,0.023555941280579456,-0.02089833983486429,-0.004198603289378827,0.11722995806709934,0.1434846473796011,0.08493061255772197,0.011607222019107506,-0.018528228276959092,-0.023125159100336412
0.596,-0.057987494797228076,-0.01886352293129925,0.039285842633396635,0.039501433305088894,-0.04797874173790739,0.009535331351599443,0.12571852784255344,0.15809758770753118,0.09233466743135914,0.01651789131448085,-0.012339987058996069,-0.01687742921183492
0.598,-0.08068620962167211,-0.02180445705723094,0.05911002602763196,0.05285263362258051,-0.06923615114577607,0.018322769475955552,0.13646318273625663,0.17255218726848753,0.10172355132893603,0.019705361611946817,-0.008213165580741356,-0.015331390604984075
0.6,-0.08339851408683707,-0.027935184200840825,0.05543648366585023,0.057142777108690354,-0.06943829117251643,0.01313283524392708,0.14439815108395063,0.1799129517588525,0.10721732427355506,0.019607497215002677,-0.009880624440997625,-0.0223998949728627
0.602,-0.07209655405217771,-0.03702977843593133,0.03467428217608509,0.05577991964759995,-0.05419601006286668,-0.002304491244869601,0.14554075908623118,0.17923215893375705,0.10690758889122118,0.01757914536400257,-0.01721931654008141,-0.03530284566933682
0.604,-0.06046866460238876,-0.04364747969092501,0.016422305420701014,0.053321268576047284,-0.03974705299913528,-0.014880288991485224,0.1426328475814208,0.17599497539421843,0.1061500873278657,0.016947007584691882,-0.024032136885883352,-0.04676520628988398
0.606,-0.04813749452647177,-0.041174498937667295,0.006896334678195011,0.04610668396326266,-0.028632687910336543,-0.01815871450224933,0.14064374163478763,0.1738826473271012,0.10897378758030114,0.019169303901892244,-0.025201916123726402,-0.05280196744515282
0.608,-0.028923126104657287,-0.03107776139601884,-0.001977956368395924,0.0315001272989172,-0.013772410604279875,-0.017392348359776627,0.14009910707703113,0.17195111216935266,0.11261506481646597,0.022883181110772383,-0.021752946639918534,-0.05396345412190982
0.61,-0.01308953230851006,-0.023068093531573946,-0.00985033834965195,0.01954430972994364,-0.0013730604869490095,-0.01739160939509889,0.13943889818910907,0.17057409920643402,0.11435367446822338,0.027430069680943202,-0.0162203522286183,-0.050876757933464106
0.612,-0.0164626384498751,-0.024516983424297926,-0.008085897150727566,0.022113780925021496,-0.004365848873143555,-0.017324106964966727,0.13886445035019587,0.17258702187701988,0.1157766521881623,0.03257820175134803,-0.009407373758440207,-0.04450707882474701
0.614,-0.033870648063579895,-0.031751037800000485,0.0020348299077033944,0.03484226044386395,-0.018911689084811542,-0.016168999317475685,0.140147935364227,0.1793126314337821,0.1189614287069559,0.03607093472417819,-0.002198832400215401,-0.037655235446358716
0.616,-0.04636039261583915,-0.03318616311406207,0.013150568947638074,0.04191462370937169,-0.03090514968911445,-0.01194940959863374,0.14669148915741154,0.19087824235228518,0.1256197734978538,0.03749134185915039,0.005165899289492763,-0.0312460431272453
0.618,-0.048137156295842566,-0.023363013699104707,0.024808938436428316,0.037087132906385496,-0.037352725102244515,-0.0015322393942821012,0.16040056218029855,0.20648431406904996,0.13704560514505293,0.04107373531103354,0.01349197979148935,-0.023684811907797892
0.62,-0.050369294483014436,-0.01219730953537725,0.038201508236036553,0.03136657823725378,-0.0450935940428652,0.011226638024581284,0.1762937448950766,0.2217332653733512,0.14982237981683455,0.04920447441362154,0.021001688982475834,-0.016531112584156307
0.622,-0.06212571847726114,-0.012634554888482145,0.04946435581542477,0.03715287563624008,-0.05673246541542489,0.01719653272591307,0.18688388281917293,0.2316445074551713,0.15790703491768057,0.05765348534312996,0.024037200301781848,-0.01453303993762527
0.624,-0.0741454112798718,-0.019451496547607385,0.05454416989279786,0.04771631133566659,-0.06518694486844819,0.015999392478966267,0.1914708006481787,0.23653551867507425,0.16117743595499395,0.06173927622709027,0.02315952169688011,-0.01792500541378067
0.626,-0.06479234251122688,-0.013519606552917689,0.05093917108979894,0.04133020292206179,-0.05844884268862722,0.016335372048074306,0.19398743079907355,0.23960970729338557,0.16421698811006216,0.06303862858297653,0.02339391668909625,-0.02077869073826056
0.628,-0.02861506739263476,0.008436750211709202,0.03665827268831892,0.012100300013063586,-0.0332218064335288,0.020044450648178093,0.19491818988462276,0.24082184449483485,0.16750446842815342,0.06603174856944176,0.027324719492787072,-0.019347748970813615
0.63,0.006517788753471335,0.02391900035279564,0.017283741475216115,-0.014369976017148858,-0.006214324765398884,0.01887911698415083,0.1922716227779691,0.23844628317429836,0.16796327655366508,0.07151804699151636,0.03202309457222805,-0.016698550623768346
0.632,0.006969544351215391,0.01467153250135776,0.008032481578112892,-0.010516585823533256,-0.0015482823710324767,0.010236522025167899,0.18769370205776506,0.23565886876564338,0.16631316003907554,0.07709188320841323,0.03423156864145094,-0.016096962645789192
0.634,-0.025449699428147406,-0.006729176143859272,0.01915360814517121,0.016887215066465646,-0.02347644275455104,0.004698540584103148,0.18698881128206674,0.2401244847593151,0.1675131962692653,0.08202882307293904,0.035837930282004674,-0.014838889679905962
0.636,-0.05703919424861479,-0.014302939815494636,0.042726040469209574,0.03699191625467542,-0.051354793659140356,0.011758001881052825,0.1947009431836466,0.25411942065259113,0.17442686377838604,0.08776443602831262,0.04049035657527462,-0.009732773616736962
0.638,-0.06362493908711699,-0.0036674148740788066,0.05946455818358006,0.03476499183778677,-0.06343077912284498,0.024998053598641545,0.20843331580797644,0.26912343066224154,0.18349968220245894,0.09358600907462959,0.04585996494682488,-0.005073187825400434
0.64,-0.051771854084537536,0.006244220561761361,0.05755985466536219,0.023291721867495587,-0.05697652176163665,0.029538149490946894,0.2192677854283291,0.2751608143105567,0.18789450509933936,0.09574432275216761,0.04509543322423403,-0.00840618007358845
0.642,-0.039181573046794316,0.0017107158846028853,0.04087447141638679,0.019007940845696406,-0.04261803601052083,0.01995368776800824,0.21946672943138232,0.27199148922387406,0.18520636304197297,0.0919570262703634,0.036127472589510726,-0.020202290248728456
0.644,-0.03234195391388877,-0.01098965702131187,0.02170428129389312,0.02209857856702951,-0.029548612938651922,0.004433055655215594,0.21015131425345104,0.26750003277149753,0.18102808317821248,0.08557475088347556,0.025859473312043572,-0.03229100095172058
0.646,-0.02985832890385248,-0.01795294746073228,0.012345430089031842,0.024479264298564736,-0.023073103017727914,-0.004323503472569986,0.2008923954070758,0.26992315318575855,0.18424536713157694,0.08530998734929161,0.025719975431728586,-0.03446286677058977
0.648,-0.029831497711513565,-0.012766016694375354,0.0173042691063021,0.021874687977970517,-0.024528814902118546,0.00018887433140499606,0.20008769284986708,0.2824394969741514,0.19787002332841305,0.097086352899481,0.040950737202102405,-0.02279975773508966
0.65,-0.025406255799205333,0.0012849705792415999,0.026521104632250693,0.012651146023577921,-0.02591311399513935,0.012451216247904058,0.20536092861298438,0.2994564205346127,0.21413568546286582,0.11438670058849239,0.061693425563311366,-0.005020355774336646
0.652,-0.008839751110431523,0.01601093447506056,0.024383747182731754,-0.0028505179209045457,-0.01628972385309354,0.020128629096226258,0.2068264082024834,0.31010750926578656,0.2212920180006412,0.12360083784326176,0.07109404778823664,0.005351307667868097
0.654,0.013735854591651274,0.023531103654349964,0.009438442142235503,-0.017399166983699584,0.0018522392761747154,0.016977309694025597,0.20078662688512597,0.31052076060691597,0.21690156436800764,0.12053670574761871,0.06515099667109713,0.0029554594657562887
0.656,0.025289397975523764,0.022009955884966,-0.0032636010633853153,-0.021618489400163858,0.013347110957731534,0.00886557396929649,0.1951017423854275,0.3088155272420622,0.21128994881400376,0.11479395708239443,0.05645976121737239,-0.004725344749380353
0.658,0.01950012937895094,0.018141439672279953,-0.0010447105933531738,-0.016491185862750266,0.009522990086762755,0.006582984259658207,0.19862206342240538,0.3145822078028851,0.21520535656369097,0.11728953858870894,0.05651972781054142,-0.007249648148745963
0.66,0.007149287425772949,0.019848612061996833,0.013124801418204421,-0.012077718030380047,-0.003135421881587622,0.014249764570881762,0.21056513032326263,0.3281128994664353,0.2274850861868511,0.1287907718006469,0.06358072928028558,-0.002051045073833581
0.662,-0.0007300399512255569,0.026168417013722405,0.027249903159293102,-0.012821961792222069,-0.01415595211626432,0.025388530110110982,0.22321019209129345,0.34224309442584117,0.23877949749421598,0.14151316569035338,0.0703894511669671,0.005248845059739809
0.664,-0.004449676879485232,0.029360487461141973,0.03385763090741685,-0.013153843834478275,-0.020065035255648032,0.030746759071976396,0.23035089058310268,0.35067679589252615,0.24429294621460057,0.14891407284600475,0.07509341681835159,0.009095383534699544
0.666,-0.009354064340941833,0.027072626180153485,0.03606340934641923,-0.008487152197361753,-0.023988774142312253,0.02979525779405634,0.23131559809834587,0.3536329057002245,0.2479965004405169,0.15230607774700214,0.08074536104987741,0.010809305738192889
0.668,-0.017456396297349873,0.026967699491884763,0.04389254660432333,-0.0026406785325167083,-0.03133469629058513,0.03244037534348272,0.2310817232981603,0.357903327724646,0.2561204291777733,0.15855615386075878,0.09060043091561887,0.016867916809215518
0.67,-0.026958620986979258,0.037321184318813594,0.06398420277747577,-0.0021663827647893635,-0.04549593003675011,0.04764202326793629,0.2366650126987643,0.37028696970540115,0.2704169235986641,0.17272706461926668,0.10667526837712947,0.03155515639804013
0.672,-0.03449867651948572,0.05604494143967968,0.09058444879266193,-0.007996412137750607,-0.06291023892938699,0.07149303382895461,0.2495749599330201,0.3899927871165526,0.28686168767806663,0.1930818922969942,0.12748898130305455,0.0516327079659678
0.674,-0.037934197581569455,0.07163773926081032,0.10962589357143164,-0.014550725883882459,-0.07488970712577522,0.08982475933669637,0.2630815541984597,0.40940662707709136,0.2992594631864784,0.2118800554188519,0.14577697409770674,0.06808189956708398
0.676,-0.03800890541157651,0.0752766859898537,0.11302038629283682,-0.016381641281057503,-0.07675894590592255,0.09327828544203606,0.2701801317624557,0.42178387746217016,0.3049275310209998,0.2214097284682526,0.15351070369012795,0.07445258951783743
0.678,-0.034271585589439886,0.06995658427939097,0.10375950273279991,-0.01546819251082653,-0.06995531147596491,0.08541836403942316,0.2715669452394844,0.4264921693756772,0.3063881356416439,0.22115596354141748,0.1502571997575499,0.07276826963740618
0.68,-0.022468328309540125,0.06566915192121871,0.08794693859173722,-0.01944682136781292,-0.05607775356069525,0.07505163416772112,0.272170252128118,0.4275989114687039,0.30694422348387207,0.21777242677691816,0.14289525257879346,0.06917142019954556
0.682,-0.0012434372445843927,0.06905408101865301,0.07065563866893267,-0.032243219054224954,-0.036966277000050105,0.06788799845570775,0.27378798964424556,0.4292537771983631,0.30805396161480697,0.2173627591471866,0.13822210271855948,0.06746838512102053
0.684,0.02075620313764596,0.07974326997017113,0.05957196367987557,-0.048721981454504286,-0.020282267459154263,0.06727216813761774,0.2754392353730039,0.4334302517149827,0.31205844290114154,0.2217218511299989,0.13986350385458723,0.07018179272103899
0.686,0.031260395093426444,0.09240534782295631,0.06134800572361389,-0.05981691512555722,-0.015391300116157258,0.07416909805374912,0.2767466808789017,0.44034344866790476,0.3211828595567246,0.23081688813794024,0.1493185678241173,0.07985539483170237
0.688,0.030626820576308413,0.10222982285666105,0.0711902821999383,-0.06390962386242448,-0.02033159345436799,0.08438026252231985,0.2774392457785778,0.4479355356578973,0.3323832464391765,0.2425715717547317,0.16492012393461958,0.09493617202089635
0.69,0.030105084201716547,0.10846218548763908,0.07769538144903909,-0.06695319044207114,-0.02427799388757817,0.09196220576898789,0.27698422926796995,0.45210047711116774,0.3396713175156864,0.2521439668465721,0.18169938820919654,0.10977757518299155
0.692,0.029010268792135148,0.11020355830488837,0.08071933677288867,-0.06803875110502784,-0.02703231148686884,0.095651533898737,0.27598184268008746,0.45125547204703426,0.3413412330322063,0.2569488924203288,0.19532038800098261,0.12166593661797638
0.694,0.014747409976828406,0.1059232797859952,0.090826812434658,-0.05941588986799114,-0.03937864977877049,0.0989140100103855,0.2750296280374822,0.449456223457351,0.34021264535796625,0.2601093227805792,0.20496538696184693,0.13279131651965403
0.696,-0.008257258173657453,0.10164390281469786,0.10937249893274842,-0.04596934507311905,-0.05989612953187965,0.10523438178068721,0.2734034247224908,0.4515433018751894,0.33991574907105565,0.266303713899934,0.21215820801235696,0.14435051792238004
0.698,-0.014993231689772603,0.10980396624690064,0.12417292474199759,-0.04659793741556077,-0.07083246792356057,0.11565205988320022,0.27196071019541784,0.45758790855580045,0.34397439565995414,0.2773625672528545,0.21934944139498203,0.15492980910223006
0.7,0.006479450622651205,0.13396886058119098,0.12716786980031422,-0.06922438797106502,-0.062384067662212286,0.1288151893528729,0.2741649140291483,0.4651255344727417,0.35386612643185744,0.29234580752757156,0.2292911316179315,0.1650075307830871
0.702,0.03719364976868571,0.1606316226408337,0.12353637178488752,-0.0976520737155283,-0.04571669356197497,0.14045229100333292,0.2807183647138796,0.4732574647248425,0.3666007280965082,0.3090323905784647,0.24269789950765586,0.17697117154847455
0.704,0.05138623065524453,0.17263270563906982,0.12147020603354397,-0.11048997257355628,-0.03710384873164529,0.1456181099130539,0.2867259941173863,0.4809490634624385,0.37755402260737353,0.32536246149023695,0.2567604070061917,0.190758336768117
0.706,0.04608825959783969,0.16926454186304443,0.12321817764443202,-0.10606000504249354,-0.03972260030201038,0.14512928953593549,0.28703766275361414,0.485175952508741,0.3845557823871149,0.33959510511081425,0.268339954770708,0.20374556964739315
0.708,0.0373279601408633,0.16547587924367646,0.12792835043593778,-0.10005934550475776,-0.046190909234886585,0.14592636473391532,0.28181229646258316,0.48485860032253986,0.3879450862886688,0.34962053624757433,0.27810871014320643,0.21452527450575765
0.71,0.03647374244325425,0.1706975775861599,0.13381917248553205,-0.10284119392770182,-0.0502211586575613,0.15115369275613944,0.27457685902385104,0.4823847187080814,0.38873197632184037,0.35423251670108674,0.28873950681920546,0.22382766491598305
0.712,0.044811806162110696,0.17925947736998574,0.13403580153999278,-0.11176680149147411,-0.04704182789783228,0.15445725083864367,0.2664681150316943,0.47827369598690533,0.3868503665338105,0.35404786927387233,0.2991909112474818,0.2320392551668632
0.714,0.06298322878478829,0.1841794599778453,0.12098781892074634,-0.12319166316178715,-0.03154229201016173,0.14959765929352356,0.2564083802970231,0.4707291889079675,0.3820104761288265,0.35130123660681195,0.30551127402851536,0.23921311546959356
0.716,0.08566022171259936,0.18802631962403618,0.10240843933322605,-0.13567597326589756,-0.010032041194187187,0.14264012912360868,0.24766232637923255,0.46291566040339177,0.3779612102323532,0.35133567195160254,0.3087494560205537,0.24769395869834385
0.718,0.0952591894322072,0.1955242136777962,0.10039308866250443,-0.1433013243526615,-0.003227667860986729,0.14659665543159298,0.2478141377543096,0.4624537969657503,0.38130906105386575,0.36039652675174294,0.3159035926987162,0.260428960750962
0.72,0.08503159954347728,0.20585608654329796,0.12087014357965002,-0.1430754802998337,-0.01828773374020246,0.16289531853947958,0.25714405380658123,0.4701279014976229,0.3918576188440391,0.37718772088841057,0.32920703978352867,0.2754574781188399
0.722,0.0783651620800734,0.2169884300958734,0.13857842684488972,-0.14599188518999462,-0.030694484307802077,0.17748869752016952,0.26372736657952595,0.4764612301417094,0.4003568018961008,0.39178509824041197,0.34101666083278215,0.28635882682671165
0.724,0.09626901429561242,0.22845026799251478,0.13213503216780273,-0.16167640671630243,-0.01877953895346316,0.17995408998574275,0.25820629499505027,0.4735077575588332,0.4007838864196932,0.39810884191590684,0.34546363693279736,0.2908889650982224
0.726,0.11686772423427334,0.23506615092007913,0.11820043249068417,-0.17569028229615433,-0.0018602414791284486,0.1762760573316455,0.246531493381525,0.4638478546564581,0.39726564365967615,0.40106764196338596,0.3479691985269829,0.29481717539209334
0.728,0.10266722490995799,0.22806521679554254,0.12542402347490147,-0.16490895533159958,-0.013020957799767856,0.17609663406133963,0.23899480570627088,0.453331618190139,0.39432524063274643,0.4056709960214642,0.3552173870914263,0.3027527485895992
0.73,0.060646901711974885,0.20934327210326586,0.14870770760083457,-0.1345021787935383,-0.04578321780166941,0.1778088589785431,0.23458377067105296,0.44131590252590686,0.3890374337049626,0.40732579609902003,0.36354587672777805,0.3105256178111425
0.732,0.03604749213916074,0.19591807499838604,0.15986181090154383,-0.11569504526518135,-0.0631763182672433,0.1761434613261323,0.22682140321131852,0.4258542145788253,0.3784687112178551,0.40090940908883055,0.3667921134144256,0.3135458853410262
0.734,0.04835909381081347,0.20300818625046882,0.15463872235993711,-0.12517804284907516,-0.05367747368960425,0.17669076544076,0.2183917693646909,0.41315537458104346,0.3685153455785685,0.3925219412318939,0.3689495864392928,0.3173149005055302
0.736,0.07329091613742651,0.22721881165944124,0.15392772921208936,-0.14900562234994721,-0.040515185336407515,0.18818002132198272,0.21732741854073667,0.4105823382934267,0.3675956802966109,0.3925539018684669,0.377945413934499,0.3298401306542671
0.738,0.08886029658655145,0.25096741445515003,0.16209075708974163,-0.16812651240198928,-0.03712607220986788,0.2040555852220955,0.22158714185119657,0.41284908489044314,0.37307338397761886,0.3998756362925658,0.3906908578076757,0.34675770795605787
0.74,0.10019082894821679,0.26180958240635793,0.16149019290015984,-0.17926656550739767,-0.03151948291076429,0.20936403947128313,0.2202087106563677,0.40680600748953577,0.3731257321851126,0.4030143835901616,0.39628380126727625,0.3552894765365768
0.742,0.11640011882792327,0.2630451471817666,0.1463158808378656,-0.18822836597219506,-0.015457686503924543,0.202813408595719,0.2088878070425274,0.3886856069893109,0.3631216813777669,0.39732620825248166,0.3921941235787801,0.35187257412580863
0.744,0.13292521503187266,0.26355882733006525,0.1302086779397716,-0.19665005205298608,0.00164100234834191,0.19530592792637835,0.1930656941159692,0.36667736456044797,0.35005441980055163,0.39010117584727066,0.38589846578058906,0.3448569225210594
0.746,0.13981655660911682,0.26314759544958727,0.1230753289161687,-0.19939157923972128,0.008689904131589593,0.1915222770786364,0.17699540117722265,0.3476489374026982,0.33954295639512533,0.38707779015306176,0.38202217089204904,0.3405468114705957
0.748,0.1363503899951378,0.2556386616449655,0.11931513533178817,-0.19347871880147516,0.007697808475175322,0.1861297369938337,0.1595619177322127,0.3297900138605471,0.3287557600560021,0.3848093810538548,0.37775597157491364,0.3371927491786679
0.75,0.13400582102977576,0.24265859858816916,0.10879923504334998,-0.18607137775664964,0.010553552271375154,0.17525808100205226,0.14076839688387083,0.3092702226022448,0.31468630939016684,0.3788971942919537,0.3707174778573894,0.3332179418981956
0.752,0.13853651500590972,0.23274517023341257,0.09427153707694809,-0.1844258399375279,0.020185742332411463,0.16394061360843304,0.12512892790661562,0.2879290106517526,0.30084055617405686,0.3707930149387629,0.36391181611643525,0.3316439760662352
0.754,0.13472065492694943,0.22783180428191876,0.09306449930798773,-0.18120510002533094,0.02023886200007757,0.16108069307519185,0.116640912466391,0.27147419099017384,0.2919391190448319,0.3634679561753894,0.36112670520570467,0.33374834311569773
0.756,0.10557018692339529,0.22198769578778935,0.11636102429652233,-0.16394562396818194,-0.004952867182202562,0.16939242706059424,0.1147349045428032,0.263327003951033,0.2881503232175145,0.35735952109043223,0.361404995223229,0.33548505662960487
0.758,0.06232923060965978,0.21283814358471548,0.15050700403964534,-0.13692353606022406,-0.04400745061656203,0.18142076440950045,0.11598601834793308,0.2612093457310198,0.2867436026526787,0.3521573036982639,0.35977592839028716,0.3323320972794536
0.76,0.03844972115787149,0.20495160511640287,0.16653164638117893,-0.12014725820703893,-0.06498548722318424,0.18520890325103062,0.11600602160359133,0.25772878333361865,0.28429021536984883,0.3464867160031452,0.35168697516146563,0.32277304198608436
0.762,0.05207949599934186,0.2018982249376566,0.14983398450562582,-0.12538090325580398,-0.05021018042530274,0.17505673837053548,0.11113054545620142,0.2460048742989722,0.277346995882132,0.33741750442151713,0.33634125900358347,0.3074100667519077
0.764,0.08482104701707639,0.19989953936726687,0.11506955599868937,-0.14141099122003448,-0.016189393285799884,0.15625773970680834,0.1017509750532716,0.2265774496514925,0.26499344873512287,0.3249333721718764,0.3173269442339169,0.2892462246863479
0.766,0.10344918964387682,0.1912388054501529,0.08777702886671124,-0.14712053427438254,0.0066625581145829185,0.13777108037012314,0.09227749166817739,0.2066815314158551,0.250192203570942,0.31287213398076097,0.300173763299886,0.2735529717854293
0.768,0.09364428109130389,0.17373645438012958,0.08009103780148792,-0.13385090436508754,0.004767606444299455,0.1246598779205636,0.08669517455573385,0.1924183195217459,0.23764381258628892,0.30420191904512633,0.2879874022785921,0.2638716417349943
0.77,0.06277640154424632,0.15310468147229012,0.09033460563034898,-0.10811082272015464,-0.01653526081541195,0.1191547827890772,0.08514490342471151,0.1838412743758338,0.23022405024270895,0.2990281152330845,0.2790766366532802,0.2586030627419422
0.772,0.02455891618560434,0.1354947192866538,0.11093944395254397,-0.07991867401493916,-0.045846248484370196,0.12091493433605621,0.08431900524049624,0.17660029230798205,0.22566380511490375,0.29441403248103887,0.26852656231368977,0.2521726373993978
0.774,-0.004543177686245004,0.12352797106143609,0.12806943574444432,-0.05892321109420024,-0.06816947015906315,0.12445900122297454,0.08084380568650683,0.16620479975050492,0.21750704734524148,0.28433171530544366,0.25172662455519396,0.23924507200425038
0.776,-0.010816838371386552,0.11760732854963929,0.1284213618434629,-0.05254636184837139,-0.07058975641731106,0.12283621828035936,0.07451875652797227,0.15195619936609298,0.20207059557529364,0.26468766988641745,0.22772065662994997,0.21882064511123495
0.778,0.002815967844567398,0.11545102110792961,0.11265658786530294,-0.0585730702537406,-0.05523250474340687,0.11445451491871643,0.06882845864770483,0.13815921593840574,0.18330439302432006,0.23958460222563857,0.20053067026256696,0.19479748575133485
0.78,0.01982002995465435,0.11334179316196341,0.0936544163090279,-0.0665506985597236,-0.03687778105909573,0.10373194784343032,0.06844208611005342,0.12986714193134272,0.1684740926114467,0.2184727397919869,0.1762759870437065,0.17243919955763765
0.782,0.02786949729785578,0.1092679676181654,0.08172674919135607,-0.06842390158101283,-0.02695909726852207,0.09539171400708811,0.07383982624641865,0.12611655827033463,0.15981013967638466,0.2056578589191331,0.1574203175918286,0.15402596001532698
0.784,0.026830808864445544,0.10304913321142421,0.07664061044001191,-0.06376568506685959,-0.025401921951514393,0.08955191048958229,0.07832920868194812,0.1196337896036474,0.1525422328931362,0.19608938756702435,0.14083353251769654,0.13766519708841302
0.786,0.023917230219529465,0.09585902899311535,0.07219671779525678,-0.05771747463797355,-0.024988620515611033,0.08342515686030044,0.07474885503250213,0.10541476350617009,0.14144438426184794,0.18348339446673306,0.12300434021912234,0.12125551869008211
0.788,0.025647116305180455,0.08899119601089217,0.06331828346478051,-0.055321618839192364,-0.01941607631971239,0.07507083255699003,0.06441574810751027,0.08696466595495013,0.12648438375433851,0.16808155717750087,0.10443054607632267,0.10602811286798083
0.79,0.033099365601313324,0.08053911841037856,0.047294236804317276,-0.05592363595621042,-0.007074807114960274,0.0624702067797347,0.05380500621740528,0.07024945582755444,0.11022800198154961,0.15257976659206282,0.0863133851563202,0.09275943349025442
0.792,0.04347653868297399,0.06814451666629003,0.024583023687600753,-0.0555602852943278,0.009541908652665462,0.044640771454716933,0.04511912300237206,0.05521618586054526,0.09337612495249344,0.13556265050706096,0.06725185329676166,0.07826770754578359
0.794,0.050605844381604335,0.05576646612169691,0.005053439168515139,-0.05244534480951763,0.021944522996348623,0.028504280838996077,0.0375362759082957,0.04020081611446966,0.07656613196001126,0.11571981374770891,0.0471298939300547,0.06103901489926512
0.796,0.04219281170431149,0.0492180547605809,0.006622789567043052,-0.04403961165833407,0.015576327919316891,0.026397921051052313,0.03401842379036669,0.02999382453049225,0.06366329986342269,0.09890909688488059,0.0303530699978071,0.046132557472673974
0.798,0.009537478051364862,0.04611073252042918,0.035803417442088446,-0.025831442142598204,-0.016095133830097995,0.040291036940844585,0.038496192369548585,0.029984584707660935,0.05854274816582597,0.09260720176515701,0.02118877311236397,0.03942988724220019
0.8,-0.03483205245111215,0.03855475340771422,0.07254779678877603,-0.0004179960917144346,-0.05637996495917554,0.05514751327925607,0.04830929773370035,0.03550939139495675,0.05884495984891083,0.0940990511116475,0.01737218914934978,0.03911963861970197
0.802,-0.06261031744271199,0.024197872824783726,0.08623563219553718,0.019975917992310313,-0.07642957707801189,0.054073490247377703,0.05530734597162819,0.03522747856071106,0.05632551850471376,0.09121385093656043,0.01074872225356802,0.0360685970958013
0.804,-0.05900903069334666,0.009338582108091143,0.06810528891570833,0.02569155290792016,-0.06513929238313632,0.036968613615966345,0.05402368852136735,0.024059138040704038,0.04526814126937938,0.07645324646969535,-0.004384442901171096,0.023681395080156882
0.806,-0.037737648237324374,0.0008753373022892701,0.038578993234965886,0.019922382368814082,-0.039584025569349,0.018531161096959212,0.045906849027614195,0.007561271382581239,0.028920481152162177,0.05562659752992593,-0.02410883985373282,0.006019009566648756
0.808,-0.021297559271316196,-0.0019912101688161184,0.01935028779556235,0.013382569407806471,-0.021564155852526665,0.008639684831662622,0.035798352780178025,-0.006527415682547488,0.01463994154419795,0.03904563932474238,-0.03949109310827764,-0.007429754240296138
0.81,-0.01544985403205717,-0.004753023472103389,0.010733801988930387,0.011468104159252535,-0.014002132126157717,0.0032867369629215456,0.027401675172419874,-0.01624317982216169,0.0047119425004539355,0.02898048736748787,-0.047503500934270686,-0.013744863545564697
0.812,-0.014331634458098406,-0.008766105875998477,0.005588462906992492,0.012526077668774954,-0.01066106013594146,-0.0023059527711960935,0.02375423366530563,-0.022497336618909024,-0.0027506826241028935,0.02194900772317723,-0.0514554975473829,-0.01717828201554371
0.814,-0.020184366148051174,-0.011659215262273148,0.008639467456249269,0.016771233401792214,-0.01553096058197845,-0.003668801656447602,0.02817192379354799,-0.023371902333134378,-0.00687089149901301,0.018064290189076813,-0.0530910007866018,-0.019955496261042992
0.816,-0.0376896857365038,-0.014846086670330568,0.023162316585688382,0.026888747331947672,-0.032512880282614544,0.001342807563068757,0.03956930890781449,-0.017773995562361873,-0.006095564793085918,0.019242858424779085,-0.052900508516184025,-0.0213697162587582
0.818,-0.05648942406918218,-0.02269728508302085,0.034219494338273766,0.0397437482442576,-0.04799644488630958,0.0032981967282584273,0.04976898559322201,-0.011343809372241923,-0.00446628099346245,0.0217664748693268,-0.05511077092350853,-0.023664798006945657
0.82,-0.06105330483557748,-0.03373680767749251,0.027578930349958695,0.04723938767142233,-0.0465790499812159,-0.004886303960006385,0.05181238107787193,-0.010869782755873218,-0.007429986903600057,0.019310852384560352,-0.0631321322348676,-0.029611581702147245
0.822,-0.05114822488254223,-0.040007568479632806,0.011093747782435284,0.04555517288113074,-0.03290463797560052,-0.016099182696564268,0.047435031673713275,-0.016010954033465325,-0.014444607648721693,0.011051164362115808,-0.07338944447147308,-0.03713241107773279
0.824,-0.0364255753736002,-0.03683078213218834,-0.0006857262125326801,0.0369754383547018,-0.019914364523007225,-0.02088083473822951,0.041442094810953456,-0.022977044349398762,-0.021812632949430647,0.0010801644924678284,-0.0801762802856798,-0.042671699079725546
0.826,-0.02252815225521282,-0.028038367689176745,-0.005902856408816705,0.026016476754082075,-0.01078481182155409,-0.019641190033134776,0.034888921431400564,-0.030458602412710582,-0.027837008309227623,-0.006524147953359007,-0.08202936309447902,-0.04538697893912236
0.828,-0.014420572886770814,-0.020812767818856822,-0.00676776953102655,0.018724205684633857,-0.005956286932846027,-0.016505263712216268,0.027089439637731454,-0.03652338069128693,-0.031373325503428036,-0.00928066476638593,-0.08012269047146515,-0.0447190897127616
0.83,-0.018962545312737764,-0.019117261671643574,-0.00035231451183043833,0.020374817825251627,-0.010655455701826149,-0.011915084509384874,0.018166425727096737,-0.0374155510942123,-0.03128866521171968,-0.007772513455010361,-0.07603705350592353,-0.03960656076865041
0.832,-0.034970536487057426,-0.023374917612864532,0.011623689726623832,0.03043276027793823,-0.024354511070846865,-0.0071047520550835035,0.008473020870723772,-0.03445283005224203,-0.030116802087149237,-0.006928792017227724,-0.07350642505799167,-0.033214432670359596
0.834,-0.04941571929925968,-0.03254897036776091,0.016982220814891685,0.042085955618312305,-0.03447324355807247,-0.008031130879939598,-0.0008839647899421233,-0.03499715004982573,-0.03322479983286946,-0.011956976218455304,-0.07761391983019374,-0.03315261759264385
0.836,-0.047794715492173054,-0.042734772086893996,0.005107368441500677,0.046502283576725346,-0.0278453065710031,-0.01877153358991834,-0.008122756359712326,-0.04256143078986391,-0.0422043137844572,-0.021975685458275822,-0.089361787764043,-0.04290921449653078
0.838,-0.028503996670109253,-0.04835341330246726,-0.019886558925342936,0.03994442854549081,-0.005535752158659486,-0.034857172315826676,-0.01271380528507397,-0.05181942807545591,-0.05258017377691172,-0.030772533078723404,-0.10352252859840048,-0.05661963641348787
0.84,-0.007139052565407988,-0.048206966331748154,-0.04111142863843275,0.029074431754069534,0.015889330535700914,-0.04646337723252085,-0.014690938236386892,-0.05555087008947106,-0.05857043239119228,-0.03411641022046587,-0.11312257287607982,-0.0650740056081041
0.842,-0.001264413226166293,-0.045554442963772944,-0.0442909321900096,0.024287180457000075,0.02031897904710188,-0.0467532902023213,-0.01293686419564964,-0.05205300681166122,-0.05791765133438552,-0.032892698181367044,-0.11492933193392581,-0.06476604527727627
0.844,-0.011826718225329108,-0.04279922478470602,-0.03094934033806142,0.02792075829205378,0.008208802741772171,-0.037498532269433886,-0.007834527304877208,-0.045630491990982534,-0.053170054366677495,-0.03022365737843057,-0.11122096839555408,-0.060112062480754624
0.846,-0.027179990884452672,-0.04023628654477216,-0.01304473974889837,0.034826384847554376,-0.008637298650887968,-0.026087504262714428,-0.0030951540358306615,-0.04210934975139234,-0.04894191880384839,-0.028992982410260344,-0.10664863774897622,-0.05732744018166156
0.848,-0.04134392372123331,-0.03802279629109137,0.003314023611398406,0.04185269843138373,-0.02437076552103942,-0.01671657665445672,-0.0009029933902874974,-0.042793702508630696,-0.04697450455457802,-0.030621469841388985,-0.1034828430709579,-0.05724624114007214
0.85,-0.05800522129303005,-0.03789551704360559,0.0201000115722205,0.050885132881606926,-0.04158343607511563,-0.008975555742147482,0.0015768695842934936,-0.04342048356088396,-0.045045942131257594,-0.034431914275461904,-0.10096520039199264,-0.05588379961598449
0.852,-0.0763995123541862,-0.04195436008526409,0.03444439916982544,0.06197586014226408,-0.057877718259297876,-0.00455234241206352,0.007008590220126437,-0.0410402755129963,-0.04175452448261608,-0.039369826930460546,-0.09858807544993278,-0.051228244956855774
0.854,-0.08327982736942709,-0.04788962580895658,0.035395130446706065,0.06752161194062377,-0.06107399952697505,-0.007601959790223587,0.012626827870394703,-0.03855839583136837,-0.03993625649559564,-0.04553862474824214,-0.09783132388384573,-0.04654810799848878
0.856,-0.0687128299613428,-0.04951431614926603,0.01920127879165624,0.06025471527597918,-0.0449774885586851,-0.017027221507153842,0.014518330861189359,-0.03888642072769358,-0.042202060304251075,-0.051924847173313284,-0.09962787708100683,-0.04581203517156139
0.858,-0.044955706719499305,-0.045137318137818405,-0.00018298051022329158,0.04620511181020736,-0.023301669537525948,-0.024693996664252545,0.014074737986461038,-0.03943835350552824,-0.04556469107726721,-0.055028804711767965,-0.10200931386360466,-0.048435140270085594
0.86,-0.03466954603622903,-0.04031495984588073,-0.005647576632654366,0.03946274912470172,-0.01585476269511582,-0.02452059115228854,0.015562402260335867,-0.03689123834179301,-0.04554520227679466,-0.05330655870972699,-0.10274720499437093,-0.050979048326456736
0.862,-0.04214266661239364,-0.04016863907242476,0.001995681237331128,0.043860534855112675,-0.02376189756113469,-0.01989479421588585,0.019624163489024023,-0.032684049012869955,-0.043401462732769854,-0.050094934872904666,-0.10256475449520297,-0.05177274215042662
0.864,-0.053028674084165804,-0.04453941108525356,0.008621622493811088,0.05129893490431144,-0.03227785847854619,-0.018441743493656307,0.023043927337957536,-0.030400042515533337,-0.04387075357309177,-0.04905675053456906,-0.10316806125964587,-0.05144906361711659
0.866,-0.060135781243643195,-0.05083343594740837,0.009608479310748902,0.05705983219242567,-0.03578605450801437,-0.021074715775111053,0.024200329850856166,-0.030568717879985444,-0.0471620063719921,-0.04967443092974529,-0.10323484175338662,-0.04974572952778791
0.868,-0.07091918823756321,-0.05485433515433226,0.01635588560702903,0.06381607687030202,-0.0445487478664667,-0.019475334444900096,0.026589589896407393,-0.028990330307560406,-0.047514264351317094,-0.04830509728630875,-0.0979581579885081,-0.04306080211514504
0.87,-0.08975171584888011,-0.05148527135139444,0.038194086169513905,0.07169154836810389,-0.0654330173619264,-0.006466450360668976,0.034167075398848494,-0.021430251084980718,-0.04079734305835661,-0.042977956495042206,-0.08483789917080277,-0.028711552829789915
0.872,-0.10469189654466607,-0.04233274240309927,0.061910786430937365,0.0748468495854516,-0.0848860623796334,0.010051714555843803,0.04220529495333929,-0.012608660937055519,-0.03270562788318253,-0.03905129982861934,-0.07149870732907217,-0.014107324270911725
0.874,-0.09645393094799408,-0.03846389151970702,0.05758892153681572,0.06869804630913207,-0.0780311175851761,0.009429964652060767,0.03938883351123341,-0.01490283271986781,-0.0353276667818591,-0.04645227435804121,-0.07174780471890109,-0.01445365933169004
0.876,-0.0633803535299947,-0.048074226664600296,0.015268737994348934,0.05700879013084841,-0.03991842499352014,-0.017171732770396405,0.02375991841615732,-0.03169880085463655,-0.051662819011182214,-0.06631033121611005,-0.08883889615842505,-0.034443043201255366
0.878,-0.02956078567029956,-0.06367978339307778,-0.03392711765808599,0.04827874424648932,0.0014848214331696123,-0.05013189463884718,0.009027366401601728,-0.04902306783571762,-0.06895029933404041,-0.08617596807252328,-0.10947054204949536,-0.058981591059026554
0.88,-0.016048087928945107,-0.06863355019741145,-0.052465934131109546,0.04407865871530869,0.017462909238955125,-0.06212064252410582,0.00816394529058525,-0.05215446910786908,-0.07421666504262679,-0.09423262175142938,-0.11996177857078505,-0.07020351651700363
0.882,-0.015330488057791697,-0.05750850720714976,-0.042222013157111736,0.03773382084034643,0.012860807981793471,-0.051506764465836304,0.01681560036346777,-0.04439383529897769,-0.07045154932581484,-0.09226300507901411,-0.12121764336075654,-0.06784579797703995
0.884,-0.008646702962932224,-0.04236168361339102,-0.03380095903777525,0.02658443577967026,0.01186487905268243,-0.04003522418670454,0.020329897662906788,-0.04041452193647349,-0.06924827815557189,-0.0890146903821566,-0.12193229842582223,-0.06424806561046109
0.886,0.00390061258001805,-0.036606018277183405,-0.04054601439301513,0.01783434877745122,0.021204729918097295,-0.040994114438519434,0.012743642015124193,-0.0461572335401717,-0.07369367471502024,-0.08743415043377221,-0.1245724929150387,-0.06531487933893021
0.888,0.006058702094483376,-0.04068330599324781,-0.046834905124726045,0.01919436446915736,0.02565675931846211,-0.04607370971395831,0.0017402797949577636,-0.053855962859552894,-0.07704921819843587,-0.08519398931596119,-0.12460325173426384,-0.06610087759882025
0.89,-0.00938728075777534,-0.046075430321322476,-0.03698770739991292,0.02915773456160254,0.013663512937506166,-0.04274953251377582,-0.0026438225140968602,-0.054112736895935286,-0.07386732175742429,-0.08215452313961362,-0.1183898885242006,-0.06121487212105708
0.892,-0.0315906708937633,-0.047191287981794644,-0.016030861400981908,0.039935356251388464,-0.00790495614591311,-0.03135844199114914,0.0012957001142113987,-0.04658986779478137,-0.06598224193608046,-0.0809598000663886,-0.10759790530540776,-0.05181335541571239
0.894,-0.04549379056858648,-0.04530355250913831,-8.414819887131827e-05,0.04593235653212099,-0.02393707544792398,-0.021785609207667794,0.007724017330485982,-0.038147040520445485,-0.059335885109076385,-0.08256469240808235,-0.09789295453495818,-0.04306467411883858
0.896,-0.04572062405943769,-0.04381235039165792,0.0019291145378412115,0.04626162192858743,-0.026385617071033343,-0.020730692011011694,0.01109147583298272,-0.033939263502662194,-0.05805800560657116,-0.0853537013262016,-0.09449136634729234,-0.03913582285242192
0.898,-0.03757425680476717,-0.044278431701489165,-0.006550403046609551,0.04304975088922024,-0.018379947279509,-0.02657524558538707,0.010692971430591183,-0.03352146568253053,-0.06114303446173162,-0.08858387849572384,-0.09809963267892066,-0.041252677085705534
0.9,-0.03075838571609077,-0.04649421285539293,-0.01566616511539148,0.0403566871031928,-0.0095157584364365,-0.03297593483587531,0.009675416054163858,-0.03390717646322079,-0.06396336167934774,-0.09240196922166291,-0.10467330536885577,-0.04729759727158798
0.902,-0.032172208525876274,-0.04962503531740589,-0.01747829025901539,0.04192681381542889,-0.008269935571131991,-0.034799384140888893,0.01164431865707806,-0.03271552094778355,-0.06323606308894184,-0.09390401361454456,-0.10914452904410879,-0.05240588583570766
0.904,-0.04212330984635087,-0.05296091947147152,-0.010744898554992052,0.048287196308920984,-0.016461196239482747,-0.03175270951784689,0.017081223523195615,-0.029095245789663278,-0.0595839624916416,-0.08845328274939075,-0.1088112709606801,-0.05226964342146076
0.906,-0.05564953268613472,-0.05530275222165327,0.0008020781647587929,0.05609711974782845,-0.02962270818571161,-0.026702078440180382,0.022645316020637588,-0.024401363885578297,-0.05536372534886348,-0.07640476465764427,-0.10370590777606013,-0.0465838666930564
0.908,-0.06326294169043421,-0.0537943458957165,0.010249868045617228,0.05868759951149161,-0.038757633360733915,-0.022425773018973975,0.024031450169570114,-0.02191639440482522,-0.05275423321262541,-0.0649874077532241,-0.09663674017170432,-0.03914875131885519
0.91,-0.05451127499314399,-0.0468247188332328,0.008381501162513768,0.05029227342508273,-0.033537251570989315,-0.021493970639183423,0.01910645461562025,-0.024422592974722733,-0.053652701568123504,-0.06148597593747353,-0.09255563979051828,-0.034613464190717105
0.912,-0.031156908517281152,-0.038923999782271144,-0.00752429420277967,0.03478284725160962,-0.013434005741702844,-0.025671249846581225,0.009622703368581087,-0.03150754636697145,-0.058172110374452975,-0.06578071929508271,-0.09397244252417664,-0.03449347210304456
0.914,-0.011636128317086603,-0.037450146834270615,-0.025867637176533367,0.02524835442342345,0.006152526662816038,-0.03288249897417068,0.001432544891686526,-0.038881681353093715,-0.06292520267214423,-0.07096922804405123,-0.09719732937124294,-0.03622074552018504
0.916,-0.01196972269866072,-0.043058196428720406,-0.03097158151130702,0.02929114178305194,0.00873631650687427,-0.03751413235674164,0.0009551326729754243,-0.04074673564393394,-0.06291941201988409,-0.07045123242332284,-0.0962818432214329,-0.03617217723592029
0.918,-0.028412282744094623,-0.048711828811723236,-0.019887403160094783,0.04060157464081348,-0.0054034086255179805,-0.03551778407610177,0.008738392975700851,-0.03489394517579285,-0.05650110337240509,-0.06397773674753117,-0.09019882708085626,-0.033390196962271745
0.92,-0.04657211990416201,-0.04905143918069609,-0.0021172404261665,0.049243176204374614,-0.023590804335419574,-0.027731436869187283,0.01887534731588875,-0.025231916587195313,-0.04733626699243088,-0.05684899097285747,-0.08328696405846893,-0.02970240677523635
0.922,-0.059593671348630986,-0.04645093008919752,0.013173938494079872,0.05360032824727421,-0.037250411414571624,-0.018540755265110908,0.026181225244679772,-0.017223524364473074,-0.04003979294104202,-0.052658083019603064,-0.07885208477617997,-0.02645963351704681
0.924,-0.06741681029430888,-0.04587004509880464,0.021370530364712755,0.05658192158859024,-0.044692403674797085,-0.013208031223880406,0.029766902744599828,-0.012846142236070682,-0.03572994985596049,-0.04959754596160319,-0.07582003379976184,-0.023414398412953202
0.926,-0.06607851581698028,-0.04640880310785161,0.01956107544327498,0.05597744008263742,-0.04357824803195555,-0.014191626282888791,0.03032800232828302,-0.01107664010304676,-0.032909392348949684,-0.04541959634833609,-0.07176813632138143,-0.020152070440324535
0.928,-0.054217593224932276,-0.04290651564073109,0.011352106073833076,0.048721062021949584,-0.034896349025217654,-0.01722939852078734,0.029369892786175276,-0.009667137881392413,-0.030041470487557082,-0.041102098248547395,-0.06587541507948055,-0.015738020752685124
0.93,-0.042651714147541445,-0.035050301610942705,0.0076582164435223445,0.03985323176171993,-0.028023193320626846,-0.015373963517304762,0.028808130926665263,-0.007424322027135417,-0.027140304665173896,-0.038474304429394944,-0.05983621851376438,-0.009868723587620119
0.932,-0.03873606143815839,-0.028879247216804595,0.009741100484777958,0.03525288151393652,-0.02618851617577222,-0.010359748210496126,0.02711357793277343,-0.008164674743058648,-0.027259395264443338,-0.03929505486684621,-0.05823619520086405,-0.007294111772882833
0.934,-0.03345857848718603,-0.02979784212912015,0.003297949177749525,0.032594371495392786,-0.01851545146420124,-0.012925366099049871,0.020113899771034224,-0.017811533932001054,-0.03473420331695008,-0.04603202740725172,-0.06528782117344842,-0.015151384019157553
0.936,-0.01988949158103953,-0.037144277192388664,-0.017702795398118726,0.028779009101488902,-0.0003761057443866734,-0.026774363863666627,0.009058664843029147,-0.033654629373130907,-0.04849927236073343,-0.057980059438654225,-0.07878380751190925,-0.03181429041864023
