time,I,II,III,aVR,aVL,aVF,V1,V2,V3,V4,V5,V6
0.0,0.00043879241376928345,-0.0010750414137347445,-0.0014918942068155637,0.0003290943103269626,0.0009653433102924235,-0.001294437620619386,0.000636248999965461,0.005133871241100616,0.0042782260342505134,0.001930686620584847,0.000636248999965461,-0.011562180102820618
0.002,0.0030651077227068346,-0.007509513920631745,-0.010421366257203237,0.002298830792030126,0.006743236989955035,-0.00904206778198516,0.00444440619792491,0.035861760355669965,0.029884800296391636,0.01348647397991007,0.00444440619792491,-0.08076558849332509
0.004,0.00961348892163703,-0.023553047858010726,-0.0326858623335659,0.007210116691227772,0.021149675627601464,-0.028359792318829236,0.013939558936373692,0.11247782038315325,0.09373151698596105,0.04229935125520293,0.013939558936373692,-0.25331543308513577
0.006,0.018065593249200873,-0.044260703460542145,-0.061423017047282966,0.013549194936900653,0.03974430514824191,-0.05329350008514257,0.02619511021134126,0.21136744101565022,0.1761395341797085,0.07948861029648382,0.02619511021134126,-0.476028382116443
0.008,0.02326416515933609,-0.056672498254184155,-0.07879978270037959,0.01727260690399435,0.05098809468848091,-0.06837039969591757,0.03382518588792888,0.2712736562194545,0.22607966320011907,0.10208588748040413,0.033715487784486554,-0.6104789197210572
0.01,0.02338565712181263,-0.05464822177676187,-0.07705398741101839,0.016121228071252675,0.049968160545865996,-0.06674596744435304,0.034393813198405385,0.2660323434779177,0.22183961540395117,0.10059289991896636,0.033737234371170995,-0.5956358485740392
0.012,0.022545678158700497,-0.04510081581909415,-0.06713981815686379,0.011530906740662258,0.044209688679235644,-0.05748738882307275,0.033439902204186904,0.23431930974550083,0.19581264933200535,0.09014423114095768,0.03191250500789668,-0.5155268462548761
0.014,0.0253751570502869,-0.037486847706171667,-0.06284114986212268,0.0060662727751103224,0.043174990832872136,-0.052010868517107796,0.03583269877168217,0.2240432318670742,0.18800198415203329,0.08896633118873429,0.034595647723910244,-0.47798611480685055
0.016,0.031946014554720736,-0.03386535364214907,-0.06597798443305376,0.0008544218049337143,0.048084010332512854,-0.051853230794024464,0.03972587317003465,0.24063173485383552,0.20298887683872152,0.09860214487552177,0.041837215181159904,-0.49963147791443335
0.018,0.039312669557556995,-0.030329155912062766,-0.06961697377838519,-0.004621616552920938,0.05402809590387126,-0.05139113813215297,0.04110526992180948,0.2594993566925495,0.22083802598808125,0.10957636334025442,0.04988341821275686,-0.5288763311751605
0.02,0.04530925863564934,-0.023422347186407386,-0.06836269309127907,-0.011141106491557856,0.05697866314217708,-0.046364337353382384,0.03970997686759869,0.2649198747842672,0.22914297084378224,0.11685112641045277,0.057154899025359404,-0.5292011606951889
0.022,0.049110684879840265,-0.013257196857862193,-0.06187017294535069,-0.018187576668096925,0.05593438189383863,-0.0371710436085226,0.03821925141827447,0.2624814734154001,0.23179395858566568,0.12338662049963825,0.06510598271453633,-0.5100420792708162
0.024,0.050590210771551646,-0.00202895382291307,-0.052328029037811405,-0.024328657321477182,0.05168692997650366,-0.026532520162490015,0.038236317274587546,0.26364026940233204,0.2361774569323306,0.13291790317458335,0.0747748701033503,-0.4960267933416141
0.026,0.051431769187255165,0.008779210159924625,-0.042580858906448055,-0.02954506262998365,0.04663991914563944,-0.01663826436080603,0.039056305831311054,0.27172832023680915,0.2441130377754485,0.14554224271317187,0.0848080061986563,-0.4941541360299885
0.028,0.0551058603399676,0.018933639894569313,-0.036014135249505114,-0.03580994176015414,0.04459034967197912,-0.00876632253308323,0.03944233311204713,0.2828316491616698,0.25364772173962347,0.15951254333637604,0.09285375472906797,-0.4949215979567696
0.03,0.0636079752021806,0.027842529436494214,-0.03539879917608598,-0.04433577916134422,0.0482758949761812,-0.004099851862215169,0.03918074259774135,0.2923576828124176,0.26240147187900553,0.1730167753336992,0.09800316824226447,-0.4913678910999494
0.032,0.07519268780042235,0.034600640815652436,-0.04027408989055776,-0.053751849260161,0.05658231063508374,-0.002910471717339796,0.03906457470521736,0.29870432198489283,0.2688475760905239,0.18437606876463145,0.10164310223213896,-0.4863115474355349
0.034,0.08636182595215529,0.04023666229503136,-0.046090605422382684,-0.06223123463381869,0.06506753300186705,-0.0027955894203931606,0.04036002564673343,0.30380171996074656,0.2736937911003514,0.19288157289992788,0.10626611128252489,-0.4836012303845098
0.036,0.09465355746897419,0.04732589640128842,-0.04745642209754425,-0.06955759887313605,0.06956671944932719,5.0770972970538505e-05,0.043808814714365055,0.31066580644930175,0.27975870485159826,0.19916248207718282,0.11364046408954258,-0.48088699913146565
0.038,0.09902897651645096,0.05615213404144163,-0.04282186319699003,-0.07577718908473068,0.06906149724380549,0.006722063117251643,0.04812792686480972,0.3194681493375154,0.28895853314026787,0.20425963908704015,0.12364760369310801,-0.4737075722281878
0.04,0.10001205438148883,0.06418862294217577,-0.035332634618477084,-0.08036510737437012,0.06578879342516451,0.014525149999666146,0.05041311418503054,0.3275230056903665,0.30039211379262176,0.20915835104018,0.13456716608586455,-0.46216977437340734
0.042,0.10067701977255011,0.07096583199921118,-0.028914289999284644,-0.08453059703927125,0.06339623524438585,0.020985758829797675,0.048768164133978144,0.33373940598805363,0.3124740273083873,0.215347442559501,0.14475853928377203,-0.45040676084400494
0.044,0.10499912760271331,0.07983058080722448,-0.02460596483238588,-0.09144568160154362,0.06417462887688452,0.026951322579226625,0.04402789111413385,0.34020049008947983,0.32515216191257773,0.2248432975992241,0.15406626435123852,-0.44195521818871103
0.046,0.11342377420093058,0.09259371677811967,-0.020957487501427948,-0.1019483152139751,0.06710128238425334,0.034437514145236964,0.039206765398881564,0.34820868528652515,0.33833659186292686,0.23854264050074991,0.16339105328855918,-0.4379045200927712
0.048,0.12210054705731353,0.10614965905856666,-0.016567827644705716,-0.11276537846647428,0.0692091755538442,0.0433027103157899,0.037354196369143944,0.35602004360218525,0.3503578225439354,0.25467999250820295,0.17345947736985415,-0.4372650236722395
0.05,0.12776047729434228,0.11686007066101912,-0.01135959413390854,-0.12083124076673046,0.06907555573740051,0.051753255783428244,0.039478610860754736,0.3621799503405705,0.36006766568955334,0.2699068896819608,0.18478365477613623,-0.4369782042106351
0.052,0.13117976447860014,0.12512292204658237,-0.006011281554202174,-0.12682409005749104,0.06790838034792222,0.058904190394123854,0.04421568075739623,0.3683317435060968,0.3686378182727667,0.2820583845544127,0.19779263094334884,-0.43315972502562244
0.054,0.13498984899646305,0.13364170798360953,-0.0009642275985558069,-0.13320724883710366,0.06738628630042379,0.06542686753152613,0.04877512825365768,0.37684775369803764,0.3778369723286159,0.29156894192392285,0.211536165385094,-0.42429971834298064
0.056,0.1401318909885933,0.14389395210110523,0.004183163812766287,-0.14106794013050397,0.067558068250657,0.07260691572176511,0.050723872980462804,0.38765093641258624,0.38813941065602564,0.3006774665717582,0.22386590943228973,-0.41262111654435096
0.058,0.14556858497231784,0.15638872930708667,0.011032590617788695,-0.15028071906460255,0.06683613745633385,0.08205404470986734,0.04999637516893458,0.39902235907563033,0.39957554944772766,0.3121088809447676,0.23462891528909605,-0.4014025526242652
0.06,0.15036456645944313,0.1719598170798525,0.021422881297616398,-0.16092184407508558,0.06379977533178767,0.09516389563060448,0.04864067939388012,0.40973175111713045,0.41251691680714936,0.32763809516205933,0.24630099350437756,-0.39183090063283077
0.062,0.15479791967344853,0.19004499788563323,0.03481536240772132,-0.1726184735817028,0.05909922710544604,0.11110302539917762,0.048312772045125664,0.41882504268444853,0.42615893278098393,0.34614342036368345,0.25978566384008617,-0.3829534173901753
0.064,0.15977525519560348,0.2075641097579433,0.047592868289417035,-0.18386592839678614,0.05523391089516371,0.12640053635647383,0.04886357197760789,0.4252512990673258,0.43838255843220575,0.3641299785902635,0.2727658006221496,-0.37359035125666057
0.066,0.16625402474203532,0.22171952356223318,0.055914500168695154,-0.19364423473563036,0.054604857381843,0.1377917055362952,0.049304660612387384,0.42923332968996214,0.4485335053678149,0.37963264795928003,0.28397114297037174,-0.3635384621566472
0.068,0.17462609993858158,0.23253786849118652,0.05881665270251362,-0.2025669322755953,0.05768866059394836,0.14473949449450205,0.049218701244299605,0.4326405004325793,0.45792023456134145,0.3936722207166325,0.29540020358475744,-0.3533710442123541
0.07,0.1835350939639723,0.2419149764179817,0.059002013689405775,-0.2114295452535584,0.062199621455921186,0.14938546594012395,0.04893843614751882,0.4371130215629387,0.4667787609564073,0.40710701059424675,0.3083699570049533,-0.34360213646460824
0.072,0.19054788543812318,0.25165018110202386,0.060827018427597676,-0.21994608559633347,0.06467444955809833,0.15490392922392626,0.04863209420286446,0.4427264750682206,0.4737997658597954,0.41898841730773034,0.3209556832066156,-0.3341340653260017
0.074,0.19497224894737297,0.2629220903373423,0.06695337661823861,-0.2278981338753318,0.06369646666486886,0.16352842978614623,0.047430162565345615,0.4487972296603427,0.4794437747344272,0.4289530740601598,0.33115083385795635,-0.3245130362306819
0.076,0.19857503332053653,0.27612294696456846,0.07664988741474456,-0.23612513981818273,0.060838087469432985,0.17513101260566916,0.04425647933879999,0.454655456498612,0.48634334017597086,0.43824541756211083,0.33969547549595225,-0.31460737536135014
0.078,0.20314000252014758,0.28996696517539466,0.0866375017054335,-0.24514583144747307,0.058585922254901356,0.18709832797754358,0.040017737328090865,0.4590778543086154,0.49518313427112703,0.44720524719471455,0.3485370099545263,-0.30472860512036976
0.08,0.20875767011878985,0.302028836265314,0.09369940377464268,-0.25412751951562557,0.05819725152679801,0.1965049608680762,0.03740142930384254,0.4607088424341344,0.5033690442336376,0.4546669350901335,0.3584148565127105,-0.29506546951907586
0.082,0.21466586000148727,0.3113873148138992,0.09728608310031045,-0.2622874139587603,0.05930306752857507,0.20308055730560245,0.037636002362875884,0.4598802864224973,0.5090023940139793,0.46128508218377257,0.3687361722278106,-0.2854112807856418
0.084,0.22015936260708363,0.3196715278431543,0.09975463216434194,-0.26983558204735625,0.06053685106921925,0.20916134839683545,0.03911661800770433,0.45860133000029973,0.5130228699010364,0.4703205779949981,0.3787564945820712,-0.27559621926507194
0.086,0.22415486030876722,0.3288793816279432,0.10437056970898614,-0.276822913829569,0.060085440796737874,0.2168882339257209,0.039771687411381866,0.45835254712110535,0.5163887947117725,0.48310698521455886,0.38830940165761857,-0.2657788079467498
0.088,0.2257678624301292,0.3393140739608422,0.11271288433357707,-0.28278125213892363,0.056799949724753614,0.2264623881907336,0.03919927373295273,0.45879161460444456,0.5180555836488966,0.4965015829375863,0.3978640537888933,-0.255985837855511
0.09,0.22628956733716954,0.3501648469067205,0.12310551837726393,-0.28810449757921913,0.051806657852041686,0.23667744462237567,0.03785563327161312,0.458424670219062,0.516649497414243,0.5065371017325473,0.40813855423807827,-0.24571972623623772
0.092,0.2284263122448235,0.3606766631308947,0.1320144377818477,-0.29399715130628906,0.047944184426223134,0.24605503883039995,0.03542512699128733,0.45591707778418405,0.5125832448953535,0.512437379863188,0.418978505621808,-0.23491487154315824
0.094,0.2324585162401348,0.3698212356469358,0.13755613667385946,-0.30026650627479623,0.046589132901561955,0.2534992406401,0.03123128122882774,0.4511343682439048,0.5082865043262856,0.5162825972415364,0.428539090411104,-0.22521064040768582
0.096,0.23573431818729668,0.3764257869653089,0.140793340236523,-0.3050304746717027,0.0463494048405892,0.2587300527054764,0.025726868743860747,0.4449626831758688,0.5062251284986907,0.5202583597034461,0.4349156068321318,-0.21868516089983156
0.098,0.23713738535696177,0.38070840496976927,0.14324867749297476,-0.30767481082304493,0.04591009562764704,0.2622795689004534,0.020300337788548662,0.4374603053434246,0.5061267921077243,0.524576222057168,0.43866157003089873,-0.2150519516183385
0.1,0.23884990330185524,0.3843837294189037,0.14498989345362007,-0.3101008238489026,0.04599907692913615,0.26493535835294624,0.015657695679230102,0.42726502898714214,0.5050583074743278,0.5276568594190552,0.4422357065236123,-0.21176243478826545
0.102,0.24220633603671238,0.38877900367272517,0.14625613209855431,-0.31386854014376964,0.04696787305404915,0.2675884999592071,0.011279327669198768,0.4143074447078599,0.5008845325632955,0.5283206010446809,0.4471426425151418,-0.20700688675356654
0.104,0.2451661107600729,0.3938449394435729,0.14874102221256627,-0.318062806040618,0.047019265782516716,0.2712325707127268,0.006356425657947331,0.4011065581363051,0.4944449716898864,0.5273538079567552,0.4529411229140023,-0.20111696100239418
0.106,0.2455757571689502,0.3989751440175681,0.1535957538906673,-0.32108821235016805,0.0446711830566047,0.2762207696604208,0.0005680248679702461,0.389338174465801,0.4875709068816279,0.5265098333247017,0.4587516266759924,-0.19505497933001958
0.108,0.2442192306715688,0.4039228227660145,0.1597710497288721,-0.3229555896495091,0.04091180052233935,0.281845202728287,-0.0055270384835872065,0.3776455143736346,0.48033041397004134,0.5265823743672676,0.4641004568076137,-0.18935613977490945
0.11,0.24327338038462037,0.408822247533311,0.16547719253733206,-0.32483341712814645,0.037652258227597143,0.2871825744273972,-0.010215350420060311,0.36483710008721815,0.47160165646432994,0.5270631428975714,0.46808005782619494,-0.18500821746428747
0.112,0.24331012131373944,0.41348117130525647,0.17010012233679545,-0.3271459898349927,0.03544445332286681,0.29180723236462836,-0.01206371819056695,0.35226059690169204,0.46137355118992,0.5271453874757949,0.46934744317200866,-0.18312887145729986
0.114,0.24263415439618577,0.4164539297265024,0.17382462309686147,-0.3285767954211199,0.033497319515446225,0.29512946315074073,-0.012402485407606268,0.34088839101301005,0.450888956610436,0.5262109970848815,0.46741682074819696,-0.18271039437583625
0.116,0.2395283402241446,0.41580788745702746,0.17632041768549117,-0.32729922679289775,0.03121547140831764,0.29605048919549465,-0.01432921878666568,0.3291760166880099,0.4409848557128762,0.5236232331819495,0.46331411664813743,-0.18103906972114825
0.118,0.23503649119042264,0.4120516285758288,0.17703201115007638,-0.32370730990857083,0.02912364417849869,0.2945406498192006,-0.01835334172752501,0.3161482068882408,0.43148454292617006,0.5191323372070373,0.45928470976686137,-0.17751828425656369
0.12,0.2320428746701053,0.40856848427873127,0.1765113843408964,-0.3205224613539928,0.0279951694239738,0.2925468224309361,-0.021517264783599117,0.3034820032864711,0.42173595549229853,0.5132426634534842,0.4571515001000719,-0.17479746012467165
0.122,0.23102680093006778,0.4073893095996187,0.17634651242632207,-0.31893935513517047,0.0272211330169368,0.2918718362553013,-0.021662831321852004,0.29219044687089,0.4107297647487087,0.505871759770311,0.4556647877091811,-0.17536369466231397
0.124,0.22934919234333356,0.4065183721047386,0.17716930210274187,-0.3169477577713713,0.02544518260996884,0.29184195303938754,-0.020069456269437333,0.28054484254470125,0.39769587447453025,0.49564665649946227,0.4512057245303898,-0.17903756294793993
0.126,0.2257994883617479,0.40302095100745916,0.17723024968937903,-0.3129390552080854,0.023232646058539003,0.2901225587773651,-0.019154470986763372,0.2675157325474174,0.3837764256611181,0.4825195033052485,0.4427913520866441,-0.18406019625176767
0.128,0.2226404950793582,0.3968239250935049,0.1741875601077896,-0.308239215428436,0.02302370870571481,0.28543949925098444,-0.01944477452833006,0.2550193402272451,0.37127323817409125,0.46931301451106544,0.4337651848367529,-0.18920384181818364
0.13,0.22164792633605218,0.3898203271569345,0.16816957829451443,-0.30446950359230635,0.025698015745552354,0.27861343233212904,-0.01936753136982105,0.2448775340401451,0.3598110877278419,0.45820783374275603,0.42654784367974125,-0.19476537962244017
0.132,0.22101412679040736,0.382640645660459,0.16162291683278274,-0.3006958778494734,0.02905516607941547,0.2711722303259295,-0.017078794886915886,0.2362108657801667,0.3459119464523301,0.4475741144367735,0.4186751924341165,-0.2019963009159538
0.134,0.21787869121521242,0.3742283949902082,0.1563495235774179,-0.2948682128440965,0.030452395733100483,0.2639328393488436,-0.012242644528679857,0.22712612183008962,0.3281235672654184,0.4344994628099166,0.4064589572731163,-0.21142812884452325
0.136,0.21182385160746142,0.36398608517536496,0.15214217358991153,-0.2866879863720425,0.029503545693937212,0.25686410628561196,-0.006342984305474864,0.2169180848816158,0.3096376365306947,0.41862454515919945,0.3901166840150055,-0.22211452320214464
0.138,0.20415581022021775,0.352473943514668,0.1481878136851928,-0.2774191644620556,0.02730582162911449,0.24951477920550233,-0.0015150194224356353,0.20546892116304738,0.29402236736826026,0.4011743639126259,0.37264406162466085,-0.2331517964683277
0.14,0.1956623149361539,0.3400178619166063,0.14404951759446583,-0.267686558007684,0.02472536937431736,0.24123068528694508,0.000866809421102848,0.19247285402159073,0.2809801571026379,0.3817552388655817,0.3553500052610365,-0.2451672469853366
0.142,0.18716845462630047,0.32622125440532773,0.1387607040178114,-0.257218275511872,0.022851651274344912,0.23130420826663706,0.0009377103269411833,0.1788122925078713,0.26781304478719287,0.3589528633285,0.3371609289610488,-0.2591606499353811
0.144,0.18013846917213266,0.31104186539653256,0.130975189593876,-0.24609711061081727,0.02311960597519702,0.21955738162684568,0.0002810817102186017,0.16663136480889212,0.25298440963218355,0.33359775576421224,0.3175161213994992,-0.27461006637582386
0.146,0.17437875947539078,0.29516639307546116,0.12121437206846886,-0.23452561754904025,0.02523481937984501,0.20684952065241233,0.0011120141690914654,0.15660968586012788,0.2369344438484215,0.30930453475086334,0.2979174621105962,-0.28994289259638356
0.148,0.16753125733914703,0.27959020024095077,0.11230726197193974,-0.22244054324342968,0.026683979123982363,0.19478471479832887,0.0045811719321985815,0.147417213148306,0.22101912859571074,0.28952184903909517,0.280500539220917,-0.30440231085005703
0.15,0.1588434308957477,0.26568789557005557,0.10642316741954665,-0.21077047610683344,0.025786233917741617,0.18485515190450255,0.009149433053389229,0.13864214714059334,0.20690184736630485,0.27460130719382553,0.2658025100337521,-0.3185341796437749
0.152,0.15071696064303272,0.2542637003242828,0.10260460944376058,-0.20112839889897105,0.02381794229628848,0.17718115843651314,0.012071182947523995,0.1316688876001387,0.19569422350589288,0.2616344321213493,0.25209164164571596,-0.3331628280414939
0.154,0.14480766410062507,0.24334589522616154,0.09774042262340311,-0.1929246778754505,0.022970880586307894,0.16956815402978276,0.013606692845837806,0.12706103141467653,0.1867589035234762,0.24686106769550878,0.23671529042794717,-0.348599017980074
0.156,0.13919265128556732,0.22916672594256216,0.08978826049689456,-0.18303729213267042,0.02348119112323057,0.15911329996365176,0.017392752802023778,0.12332004621094331,0.1782020862029889,0.22869723891668947,0.21849190127337428,-0.36431633778166556
0.158,0.13102063828401406,0.21095865240187076,0.08017362454090275,-0.16974677411504735,0.023725788098185388,0.1458039918378415,0.02511470118225039,0.11878874337642976,0.1687311409734625,0.20915125148167535,0.1992547293836668,-0.37866770480170664
0.16,0.12026755851219678,0.1922030546864617,0.07203065294424929,-0.15505571375039387,0.022561426995338224,0.13257562188441785,0.033634421940009124,0.11315535715950172,0.15836814428983598,0.19151853397548163,0.18216563629758267,-0.3900947585568569
0.162,0.10970794672794684,0.1754772649388598,0.06542051856015806,-0.1418622898709574,0.021116012280691297,0.12055703899738453,0.038883695923668526,0.10650815295940336,0.14761372725873623,0.17607379644979126,0.1680884256635038,-0.39955629486497096
0.164,0.10201967954281048,0.15928459221529262,0.056711866331286526,-0.13059443993963618,0.02184123657033499,0.10735159525463511,0.040094031027080645,0.09857292218953535,0.13706045507576178,0.15993247177622358,0.15496855756095904,-0.41027862165457385
0.166,0.0974692396838082,0.1418400805162819,0.04408631030065157,-0.11993470081373353,0.025488639005034838,0.09165439905524592,0.039308684298894885,0.09002769390936752,0.1279447727753262,0.1418286812749119,0.14079135579396024,-0.42425757985080176
0.168,0.09387628569415785,0.12436410358846586,0.030691119848762997,-0.10913370224563743,0.029924567771929565,0.07598362496056106,0.03863385923112558,0.08273526317017472,0.12130371629135343,0.12422754088769485,0.1254437840879888,-0.4404260497302856
0.17,0.08835219512108204,0.10855500196624858,0.020725784094349484,-0.09792167312910716,0.03235587765471835,0.06316063522422033,0.03871379987623369,0.07733467222790358,0.11585603216467663,0.10992421135157812,0.1096809251510538,-0.45671383554891065
0.172,0.07970343004375792,0.09414023610591642,0.014921139288713596,-0.08593148218514902,0.031853579173181365,0.05315641090851317,0.03907090125802995,0.07267166561411999,0.10889118275609606,0.09906297756440545,0.09418957153467872,-0.4720609202240587
0.174,0.06990993981877178,0.08070604729662863,0.010977677594778577,-0.0740447729968004,0.029758991262449037,0.04452708834946227,0.039185123810801775,0.06852736207683038,0.10017751083312874,0.08986130950323422,0.0801432873985429,-0.48578798463242334
0.176,0.06239902257508868,0.06902741258078134,0.006533818707217948,-0.06441736087550431,0.028232831758793053,0.03647621991650619,0.039156661312461045,0.06620865694524505,0.09251732201715569,0.08059965290342375,0.06872803982729316,-0.4972262734747285
0.178,0.05825747357650206,0.05915682365431956,0.0007606237066663244,-0.05773380968373738,0.02824480729654717,0.028648541450426515,0.039797050609703434,0.06546985520730998,0.087675179423906,0.07074135976667378,0.05931594759090284,-0.5069767929360354
0.18,0.05531568955324666,0.04979818681056016,-0.005539894117000476,-0.052201653002526875,0.02890712314611733,0.02092484068979278,0.04221626447109392,0.06388174803707576,0.08422185923923915,0.060737056325685344,0.05003629115391337,-0.5164660889075515
0.182,0.05113905339928642,0.04075547826755493,-0.010321806313757946,-0.046118837678990963,0.02863710984002276,0.014285618806198826,0.046808813073507455,0.0605741896059381,0.07995502609980312,0.05100102876278722,0.04078257536234229,-0.5255298554554425
0.184,0.045634379890298754,0.03359765168381918,-0.011995099823546363,-0.039829983266993677,0.026779770194886813,0.01018689010917022,0.052301433370833574,0.05769040073162948,0.07448607786730471,0.04146637888728246,0.033283436141803194,-0.5326745137750317
0.186,0.04066496341744037,0.028993243670372718,-0.011707090296608639,-0.0345439683426273,0.024462724820395142,0.008346958023880365,0.05585934046742539,0.056656784783770384,0.06888201568663153,0.03236079958886466,0.02752150389877222,-0.5382938436275485
0.188,0.03804072575614429,0.025461862431313872,-0.012739161343468508,-0.030687632222608507,0.023810638406135412,0.006427232699449725,0.05508990431062291,0.05558186481268196,0.06396630798585956,0.02475784371780115,0.02101256842254794,-0.544914599765119
0.19,0.03794066182682632,0.02130969777299142,-0.01696489562403818,-0.027916146291036607,0.02584143569358008,0.0024331214128328585,0.050969953929179114,0.05191277703356297,0.0596117632517558,0.019470626102366946,0.012752314148900224,-0.5533104277453379
0.192,0.03882319260597507,0.016281450892589838,-0.02295166048710926,-0.025686186276304274,0.029321460916632472,-0.003363515592122719,0.04748826299310812,0.04593737325253516,0.0553217576624029,0.01558703747394466,0.004847922711239024,-0.5612216774953637
0.194,0.03860855705718885,0.01103678301015275,-0.02781770781066055,-0.023459648836801923,0.03185442168662257,-0.009169397569632117,0.04721955863193078,0.04043776183053594,0.05125507836997719,0.01103732495292819,-0.001001536920152758,-0.5670009286067332
0.196,0.035979536466346676,0.006013918595008204,-0.029942278818142792,-0.020651530678277144,0.031792193837203116,-0.013557348486713897,0.04887927799270797,0.03777310317322044,0.04849358627052445,0.005109078227987184,-0.005549347279596289,-0.5715112249492136
0.198,0.031090444652399643,0.001141039168962572,-0.029788026082829204,-0.01671357384663744,0.029278610538567378,-0.016347703986557317,0.04988046775691525,0.03793227810521433,0.047845990683540396,-0.00015192759536956577,-0.009395063306743055,-0.5753771883424041
0.2,0.025469965602767805,-0.003902976734547792,-0.029158233357784138,-0.011633583388791419,0.026051085625944215,-0.018420286730725276,0.049706862248692266,0.03907250620721963,0.048644135351332655,-0.002154838729706167,-0.011436475489790779,-0.5776681190910892
0.202,0.02107851081226885,-0.009490889169345824,-0.030132228082668036,-0.006221874021206018,0.024394168186841474,-0.02105423101917446,0.05028967501136277,0.039555534877117625,0.04939805453966197,-0.0010527231584167682,-0.01111803783428021,-0.5786661896374187
0.204,0.01909012767643782,-0.01541720194143904,-0.03365825171724026,-0.0017502019348264687,0.025517487240327857,-0.024809881160116076,0.05342625171173632,0.03921683186895205,0.04937460766511294,0.0005588896257240428,-0.009862396290136539,-0.5806699075430135
0.206,0.019201417656886974,-0.020130589120636838,-0.03817572266405966,0.0006973880367046933,0.028256935978190657,-0.028569610156313822,0.057983514692521436,0.03880552879177016,0.048966554709105804,0.000817780743832431,-0.00934772402436257,-0.5843723756628473
0.208,0.019813363712310534,-0.02206070863817825,-0.04073464808005242,0.0012024035491827992,0.029991344233728928,-0.03053238428030161,0.06055268173488891,0.038791769215528134,0.048563189944350285,-0.00012678807440913298,-0.009976160911791921,-0.5875381159938938
0.21,0.018867608677089334,-0.022304363633346022,-0.040323017706237474,0.001706395336439091,0.029175535449150945,-0.030732457958768836,0.05891356839632969,0.039007046307407284,0.047382268031324705,-0.0019290155930924734,-0.011766836793264934,-0.5889474370027316
0.212,0.015360397758713007,-0.023864559192434024,-0.0387897789044138,0.0044146532655920095,0.026500533924628512,-0.031179901296298183,0.05402118402601726,0.039116746498785986,0.04427097458956409,-0.005045605303190239,-0.015050342365071677,-0.5904466619622833
0.214,0.010833376933834567,-0.027427649074068906,-0.038206099588179714,0.008759717449555462,0.023940506093035288,-0.03290560447958501,0.049124222138755516,0.03905178035564326,0.04005067059889289,-0.008930891077320011,-0.019021647561108676,-0.5933600785590961
0.216,0.008039735406103588,-0.030558402701668135,-0.03873151572757528,0.011886110451589185,0.02290970476230412,-0.03472988762940865,0.04731843254214141,0.039180402890295035,0.03762863131182395,-0.011190041734293214,-0.021230802819773343,-0.5959922925276395
0.218,0.007136341346644138,-0.03206518427623899,-0.03929984125745946,0.013047579572630284,0.022915340653789473,-0.03567775302955911,0.04950657355519093,0.0404856835684862,0.03915432380486934,-0.00976918361846352,-0.01973912542592346,-0.5964043343817717
0.22,0.005403006570124687,-0.03390086415770318,-0.03928844656781146,0.014724691155307425,0.02234624522711922,-0.03655136359532532,0.05424855390348525,0.04380564265059498,0.04391231040907541,-0.005150094800326822,-0.015113493618537997,-0.5952217817163676
0.222,0.0017653114796962526,-0.0372672634394551,-0.038974368006554766,0.01819545058409844,0.020758623560929765,-0.038104084832710924,0.05877557023421478,0.04805784913540569,0.04880697249596847,-0.0002645677951549786,-0.010263488707045413,-0.5943653091354463
0.224,-0.0010980496732273608,-0.03994843207266848,-0.03883058992464424,0.021009748325964566,0.01948540952587173,-0.03940490477761277,0.06048674826453983,0.05060077043709962,0.05090439459073784,0.001684885289242298,-0.008115177185701369,-0.5946821346741653
0.226,-9.996664777985902e-05,-0.03901129529649263,-0.03893312531825777,0.020079229201506014,0.019895907130405673,-0.038988431197295025,0.05845511202647819,0.05032379943409725,0.050065167145880926,-0.00042840017787772883,-0.008905729706566591,-0.5960135315868468
0.228,0.00464297556649188,-0.034396435296299654,-0.03906049592558227,0.01539529990430083,0.021867822515515167,-0.03672775202040718,0.0538394497703293,0.04886298121090447,0.04857503544909226,-0.005213025737974565,-0.010400383060860191,-0.5985772142198846
0.23,0.00981687417810059,-0.029250306633257322,-0.03906537960510905,0.010212719117468103,0.023966784039192987,-0.03414866303773136,0.04928736246555076,0.04824050529153482,0.04824388715287009,-0.009801261287318478,-0.010760253755604646,-0.6028631428289939
0.232,0.011836465708535027,-0.02717408921506437,-0.03899821235477404,0.008156780682374276,0.024747880862959686,-0.03308216771565721,0.04727588752016649,0.048707985226886984,0.04886649470042422,-0.011737804405606603,-0.010368294090620199,-0.60835000644146
0.234,0.009599502268497876,-0.029368872249442374,-0.03896346759487489,0.010381122468915299,0.02382429815906259,-0.034169279830890076,0.047969408438409904,0.049269837448865275,0.0493436481096858,-0.010988768147812158,-0.011193998277088002,-0.6132807145943464
0.236,0.00471759371112853,-0.03426154193124404,-0.038983526232285334,0.015276837490344771,0.021872378871288872,-0.036626192507651256,0.049343108232081975,0.049286962444921145,0.04923572826013008,-0.009629443157360557,-0.014565048573041394,-0.6159367610033294
0.238,0.00015038345813229992,-0.03885691060996787,-0.03901206791936057,0.019857530161335755,0.0200616130536641,-0.038934538992128315,0.049698156827557,0.04899003353346381,0.04892529268869247,-0.009311556334369357,-0.0191018743619265,-0.6160825738770052
0.24,-0.0017230365009575576,-0.0407379069247354,-0.0390147543843955,0.021729855482479445,0.019319482392932186,-0.03987435780363557,0.04915049568705585,0.04905827818432482,0.048835920368397734,-0.01008851937195164,-0.021752850651758603,-0.6153120974832956
0.242,-0.0009553262723380571,-0.03995844856700742,-0.03900046173122176,0.020954264731313038,0.019621226996400357,-0.039478485706329274,0.04869609470827714,0.050461090587498404,0.048962452040005905,-0.011840529466750085,-0.021372360042837074,-0.6160477747629116
0.244,0.00037847077082906106,-0.03861490541181662,-0.0389921687319233,0.019617300899711837,0.020148245827525307,-0.03880415067134105,0.04877398248101926,0.05386052343229893,0.04907159445327083,-0.015023999714804113,-0.019803195384679832,-0.619533562677741
0.246,0.0006739736746591138,-0.03832115850952471,-0.038996007381694925,0.01932458595229254,0.020266256170250553,-0.03865940508679788,0.04905765700462608,0.05809747197507478,0.04905467651558064,-0.018968733018909785,-0.019185459332351933,-0.6241617494154175
0.248,0.00011964639484983452,-0.03910103945278796,-0.03922176282049291,0.019969731585443407,0.020135739803333025,-0.03916145897888217,0.04915063612861723,0.06078720150042361,0.04898704329498693,-0.02121989263272749,-0.019714321208534363,-0.6267958926449366
0.25,-0.00030544324119465726,-0.04084126958897031,-0.04053586315073447,0.0209200243917092,0.020492721948226135,-0.04068814533555866,0.049040431382661204,0.06167620935444189,0.048963973592415805,-0.019762802069432223,-0.020302903049616385,-0.6263599181383064
0.252,-0.0002099169406371646,-0.04401752073355137,-0.04380703364237165,0.02213247588058385,0.021839560906491473,-0.0439120445128523,0.04893711926488894,0.06318222523412138,0.04898986314394034,-0.015130762199427512,-0.020299298142118623,-0.6247740058681116
0.254,6.618681407614258e-05,-0.04796523440222672,-0.048031128797119446,0.02354601440271092,0.023638965075445988,-0.04799830022962384,0.048947912080690555,0.06638143557340716,0.04901481863842641,-0.01025881664282384,-0.019977880963955953,-0.6241784336790558
0.256,0.00036532017626873207,-0.0502217572339944,-0.05058724887941,0.02429153833407158,0.02480259602096435,-0.05040468669715743,0.04879004167310079,0.06914654491291258,0.04901261007680405,-0.008322917335022582,-0.019826345402323642,-0.6249243641111475
0.258,0.0015660795423810003,-0.04876560198199846,-0.0503319230074214,0.023120090879228533,0.02531225789911506,-0.04954878547232858,0.047500379105129574,0.06946631405657093,0.048997936360812254,-0.010435265402665829,-0.019929180537719297,-0.626692035400586
0.26,0.00474313671970143,-0.04413108203456211,-0.04887424052507073,0.019687293040865136,0.026327733110710384,-0.046502572038302645,0.04420383510328777,0.06816722552078683,0.048992132675460195,-0.015212046848889086,-0.02006092799697016,-0.6296231908189902
0.262,0.008984130049907647,-0.03925744143598243,-0.04824145010188809,0.015615678300634877,0.028193671528338213,-0.043749390602875166,0.03995428436157628,0.06730543848071235,0.04899736831272366,-0.019797047230872538,-0.020067738771813337,-0.63310099085483
0.264,0.011380275977122718,-0.03710268971252878,-0.0484828958291657,0.013549706284154996,0.029482166956542603,-0.042792815121689746,0.037399852353568554,0.06757361353942844,0.04878364013878263,-0.02173632575668019,-0.020196560028843773,-0.6354732530692553
0.266,0.009830950834982463,-0.03790306489411942,-0.047734048601987863,0.014642560994795842,0.02840581242187718,-0.04281859752944571,0.03766987624041193,0.06817079062780526,0.04747033263694326,-0.02099036157374249,-0.02134190425088591,-0.6366626590703899
0.268,0.005075800968352697,-0.03940592489161062,-0.04448177968635041,0.01762361814578508,0.024729660862730103,-0.04194385957103134,0.03913365805665926,0.06831309850308716,0.044192977284152744,-0.019631011196684395,-0.024308698306204864,-0.6387560894669051
0.27,0.0001953853849292822,-0.039764355115194196,-0.03995974827105389,0.020209383333174537,0.02048292882691264,-0.039862032916073896,0.0397613408000609,0.06805653598587785,0.039965495236078986,-0.019311435745572612,-0.02814162629006373,-0.6424174076648217
0.272,-0.001896781014408867,-0.0393672288297632,-0.03747042215286188,0.02109638380610667,0.01844093614528934,-0.03841881254837998,0.03929473061015329,0.06807575340607876,0.03719173640417363,-0.01986820984960934,-0.030444647195074535,-0.6453182894106364
0.274,-0.0010628175100556008,-0.04019125124301704,-0.039128417234371514,0.02100770753014398,0.01951978162354707,-0.03965983830351483,0.03873045232895173,0.0694331407610459,0.03613659238622737,-0.020307605164094238,-0.0301990045082647,-0.6455337369668307
0.276,0.0004219319385848749,-0.04356431777545049,-0.04398625583802561,0.021614063526979147,0.022204752157003085,-0.04377529581157907,0.03871169387179039,0.07283763818878329,0.0343204090072594,-0.020217576728495723,-0.028878148442464557,-0.6441162585573045
0.278,0.0007533820827935045,-0.04810302441298727,-0.04885641842459914,0.023264295589815284,0.024319012668593078,-0.04847972350173116,0.03900916651071424,0.07710179486918448,0.030725835603608326,-0.01993629210659987,-0.028313015347604557,-0.6432471157208667
0.28,0.00013385591688408927,-0.05075379879241361,-0.05088765706515047,0.02463486568180898,0.024822264222865955,-0.050820724009555604,0.03916146919913087,0.07938490278279545,0.027511326630262754,-0.0200485365590518,-0.02873474416304411,-0.6437925396800622
0.282,-0.00034199039316944706,-0.050372185317134034,-0.05003018953941461,0.024720122029170052,0.024241345335829778,-0.050201184419529296,0.039072067569634654,0.07776894964670926,0.02602224081052496,-0.02134298890789959,-0.029243563980930906,-0.6457344269377503
0.284,-0.0002351277853646822,-0.04880259450367584,-0.04856746286071138,0.024038572804774047,0.023709398473073205,-0.04868502938386543,0.038946318028066654,0.0730436618918557,0.024512110804565744,-0.024389983037946723,-0.02925993842056245,-0.6491348187801139
0.286,7.408947580891243e-05,-0.048185267670562096,-0.048259358242244525,0.023636910623755305,0.023740632692476258,-0.04822231493350252,0.03893504120352582,0.06821386969944226,0.02163690431973054,-0.028179848587996142,-0.028991441309864308,-0.6530795467401448
0.288,0.00016345682642649384,-0.048933953782020825,-0.04909741323707867,0.02391373602252533,0.024142571559503282,-0.04901568407100195,0.03899827009981108,0.06612958708532007,0.018809382329404063,-0.03041854287883317,-0.02885427758827598,-0.6554317383269592
0.29,3.75876414345566e-05,-0.05083567440691169,-0.05087326270588082,0.02486878703603805,0.024921409558767118,-0.05085446774562745,0.039034622586802126,0.0669396899680799,0.017074811045844043,-0.03016567755770644,-0.028935116598128183,-0.6552312770180941
0.292,-7.123561990922518e-05,-0.054106017500146326,-0.054034780759806215,0.026558756806506843,0.026459029048729103,-0.054070398436311125,0.03901748114184691,0.06840873995193972,0.014965557144681028,-0.02887647595744078,-0.02904852134653871,-0.6539110205998887
0.294,-5.4526772199582705e-05,-0.05801054690548218,-0.05795601923927149,0.028534758898906148,0.02845842252137777,-0.05798328318349981,0.038989455490701534,0.06874571248147812,0.01159268301798019,-0.02833040387479735,-0.029058574391940678,-0.6533139316329712
0.296,1.2832406918623087e-05,-0.060414500018398876,-0.06042733260973408,0.029718171340270355,0.02973613608554471,-0.06042091674569415,0.038985423532168995,0.06793993508601212,0.008618793560904368,-0.028963358760518622,-0.02922089308690471,-0.6539362351418936
0.298,3.588531755050137e-05,-0.060260697319035335,-0.060296583212556,0.029619469065730042,0.029669707609813967,-0.06027864041132228,0.03899879189101464,0.06628458548264786,0.0070028888912794275,-0.030771031699579218,-0.030501304024975077,-0.6557665504835773
0.3,1.0137296099861489e-05,-0.058934480204584104,-0.058944617675158434,0.02895608487528363,0.028970277000457654,-0.05893954877383347,0.03900737766392984,0.06343967856741933,0.0050246587867144865,-0.034059222765948464,-0.03379100143896285,-0.6590717562351424
0.302,-1.4741432117962374e-05,-0.05830908178263951,-0.05829434011953976,0.02865515100549599,0.028634513449261476,-0.058301710792363626,0.03900418326786631,0.05994178534436604,0.0016573466872492407,-0.03802345020326009,-0.038042330755937326,-0.6630319045997267
0.304,-1.257343898243754e-05,-0.05889917654322209,-0.058886602898695316,0.028966937403389424,0.028949334851921332,-0.05889288973575318,0.03899797199342703,0.0575128680561547,-0.0013821468921389223,-0.040446175823157134,-0.040601348665067066,-0.6654433987259014
0.306,2.0390061354928573e-06,-0.0606087201449388,-0.06061075917894721,0.029883701847532754,0.029886556336914137,-0.06060973975563015,0.038996748405976195,0.056307368595681674,-0.0030323276809697507,-0.04026878010350511,-0.04033254464394245,-0.6652628454811278
0.308,7.835564331335248e-06,-0.06359714732418298,-0.06360498301399828,0.03153672587775816,0.03154769546729781,-0.06360106520576704,0.0389995535911557,0.05423716870043369,-0.004991521960064093,-0.03892105596698431,-0.03886684286680279,-0.6639197355767982
0.31,2.6299596921234687e-06,-0.06713401882578589,-0.06713664883020512,0.033516124417273474,0.03351980633011585,-0.06713533379438691,0.03900156124141311,0.05059572874397249,-0.0083311868955296,-0.03829825982996925,-0.038237577335151596,-0.6633008666421967
0.312,-3.0198385698495066e-06,-0.06928384470364515,-0.06928082481795989,0.03472131893662645,0.0347170912573827,-0.06928233472473404,0.03900098935013563,0.04769166438519814,-0.011148468194768339,-0.0389232731747602,-0.038923875473109784,-0.6639032990317719
0.314,-2.877670819815225e-06,-0.0691264045867509,-0.06912352686901757,0.03463114710222351,0.03462711842510371,-0.06912496572899694,0.038999620561969685,0.04746384864011248,-0.011499214805033237,-0.0407689115648985,-0.040802314524906534,-0.6656151724653403
0.316,2.734632072707156e-07,-0.06793121229604186,-0.06793148576255266,0.03395994373639806,0.033960326562806696,-0.06793134904951216,0.038999278848174855,0.04887715617480565,-0.010192303504731704,-0.04407995761383822,-0.044095583514808835,-0.6685979795675194
0.318,1.7010331242479272e-06,-0.06737796941372783,-0.06737967047403182,0.03365062002011182,0.033653001422088324,-0.06737881995292834,0.03899986260656821,0.049751056387474187,-0.009302288999209634,-0.04803453351796329,-0.04802376843345916,-0.6721308951689916
0.32,-0.00021873293553391603,-0.0677368091253572,-0.06754001582169149,0.03396266705718951,0.03363450131759734,-0.06762744265647047,0.03878093171585212,0.04921018095422391,-0.00977741594873532,-0.05065957496686682,-0.05064590558502574,-0.6745012947063435
0.322,-0.0015331653400679566,-0.0682091040196146,-0.0668291940561894,0.034884134838634666,0.03258444799625939,-0.06744252133669147,0.037467677751306265,0.04726787010941804,-0.011697099980213111,-0.051792426650826374,-0.05179177218624309,-0.6756597334867368
0.324,-0.004807398499188434,-0.06824235210634179,-0.06391562804259995,0.0365392631825802,0.02932823085211525,-0.06583865285120209,0.034193187214990775,0.043864793701747715,-0.015125242091132548,-0.05372681732827721,-0.0537339644246668,-0.6777393890467692
0.326,-0.009032775330958472,-0.06800184683455715,-0.059872351166159056,0.0385171000894642,0.02496793495974363,-0.06348545917346299,0.02996704434359519,0.03991901460771294,-0.019095341526345115,-0.05733544664231151,-0.05733921764200977,-0.6814110272217883
0.328,-0.011587836243293455,-0.06797854316790557,-0.05752758764360457,0.039830098404123875,0.022338609216467378,-0.062184625051379665,0.02763115419239697,0.03734838976477247,-0.021444508722724263,-0.060294713554201684,-0.06029261445197435,-0.6845437517920611
0.33,-0.011331305012673426,-0.06881237129347084,-0.05846095777109389,0.040396452792314824,0.02274290007111599,-0.06314671878718706,0.029201153437932614,0.03623672700553887,-0.021228757314391965,-0.06056668846110247,-0.06056362789227091,-0.6860726703228412
0.332,-0.009873624798761041,-0.07132053003135497,-0.06195358105164024,0.04147305147319049,0.02491583308886292,-0.06638371762920516,0.033933295527460015,0.03428276101705827,-0.019902847998969374,-0.059144735291829086,-0.05914441892562681,-0.6879227397596807
0.334,-0.00924149325141985,-0.07585011632194136,-0.06662947796246176,0.04393384315761982,0.02730201314306209,-0.07122936969487981,0.03879143944399894,0.03065321857513968,-0.019311403024691254,-0.05824275748362903,-0.05824427659362385,-0.6912763051591516
0.336,-0.009702648662833543,-0.08126424675896297,-0.07137304223914115,0.04694098604276607,0.029472214780613966,-0.07641292242841187,0.04066612748959825,0.027497188651992004,-0.019917547696072107,-0.058753002369012534,-0.05855644404137637,-0.6943791636948348
0.338,-0.01026674926012107,-0.08481905076035617,-0.0744458374272748,0.04853352991394412,0.031148739366953185,-0.07968567613144674,0.038532076561166737,0.026055115918643394,-0.02161622843239091,-0.060575149981114775,-0.05919545154963823,-0.6960671098290037
0.34,-0.010288399645800944,-0.0840909597880076,-0.07384405381369903,0.04746315228055169,0.031481828514467916,-0.07894675996518456,0.033778332932257675,0.0245355286365257,-0.024590708122298067,-0.06366087036048672,-0.0593341191040922,-0.6980097632705545
0.342,-0.009992405316556267,-0.07999244569931738,-0.07007514395836727,0.0447707060715794,0.030226546348252455,-0.07499624304044807,0.029216179982906928,0.021630149137073132,-0.028126845664399578,-0.06718276474707417,-0.059053140652059403,-0.7013209184081279
0.344,-0.009839230556945248,-0.0764984296596302,-0.06667285436674439,0.04292038826743287,0.0286598791795166,-0.07157881438083298,0.027275242227567848,0.019012772267108853,-0.030283932432672418,-0.06927235083893751,-0.059040745017599296,-0.7041336087283611
0.346,-0.00992740888940092,-0.07621214020705099,-0.06625078913316766,0.04305285255193542,0.028195726430097514,-0.07124843576251812,0.02800794550412568,0.018603405922700024,-0.030130361052557827,-0.06909431337560167,-0.06027550158715696,-0.7044977208888422
0.348,-0.010053050026884197,-0.07787018633841006,-0.06779359905441736,0.04408198438669572,0.028760952375495533,-0.07284366132522513,0.02936186724775442,0.019779145576624864,-0.028933054244958366,-0.06792215679919308,-0.0633620005251371,-0.7031996990904068
0.35,-0.010064942653415714,-0.07888017352370429,-0.06882248795388504,0.04453937773319276,0.02930790021479154,-0.0738477021970278,0.029686086478322767,0.020630909206487746,-0.028376690093725423,-0.06739115704004026,-0.06720331222435684,-0.702306636799139
0.352,-0.010002067056527675,-0.0787116832482761,-0.06872590269436074,0.044324078172654,0.02938676431371503,-0.07371064971988688,0.029134493028943897,0.02020585544048913,-0.028844890961015786,-0.06796744622538246,-0.06944502103707206,-0.7027535171306848
0.354,-0.00996554726717588,-0.0792921383554559,-0.06933040446051708,0.04457704191182148,0.029732646408413846,-0.07430936472179095,0.028695038059128708,0.018330849365178516,-0.030085005190469766,-0.06973983032601112,-0.06916552027100495,-0.704540536078119
0.356,-0.0099824159956414,-0.0824247974063779,-0.07243531622848479,0.046196750521450725,0.031236888258306842,-0.07743358940858887,0.028782210795754465,0.01489710863898475,-0.03252254612474586,-0.07304208920483121,-0.06786195107128758,-0.7076440564963816
0.358,-0.010010402683252751,-0.08698147573168777,-0.07696561845566628,0.04852088640175274,0.03345523497551855,-0.08197627439011856,0.029062163934745932,0.010900103912715078,-0.036798037176321664,-0.077032293700267,-0.06732355183220523,-0.7111936232456388
0.36,-0.010014564858414239,-0.0897718976707218,-0.07975858327884353,0.04990887409549043,0.03485564111571876,-0.08476461524152472,0.029148298500886516,0.008321746709633562,-0.04256814076464147,-0.07945975011143167,-0.0677486162142531,-0.7132867131360969
0.362,-0.010001279961471925,-0.08944714885889674,-0.07944944281980747,0.049718072925626175,0.034728471675229314,-0.08444650887813437,0.029036855266575304,0.007234326450066145,-0.048848194736271645,-0.0792704377987139,-0.06824444000121896,-0.7130952478336606
0.364,-0.009992662992282752,-0.0878285172259505,-0.07783687887066232,0.048899122200238676,0.03393313518155632,-0.08283218572979105,0.02893668681401742,0.005296152854667246,-0.054760876257833095,-0.07791443996281298,-0.06825278654945573,-0.7119147653025302
0.366,-0.0099957969401905,-0.08715673973718646,-0.07715948183642363,0.04857414285899347,0.03358471313830344,-0.08215884126709701,0.02894965708845165,0.0016609241161660024,-0.059104607550630454,-0.07729419502283795,-0.06798754712156266,-0.7113871165025994
0.368,-0.010001996365813712,-0.0879061813135855,-0.07790292794821016,0.04895933183934071,0.033945819225131686,-0.0829051831306913,0.02901050738980311,-0.0013089826567298179,-0.06044688781982584,-0.07770554590229511,-0.06785632045467478,-0.7119695499566702
0.37,-0.010003247281588992,-0.08983797743716622,-0.07983492702659115,0.049924276518656656,0.034912053922521925,-0.08483635379637461,0.029032491531526705,-0.0015715235136716072,-0.05831302580271465,-0.07823937313825577,-0.06793821753256027,-0.7137430401989848
0.372,-0.01000046161608929,-0.09312227366306791,-0.08312259205777744,0.05156025658558568,0.0365617926129945,-0.08812204285501772,0.029009785054146066,-0.000139257736330643,-0.05380102504203844,-0.07827374271328696,-0.0680488876827565,-0.7170424743606741
0.374,-0.009998448375796287,-0.09701705488884128,-0.08701887165164146,0.05350522131856151,0.03851262515788529,-0.0920178307009389,0.028986942386049534,0.0007624975067869674,-0.04934166533821638,-0.07800034424726719,-0.06805705712190724,-0.7210307259692152
0.376,-0.01021840315150684,-0.09918934099873965,-0.08897063882174724,0.054703269791929646,0.03937687370447426,-0.0940801394229872,0.02898842307145729,0.0002245788471858402,-0.04753945082561504,-0.07807041743112798,-0.06800057223052304,-0.7234587910886804
0.378,-0.011532926281221729,-0.09772183926349098,-0.08618862545898584,0.054628475941463,0.037326893518044336,-0.09195537612288288,0.029001596095265793,-0.0017315020153735729,-0.04949309867638366,-0.07946126213639576,-0.06796913651001371,-0.7232708352643114
0.38,-0.014807464282422128,-0.09312786941824686,-0.07832043098414475,0.05396851768754879,0.03175561418373619,-0.0857241372770366,0.0290070801868566,-0.005142762445212348,-0.05412175836307395,-0.08285398069926914,-0.06798494612113443,-0.721915153175231
0.382,-0.019032937212620213,-0.08827978935473715,-0.06924702139685561,0.05365617312201897,0.025107148680683276,-0.07876332074842594,0.02900251085682379,-0.009084936107129984,-0.058722498168525594,-0.08709425319076963,-0.06800965246554178,-0.7212943187859105
0.384,-0.021587877667397472,-0.0863345136726447,-0.06474670274455094,0.05396064051663205,0.021579937775937773,-0.07554057483894504,0.028997335498476804,-0.011429977292905711,-0.06075000480306223,-0.08959177796959986,-0.06823222197516073,-0.7219246120085565
0.386,-0.021331236456497267,-0.08842935912446194,-0.06709806218005404,0.054880136394476496,0.02288360557603418,-0.07776374089621349,0.028997357054828893,-0.011227494813326785,-0.060037565848131365,-0.08929963854364578,-0.06953341255200389,-0.7237717017850763
0.388,-0.01987356944647689,-0.0932028972906509,-0.07332926253064044,0.05653845923715248,0.0267276519586802,-0.08326611256741306,0.029000191665322535,-0.009910175103969177,-0.05864608713092561,-0.08785634861551539,-0.07280015529357878,-0.7270805597429154
0.39,-0.019241504224840875,-0.09779590009631083,-0.078554397683812,0.0585188981253498,0.029656248617129836,-0.08817514798389059,0.029001533866714915,-0.00931559182586944,-0.05829287577689585,-0.0872505224377283,-0.07702918067149746,-0.7310332984395276
0.392,-0.0197026841113725,-0.09993822753707061,-0.08025751955517854,0.059809456355631306,0.03027742928129035,-0.09010882510207262,0.02880317147633409,-0.009718093337502707,-0.05904857452312318,-0.08771638947871088,-0.07959007202431909,-0.7336586564298723
0.394,-0.020266760203833202,-0.10037240933544797,-0.08025892096731158,0.06024283596762343,0.02999619401766787,-0.09039228461966652,0.027620164455013384,-0.010233689785001537,-0.06068886851120202,-0.08826838516305244,-0.07933433463380647,-0.73479266191835
0.396,-0.020288385528023076,-0.10195596857502483,-0.08214824542659616,0.06088179816541147,0.03092997791980321,-0.09229245025709518,0.024673330702955874,-0.010264180654911737,-0.0635539127503982,-0.0882816823544485,-0.07787385179384047,-0.7367274309719896
0.398,-0.019992392600893416,-0.10543892090183266,-0.08634979322287473,0.062264063111545496,0.033178661210561115,-0.0963460042638461,0.020870489879299445,-0.009998878435374718,-0.067069640368338,-0.08798830402167329,-0.07723994834176227,-0.740335611361187
0.4,-0.019839232187648742,-0.1081875314404677,-0.08950711913072969,0.06348886549892303,0.03477904956468308,-0.09942673568047244,0.01876840389190856,-0.010074935515099491,-0.06927669060265117,-0.088060333544477,-0.07792118305973161,-0.7432944573532774
0.402,-0.019927416607547918,-0.10765282688090036,-0.08883662535283177,0.06356280372257071,0.034126314871770855,-0.09880032583012933,0.020181130652693346,-0.01146422014609858,-0.06915811957290308,-0.08946301617511307,-0.07979973456704553,-0.7435664761945772
0.404,-0.02005305282358103,-0.10397828225479876,-0.08475932829925419,0.06247199053262561,0.03147976547306557,-0.09478585072388564,0.024439810931933627,-0.014852927982404769,-0.06795026472295268,-0.0928603215403379,-0.0830958204984614,-0.742144773716528
0.406,-0.020064939777298542,-0.09893822967808534,-0.07931674764489585,0.06066464665853319,0.028241113199214476,-0.08934921990015023,0.028812170931313982,-0.019092136100791517,-0.06736976218233884,-0.09709632470230137,-0.08702528957304129,-0.7412428916761618
0.408,-0.020002064156513913,-0.094313296848804,-0.07440015382116931,0.05862547599971574,0.025686788714680782,-0.08440118920573214,0.030916392643543456,-0.021371945016833305,-0.06752503499640422,-0.09936991088417245,-0.0892077104233409,-0.7415555889112659
0.41,-0.019965547451534664,-0.0922382190070889,-0.07229378911957834,0.05741195327920311,0.024843491938018655,-0.08227656313310687,0.03149080121526646,-0.019768031413923488,-0.0668274456050831,-0.09776477398305095,-0.08772611962250479,-0.7421957988744126
0.412,-0.01998241766630638,-0.09514928213701415,-0.07554323764781969,0.05852542077422293,0.02663265252966312,-0.08551250519340672,0.03343333861136377,-0.01505029470798366,-0.06392296827680204,-0.09304984885428969,-0.0831198893227204,-0.74233475166987
0.414,-0.02001040338064497,-0.10293897740261103,-0.08384374250341298,0.062179680492784245,0.030754095254497033,-0.09369568785437005,0.037356843628876715,-0.010217539005671357,-0.05987681143283106,-0.08821910369755909,-0.07827364173344008,-0.7420532532568953
0.416,-0.020014564279806128,-0.11127449415745401,-0.0924785349418944,0.06629830554648732,0.03496890648776437,-0.1020270827107432,0.04035557761818146,-0.008237418163358575,-0.05752571237311185,-0.08623840885867139,-0.07622623405393184,-0.7419526951151891
0.418,-0.020001279304513807,-0.11452136587686707,-0.09565376922623484,0.0679981080900711,0.036522618123419885,-0.10490438533938418,0.03976097027817079,-0.009812770779864706,-0.05845762796748239,-0.08781239010136023,-0.07777681274377607,-0.7427719774969838
0.42,-0.01999266299424351,-0.11018141137601375,-0.09100146703944591,0.06594916460832612,0.03423591525614077,-0.10031965275301223,0.03580600574877159,-0.013665784035593815,-0.06195301393397293,-0.0916650615571557,-0.08167665211145074,-0.7452934013477535
0.422,-0.01999579729964443,-0.10096199080480588,-0.08138730524678903,0.06149794926094695,0.029466142893214482,-0.09115533633283099,0.030402234721756224,-0.018389608460755137,-0.06663102422752472,-0.09638947111061599,-0.08655719871484388,-0.7497164251364709
0.424,-0.020001996536438568,-0.09257077454926778,-0.07263673116404767,0.05748259639796499,0.025087179890562895,-0.08280919927382684,0.02542662510719509,-0.022940279667488458,-0.07137409030937068,-0.10094060833486779,-0.0914119035758661,-0.7550151449634062
0.426,-0.020003247166926377,-0.08903354635630445,-0.06891079581608522,0.0558298107880948,0.023202111988767746,-0.07912143180124322,0.02271286725362929,-0.025760560733642877,-0.07444549421012106,-0.10376079267835883,-0.09450891864424013,-0.7594434644939473
0.428,-0.02000046146820618,-0.09067704007012317,-0.07059971600650929,0.056638786044541506,0.02403802328931768,-0.0806170326941009,0.02366838896114518,-0.025193201226651384,-0.07384331791802415,-0.10319313265470013,-0.09386351728924569,-0.7617299173717308
0.43,-0.019998448367733276,-0.09555938881627765,-0.07572181761156346,0.05895311485441883,0.02660704977476552,-0.08561849358453424,0.027312552974318647,-0.02182578355526154,-0.07007497975588842,-0.0998256242239023,-0.0900528201895878,-0.7618904650198272
0.432,-0.019999007021474127,-0.10141314546342936,-0.08194955964132432,0.061629397940170236,0.029784244012160076,-0.09186854399648019,0.030315994310767775,-0.018819690635549023,-0.06667317753007442,-0.09681965195147736,-0.08665114144952965,-0.7613227934044693
0.434,-0.020000372460977175,-0.10708973496281202,-0.08801504002065648,0.06399942901022868,0.03309011972368269,-0.09788941547902318,0.030538751744288405,-0.018458152473600754,-0.06625103310279604,-0.09645822094680692,-0.08625208004136317,-0.7621548833046552
0.436,-0.020000719799299564,-0.11248556726317696,-0.09362500381132913,0.06604976854158158,0.03643543882290161,-0.10318961347640446,0.029104501686190484,-0.01982321360862707,-0.06779353922991094,-0.09782326742598069,-0.08780593807566436,-0.7655792873626388
0.438,-0.020000140554932072,-0.1168416933409827,-0.09795368906666163,0.06773254792107478,0.03910907514203192,-0.10705697723541026,0.028240429248819515,-0.0207268474004456,-0.06882232623850949,-0.09872683573913635,-0.08882770064786374,-0.7701256537315425
0.44,-0.01999967432547369,-0.11846390347054704,-0.09945170660242393,0.06847694216016019,0.03998712414693247,-0.10829327612200738,0.028381559550554797,-0.020641870537656485,-0.0687258580978677,-0.09864183559819181,-0.088502287336889,-0.7729732231770416
0.442,-0.019999767735904367,-0.11646213032620281,-0.0973979994784337,0.06769169132101804,0.03877055513711361,-0.10640423724226676,0.02782974704408315,-0.021199151584613433,-0.06933047141064021,-0.09919914125945972,-0.08779299618081335,-0.7738920552949006
0.444,-0.02000006678612836,-0.11186311717951929,-0.09283873400200382,0.06554497909097723,0.03631810469581262,-0.10233719199815329,0.025002132464707595,-0.023998882402663686,-0.07243537254487668,-0.10199889653808526,-0.0876285542494005,-0.7756034830510986
0.446,-0.020000158652645338,-0.10729034066311645,-0.08831317741645456,0.06322113572252008,0.03406912561449849,-0.09830234307981277,0.02091325436644001,-0.02807147853966545,-0.07696560881921652,-0.10607149092619417,-0.08793546146307918,-0.7792223104422783
0.448,-0.02019749592064209,-0.10537146748581523,-0.0861761583918169,0.062325691632086344,0.0329360580829883,-0.09647639677324928,0.018609606341868794,-0.030382554293548643,-0.07975854794277923,-0.10838255249600408,-0.08795225388372309,-0.7823079987783503
0.45,-0.02137923068305628,-0.10683667876431323,-0.08630319003745615,0.06396002385533855,0.032110411874220215,-0.09714947089196924,0.02008200513192602,-0.028922581916681275,-0.07944943120020302,-0.10692257429845803,-0.0865845864736098,-0.7826347630114958
0.452,-0.024326016167762768,-0.11062622620372857,-0.08680591469602957,0.06807802041255562,0.03014486048421594,-0.09901129573031012,0.02447911705202984,-0.024527351184349462,-0.07783689260421695,-0.10252734852643074,-0.08315554040079254,-0.7811699946253201
0.454,-0.028129528237639593,-0.11550057572670516,-0.08746181451914846,0.07317463273464557,0.027809539042079764,-0.10142335315791169,0.02888503068882331,-0.020115555323354482,-0.0771594947374106,-0.09811555821122896,-0.07888527336679646,-0.7802176720978493
0.456,-0.03042941777580714,-0.12052208986872302,-0.08993844015050291,0.0770849087023689,0.027643062111588356,-0.1048178148541335,0.030600647081217965,-0.018374163352093437,-0.07790292661570716,-0.09648386428543101,-0.07650294564491364,-0.7807491758423963
0.458,-0.030198332318619184,-0.12419661927762358,-0.09387057945381388,0.0785803994252691,0.029950480256185973,-0.10841198914927534,0.029070827105331935,-0.01979598502066047,-0.07983491934974529,-0.09845256362362742,-0.07758035698733927,-0.782729788037154
0.46,-0.028886138421650456,-0.12440550734008873,-0.09553211255462467,0.07777567014727998,0.0316930928484423,-0.10938025332803301,0.02547727160651642,-0.023196188697392036,-0.08312258911807333,-0.10272358424222004,-0.08143309100766542,-0.786156266462162
0.462,-0.028317198627096883,-0.12027985706630889,-0.09203560041075869,0.0754199712753139,0.030239219199039116,-0.10581416991974717,0.021016098642603263,-0.027562737825834654,-0.08701887443691153,-0.10679978820716575,-0.08654784969212767,-0.7900923216928333
0.464,-0.028951778214197088,-0.11385614736276883,-0.08493265707096767,0.07265696855682634,0.026260097081068575,-0.0994340853676083,0.016535678831166786,-0.032208989233611526,-0.08940943417017913,-0.10853644021916835,-0.09175950660024007,-0.7924261355818942
0.466,-0.030772706633975223,-0.10907929411436888,-0.07828080864480828,0.07124700401264125,0.022085850771147875,-0.09411018515412044,0.013621037661556763,-0.03540394874074353,-0.08925373306346146,-0.10788836540082253,-0.09610775654920099,-0.7922216293143401
0.468,-0.034066342584998174,-0.10905246071362316,-0.07495849595945007,0.07284162131262066,0.01914392058566123,-0.09262349777752049,0.014231792878223078,-0.034913561639872734,-0.08793391824779428,-0.10668082307445595,-0.09863196931725232,-0.7909094699331519
0.47,-0.03802593696623856,-0.11385105206748938,-0.07582596723536615,0.07716519331715213,0.018054611242597232,-0.09529486447145477,0.01793218569536865,-0.031131193792709472,-0.0873126139186324,-0.10638807547275828,-0.09903116510663154,-0.79031845593788
0.472,-0.040224081977997254,-0.12038925206970594,-0.08018062671846152,0.08147313220447677,0.019317683953145648,-0.10029064349106794,0.021292496969071387,-0.02788108880500546,-0.08770371377159339,-0.10709745587681797,-0.09823423521607877,-0.7909173028086641
0.474,-0.03873358061762597,-0.12436186278104149,-0.0856351944071411,0.0824684484292088,0.02268272616310605,-0.10453173945508831,0.021728774338911745,-0.028747424427177447,-0.08822844645572028,-0.10880356077364342,-0.09761082308496567,-0.7926122625213139
0.476,-0.03411451997518,-0.12327330826306451,-0.08915365612423085,0.07908569913206628,0.026711766407728967,-0.10553135291250669,0.020215160595904454,-0.03358927857564863,-0.08826952342269612,-0.11200159191360429,-0.09769525631228507,-0.7955889474267708
0.478,-0.02926700656063354,-0.11878857465710248,-0.08951534568212824,0.07390077543176764,0.02951636255988031,-0.10354182406305931,0.01919269801876871,-0.038869601051950045,-0.08800429183923944,-0.11597818121821332,-0.0980617162644079,-0.7991281689499751
0.48,-0.027335693261084114,-0.11530454037677726,-0.08796867593866835,0.07105330298473143,0.02994234486333844,-0.10119478151038856,0.019276568297794654,-0.041107586521437846,-0.0878552093722563,-0.11845600557209773,-0.09819280003086503,-0.8015049215658409
0.482,-0.029436898364770273,-0.11523115434051309,-0.08579756986400876,0.07225697727797577,0.027950038805048934,-0.10024221278805512,0.01866250730672196,-0.04012765709439667,-0.08792855446835662,-0.11829817906402552,-0.09805802938304638,-0.8026629536349591
0.484,-0.0342058546609078,-0.11698481689143735,-0.0827806384854837,0.0756969989959514,0.024271153643044226,-0.0998796850245598,0.01555995643948999,-0.038494253343005,-0.08804487720146825,-0.11692973369959286,-0.09792275709771676,-0.8047389479040548
0.486,-0.038793198348327694,-0.11792441157590076,-0.07913020542193361,0.07844945758384153,0.020510087824477052,-0.09889817839830689,0.01103599167292598,-0.03817133874144955,-0.08806041369696477,-0.11628636099725537,-0.0979315751980505,-0.8084090591978434
0.488,-0.040737866545546314,-0.1175605445352013,-0.0768212818384753,0.07919283324780035,0.01861410693516337,-0.0978035546439172,0.008464160914713373,-0.03887594174320734,-0.0880043638814609,-0.1166934578243753,-0.09800948504717678,-0.8113236562910024
0.49,-0.039993197966619626,-0.1175916365595763,-0.07759832170030412,0.07906620606970732,0.019103871481868165,-0.09808095611327265,0.010083831226155845,-0.039387739077024,-0.08796911591389323,-0.11723787444381736,-0.0980418588385959,-0.8115408564368446
0.492,-0.0386315251692389,-0.1198990417655139,-0.08126822267465224,0.08011876236176117,0.02080504718008161,-0.10060641802888622,0.014968382525373013,-0.0392516265576748,-0.08798286714577128,-0.11727962360484193,-0.09801481142464652,-0.8101167303727611
0.494,-0.03831013336105772,-0.12476917912313057,-0.08645944681464929,0.08294464090961579,0.022635717286947757,-0.10513953628559866,0.01987221341788111,-0.03890882452016479,-0.08800867068349022,-0.11700397115410315,-0.09798423081610513,-0.8092434558243029
0.496,-0.039086703479378045,-0.13056507296377082,-0.09147817572551553,0.08635863139632795,0.0242593800365413,-0.11032636475589756,0.02168555867247324,-0.039038775041660714,-0.08823288756419255,-0.11684954429287427,-0.0979843854680576,-0.8097905340322765
0.498,-0.04084043864676092,-0.13461102191130214,-0.09377027185092748,0.08904512541677044,0.024657879939471314,-0.11357859795871082,0.01949727806413742,-0.040496092122850456,-0.08953426625255545,-0.11692602352392527,-0.09800114755351892,-0.8117354662214797
0.5,-0.044024947309157104,-0.1345787298726111,-0.09055373955400091,0.09043782870458689,0.021996522232678468,-0.11213065900231894,0.014751107739327415,-0.04388788487543152,-0.0928001998398115,-0.11704675985022968,-0.09800906937002415,-0.8151364097277389
0.502,-0.04796923520446763,-0.13013669287683977,-0.08216760707437705,0.0902105915823322,0.01635756319892983,-0.10588403000690363,0.010222166228878008,-0.04809144000627977,-0.0970287360650995,-0.11706269414839378,-0.0980037057498459,-0.8190797395025096
0.504,-0.05021961537972139,-0.12380318044417268,-0.07358365989829418,0.0882236865183548,0.01117130451434111,-0.09866695125094752,0.008292958988943187,-0.050352535751388795,-0.09958983534615448,-0.11700442574453213,-0.09799682068868418,-0.821430962183606
0.506,-0.04876239558384107,-0.11973635855396503,-0.07097392673580372,0.08522935266311955,0.010630043507382985,-0.09556984819586936,0.00901314114072536,-0.04875914038558559,-0.09933446421544839,-0.11696790096754596,-0.09799645907196579,-0.8212308010945983
0.508,-0.04413071934307415,-0.1206688467427269,-0.07653805833911731,0.08279487353189241,0.01579210275590392,-0.09875678099878815,0.010354680512496987,-0.04405663996078734,-0.09787404284991388,-0.11698225306073577,-0.09800004368467556,-0.8199112168322833
0.51,-0.03925901800094675,-0.12513033222213268,-0.08587130100800489,0.0820369527855841,0.022960492532779812,-0.10523808064230863,0.010679818321017411,-0.03922542188635098,-0.09723996888487872,-0.11700904038739617,-0.0980019532338119,-0.8193142850868596
0.512,-0.03710364069551778,-0.12868830771827322,-0.09158469839936084,0.08261270410261289,0.026836283611359518,-0.10948208485904738,0.010135420983871303,-0.03734741880879851,-0.09770169240160995,-0.11701400306866581,-0.09800090913172707,-0.8197169006753529
0.514,-0.037902658767419675,-0.12880967120079825,-0.09090703463130487,0.08328801216134837,0.025977570088129696,-0.10915344329595103,0.009698901981085053,-0.03946519224567309,-0.09826712437975077,-0.11700175505653293,-0.09799936832580168,-0.8202338332247661
0.516,-0.03940521192966186,-0.12703858015255648,-0.0876333617028949,0.08333678688260203,0.023546645001959046,-0.10681154047533488,0.00978355000981906,-0.04421296996488052,-0.09828910067753066,-0.11699319650547285,-0.09799920214339491,-0.8202649000336029
0.518,-0.039764236198325136,-0.12606448409549476,-0.08630023266893472,0.08300647543718688,0.022746365234042214,-0.10577916064595753,0.010060694984378771,-0.04878115628200744,-0.09799253545618038,-0.1169957925048607,-0.0979999636193219,-0.8199991437714398
0.52,-0.0393675611085118,-0.12631168564594855,-0.08694412082171357,0.08282188212370764,0.023336153285774455,-0.10620968611875385,0.009927469802496307,-0.05072823163969107,-0.098036366735594,-0.11700170309667009,-0.09819787461774714,-0.8200746696722915
0.522,-0.04019147485325547,-0.12574921276073656,-0.08555774444305102,0.08291193083155125,0.022360773871713695,-0.1052830286303271,0.008504418809284778,-0.04999516746768566,-0.09930648330019737,-0.11700310962064552,-0.0993795180037693,-0.821463948364916
0.524,-0.043564243251687854,-0.12258219475857639,-0.07901795665639147,0.08305499053320843,0.017705161821859616,-0.10073692231377171,0.005130780175826455,-0.048637723907638486,-0.10237918787004949,-0.11700055590549197,-0.10232594674403302,-0.8248529432414534
0.526,-0.04810286678703563,-0.11799929725542736,-0.06989642936146348,0.08307420622020313,0.011285645358680225,-0.09434312849444106,0.0009171965836943267,-0.04831201941374377,-0.10619461429130789,-0.11699856853836604,-0.10612933827945142,-0.8290922917066826
0.528,-0.050753764170980264,-0.11554419761268572,-0.06479043010277208,0.08322480807706677,0.007616701802946896,-0.09082425862342401,-0.0014682945151405725,-0.04886482535738752,-0.10843148692704586,-0.11699901288492177,-0.10842936492751981,-0.8315914072223967
0.53,-0.05037225480019809,-0.11796566391664935,-0.06759340812567037,0.08449465046292422,0.008920618622161314,-0.09327337806925075,-0.0004233273055909098,-0.049305670023715206,-0.10816380232948254,-0.11700030968176481,-0.10819841073999477,-0.8313005318820974
0.532,-0.048802646586316424,-0.1252667146086057,-0.07646406937117185,0.08789539017579846,0.013450197784609886,-0.10086778290590039,0.003415636246374211,-0.04921849939586948,-0.10686851637231277,-0.11700068661268906,-0.10688620472053742,-0.829856977648277
0.534,-0.048185254629555876,-0.13465189081572626,-0.08648857699185128,0.0928097035544753,0.018168867639439285,-0.11009239998231052,0.008541522979782619,-0.04893778887435615,-0.10632762529855481,-0.11700015896326911,-0.10631718749870361,-0.8292503353826022
0.536,-0.048714522923326016,-0.14191713798448746,-0.09333393065650894,0.09689844331803243,0.02113329624949228,-0.11700036153227561,0.013546613894171843,-0.048851291390027946,-0.10696637529272417,-0.1171093993324532,-0.10695173671781852,-0.8298037153358455
0.538,-0.0493031111107369,-0.14366667722913515,-0.09469098445041797,0.0979740034659778,0.021571198635415022,-0.1187402606031468,0.016581761751398513,-0.04896297459603564,-0.108773988894615,-0.11787574557476765,-0.10877269288605561,-0.830991000245688
0.54,-0.04929928744304109,-0.1389630099966178,-0.0900863275150844,0.09548992330823977,0.01935303736694839,-0.11430264467085766,0.015824808710784916,-0.04906345572513648,-0.11205898909222263,-0.12027940070846861,-0.11206635866378005,-0.8330805413206448
0.542,-0.04897776230968614,-0.13019227343415468,-0.08147005207134413,0.09087262258154975,0.015328512116966113,-0.10568655617178348,0.011994590273479357,-0.04905050384399562,-0.11602172477755279,-0.12479589632589971,-0.11602595214890575,-0.8368809159141515
0.544,-0.04882629456528144,-0.12202416230847378,-0.07317219455374047,0.08667431760673112,0.011419493184717713,-0.09757755176676951,0.008644454298794707,-0.048989491693408826,-0.11844547918652495,-0.1302607957760562,-0.11822408045550456,-0.8421622342882685
0.546,-0.04892922100756497,-0.11819592756045613,-0.06912090992515647,0.084794247355851,0.00943008969177764,-0.0939323074272457,0.00828066266649288,-0.048967420205976414,-0.118269388956735,-0.1338469909146018,-0.1167335716048646,-0.8471768271395842
0.548,-0.04906097507054434,-0.11953233287982044,-0.07040814194128232,0.0855346132373687,0.009973285613207417,-0.0954215222012474,0.00982323948837649,-0.04899017328716365,-0.11692172695949098,-0.1331061883239918,-0.1121145165010513,-0.8499791845628758
0.55,-0.04906773917139238,-0.12453741833255792,-0.07551580901745408,0.08805525537063494,0.01245499285510171,-0.1002101546618589,0.010820366438109852,-0.049013085882380646,-0.11629824806733982,-0.12898447199211202,-0.10726700981967342,-0.8501566921131197
0.552,-0.04899907794436146,-0.13045959241904048,-0.08151693285279517,0.0909322934179741,0.015527656279915583,-0.10561671345470697,0.010489342366353838,-0.04901161316521189,-0.11670350517314383,-0.1254863104438324,-0.1051163005068085,-0.849105353751587
0.554,-0.048962593378230154,-0.13402571916496347,-0.08506528698650914,0.09241832796714552,0.017622388955459208,-0.10881524870407716,0.009790815428978087,-0.04899840578661075,-0.11723618653315789,-0.1252107028669942,-0.10590434437403799,-0.8484813318849161
0.556,-0.048982636284782166,-0.13307548443689907,-0.08406324234603707,0.09140265172828363,0.017679801264158055,-0.10788445498096152,0.009634576979711675,-0.04899290093683547,-0.11727333428972093,-0.12687611352883518,-0.10739910825412162,-0.8487038548721816
0.558,-0.04901211991153871,-0.12887728947552576,-0.07984985113877625,0.08880712099056101,0.01606531237982129,-0.10388996603241808,0.009939528334315505,-0.048997479099833735,-0.11700188816655764,-0.12788378906289433,-0.1077604008648316,-0.8491364561611544
0.56,-0.04901526488378914,-0.1254546442282776,-0.07644820020229984,0.08697301203440932,0.014475509762450843,-0.10056196322105619,0.00995090969861136,-0.04922206621239872,-0.11685198157093239,-0.12771017562072298,-0.10736906006584418,-0.8494431767017322
0.562,-0.04900067720041512,-0.12525438934931796,-0.07626627822537714,0.08705857502939413,0.014195540011485265,-0.10029914936140347,0.008581725030525962,-0.0505352049164182,-0.11692832443646356,-0.12828944514574986,-0.10819428387106768,-0.850564588870127
0.564,-0.04899199306041573,-0.12691401264697263,-0.07792320813613939,0.08805587230582387,0.014861350471826913,-0.10187736588940419,0.005154907172091923,-0.05380655366556926,-0.11704652881253955,-0.1314243337294951,-0.11156476697685522,-0.85370018021595
0.566,-0.048995805884798634,-0.12787792250542496,-0.07887582764923055,0.0885236780765497,0.015355927458920561,-0.10283612658171408,0.0008865324583489627,-0.05803125874772211,-0.11706132813046767,-0.13598272400159295,-0.11610158400011401,-0.8579645533492385
0.568,-0.049221762442572994,-0.12757698046476004,-0.07835156575808258,0.08844050745721647,0.015025826967792293,-0.10246729431854505,-0.0013864092728801717,-0.06036817667858325,-0.11700389934219677,-0.1385533507452086,-0.11864316752907776,-0.860613776647492
0.57,-0.05053597293177237,-0.12762485676557955,-0.07709057134084267,0.08935510836745605,0.013502100212329862,-0.10188136892786452,0.00023670102787905794,-0.05879945299203443,-0.11696839499679383,-0.1369143194508487,-0.11749655062161195,-0.860380913056896
0.572,-0.05380708628604811,-0.1299059395761953,-0.07610165241745523,0.09268984410395638,0.01079064594557105,-0.10251344018974287,0.004959859268576921,-0.05406735929601814,-0.11698277630619422,-0.1320211776762899,-0.11352391905062559,-0.8588831575368941
0.574,-0.05803109403255095,-0.13473240514229454,-0.07672366682088361,0.09764481085864932,0.008440562770416509,-0.10523070463924535,0.009784728454487078,-0.04920854239258903,-0.11700902071480808,-0.12712380923781566,-0.10841159687767968,-0.8582189737465089
0.576,-0.06036780733818167,-0.1402035110268455,-0.07996569065348373,0.10142452053057147,0.008767569033596309,-0.10964103179259195,0.011648425520865539,-0.0473335064821215,-0.11723310433159825,-0.12531823878322745,-0.1035848183431245,-0.8589060867216413
0.578,-0.058799366463737915,-0.14275396193277087,-0.08428115275288413,0.10150916248420379,0.01192255592044285,-0.11318138997737337,0.00952728349991262,-0.04946775851587543,-0.11853417877228964,-0.1275067063349895,-0.10078326884353825,-0.8608039703554591
0.58,-0.05406751952303279,-0.13935669265895587,-0.08571209187895627,0.09738141412399987,0.015186053439631458,-0.11227272858244583,0.004785703886879672,-0.054221788041670986,-0.12180003975941736,-0.13224872306514676,-0.1016156977244476,-0.8641060821885264
0.582,-0.049208666146296216,-0.13085025875143116,-0.08189775332526034,0.09108538778088567,0.01568622282892223,-0.10615739773546425,0.00022231643870964518,-0.05878396780317089,-0.12602870734195584,-0.13677557857405806,-0.10524897540160681,-0.8680278795182267
0.584,-0.04733347815405276,-0.12212787093810899,-0.07476884439425878,0.08615654608497618,0.012950346748684474,-0.09841454552960902,-0.0017258491680190128,-0.060724762344864194,-0.1285899089860113,-0.13848665993264309,-0.10831438324847531,-0.8704227436725123
0.586,-0.04946767744955481,-0.11789159708691432,-0.06827784439603414,0.08512384893656222,0.008597101854789735,-0.09341302287631409,-0.0009959246134618952,-0.05999197602960994,-0.12833451506476673,-0.1364550652830792,-0.10857267739613977,-0.8702551761020765
0.588,-0.05422176477924361,-0.11933164508948159,-0.0650464632550549,0.08803053525368683,0.00464410585209017,-0.09279423424463322,0.0003606142676960207,-0.0586380927771771,-0.1268740269513467,-0.13183947564789725,-0.10712158513637657,-0.868927344211738
0.59,-0.05878400093154268,-0.1246074061997447,-0.06586959107240666,0.0928433273492921,0.0028156767441351355,-0.0957425454458454,0.0006875999998752703,-0.058313937248264926,-0.12623993354119364,-0.1272874003350573,-0.10623007512434758,-0.8683086863008797
0.592,-0.060724790863638085,-0.13082169161023338,-0.0701534556410419,0.09691708659509896,0.00404005186944141,-0.10052303005962417,0.00013589975018114158,-0.05886554011950088,-0.12670168419574887,-0.1252758914867249,-0.1065647476332178,-0.8687054253321955
0.594,-0.05999197157281352,-0.13558818586442736,-0.07559841016698408,0.0987428071073615,0.0073789913077143745,-0.10511491139973533,-0.00030511597776091526,-0.05930496482623207,-0.12726713974805506,-0.1259693896667828,-0.1072078806108916,-0.8692314073835881
0.596,-0.05863807508500717,-0.1378186532331316,-0.07915091440486309,0.09864770198556774,0.010367226660317919,-0.10778095936219435,-0.00021863046128136183,-0.0592177724925727,-0.1272891124964043,-0.12734309710108127,-0.10733543271458933,-0.8692700036854081
0.598,-0.05831393122969323,-0.13786340646018794,-0.0795341102080322,0.09795736855839435,0.011240252892407189,-0.10808458838800235,6.184616582897707e-05,-0.05893782650823512,-0.12699253271467978,-0.12769816175489593,-0.10704686060100509,-0.8690029053915862
0.6,-0.05886554689973101,-0.1368358517693785,-0.07797913508772998,0.09756681887948897,0.010323697047569335,-0.10697556900360414,0.00014860581062555112,-0.05885170605410727,-0.12705829859695672,-0.12736990032195405,-0.10683954031163771,-0.8690517416245457
0.602,-0.059304971349316254,-0.13508470083358376,-0.0757923254609267,0.09711197689973525,0.008819050670756006,-0.1051732913571327,3.7175468446030144e-05,-0.058963152124627285,-0.12845973647615452,-0.12822864990634775,-0.10689784520591486,-0.8703081680478871
0.604,-0.059217771908225324,-0.13198899985019216,-0.07277242566539714,0.09571158655571464,0.007174814760402144,-0.10237557527592142,-6.332794612032309e-05,-0.05906331423065947,-0.13185986549487413,-0.13158072298096363,-0.10703876624095432,-0.8733716021578508
0.606,-0.05893782266931968,-0.1280732681001468,-0.0691291445241355,0.09360249059595652,0.005505517168100112,-0.09896729561158989,-5.0524703425125676e-05,-0.059050339376991674,-0.13609789667825534,-0.13609045100781833,-0.10707425502679013,-0.8771900715353387
0.608,-0.05885170453932297,-0.12568062453497886,-0.06682525702421774,0.09230923014287194,0.004443854857533668,-0.09686444211807156,0.00022982481788140217,-0.05898949035179448,-0.13859030682752532,-0.13851944416943696,-0.10681685324347964,-0.8794334567592017
0.61,-0.058963153496068996,-0.12656226401367057,-0.06760079942359726,0.09303279510851747,0.0045450938360939615,-0.09756957299534626,0.0015651069718729765,-0.058967509318626585,-0.13829694750936616,-0.13683934812317142,-0.10558701432389841,-0.8791672223172579
0.612,-0.059063315712388244,-0.13032774689298932,-0.07126723681937074,0.09552560887050457,0.005748124708143123,-0.10082188584921743,0.004816601919895832,-0.05899021658439656,-0.13685586606675912,-0.13200387786871132,-0.1026500304085117,-0.8778690749623722
0.614,-0.059050339336318765,-0.13548560504313367,-0.07645762376474045,0.09853199361173232,0.0077984544792574825,-0.10550744914731716,0.009019739990118833,-0.0590130579326597,-0.1362517605062121,-0.12715646019474452,-0.09887745130637603,-0.8773260257446384
0.616,-0.05898948952375293,-0.14055674413955102,-0.08169723914811484,0.10089227274479708,0.010321229437823373,-0.11049634113109275,0.011466889261094923,-0.05901157618658478,-0.1368269422895884,-0.12534327490672886,-0.0966747464417765,-0.8778556083190917
0.618,-0.058967508945304746,-0.1439446157411699,-0.08530366163712404,0.1020577880538089,0.012348838741638475,-0.11417549390869233,0.010457070613410762,-0.058998403376407396,-0.1381221531887271,-0.12750084624623811,-0.09752841468398107,-0.8791177724303038
0.62,-0.05899021685795918,-0.14392836286062508,-0.08536106490645691,0.10180021904182981,0.012549455785198003,-0.11439892764862422,0.006601247736697564,-0.05899291996568932,-0.1404071800800258,-0.1322322611435761,-0.10090550508444344,-0.881532348287699
0.622,-0.05901305826705862,-0.1399571211181311,-0.08120022498096417,0.10011765492838656,0.010435880294117007,-0.11030737802270987,0.0014481271182208231,-0.058997489504360755,-0.14430323727222397,-0.13677091347891152,-0.1055697118824396,-0.885784837274023
0.624,-0.05901157619702252,-0.133769792452361,-0.07473266845119332,0.0975063293487285,0.00714820951012843,-0.10390638952712794,-0.0035607715234293245,-0.059002664590796845,-0.14941806520157497,-0.13849341529706896,-0.11059012929649253,-0.8913370903278306
0.626,-0.05899840319890375,-0.12838467201570372,-0.06924019308587187,0.09483362323490356,0.0046409376304561226,-0.09868466117787028,-0.006582876001881972,-0.05900264279070626,-0.15415144722298893,-0.13646083786723384,-0.11500990347261426,-0.8963172776968784
0.628,-0.05899291987520774,-0.12585458393826127,-0.06679824645440524,0.09295012707376875,0.004007607733180087,-0.09667319076149845,-0.00581761478486866,-0.05899980821217789,-0.15683336977687887,-0.13183854638876408,-0.11766710988240434,-0.8989612736223384
0.63,-0.05899748955800967,-0.12599849202530736,-0.06704718827432461,0.09232382970667735,0.004682578393352621,-0.09721220947087497,-0.0019905459897250977,-0.058998466159067654,-0.15709330752590978,-0.12728380623554408,-0.11809853487026138,-0.8990743289992551
0.632,-0.05900266466580041,-0.1272764114695166,-0.06833030200154971,0.09277968044379475,0.005447072913337899,-0.0984599096833751,0.0013535515783257655,-0.058999372016635784,-0.15615141292772375,-0.12527468186628507,-0.11702826722049031,-0.898075385996296
0.634,-0.059002642797254604,-0.12904383748520698,-0.07004339070669661,0.09392724595321701,0.006088515541052386,-0.099882885091026,0.001716177771061641,-0.05900053709351243,-0.15553780857633054,-0.1259707732697889,-0.1150484391080801,-0.8975114496231397
0.636,-0.058999808174374536,-0.13201098678883186,-0.07298151477411394,0.09564832082498172,0.0073759657457702806,-0.10241751370673277,0.0001763395709803359,-0.05900059925044608,-0.15570608249738954,-0.12734441810376973,-0.1118670626516471,-0.897734466204578
0.638,-0.05899846613743711,-0.13585658681527052,-0.07684275553075669,0.09754809222490138,0.00933003710860343,-0.10590323101434666,-0.0008188432554669813,-0.05899999313038382,-0.15610685026057292,-0.12769803767371612,-0.10803493004197717,-0.8981346639614798
0.64,-0.05899937202693402,-0.13817620115248788,-0.07918565933709372,0.09856835076814312,0.010610886793597564,-0.10807642419343227,-0.0004883850937626389,-0.05899966969375455,-0.15620842577459057,-0.12736912015201543,-0.10583854441717816,-0.8984256397950652
0.642,-0.05900053711023573,-0.13680345345222558,-0.07781551238352881,0.09782726899491037,0.009965897309186915,-0.10686847693177734,0.00020881058055766805,-0.058999845976554874,-0.15604083858165477,-0.12822834496844412,-0.10726277949903189,-0.8995571959892298
0.644,-0.059000599252814055,-0.13217377405966682,-0.07317437256484367,0.09556209675034798,0.007605112521604644,-0.10266832581304276,0.0003647219759830097,-0.05900010668578565,-0.15590601338242943,-0.131581003082844,-0.11184980965312215,-0.9027062180587979
0.646,-0.0589999931223886,-0.12725704853383582,-0.06825075448585728,0.09315726936466115,0.005102257040306842,-0.09821229421451243,6.0340903841695154e-05,-0.05900013501315988,-0.15593296022431613,-0.1360907512115424,-0.116718071036975,-0.9069714706603231
0.648,-0.059197126274839515,-0.1251888896787561,-0.06596616078390265,0.09226429522847558,0.003797721947604327,-0.09625566781623364,-0.0001699857882915081,-0.058780610061874954,-0.15601928517523594,-0.1385194347050519,-0.11867665837974724,-0.9096137854948803
0.65,-0.06037914445369474,-0.1267680427556651,-0.06623733181882346,0.09382265868209158,0.0030267753873234526,-0.09709356164682656,-0.00011405462658218378,-0.057467375453120285,-0.15604578429726443,-0.1368391797742911,-0.11657713272482453,-0.9093771424097246
0.652,-0.06332617670422959,-0.13069284874038037,-0.06688880324262098,0.09762637698580107,0.0011802657862202688,-0.0991047915804782,3.8280793057031645e-05,-0.05419321835489419,-0.15601133821085894,-0.1320038026210007,-0.11179410077824056,-0.9078813516959446
0.654,-0.06712965197602232,-0.1355477819394166,-0.0675372083670842,0.10227653144277435,-0.001128023256888908,-0.10149838398720454,8.051625318987588e-05,-0.04996722418888703,-0.15598042955146388,-0.1271565161242255,-0.10719912277284349,-0.90722016891877
0.656,-0.06923193268534715,-0.14038742801713605,-0.07014859914737206,0.10580302690153953,-0.0011270620214461945,-0.10491231376470915,1.7565142267466415e-05,-0.04763122310258771,-0.1559844651800814,-0.12534334268614253,-0.10547788673276699,-0.9078857034667939
0.658,-0.06781895270128296,-0.14382987903980304,-0.07535758968601838,0.1066937105151193,0.0024539733506374287,-0.10913007284660572,-3.5549172612703375e-05,-0.0492010882074452,-0.15600326007069532,-0.1275008480993768,-0.1075418066529605,-0.9096508061389394
0.66,-0.06356004520443512,-0.14396595240512047,-0.08032215028254272,0.10454109976680026,0.007480242777532693,-0.11174696721312907,-2.6565412257714895e-05,-0.05393322676390859,-0.15601003492572643,-0.13223222503993032,-0.11217837795678015,-0.9126246019444593
0.662,-0.05918771486332756,-0.14003767941725873,-0.0810852717923939,0.1004665194115267,0.010278516504227368,-0.110218522752508,6.7110549813555015e-06,-0.058791442196558255,-0.15600301410266157,-0.13677089522253177,-0.1167228345492297,-0.9161241652093043
0.664,-0.05730302752234443,-0.1340071511154131,-0.07686713164773169,0.09668766307789992,0.0091692530059538,-0.10511546082176487,1.770291198502396e-05,-0.06088556253712925,-0.15599596339366129,-0.13849342627942335,-0.11849985790432671,-0.9180666988843995
0.666,-0.058041826414746076,-0.12988184353787674,-0.07180040546575313,0.09494434051231426,0.00645623961158125,-0.10062063111652501,4.793476074843613e-06,-0.06006464747280446,-0.1559964270287836,-0.13646085307593994,-0.1164901523275547,-0.9167430788288111
0.668,-0.05937342801042019,-0.13063462585214852,-0.07115628656087647,0.09549396288112312,0.005974512103887378,-0.10076624603893157,-7.371271235688249e-06,-0.05858506434097955,-0.15600049622496207,-0.13183854765994826,-0.11184903214784363,-0.9126139635101755
0.67,-0.05967592332373741,-0.13503784315696393,-0.0753330020639855,0.09725045782043858,0.008446178410480037,-0.10494086807962882,-6.136833412106891e-06,-0.05824896106837341,-0.1560021868785608,-0.12728379854298572,-0.107272817119119,-0.9082548637346083
0.672,-0.059122901349945904,-0.1386629215746331,-0.07958292015853333,0.09858535364335358,0.01100583199719059,-0.10862539936719706,1.0913880034053426e-06,-0.058644049059466276,-0.15600077377147653,-0.125274677498183,-0.10526371057445935,-0.9065031311355655
0.674,-0.05869452707089453,-0.13884763129817893,-0.08018924243090658,0.09866337831323667,0.011333567005381361,-0.10888630815240959,3.870320035551671e-06,-0.05780686871669299,-0.15599917616494563,-0.12597077538135254,-0.10597152982291969,-0.9083857451982126
0.676,-0.058788165732847675,-0.13707041451423502,-0.07827612219830203,0.09803816985576094,0.010141712753643065,-0.1071012877520056,1.2530808971088081e-06,-0.05442862960272229,-0.15599918422608908,-0.12734442149614333,-0.10735076676921197,-0.9126811547509904
0.678,-0.059065310578996395,-0.1360589717692366,-0.07697103895942253,0.09767282962144923,0.009356937247158095,-0.10604949219769254,-1.5135838669951762e-06,-0.04989463285217683,-0.15600005992769447,-0.12769803814177005,-0.10770065727356186,-0.9168159861633818
0.68,-0.0593440330226546,-0.13629169874198602,-0.07694020942810831,0.0978232470053565,0.009285191580722605,-0.10618255580515165,-0.0002208030129167417,-0.04746832717738499,-0.15600047381159632,-0.12736911852428626,-0.10714751059352638,-0.918786728168365
0.682,-0.06041361956024399,-0.13574268102211684,-0.07533784413118161,0.09809205209892156,0.007865198016516061,-0.10512502648804672,-0.0015323998309599964,-0.049162950913716655,-0.15600019361443174,-0.12822834393552357,-0.10669330431223054,-0.9194268351997036
0.684,-0.06326248486444912,-0.1325899821154473,-0.06933576019132634,0.09813965648271505,0.003077948263522966,-0.10067688572083042,-0.004805903160611101,-0.054003893742897865,-0.1559998339108222,-0.13158100347775434,-0.10677427867025989,-0.9214735349568773
0.686,-0.0670804259378689,-0.12800658053064382,-0.060925308259990776,0.0980164719459269,-0.003501038279089147,-0.09440057370876546,-0.009032478831517237,-0.058845997312780174,-0.15599981500680168,-0.13609075196386206,-0.10705932126507003,-0.9254109409070083
0.688,-0.06944063653855226,-0.12543372834464844,-0.05596623871951718,0.09801951272067674,-0.00740668087494463,-0.09077464496415893,-0.011369114453162129,-0.06065365778259194,-0.15600000227585253,-0.1385194348488892,-0.10715126943319543,-0.9282497810283558
0.69,-0.06923048667762656,-0.12708534588869863,-0.05769971880550833,0.0985714695528064,-0.006321212754645528,-0.09239472578176909,-0.009799235096359655,-0.05849634751883102,-0.15600010204217335,-0.13683917943243729,-0.10703982565788377,-0.9270767334648596
0.692,-0.06789537426618864,-0.13198571377909782,-0.06361144608238438,0.09994009277125328,-0.0023768447993378766,-0.0975543730547122,-0.00506674345165401,-0.05376807234796139,-0.1560000474989454,-0.1320038023792172,-0.106936484328481,-0.9222632689303571
0.694,-0.06730406269395543,-0.13687966511356522,-0.06867420216320198,0.10164409848886596,0.0007179926620897543,-0.10228185088605027,-0.000208367142338752,-0.04923077724280104,-0.15599996700130483,-0.12715651619529408,-0.1069479393584182,-0.9171510107139275
0.696,-0.0675236107959913,-0.13867965991485362,-0.0700190941685693,0.10244312797847822,0.0013638241086492407,-0.10377306720616764,0.0018856373532532159,-0.04750721029012737,-0.1559999583167338,-0.1253433428520357,-0.10700979740892416,-0.9151993360872991
0.698,-0.06686261842115528,-0.13649039393072016,-0.06864682292609708,0.1011389157890282,0.0010037377301125303,-0.1021697417936094,0.0010645791608739213,-0.049538538281213206,-0.1559999980979463,-0.12750084813983267,-0.10703308981110479,-0.9174351180852887
0.7,-0.06394054541036874,-0.13175103859328227,-0.06730335103758622,0.09761357174920995,0.0018864398890332684,-0.0995313136129115,-0.0004150091174433535,-0.0541608142280424,-0.1560000218390052,-0.13223222496872247,-0.10701045827836408,-0.9222794056942624
0.702,-0.05986601250167666,-0.12722589003425017,-0.06733937896107013,0.09357020356553915,0.0041537541531283875,-0.09772414865363317,-0.0007510367399796862,-0.058716228810359275,-0.15600001146950013,-0.1367708951664413,-0.10698693745969602,-0.9268292912529607
0.704,-0.05762066009810844,-0.12529477541691483,-0.06786309585909654,0.0915682189221653,0.005681215427874664,-0.09723246779474999,-0.00013651359882438537,-0.060725683799874454,-0.15621938976729186,-0.13849342629149125,-0.10698805332420847,-0.9284955696076773
0.706,-0.059113054460452646,-0.12601197659862934,-0.06700539461076348,0.09267621958269463,0.0043792968455233505,-0.0970473137349868,0.0003394410302589477,-0.060029382267031126,-0.1575325445262776,-0.13646085311231407,-0.1070014221721534,-0.9264300093520795
0.708,-0.06348791034232276,-0.12735313299625717,-0.0638235012349782,0.09562959199616516,0.00018881573314916383,-0.09582374750754763,0.00023536042909528228,-0.05865545663658582,-0.16080674351611096,-0.1318385476707368,-0.10700719889134633,-0.9218226458373535
0.71,-0.06787228616363596,-0.1276797146602763,-0.05973221155249817,0.09819386839002273,-0.0045182169519664694,-0.09368267724884767,-7.258710558332256e-05,-0.058301817615347716,-0.16503280126772493,-0.1272837985282887,-0.10700266247048744,-0.9172930351975045
0.712,-0.06969945956684338,-0.12713621598552502,-0.057423171290701416,0.09899795450308209,-0.0068195241840828735,-0.09217887194195105,-0.0003822623781020503,-0.058850275290108306,-0.16758820607165067,-0.12549407369215995,-0.10721673934454388,-0.915287767395125
0.714,-0.0689266181790121,-0.1266993382875053,-0.05780675766166225,0.09839805590979223,-0.006179604867602686,-0.09221482790150336,-0.0015706792519734477,-0.05930428749974948,-0.16733146750865546,-0.12750332924456104,-0.1085298318259631,-0.9159719871521101
0.716,-0.06761014263058786,-0.12678332456272468,-0.059196726467660034,0.09769879872293005,-0.004675376855139041,-0.09302145030829631,-0.004736088033696156,-0.05922577934225477,-0.1658735005917853,-0.13215116596489193,-0.1118068941794404,-0.9173378568381214
0.718,-0.0673334497319891,-0.12706034919591142,-0.059719593811979464,0.09765288829043353,-0.004229480875407709,-0.09342444293330311,-0.00897825304433195,-0.058942020649292236,-0.16524134524551903,-0.136730834769146,-0.11603435361665024,-0.9176942412115595
0.72,-0.0678905415884737,-0.12714682387360474,-0.059239968611615616,0.09799634542933565,-0.004804978303434683,-0.09319293766872883,-0.011381315430862553,-0.05884933987983077,-0.16570264574975124,-0.1385185294458062,-0.11836946913115588,-0.917151491183598
0.722,-0.06830677889447181,-0.12703714124911245,-0.058726562508971035,0.09818505352612959,-0.0053221542795774904,-0.092863084314775,-0.009834654554190041,-0.05895973306943191,-0.16626682863894438,-0.1364947049467827,-0.1167983813960328,-0.9166987070550707
0.724,-0.06820512193867859,-0.12693762815343335,-0.05873959268583134,0.09808975422398261,-0.005259026223796466,-0.09282995931660674,-0.005077002813281396,-0.059062972379187596,-0.16628843915121175,-0.1318410172264742,-0.11206614212156472,-0.9167746870151796
0.726,-0.06793077055110842,-0.12694995065637896,-0.059024637484984814,0.09794200456851035,-0.0049481449027731095,-0.09299339150448876,-0.00019393824591368552,-0.05905204194819854,-0.16599238086762969,-0.12726650428433928,-0.10720854579832394,-0.9170565679101262
0.728,-0.06765775818567867,-0.12722953010994223,-0.059570511171117314,0.09792344174910275,-0.004505026066457583,-0.09339667193117492,0.0018981281220745575,-0.05899049014938473,-0.1656198011128904,-0.12548446535633853,-0.10511477614248116,-0.9171497314367061
0.73,-0.06658937463781348,-0.1285647067882907,-0.06197175179374487,0.0979951087444444,-0.0026502908244608533,-0.09519191157824339,0.0010626712249559287,-0.05896705774390921,-0.1643948524945038,-0.12750817767550074,-0.10593552085060082,-0.9170405935965172
0.732,-0.06373796782431283,-0.1318165715992913,-0.06807758167822914,0.09803943673705517,0.00214390700441896,-0.09970272912770545,-0.0004227369604252818,-0.058989455274718945,-0.16124632249420517,-0.13215872533836967,-0.10741483123413854,-0.9169376904585833
0.734,-0.05991815628733649,-0.1360199438968487,-0.07610325329481947,0.09802150051869737,0.008489815705133774,-0.10560787465889081,-0.0007536867741287598,-0.05901294072431002,-0.15703215549723576,-0.13673179963628243,-0.1077508971945765,-0.916948096390202
0.736,-0.05755843921173056,-0.13835730510133626,-0.08080012375968847,0.09787904896852555,0.012280378759210692,-0.10902243702921402,-0.00013356213496666484,-0.05901193566589873,-0.15463325520967705,-0.13851486499160992,-0.10713654401936337,-0.9169214557198327
0.738,-0.05776984556285018,-0.1368004349352641,-0.07903039033881057,0.097216615067503,0.011267042408921289,-0.10750380180778452,0.0003422969966703594,-0.05899863904674684,-0.15616662497212264,-0.13649242805206696,-0.10666064965343681,-0.9163100058959246
0.74,-0.0591052888146833,-0.13207376120357292,-0.07296769087005595,0.09559459731459313,0.0074198910326375486,-0.10250788965696356,0.0002351139123483405,-0.058992836358508764,-0.16091565681570488,-0.13184192943503473,-0.10676466628520746,-0.9142119297352489
0.742,-0.05969607271841378,-0.1272110644231519,-0.06751472702599702,0.0934919681186822,0.004332124396236321,-0.09780325491519459,-7.426342300046119e-05,-0.058997320958192885,-0.1658018573252588,-0.12726818255970324,-0.10707255037759043,-0.9100947392482304
0.744,-0.059278635439484924,-0.12511182126373316,-0.06583348589235563,0.09221100264505618,0.0037463198060450164,-0.09614584447682605,-0.00016353234230433497,-0.05900262971030305,-0.1679001256693996,-0.12526537297221962,-0.10716283404929844,-0.9044473774437785
0.746,-0.058757867257292797,-0.12593273496618118,-0.06717515547923125,0.09233213796201939,0.004735402378660936,-0.09717397881721056,-3.752878491595677e-05,-0.05900271810944546,-0.16706591981800453,-0.12597485306254078,-0.10703813009075418,-0.8980028897752212
0.748,-0.058733443652005196,-0.1274151130894686,-0.06868164313816946,0.09305944682794598,0.005503727314055657,-0.09852168670676154,7.130494378149177e-05,-0.05899986322363188,-0.1655777246373107,-0.12735144692119774,-0.1069293633475993,-0.890544723179805
0.75,-0.05900461654702376,-0.1277525521462596,-0.06874776599426125,0.09337867237023587,0.005371145977550451,-0.09867473171952454,5.452776570359086e-05,-0.05899845133235914,-0.16524476087720696,-0.12769916858200306,-0.10694546330024893,-0.8814713272361826
0.752,-0.059147450986644104,-0.1271371806999167,-0.06798966305278403,0.09315043957670466,0.004904757244543877,-0.09804154624890081,-1.286976402010877e-05,-0.05899933491355463,-0.16586544447362936,-0.12714642833808934,-0.10701250079444143,-0.8710844676723126
0.754,-0.05906786038351798,-0.1266600506212178,-0.0675922509543888,0.09286778497662491,0.004754625843809725,-0.0976563459973746,-3.5903703526636306e-05,-0.05900052746232915,-0.16634266965138922,-0.12669359978145195,-0.10703573233896416,-0.8602173518273103
0.756,-0.05895195729923636,-0.12676403270318365,-0.06781214078374667,0.09285539146293183,0.004935396865806151,-0.09781431967828394,-1.0125691607839756e-05,-0.059000614898081886,-0.16623583402950678,-0.12677501041457181,-0.10701024519380845,-0.8495260964658354
0.758,-0.05894002962715302,-0.12707257464996094,-0.06813254311726837,0.09300296929301498,0.005102920422760809,-0.09809863363458317,1.4757008714821121e-05,-0.05900000586051302,-0.16592587717802912,-0.12705950954179068,-0.10698539358971892,-0.8401676525365344
0.76,-0.059195031701066436,-0.12738258761047963,-0.06816557969925376,0.0932776688311532,0.0049745917490686044,-0.09823597778030708,1.257454637641478e-05,-0.05878027102819719,-0.16583614183172513,-0.12715096003453752,-0.10698743217254718,-0.8331659640766602
0.762,-0.060410866864859025,-0.12857084139809463,-0.06800670270986217,0.09441596353174868,0.004217791124492724,-0.09862994250558038,-2.0469776955560425e-06,-0.05746728399367638,-0.1659622388534939,-0.12703957512514166,-0.10700196800194492,-0.8264393813041276
0.764,-0.06334247162910635,-0.1317359879966735,-0.06791285403788745,0.09729981561980842,0.0025430257436881236,-0.09984990510859149,-7.839976315761268e-06,-0.05419335968743695,-0.1660713717659878,-0.1269365335063823,-0.10700779858649827,-0.815194935694869
0.766,-0.067120123568719,-0.13597811677425176,-0.06795472830071407,0.10109697325222064,0.0004666988221998839,-0.10156912531408194,-2.6277168313559097e-06,-0.04996734160860165,-0.1660546864887868,-0.12694809957003614,-0.10700265104569597,-0.7978014205482574
0.768,-0.06941594549253262,-0.13860070114022865,-0.0680259357507216,0.10342816721917879,-0.0007729223416687972,-0.1026539945489458,3.023317605769459e-06,-0.0474118058533264,-0.16598716958438225,-0.12722924330412547,-0.10721640661981086,-0.7783228896598435
0.77,-0.06919702958859991,-0.1383672777671136,-0.068037093459899,0.10321550067490617,-0.0006463940365555738,-0.10256553352029305,2.878108616513857e-06,-0.04766846021642416,-0.16596402847253838,-0.1285655799751045,-0.10852967913318119,-0.7605459933437339
0.772,-0.0678928683096747,-0.13688378612894903,-0.06800356356669482,0.10189502115245529,6.092833264045416e-05,-0.1019549251569965,-2.7515268260498186e-07,-0.049126458378016075,-0.1659898204386253,-0.13181714519776463,-0.11180700282064875,-0.7426751533813155
0.774,-0.06732112411879085,-0.13622671558294946,-0.06798145928479521,0.10131207227990936,0.0003676643771833691,-0.10168119732627144,-1.702079026071261e-06,-0.04975867459832002,-0.16601476829066625,-0.13601974136049458,-0.11603448883765319,-0.7207755167704444
0.776,-0.0675331277930607,-0.13647064859253755,-0.06798919925381734,0.1015276293006345,0.0002540711863046725,-0.10178295717874389,-6.628489446428971e-07,-0.04951678232677394,-0.1662320055401268,-0.13835689533281909,-0.11858887063895762,-0.6942818745605517
0.778,-0.06685785341926527,-0.13573623964755188,-0.06800495909885049,0.10086016685075125,0.0006371715491635964,-0.10149714154091974,6.12251251831906e-07,-0.05026572961584938,-0.16753051734294644,-0.13680034973618654,-0.11833086399614053,-0.6641059319609504
0.78,-0.06393307573330062,-0.1324895098568102,-0.06800826296068105,0.09793718141262782,0.0022635596579641485,-0.10019996123348415,6.541768591961366e-07,-0.053518290016148655,-0.1707988904964282,-0.13207394412806064,-0.11687284965127503,-0.6278515059525934
0.782,-0.05986504494909251,-0.12796224491739921,-0.06800124054486928,0.0938657435519854,0.004519961415702842,-0.09838543990549717,-2.1649083512389918e-08,-0.05804040605437469,-0.1750301565184209,-0.12721119829302963,-0.11624136367152753,-0.5824027112270327
0.784,-0.05742681773384658,-0.12524799994554398,-0.06799608326064792,0.09142491085930272,0.005871980280137098,-0.09729719010663354,-3.673403528396804e-07,-0.06074900973002146,-0.17737183216479943,-0.1251117853811613,-0.11648361357755116,-0.5298070206739859
0.786,-0.057736010351763636,-0.12559305551115643,-0.06799745215630844,0.0917347182800559,0.005700960697319162,-0.0974359664311189,-1.636474633761276e-07,-0.06040406944880842,-0.1758018005648877,-0.12593264477078595,-0.11573443860499324,-0.475048111228708
0.788,-0.05916094477125583,-0.12717982154766896,-0.06800092046638034,0.09316136823298338,0.004911083243509836,-0.09807242562676853,1.222992032731779e-07,-0.0588204370655934,-0.17106648574124325,-0.12741508958916364,-0.11248157428111887,-0.4191061680878367
0.79,-0.05974111117431135,-0.12782530227014224,-0.0680018300829244,0.09374201855651172,0.004589194271927468,-0.09833104361097895,1.477230344891729e-07,-0.058176390234154426,-0.16620684400968275,-0.12775259014295695,-0.10795943732453146,-0.3591382620692361
0.792,-0.05926977332374582,-0.1270806909373149,-0.0678029152416906,0.09316027754280842,0.004740597333485936,-0.09790080815556346,3.819085831044863e-09,-0.05870058015727718,-0.16433317196062017,-0.12735660788076955,-0.10525098951531062,-0.2944336022080504
0.794,-0.058729056296503955,-0.12516555242421956,-0.06661988041122083,0.0919623808265122,0.004383824774186595,-0.09634626607713714,-7.879169958202116e-08,-0.05930128881510147,-0.16646852557723907,-0.12819259854175133,-0.10559601566250348,-0.227741876544884
0.796,-0.05872451872028547,-0.12188657653220877,-0.06367333486130176,0.09032084571356058,0.00274937857688959,-0.09307028958836838,-3.971939556806039e-08,-0.05930602591194564,-0.17122233698837808,-0.13157075742312457,-0.10717960400007087,-0.16115983628868158
0.798,-0.0590160764187448,-0.11798524609013541,-0.059870646874873444,0.088499751931398,0.00047476035613036073,-0.08897451047398827,2.4026308652766297e-08,-0.05898197543897238,-0.17578381140691546,-0.1361053650872809,-0.10782358293382881,-0.09419395283051969
0.8,-0.059157795360650196,-0.11569723019975345,-0.05765877850884522,0.08747359119843666,-0.0008815621310292187,-0.0865919925665649,3.315208124724066e-08,-0.058824629645786906,-0.17772438806842905,-0.1385320063526746,-0.10729938461579147,-0.026061622105796628
0.802,-0.059066547480487876,-0.11661854422494905,-0.05852450088454992,0.08816714500073769,-0.0005929589456686467,-0.08757416960995848,2.723533028332635e-09,-0.05892612654774424,-0.1769918826037672,-0.13683720952299439,-0.10669870900144378,0.04202200866943323
0.804,-0.05894568501470179,-0.12034531835150526,-0.061912349718268735,0.09052192144532184,0.0008596124584234276,-0.09135960634733208,-1.6790955143608573e-08,-0.05906040557251789,-0.17563825240325448,-0.13199600087533306,-0.10669399226927453,0.10697644178740712
0.806,-0.05893775012394152,-0.12548509674510638,-0.06657511710497925,0.09359968315198075,0.0029269124469765533,-0.0963733549498609,-9.50657534327276e-09,-0.0590691558668718,-0.17531406447908338,-0.12715386479706098,-0.10701803443693637,0.16603278002998267
0.808,-0.05919736581849063,-0.13077743439669678,-0.07136957964259495,0.09643383112516564,0.005212022515872408,-0.10118711927110537,4.6223546230471665e-09,-0.05900006542407849,-0.1758655137802364,-0.12490754144903465,-0.10717536514957228,0.21935057362686772
0.81,-0.06041322574540893,-0.1351505649201942,-0.07447384890558263,0.09869571107005538,0.006512702241098699,-0.1044583812100366,7.395849564102361e-09,-0.05896229192887164,-0.1763048828123326,-0.1244386160177203,-0.10707386557672055,0.2696806486504821
0.812,-0.06334232457727684,-0.13764263276837055,-0.07385932275579576,0.10052559998264518,0.005222151136685895,-0.10506960124547866,1.0101361550289744e-09,-0.05898195340534939,-0.1762177476921929,-0.12261847732702866,-0.10693959350598897,0.31844214393169096
0.814,-0.06711876603254462,-0.13801289692260307,-0.07006715062813071,0.10189256727099119,0.0017078202400486369,-0.10337052266599814,-3.5535911892066292e-09,-0.059011958238861247,-0.17593785941911244,-0.11870360905602265,-0.1069308479908358,0.36376776587935944
0.816,-0.06921792072230797,-0.13721969007212376,-0.06688009993423902,0.10240197626306025,-0.0009942334946374638,-0.10155727652008308,-2.248644644787733e-09,-0.059015560323291444,-0.17585173530829035,-0.11575514461499672,-0.10710963502489657,0.4036030489017691
0.818,-0.06781820055671488,-0.1365041468241931,-0.06767220325013881,0.10170912847102356,-8.378278902645835e-05,-0.10168110290037573,0.00010969896864403902,-0.05900090654705325,-0.17607284624123667,-0.11686362840170253,-0.10780398401691901,0.43820583332108753
0.82,-0.063567332598061,-0.1358286623044655,-0.07173031076579155,0.09989327352790164,0.0038905000944171116,-0.10334212292045765,0.00076627857108225,-0.0589919413807074,-0.17682957329231663,-0.12170568447581737,-0.10942141707461245,0.46839033181476075
0.822,-0.05919160618291556,-0.13389489890348827,-0.07468926051352208,0.09741818698412694,0.007348974749479575,-0.10391458826161547,0.0024033725417960438,-0.0589956560399315,-0.17845370524788615,-0.1268666824722751,-0.1115044397748047,0.4944885487486686
0.824,-0.05738866781076764,-0.13026926266501848,-0.07306372987969277,0.09501279822596491,0.007389191844710958,-0.10166526517630534,0.004516397565828052,-0.059002322864394115,-0.1803961972745404,-0.12904542946467087,-0.11277854215847002,0.5183381697152506
0.826,-0.05865171260965246,-0.1267441847809826,-0.06804984224468386,0.09379801023839432,0.004587047149098169,-0.09818263558001718,0.005684403039216215,-0.059003480127750946,-0.1809953407345516,-0.12809989236337513,-0.11266482837252556,0.5431812580763482
0.828,-0.061208025645389685,-0.125463379129416,-0.0637480992713921,0.09462011521284544,0.0015945395205539418,-0.09643104910065857,0.004899457593668753,-0.05900039465828214,-0.17936227635148047,-0.12651466878655562,-0.11194480977413854,0.569651571081595
0.83,-0.06267756826380134,-0.12655052973791314,-0.06304220796125708,0.09648701647912314,0.0006118657492532374,-0.09729245208982552,0.0026430775698735778,-0.05899828932350058,-0.17719968401545377,-0.12619611405128908,-0.11151531825376414,0.5943847165740335
0.832,-0.062033867273233914,-0.12876594494730215,-0.06604142373948488,0.09729608781391917,0.0022776076632466274,-0.09943807833765893,0.0006511552832041285,-0.058998967512970485,-0.17724151794189025,-0.12687662157300372,-0.11108272250328476,0.6156413980387585
0.834,-0.060992891907665076,-0.13051419143215706,-0.06932899245847991,0.09670077869042433,0.004251052818589042,-0.1005081096900139,-7.196107083056714e-05,-0.059000440383697804,-0.1797003910578941,-0.12737455547941082,-0.10983625991250368,0.63820229134894
0.836,-0.06242765800915058,-0.12917592913644807,-0.06694438046890452,0.09605220853314145,0.0018620361986215973,-0.09743816065412722,-0.0008226666417444908,-0.059000773803622876,-0.1819836858110334,-0.1272449642903522,-0.10839370377759737,0.6686298352144389
0.838,-0.06635866476768265,-0.12358449573421715,-0.057426138167759266,0.09599751716793001,-0.005972884497297245,-0.08980647792654955,-0.0030312265747784806,-0.05900012928334257,-0.18218677076287573,-0.12691283734545789,-0.10860717187020799,0.7071711585926451
0.84,-0.06939824458691096,-0.11762583661972957,-0.048227098267614045,0.09616662670079804,-0.013432826998186875,-0.08291606013449075,-0.005437252907187894,-0.05878024326324217,-0.18086488716463597,-0.12682493073251427,-0.11055189884674303,0.7487599707468031
0.842,-0.06887677684223666,-0.11585520961221638,-0.04687224374976154,0.0957724338269816,-0.014496286427740817,-0.08208053366221327,-0.005560164124773214,-0.05746720337689734,-0.1788769460339048,-0.12696399998517305,-0.1112003006580721,0.7914863903941258
0.844,-0.0657631368990186,-0.1173730826177929,-0.05153727990956295,0.09425437779219534,-0.010140967807647295,-0.08581105847898561,-0.002909470506537202,-0.05419333633243096,-0.17586386979080637,-0.12707833114167907,-0.10765105521302246,0.8390069278739329
0.846,-0.06340806567038458,-0.11977491460360501,-0.05624677505243212,0.09320659443457265,-0.005535682505583754,-0.08985628200460634,0.0007749657448097169,-0.0499673744474275,-0.17212942661138958,-0.1270570495753621,-0.10116228136866315,0.8932718290640804
0.848,-0.0639757177516729,-0.12408897487240907,-0.059697900761912996,0.09525794029374642,-0.003263778633285218,-0.09355015677534266,0.0038839247555544566,-0.047192438077434964,-0.16966826575714508,-0.1269845004291642,-0.0964847851306404,0.9500346091196293
0.85,-0.06571775370598915,-0.12978840621897753,-0.06332325676995812,0.09907515736299614,-0.0021476978763093953,-0.09723002572439547,0.0066735107672493445,-0.04613590201435743,-0.16970258698803664,-0.12696146394617763,-0.09710266377877054,1.0040119292364642
0.852,-0.06488569615524167,-0.13139375201512574,-0.06582945821113582,0.09961086793026729,-0.0007706583199412395,-0.09839740421125598,0.01026441561824904,-0.04431969632837925,-0.17100293172870767,-0.12699005210069667,-0.10215802797865349,1.0545466838367137
0.854,-0.06084084678281006,-0.12555107442666272,-0.0646214928462798,0.09476825468673951,0.0003529513708214094,-0.09489923878960259,0.01421109523937995,-0.04072587194116502,-0.17168108210020594,-0.12690658036360364,-0.10793470029037053,1.1042325587479875
0.856,-0.056493901898601796,-0.11561428552366605,-0.05975701645304911,0.08741903079808802,0.00013017034839727716,-0.08827875045484371,0.016670966333522927,-0.0374897932918633,-0.17110833409175022,-0.1261372292186933,-0.11136360766110463,1.1552663600086865
0.858,-0.053249674051392915,-0.106282951991804,-0.0540019994285029,0.08055278651402048,-0.000859716007520568,-0.08164756644199066,0.017570233578335967,-0.035759461553370085,-0.16925745382596383,-0.12371807624477134,-0.11158463947990077,1.2105342544848376
0.86,-0.04954474281212379,-0.09879926791039587,-0.049950874635047694,0.07455918549449667,-0.0008857204972399811,-0.07652309263599671,0.019192393650944394,-0.033265020933037785,-0.1659153860876407,-0.1191958178769549,-0.10895529005921115,1.2758151519268426
0.862,-0.04507191552166617,-0.09185624560301466,-0.04690689778187489,0.06900827295625715,-0.000252508689928347,-0.07182661084899357,0.022441669437048693,-0.02824233270872429,-0.16183915643142655,-0.11340752905032626,-0.10414638636640006,1.35485264600918
0.864,-0.04225032674573974,-0.08392267238129182,-0.041439416658708976,0.06408464647845552,-0.0017034624146303123,-0.065277957287103,0.02560804127531766,-0.022411442600265445,-0.15848099615620684,-0.10755031259597428,-0.09800819904515944,1.4432509428148483
0.866,-0.042267466040139035,-0.07491147693510569,-0.03246366075322751,0.060042009660935314,-0.0061753497481589785,-0.05648716988902992,0.02850953393759923,-0.017239278885579287,-0.15497827272453957,-0.10143140091574977,-0.09125349606588919,1.5331486969777597
0.868,-0.04258238195472175,-0.0654404628746912,-0.02288807225450233,0.055897228934870494,-0.010906782055315095,-0.047091176450998896,0.03386768340634768,-0.010653772148685356,-0.14819787760275283,-0.09375084595231804,-0.08451479080976777,1.622421843282102
0.87,-0.04004737018566411,-0.05460804930417535,-0.014670088809873092,0.04946105275758528,-0.013600275534896362,-0.03743917263030899,0.04235781525657083,-0.0010070687358624366,-0.13757395860215071,-0.0843283434640867,-0.07854957878102599,1.7144302700093825
0.872,-0.035538213370543165,-0.04161652195594063,-0.0061145000369777274,0.04050596141911987,-0.015816672536361317,-0.02645952437240281,0.05089632982126441,0.008515641761266754,-0.12719821431663064,-0.07482195223206731,-0.07374250464482776,1.8099184731751452
0.874,-0.03354223232569593,-0.028829386330259398,0.004754722034805739,0.032683894434605974,-0.020454473702203897,-0.014525285110847847,0.057432034433205034,0.012952603803731061,-0.12145463160664308,-0.06769257815305837,-0.0700412384335865,1.9012617452726734
0.876,-0.03637862388429317,-0.019416999368291808,0.017001225231613952,0.029103024323761845,-0.027599361281012497,-0.003325292737005426,0.062442397020455884,0.01132341908415614,-0.12064453948878737,-0.0653148829415193,-0.06768880358352387,1.975612595055627
0.878,-0.04075736431075425,-0.013627501672165834,0.027125943059248467,0.027987786056942764,-0.034024015865998215,0.005703679068038684,0.06551417315458058,0.007090899802641567,-0.12187741856035522,-0.06819037388889257,-0.06693744882262423,2.0271229885707895
0.88,-0.04223056763700177,-0.01028974855801079,0.031917361813893146,0.026302457261427624,-0.036727315735201785,0.01114122671426811,0.06524534194456083,0.004393811429946224,-0.12236669287341607,-0.07318081219012201,-0.06666956702004598,2.0645536920010246
0.882,-0.04145275579871427,-0.009641425075965139,0.031802272019098986,0.025113106875129326,-0.03669862017409683,0.012146702776347017,0.06195611785685889,0.005391212000770149,-0.12065009658993107,-0.07517423527706774,-0.06450148247980925,2.1009544893131173
0.884,-0.04268991319950066,-0.012651792876452614,0.030046593544117435,0.02765550801782338,-0.03731370461370077,0.009561672715627852,0.05759614417299048,0.009790316359029895,-0.11624144984820761,-0.07140142462835931,-0.059484069274312525,2.1386598235171244
0.886,-0.046974721115583346,-0.019117394507512882,0.0278663161895731,0.03393259627111025,-0.03890692339319949,0.004625928946034735,0.05413989402557651,0.0153061145942608,-0.11043081837100403,-0.06403339897992481,-0.05408214561899826,2.170756605171373
0.888,-0.05023507456580656,-0.02678034158768221,0.023454402560871453,0.03987998328051574,-0.03812469693331225,-0.001893072466855465,0.052457613738995705,0.018959270649129237,-0.10675931946027206,-0.05784329970892977,-0.05192983614471465,2.1940926034285546
0.89,-0.047881301792276725,-0.031974318158847014,0.015901920040654924,0.041051753308675304,-0.03256333557340861,-0.008508140058947065,0.050781673435221705,0.01841653603122639,-0.10806129002274781,-0.05554117902224129,-0.054159082198886925,2.214827881884406
0.892,-0.03939853038032935,-0.03288258065703732,0.006513711449306054,0.03678847424935913,-0.02345579408456993,-0.013774277551733322,0.04529551225379971,0.013234967467336649,-0.11268118630683649,-0.056545199547520276,-0.05887247164694212,2.241644067680137
0.894,-0.029193324969702478,-0.03185080528310129,-0.002655786101855905,0.031100727576133098,-0.01459871645052812,-0.018030495128890683,0.03451552961031962,0.006434244883522788,-0.11569162165274233,-0.059060906929386064,-0.06294497683378106,2.276300334325799
0.896,-0.022994007805950147,-0.03216465274054753,-0.009168614211142574,0.02841354636927021,-0.009625672709286418,-0.02185661089075225,0.021935721312890063,0.0032384447547911016,-0.11445602081920705,-0.06170369346818754,-0.06404353500352362,2.312797285860051
0.898,-0.02274801865671298,-0.03410641753377955,-0.011358353465845,0.029374995179268924,-0.009256980096522623,-0.024368175796634698,0.012930527946453572,0.005908949241462727,-0.11113779616587906,-0.06407734957732417,-0.06246762462148006,2.34610043889985
0.9,-0.02531900128814432,-0.03658932778735422,-0.011271413022033161,0.03188705569038475,-0.010386907249497935,-0.025676421558502218,0.00977254152610311,0.01036276544778169,-0.10995515170630973,-0.06687087831885688,-0.0611389961710851,2.377468036569084
0.902,-0.025945742568995043,-0.0404406062190325,-0.014495407414649268,0.03428836545877296,-0.008187185357066962,-0.029072405642635444,0.009754232487481787,0.009112350637677161,-0.1142231641442451,-0.07100444946662969,-0.06292514690342017,2.4086085639044845
0.904,-0.023551407848208635,-0.047676902091307254,-0.024125161033891698,0.037117843734227614,-0.0011711492550587255,-0.03741985578113302,0.008196020635572994,-0.001509126254769645,-0.12470035866539002,-0.07629945945743959,-0.06772915558195236,2.437010429388999
0.906,-0.02219088147389653,-0.05871439229644572,-0.03652305491852951,0.04234982351642686,0.006359449387552868,-0.04888171340402485,0.0036850012188347067,-0.016718891185867793,-0.13833459788796,-0.08118864211362245,-0.07213068847805841,2.4617730811498864
0.908,-0.025000484124348278,-0.07090705273102677,-0.0459065326819891,0.04979680463175147,0.009901178884956759,-0.05892349417054492,-0.000974372384306636,-0.027246282953147107,-0.14989050226816503,-0.08413732974960841,-0.07260928549558432,2.4875732958166505
0.91,-0.028917850977629934,-0.07972338095108283,-0.05078382199062444,0.05574603705340028,0.010594964939810282,-0.0651254290821214,-0.0036727453934209966,-0.028586546841206532,-0.15616661553889452,-0.08576400973541014,-0.06966908248476533,2.518113852903988
0.912,-0.028801893278321035,-0.08308949593588,-0.054156417139983204,0.05740602678486174,0.012704315163416583,-0.06894498227636281,-0.005996598384748931,-0.024781654367379936,-0.15799043655136996,-0.08869430445633147,-0.06749259224252702,2.5510789698237955
0.914,-0.02399822930169329,-0.08379904755151411,-0.05947333499321023,0.056123943956082833,0.018008276557872634,-0.07340520983310964,-0.009388167159320537,-0.022991455520400196,-0.15825641360322268,-0.0940315430693278,-0.06905806505287809,2.583073930352898
0.916,-0.018040776742834972,-0.08504075356842938,-0.06657726986607283,0.054225225390972666,0.02421091870949607,-0.0787802344841008,-0.012446408683556415,-0.02675544939888868,-0.15924282800498515,-0.09942530831813541,-0.07322601736516816,2.6151382383229036
0.918,-0.014425602899261175,-0.08592133925591373,-0.07126212174149019,0.05202134158112428,0.027383023962358987,-0.0816194594861374,-0.015330305889523275,-0.03487566081455602,-0.16195774162354412,-0.10228194791999576,-0.07705477464159605,2.6502826103079085
0.92,-0.014624892763761332,-0.08448203942339552,-0.06999224530899636,0.049857383596255474,0.025742201164918866,-0.07934437377617717,-0.0215415446690163,-0.04463991637896591,-0.16649505632796568,-0.10302468413862963,-0.07944691669393901,2.689097794005869
0.922,-0.018569384988421485,-0.08284253883326698,-0.06461508457480117,0.050286351079218826,0.021089776642495214,-0.07464520137888248,-0.031059087314565387,-0.05443560211804872,-0.1718751984849533,-0.10348548129286086,-0.08168106080459836,2.7320929922657813
0.924,-0.025093352898080117,-0.08612988109504363,-0.06119491802441598,0.05578157314582529,0.016724769040792165,-0.07398694069473792,-0.036758312336617166,-0.06256478633704685,-0.1761133526308697,-0.10386816751085859,-0.08489006623931314,2.7839776694421032
0.926,-0.03171205114981629,-0.09624932028990428,-0.06432405210035615,0.06499266758648321,0.015138350430685198,-0.08125623656445084,-0.03212537782405093,-0.06537343613793013,-0.1778066342155767,-0.10327815910439579,-0.08806727827980332,2.8492622897016586
0.928,-0.035535328926715515,-0.1089178578495391,-0.07304489225601707,0.07337676392483225,0.017146230801738306,-0.09334323430196585,-0.019544521543012502,-0.060272473854185514,-0.1782689682999994,-0.10234207449686178,-0.08959074431056908,2.9243936356628764
0.93,-0.03601626515007732,-0.11824731537255437,-0.08210877624478287,0.07798766661767292,0.021149240519006834,-0.10324280512803832,-0.007937538580661473,-0.05059221319718776,-0.18068904046815748,-0.10363507461504848,-0.09022281533549623,3.001141497848615
0.932,-0.036508091987432184,-0.12255562218054517,-0.08615972411694894,0.08017093792944494,0.02317743540845861,-0.10670966728865106,-0.0035842816933500526,-0.0436806250394876,-0.18604828016921818,-0.10895604254945349,-0.09264937879980009,3.077310220949282
0.934,-0.04128834500894379,-0.12371586558043952,-0.08257412203865899,0.08296120191694839,0.019438030916964066,-0.10422965921438601,-0.005132132642565865,-0.04346988179232315,-0.19175267185580339,-0.11648740843578717,-0.09787759075321913,3.157171525950518
0.936,-0.05059840548189971,-0.12275423901530219,-0.07228861184737745,0.08706059194396333,0.009686715083686574,-0.09809875778779771,-0.007429510442912112,-0.04761960901115489,-0.19544836783267958,-0.12206585711729001,-0.10384815665367436,3.2422982976361214
0.938,-0.06089082145320205,-0.12002088297918123,-0.059390656144484494,0.0911993362506819,-0.002500539914771269,-0.0907892629215124,-0.007762162086810968,-0.05157835217254535,-0.1976450328920747,-0.12355561550789684,-0.10771799212485718,3.3303921156799534
0.94,-0.06990632208257182,-0.11844823795726792,-0.04893156776047944,0.09557306937078838,-0.012868607163308114,-0.08558310165695279,-0.0066941459316239346,-0.05320039507498038,-0.19960101500113783,-0.12258198924759758,-0.10846121720857811,3.422705383419684
0.942,-0.07787080700815828,-0.12119283086425156,-0.04359814259000392,0.10131887462290108,-0.019240007860481915,-0.08477176144215508,-0.005435868521125868,-0.05424743775540652,-0.20144985003280425,-0.12220802659412991,-0.10737526634249121,3.5231915167749177
