time,I,II,III,aVR,aVL,aVF,V1,V2,V3,V4,V5,V6
0.0,0.001294437620619386,0.0023475394136656664,0.0010750414137347445,-0.0018209885171425262,0.00010969810344232086,0.0017112904137002052,0.00021939620688464173,-0.006647705068604644,0.004914475034215974,0.0014918942068155637,0.002566935620550308,0.001930686620584847
0.002,0.00904206778198516,0.016398326316481564,0.007509513920631745,-0.012720197049233361,0.0007662769306767086,0.011953920118556654,0.0015325538613534173,-0.04643638199900854,0.03432920649431655,0.010421366257203237,0.017930880177834983,0.01348647397991007
0.004,0.028359792318829236,0.05143216573075811,0.023553047858010726,-0.03989597902479367,0.0024033722304092576,0.03749260679438442,0.004806744460818515,-0.14564435716280102,0.10767107592233476,0.0326858623335659,0.056238910191576626,0.04229935125520293
0.006,0.05329350008514257,0.09665092388322466,0.044260703460542145,-0.07497221198418362,0.004516398312300218,0.0704558136718834,0.009032796624600437,-0.27369373772539324,0.20233464439104978,0.061423017047282966,0.10568372050782511,0.07948861029648382
0.008,0.06815100348903293,0.12368662103007641,0.056672498254184155,-0.09585299339748929,0.005684403565703237,0.09016858983178605,0.011588203338291116,-0.35142971583985927,0.25904920388119784,0.07827323180385645,0.1349457300580406,0.10142769885975021
0.01,0.0651037154795573,0.11877204576876306,0.05464822177676187,-0.09155490313816379,0.0048994574377805265,0.08665544570038328,0.011331468736914468,-0.3458181724447302,0.24981767612930897,0.07284930724724707,0.12769498561020512,0.09557838554182528
0.012,0.051694971224692916,0.09628911122285622,0.04510081581909415,-0.07303156268528153,0.0024236810012119372,0.07060788168406962,0.00987350267012703,-0.30850255863166365,0.20702428762321246,0.051377011666439584,0.09809846178832489,0.0723952926288498
0.014,0.03895438731799087,0.07642038012982665,0.037486847706171667,-0.056309676263509426,-0.0006620024589973169,0.05697167872250674,0.00924134556795922,-0.3023434723910545,0.17564264241579597,0.025268315707210522,0.06896449926180377,0.049406421709725486
0.016,0.030219165034630933,0.06458022922329094,0.03417250833178757,-0.046058062858360976,-0.0035655477216560917,0.04962361058001705,0.009592946666124412,-0.33322988157932554,0.16642353595579626,0.0002441035856079435,0.04923478588234283,0.03386266773768468
0.018,0.022763192593373015,0.055454086088985215,0.03258442942139987,-0.03789959298786215,-0.00647157444127286,0.044371167429135,0.00939085296067235,-0.3674498457558671,0.16153586156405186,-0.02344950022639961,0.033957774266706306,0.02135681369251332
0.02,0.014972356164495614,0.04595862695933682,0.031027764465672344,-0.029075866397016495,-0.00962710084513163,0.038681027621459675,0.0070090921139102135,-0.3835446832244841,0.14583064114451602,-0.04607129471655467,0.01638069092723629,0.0053393867076687715
0.022,0.009046553229336843,0.038153909050194376,0.029204399017519558,-0.021957369652010013,-0.011809942779338244,0.03361405704521294,0.0021966357508664104,-0.38790726660078195,0.12209868306101909,-0.06600716150627052,-0.004468690488743652,-0.01448077772229051
0.024,0.007666642749311613,0.03367923193737653,0.02617949983879601,-0.01922929500136962,-0.010954606900514216,0.029747106697178918,-0.00364095172700732,-0.3942581277310509,0.10160327631593437,-0.08187084182147332,-0.02542484175019718,-0.03283184501912013
0.026,0.010675810677099065,0.031231190793120155,0.021002112377676203,-0.02019776190027319,-0.006391824682119521,0.025992817692203338,-0.008452200429788238,-0.4059404859333328,0.0896989634373584,-0.09478688479245828,-0.04334855432872489,-0.045141529445268315
0.028,0.01567121278441811,0.029358921053750667,0.014567450674418024,-0.02238625127255349,0.00014636579979263747,0.022042414031095428,-0.010859918880273893,-0.4172307739607071,0.08364930183526106,-0.1064923588414609,-0.055979481370088624,-0.05057316009819951
0.03,0.0198946398194077,0.02827179038165215,0.00954322797951258,-0.02402723433852962,0.005425175480649629,0.01927547130910863,-0.010952307994560947,-0.4226388820235021,0.07910711110541932,-0.11641675073633417,-0.06175166286073189,-0.05095711325648945
0.032,0.021318167454721006,0.02807076593755576,0.007880092238520065,-0.024241772698885004,0.00699948044191129,0.01855064303693078,-0.010072418429936041,-0.4224528274836803,0.07402951592984616,-0.12318382929630041,-0.061701964063211455,-0.0496212879743337
0.034,0.019310191803552455,0.02678429078680867,0.008312007236489994,-0.022114228552089686,0.005219011832670248,0.018084120523871077,-0.009576620627133908,-0.42200264261185627,0.06770737284698689,-0.12823494798202625,-0.06058144748786394,-0.05051347643842286
0.036,0.014861753661147673,0.021743261442230467,0.0073179027095639365,-0.01702936459332162,0.0027471301544044614,0.014805996049904045,-0.009767213873014498,-0.42643595933035117,0.05972142726045168,-0.134895039510113,-0.06384461824570382,-0.056106392506607185
0.038,0.010376861604022472,0.013224418586352068,0.002909087204001324,-0.010396110228632151,0.0022502022964317617,0.008064214583853053,-0.010114740501409796,-0.43552344582047875,0.050999607888541694,-0.14366638882249497,-0.07311743152848595,-0.06507748595446779
0.04,0.008525839211325346,0.004974628363097339,-0.003682097916079077,-0.005461675964285859,0.004680740726149649,0.0005337999203765939,-0.010398252157772566,-0.4443460840828359,0.043646249071895286,-0.15163177914130818,-0.08538359734160253,-0.07335572030878842
0.042,0.01046773904442408,0.0002854745125068234,-0.010282993545369235,-0.004478150359714067,0.009452927164635395,-0.005053796212423991,-0.011554986899399928,-0.4489998065114289,0.03830812838889228,-0.15708502578774888,-0.09649383034326274,-0.07853041071509535
0.044,0.01511684209994263,-0.0008014049416486522,-0.015905334538813532,-0.00684143184408429,0.015251484083298777,-0.008323634372091932,-0.014720108957463441,-0.44976160078641503,0.03370708192303285,-0.16133374972834777,-0.10418777580750187,-0.08193211003083291
0.046,0.019733863040041003,-0.00026114694416071616,-0.019936685760012007,-0.00988877498291563,0.020026463380670184,-0.010056087304063894,-0.018979311262845598,-0.4490867990315929,0.029558512017745123,-0.16523907468741103,-0.10798513141947262,-0.08601894555335002
0.048,0.02142900797981289,-9.971175919359432e-05,-0.021507500600484175,-0.010903140555555928,0.021639713539492348,-0.010854002761699792,-0.02180740659270954,-0.44881901803866875,0.027094484931508386,-0.16758608063823607,-0.10880319328038587,-0.09151124420585363
0.05,0.018626714267511883,-0.0022135254113105417,-0.020861418926827087,-0.008256318647998931,0.01943878673607624,-0.011886743700894526,-0.022750330045642777,-0.44974688297875265,0.025574767994228097,-0.16809806835644703,-0.10973953452828228,-0.09761468864496042
0.052,0.011554472837709112,-0.00810398743187018,-0.019701968601102036,-0.001614938868599395,0.01464944153877513,-0.01477779327380223,-0.024206595954722018,-0.4523840989184173,0.021595724968983314,-0.16917004840777491,-0.11455158288669466,-0.1032687455790633
0.054,0.0024629637754224245,-0.016795814665572204,-0.01941080057706239,0.007317715988441423,0.009489094207431104,-0.01940596140662386,-0.027352626282226365,-0.4568893598531779,0.013785686214463992,-0.17307841535603738,-0.12340786882863444,-0.1072347421308175
0.056,-0.005105177514011135,-0.024620743163006772,-0.01996196525401662,0.015140561138864948,0.006008415843056298,-0.023564849943736532,-0.03011948501607829,-0.4621246982253932,0.0053270509065035925,-0.17885016460527595,-0.13193010299190924,-0.108526912999531
0.058,-0.008523656234073479,-0.028757483916663207,-0.02097863859901632,0.019371681165847792,0.005358467191795976,-0.025812200740004707,-0.030469110993566403,-0.4654539799503065,0.0001525923963362581,-0.1827602133590865,-0.13544144652743875,-0.10770315729328166
0.06,-0.007279690564456379,-0.029585836196128798,-0.02298853172818735,0.019871838152586276,0.007828269621976676,-0.027100288158915707,-0.02918332873368407,-0.4646551071496347,-0.0010559168277518324,-0.18194990108393744,-0.13306040235101904,-0.10660561858597002
0.062,-0.0025239467464830447,-0.029133062226476714,-0.026843851941960883,0.01779991610137351,0.012790209581754386,-0.029039014457598433,-0.02831160387033804,-0.4607512530112265,-0.0003104104521658435,-0.17772516459405813,-0.12812132929541625,-0.10644844776301347
0.064,0.003330570977775139,-0.02881624871794403,-0.031975361224028144,0.014710962649330797,0.01833559724129832,-0.03168875091449807,-0.0285677705535162,-0.4575381988656028,0.00034450352792627444,-0.17436510782785808,-0.12509525051613407,-0.10694518567633672
0.066,0.00699834843581231,-0.02889333752565305,-0.03568002198463162,0.012399101814673073,0.02160016779263029,-0.0333644450025991,-0.029164635099920518,-0.4573568274888256,0.0002768191881565406,-0.17428844398355503,-0.12548981933073208,-0.10726977973330187
0.068,0.006132716285808809,-0.02905740291466691,-0.035171760559373336,0.0122112013645848,0.020612871690215168,-0.03251777802573078,-0.029313346941089686,-0.4589251738509304,-6.356821548518293e-05,-0.17598695785551194,-0.12722153554789065,-0.10715786682211405
0.07,0.0019194270011442605,-0.029081247072183493,-0.03110406141589273,0.013868471866469173,0.01665351596726727,-0.029887114371426594,-0.029060013869250115,-0.4598307182624202,-0.00017650126539155495,-0.17689753647855666,-0.12789667069312075,-0.1069285180227729
0.072,-0.0017758915370416233,-0.02922426470737506,-0.02750804805235262,0.015747498261136007,0.013405248466647403,-0.028055486120700246,-0.028660426262208206,-0.4592193750707684,-4.684702572639384e-05,-0.17663442442862115,-0.12752806739498435,-0.10687994062904657
0.074,-0.003306474900333438,-0.030490193828811234,-0.027156339575952492,0.017231605948877213,0.012632627354403868,-0.028767852441700423,-0.027520119195976828,-0.45722807090632356,7.427412123912002e-05,-0.1771025982129164,-0.12819548824377927,-0.10698170087638394
0.076,-0.004900168795720241,-0.033784072682314224,-0.02883841309062814,0.01947375736465564,0.012554485478812407,-0.03144709473759653,-0.024703432643278518,-0.45384085948267716,6.079813283666392e-05,-0.1799568302086719,-0.13147882389236823,-0.10705676120424179
0.078,-0.008142975291391116,-0.03804520563736859,-0.029895426545925544,0.022751903525315254,0.011306953149367423,-0.03406550000594947,-0.020939454906494202,-0.4499294275798759,-1.1620967058124545e-05,-0.1841040649169067,-0.13606001438689735,-0.10703708745710103
0.08,-0.011001481129922252,-0.04038712079102942,-0.029407189509578876,0.02508113210081589,0.009623322358493839,-0.03492430261590334,-0.018587459187637725,-0.44747615489182324,-3.8742688210445734e-05,-0.18642106124274277,-0.1385605297807669,-0.1069867374829223
0.082,-0.010708452556757444,-0.03880087962781707,-0.02810642663217265,0.02455518065684034,0.009198416974646751,-0.033717100757686004,-0.01877208389063103,-0.44689624770895015,-1.2151578781746284e-05,-0.184923191797229,-0.13687557000930256,-0.10697342648604534
0.084,-0.006973758620497037,-0.03405769684679441,-0.027078865892804033,0.021376557760030036,0.010595530142914287,-0.03142581395112182,-0.02009052107642121,-0.4458016978203106,1.5344480459475557e-05,-0.1805066292621561,-0.13199875160131322,-0.10699454521582716
0.086,-0.0014889556601846785,-0.02920314798663112,-0.027704130840689692,0.01723326981048315,0.01360648340288083,-0.029866203150085435,-0.020687797333440464,-0.4418846216236822,1.3961250923893358e-05,-0.17610532488876623,-0.12713424389991274,-0.10701189634819423
0.088,0.0037443274381096766,-0.027226505284819194,-0.030968795199299032,0.013956208302060357,0.017656914102260234,-0.030576952195602705,-0.020480198349946816,-0.4356071623797315,-0.0002211019950719367,-0.17449028326826377,-0.12533546134845483,-0.10700865910601949
0.09,0.006692763815180337,-0.02881541199327016,-0.03551269330886805,0.01298254636234058,0.020929216785234753,-0.033151694783229345,-0.02114364320879107,-0.4290109774783812,-0.0015409878943112808,-0.1764612142002366,-0.12750923831122898,-0.10699764392467172
0.092,0.005769938137816949,-0.032694940681482834,-0.0384681484907961,0.01503621564735176,0.02132189522971227,-0.035841715340447104,-0.02406036674714003,-0.4234969084836978,-0.0048098421456515056,-0.18072421322849025,-0.13224053371554603,-0.10699414913070357
0.094,0.0019078157205687256,-0.03754486969289459,-0.03945178186903896,0.019250878957468034,0.019526683342471894,-0.03827188384381344,-0.028131006077148173,-0.41985246411534677,-0.009029673570268019,-0.18479536782481495,-0.1367702851353778,-0.10699849107181376
0.096,-0.0011476504986621078,-0.04250573218603868,-0.04135586577204526,0.02312227999807332,0.01896928130320695,-0.04168736046595516,-0.030377418026201274,-0.41883707619741156,-0.01158502110498822,-0.18633652896588543,-0.13848860061662338,-0.10680501562396189
0.098,-0.0001449224341360542,-0.04616464559218426,-0.04601915780353632,0.02424568599857366,0.021779008413479954,-0.04607994663664797,-0.028887654577507957,-0.4207077091975036,-0.011331653051021955,-0.18451030674851343,-0.13645888101315395,-0.10562270584515766
0.1,0.004656254911002755,-0.04639916793973993,-0.05105636208370467,0.021984264231150154,0.026364509007415368,-0.04884777323311656,-0.02451347714542218,-0.42464490570484,-0.009875327329012862,-0.180356684836061,-0.13184023917299612,-0.1026735382156232
0.102,0.009842866829261648,-0.04229427842833544,-0.05213790241368604,0.01771584917390592,0.02912238019226205,-0.047280028504620424,-0.020127989637961974,-0.42862789682651625,-0.00924211654105999,-0.17625880463243787,-0.12728568270354063,-0.09886920210280856
0.104,0.011838894796616102,-0.03586649476094873,-0.047705238655328,0.01389863578589006,0.027843304024220524,-0.04175188870162158,-0.018080518779808808,-0.43030258516783826,-0.009592319166221079,-0.1741186457009874,-0.12527465437837565,-0.0965702189486201
0.106,0.009586152124525491,-0.031076366236988208,-0.04066203308458362,0.012702991559083655,0.023485399091500058,-0.03581840717460387,-0.01754037870078334,-0.42858581638136106,-0.00939013249428023,-0.17244417823496855,-0.12596973610764553,-0.09680218704389519
0.108,0.004710133799776727,-0.03104541535922785,-0.03575539971503989,0.014932236920259705,0.019049934140047957,-0.03339467754465444,-0.015583239638676541,-0.42441103153797455,-0.00700909042100037,-0.1664928261734021,-0.1273439376990856,-0.0981143079022859
0.11,0.0001542326712261101,-0.035849284660662596,-0.036003710776207044,0.01935162636644481,0.017274870757952386,-0.03595143252645041,-0.01163405934766925,-0.4202434278330839,-0.0021970281175482127,-0.1533946211270083,-0.1276983742096891,-0.0986827311334285
0.112,-0.0018268122217943645,-0.042831045100631356,-0.041004406833495946,0.023533790955412907,0.018883366285774746,-0.04198759734674098,-0.008828486624411035,-0.4185204221200789,0.003531065283882788,-0.13564917560858553,-0.1273695430680699,-0.09835509935584251
0.114,-0.0018305851593363115,-0.04942936827878703,-0.04759876064264868,0.026495926629094498,0.022094125675223744,-0.04883592276305896,-0.010616895761289331,-0.419916861580265,0.007576349557966319,-0.11726420825412728,-0.12822836332079054,-0.09848247283918163
0.116,-0.0029037722926016107,-0.05488630498520282,-0.05198242702533592,0.029530429534175756,0.023888298680208194,-0.05429649507934226,-0.017526688574481926,-0.42345079538444286,0.007580733703815309,-0.0983222401885543,-0.13158078105377846,-0.10053918100806274
0.118,-0.007123546392063533,-0.058852624282507156,-0.05172903968408488,0.033615578604745844,0.022201182449949362,-0.05667376267956827,-0.026753167705656694,-0.42795627193795344,0.0031565720816123244,-0.07623302777552374,-0.136090635142996,-0.10489942767175853
0.12,-0.013030675126207371,-0.06026108213191785,-0.04723044642135125,0.03738950924115886,0.017617366334453603,-0.055263267549315424,-0.03402264527006982,-0.43240262245425115,-0.003078720241509133,-0.051181844060118255,-0.1384098023273521,-0.11013695040195585
0.122,-0.016275202003987348,-0.05814276025392554,-0.04186759792710792,0.03804190186112457,0.013562427661352319,-0.05132932927308998,-0.035955858435649544,-0.4346837673770552,-0.006394502377723833,-0.028077149124581847,-0.13596329947569863,-0.1129251445537268
0.124,-0.013036581078995609,-0.05217367892433814,-0.03913709528729786,0.0335413895521241,0.013676561384531341,-0.046801963001392353,-0.03151379771372996,-0.4319684596574072,-0.003059655980899873,-0.012869935479900263,-0.1287244647392787,-0.10994501363644928
0.126,-0.004123141161989832,-0.04283747693838977,-0.03869237328109261,0.024683013670381844,0.017710460578052034,-0.04191404358132807,-0.02294652490675073,-0.42415981415324616,0.005926058792588474,-0.00693839917687979,-0.11936072332975357,-0.10168682173571429
0.128,0.004919982560328563,-0.03235591148575331,-0.03714456875044874,0.015279583256578471,0.021375498641575067,-0.03589226937828392,-0.014814771920250495,-0.4155987369314858,0.0151727317176455,-0.00602437515707104,-0.11186316586946192,-0.09293731114844675
0.13,0.00867002044613302,-0.025225932200819007,-0.03356854151807942,0.010019901475817956,0.021282175906101052,-0.030209962237697834,-0.010334491725993575,-0.411562533182628,0.020191330059740747,-0.006214041426288898,-0.10912125406814417,-0.087994236814042
0.132,0.006166798677754326,-0.025879424972581527,-0.031623627423117806,0.011518871950238449,0.018572700287990344,-0.028936134009007977,-0.009311380011521098,-0.41367216783801636,0.020950213227586556,-0.00860163281801391,-0.11131926045151987,-0.08708325697196428
0.134,0.0010520619461910396,-0.03400788456025953,-0.03480440580062479,0.017942001852340787,0.017050499655887993,-0.03412297639371153,-0.009768793112202342,-0.41874709866971416,0.020079978194618257,-0.015182653082908896,-0.11575363829443124,-0.08784528134407094
0.136,-0.00188346121855186,-0.043547329074349224,-0.041689536393882336,0.023940436614548893,0.01877850122102306,-0.04240351096127297,-0.010402022219055906,-0.42176529218744996,0.019802913896271233,-0.023728245497291817,-0.11841893543638718,-0.08834340596167015
0.138,-0.0006382783459111441,-0.04769113747476902,-0.04719865340329848,0.02520208338105268,0.022284747726482614,-0.04777697860917651,-0.011688655563323385,-0.4200867149060109,0.02120413902537563,-0.030579725365646272,-0.11691868605024773,-0.08819110166308244
0.14,0.0035469529557053607,-0.04373845507452919,-0.0473266856918371,0.021213917104889225,0.024756043040885273,-0.046540679806908,-0.014773694084570325,-0.4149802984248818,0.024465131919677086,-0.03512731838542513,-0.11208892112939818,-0.0878959388202217
0.142,0.008716517251669338,-0.03366131443790964,-0.04217844840694838,0.013924345712405303,0.025021629479115882,-0.03931917566837434,-0.018936716039933243,-0.4100152486340195,0.028286494979424124,-0.038363045397350706,-0.10715865647876051,-0.0878509121852862
0.144,0.01355578031605584,-0.022267834606677663,-0.03530846188351357,0.006020981318996664,0.024022073926548048,-0.0301020527835251,-0.021563124105849145,-0.40829147343321065,0.030425717777513118,-0.040100576318224085,-0.1050812554023809,-0.08776896009662156
0.146,0.016270933016351016,-0.015135395647176433,-0.030654142196395704,0.0009984879183974947,0.0228145516125831,-0.023780183301021354,-0.021372260465410173,-0.410553484528837,0.030110592425045112,-0.0399725039669556,-0.10594706115588251,-0.0865435820225665
0.148,0.014024432562237609,-0.016124950370381256,-0.029500842287923962,0.0024626026911633322,0.020820079390143922,-0.02316716833477307,-0.019906430079700256,-0.41528542319007855,0.028846497672729742,-0.0389760058968893,-0.10743839412370704,-0.08323573261460583
0.15,0.0054627893709776505,-0.02425193036985992,-0.029522110847401507,0.010786509129395726,0.01646170238274902,-0.02682503160490898,-0.019234683675668024,-0.4197674518217877,0.028346273420950786,-0.038481686867320355,-0.10775572728800745,-0.07894581469138677
0.152,-0.006359261144107093,-0.03342308159883527,-0.027379725486998213,0.021157384003092083,0.009588642729985138,-0.03020710460309366,-0.019681480153916547,-0.4214627376737584,0.02876791467190787,-0.03897827048614824,-0.10712597956593715,-0.07615899007677468
0.154,-0.01473447700591305,-0.036908431239834075,-0.022829135360152658,0.02660846857616457,0.003144239524413653,-0.029900650134071702,-0.020260366319365654,-0.41944808612832196,0.029241245900528106,-0.040694744300834286,-0.10665297969857158,-0.07513170325912029
0.156,-0.014062635395286871,-0.03227662375315078,-0.01897990966496877,0.023340785080772534,0.0013537670314150657,-0.02617946794072811,-0.020296908928416887,-0.41484920292228866,0.02924072334482689,-0.044014742325391085,-0.10676677385235364,-0.07333595010708972
0.158,-0.005155804111714554,-0.022801107563704077,-0.01822718993531728,0.013829778734527067,0.005207797987134607,-0.021620228973710843,-0.01999995363910262,-0.410295855760912,0.028983527721469456,-0.04804398003606747,-0.10707774322040803,-0.06973592749645137
0.16,0.0053359039738048435,-0.014444818849526317,-0.019933723267934796,0.004519000007750502,0.011255750582112053,-0.018521492735347558,-0.019838191732459348,-0.4080552250368603,0.028663527768364446,-0.05026089762234517,-0.10696670710100423,-0.06692451811952248
0.162,0.012225698750406216,-0.011061546933734852,-0.02298827748780235,-0.00019410733756352987,0.016261065165105792,-0.01799420854508014,-0.019922793118140276,-0.4074316144693871,0.027563340544399836,-0.048741313659385485,-0.1056566325959886,-0.06792683665025848
0.164,0.016018370093559837,-0.012758908866461829,-0.02815165690527302,-0.0006662199451034261,0.020648348197668562,-0.020589096577865736,-0.020051412174547548,-0.4055345518296137,0.024722384428800766,-0.044098115657441546,-0.10260151732940857,-0.0726434572208186
0.166,0.01896890349582514,-0.017583080878065104,-0.03579095569073702,0.0007719478948168633,0.025714632415762675,-0.02610833746836727,-0.020066679289161442,-0.4016673543996861,0.020924920282218193,-0.03925494918333195,-0.09881629810737896,-0.07780247675024508
0.168,0.02087557014720983,-0.023160373586053735,-0.04344028791874778,0.0028527131967496164,0.03037170436281121,-0.03272898692723441,-0.020201246982004043,-0.3985642337178217,0.018767630831446027,-0.03711949032121832,-0.09658425503326627,-0.08004872264824246
0.17,0.020259690410357505,-0.02752832190349991,-0.04760383174760036,0.0053845077664698236,0.03241814368118797,-0.037734046246698474,-0.02134472118157761,-0.3983644649963737,0.020151058039396694,-0.03791245010193411,-0.09683776171725474,-0.07913650328058165
0.172,0.016836826169922277,-0.029683258099119272,-0.0466688966001031,0.008163007897503053,0.030898777018954392,-0.03926281972944403,-0.024307486045424646,-0.3998993434685741,0.024425868977229172,-0.039401239311308615,-0.09812363994125303,-0.07753035844843177
0.174,0.011663194366005708,-0.029826764957308165,-0.04166336862917913,0.010829044823650038,0.026500339964026957,-0.03732011351602013,-0.02813950998251822,-0.4008158565045591,0.02882192291346382,-0.039756995272835945,-0.09866777459160092,-0.07718362875412976
0.176,0.00608152902406058,-0.029320606347142047,-0.03541456331002709,0.013356114333785524,0.021014255740760834,-0.03386067048746942,-0.030663694096509375,-0.40055809229048867,0.030599564833143605,-0.03925657228202327,-0.09825510413350755,-0.07786209573095539
0.178,0.000877265122497063,-0.030188938198050623,-0.03098083400822429,0.01625922796000336,0.016387588550573887,-0.03179455029795691,-0.03173254644064911,-0.40065001910183445,0.029104749185331267,-0.03953823104742799,-0.09776207041386437,-0.07837443068533445
0.18,-0.0039505705117659955,-0.03359650405243019,-0.02959809481495494,0.020041197623152728,0.013360359601477861,-0.032702371552687466,-0.03368555548428473,-0.4029280178112074,0.02549406477054256,-0.04203914342321764,-0.09774829290071421,-0.07825283177717848
0.182,-0.008769674906200411,-0.03811516404770581,-0.029390629826890988,0.02428450565032311,0.010844061738893846,-0.03494435246716269,-0.03734558924378436,-0.4077510313793712,0.021005607784707607,-0.046865093089528,-0.09800941559754474,-0.07791666338936509
0.184,-0.013226819784397879,-0.040322554931651905,-0.02726408788513606,0.027320633868331803,0.00745276947994839,-0.034978130710487984,-0.04021278142469497,-0.4134308814952825,0.016411805318821176,-0.05253441296750861,-0.09814163969246432,-0.07760306858154874
0.186,-0.014713877103008323,-0.03722710208957008,-0.02284569032631592,0.026337573595064407,0.004308900924363118,-0.030846460343012475,-0.039698955702185505,-0.4169526597582158,0.012963413011559097,-0.05654404825196851,-0.09806246563699117,-0.07642818029229685
0.188,-0.009273223055932447,-0.027919299252418484,-0.019050905470542757,0.018727504275146502,0.004922974312469008,-0.02364510807232886,-0.03585430049807661,-0.4160638533716753,0.012689692375577079,-0.05656347847056738,-0.09795255183171234,-0.07327137246411575
0.19,0.0035131802867652004,-0.014472633142387451,-0.01825205584604255,0.005361218249602742,0.01079407019228955,-0.01606888080847164,-0.03045913529321513,-0.4119065960496201,0.016545906450277505,-0.05216595772011725,-0.09794325764749791,-0.06902593286957469
0.192,0.01803000079423227,-0.0015474837105074277,-0.01968745875424531,-0.008417157639497528,0.018735024083525346,-0.010422027266461392,-0.025317748034816248,-0.4085819164127458,0.022592044803196952,-0.04593517940256137,-0.09819624913017286,-0.06661661262207758
0.194,0.027166948731745327,0.005905511435150253,-0.02142932085100377,-0.016468391241540953,0.024132874084153905,-0.008180296900167739,-0.02202562921040415,-0.4091224448214925,0.02701643192353586,-0.042607014865979245,-0.0994096867697085,-0.06816207141939695
0.196,0.027996647049813927,0.004857369726753767,-0.02334696421440136,-0.015861163730486908,0.02541865537544874,-0.010482255218557567,-0.02212589968218255,-0.4131802348956234,0.026969324853110845,-0.04591154375266454,-0.10234124357157155,-0.0729225640422847
0.198,0.022738647740525177,-0.004195697852704351,-0.026773547777527235,-0.008164147988211348,0.02439966870935451,-0.01724266708290489,-0.026085024666775678,-0.41864990953575104,0.0225219277288105,-0.054768698392766664,-0.10612018098661344,-0.07780764157318615
0.2,0.01571671469763579,-0.016973208835917047,-0.031968013431050046,0.0020354413830313664,0.023412355156861294,-0.026055413165522998,-0.03222072476807776,-0.423800482390066,0.016304535026484684,-0.063693840507742,-0.10821918651189778,-0.07967972290034825
0.202,0.009547263887218464,-0.028416652702061146,-0.03714291618811465,0.01071985091646396,0.02297924459567894,-0.03361810851463544,-0.03758779943358976,-0.42765180633352895,0.011325091970759718,-0.0682911423704266,-0.10681803299372447,-0.07752972856827181
0.204,0.0043586801468463165,-0.03603095107999929,-0.040068751152271306,0.01665718336678099,0.022160573826833722,-0.03810926451568744,-0.04013744240586798,-0.4296347579255551,0.009077084439360027,-0.06879189663583882,-0.10256656178990477,-0.07276979206510187
0.206,0.00028307732017711015,-0.039732069662548455,-0.040217866301670686,0.020103817188314558,0.020644418277154526,-0.039691793240461605,-0.04001272235646057,-0.42981412397802754,0.009144833258268342,-0.06794538457384278,-0.09819132944575096,-0.0682133817532327
0.208,-0.001439045515149519,-0.040251257081651406,-0.039085685135875195,0.021122934765107192,0.019439922606258105,-0.03955396231657046,-0.038733296498977415,-0.4289270982440118,0.010008325863714973,-0.06761714109360528,-0.09630119779116908,-0.06627856659137363
0.21,-0.00012599624872493322,-0.03853335787951911,-0.03843856416059477,0.019775220795457897,0.019450336484098878,-0.038870761279340145,-0.03695467959875498,-0.42728714289275854,0.010408141659984087,-0.06790103412661289,-0.0970389798728372,-0.06701106046173064
0.212,0.0035326994886601027,-0.03529229862108669,-0.03869416554872803,0.01646907743873263,0.020572738858929514,-0.03798067080540417,-0.03398300702192022,-0.42445276322164166,0.010181164890730808,-0.06816948130354042,-0.09837306687313553,-0.06836154093919126
0.214,0.00844040781333912,-0.03081648970619521,-0.039155167723930594,0.011749247529197322,0.02234976739358021,-0.036383712271205314,-0.030141353563844,-0.42094216872575696,0.0098689229569229,-0.06813044280426296,-0.09867730424912918,-0.06868423071043091
0.216,0.013854315363913593,-0.025482275506647018,-0.039238005295394625,0.006212860230765092,0.024664283702924297,-0.033691020524861705,-0.027826092778385804,-0.41872308515519896,0.009622153457448816,-0.06818658433063178,-0.0983212146227904,-0.06835318089362032
0.218,0.01949704060716796,-0.01979997927380189,-0.0390286179739943,0.00028893530574080457,0.027717463973833407,-0.030129580816706417,-0.029198766238042267,-0.4188351311572114,0.008463687742338334,-0.06944536115746072,-0.09907348114339184,-0.06922826631325685
0.22,0.025018565650216974,-0.014277735681705005,-0.038884040774624956,-0.005576775732339729,0.03131548331249991,-0.026413275498394485,-0.03382603433431222,-0.42004685362756367,0.0052776746983165266,-0.07278322764975725,-0.10211360372810045,-0.07258966394236181
0.222,0.029184002658463548,-0.01002791125267384,-0.03892913395024913,-0.010091133135122037,0.03424216599575059,-0.02370149958207007,-0.03874164860784998,-0.42063264704087816,0.0010094370694263416,-0.0770692688216254,-0.10619471360260797,-0.07709493103463537
0.224,0.03044425503402324,-0.00868786637478892,-0.0391391457029918,-0.011430972511247023,0.035112803382644046,-0.02311520437001402,-0.04092029067206319,-0.4204776954792735,-0.0018335116833385985,-0.07939907520372237,-0.10857624992540672,-0.0795167047833153
0.226,0.028187272928455142,-0.011370279214431078,-0.039709305029957655,-0.008489161528594538,0.033648810589443474,-0.025095412210341263,-0.04010839597160656,-0.42117253298592683,-0.0028994347504664774,-0.07779345757112106,-0.10823284387846215,-0.07783559478703192
0.228,0.022504279342287756,-0.0179559892641411,-0.040536505378102355,-0.0013857102357414989,0.030280666700459702,-0.029136778284372937,-0.038587002559075954,-0.42407552669039483,-0.004683014525855952,-0.07304762784296277,-0.1068225047039452,-0.07300358001675641
0.23,0.013703790231961527,-0.026551998012934445,-0.04021262709920288,0.00823939167091224,0.025148276330369056,-0.03341745003884823,-0.038226011723248084,-0.42812248113067863,-0.008256138203761587,-0.06820238889971111,-0.10626798045781784,-0.06815836620743583
0.232,0.0032391588188479363,-0.03380466726434775,-0.036981719967916035,0.01732768693823316,0.018573297419607702,-0.035486602231949264,-0.03885142632085702,-0.43036507347825553,-0.011280738822326226,-0.06634133571067978,-0.1067436013143552,-0.06634434786755293
0.234,-0.005456301507448384,-0.03676346554032444,-0.03130066602409748,0.02271220648464655,0.012344187284690495,-0.0343622435099896,-0.039346205965025825,-0.4288864106500832,-0.011603293482005294,-0.06847485655094343,-0.10727237062430783,-0.06850031859552719
0.236,-0.008382158219726528,-0.034796289567956565,-0.02644476960152753,0.022787477289026872,0.009448746649628453,-0.03147897500100451,-0.039245173219965915,-0.4245196196959724,-0.01016984566552706,-0.07322090587804421,-0.10726886399926297,-0.07323142356895454
0.238,-0.00439003028875116,-0.030361513473997463,-0.02598966145859097,0.018713226406760007,0.01164160645596436,-0.029553577825676247,-0.03892840820611604,-0.4201316024688817,-0.009234775221346633,-0.07777967284261257,-0.10697998410329478,-0.07777080135869076
0.24,0.003169020692626115,-0.02735400453621082,-0.03051500695775352,0.013807423367027456,0.017411499485757258,-0.030396592149981163,-0.03883225416152968,-0.41829828852843487,-0.009757425927745738,-0.07994258844851058,-0.1070633303411052,-0.07982291313663703
0.242,0.009299892309627213,-0.027482785413177363,-0.03676893431929593,0.01074097190153947,0.022983984007501415,-0.03312388938091883,-0.038959000647559666,-0.419070184070259,-0.011724394868396838,-0.0805261237831561,-0.1084689823474948,-0.07986962069699313
0.244,0.01150428061269589,-0.029077137498526962,-0.040579229215632895,0.00976852141341241,0.02549039303856448,-0.03510264690405219,-0.039071946615307905,-0.42038955886678525,-0.015149188102202497,-0.08244645541151363,-0.11186153710502536,-0.08092453919171967
0.246,0.010807716665142748,-0.029831538305864977,-0.04064570861730634,0.009806480606432213,0.025034607771046692,-0.03501335107849397,-0.0390567282334235,-0.42066815277444564,-0.019091883887782844,-0.0863466369775932,-0.11609365060228952,-0.08511216260835971
0.248,0.009438309151273486,-0.029466038277046004,-0.03890862426234361,0.010215315014912043,0.023571209957386055,-0.03393666368357488,-0.03898783112479391,-0.4201103867562176,-0.02142978930159578,-0.08945281410030223,-0.11858736667886718,-0.09112360336255444
0.25,0.007925654774030939,-0.029597215265893078,-0.0375213909947494,0.011588073700091298,0.022109466555995445,-0.033543259616835984,-0.03896323023274416,-0.41969279000861026,-0.021223613452231352,-0.0896360425290483,-0.11829786025101893,-0.09514937952494967
0.252,0.0051297175906524495,-0.031953262801480614,-0.03707993999525418,0.014912493016046224,0.02027627559498066,-0.034638601214060295,-0.0389890781375216,-0.41979416552645493,-0.01990842374460617,-0.08809159555542145,-0.1168579064950375,-0.09432422148181394
0.254,0.001227127806444797,-0.03679202254996991,-0.038018505259902004,0.019626804585534396,0.018617182229589906,-0.03747238386833642,-0.039014849345067895,-0.4200691243628515,-0.01931687343000655,-0.08717953850973148,-0.11625223701144108,-0.08992382890947878
0.256,-0.0011032986704513142,-0.0424366949148528,-0.041334747325620855,0.023296914779251724,0.01912836320699326,-0.04190702502358896,-0.03901305314028713,-0.42034258046636563,-0.019719661259485467,-0.08755435100662692,-0.11671635828527031,-0.08611920904718527
0.258,0.0010092806686384404,-0.045713659029500045,-0.046723937090612365,0.023348854698836276,0.02301109414407845,-0.046494765350863096,-0.03899813123487086,-0.42141084446885513,-0.020233739309158894,-0.08822978023548336,-0.11726743458308449,-0.08464074717249376
0.26,0.00807351293713503,-0.0433213008200668,-0.05139455284931861,0.01855075752663215,0.02906659725985539,-0.04821365690178355,-0.038991983967911446,-0.42426195202271677,-0.02026334865877659,-0.08835165803374051,-0.11728124532883262,-0.08313209740015105
0.262,0.017415119206020034,-0.03450586436959016,-0.05192031465144161,0.009855188257145538,0.034246078014624176,-0.04454657203193913,-0.03899719093453566,-0.4280816858555968,-0.019998454001961728,-0.08804278413398464,-0.1169886140277766,-0.0799013542657314
0.264,0.024742524280190952,-0.022809287644080658,-0.04752969517237838,0.00046922074066411273,0.03595205138270253,-0.036402281604569806,-0.03900303277330562,-0.43044152912843275,-0.020053247201454957,-0.0878287702223268,-0.1168413239084342,-0.07711179309627483
0.266,0.02719817342171635,-0.014453790365142025,-0.0415209284613897,-0.005507749031943836,0.03428328167573508,-0.02853272125299279,-0.03900298159135394,-0.43023022546095957,-0.021311316421181746,-0.08789492023933188,-0.11693047778358964,-0.07792563132250516
0.268,0.025000602378063057,-0.014508563601124196,-0.03918197753735989,-0.005191818395565373,0.03191055389180154,-0.02660525928372021,-0.03899976911614499,-0.42889476238768953,-0.02437228436486925,-0.08804324066996874,-0.11705337350804511,-0.08254093684708724
0.27,0.02097764127235808,-0.023323958330810753,-0.043857011879307954,0.0009688559793310022,0.03200751346663661,-0.03305089762669139,-0.03899826259324817,-0.42830391297929504,-0.02818867925400767,-0.08807798708655376,-0.11706342239857336,-0.08775430398912193
0.272,0.018405969280436568,-0.036291880810240595,-0.05428890769440492,0.009185145163947315,0.03583164809209122,-0.04511405147991241,-0.0392186923249518,-0.4289407259935134,-0.030651815639978968,-0.08812334905522264,-0.117001164368327,-0.09030107180973825
0.274,0.017894655680425756,-0.04799446680162026,-0.0654340750010146,0.015911191197381387,0.04131629997969745,-0.057233678608624564,-0.040533165792166224,-0.4307746777992416,-0.03170004049523336,-0.08883993672678803,-0.11696594573236536,-0.09071107347516424
0.276,0.016857749144581376,-0.05588456378010537,-0.07198488752078289,0.02065431521659915,0.04437574229017552,-0.06498011327680726,-0.04380742087727686,-0.4340733155800702,-0.03367651176833195,-0.09123274467601929,-0.11698309894244123,-0.09233918257006206
0.278,0.012910723779681225,-0.05980356494168661,-0.0716406766295916,0.024452056068851247,0.042392058252311696,-0.06683883037857397,-0.04803278577323866,-0.4380281919381332,-0.03735900882745694,-0.09565037686005898,-0.11701051144430746,-0.0961944888627477
0.28,0.006673784497880069,-0.06067422294796502,-0.06632197984941673,0.027743024671900894,0.03652031181278626,-0.0644088847472737,-0.05058782901885382,-0.44044074995587934,-0.04033382478771196,-0.10081924433926033,-0.11690454600521671,-0.09921929049763596
0.282,0.0004890973950387853,-0.06081581740041662,-0.060763728441776035,0.030856078601651148,0.030429804355010047,-0.061634948673912955,-0.05033129586328959,-0.44026360073646453,-0.04057302644793459,-0.10410095266810274,-0.11612509236625787,-0.09817977042591611
0.284,-0.004456782873439912,-0.06285086067500008,-0.05852430532813081,0.03458646943147631,0.026710719077929296,-0.061700426477462565,-0.048873624371059333,-0.43892154304005315,-0.03912654679299836,-0.10342056900192625,-0.11371338923755273,-0.09332899601336614
0.286,-0.008800064548534343,-0.06668231779183639,-0.05858110107304482,0.03898536295043035,0.024660173188489055,-0.06375917763251426,-0.04824149804015817,-0.43830131898420804,-0.03823058865371413,-0.09974885979160271,-0.10922214209590203,-0.08812619893627949
0.288,-0.01318494208004478,-0.06926761197980948,-0.057085804460093814,0.042541118999847916,0.022015766035719298,-0.0641973338651237,-0.04859295308016173,-0.4384856761734997,-0.03834023853893783,-0.09643971861077671,-0.10345573846581903,-0.08593224437368124
0.29,-0.016105153626094305,-0.06785480188974842,-0.05270489802743828,0.04289310546432548,0.018694295012229807,-0.06104362888728206,-0.048390772816733964,-0.4377027053848795,-0.03767188593897036,-0.09489093383544536,-0.09757169413592628,-0.08689332824525092
0.292,-0.014155045672895371,-0.061909774539877324,-0.048319524770030334,0.038157167498564015,0.0175494053631065,-0.05552394201869734,-0.04600905033248579,-0.4344652916443402,-0.03452992789843079,-0.09308752865433573,-0.09218396156052566,-0.08849427691799139
0.294,-0.005610614571465132,-0.052538795646659434,-0.046997404940665476,0.028589850410239225,0.02081680706102382,-0.04980670897542099,-0.04119665953018538,-0.4299689774999992,-0.03001665966285402,-0.08974689835121183,-0.08810722489532632,-0.08881185857804841
0.296,0.006472385953197952,-0.04194232052876999,-0.04822025421393573,0.017422195414171764,0.02688125701842949,-0.04492604377939378,-0.035468780535837664,-0.4274838284164242,-0.02736163021765068,-0.08695237034248156,-0.08668889906107415,-0.08812230471071977
0.298,0.015693072967751447,-0.033492367124819504,-0.04904974993751004,0.009518785740134402,0.03132703185609304,-0.04116521808257654,-0.031423777943803737,-0.42912978417144515,-0.028441213952408378,-0.08732905325730904,-0.08864665611405818,-0.08762058080489438
0.3,0.017379327527679428,-0.03075503503563385,-0.048164750520434875,0.008344022984820629,0.031241704931489526,-0.03948481042082746,-0.03141941133778711,-0.4339795926473036,-0.03244373670160829,-0.09104724197079347,-0.09310845337560351,-0.08775329848469637
0.302,0.012924171778975469,-0.034703362018338825,-0.04771315607112486,0.01302674445042122,0.028465948608967298,-0.041276222477570096,-0.03584342761751285,-0.4388524897519034,-0.03762885688546928,-0.0963578477289581,-0.09763669792424087,-0.0880889871038632
0.304,0.008439870239699545,-0.04202904588165012,-0.05049365960048379,0.018729801443007208,0.027552519173734247,-0.046335702040519615,-0.042188339048653045,-0.4408894167755125,-0.04257299173625888,-0.10134997196670881,-0.09949909856361042,-0.0879574925616999
0.306,0.008561403169778246,-0.04735850309976688,-0.0558855376596627,0.020745999945551027,0.030432566970507332,-0.051922981873276104,-0.04627043969978185,-0.4400331740419327,-0.04554670170355559,-0.10445681046441366,-0.09753699367533561,-0.0865033196023224
0.308,0.012976544872015517,-0.04721021769090929,-0.06017891584151547,0.01782278497487695,0.034902191703747705,-0.054544342317150975,-0.045339028505921086,-0.4385679281075301,-0.044793667648363934,-0.10429918199756748,-0.09287160020170449,-0.08311387100556614
0.31,0.018732699311513626,-0.042040640757017564,-0.060931100047566904,0.011906173549850962,0.038211355995326095,-0.052874271250199834,-0.040869719430386024,-0.4382579517569477,-0.04099884879261604,-0.10050204108684822,-0.08825793188234185,-0.07890971970426441
0.312,0.02347405759921424,-0.03530897850490994,-0.05926015211748289,0.006049352719606525,0.039837992394612144,-0.04875655313244005,-0.037088023026349115,-0.43865769511285047,-0.03744408656600013,-0.09465749969603693,-0.08602488135612517,-0.07620826753828223
0.314,0.02582748188584253,-0.030949307718327213,-0.05753312963066607,0.0029959025698586524,0.04027274271274553,-0.04523854951381028,-0.03565570570722091,-0.4378084803649783,-0.035754873847921885,-0.0895040760664737,-0.08543782780146376,-0.0751749258958973
0.316,0.024934400123034217,-0.031288451273191194,-0.05687204465564484,0.004301156290755309,0.03949231812027174,-0.04436000726834728,-0.03415601891250169,-0.4344219524401243,-0.03400934209578921,-0.08697021659442208,-0.0835540836601882,-0.0733296972122495
0.318,0.021665935230800785,-0.03603442047880468,-0.057770172298030366,0.00900708651953724,0.03817211825485673,-0.046751311869778746,-0.030904490249482833,-0.4298905639613108,-0.030780461341588166,-0.08699626285951145,-0.07967329331199076,-0.06970935256349096
0.32,0.018774906254624513,-0.04278681263763478,-0.06091015601955705,0.014059262814592398,0.03831391489578896,-0.0518730302186368,-0.028209921837894534,-0.42736032943332614,-0.028011345258803683,-0.08821509586385982,-0.0766661090469051,-0.066805539362353
0.322,0.01770039025094607,-0.04930723376476907,-0.06589931811001386,0.01753585100176941,0.040724154667534256,-0.058216119867039604,-0.02979438091762262,-0.4285094047600662,-0.028339443694680798,-0.09001572975439037,-0.07723346222425848,-0.06728032773744223
0.324,0.01656489286885078,-0.05485211902726619,-0.07024269226743121,0.020312794480620327,0.043091010634407644,-0.06364152246958213,-0.03682315240583022,-0.43247701719176956,-0.03204211315504113,-0.09303063317987195,-0.0811796268164507,-0.07112593465866117
0.326,0.012876632508334216,-0.05890294813748098,-0.07076950412810412,0.02373958228870777,0.04206199625463087,-0.06596119733729765,-0.046555363191012736,-0.4376075399529149,-0.03749248688051764,-0.0968811781411995,-0.08661585718441156,-0.07656464694990113
0.328,0.007146170140348629,-0.06030377432818674,-0.06667288618555446,0.027133154264801184,0.037120644130501396,-0.06432309520963793,-0.05445309882556239,-0.442654345830379,-0.042836500518334354,-0.09939662655251602,-0.0918203668638486,-0.08171551143868515
0.33,0.002984618493030185,-0.05835508506645743,-0.06086883539572519,0.02819023073822924,0.03170806400844749,-0.06012161495374176,-0.05767971548702514,-0.4462013750757244,-0.046351099267563624,-0.09932309760348601,-0.09527608032247989,-0.08464976056838927
0.332,0.003592675827590487,-0.053898953132616105,-0.05738057941488903,0.025555316558063174,0.029895328560115043,-0.055857349590730986,-0.05616438255872288,-0.446335622690432,-0.04630773822974084,-0.09797379643824464,-0.0952807165740721,-0.08376512945404875
0.334,0.007963517583460259,-0.04936534908440223,-0.057454897231164676,0.021026240171223502,0.03205094902026459,-0.05338185021515957,-0.051383726917743226,-0.44224389331281244,-0.042148877098470344,-0.0972936790903484,-0.09117691035549624,-0.07992898726035631
0.336,0.011872375856805327,-0.047058514923602385,-0.0590562981711799,0.01799272077410589,0.03493528152244147,-0.052934439029364455,-0.045445987976093755,-0.4355699539445301,-0.03573724592710574,-0.09767289370326104,-0.08498477803148922,-0.07642629333794203
0.338,0.013416704356946554,-0.04639494924082615,-0.059813172272901546,0.017022616425495615,0.036181890194198735,-0.053047243294696136,-0.0405436858729953,-0.4288536581532481,-0.030270400601168816,-0.09822407044738629,-0.08080109498237395,-0.07478449927241758
0.34,0.014899928958753689,-0.04451549205874744,-0.05935052330197096,0.015381952102438066,0.03667166500986651,-0.05196740550446248,-0.038098372929601707,-0.4234497603195066,-0.027810176631140642,-0.09828425841465037,-0.08160067846116997,-0.07303320245643007
0.342,0.018082588721235145,-0.04067838702143243,-0.058728742543368545,0.011817908560483932,0.03789156047173449,-0.049750873848431736,-0.03802514306202173,-0.41991091328452285,-0.02803640172995962,-0.09801371867269414,-0.08606245477925314,-0.06977569096286315
0.344,0.020753361927267847,-0.03768961505798971,-0.058462482927073296,0.00893773971263942,0.03902126540535037,-0.04813541385281492,-0.039156230625458505,-0.41869052780165184,-0.02931863921683861,-0.09785167031208437,-0.08969308924459818,-0.06688634743892023
0.346,0.01919514518373319,-0.03824189804397838,-0.05746382325201066,0.009975812405616808,0.03749376198044747,-0.04815774852550048,-0.040972331880878614,-0.4193205042831022,-0.03104370641665293,-0.09792171930003712,-0.08984899677577174,-0.0664587640105462
0.348,0.012191887565257386,-0.04217082254482484,-0.05436487917249247,0.015340418891416036,0.03194072087733995,-0.0491276061284437,-0.044042555883646396,-0.4202875197914698,-0.03398803023250002,-0.0980435436804037,-0.08805475426022075,-0.06776886810864778
0.35,0.002457537033939918,-0.04760704768422974,-0.05005103067989186,0.02261005117995259,0.024533369226906104,-0.05022006305497623,-0.04791067895758866,-0.4204878634247826,-0.037845695378447154,-0.09806350687474895,-0.08705074874409383,-0.06870222349280415
0.352,-0.005564843355494939,-0.053128118953519946,-0.04757756296630584,0.02895951360449872,0.019505243163040947,-0.05180967483230318,-0.05018478925292985,-0.4200827380915193,-0.040183507930602616,-0.09800656909886606,-0.08751569454304572,-0.06868473415600716
0.354,-0.009563708235763763,-0.058536447005056565,-0.04912973455566916,0.03346172778239179,0.019033735119566342,-0.054750367238673575,-0.0487780300336925,-0.41977828971387654,-0.038812880410332054,-0.09796848122784592,-0.08828191252758683,-0.06937668995834537
0.356,-0.010446442756074665,-0.06388824063328945,-0.053928433799197824,0.03676867657184951,0.021642789394959488,-0.058937436069084304,-0.044156944315707956,-0.41984984274528714,-0.03417428946306002,-0.09798136054493682,-0.08839740613019739,-0.0724796412024999
0.358,-0.010176392855674697,-0.06810039971484103,-0.058828092580325335,0.03910324858406271,0.024280793988886232,-0.0627871725280574,-0.03926288489903358,-0.42004893079615796,-0.029252151121090034,-0.09800829741080014,-0.08803605851458982,-0.07696140263742021
0.36,-0.00959409128070403,-0.069563219168958,-0.06110314036790474,0.03973739479653396,0.025290792135987863,-0.06457157522740317,-0.03709116400495504,-0.41988568543230353,-0.027295967554303503,-0.09801413524901458,-0.08758118356853216,-0.07951297183174372
0.362,-0.007515034376874024,-0.0679924480831793,-0.06143355571741503,0.03784042782034543,0.026015192926984478,-0.06452568542009844,-0.03789460133336109,-0.4184908983550175,-0.029426042640951694,-0.09800222365283046,-0.08635258380282967,-0.07790668026077477
0.364,-0.0019270069661420032,-0.0644680765115157,-0.06289519076643221,0.033108599272512314,0.029211696921411255,-0.06434626297904951,-0.03940817798486925,-0.4151471294703477,-0.03422235458712532,-0.09799334819885983,-0.08324721361029452,-0.07303957041043455
0.366,0.006785455618397381,-0.06004957424287674,-0.06637653272049777,0.02647686999441599,0.035182832766556774,-0.06443503009291503,-0.039770050528990686,-0.4109323836175075,-0.038807004296186144,-0.09799560923800597,-0.07905564870795415,-0.0681367639462277
0.368,0.014947962274810222,-0.055444223911606395,-0.06930059988501557,0.020263104235843585,0.040783499746660255,-0.0636249712160649,-0.03892992667981591,-0.40820094228151704,-0.04062575790646971,-0.09800153277576061,-0.0764245936954681,-0.06609499249611164
0.37,0.018853832359159276,-0.05195457287099326,-0.06954251819129208,0.01688246939768851,0.04296920810281895,-0.06181864802972373,-0.03712374695927272,-0.4071590585178115,-0.03910853702547276,-0.09800312827904449,-0.07662637749629408,-0.06696524350506088
0.372,0.017521681037769528,-0.05166802191633039,-0.06811956551858216,0.017545145820439454,0.04162844704867291,-0.060881431663746384,-0.0339488708378611,-0.40532611568652216,-0.035349344509562286,-0.09800065776585673,-0.07809937927129568,-0.06843982425627736
0.374,0.012459455673806692,-0.0555405079013371,-0.0672410986844759,0.021770014417931447,0.03861791357548788,-0.06237947810260731,-0.0300378037974891,-0.40171630106984224,-0.03053971415260618,-0.09799860701013227,-0.07876870579459082,-0.06874661477694409
0.376,0.0063971009001226875,-0.06160130523411059,-0.0675688929771506,0.027449606836386992,0.035710611839561736,-0.06560942784091782,-0.02757863865358987,-0.39870111477738274,-0.025741034060958377,-0.09799897567356862,-0.07853635145516648,-0.06812085926009148
0.378,0.0023026540274966624,-0.0660237891602615,-0.06820364690760146,0.03157757600611855,0.033982898658054574,-0.06823772275446956,-0.027709639903566945,-0.39840307966051847,-0.02278791417963765,-0.09800027091264454,-0.07926960262050656,-0.06765549479405863
0.38,0.0024083692314623016,-0.06596777949534346,-0.068331368034109,0.031634463147448076,0.03412233665603671,-0.06834458276834017,-0.029055096166682972,-0.39984310143523216,-0.02353267924883873,-0.09800068840153672,-0.0825094606395099,-0.06777076358551513
0.382,0.006899370692761753,-0.06151717407489465,-0.0680473319694039,0.027318390726627142,0.03623554748719176,-0.06588609729968946,-0.029702127095397983,-0.40076793101690633,-0.027206797981112304,-0.09800018097493357,-0.08703407507267041,-0.06807827590742785
0.384,0.013218345692285307,-0.055610263051543776,-0.06795168888525151,0.021366651544501646,0.03933949362834286,-0.0626945857267745,-0.029528718605893,-0.4004561973769467,-0.030558940732858884,-0.09819716735296777,-0.08953140789740062,-0.06816224143581005
0.386,0.017034520714815028,-0.05258227848134808,-0.06855532641134528,0.018345243996353452,0.04154040966601452,-0.061290806129301004,-0.03030228965362526,-0.3998039246804969,-0.0321402661637742,-0.09937906155934512,-0.08787582764348441,-0.06803472247076894
0.388,0.014563053353804109,-0.05568419405425209,-0.06956525245991287,0.021730862927308282,0.040809555573299815,-0.06307083388313563,-0.033529238633447436,-0.39965868422804485,-0.03393133253368279,-0.10232611469205549,-0.08301477304698512,-0.0679280590847339
0.39,0.00530869311977295,-0.06406986015030598,-0.0693323178794117,0.030929090968397167,0.03608174278699976,-0.06676902030444502,-0.03802568394314157,-0.3999437622327606,-0.03724518664698796,-0.10612966759299068,-0.07814175649836287,-0.06794669993059867
0.392,-0.006833269479894522,-0.07258772758284703,-0.06616597580775335,0.0411870306660639,0.028495617309833784,-0.06916625579584329,-0.04062630465941123,-0.4000494615039723,-0.03992346865529325,-0.1082319739863559,-0.07611090969153991,-0.0678163466572978
0.394,-0.015480537733552128,-0.07559911451973271,-0.060742803154265536,0.04674385024774184,0.02160064358533972,-0.06794483700812347,-0.03952991580015919,-0.3992306813395219,-0.03901162900692319,-0.10681896390636318,-0.07697012185217307,-0.06665638112673374
0.396,-0.015434228663722557,-0.07104785710531153,-0.05629078490763878,0.04427586174363658,0.019486725361621306,-0.06364736257388073,-0.035549058004285546,-0.39670669174074263,-0.034410003907462565,-0.10256002801767174,-0.07843346803126032,-0.06368343921216822
0.398,-0.006269752682623432,-0.061855912781139236,-0.055999384219430806,0.03504544671238476,0.02378913841190402,-0.059162996970753605,-0.030405396353976377,-0.39228216833856333,-0.029256503686559753,-0.09818770053911446,-0.07874091646909986,-0.05985555386929108
0.4,0.007069969020789788,-0.05337361139261082,-0.060188742900969976,0.024088933773612757,0.03229395462270519,-0.05724551354056536,-0.025568137753078413,-0.3869841324026598,-0.027059938740071114,-0.09650048664572936,-0.07812160617753751,-0.05775575322154373
0.402,0.0183843008009615,-0.04835009278849892,-0.06586089250563174,0.01578042527319809,0.040736285924940344,-0.05791853193950223,-0.022778685076117907,-0.3825569579099772,-0.02870679544154514,-0.09842113391892154,-0.07765896126246133,-0.059183238954581885
0.404,0.025026040054260918,-0.04516086303961684,-0.06933670697766546,0.010536921711347541,0.04608031328654735,-0.058631925629581125,-0.023622611257655766,-0.38027067874970893,-0.03273395306691271,-0.10269950095327841,-0.07777201175036688,-0.06344772174267824
0.406,0.028636642879369015,-0.04109360131509891,-0.06947477866121388,0.006277638569307159,0.048321526523716185,-0.05718201512880057,-0.02725477915078871,-0.3801095892047542,-0.03762276865065769,-0.10680543675719648,-0.07807698036664042,-0.06781479901650646
0.408,0.03189914842029586,-0.03601883030652008,-0.06816778558706464,0.0019318908604860259,0.04944552499104533,-0.0540552385915502,-0.030115925973305615,-0.380676907178792,-0.04241195013858974,-0.10835482448477605,-0.07816094146189624,-0.06949647805280694
0.41,0.0345919548411496,-0.033113162709991074,-0.06794385639776315,-0.0005248301299988975,0.05057972012036979,-0.05201706202956144,-0.029189733695611855,-0.37984494408589187,-0.04547315820832943,-0.10651355081623444,-0.07803480853884129,-0.06757605218887569
0.412,0.033206682534911935,-0.03611269083494262,-0.06916566840385896,0.002412027754339648,0.05031141256213591,-0.05340918193076813,-0.024794320061763846,-0.3764207935883275,-0.04484641122381595,-0.1023482500837555,-0.07792880962163647,-0.06330081141255144
0.414,0.025326565732459887,-0.04474134762962553,-0.06947021085721256,0.011260390473470189,0.046335671322273606,-0.05737238355610443,-0.02010197662065174,-0.37187447913207583,-0.04106416482214068,-0.09825300537042518,-0.07794701145877929,-0.059196248052472776
0.416,0.013267023114648656,-0.05419367075974173,-0.0666442469654169,0.021980000816565586,0.038739837909640085,-0.0606502411485677,-0.01833415092044458,-0.36935589041939704,-0.0378852916323315,-0.09653733149097557,-0.07823293866781401,-0.05764580980729579
0.418,0.0020079015129016737,-0.06058783426981368,-0.06198307718602847,0.030330268541841343,0.030851330956779985,-0.06184662444702736,-0.020388718277212264,-0.3705164103059008,-0.03878549015602093,-0.09779886331776602,-0.0795679388910768,-0.0594858327164778
0.42,-0.005445599158414784,-0.06438033296832768,-0.05891501129775052,0.03568081421795763,0.02604242149336638,-0.06261288554466213,-0.024774558306854353,-0.37448256791636564,-0.04360503993589326,-0.10110853073961999,-0.08281625529901823,-0.06365110930972692
0.422,-0.009792463741328049,-0.06724953790643898,-0.05811264458154557,0.0395003920759846,0.024077177097630038,-0.06383416843835193,-0.02885886406604953,-0.3795843072116428,-0.04885637947155734,-0.10551930749792712,-0.08701802898060773,-0.06774702506138588
0.424,-0.013315801880911948,-0.06879969952425806,-0.056544867470665554,0.04238146657068529,0.021942995782733052,-0.06377560868525156,-0.03053683076306997,-0.3844096711724446,-0.05087329832747266,-0.1103457818047265,-0.08946626114832183,-0.06944109301814873
0.426,-0.016512141254511722,-0.06760403656668064,-0.05209864886705003,0.04341846831101899,0.018274033987830868,-0.060951429105018044,-0.02985632438763575,-0.3872163452219018,-0.048595210920430044,-0.11409716968353609,-0.08845770433013465,-0.06806997823778149
0.428,-0.01720807175675248,-0.06370069812477011,-0.04705099090146535,0.04151252388759635,0.015414501312203576,-0.05665130180645285,-0.02866531067444153,-0.3863871307735211,-0.043695685957127806,-0.11444367453115072,-0.08460189321030326,-0.06456392663142868
0.43,-0.01354907784795472,-0.05936715007489866,-0.04585626912314502,0.03717949224251902,0.01651891409323981,-0.05402756366311932,-0.028398151769636382,-0.3827525868023383,-0.03914238799693513,-0.11037148507506701,-0.07944808959777816,-0.060057942408635066
0.432,-0.006867324086146579,-0.05698012527902437,-0.049907022635315976,0.032498133828921485,0.02149311482262303,-0.05480046553184678,-0.028781639468234647,-0.37968481882356714,-0.03728511274343468,-0.10391258834372441,-0.07443885830475575,-0.05528897765373007
0.434,-0.0002898380414782405,-0.05553802047587741,-0.055123989060891145,0.028433842306686063,0.026682070965378956,-0.05654965935679467,-0.028417814639081974,-0.37942608867733557,-0.038052917461338515,-0.0986526376645863,-0.07141696765956403,-0.05105260696138388
0.436,0.004649479436833544,-0.05123869701064459,-0.05593023014938996,0.02369815462187737,0.028750987755051794,-0.0547590421873749,-0.026061912232989894,-0.38087826090034776,-0.039377955309027934,-0.09665451221114128,-0.07218251255066496,-0.04842281313677821
0.438,0.008788125485128497,-0.04287627098701106,-0.05174931781670244,0.017363278853541823,0.02824906524433509,-0.04854215353297787,-0.02162658461477172,-0.38177052474380463,-0.039669228184536574,-0.09722076367515801,-0.07600960015029438,-0.047917900299622625
0.44,0.013296226659970281,-0.03442399824339065,-0.04771632889890362,0.011014501683939568,0.028520347882946082,-0.042307270549533406,-0.016402584337186648,-0.3814356229300801,-0.03933705779496706,-0.09836449083903447,-0.07957294809971868,-0.048824053522959265
0.442,0.01781232463907044,-0.03139547814053949,-0.04901736137586999,0.00765458741590211,0.03174895073373301,-0.041230939539633873,-0.012624867123402276,-0.380791969029098,-0.04022875256431274,-0.09922845856879414,-0.08124865203062548,-0.05026798466464414
0.444,0.0207511134389961,-0.03606741108068558,-0.05631037420211164,0.009108360238915146,0.03715267296539715,-0.04677957126461936,-0.01253415148458278,-0.3806642932388746,-0.04359869497481963,-0.10088335203903102,-0.08298304583798963,-0.05259104496685572
0.446,0.021244266568043825,-0.04562361383909089,-0.06597174641248336,0.014095090467862545,0.04236898555747625,-0.055944923166650354,-0.01665614397251338,-0.3809530905537674,-0.04809897936053241,-0.10466177432249472,-0.0862139785662307,-0.056592901699112776
0.448,0.020268245311880914,-0.054333658972655234,-0.07346146576979344,0.019013426484060417,0.04565188245076142,-0.0637285981387806,-0.02272935800463987,-0.380941189703885,-0.05051371002678925,-0.11005771563434184,-0.08899015301985212,-0.061687023913539966
0.45,0.01951046067418155,-0.05806943446213765,-0.0764516230209713,0.02107360844070239,0.04674529545118576,-0.06688145207197756,-0.0270218113063554,-0.37956968787951156,-0.0488319550607355,-0.11442310059085595,-0.08866430623740917,-0.06555291420199691
0.452,0.01962900701491093,-0.05640675653564549,-0.07504071163758892,0.020041044000585147,0.04607663940509219,-0.06532007529670285,-0.02689697122200364,-0.3761544619462863,-0.0440034757941187,-0.11475517595445281,-0.0849588603722368,-0.06570533298727411
0.454,0.020084969854293644,-0.051291934715083747,-0.07046837184863698,0.017282606221812286,0.04400536346953427,-0.060765616413867046,-0.022484442654418253,-0.3718928878349398,-0.039160302709128784,-0.11034250181705209,-0.07950593170400364,-0.06164366648927978
0.456,0.02013037501287254,-0.04538255827440593,-0.06469710014663405,0.014339828387493874,0.04108644356380273,-0.055402484812348794,-0.01654551353748829,-0.3693974728539786,-0.037125933516688255,-0.10372896420508335,-0.07405251473102949,-0.055503727091509504
0.458,0.019191932113810463,-0.04138744029166532,-0.06003738435835992,0.012566696927265836,0.03812938845276387,-0.051493390565239015,-0.01288841057191453,-0.3697022448110039,-0.03796717692818849,-0.09858080774229644,-0.06977317414044663,-0.05035340694905017
0.46,0.016622324051588457,-0.04145655466872082,-0.057954592962664336,0.0132842070576482,0.035589540965308815,-0.05078742835900989,-0.013886745356255155,-0.37115041711956176,-0.03942386251805004,-0.09672040418094795,-0.06741373532867492,-0.04798216092329415
0.462,0.01212036692215604,-0.04587598915431083,-0.05815435498169641,0.017069959573317837,0.033306497343452826,-0.0533026012161239,-0.018162233812906253,-0.3717516814401392,-0.03973793546536897,-0.09729142631804708,-0.06705563381403608,-0.04808418093632115
0.464,0.00631406148303789,-0.052597722178485094,-0.05908149643220755,0.022893655134185106,0.03093388683233666,-0.05712648016841933,-0.021785040236661574,-0.37150036718701474,-0.039235122344063324,-0.09847197972682258,-0.06789197760494124,-0.04914087083487279
0.466,0.00014010581583948233,-0.059160640794741044,-0.0594487811913162,0.02911604914828618,0.028378818240858115,-0.06019170585890199,-0.02312303800470401,-0.3722617051984907,-0.03953838681606727,-0.09984542026447642,-0.0692256724377776,-0.05032811619027527
0.468,-0.0057021969068564195,-0.06446582587160339,-0.059164005742435764,0.03477808005264218,0.025893301776035455,-0.061920344345736233,-0.024387591675504177,-0.37552532586398574,-0.042050923565859856,-0.10239303203276402,-0.07155622143622142,-0.05244711450814153
0.47,-0.010070205478957903,-0.06804110199957715,-0.0588382706080077,0.03896482469472091,0.024034343034657225,-0.06281566324085712,-0.027240806014942495,-0.38004596297798193,-0.04687063492016663,-0.10591198277980515,-0.07574226233357201,-0.0564914810998488
0.472,-0.0114624798013828,-0.06902547855661062,-0.05872603412907388,0.04036276702246836,0.023325557997547878,-0.06304326859742397,-0.029772867868961796,-0.38252842818691846,-0.05242093324496567,-0.10809396471676676,-0.08119679257445674,-0.06171714470252996
0.474,-0.00911985031208414,-0.06646145852356371,-0.05835345844531321,0.03814934782152248,0.023844229764616563,-0.06186630260896176,-0.02907998225748687,-0.3808679168629361,-0.0558826388098124,-0.1068720791809709,-0.08545025224686212,-0.06562263690614016
0.476,-0.0030530899993687507,-0.06011220305008786,-0.05754486334961254,0.032374330876171795,0.02578151872743581,-0.05869866457017058,-0.024933707955034773,-0.3760126205225007,-0.05503583762592544,-0.10266047416650828,-0.08570265645227243,-0.06572219205823211
0.478,0.006207481095980069,-0.05156900795765062,-0.05764909638834468,0.02404164700628776,0.03005192867716561,-0.05475701281764387,-0.020223827319927994,-0.37114504543226645,-0.05093142647185268,-0.09820657800777433,-0.08128347307516963,-0.06161366925375303
0.48,0.016599740172404707,-0.04410608961095713,-0.06018121955890763,0.015445714700630254,0.03669011874897573,-0.05250077753903377,-0.018314045765027303,-0.3691136553493381,-0.04771876366222067,-0.0964546788566707,-0.07469594462857444,-0.055699595199397094
0.482,0.023728363026693174,-0.04052409133985194,-0.06372849924587211,0.009830343407421026,0.04249745502176873,-0.05282833227616732,-0.020312433716966748,-0.369969638480805,-0.04877844097562544,-0.09838896359931337,-0.07000086757245748,-0.05189109300335547
0.484,0.023122952314428832,-0.04163862437764434,-0.06455468382771054,0.009956476297269075,0.042756567121214416,-0.05427399858027902,-0.02474931933305143,-0.3714317387771372,-0.05369253784423006,-0.10270913832888913,-0.07010242001841523,-0.052804196661631934
0.486,0.01501819367713909,-0.04641392261086148,-0.06153351936193385,0.015722189623674256,0.03683546556028192,-0.05545873075139032,-0.02888854198307789,-0.3717403542696387,-0.05890200834664295,-0.10682759649567355,-0.07491770346310114,-0.05712148072482868
0.488,0.0055735274340016315,-0.05234505777980403,-0.058052492380100705,0.0231758087081502,0.029999134000817294,-0.05664816498769001,-0.03036732992833157,-0.37112228133457514,-0.060847341121743934,-0.10836014926498333,-0.08139382140777006,-0.06039378599951336
0.49,0.0019565394167557104,-0.056038640780659364,-0.0578691347627817,0.027126721315090575,0.02833930175515801,-0.05826009224382552,-0.028474171987206587,-0.370659590559797,-0.05855791229582371,-0.10650400089300965,-0.08532767250326223,-0.059245640020738274
0.492,0.0067786006480918025,-0.055143923036524725,-0.06139510339486845,0.025033719370149584,0.033413994930071876,-0.059626996759712045,-0.024322616612341773,-0.3707719438883059,-0.05369203610145664,-0.10234078265153884,-0.08425448404992257,-0.05425725822724857
0.494,0.01657565498148514,-0.05090281431353325,-0.06668087883679946,0.0188190786069561,0.041889947708023116,-0.06029668813525671,-0.020262251504404694,-0.37107660452977453,-0.04916099945878113,-0.09825465016016241,-0.0797982417498203,-0.04906087435026776
0.496,0.02473612609252346,-0.04753917718006947,-0.07158956926879619,0.013280833324579753,0.04875214595218514,-0.060919120080629184,-0.018665434817348923,-0.3713801951824169,-0.047295994371875254,-0.09645443381293765,-0.0763194307002078,-0.04716236564405296
0.498,0.025943213089682955,-0.04810442640099377,-0.07371911324807495,0.012514637918716185,0.04998568396298431,-0.06168135360886746,-0.020459187631580743,-0.37256749944384343,-0.048047958388175036,-0.09707756785642348,-0.07623299119140198,-0.049466992837742876
0.5,0.018554460776125856,-0.05217276934194931,-0.07060098636004057,0.017661957266901885,0.04383159335990404,-0.06151239945683209,-0.02462767282002107,-0.37573569730013895,-0.0493696482212917,-0.09830788553485956,-0.07797756826933895,-0.05431456221246971
0.502,0.005174084224247193,-0.05753521233573064,-0.0626348667616653,0.02683414776414128,0.03240902951518953,-0.05999522905472834,-0.028750371451961184,-0.3799798017040757,-0.04966796654815634,-0.09862512225145537,-0.07891994682579123,-0.058828559080802006
0.504,-0.008275217811362857,-0.06236339128482152,-0.054319431028509,0.03615476712265693,0.021449627479661105,-0.0585466697967642,-0.030367722764238235,-0.38260166459488615,-0.04912159233413723,-0.0979150100225982,-0.07845266956584368,-0.0604760205722742
0.506,-0.015540233878164946,-0.06536612115429631,-0.05063280684923466,0.04135767992620848,0.016375553787347914,-0.05871714004873712,-0.028549761555801384,-0.382366818460335,-0.048698764747148134,-0.09619519129343473,-0.07771896887265166,-0.05842108343390101
0.508,-0.013496889472053715,-0.06524879692442738,-0.05285184311639378,0.03982178189436582,0.018662665431775406,-0.060175777853637896,-0.02435850692633707,-0.3808830409592013,-0.04879103109739066,-0.09299100906925548,-0.07762027934431774,-0.05382905672852426
0.51,-0.004470799405227672,-0.06152759511646548,-0.05780200575370637,0.0327217076553846,0.025259117966220067,-0.060944391154957527,-0.020238143460367924,-0.38022661030348043,-0.04906434322199944,-0.08901896563366346,-0.07797190800297783,-0.04930096898874205
0.512,0.0049195365122589475,-0.05569721379195135,-0.06069670353070798,0.024766654371383062,0.03096435654411266,-0.05939405179647779,-0.018217480572650827,-0.3804710049618022,-0.04914452598984608,-0.08643697132190763,-0.07797417787209261,-0.047068661622901256
0.514,0.008802165798071217,-0.05050908751006796,-0.05902412241037506,0.020472284836972568,0.03223212106312291,-0.055649732553994684,-0.017545635908493132,-0.37973646732249305,-0.04903386402009287,-0.08582868065677914,-0.07657516851981766,-0.04643524208445509
0.516,0.006222567140907055,-0.04795093143551639,-0.053987451323016536,0.020815948000631204,0.029175142427166463,-0.05132516780066294,-0.015511019421891287,-0.37648942412781583,-0.04893731677963301,-0.08479081326153887,-0.07313907741424565,-0.04452895191215537
0.518,0.0010116123604116877,-0.04798431591915626,-0.049052672640162054,0.023364216105178342,0.02477967129561976,-0.04839699984046003,-0.011596704673071688,-0.37196207972101203,-0.04895159038811434,-0.0809162959103906,-0.06888254937349654,-0.04066269989936139
0.52,-0.0018207402385957796,-0.04900051813503063,-0.047305442409865575,0.024948872956536673,0.022587744659450744,-0.04790914268850376,-0.008762299924557411,-0.3694673640298968,-0.04923048325959465,-0.07504508390257816,-0.06640093066366154,-0.037784462687205804
0.522,1.825624056859553e-05,-0.04949199746223177,-0.0495397522128498,0.024198165511603295,0.024328343181545756,-0.04944677823375711,-0.009924864665389325,-0.3711256841805494,-0.05056426722485713,-0.07091560773092175,-0.06670953838068847,-0.03889995670036065
0.524,0.005099716222292076,-0.04922547284222182,-0.05427124756920261,0.021935640168876093,0.02902785306290067,-0.05184117388532811,-0.014730901562359386,-0.3759866192709193,-0.05381584148370179,-0.07161477558460459,-0.06815201387474969,-0.0437070367459762
0.526,0.00996557997287418,-0.04884432401361776,-0.058768174807757714,0.01989264611302223,0.03376460002557825,-0.05388829783671562,-0.019845332658738796,-0.3808580835113062,-0.058019835033666534,-0.0760115793064996,-0.06874846385202377,-0.04884750308664651
0.528,0.011655716646552128,-0.048915318726360325,-0.060580516182761376,0.01940416063476372,0.03559945282388961,-0.05473741684181713,-0.022021494813222027,-0.38288825406796784,-0.06077450433650236,-0.07966383536815806,-0.06849795890495217,-0.05081613420381221
0.53,0.009431771220341013,-0.04986847950315954,-0.05932752594320904,0.021039095228124235,0.033624121063151546,-0.05454854714958975,-0.021100116571296165,-0.3820295660240168,-0.06171251216072922,-0.07986311333321998,-0.06926231078613172,-0.04857307683589148
0.532,0.004736358447859331,-0.0523596490885919,-0.057103855877229985,0.02466374402063841,0.029572698041634097,-0.05471385282471049,-0.019527836315345208,-0.38056683923724605,-0.06320649403685812,-0.07807721918140603,-0.0725269293821529,-0.04371606741730046
0.534,0.00025099780725351944,-0.05669527619402184,-0.056935139393176674,0.029178971892074707,0.02675240668455723,-0.056833600695182986,-0.01920228005568078,-0.38025940063240954,-0.06637321628595991,-0.07705364846693671,-0.07704639842273844,-0.03916407546877775
0.536,-0.0015755108472814653,-0.06166172217764109,-0.060076611038210964,0.032625904164623784,0.027443971187764208,-0.06094255417666949,-0.019652984514846098,-0.3807686795004817,-0.0690196768089257,-0.07717571291562819,-0.07941806299838576,-0.03728433644097259
0.538,-0.0001162023776050327,-0.06417764447131373,-0.06406293314118612,0.032947959151629354,0.030534167428086033,-0.06444739652104318,-0.018836611090055865,-0.38046488290687025,-0.0686085627929073,-0.07588855252882847,-0.07701332518074185,-0.03804072337280476
0.54,0.003619567155828364,-0.06114471806685042,-0.06477023646169255,0.02907450642696292,0.032902209275165004,-0.0638201948552079,-0.015437959404954266,-0.37794856347760464,-0.06504872882311152,-0.07046728307428195,-0.06988662698356823,-0.039372560275520226
0.542,0.008471558753442293,-0.05298061567375965,-0.06145420330746469,0.022194866342953753,0.03341937539820874,-0.0585977565835641,-0.01088285807523071,-0.37312733569959605,-0.05999602304868937,-0.061693182194001855,-0.06083032484267159,-0.039673306301445985
0.544,0.013511851070929897,-0.044409589417915715,-0.05789722223147141,0.015579812624347347,0.03391478963141349,-0.052680323678409115,-0.008457611440116544,-0.36746867924076854,-0.055214696869320706,-0.05394356452764741,-0.053756295847670214,-0.03934194932405398
0.546,0.017207575421909108,-0.04056678937397031,-0.057640853425157436,0.012512886310795356,0.03590454710261814,-0.050494296535676705,-0.01016425828443533,-0.36346156054269896,-0.05247878235038846,-0.05158586324115615,-0.05147872572690079,-0.04022886323119485
0.548,0.01741633382321999,-0.042777297471703814,-0.05986640700154122,0.014257743852116402,0.03790251341728655,-0.052633305015845615,-0.01501036604648825,-0.3634375131066172,-0.05333898827509792,-0.05600444589090287,-0.05505721160381702,-0.04359607839695032
0.55,0.01327904984683961,-0.047795367959663694,-0.060653103814770834,0.01910365517025929,0.03688734576727781,-0.0555958203328992,-0.019848375375159738,-0.3678314550613217,-0.05706099807460727,-0.06474294525389616,-0.0638212749237455,-0.048097669175627494
0.552,0.006630456748051948,-0.05106021939110184,-0.05743564593855473,0.02362673017960742,0.03194035314103113,-0.05563769459572333,-0.021870657794247142,-0.3741727417767844,-0.06029552108530487,-0.07285104390535693,-0.07491933172959168,-0.05051451215078077
0.554,0.00032477774822985465,-0.05145258499669003,-0.051802575382334126,0.02605997202405621,0.025429650197397104,-0.05291910202302723,-0.02102645906183858,-0.378269523317365,-0.06065992413455534,-0.07616475422605763,-0.083812141170649,-0.04883305319806575
0.556,-0.0045040246319784155,-0.052042701829084353,-0.04770591473447857,0.027890415311909,0.020497756508667735,-0.0510818094041626,-0.01957495788345362,-0.37734710259100535,-0.05918062467932485,-0.07395341169931302,-0.08646244726145767,-0.04400356258544507
0.558,-0.00873798334235986,-0.055712973302694854,-0.047191474336745115,0.03149277831688545,0.018118467932305263,-0.05272690577405945,-0.019264974082509524,-0.37287407614515095,-0.058213775139049205,-0.06922267276790715,-0.08223169718175612,-0.03915974488570133
0.56,-0.013241984498110369,-0.061364272444983284,-0.04853517134215191,0.03682312696889189,0.016844886127358648,-0.056431851532488655,-0.019657213046347325,-0.3695244902280228,-0.05872233566819045,-0.06642435654279437,-0.07493068961318927,-0.03734501591248789
0.562,-0.01699017720845432,-0.06456678396904617,-0.04827033848925755,0.0407002277487978,0.01504609524786235,-0.05807318288697321,-0.018804417856620875,-0.37071732522025075,-0.06057666850403505,-0.06802031092940908,-0.0702621734576071,-0.03949988531350023
0.564,-0.017467201164305432,-0.061491374760913486,-0.044700066444442556,0.03944821981242304,0.012972658063134511,-0.054697620450973816,-0.015420275038632709,-0.37576911059668144,-0.06367809438565758,-0.07296733885439904,-0.07138200844053798,-0.04423085204202677
0.566,-0.013416964423684102,-0.05293392699145206,-0.039776323048584875,0.03284944918194759,0.012398283095752333,-0.047710101534171274,-0.010891979748068457,-0.3809717973537233,-0.06719003494956656,-0.07790134508165872,-0.07624698092421947,-0.04877076481822974
0.568,-0.0068852135979852475,-0.04408864445850373,-0.0370472755846232,0.024980478640634386,0.014258637735794609,-0.04172047022329381,-0.008252222984298334,-0.3828388734100555,-0.06906895343787933,-0.07991666142965846,-0.07989753658120075,-0.05071350947503925
0.57,-0.002018041637717651,-0.0398348559473932,-0.03759904081282163,0.020604553217457622,0.01702285916860075,-0.03986225202512522,-0.008633417359427565,-0.3805157949138279,-0.0677082215792032,-0.07901920642763803,-0.07984555799788699,-0.049993806245408175
0.572,-0.0020075899101691637,-0.04132918300580571,-0.03929197171783415,0.021589404628169793,0.017923128191519398,-0.0415583550628958,-0.0101967954173872,-0.37567654599862266,-0.06359608991775205,-0.07754663797892826,-0.07794179597978776,-0.04864510794642563
0.574,-0.006863173855150829,-0.04663729827033768,-0.0398754661037782,0.026584773895960905,0.01578052551047265,-0.04456077918806212,-0.010811383410978197,-0.3711765855619613,-0.059265349383113175,-0.07725553359171701,-0.0769988108928748,-0.048316289284084685
0.576,-0.01320014506811417,-0.052507829063048496,-0.0393725271888677,0.032421884797676284,0.012330962817235992,-0.04716266161784357,-0.010064779525376641,-0.3690924956180666,-0.0571010402754597,-0.07766817099396321,-0.07744284777685863,-0.04875313713454937
0.578,-0.015617752955687045,-0.055170469329513507,-0.03952892174148371,0.03507419963110817,0.011167849801731435,-0.048255044855461435,-0.008165548134215304,-0.3685144920233474,-0.05647522140526201,-0.07681479142696689,-0.0774518705782534,-0.04842641423157378
0.58,-0.00970182322584047,-0.0517198588400658,-0.041971436619009456,0.031141596868650277,0.015226860983415795,-0.047199596508564895,-0.004895257716150419,-0.36655379226656587,-0.05454091890561719,-0.07341924405303367,-0.07511988185736296,-0.04593867111625782
0.582,0.003791365375883946,-0.04303382961869007,-0.04683784525714701,0.021019536547362994,0.02410127949491944,-0.04479913441904067,-0.0009893950384721574,-0.36263131578074653,-0.05064940273756516,-0.06888582573193294,-0.07023805595410675,-0.041143603924579476
0.584,0.018390785843364302,-0.03421273649348526,-0.052755805496276384,0.009823001409528208,0.03406806873957995,-0.043299283919703106,0.0011958274575274784,-0.3597559166214245,-0.04755175613816688,-0.06624984673782613,-0.06446113418456531,-0.035372150189610756
0.586,0.027186715258951596,-0.0304423761754503,-0.057971588269443576,0.003389313114495542,0.04129284284588232,-0.044536810025024666,-0.0002715425718833066,-0.36090344890498177,-0.04736778122399286,-0.0666356409993167,-0.059993415039816124,-0.03058299779351181
0.588,0.027809715886662142,-0.03281422249059842,-0.06104230413107842,0.0038738401341905935,0.04395153841230856,-0.04806447318103736,-0.0048725091972592095,-0.36572428309382987,-0.048907609950200784,-0.06819915433859386,-0.05805454555656492,-0.02814974314424824
0.59,0.02263885013189509,-0.03787741804332157,-0.0607615567784655,0.00890753072640293,0.0418968249758718,-0.05099796713653554,-0.009724003180197208,-0.3708538350763967,-0.049818018668105035,-0.06881129663850029,-0.05823098782375906,-0.02803309852093559
0.592,0.015441994090000329,-0.041298916659130706,-0.05671265421575669,0.014431857679779427,0.03612653530778986,-0.05063202578340605,-0.012105883644256521,-0.37324853937361746,-0.04955463852038947,-0.06861194126433659,-0.059154073303661646,-0.029244432476074125
0.594,0.0070216863245645775,-0.043147588064610366,-0.050027838703881014,0.01947907713297773,0.027841821799542022,-0.04785526073702844,-0.012634445513067586,-0.3736316781456844,-0.049647195016881744,-0.0701060435470597,-0.060122760505445114,-0.03183402417864479
0.596,-0.005317384936682193,-0.0484429851439191,-0.04306587709696256,0.027560483987176945,0.017598466418191613,-0.04686702973096209,-0.014409093373041627,-0.3753299341893391,-0.05190661278463279,-0.07578853850141788,-0.06194743931974257,-0.03732657004269592
0.598,-0.0226632008012301,-0.060983191474672134,-0.03836540898084028,0.04162235678157647,0.006472082645703628,-0.05091215573121866,-0.01826968862679429,-0.37923339990194244,-0.056599571344038396,-0.08485126675726992,-0.06574992815616362,-0.04571632120805219
0.6,-0.040561149472934294,-0.07767832571815407,-0.03717134867222972,0.05856609488696111,-0.00291208792585153,-0.0587225813259195,-0.021217054991208784,-0.3824623191336382,-0.06206047072714262,-0.09313164596194691,-0.07095513521382339,-0.0536671059692353
0.602,-0.05072339287047153,-0.08908258396215038,-0.038360667813770885,0.06954376928074033,-0.007364656501401608,-0.06492484847181497,-0.019918268529635734,-0.38248298123719016,-0.06572718899581738,-0.09690527260766794,-0.07441467205795749,-0.056824188885640434
0.604,-0.045747667424155265,-0.08546400862646113,-0.039687634120659225,0.06562087580495224,-0.004462356327239674,-0.0639743804373174,-0.013667852565217463,-0.3795855386623089,-0.06558503810941381,-0.09522686959997553,-0.07205697676624687,-0.052658144663331775
0.606,-0.024797244210702944,-0.06528963121982626,-0.04047787139920191,0.04547647091041362,0.00615302134763609,-0.054925333072919205,-0.004457434027519596,-0.37534924972976635,-0.06160095071387866,-0.08875324774805284,-0.0633664110156837,-0.042304572222375096
0.608,0.003150803234525802,-0.038353246128491746,-0.04151276323437585,0.018471272383000004,0.0209040000854734,-0.042277450709888684,0.004253226435895244,-0.3712764521746933,-0.056153171314707165,-0.07852754702654456,-0.05351230640730952,-0.03101778969506603
0.61,0.023119175933386228,-0.017791987842870817,-0.040923240635094754,-0.0016839025484982912,0.031438038444148685,-0.03087952436183551,0.009614152825784632,-0.3679998950744299,-0.05185086084294941,-0.0666511749210271,-0.04762861134200782,-0.02393995146587027
0.612,0.02484700845766797,-0.008953415917995339,-0.033801437633116715,-0.0074039170973034,0.02953532836280421,-0.021514973111852045,0.011376116260519667,-0.36435177050585216,-0.048275520566524094,-0.05671163571811063,-0.044553577206647585,-0.020506975418512412
0.614,0.013412423424180905,-0.007016857165171492,-0.020445114486999785,-0.003054515599212443,0.017302555618014113,-0.013353242522410469,0.012146373798751916,-0.3586662006446514,-0.04192568232030888,-0.051394281707589765,-0.03988820151866307,-0.016262799392211143
0.616,0.006382105874337659,-0.0035370614692408113,-0.01004701403537511,-0.0010406984468089692,0.008225859281664676,-0.007162816944761903,0.01535795013523013,-0.35092918528231526,-0.0306995916341451,-0.04890922918817765,-0.032534556060796006,-0.009768772516564862
0.618,0.015518144569713161,0.006459001333423256,-0.009388237302166641,-0.010147593402184626,0.012000254008949137,-0.0025908600518521363,0.022123728094477883,-0.34281506633595976,-0.018385382831962567,-0.04441840481320555,-0.02512836946357557,-0.004445131317180376
0.62,0.03477016406846283,0.022241180949282496,-0.01295428152035162,-0.027549192893504795,0.02292693811794521,0.003918241863116676,0.029993266633021928,-0.33668725055485144,-0.012227940097905943,-0.03694237789889655,-0.02028402763452929,-0.00385685894116885
0.622,0.049559997957459544,0.03882955672012014,-0.010986354217356668,-0.04305602770792631,0.028704798815887868,0.014182850974615554,0.035185658613170384,-0.33395901870510164,-0.014261971922021522,-0.03127451116925229,-0.01817217940429582,-0.006934255926941217
0.624,0.05208977660523297,0.04911606587850407,-0.0029248057479889684,-0.04872412713454496,0.025428216745356343,0.023516052794023256,0.036088515487411724,-0.3338025050573241,-0.01848385825988941,-0.03112254498058372,-0.01737414642069034,-0.008827560143796888
0.626,0.04399966590894745,0.04735470018626919,0.0036329669060346757,-0.043009102477081715,0.018188472360948234,0.025011829456248656,0.03446542349496505,-0.33519129622647653,-0.01919733572982928,-0.03473346054153083,-0.017864309330119444,-0.006561452189391324
0.628,0.03054999287913763,0.03477427962321273,0.004614608294263149,-0.029874290134352215,0.011576306383409007,0.01827688390042589,0.03330411452225596,-0.33846375740647067,-0.017449601483691204,-0.038565816323357816,-0.021089212450160412,-0.0019240403520364747
0.63,0.01770570805588502,0.020697472641179052,0.003367642637405777,-0.016797422172306224,0.006399255171786751,0.01028701877534588,0.034258940239790786,-0.34193558792097817,-0.016148987309293168,-0.040958059423970766,-0.025526185403470143,0.0020302675003942817
0.632,0.0107390354419758,0.013821476504845972,0.003281449066764478,-0.010091187085227903,0.0031537214046393138,0.006895999321448981,0.03752658914158199,-0.34093765412630694,-0.01420477303862235,-0.041260308089686934,-0.025805101191192142,0.005204189337708296
0.634,0.011236863029473063,0.013354056754837838,0.002067690818823733,-0.009999761286104893,0.003539815517901412,0.00647846298021585,0.042849291934766116,-0.3336007460826973,-0.009448042470028723,-0.03866050630836284,-0.018860696787916152,0.009509433841209555
0.636,0.01692796101168798,0.012918847658098198,-0.004278367546844202,-0.012762011306869202,0.008827692323578745,0.0038667442338255384,0.04923083828583241,-0.32340015571682873,-0.0029536666430019978,-0.032964720765954504,-0.007622954672754865,0.015077064435920896
0.638,0.024255481657304463,0.011163277043706215,-0.01362083273324119,-0.016371757721549418,0.017187290766885382,-0.0009918104034835375,0.05433063217460392,-0.31451608935203046,0.0030593685949835904,-0.02539042121422306,0.002718580709673758,0.020061405607019776
0.64,0.029936554998417256,0.012564234809146643,-0.01821648287827497,-0.020982638059868105,0.023446775985027195,-0.0024518108405707376,0.05594187561634616,-0.3086236851264685,0.008245069355342213,-0.018294477178064032,0.009126156762956326,0.02345063893450497
0.642,0.03287670053958953,0.01897100085210286,-0.014867444528293418,-0.026083893487526,0.024424228398629764,0.0021439397253331972,0.053925218464236105,-0.305919427987039,0.012792090890473928,-0.013918544522209579,0.011348631259389383,0.02526792327661896
0.644,0.035385098481844915,0.02657520896127945,-0.009461332833826476,-0.030668392374495645,0.02301289661622081,0.00825773016746853,0.04938628069651584,-0.30584416250652413,0.015741975847024657,-0.012549238625016397,0.011000570477781088,0.02533263887858483
0.646,0.03950944077174895,0.03130257810176098,-0.008314205569423052,-0.034349556835290534,0.023359912851338302,0.01063041612942497,0.04294652157050365,-0.3071093620823766,0.016177195473451186,-0.012093659491504935,0.0106040314130722,0.024642185332536804
0.648,0.042924085005312744,0.03315866776053094,-0.009542407168012124,-0.03676625831431359,0.024303745877394752,0.01019198361438382,0.034877117402203464,-0.30936551674954765,0.014432831421962276,-0.010565017053523114,0.01169271389924585,0.02592581305304072
0.65,0.042100834307793676,0.035236103993334066,-0.006694743429781115,-0.03769629133052476,0.02176735998595084,0.012245972164991509,0.025433372273955677,-0.3146204460817106,0.011227709726358432,-0.009028918493217769,0.01273252887650458,0.029940064920086242
0.652,0.038215074488317104,0.04036823607670256,0.002123587424356235,-0.03832622383213086,0.015579467499478151,0.019592941132224036,0.014411234502874022,-0.3249568722843834,0.00647857004070293,-0.011344300448570117,0.010194033004307169,0.03283065473134632
0.654,0.035309218519778245,0.04773802528625524,0.012324881497054279,-0.04004340918610645,0.009520169843550794,0.028987096165127076,0.0012117026343236416,-0.3392010464072664,-0.00101224199043814,-0.020797105260259074,0.0026433236268944512,0.029600517125767646
0.656,0.033516626858573886,0.051967666283608105,0.01841711584702606,-0.041144375186057625,0.005774392122142662,0.03401991231370982,-0.014086312595893758,-0.35373964139372027,-0.012596254461496802,-0.03666425615240049,-0.0075331227730224375,0.019847433816046305
0.658,0.029347521508840606,0.048756411340984254,0.01944886093830341,-0.03820106164338285,0.002924429398758974,0.03208462965737439,-0.028688042862035325,-0.3655262701292978,-0.0270991137032519,-0.05311436135016992,-0.016534640286433044,0.00858325368117497
0.66,0.023104052752905935,0.04168924188478177,0.018622660142991354,-0.032199906582832845,-0.0001115978516115122,0.027673661002164226,-0.037643271775527606,-0.37298961739298503,-0.04029892217441973,-0.0630403752784086,-0.02217593215556191,0.0007412885726987074
0.662,0.020489267023000232,0.03806757260981866,0.01757441391104637,-0.028736544111686524,-0.0007321738162112448,0.025997563243618748,-0.03922788370813981,-0.37606471746882186,-0.04902086437841161,-0.0653070916391936,-0.025380224040408725,-0.0037585028007780237
0.664,0.024216241729834703,0.03845910826361171,0.014220584458949713,-0.02994995156110023,0.003602486991004166,0.025816783628424576,-0.03681594798795453,-0.3765701016861846,-0.05352609835076352,-0.0651831416960264,-0.02865656036391498,-0.007150493804521249
0.666,0.028817023022988976,0.036316291687964256,0.0074907552107021155,-0.030893879387911414,0.010102574703116594,0.02230625863236735,-0.03304040221158136,-0.37745587880134496,-0.05539313738901571,-0.06637693089963184,-0.03214211307602231,-0.0078883703289526
0.668,0.02777797401313664,0.02725011412319536,-0.0005417074292285383,-0.026427806545696035,0.013887374365289973,0.013798159873878533,-0.026952695759002655,-0.380521640912718,-0.05622752752952664,-0.0678289995553489,-0.03307619879607144,-0.0025760501861308844
0.67,0.022617615127131296,0.014515540918124318,-0.00822487997757965,-0.018383903975428294,0.014948667073223745,0.0028670352349690655,-0.018906967825205144,-0.38426275387585435,-0.05746757402367578,-0.06812852085146413,-0.030149271903078697,0.007195279986059101
0.672,0.020865928921709718,0.005716198998701079,-0.015499440058822868,-0.013440408783265877,0.01740261195017816,-0.006326435870469871,-0.012992626759811029,-0.3853937563965211,-0.05907320105022235,-0.06794888129599003,-0.025728714259554593,0.015201457970922396
0.674,0.025861390874049178,0.0055511285463625895,-0.020868995219371436,-0.0150689190522068,0.02244962785339927,-0.01016173547000078,-0.012185270785663511,-0.3836274903704142,-0.05972291517023975,-0.06856529185887124,-0.02313675777961081,0.017535480792970414
0.676,0.031759992228010785,0.01067951192980669,-0.021643606985812358,-0.019106430256456607,0.025753514398757685,-0.008195058774536574,-0.014565428724975552,-0.38244878694468726,-0.05854864296432153,-0.07041233038795092,-0.023692380356829204,0.01587299843597966
0.678,0.030595866768270686,0.011942347104718925,-0.01889557626761291,-0.018129043786010195,0.023540559252264733,-0.005283976084900931,-0.016127983987796194,-0.38394066753302053,-0.05538590586726831,-0.07253291052008638,-0.02637928540500129,0.014138480316240357
0.68,0.02215106805843271,0.003917221552393678,-0.017860992831067672,-0.00993426943978774,0.018493385768732832,-0.007744005148671235,-0.014946415721242097,-0.3854634433890033,-0.05020870320403685,-0.07288767517112181,-0.028842211839037294,0.014170250198713825
0.682,0.012718664270691005,-0.009221083435615939,-0.02099142339131457,0.0007138712059174392,0.015650549118345448,-0.01597908533718281,-0.011448045799551934,-0.3825222375501756,-0.04384024305411051,-0.07003806842711167,-0.028666571575021636,0.014859724753151034
0.684,0.005904349266215634,-0.019700878163482056,-0.024632344561689855,0.008838156524011598,0.01486597158021869,-0.024125669527178584,-0.006739252812473248,-0.3737826588853733,-0.038780511752008515,-0.06542144679009876,-0.025374722069513547,0.01384241798396499
0.686,0.0004822005375860819,-0.024912955007465713,-0.025063817156704752,0.013983135710827176,0.012671551105429666,-0.027688541184396287,-0.00216059550565426,-0.3630696306412491,-0.037786570309137034,-0.06324070424371406,-0.02208378135269821,0.00961250783544849
0.688,-0.003575644775775222,-0.027522886651939162,-0.02433374854833771,0.01753605392187813,0.009723899561919776,-0.028225268894817798,0.0007230564883586601,-0.3565547734035605,-0.04154725855671678,-0.06655560535884916,-0.023600383462459188,0.0030586512976097826
0.69,-0.0034244269056200056,-0.029672130570866734,-0.02676431064945118,0.019061166946617414,0.010228961315117328,-0.029387099868710412,0.0012073472675616813,-0.3578650038496083,-0.048645212959764594,-0.07412465987690639,-0.03181400668838494,-0.003698195457216936
0.692,0.0006587578763141434,-0.031100529172614636,-0.0318833064793309,0.01795746350555301,0.014340320925743574,-0.031889255744716884,0.00016123932839315293,-0.36548108944084295,-0.05701978963633571,-0.0825564278232405,-0.04408258137068932,-0.010401293222208986
0.694,0.002944487563698267,-0.032607407191460346,-0.035346201020937974,0.016825482461446654,0.017105449972903652,-0.034771781242687295,-0.0012314597177393272,-0.37401458445924624,-0.06480201447716502,-0.09099789272534724,-0.055976032054049746,-0.018532640471119622
0.696,-0.0006349549834145541,-0.03648132286328579,-0.035675813308988676,0.019231147819122434,0.01577575539075486,-0.03812768667233781,-0.0024347335932197334,-0.37819996293176855,-0.07079608247645712,-0.10120467260255034,-0.06441923565323251,-0.02776049818939619
0.698,-0.007395833105397244,-0.04290300307217154,-0.03553427407566157,0.02510979624382078,0.012942765609519733,-0.04221326822821099,-0.0021411063959283954,-0.376407983439776,-0.0742231846747245,-0.11207644278652157,-0.06840081812304268,-0.034795852136384114
0.7,-0.012663808206765442,-0.050161736852399746,-0.03762523029351612,0.03177228236074792,0.011953553340291056,-0.04686897554002714,0.001646137718917733,-0.37105690316814227,-0.07446687776876428,-0.1185491114456807,-0.06808355730373618,-0.03674975739910438
0.702,-0.015055403053464032,-0.05756130349741024,-0.04269494409921698,0.03758212072256247,0.013621141113423657,-0.05254077695197836,0.007951243453815366,-0.36663821141681,-0.0725854918603893,-0.11851441253814074,-0.06496242090610756,-0.03412165440298396
0.704,-0.015457430395605112,-0.06489687465038343,-0.04987988956335101,0.04199076973505137,0.017045246016276765,-0.0593309140773288,0.012133212120421523,-0.3665437183126687,-0.07145920566852847,-0.11632493711950907,-0.06205215943971643,-0.029416741938843097
0.706,-0.014629177481536368,-0.07078270520176431,-0.05699614986533779,0.04416028743324221,0.020687449967114968,-0.06550035836429137,0.010653036348613979,-0.37057814385981086,-0.07283991553671418,-0.11780251975869681,-0.06164434018758715,-0.024893958145934068
0.708,-0.013704478443399812,-0.07483171806951294,-0.06213625184407526,0.04475960344137085,0.023111996832710712,-0.06975805329456077,0.004397843450517573,-0.37634307040468096,-0.07589819967766276,-0.12483898968852557,-0.0637187915112362,-0.022988490509326456
0.71,-0.01574270769349171,-0.0808651028686789,-0.06579763527692854,0.048318982504301555,0.023519206503667896,-0.0745758934995849,-0.002547843877063149,-0.3823283277845662,-0.07898921126591316,-0.13458827543747473,-0.0676826008693858,-0.026096143164880056
0.712,-0.02325020452179507,-0.09276774028152869,-0.06958865939944359,0.058786425983413645,0.021814806408741005,-0.0829027473271608,-0.005691806504062926,-0.3876633230088813,-0.08101038987102617,-0.1423463721711081,-0.0733188738919895,-0.03384060688063696
0.714,-0.03226331215508294,-0.1057558908212664,-0.07311844831441387,0.07118084272870606,0.019519456418770318,-0.09161973406746356,-0.002804593046031045,-0.3904048336208871,-0.08056835336589098,-0.1453296168138426,-0.07856876831026402,-0.04208581534318062
0.716,-0.03372664818775677,-0.10858020265051248,-0.07435446312214142,0.0740938726881601,0.019724034057285688,-0.09366699023414933,0.0042784095833401274,-0.38864038262605916,-0.07629184125261884,-0.14371500797509232,-0.07965868545976838,-0.046223587252733796
0.718,-0.024315721087232033,-0.09707159766887719,-0.07237284149657885,0.06337135127865014,0.02359067397570595,-0.0868531463659871,0.010675175787601604,-0.38259931925260876,-0.06979905179905502,-0.13912747724289598,-0.07595427120506637,-0.04511564729134113
0.72,-0.010693893684746577,-0.07897767016280872,-0.0681378554895127,0.046723501601051,0.028263744485646843,-0.07583728379590224,0.012673728718530394,-0.374620547494789,-0.06556009935796712,-0.1337055503618599,-0.07181164622887434,-0.04158620207172812
0.722,-0.0010386742481469802,-0.06402069853805402,-0.06306082677458104,0.033497256163746304,0.0301636635074736,-0.06580823941644776,0.011122759901806225,-0.3677883824522264,-0.06579690243332191,-0.13022946243721434,-0.07156743138440583,-0.0399568333472211
0.724,0.0017365849196187128,-0.05636618434911537,-0.058335497277480136,0.027436189561878176,0.02849134901798046,-0.05906547247806597,0.009913331228938118,-0.36441595690229217,-0.06812021432045061,-0.1309639829015976,-0.07496482206555233,-0.04263883416003049
0.726,-0.0013895545403663134,-0.057052091363996374,-0.05601508466300225,0.029137199643398684,0.025164606495511957,-0.05750621465682737,0.011469886035211657,-0.3645476566193717,-0.06921466943169788,-0.13500566816212972,-0.07847070923037477,-0.047648947155994076
0.728,-0.007592852724667578,-0.0656732395960927,-0.058462868020527275,0.037394462279876785,0.023224896611233965,-0.0627711571439433,0.014309641166491463,-0.36625061169170786,-0.06862978309034526,-0.13846805446383417,-0.07948952359177554,-0.050053117650341636
0.73,-0.013031428617427575,-0.07860523175104063,-0.06579655351184571,0.04775147282951124,0.02484570174400408,-0.07315044618833766,0.014880732975024954,-0.3681542655360825,-0.06835969330693685,-0.13877216693326364,-0.07837227274721366,-0.04674592800171305
0.732,-0.015402149736877433,-0.08991064847123657,-0.0744886667367701,0.05493659450924445,0.0288991705460572,-0.0833084941808157,0.011970235703885812,-0.37036585425768687,-0.06981769000271182,-0.1370310024680098,-0.07670485987613987,-0.03947422372687403
0.734,-0.01544692262683178,-0.0939283815476706,-0.07835619750958903,0.05650846785901657,0.031025991475870814,-0.08709631211312979,0.008908304385076988,-0.37239341971175594,-0.07174433836299329,-0.13536743861295894,-0.07509513312497258,-0.033299312305060204
0.736,-0.014300077323068842,-0.08840005221428121,-0.0740433789618702,0.052736722326522684,0.028881516386359,-0.08225914495721406,0.009854870389964191,-0.3727851424525098,-0.07175704675936612,-0.13388566902976728,-0.07353043269972312,-0.03225949029612844
0.738,-0.012059686281397806,-0.07833790399635292,-0.06629438250960894,0.04635510735291723,0.02564451640825974,-0.07389187410091504,0.014587982545039412,-0.3716392028770118,-0.07026065016676747,-0.13140362075773226,-0.07260899021041586,-0.03636938290488429
0.74,-0.011003440484277895,-0.07369986834389176,-0.06259215160851415,0.043314453162169426,0.024603687967433095,-0.07004132414592766,0.0192319717026517,-0.3711263495189899,-0.07099856288273833,-0.12830979581457352,-0.07321448790840845,-0.042559428853750504
0.742,-0.015123773682784258,-0.07932586752975308,-0.06372440677251928,0.048404687754637195,0.02384631464010771,-0.07309780170577887,0.021078458065622724,-0.37278483862990736,-0.07606161712947966,-0.1271616400826927,-0.07525135936676754,-0.047491755555346536
0.744,-0.02353349832429162,-0.08933952659390404,-0.06489953589076265,0.058411600986130144,0.020602316676746484,-0.07819419686035602,0.020393353165089344,-0.37577135978494774,-0.0821872602127302,-0.12954665585320366,-0.07712666689804204,-0.04916413195036988
0.746,-0.029938934183898494,-0.09419838433763869,-0.06324024283157872,0.06464961677905406,0.016431571697501018,-0.07962722424758356,0.017992169768625964,-0.37867806245551605,-0.08495062384306434,-0.13405327317242824,-0.07730959390137572,-0.04749281250121766
0.748,-0.031148802228009052,-0.09159063651934136,-0.05979655294591508,0.06361273664675865,0.013973385376265739,-0.07671320367062567,0.013472335131331318,-0.38151252198709956,-0.0846622237059098,-0.13834713850235641,-0.07648253813036265,-0.044493913015335756
0.75,-0.030747077245759015,-0.08769995222252415,-0.05687967736325258,0.060418572056056295,0.012676909161646106,-0.07348378755946093,0.00775832417463074,-0.3840838890878168,-0.08404761177904584,-0.14084895022283378,-0.0764331992196687,-0.042676005239284893
0.752,-0.03198797134399671,-0.08811096435371807,-0.056358948046500205,0.06022844117718536,0.011524828891399459,-0.07349022500351045,0.005348012832353333,-0.38444750015578244,-0.08274052349720448,-0.14059557195172023,-0.07674606873244282,-0.04215158856739638
0.754,-0.031367721899870256,-0.08977304346174057,-0.05858481711474393,0.06019583537299816,0.01268730149858755,-0.07510662953239586,0.010012447102097243,-0.3811327158396307,-0.07884939000656052,-0.1382167932439896,-0.07491877712667695,-0.04047665263183254
0.756,-0.0239553685573537,-0.0848057789806242,-0.06096109671125859,0.054012857401908344,0.017861294805298796,-0.07315265867392197,0.019172594537807678,-0.37537143692337005,-0.07392002844847503,-0.13611121343343788,-0.0709139836447796,-0.03686491850509366
0.758,-0.012966814910899972,-0.07218507684055221,-0.05957364817831513,0.04273739950059405,0.023144079072595906,-0.06581335880841523,0.025853901398448554,-0.3699572196473129,-0.0721930577281234,-0.1361132216901639,-0.06952270321705015,-0.03490301660200901
0.76,-0.007089118801825947,-0.0597643833181392,-0.053398731356759384,0.034330312808390585,0.0227762644932776,-0.05701322311144447,0.02582942731416267,-0.3669663600369632,-0.07524327591049923,-0.13839998793616962,-0.07525971507458067,-0.03796215163181947
0.762,-0.010995096186516375,-0.05343912794576884,-0.043165352187236716,0.03356480278515427,0.01484779040009886,-0.04975027995582953,0.021612015958429234,-0.36721929804313286,-0.08041844778494323,-0.1427320708559958,-0.08619231867066737,-0.04364642567610873
0.764,-0.024489017353472572,-0.050741101855735785,-0.026516932996068016,0.038864144854085646,-0.000539265618738002,-0.040687431853186774,0.019973540473604046,-0.3706476319548048,-0.08510464774439976,-0.14893079427667177,-0.09595965877229722,-0.04677036748890636
0.766,-0.04348895527382553,-0.044450164462086994,-0.0007829100725126846,0.044763365326005826,-0.022143332622705136,-0.024179605500776764,0.025656666056862593,-0.3761006762734396,-0.08972690325833071,-0.15681319576582683,-0.10088307839396807,-0.046330356964358374
0.768,-0.05736053697827023,-0.026553897463345594,0.03103797823938041,0.042416719071971004,-0.04422125695029383,0.0019324892236161008,0.03724620967319127,-0.382124271790701,-0.09552713938189131,-0.1667421905807903,-0.10330313381561945,-0.04567583122574461
0.77,-0.05611961703070017,0.008118049745500885,0.06426168420415437,0.02479133730443201,-0.06051283837930926,0.03662526950819413,0.04939499254950865,-0.38807061289359546,-0.10130142936641423,-0.17857687718741985,-0.10867180206597388,-0.04650773314489417
0.772,-0.04483748836861126,0.055466602130411116,0.10019267042161582,-0.003527573413026422,-0.07361591965033369,0.07766410387446139,0.05813561584166361,-0.3938510098643488,-0.1046401861768364,-0.19043315674864728,-0.11967485370339913,-0.04630491198760758
0.774,-0.04065425054935603,0.10187142635078943,0.14243713860353652,-0.027945667085991596,-0.09286906775110003,0.12073152230937498,0.06214501283098991,-0.40023244839793326,-0.10647799240634566,-0.20105749165679712,-0.1328943139128747,-0.04207653228386728
0.776,-0.050209666624319416,0.13639360415659346,0.18650041109115242,-0.04051900634927897,-0.11972709734278099,0.1594260123116571,0.06125041503287665,-0.4069681515638406,-0.10987878891656727,-0.2105578128045572,-0.14081679489226048,-0.03281457282416265
0.778,-0.05941457015953549,0.1598236567996434,0.21896059140426477,-0.048777329933021384,-0.14123111006847575,0.18765030590890228,0.05906021981964163,-0.4071876451175801,-0.1115170735550978,-0.21428753193438344,-0.13539392036819484,-0.016351159163226107
0.78,-0.052242878058872656,0.17548820119995986,0.22731674062525045,-0.061553882231025245,-0.14253907212024314,0.20009680890399048,0.06296330482160113,-0.39022869002675387,-0.10067965659755211,-0.2013410468656114,-0.11039579078081434,0.012066671420316233
0.782,-0.03034721679235653,0.17964838445886744,0.20973880641474052,-0.07512287878276813,-0.12249443215988703,0.19361221738637216,0.07342690003750171,-0.3554295382436699,-0.07171615068694223,-0.16622812582025234,-0.06494143599159238,0.05463559780356544
0.784,-0.006290842794336942,0.17319886770751286,0.17963111666076065,-0.08349351400784813,-0.0942846372327072,0.1754546067514723,0.08085787024160603,-0.3140717138421927,-0.029917601609499998,-0.1153658288122387,-0.004527787955949147,0.10910210735284812
0.786,0.013597850771502244,0.17307921867694315,0.15998173629488954,-0.09262569988453727,-0.07358848773386004,0.16565647857489085,0.08179352855868878,-0.2714856259760785,0.021003891996665393,-0.05418300693276756,0.06656276979826764,0.1758944708669103
0.788,0.03189392686424558,0.19378640169917744,0.16252060440792251,-0.11164808696494047,-0.0654514045960821,0.1772881076793079,0.08544736799474673,-0.2187961447428463,0.08776345634245451,0.024161914659345005,0.1531734335692576,0.26106750424466224
0.79,0.052171638234939914,0.222717601190362,0.17108519835464975,-0.1362241465815561,-0.05987153134264884,0.19586641298590632,0.09473684724815928,-0.15120624081616793,0.17573735851949152,0.13072674773426754,0.26700966109374136,0.3698327910703097
0.792,0.0747948650337801,0.2332680442482566,0.1588088426713159,-0.15304615706888008,-0.04297306354057736,0.1945323031459934,0.0928107599331381,-0.08505820580345866,0.2756609967088516,0.26927772754477947,0.419361892553934,0.5047437647496439
0.794,0.10170857777015396,0.22509745636264153,0.12351477179766858,-0.16258166631789853,-0.012407693647269515,0.17210106139286202,0.053595389437572936,-0.048881590669855535,0.36865806819227376,0.4360194372345057,0.6162996933484253,0.6702244360604753
0.796,0.14473482301446478,0.23504137367761505,0.0903794962496546,-0.1891208510374795,0.025268948178326343,0.15992483761240364,-0.04044096544148301,-0.0600331980245483,0.4435224977797804,0.6262270988075822,0.8571610820085607,0.8708088890490739
0.798,0.22061845268126226,0.29384170245017505,0.0734687373348901,-0.25656576840499357,0.07136074918254728,0.18066157131792956,-0.18378732592484642,-0.10685613553716007,0.5118967560006705,0.8426450156610344,1.137511129724923,1.103204553710982
0.8,0.3290416249644575,0.37589351861900505,0.04725953665658434,-0.3517462731284739,0.13871841215138148,0.20867980039461803,-0.34192354476123366,-0.14918314005460587,0.6073391323493065,1.0981018915892398,1.4533325978670633,1.3519114210592735
0.802,0.4397930031446512,0.40954727988433054,-0.029955463137350136,-0.42334800834854835,0.23348588699957423,0.1871441087039017,-0.4704343325401263,-0.14541601736535292,0.7586320716620317,1.4010290024181524,1.7965478572095672,1.5921107945972162
0.804,0.5106886006486402,0.34893292484764354,-0.16175656360103274,-0.42753795224639257,0.3360908273807783,0.09121318625629878,-0.5511767863571807,-0.0909726977035721,0.9529009307335866,1.7286867342085126,2.1397743864314926,1.7967664531038214
0.806,0.5224681873789572,0.22969232778174511,-0.2929283761655108,-0.3732584439558785,0.40830571980178776,-0.0338499138170126,-0.6018277673394669,-0.028992897604633822,1.1284826794928187,2.0169035476564057,2.427354984321059,1.941338555985983
0.808,0.49612017126594155,0.1372044085397358,-0.35901752239478546,-0.3142310704169101,0.4277674365666964,-0.11316355703743426,-0.6440664279566394,-0.012259325240936175,1.219732745145339,2.1941398032343544,2.597390745605486,2.0051766709195165
0.81,0.46963465214893774,0.11248506571062108,-0.3572390406987911,-0.2897954872933763,0.41258240618926323,-0.1244978857197918,-0.6751024287979059,-0.05016428086892993,1.2158700597404777,2.238739974009631,2.627091388696275,1.9783975851301066
0.812,0.4558593173817445,0.1090566509378875,-0.3470666633427862,-0.2823434012643099,0.3999373812448969,-0.1206109742075396,-0.6801662308050155,-0.10557414318897922,1.161624025114577,2.188427026492438,2.5468541081975404,1.8715951048532027
0.814,0.43558039499881435,0.06347930616113957,-0.3725158640679973,-0.24962404929923818,0.40260586516354163,-0.1557280285765174,-0.6609348003888834,-0.15062489108675414,1.0915759430946017,2.0799293033008754,2.395219727879655,1.7098961014681453
0.816,0.3923780230883298,-0.016438826003041185,-0.4091031096111737,-0.18714512674817013,0.3997358201006964,-0.21425418702074217,-0.6349377376973809,-0.20363583008132455,0.9872907061543572,1.9030501781451776,2.1750482073917174,1.513731242240208
0.818,0.3327015915107393,-0.07011892359919338,-0.4027918452696998,-0.12934817336589266,0.3671315346255737,-0.23846523196855138,-0.611170453331021,-0.2945356769638524,0.8180679753073842,1.637014432072097,1.8750339433889849,1.2928913998326854
0.82,0.2683006328557154,-0.07104847143314953,-0.33908623386357384,-0.0963425582084581,0.30333939469440546,-0.2071227111420135,-0.5844733059796499,-0.41810840592552695,0.5966178674073093,1.3044660990161516,1.516706203900461,1.056384512828181
0.822,0.1997500009350917,-0.05624354391440649,-0.2556982785195107,-0.06974888237214855,0.22748801059143056,-0.15778991665644898,-0.5549254475809886,-0.5462712561189954,0.3618095616595309,0.952769171574714,1.1460815042020747,0.8135539792146005
0.824,0.12413585692176364,-0.0756955175784848,-0.19964851244396634,-0.022461716645857173,0.16140133517560332,-0.1395689053443117,-0.5338264481044405,-0.6668746814170844,0.1265435517246456,0.5985912993676192,0.7844238621581087,0.5664089469316239
0.826,0.04987034372474138,-0.13734961023203598,-0.18712247180773978,0.045303832249438306,0.11710989782391369,-0.1642922691240131,-0.5250929512951205,-0.7801773806914862,-0.11560910726697231,0.23431874733574948,0.4252456857124195,0.3176482200705378
0.828,-0.003826641194907066,-0.2061662685576643,-0.20220483878793766,0.10614652181465102,0.09666249345835219,-0.20592533442203864,-0.5171516415161718,-0.8679292137051677,-0.3384531012090303,-0.11185818871596523,0.08676208298379387,0.08848622907843982
0.83,-0.02744226718170345,-0.2492768696142843,-0.2216681784309497,0.13900025427869825,0.09428149413456506,-0.23660475150407503,-0.4990835663242628,-0.898724662404046,-0.48219028405682574,-0.36700865200474936,-0.17208880935429066,-0.08802219865258795
0.832,-0.03433122017935486,-0.26814680873335883,-0.23374026997246855,0.15173023514970915,0.09782729360641094,-0.2516819650091379,-0.47198777523387353,-0.8666912271739683,-0.5162103241008128,-0.4822760714413101,-0.3083916144542563,-0.19568560882444275
0.834,-0.04188456116585824,-0.2806818089474812,-0.2388637463768416,0.16234401983989755,0.09783477935963152,-0.2605208998807333,-0.44106783126235793,-0.8026836333158218,-0.47379721107922584,-0.4825505457281835,-0.34025112367175386,-0.24435739289820133
0.836,-0.0504490694758359,-0.2927817788451447,-0.24255280540768467,0.17367987869491566,0.09579179146986364,-0.26893980658385314,-0.406044653274102,-0.7422424872837052,-0.41347519225341256,-0.4333853822964135,-0.31917581777438375,-0.25135303386699265
0.838,-0.05217328475186413,-0.30061894121401217,-0.24891473965206035,0.17900962231949089,0.09783050236313605,-0.27690819675995404,-0.3619649100516984,-0.6953706611826069,-0.36640859543833587,-0.3809179675099183,-0.28167745460221316,-0.229216336910238
0.84,-0.04443979283048212,-0.30055633565783973,-0.256813445099247,0.17463190329616227,0.10546959694773742,-0.2812342787876291,-0.3065773824423823,-0.6507616589254024,-0.3290077700113107,-0.3356952131923695,-0.2407539256275746,-0.19206204014465963
0.842,-0.027375929806304575,-0.28920412290064806,-0.2623761829255884,0.15925661694062376,0.1168209232328064,-0.27778539874941244,-0.24661856890405448,-0.6002261234157448,-0.289441253271136,-0.2946880253408763,-0.20332434171260097,-0.1582053580974651
0.844,-0.005277624327817958,-0.26895564689357654,-0.2637187482400141,0.1370903611711784,0.1282727886944685,-0.2675020223310188,-0.1944695488527907,-0.5506529318645896,-0.24688271759358116,-0.25866251711106375,-0.17590650436369068,-0.1386654715047208
0.846,0.00954373767844153,-0.2473873342277647,-0.2566790667596241,0.11865435133024438,0.1315549253261408,-0.2529864103611651,-0.15601752254583579,-0.5121419370526296,-0.206860697787568,-0.229998637739351,-0.1569412643981956,-0.1286552107315433
0.848,0.009086756834130249,-0.22131345792033913,-0.23036147781256955,0.10630437127587679,0.11800323610407094,-0.22714120442178876,-0.12479741565493249,-0.48267511947771047,-0.16842751168635584,-0.20583950147593585,-0.13656455768436213,-0.11580814135793245
0.85,-3.4587732286673885e-05,-0.17989763684331903,-0.18012072169539364,0.09092455573285972,0.08901596866207136,-0.1817523450409935,-0.0905430583455159,-0.4497263228181119,-0.12321523783002357,-0.1789517978604895,-0.10735197094159983,-0.09399432713836033
0.852,-0.008186598210540795,-0.1298597747710653,-0.12189101265377572,0.07059154213454763,0.05657362078068065,-0.12798873766022528,-0.050518747514513844,-0.40431709388055287,-0.06742230660134294,-0.14464990621369656,-0.07146407742789591,-0.06639251512395676
0.854,-0.014308563794105719,-0.09352426687259138,-0.07919291450759304,0.05565180518669773,0.03200720244419564,-0.08863513011302357,-0.011076139608431897,-0.35201139475483595,-0.01194341715070088,-0.10735817102345717,-0.0381840925851083,-0.040352340161080504
0.856,-0.01943794751287834,-0.0782085731221344,-0.0586589927190924,0.050492755840873836,0.018352591402331205,-0.07043062573796798,0.018730681604166383,-0.30970798229304286,0.02384187352002043,-0.07912151484645068,-0.01732886616057535,-0.02309704988796202
0.858,-0.020649013269797546,-0.07097516191787724,-0.05040312689706838,0.04742045730618644,0.013017180688317434,-0.06216310080834852,0.03439943501375188,-0.28943603868019496,0.030549404591066094,-0.06821621233650026,-0.012308327517520172,-0.017804738032090598
0.86,-0.01794811912477524,-0.06400652945257672,-0.046432251049581756,0.042331739352877075,0.012213365900030446,-0.05652124579320438,0.039423910234066384,-0.2871408042118246,0.017809412314832438,-0.07135105187321203,-0.01748648878844845,-0.02105899233206117
0.862,-0.017694476552706246,-0.06373919194594022,-0.04651935784775142,0.04172272368833713,0.012303031426518434,-0.0566487331591789,0.04183180209952989,-0.2898501691107855,0.0035009721221727005,-0.07977459312457941,-0.024492772943182903,-0.02621412835746108
0.864,-0.02379315126068079,-0.07360944182797126,-0.05007149523650656,0.04992577286375406,0.011037622309674706,-0.06333151043236313,0.0470812048454654,-0.28963211709131376,-0.0020238536280709203,-0.08802480584967369,-0.0296262756521082,-0.02869188465659248
0.866,-0.0313642769118906,-0.0832895726668484,-0.051871085978715786,0.05944195006407999,0.008515831563547273,-0.06865539584568335,0.055051139973507385,-0.28690110821668346,0.0006534241011526241,-0.09400521757812413,-0.032510795910830476,-0.027566759141657828
0.868,-0.03242086572411261,-0.08029507307124463,-0.04771495289017188,0.059151159182728535,0.006559381130234017,-0.06488295429650945,0.06272816504317176,-0.2843991397104748,0.0075752875756331965,-0.09585326077981964,-0.031879988466062305,-0.02451855741107121
0.87,-0.025568760681551776,-0.0662850441646016,-0.040662205880741785,0.048389074174135856,0.007128055435412965,-0.054645992291397466,0.06829721124323783,-0.2830852154892301,0.01691484015338639,-0.09205234036244837,-0.026750342319624636,-0.02149590360572793
0.872,-0.017970271029849764,-0.05551350012553001,-0.03762300684387888,0.03817130795839557,0.009967718958155179,-0.04812244040657108,0.07267051516753126,-0.2826782359071523,0.027226356276376578,-0.08382727859914418,-0.01942265341403829,-0.01905691487520065
0.874,-0.016462388113720573,-0.05721165815487132,-0.040937610274255166,0.037528265309600406,0.012709382473566358,-0.05069904170616603,0.0771838567735383,-0.2824524819258481,0.03499362240088829,-0.07638532090758922,-0.014607185424632607,-0.018243521580691667
0.876,-0.018841239156071405,-0.06508393112311514,-0.04656617256064647,0.04249763853335456,0.014370578920083288,-0.05710227890276189,0.08106368663656699,-0.28063287202512316,0.03722930433857499,-0.07523656119006855,-0.015206947078965968,-0.02160838149010739
0.878,-0.017968456420840283,-0.06613559538137699,-0.048556894116201274,0.04241354174177293,0.015665677867678866,-0.057941627237022564,0.08285499371288069,-0.2751810218861229,0.03519885178823039,-0.08004361392816564,-0.019777186117902815,-0.02915611190499521
0.88,-0.012322063029430117,-0.055365178406490606,-0.04330705631295219,0.033891457251148005,0.015525523029175179,-0.04931151926214532,0.08303956178616641,-0.26669770615819033,0.03309053902779776,-0.08466299850182278,-0.025005947349275345,-0.03620088522202371
0.882,-0.006876379034645309,-0.038803129671915425,-0.032043834032237296,0.02306475086867956,0.01186246408382579,-0.03543504223647117,0.08362047529266371,-0.2587971271836838,0.03365548576611971,-0.08394646744915835,-0.028914802154877958,-0.03790085709578462
0.884,-0.005184034833019586,-0.025195387614776434,-0.020205821996822908,0.016264567599644737,0.0058840844150454975,-0.02355533305545514,0.08618961282464783,-0.25440548385981565,0.03641678310210216,-0.0785587170843576,-0.03021862520291132,-0.03371246378580265
0.886,-0.00621360555981965,-0.01843936859343591,-0.012606984860482989,0.014357457673557117,0.0011873344678054298,-0.017291054135352594,0.09090141874011032,-0.25334699910230796,0.03923039926691462,-0.07353977241556076,-0.027548144440969046,-0.02710822490214869
0.888,-0.008157911024529278,-0.01743129496485249,-0.00972124880200301,0.015403387424786126,-0.0010877940522887222,-0.015333442112603284,0.09625001443284807,-0.25353245191570206,0.04116948306048389,-0.07288573974123574,-0.021336621493134502,-0.022356730299217937
0.89,-0.010714123805829118,-0.01969910321950104,-0.009493084814862164,0.017912320661715084,-0.0025246416966001202,-0.015461050564698662,0.09950710871663837,-0.25262527535723034,0.04426027889341325,-0.0748499965914101,-0.014544367347992198,-0.020623486975847632
0.892,-0.012960916587356276,-0.02318896659636551,-0.010968025084494227,0.02036000226738086,-0.0033548633822628265,-0.017356177188454055,0.09861027221576693,-0.24934709737077365,0.05103052505834926,-0.07388014583226651,-0.010025754493782797,-0.019391808995389986
0.894,-0.012535167781400342,-0.026821353769811852,-0.015201822369221955,0.021065407895056874,-0.0013330005034644767,-0.021867288476196692,0.09480992033906471,-0.2448366697872348,0.05987597574163253,-0.06807494253841383,-0.007818046706050267,-0.01674276301995233
0.896,-0.009613717747157696,-0.0312926844235811,-0.022362393383562502,0.020866569875131125,0.003964728156145268,-0.02894121877273644,0.09230458819732781,-0.24144668191945656,0.06564146077171319,-0.06179277453108777,-0.005995106461752614,-0.014019236440125156
0.898,-0.008194351302888396,-0.03675621973750792,-0.02870966767211777,0.022527114745145384,0.008564835520574153,-0.03561479889565026,0.09378818998974642,-0.23947043895740383,0.06577007434364283,-0.05933938270143677,-0.002984525789677695,-0.012832790110893142
0.9,-0.009474801068697889,-0.03917720401790531,-0.029481644948097963,0.025065761834445144,0.009014910765292821,-0.036835168732687655,0.09754266706940265,-0.2372421358204676,0.06317924792181394,-0.05939116387787495,0.002144106166251735,-0.012203299359918257
0.902,-0.009088057011380955,-0.03354621682589789,-0.024267302648042142,0.02340900761768566,0.006681574635372037,-0.030171463668922118,0.1003386331929593,-0.23437065433974086,0.062370176971491,-0.058064101265230886,0.009163331932174371,-0.010321347395891108
0.904,-0.005147341860293027,-0.021590623572851426,-0.01646165451024377,0.016443638514585825,0.004058332208380968,-0.01910410681888865,0.10189164205390533,-0.23186971334338394,0.06503053695058407,-0.054635995178655035,0.015558816218947372,-0.007029702806744148
0.906,-0.0022606728042473706,-0.011504059448778763,-0.00935333250260609,0.009903640351337673,0.001274135952274818,-0.01032939197119555,0.1044794926504293,-0.2293284853656554,0.07023188222744638,-0.051039299910619576,0.01899578574758997,-0.003173445379540846
0.908,-0.0037141665984982623,-0.008850737733130196,-0.005179477354559041,0.008483589886244522,-0.001350051896872386,-0.00796145507791853,0.10882931332504157,-0.2253045737166553,0.07680180403404814,-0.04776467837972326,0.020633455842703388,0.0009432986262407175
0.91,-0.006382706519362284,-0.011127912384501153,-0.004706240102149166,0.01009741554424495,-0.002083095739883343,-0.010235227282672798,0.11265984830814485,-0.22050958212647795,0.08390591268698835,-0.04346374255747277,0.023390875243899763,0.005166001113982946
0.912,-0.00592774477593516,-0.011898125042383618,-0.005928488313637779,0.009873263673593103,-0.0005116925809059286,-0.011669125894031648,0.11349558058372218,-0.21751947573842625,0.09038090926272843,-0.03766170165809216,0.028280543404106257,0.00843738979958876
0.914,-0.001963607798159923,-0.008645711331712335,-0.006683335155249364,0.006425519464930411,0.0022232868456624534,-0.009706595551123359,0.11112149859679667,-0.21754759325472436,0.09435570758766504,-0.03215775933921148,0.03356605034774555,0.008966821990536295
0.916,0.0026369401749715624,-0.005313307171280869,-0.007973671422706061,0.002967084336260374,0.005339525723089077,-0.007967835837515978,0.10734846465442753,-0.21938241944219022,0.09403947225775033,-0.029401241479006263,0.03603118442772391,0.005764746280597913
0.918,0.004533441938783364,-0.00608930250087855,-0.010633254987316444,0.0029640822602196625,0.007612308104481326,-0.00997613791336063,0.10479188412972823,-0.2204953968575729,0.0902168853565821,-0.029476866933092163,0.03381695076513319,0.00030219824329440973
0.92,0.0031534141097922345,-0.009111701979450394,-0.012257354700049364,0.005259551525724321,0.007361633869821088,-0.013195027551261606,0.10498018731889709,-0.21919491953993323,0.08644760156175633,-0.030047676349474636,0.02878956962247222,-0.00426735905578141
0.922,0.0024953176803621155,-0.009429492900297666,-0.011915368681423046,0.005033036106127285,0.00603833485363317,-0.01364433473469898,0.10690983279612983,-0.21706295406952344,0.08497786963679192,-0.029469460211334418,0.024657062719619156,-0.005806290813346971
0.924,0.006638024257279072,-0.00589710528203819,-0.012534855402479615,0.00028610840271795553,0.007625334607703346,-0.011899437820996776,0.10869090366161042,-0.21735462459759947,0.08536467037145008,-0.0279593080465433,0.0234238441059365,-0.0038532650303410364
0.926,0.012752901446757597,-0.002163717864459479,-0.014921640965448908,-0.004638695422713585,0.011808809876942312,-0.010523997154403992,0.1098683905778236,-0.22010000681290884,0.08778764790738347,-0.02611851244136513,0.025113199392687677,0.00155672599719946
0.928,0.012689616975838345,-0.0019400660484361382,-0.014632231186727383,-0.0038947820282600153,0.012282123615228312,-0.009390019380773948,0.11034094001771062,-0.22196415940157155,0.09298519651578784,-0.024304652074699305,0.02878090247814812,0.00933486177160165
0.93,0.003064957581390264,-0.0045378984795163,-0.007601332757779262,0.002484014731588411,0.004714825836002166,-0.006291556875809574,0.10859982917625444,-0.22122106988215107,0.0989790747516973,-0.02281003316621269,0.03188258178783237,0.0163342432537603
