time,I,II,III,aVR,aVL,aVF,V1,V2,V3,V4,V5,V6
0.0,-0.001294437620619386,-0.00043879241376928345,0.0008556452068501026,0.0008556452068501026,-0.0010750414137347445,0.00021939620688464173,0.001294437620619386,-0.00043879241376928345,-0.0033128827239580897,0.00010969810344232086,-0.0036419770342850525,0.0005265508965231401
0.002,-0.00904206778198516,-0.0030651077227068346,0.005976960059278327,0.005976960059278327,-0.007509513920631745,0.0015325538613534173,0.008932369678542839,-0.0031528662054606913,-0.023251261409878918,0.0006565788272343878,-0.025440394098466722,0.0036781292672482015
0.004,-0.028359792318829236,-0.00961348892163703,0.01874630339719221,0.01874630339719221,-0.023553047858010726,0.004806744460818515,0.027593515388152526,-0.010226510466178396,-0.07345781639247861,0.001637095299732549,-0.08001135425647199,0.011536186705964437
0.006,-0.053183801981700245,-0.01815335173195473,0.03500851062905706,0.0352279068359417,-0.04415100535709982,0.008813400417715795,0.05089012785473331,-0.01998829103352828,-0.13956487819255256,0.0021130260818909606,-0.151257581622836,0.02159095341628719
0.008,-0.06738472655835621,-0.023701669738369742,0.04355174105453962,0.045084294915893025,-0.05579652322006512,0.010055649476937698,0.06385400138361737,-0.027008921533307053,-0.18201133905434763,0.00127770335684534,-0.19563836601509763,0.02719866646735731
0.01,-0.063029437559475,-0.023972613713614976,0.03872940478591354,0.043426451143289725,-0.05169796882256055,0.006634422379538275,0.06106156387864982,-0.02883077267049881,-0.182181954839531,-0.00023806540413064332,-0.19243813130000445,0.02527282718426732
0.012,-0.04969679991130745,-0.021437426205766823,0.02783676848916243,0.03610328818308617,-0.03982329724118042,0.0016069829762033038,0.05258793138529223,-0.028976639192396045,-0.16273370238004561,-0.0014952599640704284,-0.16722182796847607,0.0200832877584647
0.014,-0.04210041278762267,-0.019592612304148563,0.022230320191416554,0.03163454750618306,-0.03285906721966344,-5.318364336495858e-05,0.04958718751589586,-0.030698611897892976,-0.15313064823065176,-0.002719450781493163,-0.15555297405715562,0.01754394802778568
0.016,-0.044617762849437914,-0.020244711553451138,0.024267408990677565,0.03303188606972605,-0.03469572187298653,0.0017922031039488086,0.052295837046137134,-0.03272545128796829,-0.15738381165815477,-0.004285748711496461,-0.16412233542032054,0.018951216538390544
0.018,-0.05097614180055573,-0.02428169624266764,0.026512823104620345,0.03842051900643414,-0.03917675994441094,0.0014852239713705226,0.053424131992455645,-0.034294892044730546,-0.16343286642599972,-0.005512010056533234,-0.17559128928051468,0.02207028459466657
0.02,-0.05513075889097756,-0.03191352818775453,0.022879780817750092,0.04527758194464208,-0.04005751467240902,-0.005013686824591473,0.0483582616441637,-0.03837649987741206,-0.1660085337880429,-0.0056549286766336745,-0.17691512725214387,0.025321786295805376
0.022,-0.0574416234064141,-0.04086682894210151,0.0164263792589181,0.05168958302162813,-0.03846000273681177,-0.014116808712854511,0.04026163520728011,-0.04574134285546808,-0.16876726764945066,-0.005084780360435307,-0.1714841627034661,0.02812047613733918
0.024,-0.06105474967194581,-0.047211333969760405,0.01427140566519398,0.05625561707168333,-0.039341746433535406,-0.018854997171181255,0.035892165287194605,-0.05183704368009689,-0.17347578827998772,-0.004697264740064856,-0.1685198419891242,0.02897299208693118
0.026,-0.06702085176807014,-0.04988350996160327,0.01805294117179408,0.059428462436398904,-0.04415218620924011,-0.017553363387008643,0.03818744833631128,-0.05363213781325195,-0.1772252920916309,-0.004916916120725881,-0.17022102480179457,0.026126050167477963
0.028,-0.07394218412163683,-0.052043741049501664,0.022800726240620448,0.06328451520556742,-0.04978206163422703,-0.015090862728207309,0.04434588152805249,-0.05406796286432259,-0.17773054112787157,-0.0058368606009880945,-0.17168049099804697,0.0201740918762618
0.03,-0.08017461928241411,-0.05695132714464622,0.023749766880002098,0.06885241265217174,-0.053037717595829835,-0.016469458179335334,0.04952746262661662,-0.056613344619618956,-0.17622812951454353,-0.007761045447816979,-0.16994791439349352,0.014723496706113833
0.032,-0.08523441771108507,-0.06416996460337322,0.021250349061251228,0.07499391892586563,-0.05404125395845898,-0.021712209119936685,0.050904230409307555,-0.06013414131160429,-0.17540948676777235,-0.011076587697369737,-0.1686007246384359,0.013218131044907717
0.034,-0.08861545408700966,-0.07018399925582164,0.01846325598188,0.0794223569013037,-0.05460685018220871,-0.027195497936736042,0.04896060384999766,-0.06127164424739873,-0.17688469439990112,-0.015626464604609848,-0.17237349569453883,0.014542865031689374
0.036,-0.08894452903067679,-0.0730696108734084,0.015860576176409825,0.08087956151365747,-0.05432455059086266,-0.03102683334433623,0.045950949830960056,-0.05901940065959627,-0.18062535294934762,-0.020376516162165802,-0.18086861720691158,0.012985710302348182
0.038,-0.08698708394525856,-0.07581226649065681,0.011153176453797034,0.08166491345517234,-0.0515005480157077,-0.035233824613781654,0.04380656455256712,-0.05633589672262577,-0.18547335757830724,-0.02455556147529575,-0.18975112950030196,0.004414274999002014
0.04,-0.08664889358255391,-0.08188823061720486,0.00475085809934544,0.08551124072779094,-0.04749106769523373,-0.04125799378824303,0.04323048979350297,-0.05791451109486882,-0.19076175756442235,-0.029517255044350408,-0.19631582561442348,-0.008676516196196745
0.042,-0.08945628039251075,-0.08954923108129018,-0.00011045863226116808,0.09185744792293528,-0.04536205303315315,-0.04687870468399442,0.04371024752534185,-0.06564588831731631,-0.1978546707302178,-0.03773654858437054,-0.20156691454981876,-0.020685336094999767
0.044,-0.09179704529534907,-0.09538798226872394,-0.0037147462734771677,0.09650872622134798,-0.04457981762505144,-0.05075146284166878,0.04422815026749498,-0.07621837682199428,-0.20818791935348532,-0.0488985023501958,-0.20682701301315656,-0.029036174757988795
0.046,-0.09058254502515312,-0.10069191223233481,-0.010435249761856896,0.09819153051827946,-0.04146281410920821,-0.055933044562937864,0.04425314973049174,-0.08347776818127756,-0.21948070754141172,-0.05888313515566608,-0.21084439563699775,-0.03397033006169831
0.048,-0.08796517823078058,-0.10880007844971261,-0.021260743243712587,0.09998592236634973,-0.035234334258301386,-0.06495951289652728,0.04399866601158983,-0.0837741652447522,-0.22659130334690483,-0.0639229136363772,-0.21184725158811246,-0.035516400785303825
0.05,-0.0885835170505489,-0.11803309555064552,-0.029707508697807052,0.10432163726653651,-0.030815355346855273,-0.07402496511316428,0.04386384585396434,-0.07947185403602254,-0.2271798647387568,-0.06426537004451903,-0.21055524745121432,-0.03348373613709173
0.052,-0.09411543217129249,-0.12256385611554133,-0.028422142699552448,0.10979330097335652,-0.03346979015749128,-0.0764598888117749,0.0439363233553247,-0.07611205911584852,-0.22432684704008532,-0.06295270743427495,-0.20933212765190465,-0.029004289907327032
0.054,-0.10118568273288142,-0.12042596793031124,-0.01909289988982741,0.1132541641020933,-0.04139151165197652,-0.07164743071922695,0.04404376470091807,-0.07630828965637951,-0.22255079086940174,-0.06237650951826345,-0.20960468989243436,-0.02506751072295275
0.056,-0.10461942034175291,-0.1164134210844277,-0.011730357511437368,0.11348846715420378,-0.04687831330189676,-0.06643359970449994,0.04405552952138442,-0.07816016605505308,-0.2231433571534137,-0.06299103016533068,-0.21159596202910222,-0.024758882094331674
0.058,-0.10247635567348191,-0.11634445916513464,-0.01391489533851399,0.11211092031785572,-0.04470029143021178,-0.06744363284932307,0.04389291481384162,-0.07897728873612882,-0.22436922022399391,-0.06487588299169901,-0.21516889970257932,-0.028337095309245944
0.06,-0.09716988444054422,-0.12115243971515252,-0.024039522824379534,0.11130312417612276,-0.036635728947424305,-0.07477938156953422,0.04320467400106823,-0.07837981527121962,-0.22463761449070213,-0.06880423815358487,-0.21917088879863258,-0.03342107410262652
0.062,-0.0926567402709975,-0.12688939923758738,-0.034234721240306826,0.11161613715174008,-0.028788785108271587,-0.08286280224199484,0.041691030425021876,-0.07765118296942541,-0.22410250429844994,-0.07441701734517873,-0.2214568930902135,-0.038175587468515744
0.064,-0.09136988535424279,-0.12935222873793795,-0.03795239067044683,0.11219193966248538,-0.026012688059402225,-0.08613507733678044,0.04025842663023689,-0.07762714156634416,-0.22370161480551917,-0.07874979292140655,-0.22119355306911676,-0.04279207197367786
0.066,-0.09307478837182334,-0.12823144433363637,-0.035141225832334845,0.11229814006684351,-0.028326588119062312,-0.08393111196640142,0.0406217002924137,-0.07801221739100386,-0.22380182358917527,-0.0785390304403426,-0.21987929572737056,-0.048222747117770234
0.068,-0.0959269226173996,-0.12640994391033367,-0.030491978108602793,0.11203725343696051,-0.032247250883679364,-0.07979479442417485,0.042851935935986005,-0.07820916427226289,-0.2240681962518529,-0.07378069935220044,-0.2193193584025035,-0.054426944322581786
0.07,-0.09811860894230522,-0.12607459133851087,-0.027968674371257062,0.11185534279320876,-0.034662867679450905,-0.07721683267575695,0.0448511746613172,-0.07809319453207626,-0.22414069338381812,-0.06819778971379226,-0.21962704084767468,-0.05985472271982423
0.072,-0.09879999262460969,-0.12698554338271503,-0.02818672524786689,0.11202041244806137,-0.03488759950448241,-0.07714183212672783,0.04515111571083177,-0.07814976838436705,-0.22383251672811985,-0.06553641003672618,-0.21947426258126718,-0.06279594528076939
0.074,-0.09834462570304624,-0.12820678299332755,-0.029855792897436,0.1128025884747239,-0.0340925678969835,-0.07870103608804899,0.044853335539649285,-0.079338746434941,-0.22266793618826258,-0.06537813816720617,-0.21785390522340586,-0.06291169176555361
0.076,-0.09778129752428008,-0.12957054944425603,-0.03178557130332187,0.11435973119225903,-0.03361386435428626,-0.08073665339285946,0.04578369993326755,-0.08203829192541379,-0.22039401531174965,-0.06420899253534286,-0.2154754449605386,-0.06119118352964618
0.078,-0.09772144065904738,-0.13064220497125875,-0.032922479435782026,0.11576185125905607,-0.03377888447932792,-0.08198346899272194,0.04745765641367779,-0.08467428542030317,-0.21817618188965934,-0.06077535159052909,-0.21417154264087074,-0.05928400482843806
0.08,-0.09798406581193718,-0.13029803050659514,-0.03231679248577883,0.11546998084887615,-0.03410272869993283,-0.08137252002759597,0.04763634735552536,-0.08509442004385186,-0.21735168989815395,-0.05771520390545567,-0.2150362424386507,-0.05907862318842004
0.082,-0.09814177814469068,-0.12887788623424273,-0.030736522800419084,0.1138946693378055,-0.034167075628790185,-0.07972983586613498,0.046139375399449296,-0.08352368743771726,-0.2172006294715449,-0.05738226605195046,-0.21751450901607405,-0.061975899589917643
0.084,-0.09807578535743455,-0.12863844190163443,-0.03056131144209582,0.11355263383579806,-0.034023119087517234,-0.07952771092049138,0.045578810746821595,-0.08218889263071878,-0.21625021988637483,-0.05892366956535155,-0.21995367798774565,-0.06755792783826635
0.086,-0.09795894876401691,-0.1305360582335433,-0.03257624065982445,0.11548592441398246,-0.03391999404479075,-0.08156384516471922,0.0473650144734908,-0.0823030434880536,-0.21481475956913598,-0.06039169697061136,-0.22094432441600423,-0.07298256475210664
0.088,-0.09771976211950607,-0.1326891490272241,-0.034969705970833626,0.11760233417276017,-0.033729897908953525,-0.08387242464686664,0.049640027842450724,-0.08309153216279407,-0.21400513563309176,-0.06149723976286418,-0.2206988896370869,-0.07541640888211941
0.09,-0.09646081511266733,-0.1331338306250135,-0.036673642044022514,0.11740584250534616,-0.03248691462574568,-0.08492006027544169,0.050203704741721464,-0.08331122024776683,-0.21314864257571264,-0.06318107081202004,-0.2211562339796348,-0.0756804026728423
0.092,-0.09322328435935812,-0.1322189788504956,-0.03899581963669976,0.11482140697607757,-0.029230219248642962,-0.08559173496135247,0.049279154450375375,-0.08238611665965243,-0.21044855820968722,-0.06569141701428244,-0.22395995860142306,-0.07727224486737705
0.094,-0.08898515959277645,-0.13150271687585843,-0.04251727514648493,0.11196819392872764,-0.024974228898588455,-0.08699360844421675,0.048493326484453564,-0.08044057846141286,-0.20626429287239534,-0.06799117002361524,-0.22807424482673236,-0.08106808236128245
0.096,-0.08704023390201306,-0.13164172729892537,-0.044601290338172256,0.11116489726766288,-0.023053167914346653,-0.08811126039003894,0.048494704907390405,-0.0781066370833157,-0.2034168458198894,-0.0689051641850311,-0.23081956829175607,-0.08391842985186729
0.098,-0.09046315835778272,-0.1320975888901704,-0.041634487508935336,0.11340583490943777,-0.026596137701692342,-0.08680966780244934,0.04831860870823049,-0.07590257140820443,-0.2035095287122889,-0.06827353417497072,-0.2316225840990596,-0.08364346111005803
0.1,-0.09698320168777803,-0.13202196400905505,-0.0350389003502871,0.11680752102148023,-0.03342602804056657,-0.08338173485952828,0.046852289022344853,-0.07415071906750717,-0.20515742028998943,-0.06640222843519299,-0.23212032542799244,-0.08188928338627705
0.102,-0.09635673650235041,-0.13063925104422483,-0.03428254937865921,0.11576069587481637,-0.03343773971290539,-0.08230114812285301,0.04434007568531742,-0.07409451885603484,-0.20679335373121555,-0.06363183852797381,-0.23268303597699178,-0.08090645002722435
0.104,-0.080349845324262,-0.12785760930704,-0.04750770529708527,0.1060866722898426,-0.018240234590635413,-0.08769311316486617,0.04135079483036077,-0.0775445229406863,-0.20929965646640483,-0.062185342865598965,-0.23291387296415994,-0.08201195433221711
0.106,-0.056203135457937974,-0.12528803281081888,-0.06908485031013391,0.09226767721930568,0.005689638210789288,-0.09749847576856742,0.037123722064522566,-0.08470904189604461,-0.21414902718338324,-0.06621617570430331,-0.23470185433438143,-0.08719497581103253
0.108,-0.03963326380806284,-0.12516378152113397,-0.08553052726902931,0.08347572895396302,0.023191032872200142,-0.10591672521014664,0.031988651013540495,-0.09316416321479082,-0.22033702610092015,-0.0770018062365797,-0.24035904963606453,-0.09628109231027426
0.11,-0.036392595666545444,-0.1279382615374766,-0.09152375648701559,0.08293231146374343,0.027973650013066016,-0.11024980652716068,0.03037268720593134,-0.09868964346936833,-0.2256979370850252,-0.09021110576785075,-0.24924841425914526,-0.10421334569716896
0.112,-0.04199852977033742,-0.1319587675590651,-0.08980699163042208,0.08756103757448953,0.023527374558156892,-0.11098989193292527,0.03681805361669313,-0.09698949692798448,-0.22985834477603287,-0.10096986188379575,-0.25898354890161485,-0.10768197324632747
0.114,-0.05250643023655442,-0.1351798253967109,-0.08221464824156802,0.09441116271812278,0.01349610899537933,-0.10840614775998918,0.0498863848631495,-0.08597024156986582,-0.233249663447873,-0.10975936485047443,-0.268161248537838,-0.11112642477640981
0.116,-0.06405928538766707,-0.13681143346469757,-0.07200211298849162,0.10110425910543841,0.002277920806477115,-0.10403571376631625,0.06428327346813677,-0.06775429504409995,-0.23505260883470305,-0.12042691768908817,-0.2776578780822285,-0.12071488975929262
0.118,-0.07149812459895634,-0.13588955156208482,-0.063713282510414,0.10433557802706486,-0.005205664795544277,-0.09953385146745736,0.07787610829596436,-0.04665785525535336,-0.23375197774689102,-0.13407362513477078,-0.2906773585046242,-0.1370882102953164
0.12,-0.07600135128448188,-0.12755140526084116,-0.0513201933510555,0.10211811113600759,-0.013055897028841369,-0.08926142227311655,0.09382766151656063,-0.021767545961467502,-0.22681801301967866,-0.14757588182244274,-0.30919523586041947,-0.15698487294652996
0.122,-0.0842096785157618,-0.10574175170951003,-0.021703545623233553,0.09493320293286998,-0.03147177726159866,-0.06367966216091674,0.11690079658086061,0.016829589838168416,-0.20869643326676285,-0.15634064984930474,-0.32838097630814467,-0.17596223964779728
0.124,-0.09580719968190685,-0.07289320540069709,0.02270498442986838,0.08436392534168106,-0.05919716080944603,-0.02536459214716483,0.1474256546445393,0.07842446123525668,-0.17338747575384983,-0.1565837129455574,-0.33815611763989323,-0.1883941171759538
0.126,-0.10050329917395519,-0.04135501952454407,0.059131196326402305,0.07179825494790305,-0.07992601322677573,0.008193698536735456,0.17654297691600843,0.15626213920026563,-0.12172035838839716,-0.14543782010428022,-0.3323071490615885,-0.18945392594681362
0.128,-0.08827566259619436,-0.02065222179810411,0.06772598887365995,0.056400595410534354,-0.0786897711272681,0.022677537076243485,0.18852696202616379,0.22506713115686547,-0.06248816398943237,-0.11723620536432947,-0.31039255097057183,-0.17571004647840224
0.13,-0.0563393089893964,-0.006279378335061319,0.05011850868907448,0.033416247780882105,-0.05430031942907316,0.021257800351233085,0.16914514316442414,0.25301708509089804,-0.004802087714610376,-0.05992963486692551,-0.26800207429024747,-0.1417188739886888
0.132,-0.005496879401058402,0.01567543753842804,0.02114487168276824,-0.0038415177499974335,-0.014162554141360004,0.017819724176886133,0.10978845907135068,0.21270534263299376,0.04567664271208449,0.03805025895579354,-0.19361075248761367,-0.08032974287158211
0.134,0.06418248046700731,0.05456719725509421,-0.00963826729105435,-0.05899692355895883,0.03633349448185142,0.021490432001647887,0.006951689598300071,0.08872066891899456,0.08347651586362,0.17422239360449354,-0.08102501015125316,0.010944787456702708
0.136,0.14914603133780632,0.10938410503215316,-0.039637107498804676,-0.12897275984477286,0.09330598521468345,0.033454164556841554,-0.13413888306445776,-0.11258333284420728,0.10632103655930435,0.33265917370610304,0.06170789194704546,0.1259893471243499
0.138,0.2394861218521179,0.1755755441247608,-0.06356177173235879,-0.20681461313795577,0.14954071282677747,0.05467967246055596,-0.2979337882374736,-0.3603146876600656,0.12587297606393358,0.5039130903326041,0.22180830280276484,0.2548882254738909
0.14,0.33068355506159913,0.25206876671738976,-0.07815648921295694,-0.2906059559197065,0.2024602382786209,0.08632853255835847,-0.46918624381473867,-0.614049734904299,0.1675710157636763,0.6981986568042478,0.3959895277820851,0.3927816310354035
0.142,0.4332735575621945,0.3401305254720003,-0.09276127623412925,-0.38658855987167284,0.26236777369680203,0.12381326415788406,-0.6446291169206548,-0.8503539675531665,0.25027258372205363,0.9310517624385772,0.5892642053999595,0.5408598910633758
0.144,0.5547646085642084,0.43838521961203863,-0.11608758448266866,-0.49714019954675415,0.3361521635565321,0.16156467234082925,-0.8287708723155316,-1.0760933592274293,0.3655275008093736,1.1986634196069534,0.7991073998081609,0.69679346357343
0.146,0.6757702074961613,0.5402869230387133,-0.13520844046783576,-0.6085406397729274,0.4064420291633504,0.20282248778496284,-1.0157998469170673,-1.305001268529967,0.482536298256541,1.473716655257693,1.0061430405776064,0.8482756067256098
0.148,0.7644645194985978,0.6366754901428616,-0.12759221775221627,-0.7005248598714338,0.4462703570615343,0.25464093289414885,-1.1791605166539352,-1.5197078520161664,0.578153333790945,1.7265979755764158,1.1869011426893346,0.9803696613448325
0.15,0.8118901168968692,0.7188842438091135,-0.09298220148089444,-0.7650663560667217,0.4520774687419334,0.3130220185016023,-1.2866116835845551,-1.673617955260053,0.663070538322144,1.9478738537028892,1.3326158322075563,1.0862283113230748
0.152,0.8326008485207856,0.7739626033409053,-0.058728536212467174,-0.8031432998820993,0.4452898407083265,0.3577207629328479,-1.3254919378631027,-1.7341821327341875,0.7691592229732483,2.143402861849181,1.4448064470850968,1.1635956928546058
0.154,0.8361372435137715,0.7803707751155327,-0.055829713526382455,-0.8081316840185025,0.4457398074829692,0.3620847923802087,-1.3086490686101797,-1.7126003187059684,0.8993570381422058,2.304185510583055,1.513927144427027,1.202615420928314
0.156,0.8187481309860394,0.7234291738317588,-0.09528104163731049,-0.770430301671069,0.45644726745487624,0.31293203418083987,-1.2619677873235222,-1.6518590881628117,1.0028734372372048,2.3932683443759535,1.518552841224112,1.189580863477412
0.158,0.7785333125264137,0.6176175217461275,-0.16076438112532718,-0.6968912787032379,0.46823764183396377,0.2260016474571393,-1.2109853262228876,-1.5920288886862712,1.0214314973498513,2.3735651251957592,1.450360137154581,1.1264496246639295
0.16,0.7214128645717351,0.4992402229992128,-0.2219648111621161,-0.609370516736778,0.46945599413056593,0.13558869192343495,-1.167697920850053,-1.543525567698768,0.9469343900070389,2.235086726750557,1.3226861095606004,1.0323457530725535
0.162,0.6511887974795466,0.39420180616126926,-0.25690899847490173,-0.5225763990396953,0.45171042238639847,0.06626784988941753,-1.1215625572673842,-1.4910941461312643,0.807205953325503,1.9783686915028182,1.1431500906453822,0.9169531947567716
0.164,0.5607617700525893,0.30445997526756846,-0.256483469161248,-0.4331377766789287,0.40707557253430166,0.023077852307080413,-1.052135311432617,-1.4232632104010465,0.6069322155640197,1.5873725739399018,0.8950399892610788,0.7659213103831285
0.166,0.43899424940201953,0.22660306509409067,-0.21267001199202007,-0.33333108071827794,0.32522570139310325,0.006959921513178179,-0.9585381168323356,-1.3530518615652845,0.3188429871698358,1.057599842613593,0.570397910901563,0.5674788877135315
0.168,0.292751367004634,0.17023067610460704,-0.1226317077808688,-0.23161532478445124,0.20705184420259842,0.02315076217749335,-0.8691759725273516,-1.3059329645221915,-0.05317059000293669,0.4679866533136134,0.22077632573308142,0.34894029481248584
0.17,0.15716819033254076,0.1470458738398402,-0.010036688243914847,-0.15186218419406325,0.08182857040346479,0.06623631642384464,-0.811763588583608,-1.2875175307693851,-0.42146847900250084,-0.010458965955398296,-0.05201537556993828,0.17014020907315142
0.172,0.0693886403513873,0.14561350443390914,0.07633069666275374,-0.10717486022638857,-0.006275185346838848,0.10774040832654487,-0.7790294369260065,-1.2677454483665467,-0.6583933300318329,-0.2350279637733302,-0.17892240053253472,0.07127622687989382
0.174,0.033828704601428436,0.1337987474367258,0.09997699049946107,-0.0835609726596098,-0.03566708709190969,0.1142153572704747,-0.7376999542800449,-1.2065251267457329,-0.7067452279843706,-0.22493628054422546,-0.18774665880947872,0.03685156126359487
0.176,0.025890080531738933,0.09442465162741713,0.06848063533626171,-0.059728670487909044,-0.02260702477053774,0.08001037805600804,-0.6686680891230461,-1.0950627864138585,-0.6260880394567102,-0.13030232905095487,-0.16293853258729302,0.022635868101891856
0.178,0.023257141558773266,0.04594724001462018,0.02266030811916453,-0.03361547633119781,8.914569753154869e-05,0.03332972512565622,-0.5834506219004584,-0.9595308002192554,-0.5175424499275175,-0.06977155491026996,-0.15524429031682,0.006386307643403762
0.18,0.019836211504184693,0.016435482889663143,-0.0033856724874846054,-0.016628395049395808,0.011259088514357406,0.005129995277779536,-0.5007065454019693,-0.8254434960735901,-0.4296397024991579,-0.04766004236630537,-0.15770263912737176,-0.004690244217932088
0.182,0.017171532482173194,0.006763518847346198,-0.010384585870220342,-0.010358495926246221,0.012397739345454248,-0.0033447047681491628,-0.42309425958171715,-0.6963547007750512,-0.3524688650002236,-0.021194214106399715,-0.1523385493011325,-0.004511356920389638
0.184,0.017100796528049238,-0.0055153783890926865,-0.02261318907932856,-0.004351624749436229,0.018074544943576062,-0.014957255065347412,-0.3450564794233184,-0.5693453897965148,-0.27175321779535805,0.018006553871861303,-0.1418230396640362,-0.002034439188564854
0.186,0.02081132671843891,-0.03088698562088171,-0.051709664295303076,0.006300803220946867,0.03544673051636952,-0.041547891839387806,-0.27095567683366223,-0.4530452999996333,-0.1972690581009848,0.04677047073930121,-0.13689497473540949,-0.006218826454325027
0.188,0.027389682224092132,-0.054869335298017505,-0.08228800803792603,0.01471522479051398,0.05528728805289094,-0.06873269578631798,-0.2128758112495279,-0.3611421247769796,-0.14626654216777055,0.05117773696939048,-0.13971571731583882,-0.015256591730648158
0.19,0.032704261245531926,-0.06229051507833328,-0.0951013259361973,0.015325033914252856,0.06436759232155086,-0.0790580918129587,-0.1739390167050911,-0.29592545699395084,-0.12163050161423272,0.03928096215438528,-0.14583007112671767,-0.02366236462684517
0.192,0.03204643583959874,-0.05698801545105411,-0.08922535696283151,0.012895496592223707,0.05975746481668185,-0.0737009558381258,-0.14414485950665637,-0.24736551910594534,-0.11233134053981807,0.026283384381411444,-0.15107664792567355,-0.029640677738663655
0.194,0.025389133115012417,-0.05079075975620574,-0.07625219927674959,0.013687682117279517,0.04866011370930929,-0.06418009487002635,-0.11504943940157718,-0.20804104979730373,-0.10730079118287325,0.020476737309042144,-0.15301764567653806,-0.03319620344439705
0.196,0.018420630072967844,-0.04759285523776658,-0.06571749237625148,0.01614475579529587,0.03996186238898519,-0.05711428684928859,-0.09041907629742998,-0.1801745636389821,-0.10300463627941754,0.021334263700256016,-0.15124360309935203,-0.03380390912035676
0.198,0.016147828514782407,-0.04543827776426713,-0.060979126465148824,0.016005037872311063,0.03745930121151263,-0.053660522353971604,-0.07681877552757971,-0.1644468342492624,-0.09982854281550751,0.02462323094015706,-0.14810689575582872,-0.03208819568175313
0.2,0.018058089875841326,-0.04374293645871842,-0.061257784867279404,0.013618769668513468,0.03913328335157903,-0.05371111436885645,-0.07072146381457364,-0.1514507621594185,-0.096733672924335,0.02697384170918768,-0.14654063329151584,-0.030280558808399693
0.202,0.02076443008509721,-0.04442000750982882,-0.06501033044808316,0.012544617296482985,0.04202817216021694,-0.05705993540851722,-0.061819146584903555,-0.13058717105763945,-0.09129365631792655,0.02737813306883834,-0.1479778355624185,-0.03073536556520896
0.204,0.02128259970636882,-0.051654368597699035,-0.07307171936060601,0.01645374645127516,0.045648484105152494,-0.06500745120428786,-0.04473245263883958,-0.10063752889225598,-0.08259049447777292,0.026794792304532574,-0.15332707647879593,-0.03521532856737871
0.206,0.018292693967003563,-0.0689705918683194,-0.08744180858500752,0.02727411154397507,0.05082155652798429,-0.0797738157511867,-0.022302885625985997,-0.0674987794146041,-0.07194957156196793,0.026619847300181777,-0.16251637407777092,-0.0435125303136256
0.208,0.014662422880221154,-0.09257708178891834,-0.10738016316233678,0.041436945796344576,0.05867246941590758,-0.1000096074165891,0.0002016383173462132,-0.03725447589204217,-0.06156496134001871,0.026289309985899054,-0.17262818382802897,-0.052267880828103276
0.21,0.01523438741356616,-0.1116569686073275,-0.12714078989730648,0.051064705702715464,0.06871895003440581,-0.11877618463169512,0.01915788875882854,-0.013895028243386964,-0.05396633418031912,0.022818602430032506,-0.18002954387500686,-0.05809450638779664
0.212,0.018392342883408727,-0.1184952327241964,-0.1372677980610578,0.052993697102832714,0.07547529428890816,-0.12790498469486614,0.03154051297233633,0.0007639467377639158,-0.05086421724477381,0.01522490696926416,-0.18364998736382765,-0.06164206391836029
0.214,0.016811028708235847,-0.11489462387271462,-0.13198309927753302,0.05169636230955503,0.07243434461096537,-0.12475862737364074,0.035404498632099136,0.007599097228756278,-0.05021791218918304,0.008375010757391945,-0.18394227275048802,-0.06515534988412497
0.216,0.009455524676553535,-0.10765534111640361,-0.11711864633310112,0.05124553947454695,0.06173494426780438,-0.11453514804732548,0.03286403799109747,0.009999824601358434,-0.047190506247937025,0.008263083575958369,-0.1812271253631937,-0.06752090786538824
0.218,0.0038982047790259546,-0.1020731977285591,-0.10582963530973163,0.05102169912250879,0.05332260500129181,-0.10568416756944539,0.02974765281791337,0.012626776747793961,-0.03986851043775929,0.014685144148575285,-0.177070285780294,-0.06668143856496384
0.22,0.004300936365873961,-0.1003701843889744,-0.1045915927471551,0.05041355537885013,0.05254354427283347,-0.10292560507566817,0.031126387402029807,0.0186492211867266,-0.03133352618662202,0.022461757395930315,-0.17420574143912113,-0.06512773095847485
0.222,0.005833786083265334,-0.10257655170381934,-0.10844648338748814,0.05145016369884075,0.054954189744101566,-0.10500062616753271,0.03688094621284964,0.02718457538717528,-0.025740313393079275,0.027684061593254716,-0.17320590187734158,-0.06695226255697441
0.224,0.0036301237838340084,-0.10721047484033133,-0.1109011495165931,0.05509708484665652,0.055115534722487765,-0.10861970803365174,0.04208544171299037,0.035162096077573084,-0.02430809563747632,0.02986693576634196,-0.1720639938982221,-0.0707026525961963
0.226,0.0002177648162992086,-0.11170271137004995,-0.11193005899514107,0.05856281379451213,0.05407679541044358,-0.11216185288849483,0.04322787394186429,0.04166476443025515,-0.024619457545723256,0.030515860871969187,-0.16992093165587002,-0.07104388464572851
0.228,0.0006930580057963423,-0.11369214693242093,-0.11435688860740213,0.058562620754699465,0.055486804405084134,-0.11511080030052795,0.042943623380688904,0.04855550849276932,-0.023051784525761593,0.031681076188632765,-0.16781940029439796,-0.06684080518897545
0.23,0.004673918348050733,-0.11313261719100791,-0.11778778291763892,0.05603546902140872,0.05896772018224655,-0.11669075774413144,0.04655764618617599,0.05735678566215998,-0.017665840226379178,0.034851325483512774,-0.16604735032852622,-0.06293757333786631
0.232,0.0070773421311598715,-0.11243771023792257,-0.11952152921543402,0.05503935834316227,0.06107110331164904,-0.11691378162334459,0.055149818863506346,0.0671831282835797,-0.009056006255176509,0.04019813235668569,-0.16420949535760504,-0.06412694585300945
0.234,0.005668088238678662,-0.11371633104040953,-0.11939773986088412,0.057161952127998364,0.06096427659565847,-0.11758792163905657,0.06419641747973376,0.07591803454120459,-0.0001370199158123325,0.046292108674235125,-0.16298925833665667,-0.07022289951248187
0.236,0.0037147974131011155,-0.11625347307055939,-0.11997109860650737,0.059615229479072884,0.061171811570510354,-0.12000295630065708,0.06892599798885753,0.08224843413763765,0.005460463798517955,0.05093475160658197,-0.16343064891019257,-0.07710570847835208
0.238,0.005080051257463628,-0.11732432478256435,-0.1223984584653075,0.05887420792634454,0.06326023656200219,-0.12265707114057872,0.0690949766941479,0.08583700493377563,0.006790627621304342,0.05316599909153072,-0.16528502584768187,-0.08066191990721744
0.24,0.009864331633621456,-0.11548633478871344,-0.12534629680370438,0.05446332102331609,0.06617445822947017,-0.12339321589153199,0.06778484776190749,0.08701572187186309,0.006954806796616302,0.05384573224787618,-0.16738252219717162,-0.07975185633547802
0.242,0.014871876712112458,-0.11236576557097494,-0.1272387844625713,0.04934550851793933,0.06822483339193627,-0.12239448645081369,0.0674672089128894,0.08758425619894343,0.01002923944560897,0.05406759168797175,-0.16913551336025537,-0.07694810646850804
0.244,0.017169943575911197,-0.11045912245460236,-0.12765393577739614,0.04674685430069661,0.06884789865027449,-0.12134838428053042,0.06872971231745816,0.08997165884424439,0.01653278562871567,0.05434599506252143,-0.17057075527918847,-0.0758589718455141
0.246,0.01743904189289074,-0.1096121616325317,-0.12720523517223692,0.04625976799712134,0.06901936159824686,-0.1207583294173009,0.07145680318064881,0.09409211046391801,0.022558227038943664,0.05545841598752497,-0.17143549002805014,-0.07728563581531411
0.248,0.01885902269506123,-0.10745117800821757,-0.1267896468966107,0.04462124936841382,0.07017026053714766,-0.11966089464122778,0.07513316901473677,0.09716285028508061,0.024114217904525642,0.058293242108700384,-0.17135482629864468,-0.07946817992188389
0.25,0.02235577332836428,-0.10354230462616187,-0.12680034731476855,0.04080238872434592,0.07227989441000338,-0.11777235369917587,0.07803421456115818,0.09770648200186371,0.021623179790413574,0.06217795783088193,-0.1702680054902593,-0.08109725367917481
0.252,0.02522279558320471,-0.10065755488599057,-0.12701741889345777,0.03769099913744866,0.0738063361987675,-0.11630884021678016,0.07800277232504339,0.09744031769132021,0.019249155705343943,0.06529178595560212,-0.16815360437050833,-0.08143704155364523
0.254,0.02494569007547045,-0.10140804812948025,-0.12733427069904135,0.03817487974000421,0.07390792326578216,-0.11644546473905412,0.07540047978252745,0.09893966312466747,0.020788489465333845,0.06750414631057562,-0.1647138447956073,-0.07866378796608706
0.256,0.02219919150384385,-0.1059809644607225,-0.12868703552689037,0.0421380697004392,0.0737590495800413,-0.11859770388893841,0.07426805953190141,0.10333375375005827,0.026730889440190288,0.07059237895975018,-0.1594940777908197,-0.07172495557550321
0.258,0.019620245921051792,-0.11289098374510678,-0.13253183206630362,0.047518284548519474,0.07497861007460188,-0.12295989879195665,0.07824541833435465,0.10969458381174707,0.0341939619913401,0.07513607566836025,-0.15250608881833702,-0.06363625623109136
0.26,0.018709247884907677,-0.11932321814938393,-0.13784367838593845,0.05208256129476251,0.07698646665956577,-0.1282084775152569,0.08569861667027293,0.11558882408944975,0.03999173419046612,0.07946165196923748,-0.14477102682778328,-0.05913878408765329
0.262,0.018250050662770998,-0.12124078810127473,-0.13938440176549813,0.05398938810766847,0.07673828928852383,-0.13004147181585018,0.09088536934262312,0.11923120924509217,0.044242340250671794,0.082255738437842,-0.13790866935988844,-0.05900905590706984
0.264,0.01634509293487919,-0.11640327803239918,-0.13279000406494662,0.05251839238824511,0.07228483027487388,-0.12500264779422204,0.0899321749165046,0.12147937190870678,0.04941250256878663,0.08453712910837297,-0.13323050739483747,-0.05999849550948735
0.266,0.013722078087935371,-0.10780809629962455,-0.121605329785606,0.04888624006339164,0.06603446017895664,-0.11609011776452627,0.08483077786849841,0.12472893475111078,0.05579379164780665,0.08800737860635538,-0.13119049728415874,-0.059744346010091015
0.268,0.013084961949193228,-0.1016306613072699,-0.11475116680633159,0.04538437798142561,0.06259108414260749,-0.11052443546678675,0.08107513432081355,0.13005351731407896,0.06073909989522778,0.09235593294437563,-0.13120789319858958,-0.05899878687864637
0.27,0.01563278601168902,-0.10157547774171563,-0.11732752415399361,0.04353550561661505,0.06438262506017078,-0.11228665029704821,0.08181078728741667,0.13661459073910368,0.06340109680312564,0.0960746852501213,-0.1319702816987736,-0.05973529702582592
0.272,0.020150809814563245,-0.10675011071941226,-0.1273361208962208,0.043466951874786865,0.07075984677390369,-0.11976175258628957,0.08537378221206456,0.14321886841608208,0.06687637447084481,0.09947479644120386,-0.13224942014314536,-0.062403493242407536
0.274,0.024668366207832953,-0.11414657672386957,-0.1395722544409439,0.04467294771414513,0.07943979254914592,-0.12902140270568377,0.08782190346025084,0.14878774416203563,0.07335571135967445,0.10414356747892134,-0.1314143240977107,-0.06505391247364078
0.276,0.027632209912847434,-0.12091289514530355,-0.14923955032474795,0.04654933548078921,0.08728408270021887,-0.13645262992718718,0.08675034672748864,0.152236299055585,0.080526222344844,0.10982572015448966,-0.12949230538628964,-0.06567292428794301
0.278,0.0279154613900953,-0.1236290614184857,-0.15177819308925874,0.04791181827864796,0.09021231807868016,-0.13826435750874835,0.0831368449574133,0.1539361548222092,0.08488520671681804,0.11487666078557854,-0.12733806140516202,-0.06440101162387786
0.28,0.025153987775060796,-0.11925536085724506,-0.14423080143519762,0.04733123777999215,0.08538078955971534,-0.131739583340611,0.08008098177215177,0.15615736653922388,0.08566059647102392,0.11940768400436585,-0.12608391069281688,-0.06229335240659769
0.282,0.020986126457103453,-0.11009215324280767,-0.1308638127056816,0.04503516070297961,0.07584729942717237,-0.1203163591294856,0.07983325713476587,0.1603304313419752,0.08492705197695978,0.1252753163563102,-0.12564127681106876,-0.06000378029208838
0.284,0.01871940586981533,-0.10350932570661553,-0.12223484235353031,0.04301138876131135,0.06965113224387551,-0.11287004384510207,0.08175450322950821,0.16546740347940458,0.08572553727298067,0.1330408826977344,-0.1244820616434315,-0.05839239429305707
0.286,0.020818117212171014,-0.10359235592826405,-0.12466985383295552,0.04224052450825291,0.07193290210233755,-0.11456740506917493,0.08298807232481265,0.17024466236697097,0.08931640948564477,0.14072903318329058,-0.12109083411479976,-0.05817095166760795
0.288,0.026755209453604843,-0.10706137546347862,-0.1343568614252637,0.041547621884511554,0.08028331284751138,-0.12190799882991396,0.08165824076297731,0.17462464122063984,0.09414789323624731,0.14596271514674503,-0.11498297668731675,-0.05885738392433701
0.29,0.032640853240839006,-0.1087149664643866,-0.14223019105371085,0.039985415851924715,0.08753326730946945,-0.12734309534000068,0.0794432256066312,0.17857629475533668,0.0986624355698222,0.14888368873252902,-0.10735688138502077,-0.05935760313922323
0.292,0.034003271111719156,-0.106990381814944,-0.14208435227161348,0.038473706967745075,0.08789807630251095,-0.12624649417776213,0.0799129860464595,0.18084257960038388,0.1036450546274411,0.15234852669214693,-0.10100638648861454,-0.05914008548038186
0.294,0.030310651172845666,-0.10340188582425054,-0.13468612922182224,0.03819102722457707,0.08168660527828671,-0.11991349357755339,0.08398793041491198,0.18064378415052273,0.1105709796003715,0.15875820210359265,-0.09721801687247274,-0.058052107223189126
0.296,0.02533756422812205,-0.09982515130604466,-0.12569155905987525,0.03884944695682586,0.07436706899555108,-0.11330189480715737,0.08860670758588086,0.180102433422915,0.11958259048761062,0.1673790363823732,-0.09352461608409839,-0.055660914968388875
0.298,0.022875511394918214,-0.09764619129997823,-0.12057851655512054,0.039355289678911394,0.07098757903193281,-0.11036405213413399,0.0908087486386974,0.18288102516281157,0.13008382479562153,0.17531153007906777,-0.0876218850140314,-0.05203846369284002
0.3,0.023890497586784076,-0.09791600336895874,-0.12174386080208226,0.039253743929293386,0.07253676971121216,-0.11186374320738596,0.09096497739252762,0.18992064025122934,0.1412873148668817,0.1802570196951062,-0.08159712954208215,-0.04876182723935311
0.302,0.027438175824384715,-0.10107853530805075,-0.12872743729456446,0.038820157034847896,0.07741495165605843,-0.11686271371648049,0.09031125685818009,0.1979386234763744,0.15101077452310696,0.18201472596387971,-0.0793664445327731,-0.04759744879348454
0.304,0.032467203214684194,-0.10577283032464879,-0.13868025420172758,0.037842995681014756,0.08410001753498728,-0.12358617199242733,0.08836244298125082,0.20305479607170832,0.15643453654394607,0.18231579707099854,-0.08156183420203691,-0.048385411289415085
0.306,0.03863617997154076,-0.10817307721793445,-0.14699130212064382,0.03493265352485576,0.09141352154305414,-0.12847790874063145,0.08541067565639343,0.20532516195443024,0.15818302305126827,0.18367219726636616,-0.08473271447530306,-0.04940554218401382
0.308,0.04587393768732277,-0.10524708648543428,-0.15063161340835465,0.029224117481606186,0.09797436091746223,-0.1284818082686356,0.08393554620834422,0.20821731906023708,0.1609832396446464,0.1877863348738458,-0.08524109755811274,-0.049626620973071335
0.31,0.05261671546250773,-0.0991880464644386,-0.1507207701384479,0.02292186532790569,0.10231457066034205,-0.12512248661765252,0.08456843521242603,0.21350908766472412,0.16820457401050698,0.19488372421139769,-0.08280479057979294,-0.049796457033611255
0.312,0.05583156667591812,-0.09541155097596514,-0.1499952884384129,0.020043983607808936,0.10343622896283332,-0.12289782165042504,0.08471014739837196,0.21915757426408933,0.17836968456171443,0.20406315649439372,-0.07954868715127807,-0.051029212623974536
0.314,0.054819419820141,-0.09604918802232508,-0.14978830159954662,0.021672162570974117,0.10211184029171017,-0.1239495207885132,0.08353090241021394,0.22323488528970423,0.18789634035849573,0.21332058921015537,-0.07682645023741339,-0.05260786240153751
0.316,0.05289046340011428,-0.09856401181881119,-0.15056273952460195,0.024596991180361405,0.10105163134993593,-0.12678662851165462,0.08392258808818602,0.22712020377470707,0.1952355972536631,0.22051986318173408,-0.07396161524562411,-0.05213777440148219
0.318,0.05342712567266353,-0.10048006901902604,-0.15314305158567876,0.025505452026414185,0.1025501382555308,-0.1294979463176093,0.08803552959948681,0.23354088654770075,0.20259856296702045,0.2261190637642208,-0.06929806881583739,-0.04796435701912924
0.32,0.056368627191073155,-0.10194294333372797,-0.15778514384554584,0.024430227550108933,0.10620488064728392,-0.13177752577829155,0.09453338119264369,0.24351893368261293,0.2137629936510522,0.23329467539261511,-0.06194892540770156,-0.040945341602561934
0.322,0.05924477540160086,-0.10325418400191805,-0.1623542885558955,0.023402694780648468,0.10919389091976935,-0.13343438567607643,0.10039575393508654,0.2555590411910314,0.2289182518820933,0.24356927889639735,-0.05281370857992089,-0.0342400437806368
0.324,0.060370457504468455,-0.10328231449075076,-0.1637926738278178,0.023284084499268838,0.10937146544955734,-0.13348126396583143,0.10335097339322176,0.2669304160103031,0.24356156464524686,0.25438131325014973,-0.0440803125633439,-0.030951652962704676
0.326,0.060830750653102825,-0.10107528501877805,-0.16205628469299282,0.022697129783759044,0.10808849689962508,-0.1316476233693945,0.10326963551756246,0.27606695460586567,0.2541145671676563,0.26274467808800983,-0.037761875304999165,-0.03143977340068786
0.328,0.06306258313270624,-0.09726425169565271,-0.1603326538200699,0.019992495687180516,0.10862353088010361,-0.12922522653022064,0.10198827743141081,0.2840605552984323,0.2619701904520941,0.2692856819620096,-0.03420460473739111,-0.033156047466379464
0.33,0.06748478682986432,-0.0941139661598436,-0.16152237142446255,0.01598087886891907,0.11237159595817664,-0.12848367235151945,0.10158760319462427,0.293644139729198,0.27088184674038157,0.2767353951893197,-0.03147135678270969,-0.03267063535463883
0.332,0.07205738501141047,-0.09366082812971983,-0.1656781538037159,0.013120498176372113,0.11780431275363293,-0.13084313701170638,0.10302433524193441,0.30593137222941674,0.282618671341195,0.2855551965031452,-0.02715889838181808,-0.0284984509186083
0.334,0.07547153424458247,-0.09419983904992242,-0.169693407687977,0.011384834156359122,0.12216224894211644,-0.13403617760024028,0.10547442784369188,0.3180365109188629,0.29608799681986653,0.29329528929313775,-0.021181096779479505,-0.022360457223385866
0.336,0.07859064540662357,-0.09095324379344497,-0.16957614695462522,0.007803711083320633,0.1235270311302663,-0.1330915537260873,0.10658582489848882,0.32574180384898405,0.3097892052987901,0.2983954577744513,-0.015358325298664209,-0.01671184121999268
0.338,0.0819429800051169,-0.08253485893741952,-0.16448124436558584,0.0014363379720045526,0.12198706072899197,-0.12639795808388168,0.10555099585767017,0.32933233364379333,0.3242260051650535,0.30259505216777394,-0.010749160980544669,-0.012293995988664526
0.34,0.08438553373533772,-0.07389511065660732,-0.1582646916060247,-0.004490372907083371,0.11949472202127424,-0.11861397630372941,0.1055477803419679,0.3344896288742266,0.3415913081889325,0.3090159362767693,-0.007077268600122444,-0.009005700599592166
0.342,0.08572101463660965,-0.07083494591647138,-0.1565464878599067,-0.0067781892586376135,0.11919118655037808,-0.11600155308871876,0.10990684107029405,0.34574260458614947,0.36302916935329355,0.31913187498718193,-0.0039008096818611447,-0.0071167897222017855
0.344,0.0878390998212689,-0.07378677081731431,-0.16163005056113458,-0.005890734182127802,0.12336411393546687,-0.12009852375600238,0.11710994275651562,0.361558041183656,0.386147177423481,0.3317777235157107,-0.0006229478338547272,-0.006432240600179022
0.346,0.09142567791019601,-0.07822392922510661,-0.1696567720066555,-0.004520349968873431,0.13017627728428185,-0.12648979652981163,0.12305043253378023,0.3780648171936663,0.4064272529874481,0.3443342743735129,0.004193087832525697,-0.00488941080598693
0.348,0.09447357281682198,-0.07973372729786533,-0.17423038074201197,-0.004550515451667144,0.13472228042227863,-0.12956530675774955,0.12641401531143945,0.3940192710890119,0.4220391391098834,0.35498307395656853,0.011992492282879807,0.0004369744689881661
0.35,0.09599772181204798,-0.07729628542686226,-0.17344389765954601,-0.006591024191842728,0.13517274180197297,-0.1278280770882601,0.12843541781435353,0.4090911256309929,0.43545208907471167,0.36399199843631186,0.021975419368775184,0.009649458830453614
0.352,0.09821965593604323,-0.07247235727168418,-0.17117045774282028,-0.010909629739262964,0.13488987057669363,-0.12389902822882377,0.12946294167703806,0.4211586761325498,0.449612217629795,0.3725958854010895,0.030794622673111876,0.018666297242612727
0.354,0.10279897259540437,-0.06716662970400893,-0.17084771356439976,-0.01682010834289271,0.13675435606060143,-0.12026878271235628,0.12933685033322628,0.42867077125692005,0.46496141063360524,0.38163320121662236,0.036445969617308525,0.023435180188745627
0.356,0.10796076291980447,-0.06206662370297924,-0.171012597239262,-0.022498699347886696,0.13913892194352018,-0.11672487367235591,0.12923443055540967,0.43294405208883335,0.48078688802357816,0.3917277102038217,0.04116509105835883,0.024750977125046064
0.358,0.11225050847758414,-0.05734169996087255,-0.17009176182394276,-0.027071016411401628,0.14066158777721824,-0.11317436702155656,0.13001496772591087,0.435857760656745,0.4969965999073652,0.40277521615337813,0.0478307365297497,0.0271041499080929
0.36,0.11748753679431737,-0.05468556501517537,-0.1717757934943996,-0.031053851450191884,0.14432631150375197,-0.11269031886242276,0.13074362050813382,0.43759225116806477,0.5136481713319165,0.4133557699124368,0.055506277394789874,0.03281504574166032
0.362,0.1245877313748031,-0.055783312471665694,-0.17923255836122193,-0.034305025534198466,0.15199196891092742,-0.11740356975204697,0.13068747465613662,0.438183521765163,0.5305747594348674,0.42301355629593873,0.06127286164769646,0.03927990778300156
0.364,0.13090974495965418,-0.058703725975556446,-0.18829190425008066,-0.03623580734907717,0.1598308002728832,-0.12369431055073506,0.13023408550549773,0.43901897100313286,0.5478677755442107,0.43359133533299143,0.06488531961553677,0.04342801287822824
0.366,0.13457155288212305,-0.05907623918707051,-0.19255432651183177,-0.037821750343150606,0.16364460712072015,-0.12601898643171988,0.12959683358420038,0.44163528251159156,0.5656067807996895,0.4465554468152048,0.07013082523005437,0.046996612776284925
0.368,0.13697474469558296,-0.054961751798387665,-0.1910539479631086,-0.040672655136777945,0.1638758228466999,-0.12335993877645106,0.12953596154092606,0.44717584172805197,0.5836214859961365,0.46147088906314127,0.08132687818742663,0.05439601236606363
0.37,0.1398802935482783,-0.048559396671444266,-0.1875663227137917,-0.04478003026734502,0.1632654785595945,-0.1191704226313294,0.132217569395949,0.4571650736003792,0.6016553147767718,0.4772935077535373,0.0979642436448869,0.06629023909735943
0.372,0.143608173027893,-0.04290828340196303,-0.18565656403540123,-0.049337655607112514,0.1635661509793061,-0.11645776169702017,0.13834270453007302,0.47175130383199393,0.6191792580728742,0.4925899054892513,0.11435884453217166,0.07837635649388602
0.374,0.14811596322117926,-0.03890530616021526,-0.1864391800680095,-0.054175989201733804,0.16563653689459698,-0.11522388600367943,0.14498993205717048,0.4869208302619854,0.6360019068951527,0.5059083077594393,0.1255313496599314,0.08625687053776233
0.376,0.15300512937466615,-0.036148730494234387,-0.1890344404438025,-0.05862294916869425,0.1694688344437109,-0.11425598607000331,0.14880426227959323,0.49685961880772567,0.6528312644797093,0.5180164745929065,0.13204732393889196,0.08911435164899503
0.378,0.15688066698749614,-0.03394805799964814,-0.19101090690525097,-0.0613844008282838,0.17306074083226505,-0.11268493786302869,0.1499120923585081,0.5001749712222622,0.6702638675328061,0.5314977242403177,0.13867032432375057,0.08900252984383829
0.38,0.15903118644748568,-0.030972562395718103,-0.19016041154391866,-0.06282907365610473,0.17417595561953744,-0.10999231053142607,0.15072042691491921,0.5012739929213506,0.6886187672730246,0.5470343934326212,0.14866241229496574,0.08901975416958358
0.382,0.16078037085244334,-0.026209225664249842,-0.18697542588736288,-0.06498886974580498,0.17335979144098188,-0.10642979244326534,0.15170252250050564,0.5047370816174103,0.7082692909288102,0.5624131459181407,0.16010012208418495,0.09247158261118657
0.384,0.16360818096358748,-0.020094838350408702,-0.1836135966994747,-0.06896989260116246,0.17289340900980255,-0.10283451763549559,0.1505358076061083,0.5104975520586051,0.7280619385146748,0.5756630755503678,0.16871147020638388,0.10139789248625497
0.386,0.16744982858264032,-0.0140431992237613,-0.18143570842260184,-0.07403036173114974,0.17396162575921106,-0.09980052208956346,0.14613886193176395,0.5151629370333911,0.7453767622150524,0.5875751259149862,0.17375312838136384,0.11390359924525809
0.388,0.17168215395108877,-0.009538643490145986,-0.18112086712087258,-0.07891615978603309,0.17647364416667868,-0.0977914553725751,0.14146759518252186,0.5165001674153754,0.7593098784886372,0.6003190819637972,0.17887333024180213,0.12423857624024531
0.39,0.17687293794042094,-0.006735819731454191,-0.18331550886203196,-0.08360480028446957,0.1804643708891923,-0.09719467199611469,0.140376607772999,0.5157636453617208,0.7714773257762906,0.6139431176760193,0.18666162117771626,0.12813864068276926
0.392,0.18486949814861045,-0.003686992946050308,-0.1881331017401001,-0.08961085181716268,0.18646440156567146,-0.09775050856348301,0.14308253624510478,0.5157047100115717,0.7831647176770808,0.6255869686411655,0.19551486436464358,0.12776958668526875
0.394,0.1965905822850729,0.0011247168798936373,-0.19521326675829279,-0.0978176009758675,0.19482145645392235,-0.09883871694014244,0.14635966356616167,0.5175237908153419,0.7939501741862981,0.632806462251847,0.20286341274105363,0.12916336936038852
0.396,0.20996040101476784,0.006399177116276896,-0.20370957241871496,-0.1067554974396827,0.20484986739762567,-0.10011807234832862,0.14765996257279201,0.5208577757842288,0.8034537185031759,0.6371472757445366,0.20814758865709118,0.13488329921192488
0.398,0.2205104700232542,0.010350510581805857,-0.21063941405655523,-0.11392201883151364,0.213629293577775,-0.100906459519308,0.1480486079595352,0.5252976418577956,0.8125232880348676,0.6441032957775287,0.21251804122200438,0.14188347670224427
0.4,0.22454543489626147,0.013598924764615617,-0.21141808577505675,-0.1178847021813243,0.21676596014781513,-0.09969232249227228,0.15020256859728154,0.5304175674818565,0.8220986491013537,0.6577904148469883,0.2181187123567907,0.14668618005035466
0.402,0.22263842816558588,0.01767018545126035,-0.20502466832894933,-0.11917386208763739,0.21300350276960667,-0.09567251302188051,0.1536507710254531,0.5349662785309913,0.8318874310069643,0.6748326078367363,0.2261903396216822,0.1492848785207024
0.404,0.21920079306076626,0.022145480959176077,-0.1964884760441106,-0.11965942495236227,0.20652867594661772,-0.09032626478231819,0.1546641658969575,0.5368147271595917,0.8403713284902853,0.6872733825905897,0.23491933479350507,0.15188550075233623
0.406,0.21746153462868054,0.025220687401888747,-0.19120945804024997,-0.12037562617419187,0.2020775403973459,-0.08592972355108697,0.15192355973302601,0.5341926342442358,0.8461647946783161,0.6921938856493086,0.2420045436905057,0.15709592473704456
0.408,0.21627387247679658,0.02690403000642051,-0.18833188966165318,-0.12074674073084313,0.1994416324719177,-0.08232336228020086,0.14823646695473536,0.5276465504846002,0.8499192863189885,0.6940170725767839,0.24827378273764622,0.16638935040165165
0.41,0.21287454915559878,0.029711164641398037,-0.18257408543536685,-0.12050386335322537,0.19509423832445605,-0.0769214939374061,0.14522063238946323,0.5199793385718761,0.8537845608701469,0.6976860381815583,0.2551355236876015,0.17736336498661787
0.412,0.2071891563082568,0.03497491622074768,-0.17217792400377355,-0.12025009105856534,0.18805705500186007,-0.0689371758692407,0.14152581715249746,0.5131346092333628,0.8580847539512125,0.7037460518132136,0.26135705504345985,0.18482833068063592
0.414,0.202399423656158,0.04052907614625638,-0.1620937619923862,-0.12030580479142025,0.18166683674436884,-0.06161413404183743,0.13730037086084695,0.5064844025455393,0.8606664338296407,0.7100616989366118,0.26604818612331593,0.18695072865145224
0.416,0.20201577927724532,0.04356286447480406,-0.15858450331622817,-0.12113900069300557,0.1797995047422965,-0.05879293657448644,0.13487389899655544,0.49862909598974287,0.8601637532570265,0.7149443469382419,0.2708141400224162,0.18712197034804695
0.418,0.20666412057281097,0.04343230169952137,-0.16316175148927076,-0.12348431705929358,0.183453180136173,-0.061168247896970916,0.13392841566350336,0.4883910051691619,0.8571119227352938,0.717643123676111,0.27572481233637225,0.18852847818001947
0.42,0.21332288634634944,0.0411736809104586,-0.1719260378927284,-0.1265665826618702,0.19033933402282763,-0.06646944326246917,0.13015492542574641,0.47453642123744616,0.8518664286760226,0.7181010428593136,0.27755902034775837,0.19038790720054846
0.422,0.21743250597751967,0.039469947706883335,-0.17761709995276512,-0.12840037768338936,0.19547245322593304,-0.07035210421561382,0.12070509169504244,0.4576445529084856,0.8445420871658402,0.717176668793177,0.2745479311944657,0.19023808011321544
0.424,0.2163430062263258,0.042495851798373646,-0.17344357891733286,-0.12878762126441096,0.19381368064829546,-0.06761907556475426,0.1088044376655701,0.44047550159259263,0.8361836025862933,0.7156450208602684,0.2690211320686023,0.1871824597386581
0.426,0.21167348191486846,0.05179748810221532,-0.15951841768562938,-0.12996833750256362,0.18524515893602975,-0.05686395726723728,0.10029367706652055,0.4235508046039871,0.8269372935909141,0.712664299847973,0.26398178245343307,0.18224881295622516
0.428,0.2070588456693761,0.0630043549991369,-0.14376633629128507,-0.13301175662014791,0.17484993242046282,-0.043174186209248386,0.09685443357504374,0.40381546418488723,0.8147999577657465,0.7063436479454742,0.2599054684929088,0.17693328938951397
0.43,0.2027462265423527,0.06928325171380104,-0.1333194806133226,-0.13484115410770062,0.16666195901981967,-0.033378081618319635,0.09553118551859754,0.38027528894413876,0.7986425356666801,0.695645634892609,0.25550627017862615,0.17206649546250652
0.432,0.1958692497063839,0.06746530002366834,-0.12868733603550872,-0.13137120631651864,0.16062506134944327,-0.03039759209454368,0.09374978704271782,0.35638469741875917,0.7797715958082192,0.6807244713092475,0.2496282353652694,0.16793957059787815
0.434,0.18677337845363406,0.060344254190235425,-0.12729851815499535,-0.12327044364207226,0.15594813095269028,-0.032766736267320136,0.09147200816803487,0.3344746963415254,0.7588083352852303,0.6623993824032085,0.2418000779534269,0.16444031561313005
0.436,0.17924347316245884,0.05364053011122829,-0.12670465855548957,-0.11521011101114571,0.15239393361444498,-0.03660682233912155,0.08887281400211135,0.3125398451080104,0.7345514523031081,0.6424656058164501,0.23214534597090697,0.16006832265611512
0.438,0.1737355223116534,0.05129173643453146,-0.12317784277490507,-0.11002722638837885,0.1478484137838343,-0.037340061727167424,0.08509792952368359,0.2884249567530222,0.7072461456562207,0.6228815454889467,0.22107806866935986,0.15235060894926414
0.44,0.16691934137464018,0.053575868636430456,-0.1135599055350698,-0.10719435358994023,0.1396790501429677,-0.03227794925331255,0.0798121107346396,0.26288171617093536,0.6790660743193033,0.6036555285175232,0.2086203573981671,0.14092542405057495
0.442,0.15790918353180058,0.0576113286557711,-0.1004794864575473,-0.10524504072105523,0.12910154713988445,-0.023703936046870017,0.07399861561903118,0.2375790579755823,0.6500354872456567,0.583163745692254,0.19443402115877703,0.1285970753163355
0.444,0.14859338788851517,0.059011002427288684,-0.09016030032103485,-0.10225270337499055,0.11964856029420148,-0.017326124712576305,0.06862475469499199,0.21341634505433552,0.6174630279594203,0.5604960492502716,0.1781516418637083,0.11760332373372462
0.446,0.1384039638495479,0.055553723318853755,-0.08358631597716194,-0.09587645916781501,0.11116482268106428,-0.015532798303245294,0.06339023434773008,0.19062259247925686,0.5808544355571738,0.5355284179708327,0.1586294082301148,0.10608834561710413
0.448,0.12521675203791482,0.04975920528545814,-0.0758279789234745,-0.0860875786807702,0.10044456260813257,-0.014953451763514689,0.05737692755887901,0.16836057183037598,0.5436718893327039,0.5075192364543072,0.13503546598384927,0.09078909671188434
0.45,0.11115651782073821,0.04566962486775014,-0.06545028876801005,-0.07652471381919393,0.08800592951692086,-0.012476766587182145,0.050672061758462734,0.14485320637228394,0.5089216995038187,0.47606048496723735,0.11082896072316305,0.07308431260120932
0.452,0.10135025451651766,0.043423805187102725,-0.057861525433938917,-0.07044536605925505,0.07868788045454785,-0.009971676974408058,0.04448201871071678,0.119413470618701,0.4760615762945902,0.44286757882572314,0.09234654841678577,0.05817762062335409
0.454,0.09692532249549557,0.039756819357456716,-0.057207982222721894,-0.06673393411325564,0.07504569080566038,-0.010893990728468866,0.03940262656587932,0.09383127052208473,0.44343055260910913,0.4110176150222036,0.08007086710714313,0.04766161249577632
0.456,0.09353643471955657,0.03296797508124598,-0.06053579685156404,-0.06182138814098968,0.07432060963530987,-0.015326174747569438,0.03440808668002552,0.07054073845145997,0.41143716269459185,0.38280460418071294,0.06706788232683014,0.03812264665556931
0.458,0.08653763304446153,0.024215695985003283,-0.06225640418806584,-0.053714394682335284,0.07216030778436405,-0.020487476105866227,0.02833152292780336,0.05014180711020082,0.382057495485146,0.3585211241330227,0.049252405149051236,0.027322313408596408
0.46,0.07593308368950152,0.014956597138478842,-0.06116323847925223,-0.04350151135619311,0.06748391863639687,-0.02460613091822894,0.022325913844442328,0.031932119631741036,0.35673200198827437,0.3365787582023742,0.030650035414563428,0.016914477858533457
0.462,0.06612848299940131,0.005863408504194204,-0.060692622213126206,-0.03420693402107044,0.06315682071857426,-0.02862031610199368,0.019596905436025453,0.01600536287142876,0.3354235910532689,0.3152083666980126,0.01639079082232585,0.008788626867115339
0.464,0.06024931642501197,-0.002649260072485509,-0.06309479873305668,-0.02756188868052613,0.061445573406976484,-0.0340036294705309,0.02112617935221724,0.0028559242294531025,0.3157248747703215,0.2942379751275263,0.006236560002525384,0.0016753897261532116
0.466,0.05614971250235602,-0.010544816197703675,-0.06624341949247609,-0.02202951861283187,0.060555678390099094,-0.04021784876025277,0.022953337198722425,-0.00938356115859972,0.29329383443933404,0.27449092942621434,-0.003901624232537566,-0.007675912376570423
0.468,0.05010151853069646,-0.017882476770144082,-0.06707524999992803,-0.0154564641574828,0.05762405355126011,-0.04518944458262743,0.02039583410582495,-0.02458089446900131,0.26646125657301845,0.25589383108169256,-0.017495138484900433,-0.02062336773143157
0.47,0.04189708027322385,-0.023974286342923323,-0.06524820013325268,-0.008330469584403038,0.05262681332036552,-0.04736187837951804,0.01339077419045745,-0.043766075232347976,0.23889763810963338,0.23669759060569662,-0.034840641564639216,-0.035121783155127345
0.472,0.03407689674868402,-0.027889695115702717,-0.06226566128222432,-0.002718343989338637,0.04752532994157026,-0.04672793158256093,0.005447440560354639,-0.06327335302021302,0.21452256255180496,0.21490937217152387,-0.05338004568849359,-0.04813710916332105
0.474,0.02870631160696343,-0.02951374856459398,-0.059349419453243554,0.0003942260769102089,0.043789209299785886,-0.044620123168609714,-0.00013209181951651192,-0.07919847528527647,0.1932587147480515,0.19135379177893413,-0.06972327262075455,-0.05788383287635914
0.476,0.025744092431085875,-0.029783456154491933,-0.05675275084029699,0.0019454256015794707,0.041267180239677875,-0.04274939457593637,-0.0020508741643902105,-0.09074878130982696,0.17399621947755475,0.17021001102117675,-0.08141376934241198,-0.06379717519611056
0.478,0.023025866938962,-0.030921598674396793,-0.05455854219322298,0.00441590803191938,0.038668420232167273,-0.042725834923867695,-0.001594817831268721,-0.09829537592328161,0.1569140091348606,0.15476496565994644,-0.08777981561729502,-0.06621764748597875
0.48,0.018752990969694714,-0.035990343390830556,-0.05454835175769571,0.009925654359351636,0.03598574046295093,-0.04643775886739436,-0.0010672205604378376,-0.10230336971437265,0.14172607642805277,0.14358898827356828,-0.09047319407078731,-0.06653275468415734
0.482,0.013921665358747566,-0.046074946967451326,-0.059253429421520024,0.017653116065431313,0.03536638560714493,-0.054558972771189235,-0.0005438689208221176,-0.10554499575136725,0.12786356876511287,0.13262954026128013,-0.09345625836062733,-0.06712827369239474
0.484,0.010478647118896914,-0.057975595489335674,-0.0675856728072521,0.024558058225951862,0.03780955329602681,-0.0641673815329167,0.001978618915520519,-0.1119124513515242,0.11620149150624585,0.12018823781156725,-0.10071129072128529,-0.0703188408917037
0.486,0.007995729027907064,-0.06676169347162464,-0.07416679027130403,0.029108500070151627,0.04048282912379115,-0.0706519639387847,0.0067187101480618025,-0.12124452104630615,0.10746460301819566,0.1077772028516074,-0.11233038890207014,-0.07664135485482934
0.488,0.004079345171072854,-0.07057567124966241,-0.07452869426948608,0.03266933042553822,0.03912178050522513,-0.07225195950466713,0.010726877529346883,-0.1287286809221626,0.10010031301457804,0.0972583205995746,-0.12367189107145249,-0.0845935932158192
0.49,-0.0023713980568843243,-0.07150524844932057,-0.06932941002705886,0.037105675853449066,0.032671504709248574,-0.07080355740618058,0.01109213397705084,-0.13102475118527104,0.09218332961793241,0.08945191381994011,-0.12974126166108985,-0.09193962622130411
0.492,-0.009932404761517067,-0.07229631318260603,-0.06267124280144597,0.04248739944096953,0.024336781262109593,-0.06857909564181516,0.008118246994944057,-0.13055640261151946,0.08416313069588682,0.08397074473006995,-0.13036743455066518,-0.09712645039770708
0.494,-0.01643512370419016,-0.07389838416640424,-0.05793374150403073,0.047269645653655476,0.018319518539371367,-0.06659666572723044,0.004675684290284615,-0.13252723849716416,0.07781861533869634,0.07898177639331165,-0.13022028918909057,-0.10034088203172466
0.496,-0.0203064811235034,-0.07594738057201238,-0.056436615039330215,0.049865324815648385,0.01674861111025778,-0.06581610166226654,0.0027220251032170437,-0.1394734236542945,0.07333132993895654,0.07283194314917155,-0.1335107642213645,-0.10322481036726848
0.498,-0.02058511669566226,-0.07785806828899337,-0.05824288177963005,0.05005012481481847,0.01909068634489531,-0.06739415738816891,0.0010305689185147275,-0.14953139156414408,0.06894754085246955,0.06598425965395167,-0.139882169444263,-0.10684572056118637
0.5,-0.01751768287538994,-0.0796031837241664,-0.06276713603078161,0.04922317666594676,0.023234386800585108,-0.0714779083076067,-0.0028003966644081415,-0.15889180110880324,0.0635097270432673,0.06019989746672225,-0.1460787979807319,-0.11043731862972658
0.502,-0.013436462906205945,-0.0823880892276492,-0.06906892165295533,0.04930874886824011,0.027088808391022037,-0.07725932707614572,-0.008075989816499677,-0.16492583512147477,0.058120869862054524,0.056214311766626876,-0.149907164999033,-0.11255974542375383
0.504,-0.011604402900238975,-0.08725206787967514,-0.07541295204105998,0.051132087172554255,0.02939882951212129,-0.08349251397868565,-0.010676674528976098,-0.16719534850409232,0.054536700728743906,0.05294026038660661,-0.1514941337227316,-0.11281642089308487
0.506,-0.013040021397834679,-0.09255995933684477,-0.0793389369876625,0.05363151157188459,0.029880472570238424,-0.08824971956299771,-0.008428373996245594,-0.16700951387787039,0.05263627835011063,0.04911282553034569,-0.1522372014231459,-0.1121297102485227
0.508,-0.01564229198719108,-0.09527304746527394,-0.07963951554656808,0.05519161744112856,0.02916036650439389,-0.08987110660494796,-0.0045439518477581615,-0.1666784684480924,0.05053331395078718,0.04503295950682751,-0.15349261357127986,-0.11199374983845817
0.51,-0.01761658540591747,-0.0951344272410372,-0.07747505900678617,0.056077379220278466,0.02794398166046744,-0.0888668402133401,-0.003696619474823664,-0.1680514411700187,0.04716130486723448,0.04253688173089254,-0.15525060539053925,-0.11407769401571946
0.512,-0.019714603505125567,-0.09488439305276818,-0.07472555147363738,0.05808158554262635,0.026234691727356516,-0.08739881806535972,-0.006643218401791426,-0.17100630583130852,0.043735071926178294,0.04332971038577386,-0.1559140132198317,-0.1192844626568505
0.514,-0.022658915239104696,-0.09561507685645648,-0.07203247772106922,0.06096530615772399,0.023783849188978395,-0.08633026807440398,-0.010137484283792507,-0.17348634213384792,0.04179466161717309,0.046231605014787534,-0.15439839101170846,-0.1257030179365199
0.516,-0.025213218441585666,-0.09463769349827751,-0.06837893449925275,0.06172276437509788,0.020455117455040406,-0.08388870934120951,-0.010570644150735902,-0.17295936704706402,0.0409222522304929,0.04699697985098018,-0.1522584851941548,-0.12963416665780497
0.518,-0.026558186975778577,-0.08995059438997802,-0.06272198558693946,0.05912562476981289,0.01617654645267816,-0.07857596791986793,-0.0066991733451334,-0.16826776859807477,0.039882742637554335,0.04283019488732463,-0.15224948736828836,-0.13035177676689041
0.52,-0.027638857070950824,-0.08494716780811806,-0.05711662032957246,0.05637923934657674,0.012128196837540942,-0.0731542779920912,-0.00029437134948136646,-0.1610736457352326,0.038752794677028454,0.035583473057549934,-0.1546723339850019,-0.13069080207334852
0.522,-0.029174054764957102,-0.08499761812473274,-0.05573996510060894,0.05709656148412685,0.010636805419598265,-0.07247399086562796,0.0045183692237530096,-0.15525584574302534,0.038272408904552475,0.028994568071237597,-0.15707576509508206,-0.13173845899560188
0.524,-0.03078075332982744,-0.08965197534582198,-0.05858099279781105,0.060651398397208456,0.011908856024973938,-0.07627764376164661,0.0038695453604635148,-0.15381601404878498,0.037805088213897275,0.02460636461851687,-0.15795996004103485,-0.1311464503569688
0.526,-0.031385001473273326,-0.09298521668094391,-0.06114301067490618,0.06332790987705436,0.013905505668992154,-0.07926605297919352,-0.0023791993595028,-0.1565669628592079,0.03528765331645487,0.021738401358090423,-0.158500560949496,-0.12766379434528488
0.528,-0.029697172287632936,-0.09256695424320927,-0.0623323513907099,0.06316615469178223,0.01623680809850609,-0.07966403035529462,-0.009894575702775346,-0.16082433010467143,0.029899618644660418,0.01975347636111319,-0.16003798223998533,-0.12353846572119426
0.53,-0.026481861793595147,-0.09272929585508884,-0.06561934811085104,0.06229926363494101,0.019614476832516062,-0.08126278397231745,-0.013134548477749317,-0.16344660235793412,0.02415992372986074,0.01844907599123364,-0.1622250890886161,-0.12197539764870453
0.532,-0.025248962911773944,-0.09683196361995809,-0.07101309126938665,0.06378539063170098,0.02205334284563746,-0.08547826684749896,-0.01030875765610995,-0.16293203651616395,0.021838219346630744,0.01721763466956802,-0.16422720838577348,-0.12428176004385928
0.534,-0.02843877301352573,-0.1012239024438791,-0.07254352242326474,0.06722195878997612,0.019995297384241672,-0.08750055158006902,-0.005159402486533116,-0.16031657705635977,0.0242106498304643,0.015789769387720965,-0.16560117411566624,-0.12883766533319987
0.536,-0.034696455194060054,-0.10038639452432321,-0.06579687214394299,0.06961997865599392,0.012799309193905917,-0.0828137778233434,-0.002666048202581131,-0.15760478143767676,0.02924655038534207,0.015266480903535466,-0.16557570306925998,-0.13188340608875065
0.538,-0.04079923475844874,-0.09495961774241027,-0.05434461424771753,0.06985331898661812,0.004049916097435855,-0.07395208368503707,-0.0037470001846923915,-0.15594050835023715,0.03322398463381898,0.01677554963042647,-0.1632245182366107,-0.1304787722722461
0.54,-0.04413592398664393,-0.09068341580935593,-0.04658781550386719,0.06933949029766827,-0.001224236601265428,-0.06803110159871018,-0.005601372950112521,-0.15546928510146668,0.03345858522741943,0.019439592810384997,-0.15907159127743595,-0.12542091060311358
0.542,-0.043090886122767104,-0.09079178145794198,-0.04760102713681258,0.06861868067756187,-9.527423780770946e-05,-0.06905827005659532,-0.005953118859780194,-0.15575325874854062,0.031143001295562318,0.021086107435923117,-0.15559350854023613,-0.12041717731115133
0.544,-0.03776744817019958,-0.09310883171435985,-0.05512864452490539,0.06662565623723604,0.0062921709970856915,-0.07460198521228707,-0.005130627203711782,-0.1561209571291706,0.03018504255206755,0.020848907865293344,-0.1552110043346554,-0.11837583844577956
0.546,-0.031039821655545113,-0.09411833929998861,-0.06261142706955193,0.06354285702497889,0.013521548308302652,-0.07924451396352458,-0.0045458602760357625,-0.15606941642583305,0.03218866895966753,0.019867354587027652,-0.1578650940416354,-0.11947365026285647
0.548,-0.026585550082581306,-0.09298358269012895,-0.0655335499113675,0.06121823799930665,0.01776171342414752,-0.08014329671697024,-0.004822291173072009,-0.15525541123696074,0.034658672263253386,0.019488195879164623,-0.1612605069573053,-0.12247289072829233
0.55,-0.02563866742306532,-0.09180512472486221,-0.06504071070933894,0.06079544412666911,0.01893742660515231,-0.07923662891373616,-0.005876641190607946,-0.1535117506753417,0.03459234419360985,0.019716118119751245,-0.1637492604431485,-0.12670234949861675
0.552,-0.027024209817975264,-0.09341849401198622,-0.06539856393422168,0.06221354756345069,0.019159366023011912,-0.08030243909998905,-0.007612762551944996,-0.15154152408133081,0.031879120339501764,0.019427132599623788,-0.16567881129676346,-0.13194428510856043
0.554,-0.029375492944931372,-0.09815434109753879,-0.06825854231934485,0.06498046718781456,0.01913959636158981,-0.08432313967033145,-0.00955615140463912,-0.15099364755836045,0.028894106097546255,0.017783395995000978,-0.1672658494717686,-0.13685633826093152
0.556,-0.03193227837149474,-0.10259913287051943,-0.07064812637166822,0.06772442195216542,0.01787131986800969,-0.08827505621428329,-0.010589132671619211,-0.1525566342881635,0.027988439685262514,0.015664836992289297,-0.1673451036894131,-0.13954996153257254
0.558,-0.03395882898064998,-0.10288885703471809,-0.0691050971543659,0.06849971317462966,0.015107944361568504,-0.08844702333590215,-0.00983226469636412,-0.154053687228011,0.029977223131725697,0.015475652722410523,-0.16495866296677084,-0.1396675207722813
0.56,-0.034757953401236504,-0.09914455888592524,-0.06434269079428066,0.06705924983199772,0.012504182794541937,-0.08465685436515105,-0.007553277222033869,-0.15226113018186777,0.034160351823196794,0.018419436655393487,-0.16065309928166932,-0.13786471183324206
0.562,-0.03431385513545979,-0.09550446661323125,-0.06066520451988758,0.06554374633537856,0.012144432743461171,-0.08074975124130886,-0.005260145128020612,-0.1471565006578989,0.03849063579870182,0.02185249108562464,-0.1563070248925239,-0.13422391245570128
0.564,-0.03287733275753746,-0.09512565495021985,-0.06128876174533294,0.06528149569984354,0.014583488476979309,-0.0801537569527892,-0.004615296734440834,-0.1424938291569177,0.04083544919299238,0.02163467974385596,-0.1538786714742996,-0.12912197156939942
0.566,-0.030010136515257947,-0.09612257955128056,-0.06507156195890101,0.06435138190791442,0.018510823204899468,-0.08171308159282314,-0.005318647981386919,-0.14191964358691098,0.04163008351160234,0.01807044495662162,-0.15410167482302228,-0.12443817837191597
0.568,-0.025713629627736392,-0.09440263639245736,-0.0679190552082045,0.06086028686793092,0.021770051020245422,-0.08175638100138485,-0.004901531243921843,-0.14567431953083607,0.04355394552415279,0.01642582840045774,-0.1565558459848508,-0.12183155536420709
0.57,-0.02204251883545242,-0.08975923288021737,-0.06719816979951501,0.056841362318164904,0.022746076022583918,-0.0793448883793305,-0.0023596046686615493,-0.15056568013537766,0.047341363048925535,0.02027904475238926,-0.15989872294208513,-0.12037287600011853
0.572,-0.021085928104490663,-0.08614823295780089,-0.06451711454035704,0.05549515001434564,0.0217978855602013,-0.0770028268282857,-0.0006884866865903784,-0.15295503951749598,0.050391758352599236,0.02732498911364196,-0.16187758959340118,-0.1181063254486533
0.574,-0.022163591962595305,-0.08611320275894749,-0.06326409743646044,0.056636697147683046,0.020850985517975193,-0.0767705423510664,-0.0032453050488579424,-0.15209560013982365,0.050609784954731986,0.03257709624385417,-0.1605904169580945,-0.11576240374792232
0.576,-0.023271738862360895,-0.08789397333651423,-0.06389050587132643,0.05789736962824386,0.020702940032758122,-0.07779383771942598,-0.008548484309200128,-0.14983936398027253,0.04911236672485125,0.03370657276666077,-0.15622229238458568,-0.11632087613056954
0.578,-0.023743050070300597,-0.08812620951032707,-0.06370735663013953,0.05791516627130724,0.020053794183416688,-0.07773382557920747,-0.011354901971241782,-0.14769015557007564,0.04831348158968601,0.032528588317990235,-0.15139840279172856,-0.12060483771411393
0.58,-0.024180058115999287,-0.08553033753131556,-0.06085780518741373,0.056789691810744454,0.01775119224353777,-0.07528583119229752,-0.008674543616402759,-0.1455816822991836,0.04910147593062301,0.03166698120677996,-0.1489251267305943,-0.1255865701806968
0.582,-0.02552427647972676,-0.08230064921626368,-0.05660497323594034,0.05592065092545374,0.014528401502922643,-0.07168153044042085,-0.002852398527089607,-0.14287332920434215,0.05008748453515732,0.03112920896270138,-0.1485446888704365,-0.12765164810290533
0.584,-0.02813970691027278,-0.0820862086231792,-0.05404779316160011,0.057027280975085526,0.01225330089937684,-0.06982605325419695,0.0013959594831938885,-0.13958456266919397,0.04916461300111465,0.02938110866722874,-0.14764999667254466,-0.12640161859537943
0.586,-0.030633601191198092,-0.08554722745241145,-0.055056960924939974,0.05952865612755901,0.012221270030871707,-0.07101904143762588,0.0018580841416313534,-0.13684469103966107,0.04657446726359565,0.026347682504195096,-0.1455734172306274,-0.12461365196705465
0.588,-0.03082248311485883,-0.08897754784182758,-0.05820050509184713,0.06059548803078447,0.014067011103787738,-0.0732094796087349,9.602151307924627e-05,-0.13598502693651648,0.04542482148997168,0.023729217790613866,-0.14427477017087606,-0.12447128216560582
0.59,-0.02812952119123554,-0.08835636878949489,-0.06031631354698448,0.05838386795269023,0.0163574649096888,-0.07342340958330584,-0.0016143543531349758,-0.13725167836388996,0.047783243144366355,0.02292947403624235,-0.14448876232109453,-0.12530610632385497
0.592,-0.023895803079784964,-0.0834246777292277,-0.05996599734936575,0.053717665778853924,0.018118047818880833,-0.07092094799222723,-0.00290876947986012,-0.13971042530759195,0.05198508491616987,0.02370774068679044,-0.14446734668169534,-0.12584844995509048
0.594,-0.02008769281014355,-0.07736601155527942,-0.058195094006328225,0.04911664314389268,0.018971475526785662,-0.06740387423030975,-0.0041901284825851945,-0.14193193884213826,0.054868560038988226,0.025327159642654973,-0.14307928673204223,-0.12624800439956682
0.596,-0.018086802007398647,-0.07364207207845559,-0.05672221772841862,0.04675634915578996,0.018667530197808545,-0.06524074326810557,-0.004651850679956872,-0.142719277614188,0.05548322183418614,0.028197088836480127,-0.14138761160596736,-0.1268705542874193
0.598,-0.018182407454458437,-0.07385591124004781,-0.056660407589352965,0.04714704917150236,0.017544529416768834,-0.06600729638357108,-0.003201484513004017,-0.14169231482617917,0.05627455371316738,0.03266008102958083,-0.1402798859693505,-0.12710029664770126
0.6,-0.019984018206865854,-0.07731966732701159,-0.057851230299697215,0.04953403648495623,0.01634532763122069,-0.06921698783158582,-0.0007059054758942991,-0.13930623351145455,0.0602007526722262,0.03709651152580194,-0.1386588859636013,-0.12572690129857997
0.602,-0.022255948724264896,-0.08069081742465603,-0.05859893284689519,0.052149487873653075,0.0154066975590861,-0.07159890808527503,0.00029008514115099425,-0.13617534228437864,0.06633451241999468,0.03981428730823474,-0.13544694062686996,-0.12215818260461613
0.604,-0.02315397016394818,-0.08019007903777164,-0.05730860144560355,0.05287319542456062,0.01471071460563899,-0.06989105317740091,-0.0015488883839093717,-0.13232204998333627,0.07036039408006595,0.04124075135772684,-0.1317403134419922,-0.11791910799892275
0.606,-0.022796349230339737,-0.07680864082985102,-0.054662438144922776,0.05211083464884426,0.013938934796240032,-0.06548336363722737,-0.004630046802338132,-0.1279233206271402,0.07009686222605076,0.04168861682235174,-0.12915805834444108,-0.11611999735171771
0.608,-0.023783790306412284,-0.07598127929745933,-0.052919011671118815,0.05304990154700037,0.012517295228944257,-0.06337565221161694,-0.006190173658953534,-0.12463053644411262,0.06785887560325796,0.0398121042729892,-0.12794347804990583,-0.11812955475686321
0.61,-0.026909053037563743,-0.07990443680684964,-0.05329765976866068,0.056707929656098756,0.01081246722697897,-0.06569010744284644,-0.005081138185602564,-0.12384400558861117,0.06682816750244788,0.035741686784944576,-0.12816816313421103,-0.12170211506787021
0.612,-0.028814427666101303,-0.08424052738559969,-0.05528790975204671,0.0594910257931636,0.010724525999884462,-0.06941451752525836,-0.0024565461652829865,-0.12442080604675886,0.06751178452572211,0.03250653739636849,-0.13015724229893808,-0.12333027439311271
0.614,-0.02639032929046651,-0.08397513285973633,-0.05747352978615463,0.057810248285022466,0.013362589372227082,-0.07070614942658153,-0.0006829774837066564,-0.12492849392203997,0.06839910399939822,0.03230471781475783,-0.13310044081812314,-0.12139677733004207
0.616,-0.02170415266484369,-0.07941508591897768,-0.05799916681792663,0.053098673928103086,0.016635232818279493,-0.06888218234050393,-0.0013629769414088104,-0.12597660793136548,0.06845525634979956,0.03378772224140757,-0.1355725031327793,-0.11695843572043155
0.618,-0.019737612871140474,-0.0752035765008998,-0.05599886165961907,0.05011408041416335,0.017320602552280913,-0.06632686434642948,-0.003325807469079714,-0.1277754086662582,0.06799995900267315,0.03407844121420966,-0.13685917602788483,-0.11307723416711174
0.62,-0.021930516163449987,-0.07418641705406125,-0.05258575587040759,0.05062469560436924,0.014831376704318987,-0.06506014478370027,-0.0038625608022827074,-0.12865027738920934,0.06755442133100385,0.032169198268444,-0.13663809218811407,-0.11279719029477339
0.622,-0.02492554322450247,-0.07384692799816525,-0.04887155048539138,0.05133522247038449,0.011035920717137332,-0.06384870272710651,-0.0030199511459359164,-0.1277864584057076,0.06650228682156804,0.030015330392537547,-0.13483026848624624,-0.11613583014170877
0.624,-0.025562664038779777,-0.07074700519911149,-0.04498660329198888,0.04935399477793078,0.00800553285276692,-0.06070531764882132,-0.0038655476416027974,-0.12655781176605574,0.06375275794302482,0.030246067013426817,-0.13242275680384216,-0.11976725527544914
0.626,-0.02450619423899037,-0.06640153185655041,-0.04182048175900374,0.04674709212910398,0.0069468751542891205,-0.05702615885869061,-0.00705192508321584,-0.1263382798779049,0.059972741042759244,0.032914679322991594,-0.13095232947537847,-0.1204770172014693
0.628,-0.024832975886776035,-0.06518285428402111,-0.040418768474556256,0.04738898121476474,0.007124435946086885,-0.05575512334212141,-0.009004952653024857,-0.12701744929769235,0.05757643927934322,0.03579976103069822,-0.13053044977956524,-0.11836873227590235
0.63,-0.028315683457603352,-0.06846857878365184,-0.04022653056002133,0.05180575121195134,0.006346754841479826,-0.057232955523410865,-0.007375098845966292,-0.12808011741159817,0.057748655495719885,0.03755743172823169,-0.12971807122094212,-0.11619012694828582
0.632,-0.033177744799482024,-0.07374872982933343,-0.04056895006846498,0.05694761494936014,0.004195687570608942,-0.059740740943981095,-0.0043366068634633805,-0.129604797332443,0.05908534449005826,0.03855778135163176,-0.12780093880299925,-0.1158950887172611
0.634,-0.035924676839644655,-0.07726466817528146,-0.04129898678839639,0.059325211376384135,0.002437193824756343,-0.061532635114910215,-0.002681626887634547,-0.13144217203285968,0.05969811018651156,0.03931054922141005,-0.1255794384505114,-0.11698316457990168
0.636,-0.035632516582128536,-0.07650413578229995,-0.04085314636076277,0.057937152589362065,0.0014799133083174198,-0.06097836108871404,-0.002211762851513945,-0.13242946650155102,0.05929049271344808,0.039905301791154826,-0.12387702298045902,-0.11829172749559655
0.638,-0.03515184755351298,-0.07267543321259073,-0.037537120303255005,0.05531808771579995,-0.0003583081163533327,-0.05781007630736548,-0.0018412420374409285,-0.13110425325651393,0.05876241903425548,0.03998184238872401,-0.1231593647567121,-0.11972289213241125
0.64,-0.03716826116917864,-0.07056171077266989,-0.033409988622056484,0.05512222511132664,-0.003331822755474706,-0.05475872087674513,-0.00216222601408829,-0.12730510904077152,0.05872914703670427,0.038580510987627714,-0.1240042990161464,-0.12138433676440691
0.642,-0.040466389089166624,-0.07377633937115476,-0.033310464089701806,0.05827291184898356,-0.004779848436596922,-0.05546170315506055,-0.003904526895194045,-0.12362057036210639,0.05900008023820621,0.0355274085637242,-0.1260906254639217,-0.12255744589223927
0.644,-0.04195923715690349,-0.08060899121102154,-0.03864097466474076,0.0625144020961829,-0.002727791046113111,-0.06028730060310542,-0.006186390684157367,-0.12418581551646865,0.05914762896083077,0.032319957680099674,-0.1278686387103542,-0.12262477180363551
0.646,-0.040718400944863,-0.08556637775056254,-0.044843503206673865,0.06492217443983289,0.0011751116092903343,-0.06549909505175121,-0.0075561292016323636,-0.13009311017261843,0.05907042096332988,0.030273236763494086,-0.1286340294006119,-0.12193653536721392
0.648,-0.03777027442256645,-0.0849017857974763,-0.047134165647148694,0.06393480989832469,0.0041988089866391185,-0.06716830762147702,-0.007316869803030188,-0.13708956088528423,0.05895308324770058,0.02936989530628041,-0.1294577086049422,-0.12092900860483766
0.65,-0.034112687374336106,-0.0806905975233307,-0.04658161927778149,0.06056508938147883,0.0059430684452580805,-0.06557716687105071,-0.00589025961204794,-0.1400223864765719,0.05893917007367855,0.02955739895789021,-0.13108544628220428,-0.11942384280962665
0.652,-0.03057763608748644,-0.07827070474818827,-0.04769339183126134,0.05760362806188099,0.007626064797485475,-0.06441740177370127,-0.0046836640244770685,-0.13860576537738156,0.058667455778390096,0.031030854191998677,-0.13266690877237527,-0.11778418386039533
0.654,-0.027807254590992477,-0.07903709807286492,-0.05122797368856571,0.0560714300226063,0.009549873848997577,-0.06538288103591998,-0.005103867702641726,-0.13695510683312687,0.05662301896390796,0.03269095933249512,-0.13355135781865338,-0.11787088249417135
0.656,-0.02599467591670893,-0.07900608013898128,-0.05301033474700086,0.05419643537065602,0.010517301561518085,-0.06608577895320165,-0.007500169397012458,-0.13822712881124952,0.05104055756676039,0.03249309781961214,-0.1345256474030383,-0.12116007149167851
0.658,-0.025914225483942083,-0.07567060657059892,-0.049756890637134,0.051524602282678064,0.008990446861576872,-0.06404995289056702,-0.011335769382760954,-0.1413904175265359,0.043038313149896014,0.03023242533403586,-0.13616064079721502,-0.12592330371779437
0.66,-0.02918521188444747,-0.07205437513595501,-0.04286999027826231,0.05105346675828872,0.0043772513661018315,-0.060066397499335594,-0.015475213933196433,-0.1432600886020764,0.037197388095457036,0.028348230184092365,-0.1372264712899538,-0.1280510684751335
0.662,-0.035784126953377106,-0.07260230696926195,-0.036818296975483396,0.05512681636256462,-0.0016836946703739798,-0.05728778455913456,-0.017342330179677016,-0.14224195513425766,0.03697344970338898,0.029436129992682317,-0.13544456754320122,-0.1253255565979708
0.664,-0.04253090613328687,-0.07812971345055028,-0.0355984118557625,0.06182964588580099,-0.005484396434972568,-0.05856279589014362,-0.014177149644217794,-0.13938316584995467,0.0409340821410928,0.03370421740740742,-0.12989325804308646,-0.11984960026007617
0.666,-0.04554039658625483,-0.08530662656658977,-0.03976597725868486,0.06699644799755529,-0.00427039761149302,-0.06376519768124077,-0.007368492870141305,-0.13695559807622157,0.04461196082572303,0.03856528849394904,-0.12310878773060582,-0.11590209124613593
0.668,-0.04335250291806625,-0.08976544324429081,-0.04641303542508846,0.06790187391975214,0.001194391748309695,-0.06940930624466171,-0.0026205034916209403,-0.13678211169468377,0.04485145448299061,0.04068044375870308,-0.11950572725393657,-0.11610936823706755
0.67,-0.03820130437645283,-0.08997139060712572,-0.05177026957119721,0.0651040661250685,0.007182860371192942,-0.0719552924280748,-0.0039568629086825895,-0.13899226606987142,0.042007771835868284,0.03865986975801613,-0.12095699044323217,-0.12001462688167254
0.672,-0.03519495216214648,-0.08821606766357691,-0.05302115117723951,0.06232377048176395,0.009243026275441045,-0.07102375168194597,-0.009833714635043362,-0.14189209557867238,0.03885377888458322,0.03372134776414967,-0.12573647227581453,-0.12556575442301277
0.674,-0.03779081910283971,-0.087821570333253,-0.050030668217934754,0.0631471542751885,0.005729217206691357,-0.06924315463366638,-0.0154036828609887,-0.1437549264996836,0.037695191412090774,0.028405481886849833,-0.1317108007410953,-0.1310901527661541
0.676,-0.04331840882224582,-0.09001370854877665,-0.04669524060610336,0.06688095535076229,0.00033508075067887754,-0.06957858947131998,-0.017233152612846674,-0.1444021002489446,0.03865094532141193,0.02473424279639678,-0.13801824785404743,-0.13596947901235606
0.678,-0.04617184946691493,-0.09344277957585542,-0.04727094717163115,0.06975108701434699,-0.0014758653724507378,-0.07238015637802661,-0.01567999182464312,-0.14409838506558995,0.04080849269932001,0.022878969520211317,-0.1433506550556272,-0.13985264891528026
0.68,-0.04553767290588445,-0.09571903190022356,-0.050181399407810454,0.07019680404810738,0.00036399384277151724,-0.0746970254281528,-0.012565370610683252,-0.1426916075184521,0.04352004207729372,0.02167248699052842,-0.14546224818938697,-0.14158537646360012
0.682,-0.04603143735153684,-0.09494502143416668,-0.0489135940748092,0.07014791955404179,7.62333848474271e-05,-0.0729451020233465,-0.007871899780540639,-0.14143553374489004,0.04554048676107569,0.020420082674651292,-0.14395712481844192,-0.13985734285790916
0.684,-0.049737028292780545,-0.09095809276858556,-0.041221047194043604,0.07091728642843331,-0.005210212640206593,-0.06700387763230482,-0.0011518448277259745,-0.14273789613646587,0.044837042168908485,0.019334237394296055,-0.14149302365286456,-0.1356224920531248
0.686,-0.05229773267574714,-0.08622212442275212,-0.033924378039323924,0.07106968519823816,-0.010165034354886134,-0.06146886565335953,0.005090199254650976,-0.14608022400260498,0.040691200359793026,0.017997996039878186,-0.14073718849015246,-0.13276718334679916
0.688,-0.04964071071228651,-0.08426667688928016,-0.034625969060514517,0.06944721050657988,-0.008479875233063861,-0.06122716668895283,0.0069488225599471445,-0.14744377450655197,0.03549107403494882,0.015064498952479724,-0.1416359228477844,-0.13424864953667304
0.69,-0.044143417559012056,-0.08596214163707691,-0.04181873293599352,0.06734964764739101,-0.0016802766884932707,-0.06573077326877236,0.003933450363728858,-0.1450184921781192,0.03328065572233405,0.010219608587109085,-0.142584374148236,-0.1380517480387737
0.692,-0.040910030734646864,-0.08825144701683285,-0.04734141893961332,0.06617752717156215,0.0032552200107313716,-0.0693885688594816,-0.00022717954514148283,-0.14254301252815343,0.03532418466941216,0.004821387759500676,-0.14315710991726205,-0.13990190001344546
0.694,-0.04169845262290501,-0.08682692215089459,-0.0451504055840327,0.06524544875744077,0.0016515473861004703,-0.06695564148460013,-0.0018388323908652409,-0.14441276865374214,0.0388117660721253,0.000810154949825762,-0.1446273666243594,-0.13943376861922602
0.696,-0.04492140926860062,-0.07984442074593244,-0.03505432408988877,0.06339217204338204,-0.0060808253685503705,-0.05765468463490239,-0.0006763211482435893,-0.14947974362374455,0.04125181565433314,5.542113516749354e-06,-0.1477508754409225,-0.13986931879456052
0.698,-0.04830666983273563,-0.07085711910402732,-0.022877868770555334,0.061358252780943846,-0.015246245081403995,-0.04672326177503994,0.0013357764116849876,-0.1524188378762878,0.04288182853842251,0.0026359513214514836,-0.15094878398311665,-0.1422478441651428
0.7,-0.05031238630510359,-0.06757705026236793,-0.017687271104089988,0.06145404048376392,-0.019484120805863675,-0.042726836987419956,0.003089092429310217,-0.15025360957018655,0.043974953790750684,0.0065428553971035456,-0.15166075419840436,-0.14428433764599827
0.702,-0.051429460011433656,-0.0740941387164262,-0.02292022005870346,0.06498780301429136,-0.016829471725221194,-0.04902687543204041,0.004535618180298676,-0.14489558367636385,0.04316511943617778,0.009769905769762924,-0.14922275366186397,-0.14430353537251928
0.704,-0.05350996292660204,-0.0852759629264493,-0.031740325812143255,0.07033112246826845,-0.012128160674528743,-0.05917848127110071,0.00543194639953369,-0.13990476735849589,0.03939677304036162,0.012179969020467002,-0.14549627699103612,-0.14267793130764436
0.706,-0.056003959471759436,-0.09256202246380951,-0.03641226566547595,0.0741301398214756,-0.010128441353299522,-0.06491585924290191,0.005482947794256782,-0.13756312733808854,0.03399855143239577,0.013058785591283853,-0.1427274195697953,-0.1404878182885714
0.708,-0.05569473344086372,-0.09338823477361491,-0.037630285675722866,0.07465974317115999,-0.009697459702921279,-0.06552236485100815,0.0050469447731190335,-0.13862699932426212,0.029739345840527353,0.010335516549044573,-0.1417436336783554,-0.1390186935054312
0.71,-0.05212772406631146,-0.0913237484669403,-0.039242154739059,0.07315458301475034,-0.008101208372865059,-0.06513549302191877,0.004772921742848787,-0.1424854672349454,0.02812973171799659,0.004121850688036972,-0.1424197207484795,-0.13935998450993414
0.712,-0.0490008880454296,-0.08969156695528581,-0.04074709740314089,0.07152086027521308,-0.006010014664676254,-0.0654324941438246,0.004754181479248798,-0.1473640585468086,0.028467216255524196,-0.0020927554844959954,-0.14469928528215217,-0.14122962015899493
0.714,-0.04814280249450258,-0.08929025631349033,-0.0411496148106585,0.07012241711762202,-0.004629262804420239,-0.0660102294919703,0.0042900565186010904,-0.15111288076276355,0.029169642037129948,-0.005701047430369064,-0.14814728814929803,-0.14250669680644337
0.716,-0.04716183700262825,-0.09042287465135036,-0.04325337130107823,0.06886029978821781,-0.002739378422199371,-0.06789315309007542,0.0028068813731123923,-0.15238906514755463,0.029214184435595012,-0.007486323507016742,-0.1511998984813051,-0.1411178134035377
0.718,-0.045228595939788035,-0.0935124522958298,-0.04842179335303342,0.06906915226263237,-5.0743126054330926e-05,-0.07198315840794768,0.0012672788368340662,-0.15177082508529152,0.02819911394396033,-0.00845974378261449,-0.15228061358726408,-0.13794487180504977
0.72,-0.04579069782990462,-0.09797988509488234,-0.05267868267464357,0.07221267577846686,0.0006381588436308982,-0.07655926057725157,0.0015628282963050665,-0.1514168557596701,0.025835529157369377,-0.0074662419750309095,-0.15167845162102464,-0.13646047073410666
0.722,-0.05065085558998897,-0.1018333034031856,-0.05207635396228267,0.07695006761287354,-0.0023466121637196347,-0.07884874350785198,0.0037093147538220304,-0.152898413361127,0.02246351543152146,-0.003813730742974769,-0.1514029417561749,-0.1388563850017566
0.724,-0.05610961937646725,-0.10267191379844097,-0.04756904787625837,0.07963944785865153,-0.006540307248280123,-0.07736740085370074,0.005101293623098315,-0.15546142153031162,0.01962746645618388,0.0002448600369569327,-0.1529319090997381,-0.14379957604590812
0.726,-0.057395641066300164,-0.09947348767592291,-0.0427240300284713,0.07797535960288782,-0.008435362725298346,-0.0725993815710341,0.0036638380433511655,-0.15703883669276453,0.018768532971548228,0.00181703156251297,-0.15548532279333113,-0.14862358839385978
0.728,-0.05349479901478184,-0.09411893518805874,-0.04070455451933892,0.07311560499487499,-0.006759876306294996,-0.0676815998989927,0.0005740314296552897,-0.1569213106103621,0.01954484233165888,0.0007034419899739685,-0.15703343868485023,-0.15236028925351286
0.73,-0.04723144356778175,-0.09111387910711227,-0.043649437292405405,0.06895980405299366,-0.002240522103755702,-0.06747191343121674,-0.0013165409603447449,-0.15663938745543465,0.02028903084161929,-0.001409826422025164,-0.15690616317060074,-0.15525278995085942
0.732,-0.042829056141373355,-0.09377124662375237,-0.050782107220909416,0.06914791611046886,0.0031333921509456306,-0.07358403129398104,-0.0009659927812477034,-0.15769485738441105,0.019663230486741148,-0.0038556958686709166,-0.15641567711447213,-0.1567924143067721
0.734,-0.04267315273677962,-0.09936748797748217,-0.056734083854830086,0.07303444912356048,0.006154413745675344,-0.08050825129253611,0.00020224845007263306,-0.15892719729827617,0.01758837576953228,-0.006960927076278064,-0.1563878349965562,-0.15612661170102618
0.736,-0.04527382089397168,-0.1005949331941393,-0.05542449287204739,0.0754869218470908,0.004339222381519922,-0.0802547657856028,0.0006088138393873339,-0.1579385122253264,0.015247973245610528,-0.009959129028076894,-0.15554857210776882,-0.15363072232433392
0.738,-0.04715897770897525,-0.09392516840103637,-0.046794302572496047,0.07262385689428832,-0.0011022814075034688,-0.07166403587697609,0.00018251983694947806,-0.15521474317022896,0.014098255977272786,-0.011160397863605785,-0.15305504893368604,-0.1511479588768384
0.74,-0.04728120837441194,-0.08391005854338879,-0.03658640064270899,0.06665437308815968,-0.0065985555506895225,-0.06138080924649898,-0.00024235694149480662,-0.15384939214428162,0.014520924788093905,-0.009827387908748523,-0.15112867266823438,-0.15062674344493784
0.742,-0.047744995442244614,-0.07747941796179036,-0.029698939247509177,0.06298130867325635,-0.010214635037549729,-0.055415107120564265,-0.00021469119897194643,-0.15497862400124848,0.015924903189955583,-0.006539347793834385,-0.15275827245472767,-0.15209685818549293
0.744,-0.049398013540699066,-0.07714905093808354,-0.027757231013648333,0.06373081111611294,-0.011608033482579057,-0.0545612389702216,2.9596167984588295e-05,-0.15649237130237909,0.01778624101402152,-0.002679248029214816,-0.1574538155121457,-0.1533637060754135
0.746,-0.049893580756551745,-0.08106884667505106,-0.0311975627565697,0.06652466206278339,-0.01001125314989216,-0.05760570853447025,0.00013117031429736212,-0.15609984875611246,0.019614728458098727,-0.00047578253188417636,-0.1611139174299455,-0.1526783085390583
0.748,-0.047642540862624407,-0.08654897357060934,-0.03891369699224408,0.06852772823759583,-0.00540528819208816,-0.06360109402057686,4.647300296218471e-05,-0.15391872435025042,0.02052501402461637,-0.0020521461236120294,-0.16074382467214435,-0.15114781801366556
0.75,-0.044872212796675415,-0.0919845019653206,-0.04712553198139583,0.06950824082870509,-0.0003165566524447952,-0.07049082707405742,-4.937831877322958e-05,-0.1525958030420752,0.01977030685916603,-0.007243096773559007,-0.15842607865262015,-0.1513953084013567
0.752,-0.04489613652120474,-0.09688282063094118,-0.052131822350315514,0.07123358309153784,0.002149754531242264,-0.07549697876978485,-4.894109610835042e-05,-0.15486434298118965,0.017558561199132638,-0.013105928707736162,-0.15851022541956394,-0.15383753828215557
0.754,-0.04758900174249851,-0.10138463737694406,-0.05425523957563949,0.07464446148955088,0.002088146181474499,-0.07829922333885678,3.5712559051107314e-06,-0.16034836396351512,0.01518666072571989,-0.01639319663712332,-0.1614502833570836,-0.15550205620215768
0.756,-0.049404533357394184,-0.10565672433669765,-0.057007060040328655,0.07815816172143823,0.0027431313792289054,-0.081505766155735,-0.00030068052433979223,-0.16601206639139987,0.014082802128487903,-0.016386402792252255,-0.16389093294881618,-0.1541442337103919
0.758,-0.047875543332262585,-0.10891628098623178,-0.061742662942711725,0.07942726942611528,0.005971837945134974,-0.08635333417618167,-0.002287208017395511,-0.16966436262319415,0.014434944697838653,-0.014993956022742928,-0.1640476791040246,-0.1523035643325288
0.76,-0.04451049864740028,-0.10931140752551403,-0.06518226633216781,0.07795420982538968,0.009371637729820569,-0.08981751996724674,-0.007220071139489907,-0.17124464812973866,0.015177877800629532,-0.014305350205072889,-0.16336454311454365,-0.15416118409899324
0.762,-0.04253771335710982,-0.10610816853145681,-0.0638558727963684,0.075167674498495,0.009426165894974692,-0.08839683517990163,-0.01356029252792402,-0.17150728117315664,0.015379249264472464,-0.014790566878511612,-0.16370435599437066,-0.1592959107092966
0.764,-0.04352555185958568,-0.1014277324900346,-0.05842133395816726,0.0731171343353857,0.00580715503663504,-0.08286774461189561,-0.017162777229774225,-0.17096066107955377,0.015086206566358886,-0.01598755241720849,-0.16496560944436234,-0.163101760096166
0.766,-0.04774569818385087,-0.09823811303236231,-0.051023205891492285,0.07357851482027421,7.860013997275787e-05,-0.07634803550971314,-0.015458530182015017,-0.16922796193009457,0.014836816965606597,-0.01768009141490056,-0.16496537084762913,-0.16297773128919701
0.768,-0.05481478599623672,-0.09742125493671587,-0.04261192110306765,0.07666726464649312,-0.0068596414295373775,-0.07047998857037602,-0.01000065854736409,-0.16527749982974685,0.01476594868088453,-0.019615179627841737,-0.1618615954246247,-0.16079610334209332
0.77,-0.06152435111268967,-0.09783601810169307,-0.03577581765217214,0.07985928426847146,-0.01277425616293001,-0.06636556285535593,-0.0048311992504524535,-0.1595588686306298,0.0142632615927053,-0.02126164438760103,-0.15694176347525995,-0.15913932738158193
0.772,-0.06318846973483849,-0.09798492186405112,-0.03430403689275582,0.08015190572571773,-0.01409441326866234,-0.06533792288970883,-0.002968264245055734,-0.1549716326629738,0.012678475908422082,-0.02251307351571235,-0.15355419268540088,-0.15823100107907673
0.774,-0.058899838434547,-0.09672669445376718,-0.037790512954349646,0.07702458515431951,-0.010513164387176468,-0.0666178164259828,-0.004068888416600023,-0.15402277952476587,0.01050654901450939,-0.02339582500481417,-0.1537128793155278,-0.15761473237726037
0.776,-0.05196762300037787,-0.09391157508224736,-0.04218602417424899,0.072249625068951,-0.005412359866086071,-0.06797863687793565,-0.005667544965898528,-0.15631381936902117,0.009172199124964291,-0.023048201048007817,-0.15725790792700814,-0.15804158563392506
0.778,-0.04610907677113795,-0.09126833238979509,-0.04530254865501613,0.06829902069474854,-0.0017204503330838453,-0.0690545921850324,-0.006512815002355284,-0.1599596505237467,0.009195953906664984,-0.020829960975201164,-0.162432269514566,-0.1598582736764867
0.78,-0.04367560774562161,-0.0909073753341173,-0.047171877930102524,0.06730315527990635,-0.0004893793385226218,-0.07044889383412196,-0.007459909433381411,-0.16370343979031482,0.009301695964297514,-0.01852316629711764,-0.1659966186986091,-0.16162531448391518
0.782,-0.04512946258502258,-0.09261853451862365,-0.04738253516397576,0.06955288597404244,-0.0016430776631107817,-0.0711468252734136,-0.00914123949571692,-0.16686503161607014,0.007993826320155037,-0.019289094572259143,-0.16545436791979853,-0.16193013546374072
0.784,-0.048487614550994644,-0.09459182253027694,-0.04608560130542564,0.07291534079215271,-0.003627508040755298,-0.07042642515488409,-0.010585319394760047,-0.16857454476812994,0.005638237231980715,-0.02380740777787065,-0.16206850944871792,-0.1611571491016703
0.786,-0.05111062259676467,-0.09608938956976568,-0.04502784292500936,0.07513515708938433,-0.00433661054948341,-0.0700198250678511,-0.010770502881927706,-0.16780822282281366,0.004065577310020975,-0.028949208410468382,-0.15966345303727675,-0.16069392017779222
0.788,-0.052595172609787647,-0.09741174674346616,-0.044828220751704465,0.0762996557284753,-0.003972870886723619,-0.07132511124025194,-0.009881087346122749,-0.1643698630783489,0.004402891613324824,-0.03113004937748072,-0.16026295506674376,-0.16126115642063307
0.79,-0.054696205079938706,-0.098372892592801,-0.04351271257043402,0.0779685713878571,-0.0051939635352576475,-0.07266699855757824,-0.008109096163938491,-0.1594466832179492,0.006600252304475324,-0.030103558302587437,-0.16198809927029426,-0.16184885534650967
0.792,-0.058412462063663954,-0.09852036554673317,-0.03962572769920044,0.08052392039963842,-0.00934078514638309,-0.07166160999479623,-0.004965258254016279,-0.15475124266949022,0.01027035366168579,-0.028461242611496154,-0.16133849167117062,-0.16014044569828395
0.794,-0.061993372922224184,-0.0980963153445827,-0.035347571626548197,0.08231570793048662,-0.01379575443150108,-0.06880858903196829,-0.0010512939517752264,-0.15204968002846306,0.014219275290842234,-0.028164567139861613,-0.15728526449877617,-0.15551396507140916
0.796,-0.06288607875747178,-0.09766638800225644,-0.034090461258937464,0.08169423336483374,-0.01497432217904097,-0.06659935194268815,0.0015339523025050478,-0.1529803913000092,0.016207460399715806,-0.02889050586693096,-0.1526320580799037,-0.1514615208843326
0.798,-0.06180453405914332,-0.09707226709512898,-0.03489241779045877,0.07971302440721299,-0.013917627878148944,-0.06558106069703558,0.0020652148836354848,-0.1571973627628736,0.014620729870835463,-0.029398862007684167,-0.15133897140543603,-0.15268111868835607
0.8,-0.06228963513669158,-0.09574886393574371,-0.03314816678031985,0.0793416066311078,-0.015328276470442758,-0.06397666127673218,0.0023506855375842505,-0.1615142946421908,0.010069588632454371,-0.02924918490979902,-0.15476750713912646,-0.1594195960484447
0.802,-0.06514788897322989,-0.09435766999635688,-0.028510365760246004,0.08148181072010567,-0.01972867469357814,-0.061852460674060465,0.003810724502551683,-0.16292638568790271,0.005307017993795982,-0.028901594529471303,-0.16013472410790272,-0.1665433022164091
0.804,-0.0669053202921896,-0.09483510745178214,-0.026808547083271114,0.0839343156458333,-0.021653152130641715,-0.062348583389349815,0.00548177872246035,-0.16149937936413963,0.003159902448180901,-0.02892693298432609,-0.1633727006639993,-0.16929585781883594
0.806,-0.06527163433853755,-0.09807511645310048,-0.03172316143826007,0.0848848239601649,-0.017833614211185882,-0.06713891232434319,0.005896505978462705,-0.1588307523403344,0.003903343077344813,-0.029732727850725435,-0.16406864757110234,-0.1688092160677983
0.808,-0.06244015592741647,-0.10238011859935196,-0.03937650821788219,0.08482735876769422,-0.012191610091876798,-0.0733547328667895,0.005216137674130162,-0.15551019568593408,0.005374840710362686,-0.031377375697529686,-0.1654730079670515,-0.16986005583453084
0.81,-0.061498219240083966,-0.1047781535846755,-0.04328622787303664,0.08455052956462597,-0.010424857068808963,-0.07651846010733242,0.004628406371959111,-0.1519835630807952,0.005749356941707662,-0.03280839972567127,-0.16906596473127025,-0.17391082088901222
0.812,-0.06253318448679102,-0.10382447504336059,-0.04150170673304935,0.0837942480526375,-0.013196609397072252,-0.07513478965441137,0.005031887372495715,-0.14967922076196374,0.005047933646360891,-0.03237288641770957,-0.17197583846307413,-0.17734260322718468
0.814,-0.06348994919663715,-0.10051962146910053,-0.03701094276003248,0.08223113140538796,-0.016792268586244264,-0.07113895498652877,0.007357135182224112,-0.14907287908107458,0.003905285654446931,-0.030109010068918477,-0.17041962731315577,-0.17639270455773792
0.816,-0.06291841454117432,-0.09670186903246332,-0.03339358907191507,0.08013091756368271,-0.018085952517050044,-0.06694059092843485,0.012487262215985012,-0.1487087646957015,0.002354998548286883,-0.02813312561892169,-0.1640014186190609,-0.17125378928126275
0.818,-0.06101862003750664,-0.09423370848965082,-0.03272597693225716,0.0783344128442377,-0.01651426608831688,-0.06434313407857972,0.019330657120434584,-0.14785632365060056,0.00043749145878075365,-0.027972396128300773,-0.15664262764607514,-0.16526032111560207
0.82,-0.05906970047183667,-0.0949243468014435,-0.03574376615006271,0.07808659596779977,-0.013121507030371925,-0.06506649070808579,0.02510580338321356,-0.14801134633212407,-0.001178993708339596,-0.028928107269489585,-0.15322216415918427,-0.161462508957592
0.822,-0.058135487466908366,-0.09866720068505871,-0.041081700423865795,0.07982333776417996,-0.009794985780111056,-0.06919956968442555,0.02871203525340885,-0.15032108888049278,-0.0014939353900255486,-0.029619377852422375,-0.15507339592147612,-0.1605092793008765
0.824,-0.05770730317968908,-0.10245445003735541,-0.045799690772323896,0.08173649227542269,-0.007794396851529405,-0.0740699749603673,0.031373875025851546,-0.15324724943701595,0.00028556285499948696,-0.03005032487756958,-0.15972677610179387,-0.1615134815219951
0.826,-0.05611118476603054,-0.10314904630573013,-0.04809498644509155,0.08102326883693992,-0.006295696442769189,-0.07657151967395233,0.03374626729906158,-0.1541413795968108,0.0035622808149873213,-0.03137329077672548,-0.16412723168670398,-0.16355959737875084
0.828,-0.05314431614176359,-0.10069691492584021,-0.04813953329443345,0.0775999289972602,-0.0041960158584926355,-0.07589018657841887,0.034978187580466856,-0.15248980837579537,0.006081650527137149,-0.034061662570966725,-0.1665894735680042,-0.16546171549254224
0.83,-0.05114334115617373,-0.097781688675113,-0.046663095901498364,0.07491621311887205,-0.002596799299179568,-0.07366464534355688,0.03468396030115439,-0.1503187625615104,0.006296739346674532,-0.03716810482815973,-0.16694193801533316,-0.1652459894803601
0.832,-0.05202990881683502,-0.09674797108618595,-0.04449041841958389,0.07557581941466152,-0.0032202060143017353,-0.07205841689415579,0.03385565381376457,-0.1491759548543518,0.0051198035443329026,-0.03928858781127812,-0.1662047842595232,-0.16176495136747646
0.834,-0.05486573603512646,-0.09749870240932274,-0.04250566922224783,0.07805627717140586,-0.005711985563972493,-0.07149845172947406,0.03356825347468609,-0.1483626765880751,0.004379840749756635,-0.03979769509633362,-0.16564974595449897,-0.1568698717758448
0.836,-0.05754198478320286,-0.0983991972668112,-0.04090969694301598,0.07930332272904017,-0.008365433890487616,-0.0706580107184225,0.03408721243405808,-0.14693214273000055,0.004636840393498072,-0.039260244370424614,-0.16562306056615894,-0.15406790444883608
0.838,-0.059045822746932625,-0.09845244294388095,-0.03949821083036405,0.07863109261409298,-0.010045289231944901,-0.06889739225627227,0.03570198299731411,-0.1455473296378275,0.005160430888591841,-0.0387391057813111,-0.16529254794696677,-0.15455521266188976
0.84,-0.05944436788266383,-0.09800008723863915,-0.03857125639182229,0.07760908151859264,-0.010540327026981777,-0.06736972374649454,0.03895935611367458,-0.14525463458485355,0.0052734247677747575,-0.03874497616402879,-0.1637673641753963,-0.15625735338062477
0.842,-0.059210981648646674,-0.09775533110425297,-0.038502327498102486,0.07747021554287703,-0.010257075491079657,-0.06718879862347187,0.04301346897638372,-0.14583967303453507,0.0050431564080043526,-0.03901791301960309,-0.1615325377440079,-0.15699203759464841
0.844,-0.05879865623063856,-0.09755452391993494,-0.0387274501167815,0.07773886778717287,-0.009987708293200193,-0.06770768389048798,0.04527643348702638,-0.14653539492080506,0.00465222093493237,-0.039364658041919166,-0.16035573079354945,-0.15716111689613327
0.846,-0.05808812618488701,-0.09577900072682283,-0.03770020947422765,0.07673574423205311,-0.010581037906484738,-0.06700389156361175,0.04376535827558703,-0.1477728926384466,0.003382634314940449,-0.04059164256894831,-0.16180703608907776,-0.15882961700404966
0.848,-0.05657504918343971,-0.0908904679437899,-0.03433536015552589,0.07334413962335297,-0.012379419330155626,-0.06391063443097789,0.03910112816235172,-0.15075163683673654,0.00022279969865250605,-0.04375583457115079,-0.16587942126133706,-0.16271275704688215
0.85,-0.05455027289949,-0.08456605003016687,-0.030020202081334327,0.06900265423630456,-0.014493870629640224,-0.05986473055902622,0.03424327191353408,-0.15487595923846786,-0.0039724113488108686,-0.0479763494454498,-0.17044924041129245,-0.1672205320571712
0.852,-0.053248917217672664,-0.08144143354292692,-0.028183748730426224,0.06706030857475083,-0.015081930586991601,-0.05812013942344716,0.032441364104077816,-0.15732386080667646,-0.006575485741955968,-0.050479348176351246,-0.17274945771853428,-0.1707086408605867
0.854,-0.05331854133990049,-0.08414447293579506,-0.030819330128389194,0.06905617219186037,-0.01324074662765055,-0.06045884983418269,0.03521420422495314,-0.15597261329647957,-0.006358347382834275,-0.049596391686519414,-0.17218380583866935,-0.17271784454225428
0.856,-0.05414207699890709,-0.09012466273033579,-0.035984217446004586,0.0728093418963284,-0.01049031699193694,-0.06509984657200664,0.04161669249563722,-0.15188810509759731,-0.004893281174962159,-0.046484567718573705,-0.17082531220013256,-0.1725197099608529
0.858,-0.05533692321124697,-0.09403218916346787,-0.038699647854373236,0.07524502403763797,-0.01000254420048222,-0.06759680130218168,0.04830714383054863,-0.1486033049599496,-0.0042361244380074,-0.04371481582536238,-0.17101267910977996,-0.16906414915237694
0.86,-0.057945256994375506,-0.09195294060758812,-0.03400888612758304,0.07558626316538983,-0.014409373860805891,-0.06360563430152043,0.05152672245502294,-0.14839922035164957,-0.004799055405855747,-0.0428958253923281,-0.17319447352266243,-0.16332969313780016
0.862,-0.06252158511039245,-0.08445363625931968,-0.021930234218399805,0.07475682349625183,-0.02289476359112452,-0.05326992312694604,0.05054806714510114,-0.14933854773587454,-0.006029607419379435,-0.04360054816752862,-0.17582269015380686,-0.15902880178665882
0.864,-0.0662875814353437,-0.07755126226752558,-0.011262156730124486,0.07371475319156356,-0.029364260215569163,-0.04424464264607152,0.04780430484560452,-0.14776769636447823,-0.0076973922944374475,-0.04435836789290733,-0.1769434262950275,-0.15952389106854664
0.866,-0.06499978231709745,-0.07861625250580732,-0.013638673358833142,0.07350877645781831,-0.026678121767125113,-0.04639237330381078,0.04552917194501892,-0.14357086331653998,-0.009513353950537345,-0.044375196855987245,-0.17574655911991688,-0.16390226567847507
0.868,-0.05879057627777189,-0.0879556984260533,-0.029319335158564743,0.07464787190192405,-0.015533804726625966,-0.059853652956995664,0.044201803482383714,-0.14032671115404075,-0.010303344204241656,-0.04398589587805789,-0.17260535848651168,-0.1677680921771635
0.87,-0.05314711567803123,-0.09536138558365084,-0.04269525794018839,0.07502802925104211,-0.006273705568400782,-0.07094651214117713,0.04375574236264391,-0.14030616594251735,-0.008291402363381748,-0.04390084124981406,-0.16864727622334225,-0.16879569071104958
0.872,-0.051803312632668845,-0.08983075819116888,-0.03890841278935705,0.07102927511278036,-0.007459896502902167,-0.06598636408888092,0.04446264792794488,-0.14189926756293306,-0.0028884804691168935,-0.04445544706833373,-0.1656034625907654,-0.16905768685179343
0.874,-0.05156775540601326,-0.07369244985083831,-0.023129910185037184,0.06256292219836206,-0.01469969542004809,-0.04899164543850527,0.04661912398688249,-0.14202625342877656,0.0033155416552164414,-0.044941000525693615,-0.1647327516522016,-0.17020514387330782
0.876,-0.04795841765599378,-0.06038272780746381,-0.013076819230077152,0.05451288765856126,-0.017431385629340056,-0.03670909443019519,0.05019908758129499,-0.13915018875902632,0.006657052084030193,-0.04379294939364564,-0.16553581191325162,-0.16945174110893121
0.878,-0.04324359214159682,-0.05740924675154644,-0.01424993329169682,0.051496393500181085,-0.014500491142530662,-0.03620656680939608,0.05467663852099882,-0.13392176245598356,0.007188720253723937,-0.040762763873769856,-0.16640364603585597,-0.16389274349173652
0.88,-0.04364348820717056,-0.05992957743407133,-0.016051482837629673,0.05345369574514179,-0.014058329158550001,-0.039040627819796135,0.058655359606312935,-0.12804200962444912,0.007922946795064927,-0.0380327781343832,-0.16643406042444323,-0.15639355603098054
0.882,-0.050097754451644536,-0.06069136990833708,-0.010430657427324281,0.05687370123953651,-0.02003181178909455,-0.03666791863104321,0.06066105403468672,-0.12261284404213875,0.009997520605295698,-0.03758311595736962,-0.1658819658433147,-0.1526859793937546
0.884,-0.056400007906276334,-0.05762268895601742,-0.0012619341321661191,0.0578617729672418,-0.027297404398983923,-0.029939065573376288,0.0614352759129587,-0.117341319715826,0.012546839188134398,-0.03876100601434298,-0.16488638034415193,-0.1539557152965141
0.886,-0.05641377067141259,-0.05172060161025998,0.00458845635530472,0.05431168281533805,-0.029812132770002716,-0.023450849375560606,0.06395743276613848,-0.11176234758657444,0.015582353471893066,-0.039628682103610736,-0.16261221641154006,-0.15598106194588104
0.888,-0.050601710806422937,-0.044486296781050434,0.006086395423713074,0.047739995394413315,-0.027626158528133504,-0.01930177126649798,0.06969169575714321,-0.10704389702272618,0.01944931880079736,-0.03943215304482485,-0.15828191339191744,-0.15498175271282055
0.89,-0.04460891297457969,-0.03868275144901736,0.0059689049293117,0.04266134801598543,-0.02483229587045562,-0.0176922958832397,0.07640722963064085,-0.10512169996487725,0.022843111389580704,-0.03864844851133881,-0.15252821251274268,-0.15163629854518867
0.892,-0.042973674253489,-0.03720130651619786,0.00580848620016741,0.0422850504786895,-0.02432973694696796,-0.018251833234042617,0.08129079317021641,-0.10586305525048859,0.02355342128511174,-0.03716988210234618,-0.1470108818489822,-0.14872797213511782
0.894,-0.04546123498785926,-0.03954898794012451,0.005906196457511588,0.04516566106503521,-0.026061568498814774,-0.01932522852298543,0.08435874202827093,-0.10665477089435907,0.02114628424951702,-0.034123144051102935,-0.14311355000130305,-0.1467681900677746
0.896,-0.04827444907972454,-0.041690700827389494,0.006561173092856119,0.04698913718654584,-0.027997791830794767,-0.019055792383668353,0.08691503075823917,-0.10544464584393878,0.018208448072968925,-0.03009588561121262,-0.14134346386774663,-0.1438780459920936
0.898,-0.04782491685402966,-0.04040901030947112,0.007408431266108366,0.04511905104249846,-0.02811338978163607,-0.017654555653768382,0.08874792786046731,-0.10337973677855794,0.017708332317211306,-0.027621159278600028,-0.14130544900034192,-0.13941144115778997
0.9,-0.04352373754189046,-0.036421307996286394,0.007111177457646171,0.040404224958125734,-0.026047920782828065,-0.016760958481412385,0.08900197075509411,-0.1032739216889313,0.019456851436937907,-0.02830249673669063,-0.1419467917719438,-0.1361467129332816
0.902,-0.03722446894000187,-0.03253492932353656,0.004697796316591654,0.03510767306183551,-0.022475516156289163,-0.016918251177038393,0.08805922192688022,-0.10562065301789225,0.02100474034473599,-0.03069841237354176,-0.14230295721152023,-0.13779618172466682
0.904,-0.031347311254862856,-0.030127006477303986,0.0012194744319634016,0.030845145580564847,-0.018292865449018272,-0.01689563888844042,0.08679295851584036,-0.10793013358444659,0.021372157922579155,-0.031852890287120864,-0.14205781130904765,-0.14424584866559886
0.906,-0.02791684546610522,-0.02821246626267494,-0.00027858359999113983,0.028345166160278386,-0.015523212005729696,-0.015101588629292832,0.08496048923626384,-0.10820508905272291,0.021802414247907177,-0.030821049564645313,-0.14135045293526072,-0.15115900561219645
0.908,-0.02742191075969359,-0.024636450807055614,0.0029148872482340988,0.02708549402856691,-0.01650798605322074,-0.010648059811891169,0.08116407737472904,-0.10723180133521111,0.023253862103774458,-0.0299409192477046,-0.14076063801047548,-0.15448253108614105
0.91,-0.02791017490052938,-0.017607462140075848,0.010631905162089218,0.024864074499211884,-0.0207105064574319,-0.0034731111602366175,0.07435067513386134,-0.10718374114725855,0.02524186778776844,-0.031253220144472064,-0.14107035059549566,-0.1532088903938642
0.912,-0.02659448483977348,-0.007834327487636725,0.0191846401920835,0.01973024492172883,-0.02423426518251793,0.004884753175618496,0.06571043585305758,-0.1092765316222976,0.027224469530161215,-0.032903369456943075,-0.14170787957970665,-0.1487153137418429
0.914,-0.022971965689897567,0.0007534442309169974,0.023958940070739596,0.01284855916473984,-0.024013603963750234,0.011274157559957941,0.058057268122059996,-0.11341818421970869,0.029185120269643514,-0.03194200157071161,-0.14078545115520494,-0.14348347759844757
0.916,-0.01946283848539518,0.004977277683097216,0.024260128792696505,0.007578595855340747,-0.021496540914314962,0.014141081049990754,0.05220205884557533,-0.11939315306713727,0.030258552295060984,-0.02921309057249429,-0.13809464335075172,-0.13928806067471514
0.918,-0.018416326714954058,0.0062241137062436095,0.02401350244913896,0.005603727503908059,-0.020575449358119252,0.01552895933725923,0.0463258209043321,-0.12654766054551225,0.02854212344543674,-0.02827129971734194,-0.13580092298463461,-0.13594967258707719
0.92,-0.019357249548586922,0.007295440722123701,0.025708489156858954,0.005908994195951218,-0.02239154930968657,0.017260603880402833,0.0401279045774573,-0.13243637171341938,0.02384197391375819,-0.030557771998593084,-0.135079347187369,-0.13292808132516598
0.922,-0.019984574961456787,0.008033849840324753,0.027059413977614955,0.00691378827686452,-0.024367195042935382,0.01777768117337167,0.036150485185607956,-0.13423987472540969,0.019236578378112844,-0.033895957437314744,-0.13479462381936352,-0.13123438407067187
0.924,-0.01952163842906202,0.007497931772801914,0.02642352518523028,0.0077906599626482815,-0.024664148720908198,0.016012709560902994,0.03623253876671585,-0.13166094756127272,0.01785741822425787,-0.03543562759156669,-0.13461932164528848,-0.13250334255068028
0.926,-0.0197725006504693,0.007122155804356496,0.02681251983210749,0.008502753680949611,-0.0249054476632132,0.014865615599737444,0.039366747711559576,-0.1273748706738061,0.01928266163793553,-0.034768861426600385,-0.1363152264780482,-0.1367534886858869
0.928,-0.02202257459974152,0.008441320774550115,0.030668861884067696,0.009340675520758335,-0.02694083522348919,0.017012857171593374,0.04255813113406847,-0.12534715337282187,0.02075391302501465,-0.03363742206964097,-0.140185599232026,-0.14154337131537612
0.93,-0.02496401001171071,0.010378494058862894,0.035490137844953536,0.010251846316563234,-0.029855549201357735,0.02071054043579894,0.04294477322492652,-0.12781871862199395,0.020522371288487346,-0.033421445956099756,-0.14340039475853023,-0.14395321569876773
0.932,-0.027669425643627628,0.011034978248321232,0.038673987477371274,0.01118078806058732,-0.03267072739922232,0.023228388304904424,0.04049723107237363,-0.13230582403643018,0.018416561106883177,-0.033919325266916184,-0.14368975444909096,-0.14380319337106373
0.934,-0.031597797869536856,0.010340718198996061,0.04184638017234404,0.012560189951556182,-0.03665995073167484,0.0250201032995447,0.0380461097807071,-0.1335453447835811,0.0146579376825608,-0.03427454987719588,-0.1420392893617375,-0.14349080651860682
0.936,-0.037013939662019796,0.009614893162395517,0.04660099927119,0.014378592067184254,-0.042042592099850284,0.027485094956358622,0.03762501666165477,-0.1301028739123971,0.009916107930251229,-0.03428422154790432,-0.14041367487787984,-0.14421436443359456
0.938,-0.04069465109902003,0.009519277797416492,0.050250375799100785,0.015642521907630418,-0.0456739947354767,0.029544803192050915,0.03809597690227115,-0.12650105631415437,0.005390460671359933,-0.03448053404022622,-0.13912026017429524,-0.14452083085863934
0.94,-0.03941939695980963,0.009044633216042213,0.048518434309378355,0.01566669151748481,-0.044284089270665544,0.02850883067093983,0.037202552478838004,-0.12719005891789953,0.0020247069293869305,-0.03474401147563449,-0.13747892790324706,-0.14333922336920935
0.942,-0.033522287353198336,0.0060608542818608255,0.039732037241839546,0.015129002435570377,-0.03766730992320242,0.022424333273535636,0.03484882954160582,-0.13105628875112998,0.0005807295141239353,-0.03368531907010463,-0.1350344657104361,-0.14218909125361825
