time,I,II,III,aVR,aVL,aVF,V1,V2,V3,V4,V5,V6
0.0,-0.00043879241376928345,-0.0017112904137002052,-0.001294437620619386,0.0010750414137347445,0.00043879241376928345,-0.0014918942068155637,-0.0009653433102924235,-0.0008556452068501026,-0.000636248999965461,-0.001930686620584847,-0.001294437620619386,-0.0008556452068501026
0.002,-0.0034819605157876536,-0.011953920118556654,-0.008603275368215877,0.007728910127516387,0.002626315308937551,-0.01022390967100706,-0.006633538886512714,-0.005976960059278327,-0.00444440619792491,-0.01337677587646775,-0.00904206778198516,-0.005757563852393685
0.004,-0.012854435568535487,-0.03760230489782674,-0.025075288389237758,0.02528305830556032,0.006219286888603234,-0.031306563858347826,-0.020164002490040113,-0.018526907190307567,-0.013742102350177515,-0.041313678117641583,-0.028140396111944594,-0.017104051432396475
0.006,-0.029277842309901537,-0.07155118491288708,-0.04269594781936372,0.05055644450002106,0.006592065949303,-0.05751379982562711,-0.036027775263363884,-0.034024447284915244,-0.02512296642576169,-0.07588177851504813,-0.051980342430673794,-0.030203375961658084
0.008,-0.04623567930008205,-0.09517794754386395,-0.049219748535839415,0.0710170380310826,0.0007464082519757792,-0.07358211807481067,-0.04341690198360024,-0.04279577745398928,-0.031534993175644684,-0.09517127360275786,-0.06529366568264866,-0.038115759714232346
0.01,-0.05515298474021378,-0.10030813990292142,-0.045260797468016825,0.07830186816895605,-0.006398581872451151,-0.07523086798558844,-0.04093207005708033,-0.042587834554058866,-0.03189836724040725,-0.09330360283335556,-0.06370175716959303,-0.043475962153031095
0.012,-0.05625113967303366,-0.09536746288079298,-0.03929794566102706,0.07651390464391633,-0.010390033102969973,-0.07020628440624878,-0.036766450818326524,-0.03895188110637681,-0.030756774865529954,-0.08558029629261622,-0.057878753648900674,-0.05324399476556381
0.014,-0.05885592413139969,-0.08972053708370316,-0.031224002458464867,0.07479409942874017,-0.015986735145660586,-0.06312323944132828,-0.034219369579275204,-0.03397859960127572,-0.02886174620676296,-0.08349432893619577,-0.05629044627277282,-0.06354581364196056
0.016,-0.06802189054036253,-0.08585382832230806,-0.018111668752786882,0.0773109414246293,-0.027092436596589255,-0.05434735962696415,-0.030104768818473106,-0.02625342735987199,-0.02369098920505208,-0.08352193779443351,-0.05703391866104461,-0.06365791880661881
0.018,-0.07624688681578057,-0.08454025663440716,-0.008192798915564504,0.0812925185800644,-0.035592483516773445,-0.048767698486404956,-0.02530649300739502,-0.01877940347256083,-0.017267958196718444,-0.080608135927232,-0.056052097830108255,-0.05204480915826285
0.02,-0.07246052187237434,-0.08600726497877882,-0.013097628198832402,0.08097685806613336,-0.03054174576433951,-0.05211408159433781,-0.024694817323544997,-0.01697980496372683,-0.015044467482343341,-0.07752239904496402,-0.053279397843733915,-0.03776528179295015
0.022,-0.05444022127780489,-0.08638404718408768,-0.031581654560748795,0.072337210082201,-0.01233477865511446,-0.06134457728099432,-0.028969149433919223,-0.021679823976796214,-0.018866427929871442,-0.07931803619909066,-0.052011450538485354,-0.029734641283665757
0.024,-0.03090997091665669,-0.0813459484246256,-0.05066998319093692,0.05745070515509916,0.008117548008318794,-0.06767595621619694,-0.03474271576633254,-0.029598551603407876,-0.026050768340346503,-0.08666977023768468,-0.056053978898637245,-0.03068653961093181
0.026,-0.018239213226164577,-0.0750386391552655,-0.05761842324089726,0.04745697048486374,0.01717146646963876,-0.0672003500493823,-0.0393718766122455,-0.037172671015623014,-0.03284635136906337,-0.09559713064678463,-0.06439900946640481,-0.03719490032966303
0.028,-0.03244446559932661,-0.07698887891753753,-0.045251767250971645,0.05576003678905825,0.003886067381382729,-0.061481431621107197,-0.040326922869808025,-0.03993078553541249,-0.03483346009773859,-0.0995543390486641,-0.06893084304938125,-0.0411662566537867
0.03,-0.07198818808198576,-0.087359230940775,-0.015308289450955798,0.08142847463802418,-0.03020882758242336,-0.05164621598179122,-0.03464709004347543,-0.033488918990994015,-0.028111419271550316,-0.09352616327927549,-0.06286017806500363,-0.03543095914731533
0.032,-0.10880814611470534,-0.0951219660761154,0.01434799260513608,0.10422894552135153,-0.06251186902671763,-0.04123424371868995,-0.02492745094679078,-0.02106966540049535,-0.01582820290281931,-0.0809877005357006,-0.051276636579537585,-0.022526299634101812
0.034,-0.11132313421775364,-0.09363071808534852,0.01820821882651818,0.10451052875714172,-0.06485262270318437,-0.039323370173319556,-0.0209108684578923,-0.014212229795591586,-0.008390159189717587,-0.07369699643178072,-0.046841221467077074,-0.014133651498444047
0.036,-0.08048658324542665,-0.08895668329833531,-0.008512719781558391,0.08573911951065397,-0.03573250232596092,-0.050466045654020776,-0.028448451766635366,-0.019384754424426345,-0.011400732632409788,-0.0789295752474125,-0.05419948086426262,-0.017492795035456622
0.038,-0.048867284771174566,-0.08999743152920316,-0.041543400838798275,0.06928845206403429,-0.0038370528533697695,-0.0667844675288467,-0.04086433946202424,-0.02952174945430446,-0.019060664368449408,-0.09045642566789118,-0.06489378149260495,-0.02699790779611526
0.04,-0.041029291704511514,-0.09633669434488291,-0.055766062378015284,0.06825769565694481,0.006119645821749334,-0.07637934044682361,-0.04706514920058886,-0.03387727261810504,-0.022860228971163084,-0.09665356817089005,-0.06842914067069787,-0.03251405049924163
0.042,-0.05155210788398645,-0.10012646065228666,-0.0489095814665529,0.07634528939451479,-0.0036549245657431038,-0.0746929510079091,-0.04444267391421144,-0.03047903454717731,-0.020886362505828183,-0.0936767396746057,-0.06316770652221203,-0.030690373277517582
0.044,-0.06474257397946388,-0.09771442823351457,-0.03311431207746945,0.08291691912507441,-0.01842045549750337,-0.06552870729914366,-0.03863685947636689,-0.024968559966965682,-0.01668529703529074,-0.08685272255347902,-0.05525946194763886,-0.025080511307589304
0.046,-0.07651671676545016,-0.09357697264241044,-0.01702784787770833,0.08701328791186372,-0.03170668332002365,-0.055223350544941964,-0.034376603127244755,-0.021926727146102783,-0.013582745190908579,-0.08211543963252434,-0.05021832813917632,-0.01947951959792662
0.048,-0.08819032218715643,-0.09253265764698093,-0.004232917084115709,0.09176258149946794,-0.043301571427505806,-0.0484883959076838,-0.03240531592689531,-0.021384355644150577,-0.012618690193708629,-0.08095798182254324,-0.04858494780646495,-0.01533906681477667
0.05,-0.09307378480400307,-0.09433889741328055,-0.0011240422722215517,0.09462975918019556,-0.0473905378068391,-0.0487527098464907,-0.03327854804680996,-0.02232943807049627,-0.014316593266989561,-0.08318240567633337,-0.04943220173993887,-0.014262856843158367
0.052,-0.08298302567279862,-0.09694490130169607,-0.013795153024698198,0.09092084069854706,-0.03646773522657779,-0.05754852607754067,-0.03831952588603327,-0.02571095350258167,-0.019136355775844993,-0.08857739523685791,-0.05327485827032504,-0.018218706080217157
0.054,-0.06384590993178135,-0.09956005614158529,-0.035628244518762675,0.08274647791277162,-0.016226159509370012,-0.07032182900909312,-0.04625123285149899,-0.031721282778928286,-0.02503108181419334,-0.09425257805723569,-0.059038125830961054,-0.02596375406930393
0.056,-0.0523788936464549,-0.1012439042552706,-0.04890002709025557,0.07750386707274647,-0.0038489650350658194,-0.07738027552246145,-0.05240837296303455,-0.03671606040031196,-0.02742229058974793,-0.09563499980773735,-0.06263346353394664,-0.0323568796908388
0.058,-0.055494569309911486,-0.1001632880661067,-0.04458333445236734,0.07794240167281188,-0.007392035597695067,-0.07376287304372002,-0.05279860659103269,-0.03662865443935701,-0.0239232674435147,-0.0920877597757198,-0.06171614399865817,-0.03291250239057732
0.06,-0.06353659124807347,-0.09607160552132306,-0.03209338339272024,0.07977910445448931,-0.017341789599434776,-0.06506903972368674,-0.04816514161344505,-0.032318865890228456,-0.017604061491671805,-0.08831578479767681,-0.05865929147240669,-0.028238737686342504
0.062,-0.06664598971769874,-0.09218709503603932,-0.024859272908550813,0.08000318846461331,-0.022246887490111018,-0.060137373172910014,-0.04323778099230423,-0.028689277518098025,-0.014010994956744282,-0.08900492203985226,-0.0566960766975726,-0.023210306609092193
0.064,-0.06569868204249946,-0.0917909803994405,-0.025461670774406146,0.08021438041140211,-0.021464949808019693,-0.06104799385868649,-0.04179249322113476,-0.028591269488738386,-0.015314654962620567,-0.09332310474455287,-0.05584273695203537,-0.02154278450352269
0.066,-0.06307433120517233,-0.09264486865943254,-0.029123330975493675,0.079687151211377,-0.018460654546976565,-0.06308083296401332,-0.043622119329854395,-0.02964040561993694,-0.01818241921366861,-0.09616652647631015,-0.05453691216905035,-0.02221134503563009
0.068,-0.05613693203789592,-0.08974230490039453,-0.03332223068832362,0.07424201032457815,-0.01292237945110719,-0.06269079592532574,-0.04709361126574012,-0.028858100928677244,-0.01855265034119575,-0.09540856786896491,-0.05354255461247241,-0.02263826204773863
0.07,-0.045312292472107885,-0.08461605478539025,-0.039155822880974446,0.06518936442656112,-0.0045877486769151515,-0.06253306347519196,-0.05204824014120109,-0.028150532156508166,-0.01761478695046033,-0.0950874047005781,-0.05566314565977544,-0.023476594666714538
0.072,-0.036491987188479576,-0.08491583873209343,-0.04833376480083575,0.06003128211983995,0.004383556475623716,-0.06768627341613101,-0.0583106350437672,-0.031223301830568928,-0.019885480751335886,-0.09931664797519606,-0.06147045084278913,-0.027126055909473253
0.074,-0.03199430729702846,-0.09337053512238007,-0.06125505196988832,0.06185366601150105,0.013393310636502146,-0.07869414788538338,-0.06409051789953359,-0.03728445846304203,-0.02596861014454024,-0.10652724570240901,-0.06784062016175715,-0.0331805774166148
0.076,-0.030276438327886256,-0.10340291106709215,-0.07304214708981187,0.06662996227540412,0.020779791877772603,-0.08911272905399872,-0.0669910799229527,-0.04127440101149017,-0.030476933575300253,-0.11137045266406331,-0.07113217084357042,-0.03763136244249015
0.078,-0.034213506392225014,-0.10722128177377498,-0.0730430845735925,0.07147542553616425,0.019033577964362308,-0.09022373384299223,-0.06525059996968012,-0.039134092706650386,-0.02776486929589787,-0.10988218682772044,-0.06972979869968589,-0.03610393427492328
0.08,-0.045929230136608594,-0.10452069660251531,-0.058647969344801085,0.07674497882066272,0.0054352251466359405,-0.08134030455086652,-0.05995616164615163,-0.032608750680097186,-0.019366869581209756,-0.10359795417031947,-0.06476610956193543,-0.029355334573007423
0.082,-0.054472820177809925,-0.10018129400643104,-0.04573157724152135,0.079219976376644,-0.0059551923910640256,-0.07304856175330636,-0.056105472098370655,-0.028727081087339186,-0.013837139846091414,-0.0990949861588689,-0.06044387556681145,-0.024732415214570213
0.084,-0.04728522392242818,-0.09559013766684943,-0.048404001968064214,0.07350063037054058,-0.0011175936422472398,-0.07272722521365985,-0.0573492600106471,-0.03170035601600601,-0.016446731500024913,-0.10064534425212635,-0.06064372009681683,-0.027071069195035827
0.086,-0.034394659263032534,-0.08858415856457552,-0.0543693480181974,0.06349568441184253,0.008668084747088342,-0.07243986713865673,-0.060176300747696164,-0.03641325298282912,-0.02162049050109999,-0.10426244348266543,-0.06301789559679652,-0.030195553793025944
0.088,-0.03843655564346208,-0.08126452554322203,-0.04293366478343631,0.06149723237916964,0.0011246078193276761,-0.0625653132088596,-0.05797964963957406,-0.03448894338736266,-0.020201083333149624,-0.10293311277317954,-0.06095712894085148,-0.025094935379704263
0.09,-0.06017564080311786,-0.0805624402244039,-0.02035214924715052,0.07180428796909984,-0.02143426309208365,-0.05030270303274181,-0.05092730279884327,-0.025802172414198826,-0.012308603337052566,-0.09660649932867435,-0.05369371229198518,-0.014418701196638637
0.092,-0.07706278912608668,-0.08947058369509114,-0.01232945291536322,0.08496075271817091,-0.034715012971790346,-0.05084892065193715,-0.04658947146011782,-0.01847921813428051,-0.007012281113879225,-0.09196413743311874,-0.04840285709832023,-0.009542096871288989
0.094,-0.07564260588764578,-0.10187695114154979,-0.026212856613113195,0.09057564181398836,-0.027541885375236417,-0.06482973174539274,-0.04926289292777208,-0.01772156199916257,-0.008956058639249337,-0.09278448328466442,-0.04966598719463869,-0.014180770308601515
0.096,-0.06669923879184898,-0.10874173055471598,-0.042096440007505814,0.08890121647539244,-0.014649368447773191,-0.07697515692762529,-0.05400188116261456,-0.020381035898967583,-0.011879504352057852,-0.095638541731364,-0.05296414206786146,-0.02019721029896349
0.098,-0.06759207216154085,-0.10793620111609409,-0.040502684853902064,0.08800177207661034,-0.014843116395420929,-0.07586865473176989,-0.0539444113959533,-0.02106420815558513,-0.008281563597616,-0.09523015780193757,-0.05185899236323525,-0.019646564557311286
0.1,-0.08017796705209773,-0.10482277196700229,-0.024967908988380985,0.0924431748438931,-0.02822501816724438,-0.06606905037725253,-0.0495017150333823,-0.019132114480742746,-0.0005075252941370621,-0.09116462123441056,-0.04756523041203082,-0.013703755765443283
0.102,-0.08871213296434524,-0.1032547574125414,-0.014948323312742666,0.09657241457181905,-0.03751682856542553,-0.05975769081850554,-0.04666507324149288,-0.018579596866424013,0.0023560267852219883,-0.08862535006661022,-0.04713045500378825,-0.008931633722272854
0.104,-0.07872796048069948,-0.10137186854480579,-0.022893716792250586,0.09150065581148685,-0.028683141024452272,-0.06266880279254528,-0.048226170052693286,-0.022399588709449053,-0.0032230657647893133,-0.09170101619881756,-0.0532634522893881,-0.008858539075409748
0.106,-0.05536914078237887,-0.09838406211878271,-0.042973789954992285,0.0785529164195078,-0.006609356319764519,-0.0715797507786047,-0.051418611707861696,-0.028322484173863488,-0.011132255308506278,-0.09777353707291069,-0.060863687933707986,-0.011595874237195231
0.108,-0.036744302048221156,-0.09775091314985983,-0.060735721970761845,0.0686445704439001,0.012221834934874666,-0.08085849050710398,-0.05395503050453093,-0.0315443521634491,-0.014525875454618363,-0.10143466563778239,-0.06432213305246982,-0.01438158456524979
0.11,-0.03178129069752834,-0.10036996475980954,-0.06817553558869519,0.06727934268009927,0.018599454846648877,-0.08665912782787265,-0.05739494741108846,-0.03066392552820815,-0.013650596586585373,-0.10145265876532605,-0.06368511703201693,-0.016541444711075076
0.112,-0.033282875454058156,-0.10205597279498244,-0.06826164098197127,0.06869013054816474,0.01736514971641495,-0.08781272777758863,-0.06351075524492801,-0.02862598431327538,-0.01265449448329354,-0.10051690353653853,-0.062487671376057076,-0.01806569033739492
0.114,-0.031132345622819864,-0.0993461768643229,-0.06768584695203399,0.06587029523695975,0.017623754949755713,-0.08562041355013401,-0.07014239840086528,-0.028346092663483962,-0.013239567581614023,-0.1004830945152508,-0.06281765054694764,-0.018564445438061947
0.116,-0.02772608632059671,-0.09347203172318531,-0.06533054617483267,0.06102717292433619,0.018295772803410094,-0.08068501217912544,-0.07180388291732819,-0.028984562415746047,-0.013611285397463053,-0.10002020825113177,-0.06321546447677383,-0.01713985079423111
0.118,-0.038136592653725467,-0.08942558777906706,-0.051019743100062236,0.06452285999025971,0.006433444519292146,-0.07128052516610477,-0.06502075002321488,-0.02714876030972391,-0.010964486091233249,-0.09609349643724555,-0.06041016061231704,-0.012888177657108054
0.12,-0.06834115074434007,-0.09131444239668063,-0.022719403138634475,0.08120712321577168,-0.02271319688238712,-0.05867039121943315,-0.0533746811176042,-0.02175506862365876,-0.005030506331434136,-0.08851006571888768,-0.05389200290447691,-0.0076107648869472464
0.122,-0.09778619504923423,-0.0962638934840724,0.0018372098774388586,0.09908488805742885,-0.05010626892672841,-0.04969490650504773,-0.04485883950480415,-0.01615755936460674,3.6320682866696434e-05,-0.08235072522098173,-0.048001309547952155,-0.006160065859426268
0.124,-0.1003349740619759,-0.09702203644853184,0.0035275309148963215,0.10119062217975823,-0.052709607934139695,-0.04936377655326569,-0.04387209382795441,-0.015023675279536998,-0.0006799520587966808,-0.08318813798348505,-0.04796890140590413,-0.011462926633852689
0.126,-0.07812933709482692,-0.09342621132440773,-0.015407022508135752,0.08810646062937955,-0.03247744816357185,-0.05609007869963926,-0.04869481198206776,-0.020337090079895082,-0.007287671790001546,-0.09093549881569578,-0.05487225399459221,-0.021015977053904907
0.128,-0.0563964811797884,-0.09264446857599531,-0.036666481011462845,0.07584215861318934,-0.011231190577459332,-0.06514649666467272,-0.054968522587778075,-0.02915186536393848,-0.014625263648405102,-0.09999022223970216,-0.06420370948740099,-0.028972668454529213
0.13,-0.05108305896981549,-0.09625889891759994,-0.045539859756869895,0.07367103273498934,-0.004449349956040993,-0.07120923852752672,-0.05853328104441123,-0.03487048960258745,-0.017400080961724063,-0.10448408945487454,-0.0689775264805482,-0.030756964689319443
0.132,-0.05694539280120078,-0.09828620268435177,-0.04124510450930059,0.07685170979057512,-0.009782417572538825,-0.07078819155969596,-0.05792283768598349,-0.03357607129510768,-0.015404711524135094,-0.10338558376446495,-0.06667171452317619,-0.02686423261728077
0.134,-0.0608119721090958,-0.09553176246382451,-0.03422055857329522,0.07752349350595504,-0.014965543911741461,-0.06609776080085393,-0.05570453832125186,-0.028436803968998028,-0.012735126548946863,-0.10041982905877407,-0.062105590475558206,-0.02213426597457554
0.136,-0.054879110837995855,-0.09066278141826282,-0.03537063015640162,0.07274455034014742,-0.01068493068461021,-0.06329759296661175,-0.055725035443285574,-0.026142310192349607,-0.013014975397999697,-0.0994062544833874,-0.0613950063326403,-0.020848029758513964
0.138,-0.03949773535885949,-0.08771364511417497,-0.04817849936538101,0.06421598567213692,0.00381590104098596,-0.06722381562447093,-0.06019621480018703,-0.03092138060618776,-0.017526509197846277,-0.10154881109781774,-0.06615073004908952,-0.02389060935049192
0.14,-0.022455387838559302,-0.08906847960556408,-0.06666868942779583,0.05670608648846165,0.021268111140784144,-0.07738778672386463,-0.06780384732675082,-0.04080454365217831,-0.02489203350403807,-0.10556069456772876,-0.07314615433372616,-0.028653322329526974
0.142,-0.017657187413727123,-0.09369787846006868,-0.07567570864373496,0.05671398471507173,0.02771921823601353,-0.08564660977129597,-0.07207080760272909,-0.047643071359004294,-0.03011289007721396,-0.10759422357375731,-0.07596567550809473,-0.02973189015612018
0.144,-0.03319393978842433,-0.09793428106842053,-0.06382585857240827,0.06687362603995799,0.014030435907339038,-0.08324807038700482,-0.06714408766549748,-0.045044967661680695,-0.02864718294676793,-0.10392136609533391,-0.07046147498999007,-0.023999112078212745
0.146,-0.056702717078708116,-0.09982269852658829,-0.04217849054859464,0.08004697737200134,-0.008261657582875307,-0.07377774648985427,-0.05728580277026465,-0.037331446203505286,-0.023237389554280074,-0.09666063352419486,-0.061167375248922434,-0.016132797512350274
0.148,-0.06664386577710962,-0.10061057339744962,-0.033760046460862496,0.0855203437339408,-0.01734290517292241,-0.06956754899393122,-0.05267481387193177,-0.03429736157940772,-0.021153939559141806,-0.09292053297829432,-0.05709894561588666,-0.01390826137248712
0.15,-0.06019643400383501,-0.10090464889186902,-0.04139455446248671,0.08201206706335323,-0.010303296281526379,-0.07299927032529896,-0.05513270601248994,-0.03685978217246636,-0.02332763263957697,-0.09483791522958661,-0.05980199193372465,-0.017995350125763636
0.152,-0.054009032368896884,-0.09928993349468902,-0.046111617112407965,0.07773384475590406,-0.0046131087490792625,-0.0741099155450073,-0.05685729281339298,-0.03630243173455319,-0.022558476442180724,-0.09580145467694871,-0.06161533080394909,-0.021996505314750763
0.154,-0.057370866205811964,-0.096348042958016,-0.039163765027667816,0.07813843355352686,-0.009569706762074304,-0.06873833058903538,-0.05342535645055136,-0.029403471790666293,-0.01505380394504196,-0.09100117763481065,-0.057821466814644396,-0.022677036974753977
0.156,-0.06129338650290346,-0.09493748076058471,-0.033340371977478106,0.0797909400883924,-0.014761565404508738,-0.06470938052840142,-0.04896950719452168,-0.024279236837866685,-0.00733453061055837,-0.08531079602551972,-0.05381897385602263,-0.023909331847802324
0.158,-0.05580301358289378,-0.09515059477307279,-0.039328331997481085,0.07688400237365335,-0.009655881085264538,-0.06763828006850059,-0.04738479132697527,-0.027059858928821477,-0.0073742089328940885,-0.08528549188066409,-0.05605230118946114,-0.02884017048633672
0.16,-0.04440655850608768,-0.09400333875045506,-0.05016822257708123,0.06968993180559649,0.0010123073557164982,-0.07292388060293466,-0.04658841432483627,-0.032566303421232255,-0.01411578636257494,-0.08941049110818954,-0.06183014116131278,-0.03370107663868626
0.162,-0.038411485370234,-0.09122256288619118,-0.05348354590509617,0.06488066410160474,0.005599745166305263,-0.07411323764680587,-0.04416151624210137,-0.03338476232927423,-0.020515611226049373,-0.09206494940497252,-0.06358585541312682,-0.032357168721808556
0.164,-0.04439628343322209,-0.09103447299897947,-0.04677271843095087,0.06847841021520895,-0.00040816637697166987,-0.0711082422897355,-0.0429386823260037,-0.030614394163911908,-0.02334880476611755,-0.09243872582917978,-0.059703561920860466,-0.02456459320695211
0.166,-0.0575168423573946,-0.09524639410563768,-0.03720732666383613,0.07810857906738357,-0.011226900074968174,-0.06767296560916088,-0.04698706228824712,-0.030822820119141725,-0.025273403120779487,-0.09372898032480993,-0.05601963951785733,-0.017015871302158772
0.168,-0.06646721442288235,-0.09909597232797054,-0.03182822360707281,0.08477976018770882,-0.018156485183907778,-0.06569337610354638,-0.05459086320640239,-0.036203980267145414,-0.028437956580275352,-0.09630001136045614,-0.057219029594073406,-0.01570194143697369
0.17,-0.06612701832684645,-0.09800158963469505,-0.03113921918327772,0.08370861068799199,-0.018585631011686057,-0.0646479206281707,-0.05977185958775754,-0.04195905631541574,-0.031237910824275888,-0.09714349851627058,-0.061345644489564054,-0.01974186948964617
0.172,-0.05932763198082442,-0.09272892405591004,-0.03278645334806805,0.07711936497682488,-0.014952576211347336,-0.06403927946894988,-0.060351266449252275,-0.0435548357311833,-0.03281983089082808,-0.09560662330066243,-0.06436869669121106,-0.024472473015635782
0.174,-0.04923417795837389,-0.08599633793888964,-0.036293647866666785,0.06814935199827063,-0.008767485580201146,-0.063711796136638,-0.05968894913707625,-0.04264427454632625,-0.03532516952217182,-0.09491481339624586,-0.06578140002130185,-0.027527366523453153
0.176,-0.04063164400612814,-0.08081992764770941,-0.04001470927304363,0.06084150050427352,-0.002744760202934531,-0.06318886010304625,-0.06000323369572512,-0.04291767650189133,-0.038979431478060614,-0.09666203927421564,-0.06720660998704374,-0.029636688148927
0.178,-0.041141967810812495,-0.0817422079201181,-0.04080841235848943,0.061341124096189,-0.0020308848156270526,-0.0632900770797613,-0.05915569371906101,-0.04400151189865475,-0.040146726864723654,-0.09785026487546655,-0.06914263969058225,-0.03172738822902257
0.18,-0.051174882268053626,-0.08994284804758972,-0.03924056709890816,0.07039542728613937,-0.00707662790465532,-0.06571523506241339,-0.055317283972721384,-0.04346123324738686,-0.036916359376437564,-0.09580650373739172,-0.07101553316531141,-0.03298164671377918
0.182,-0.06133499161337213,-0.09778864090745762,-0.03691407786986409,0.07956254381199485,-0.013125575355292313,-0.06796538117228126,-0.05025849583166889,-0.04133033015339112,-0.03210231835993203,-0.09225130675221113,-0.07175422295032666,-0.03152537262329686
0.184,-0.06535767924734943,-0.09619507476976397,-0.03103496985856418,0.08120852671819798,-0.01855482524134722,-0.0641845817364353,-0.04636040668474096,-0.039147663010365444,-0.02893233125976693,-0.08992061364288495,-0.06981561957692871,-0.02715109465261611
0.186,-0.0673181051368426,-0.0873371219156162,-0.01994473965420564,0.07814088701084121,-0.025569218050010164,-0.054558535304712275,-0.04386681741214617,-0.0377587775693706,-0.028063357675564952,-0.08908733973052099,-0.06518747686191748,-0.022999365378104843
0.188,-0.07275546654295659,-0.08275182974574048,-0.009836526994349339,0.0786889713052168,-0.03302034037186905,-0.0476891755239278,-0.042681339660580804,-0.03831333200310034,-0.02946472609314058,-0.0896004966855482,-0.06107839129180249,-0.023148117427047997
0.19,-0.0787381428437598,-0.08842650071929303,-0.009523978132545104,0.08478744983050038,-0.035035131989370166,-0.05071758868082484,-0.04424914441329892,-0.04201317808810596,-0.03326945597782735,-0.0924735812461083,-0.06127519741463441,-0.028566279334849762
0.192,-0.07633995771316048,-0.09795922538895678,-0.021348085810864708,0.08899776054808901,-0.026980385044542483,-0.06161545083481125,-0.0497839318172887,-0.04765285525129625,-0.03846821264037001,-0.0974662625776991,-0.0661223569267913,-0.03659695121692715
0.194,-0.06259747076484064,-0.10156945279003611,-0.03857225350853916,0.08426825353828639,-0.011672762533909871,-0.07218749610270389,-0.05699630492000814,-0.05170591360265929,-0.04235263402634657,-0.1013881391666479,-0.07178382294550774,-0.043081726909541984
0.196,-0.0480750992849002,-0.09701958144723985,-0.04854873583076661,0.07425831094571715,-0.0004919535891374288,-0.07502345110383749,-0.05975131080315288,-0.05090127950653013,-0.04165377318633148,-0.10022726961286048,-0.07312249517930659,-0.044119511523192045
0.198,-0.047264055374891506,-0.08971756664610427,-0.042123211817966695,0.06962691901601918,-0.004092336611759175,-0.0683348588715994,-0.05333405865301695,-0.04486372155054676,-0.03582188767534564,-0.09312779552198018,-0.06875811336425522,-0.03902528678430809
0.2,-0.06080974303904798,-0.08537808794647954,-0.02428275000355197,0.07434021714229788,-0.019697231490197725,-0.057392246391584384,-0.04079071491987793,-0.03760747955942628,-0.029198825016342488,-0.08441618106793448,-0.06318131320549923,-0.03258465158203713
0.202,-0.0760798970641071,-0.08528394005153482,-0.009023084624855272,0.08239435482955663,-0.03475980613353257,-0.04943736855672248,-0.03096898891177659,-0.03476190151828032,-0.027072822616970443,-0.07985565592520112,-0.06111116537804116,-0.030531281998114765
0.204,-0.08577231244275782,-0.08703273778726675,-0.001250186263144548,0.08841100310286085,-0.04401835665250795,-0.045438433533066605,-0.0290471838039399,-0.037375506361010044,-0.02916449928237055,-0.07963067620721136,-0.06130503274579759,-0.03222125298198041
0.206,-0.09296148869550908,-0.08727325599860314,0.005600176943921865,0.09233898915575277,-0.051851571631134595,-0.04085634204811707,-0.03250695825261487,-0.04112901040885209,-0.0309386541623352,-0.07906664026359134,-0.06008056423721336,-0.03233022612612188
0.208,-0.09709721514462911,-0.08463517783507923,0.012407189386988926,0.09310507511676537,-0.057333474336998085,-0.03545136773322358,-0.03737723150707263,-0.043544927163407895,-0.03203473186489665,-0.07774674236279631,-0.058785326279111046,-0.02999888845630097
0.21,-0.09044719002639429,-0.08156124705457043,0.008904709677039171,0.08756785156837844,-0.05115161856804138,-0.0359760270477743,-0.04384148885111732,-0.04770488904449672,-0.03707385243431486,-0.08104715491412863,-0.06236633744851047,-0.03048855079852641
0.212,-0.07248079291452322,-0.08154746892656836,-0.00902789199752939,0.07747860392240989,-0.031862381556917854,-0.04584807854271443,-0.052853324270341236,-0.055624779672535124,-0.046249258057054224,-0.09016695603285371,-0.07102613927746686,-0.036363452868393015
0.214,-0.05702815889516769,-0.08372055650916803,-0.026683745599854553,0.0703338795580737,-0.014984318851268757,-0.05673133758150659,-0.060204057492333096,-0.06211682349954358,-0.05181722668047931,-0.09724420647865956,-0.07770587730419456,-0.041878459382593596
0.216,-0.059290712898718255,-0.08388652600018502,-0.024590762291198793,0.07192643155151766,-0.01817831961117321,-0.056508665506218414,-0.059239754371416944,-0.06020719568963562,-0.04725121155909261,-0.09422873929188397,-0.075481181131004,-0.03940808268473381
0.218,-0.07868422855707545,-0.08158228407250062,-0.0027795259802487426,0.0811287508525085,-0.0400757444437581,-0.044778215905104106,-0.049978070616998674,-0.050656923380123224,-0.03615846699246837,-0.08322886346703848,-0.06565834694988557,-0.02953600149999102
0.22,-0.0981237330773322,-0.0802858163881852,0.018168427071858412,0.09078333605799493,-0.06056722843861854,-0.03334688513352299,-0.0400823723903914,-0.04151217935061687,-0.028559462466351163,-0.07390349814022082,-0.056184580508818804,-0.020604276502506153
0.222,-0.1008689257226629,-0.08129415417514835,0.02002776415516551,0.0930692499882147,-0.06210680491244468,-0.03201518050779479,-0.035871761397491916,-0.03933490555744568,-0.029594914027904012,-0.07226176592742488,-0.052805064736483345,-0.018819217551521383
0.224,-0.08688321512458239,-0.08354361167356113,0.0037288080399733373,0.0871331108904787,-0.04607637572113469,-0.04052215972663864,-0.037093952842868844,-0.044116855378195916,-0.0356163693514974,-0.07632947039137061,-0.0548336771684882,-0.023048986651306128
0.226,-0.07205786901247348,-0.08661947279555895,-0.014263345853488308,0.0806860513142626,-0.029473950232682813,-0.05136433089720593,-0.039594144607182885,-0.05108872633977817,-0.04054201458525511,-0.08116766127029144,-0.058407878483086303,-0.02810959962401157
0.228,-0.07053918246644046,-0.08906428913082497,-0.018251245100163457,0.08046688580935907,-0.02739963755166816,-0.05581306686663595,-0.039797551476086705,-0.055124349026824684,-0.041967608914614006,-0.08400714341469007,-0.06022711795060232,-0.02962954484607709
0.23,-0.07853924613162143,-0.08790382500857843,-0.009149818671593599,0.08343237984130462,-0.036925998725421356,-0.051605568367749086,-0.03828227426503276,-0.05495595651457009,-0.04190785830883676,-0.08527811051924943,-0.059503908253702664,-0.02747020908524153
0.232,-0.0811258842824827,-0.08401280863223883,-0.002733307157951273,0.08278799196553359,-0.04165519563900158,-0.04626793265687549,-0.03858050060063239,-0.05354596159606579,-0.04400968067963247,-0.08626077318728874,-0.058224747381757654,-0.02543695912568173
0.234,-0.07393531647151928,-0.08314367142108631,-0.008969703403610776,0.07928176752487248,-0.03393028704330038,-0.04801911464536318,-0.04104200989092834,-0.05315867784379096,-0.04873296059139847,-0.08593813373959068,-0.05790929914317502,-0.02604753241298289
0.236,-0.06808217593349523,-0.08767278974242478,-0.019251717888188948,0.0792852476378408,-0.02445009050485242,-0.05459011069285502,-0.042048591250178416,-0.05239867564274992,-0.051652782090236,-0.08204100663587523,-0.057305816563258664,-0.027682988593344313
0.238,-0.07410547838561057,-0.09330248337192146,-0.019034991226515873,0.0855227644551881,-0.027194209959577925,-0.05704700433294262,-0.03994193597103378,-0.049681528217388325,-0.048680481120048094,-0.0751655888615216,-0.055177047638148166,-0.028281137082123403
0.24,-0.08969783260668618,-0.09594863164833572,-0.006431407976502114,0.0948256035597601,-0.04233118450486518,-0.05218502147041595,-0.036580058561932374,-0.04654291691957785,-0.04142733536687694,-0.06922425336878511,-0.05249465453561576,-0.028066455070681017
0.242,-0.10269906487623716,-0.09476642153629025,0.007703043314694915,0.10082443238908595,-0.05708843940448555,-0.04456518862595399,-0.0336825386399872,-0.045829994815257326,-0.03560794719059036,-0.06783909329124611,-0.05050554510801889,-0.02726502045688633
0.244,-0.10223442944086093,-0.08875922357269801,0.013584108944246574,0.0974129379786246,-0.05968294329820271,-0.0385201787319621,-0.0315579393534114,-0.04820168697802374,-0.035298286258286536,-0.07113042955271083,-0.04919226152815612,-0.024766020977127243
0.246,-0.08848038143785933,-0.07770356293541571,0.011221203509450123,0.08428719472629265,-0.05034262407567953,-0.03395775110801753,-0.030135923005444844,-0.05130100196072845,-0.03931835725212062,-0.07568310547722847,-0.04804154465444702,-0.020627555181618785
0.248,-0.07279266742113794,-0.06705827165012221,0.00624073472529121,0.07010645646942117,-0.03902052530175817,-0.030669722236363422,-0.029595536629722027,-0.0524171120512237,-0.04320242899244802,-0.07832793823120124,-0.04734132291195478,-0.017936545241419827
0.25,-0.06623077285276888,-0.06561484121380926,0.0009670367022889491,0.06574175238105961,-0.03344345794258747,-0.03208498880923412,-0.031117969128685863,-0.052007286379236045,-0.04476680870574699,-0.07972389480775999,-0.049100981316947984,-0.020871732911462992
0.252,-0.06850069053270444,-0.0750013727675414,-0.006359190807383878,0.07249145522708578,-0.03228151216114019,-0.040331684553094126,-0.03597969722788215,-0.053197485644514216,-0.04569325954558675,-0.08242423068006956,-0.05516679725295915,-0.030210144506976403
0.254,-0.0710764286992535,-0.08667536376797569,-0.015522351238344737,0.08108970300267095,-0.030211395566605452,-0.05107455956848548,-0.04239407028608894,-0.05696698972381879,-0.047229888027216414,-0.086033485592637,-0.06298034318433893,-0.040662315943923985
0.256,-0.06848300149197205,-0.09203925809646295,-0.02331482125143827,0.08295018745286449,-0.025120639189790718,-0.05810970221674592,-0.04581865873853108,-0.06045934124312883,-0.04827905967951689,-0.08736635970575049,-0.06694284553727682,-0.045096384857279015
0.258,-0.062413697642187245,-0.09028102077281837,-0.027463276579950444,0.077917160853897,-0.019180297946253103,-0.05976543000909107,-0.044210601289420365,-0.06131791485626528,-0.04859266707757375,-0.08564391399854103,-0.06623369826633821,-0.0423185081023948
0.26,-0.05949633958868671,-0.08578829931706587,-0.02600145140703698,0.07276914136001633,-0.017858460039280214,-0.05724698763030983,-0.03984190746903036,-0.06008231433939671,-0.04915614304263276,-0.08342963487031035,-0.06581752182443693,-0.03744086758056918
0.262,-0.06938729090835208,-0.08318625438670944,-0.013797898669955011,0.07638623062154073,-0.02914765661235276,-0.050052795956382845,-0.034674668340640986,-0.05688812684788028,-0.04844423655583959,-0.0812045458855086,-0.06728946469447784,-0.03389024650404974
0.264,-0.0958966581544951,-0.08473112498583214,0.011013800773310184,0.09181660634530334,-0.05520757305898542,-0.03815533624716949,-0.028520057054262103,-0.0507615242955945,-0.043595841179548546,-0.07622696315420979,-0.06617109818421235,-0.029963650518333267
0.266,-0.12375044122535554,-0.08906257065400071,0.034607371688699255,0.10911019871801068,-0.0807338146693324,-0.028082468258765328,-0.022836087815007428,-0.04442790665500394,-0.03674469389874964,-0.0692202745262974,-0.06129470341300429,-0.024955133688571596
0.268,-0.12844750152242174,-0.0926166665529244,0.035871950238861514,0.11303622089199679,-0.08306191180211063,-0.029127704045073113,-0.021042136613502505,-0.04416353154074391,-0.034930027108020255,-0.06653089225495519,-0.058734450628542295,-0.022873453282239716
0.27,-0.10648154592838882,-0.09240685753676188,0.014138125057139678,0.10071617262819003,-0.060827018395393,-0.04020059271318891,-0.02407609039057427,-0.05168711027867311,-0.04153659025531341,-0.07174617479185377,-0.06290523606335506,-0.026738458693743174
0.272,-0.07996236423824368,-0.08703016902927635,-0.007059561242993435,0.08383680060664656,-0.03738117736487836,-0.04843018698363374,-0.02897572000608159,-0.06040793870013231,-0.05153681132825859,-0.07940942618874541,-0.06995895281311437,-0.03331713939922089
0.274,-0.0689973021673124,-0.07889662157950958,-0.009929849911363852,0.07460523808348285,-0.031238633990277043,-0.045828876662043036,-0.03161778381584162,-0.06264567047621632,-0.05693693177106295,-0.08112629425064855,-0.07291430382572457,-0.03673089735853446
0.276,-0.07455584756406568,-0.0752523633419913,-0.0007155942827091301,0.07661644082656822,-0.038689178891030226,-0.03919009182371344,-0.02985763948329622,-0.057906248063091616,-0.05431855965002996,-0.07550585221735136,-0.06981083800125797,-0.03513678350742467
0.278,-0.08603155351187,-0.08009152576148179,0.005947557512139661,0.08522304182607449,-0.046987558279279584,-0.037910326524097426,-0.025221016904538922,-0.051810074226783354,-0.046736357683776084,-0.06867205685968415,-0.06468154460427293,-0.03189140513337155
0.28,-0.09269346729659068,-0.08728758918009807,0.005419879446548271,0.09156114019536976,-0.0495365991299773,-0.04131937066316017,-0.02188955811584009,-0.04985021660660171,-0.04132867128526157,-0.06662401009107854,-0.06250601865915262,-0.031535417140491684
0.282,-0.08972373492546418,-0.08800406886921042,0.0017222447000863968,0.08950205870487678,-0.04660598665074366,-0.04341251988652485,-0.022971687984128835,-0.0538707450955696,-0.043969241919462436,-0.06997235473067288,-0.06489673699698141,-0.035508142977663144
0.284,-0.08222507299301877,-0.08147193413037877,0.0007686702323046622,0.08188514650802962,-0.04319368005153536,-0.04127232346558631,-0.027164325515716216,-0.0609872469735781,-0.05287983117726526,-0.0749153699727571,-0.06941302282287364,-0.04081529815137264
0.286,-0.08194147398770223,-0.07544219187534178,0.0066480696539345345,0.07864586917227924,-0.046342040782958505,-0.03620605592199357,-0.029976624954739337,-0.06559648616589649,-0.06000618330731913,-0.07752713421068144,-0.07232652212352556,-0.04314889752191742
0.288,-0.09315155810504916,-0.07736819610450552,0.01624345986280366,0.08565915342362362,-0.05629377512444246,-0.032397311094656836,-0.029071764072753328,-0.06556843241875225,-0.06085166858586691,-0.07738935908071469,-0.0726747069782159,-0.04192748777930186
0.29,-0.10461408029084249,-0.0850290286420986,0.020338165149527142,0.09604337694128919,-0.06327624254598559,-0.03332496305316502,-0.026903461246714337,-0.06431986368339676,-0.058732496843247134,-0.07677311473527876,-0.07262238704101913,-0.040604739334143804
0.292,-0.1030492654024991,-0.08844819053839457,0.01527995247947165,0.09759127361584276,-0.05950440364484269,-0.03702013524324435,-0.02660993944770876,-0.06439327073076782,-0.05794266213681383,-0.07646829334226762,-0.07321137938025984,-0.04117634979535085
0.294,-0.09141961381016907,-0.08284536860613881,0.008802776067357326,0.08869676873158835,-0.050557736369244155,-0.03783795157889764,-0.027378531737603535,-0.06354910491053392,-0.057875719763940923,-0.07439592195420643,-0.0721684236576504,-0.04125921434004668
0.296,-0.08444439259931408,-0.07469824714651167,0.009573637754308594,0.08006356097654575,-0.047920057590739515,-0.034014791185620806,-0.026619236255587746,-0.06035361392467188,-0.0563203888743507,-0.06927621043749728,-0.06779862719773051,-0.038460643125956574
0.298,-0.08727616768554397,-0.07272778687287254,0.014339602142901399,0.07965387671455987,-0.05215374678405419,-0.030842635779451705,-0.024910936740502578,-0.058742437847939116,-0.05463943711832423,-0.06411472550030665,-0.0628810693532024,-0.03498928964643905
0.3,-0.08885157459249308,-0.07724910806738765,0.011564118976774737,0.08295941133089918,-0.05165711891038815,-0.03442740787791162,-0.025259585417557018,-0.06290224808966563,-0.056422686371178685,-0.06367987393619022,-0.0622609745293225,-0.03534481924252427
0.302,-0.07929346932762,-0.0811366605427695,-0.0018717624604805902,0.08132424560766235,-0.039957102164114675,-0.04314241906049062,-0.02853011110502573,-0.07094046480276772,-0.06228594047693295,-0.06850138351423239,-0.06750596791636473,-0.04073413983661866
0.304,-0.06527511760626434,-0.07924120037363384,-0.014235198538928956,0.07458440097314942,-0.026462352244755637,-0.04843442018811704,-0.03238193530655378,-0.07692433917346003,-0.06848198693395903,-0.07398239920920176,-0.07503320149669884,-0.04785023926670169
0.306,-0.06072267312548428,-0.0732458843837064,-0.012973500169590979,0.06975206125305024,-0.02450371892773206,-0.04477195765760089,-0.033856777675180375,-0.07729116219921482,-0.07116156975200884,-0.07624233436761327,-0.0791357725253004,-0.052299215883915416
0.308,-0.06978246344685995,-0.06807735653885429,0.0014046785811231033,0.07129634785092202,-0.036015214792789,-0.035125010209447194,-0.03166749009627267,-0.07346297695875217,-0.06992565315669216,-0.0760814282485483,-0.07690044572520781,-0.05175647384823865
0.31,-0.08771436270466666,-0.06781935540376624,0.0199143311405053,0.07941718930765129,-0.05434168032329551,-0.02611203089898433,-0.02692087533749155,-0.06915347165301017,-0.06610538074149919,-0.07562789223830953,-0.07030028079840953,-0.0467396619672426
0.312,-0.10840660393713204,-0.07371791723563557,0.03485592094973342,0.09234792918567389,-0.07244107695085941,-0.02186870358828531,-0.02192166683526863,-0.06635942738655147,-0.060446966061574715,-0.07412009377768788,-0.06359997430235992,-0.03958382508433863
0.314,-0.12343000149273042,-0.08229076473849326,0.04121615057302672,0.10442532293139291,-0.08330341589687433,-0.02265601795662844,-0.0180191439633705,-0.06426650746006941,-0.05426633163521546,-0.07008199033562837,-0.05955789728972723,-0.03284538057180551
0.316,-0.12447806916727028,-0.0873534681564167,0.03707331600089265,0.10804846955820425,-0.08204939617477501,-0.026210037042016184,-0.015493895455825184,-0.06180315324561282,-0.050381917859200924,-0.06535536479120017,-0.05839689069321123,-0.028713939823604963
0.318,-0.1112791790331047,-0.08613293036666667,0.02507989383889925,0.10098362345830668,-0.07016492668459745,-0.03063429561806534,-0.014938897108925962,-0.06033178944418359,-0.05106137884920892,-0.06343847367621766,-0.0591116536932357,-0.028882528944666037
0.32,-0.09185451220702896,-0.08155657537457994,0.01029384303014859,0.08832936696825466,-0.053730187172913925,-0.036024414972178634,-0.01694273819184943,-0.062160471939439736,-0.055774079791071345,-0.06530358063503029,-0.060494173428198954,-0.033401528096556214
0.322,-0.07598011255437583,-0.078427868922032,-0.002413651180335402,0.07789769409881268,-0.039285115061860436,-0.04221380900453141,-0.02083408847765858,-0.06653146619838396,-0.061423487039942305,-0.06914959937638937,-0.061634125369834585,-0.03994353889805686
0.324,-0.06971097371420597,-0.07864456757129056,-0.008915071672982375,0.07455474545967822,-0.031790673369998586,-0.04647060582652123,-0.024626035164808893,-0.069836228201424,-0.06464876676751086,-0.07239796216112551,-0.06264825503724901,-0.0452893774208998
0.326,-0.07266014860602599,-0.07967138501279102,-0.0070209824044140355,0.07680835072153032,-0.032904312948846576,-0.04528083612742282,-0.026126143893901114,-0.07042409078360616,-0.06444339688702609,-0.07306275440681707,-0.06416371342955943,-0.04803852605516759
0.328,-0.0788870348771656,-0.07877100078440634,7.933813515821581e-05,0.07947149059881276,-0.03896991977896177,-0.039611044505728006,-0.025405293149022224,-0.0705702698017071,-0.0634466892182673,-0.07192108434716417,-0.06608303643642008,-0.05031084128780139
0.33,-0.08083544501812977,-0.07770263255181543,0.0029997668360757282,0.0794070046625323,-0.04172893959882312,-0.03663922079570209,-0.025912709082595308,-0.07314729351741249,-0.06605630001752423,-0.07275242590124885,-0.06851226196969473,-0.05545208636122377
0.332,-0.07470676975205144,-0.07939994276965812,-0.005013366391181056,0.07688749802667216,-0.03545068737987271,-0.04177000898363829,-0.029729916862318392,-0.07819558354970806,-0.07330477963522918,-0.07725520286585688,-0.07270356537499717,-0.06255436180310603
0.334,-0.06581606884205614,-0.08275018255569772,-0.01735232383136211,0.07455032431162602,-0.02553172919309806,-0.050342011773541986,-0.032747986086242166,-0.08266307556002488,-0.08008071171239053,-0.08172027388037675,-0.07889159788262065,-0.06607767031270305
0.336,-0.06583855063112415,-0.08387782241222279,-0.018296656328366454,0.07594126545345466,-0.025326241093976777,-0.05163676713864693,-0.02920396660816681,-0.08258626539279601,-0.07973996507538911,-0.08131280446636757,-0.0838433438268731,-0.06262033917897157
0.338,-0.07981510058308305,-0.08018701483589695,-0.00034951999247858224,0.08161343562077582,-0.041136496266246554,-0.04056070242893046,-0.019685465475760507,-0.07686368409384535,-0.0713555270163408,-0.07545495863584296,-0.08264105125517049,-0.05490910941956014
0.34,-0.0988628077200803,-0.07347434477342277,0.02553369948810907,0.08785692473149513,-0.06337726512759596,-0.024051679635450757,-0.010665984097878396,-0.0698610112228551,-0.061077047262913915,-0.06802287332111495,-0.07474694111249856,-0.04847739427122843
0.342,-0.10876541451530065,-0.06933015609985893,0.039478056522117666,0.09057016019197502,-0.07519141712797607,-0.01512686491468702,-0.007412121388942944,-0.06806459467118055,-0.05644646839278025,-0.0638268796275841,-0.06655983913666486,-0.046663891594072665
0.344,-0.10439281328811743,-0.07048972284202626,0.03370473777707676,0.08862540435659547,-0.06989812007576203,-0.018829578271137265,-0.009981385613174956,-0.07271715940196298,-0.05986533069965432,-0.06487226165063197,-0.06457709645456425,-0.048607193598695454
0.346,-0.0935918106562089,-0.0731684957060517,0.019907824445486857,0.08421877288526206,-0.05713623026496551,-0.02726547095787248,-0.015058105911441959,-0.07829701552960107,-0.06746495063175424,-0.06897040393276824,-0.06795533432620361,-0.050950483684581896
0.348,-0.08523407716444141,-0.07411130948578062,0.010391797210409358,0.08065304804552528,-0.048059484660012315,-0.03273509105128829,-0.01993898012744193,-0.08005190860151078,-0.07406393873178116,-0.07233609105478786,-0.07146423753816139,-0.05193061216186337
0.35,-0.0786013393501548,-0.07644589343713755,0.0016380595552252083,0.07913200800853078,-0.04119612379753792,-0.03850838200882053,-0.024369923654303828,-0.07969155598892944,-0.07793469176499314,-0.07398380943798541,-0.07311297773733283,-0.05338111307675494
0.352,-0.07037689173053632,-0.08274627063748859,-0.012256190594806725,0.07855300270695237,-0.031472607246604056,-0.048660113539133756,-0.028013191688032506,-0.08045255224406177,-0.07925225017315055,-0.07550471928949062,-0.07396045728272667,-0.05671868701319339
0.354,-0.06413173175760384,-0.0879668778289186,-0.0232496513035976,0.07789588149132289,-0.023378232460262972,-0.0567588349799869,-0.028440816634873696,-0.08111496012685336,-0.07742723022989206,-0.07658433974871261,-0.07348950433309254,-0.05926134274676959
0.356,-0.06381555680839011,-0.08648622590294756,-0.02221874094298073,0.07669376419573296,-0.02299768001353032,-0.05578016894168405,-0.024851350426272754,-0.08009690654724538,-0.07409642798167874,-0.07504952822273266,-0.07138815333840148,-0.058884542737532436
0.358,-0.06483557872281302,-0.08114122456344526,-0.016315581287809425,0.0740798784489085,-0.02554452292467155,-0.05070973653999534,-0.02057369447346533,-0.0802286228656389,-0.07406126349706232,-0.07128273672556056,-0.07072783466923611,-0.058602473952954745
0.36,-0.06194247908382007,-0.07844013283882736,-0.016739753621936377,0.07049381522125756,-0.023755879377914995,-0.04974152355424023,-0.018260399666623413,-0.08305288205253487,-0.07832720734269256,-0.06792836880884247,-0.07309462980301608,-0.0608768958835969
0.362,-0.06077189293289376,-0.07882742560721184,-0.018173609698689072,0.06943708239498374,-0.02256985266047702,-0.049950486339741806,-0.016208534050878288,-0.08349385841689462,-0.08105684124662779,-0.06559913886980291,-0.07387175651006808,-0.061575920643398986
0.364,-0.06959610735853303,-0.07734311822011689,-0.007675068306794245,0.07330814090110464,-0.0317570892080443,-0.04306556221043573,-0.012579899787413617,-0.07772944447169007,-0.0779535886064765,-0.0633236241775402,-0.06890510721623457,-0.0561499165092457
0.366,-0.08370292906836019,-0.07262397864138238,0.01117748436267406,0.07912728553969889,-0.047480186945743956,-0.03140806833895406,-0.009951687110155247,-0.07202705087257091,-0.07330370065569161,-0.06278437704505603,-0.0631217187426125,-0.0488127407904662
0.368,-0.09051364661333032,-0.07057716312991023,0.019944691258461485,0.08280730090661555,-0.054979597012179325,-0.027218509736339148,-0.012527909133449621,-0.07549994881858726,-0.07473750466813817,-0.06740993486184667,-0.06558061976621485,-0.04865851838451297
0.37,-0.08688363501480234,-0.07527355865274712,0.011560400961055919,0.08398450201640312,-0.04918249932796446,-0.034842390860495946,-0.019738782389317904,-0.08694784478040173,-0.08328303896397955,-0.07613490899422266,-0.07650561468651995,-0.05703568117591458
0.372,-0.08134982105622564,-0.08024041867252436,0.0010812046806648224,0.08347638602165483,-0.04142664799725286,-0.04258845314438796,-0.024577405038535744,-0.09515313819106526,-0.09097032451517337,-0.08143036732251856,-0.08473787716845639,-0.0640939682940932
0.374,-0.08191126466654382,-0.07718440161880137,0.004740483538184728,0.08144115217721032,-0.04364504731645813,-0.03842494085197785,-0.020717198589539222,-0.09147718799541144,-0.08917437962283904,-0.07690118803555859,-0.08023666915029846,-0.060075170969178276
0.376,-0.08791520265060371,-0.0692408546051459,0.01871817360684813,0.07949340154337768,-0.05386631174947862,-0.026658347891805673,-0.011358650124072034,-0.07966861408561317,-0.07905926216131338,-0.06618304548374826,-0.06618208808426809,-0.04745435943601678
0.378,-0.0937107500773027,-0.06686081369278948,0.027006212424117774,0.08045525807606453,-0.061506073672538554,-0.021217113447579365,-0.006335369507637064,-0.07146557972135673,-0.07068382774090903,-0.059954381644539166,-0.055069096090149115,-0.038093744745145784
0.38,-0.09625231637029251,-0.07465233715305578,0.022048214171284806,0.08556702126187521,-0.06095311625124942,-0.028243688599051343,-0.009451068755202685,-0.0727889769618343,-0.0710491268631699,-0.06344078551075799,-0.05439749680987175,-0.039159640810573264
0.382,-0.09467126520440637,-0.08644962713819104,0.008943059337767973,0.09121932617759146,-0.05373123424918587,-0.04138454752621618,-0.014719635429260672,-0.07867839500751726,-0.07704064555229884,-0.07166756927843183,-0.06051097544893181,-0.046621307758926527
0.384,-0.08638042462814796,-0.0907441884015571,-0.003814386420311431,0.08952366215770816,-0.04274146104041153,-0.04982985425316062,-0.016152137018619454,-0.08250126306136596,-0.08177317371088931,-0.07807421397683978,-0.06594263466364673,-0.05317774834630866
0.386,-0.07236771135721584,-0.08294261795798583,-0.010667605435586815,0.07816109360005423,-0.03185511462981823,-0.048541110185229566,-0.014945239938986072,-0.08412646377340573,-0.08375362816480958,-0.08213330170414751,-0.06846222079826562,-0.05752109213234103
0.388,-0.06097984276759673,-0.0722152387656574,-0.011828543316135932,0.06660100798649857,-0.025699804301790304,-0.04306209414894224,-0.015858493239034658,-0.08678327652895688,-0.08601862080291217,-0.08590541292362854,-0.07134538529817983,-0.06290137111728258
0.39,-0.05768600896540251,-0.0705559800564305,-0.01333672923492232,0.06452355633495235,-0.023825247004626782,-0.04310343929738125,-0.020569311158417616,-0.09073987044894966,-0.08902400203341877,-0.08858560415606778,-0.07698337122599425,-0.06985712328319127
0.392,-0.058278056830990306,-0.07776438237605604,-0.019479297588013113,0.06937713467941882,-0.021264876506799885,-0.05059183980295563,-0.025730001283670076,-0.09297853338658844,-0.08964728713950365,-0.08861142475334541,-0.08291181959558531,-0.07469846724529902
0.394,-0.058014739047539704,-0.0838023926882689,-0.02553885039013159,0.07263121124705388,-0.01774008187021084,-0.057477692999570215,-0.027278962866428044,-0.0912328076072591,-0.08661680656550062,-0.08754387386335115,-0.08492562950333314,-0.07467179758085199
0.396,-0.05912041610269967,-0.08231787213348718,-0.023074590730409673,0.07201381552000703,-0.019142805781220167,-0.05571558301035631,-0.02579155462314594,-0.08693872794812106,-0.0827488029893433,-0.08844512757314382,-0.0825838279269852,-0.07152051848856708
0.398,-0.06488206057490781,-0.07584909350753383,-0.011062286148181884,0.0713094228330039,-0.028263211457548943,-0.04584414521363738,-0.025087825187083926,-0.08343667839588823,-0.08094344043618361,-0.091663085597444,-0.07924358687181977,-0.06885336650134663
0.4,-0.07344627035729087,-0.0699107077491576,0.003302444993418464,0.07300789040319884,-0.04048971599105384,-0.03459396653714726,-0.02622791871418637,-0.0810950792914752,-0.08007967063019006,-0.09379039450404864,-0.0767699765046978,-0.06728831173460564
0.402,-0.08044475022378265,-0.06658469652238398,0.013545553775256096,0.0756993883462579,-0.049584014186812464,-0.02706518087005924,-0.02671162813159945,-0.07713850474697213,-0.07687435045102887,-0.092013169421109,-0.0736715485185197,-0.06444115326159977
0.404,-0.08241682827926215,-0.06419161139695531,0.01800693763318881,0.07598198485307149,-0.05237953554277245,-0.02374952166546375,-0.024672484945922363,-0.07089526476278765,-0.07076718415154228,-0.08844382949784285,-0.06927754262978784,-0.05951759113321538
0.406,-0.07728539834581558,-0.06095766072944645,0.01656023940155185,0.07131727661187928,-0.0481603594239453,-0.023228963688526564,-0.019622617146467743,-0.06498338571899989,-0.0638551049493757,-0.08691255249446496,-0.06559949161913074,-0.05501104772534601
0.408,-0.06501710141941955,-0.05742935235013375,0.008349595094810647,0.062133140335714515,-0.037285114560638814,-0.025294548216593382,-0.011660720705411638,-0.061078293728920104,-0.05744128330967864,-0.08733468040857442,-0.06397839279230534,-0.0537511734813923
0.41,-0.04745353135006878,-0.05439619874957905,-0.0061413270029593466,0.05065433612853731,-0.021231694336803372,-0.030425256725168607,-0.003933636344533354,-0.058466067783021096,-0.05221991213175189,-0.08720674820236937,-0.06359458641074213,-0.05650178355153903
0.412,-0.02933150128408257,-0.04969805193437081,-0.020076704275684035,0.039134833256277216,-0.005587878953067878,-0.03524111584609528,-0.000950574613364904,-0.05608594535628841,-0.04920926104291225,-0.0860159567937819,-0.06352047987258451,-0.06175807323573126
0.414,-0.01971536520561888,-0.03975196782861161,-0.020243415037429976,0.030451475594343837,-0.001118747475758921,-0.03128877785707737,-0.0008265459680922,-0.05251062292489223,-0.04704806568313345,-0.08416335683949593,-0.06300579207333505,-0.06575306918812986
0.416,-0.025282753393783188,-0.02394791193730727,0.001054389820346828,0.026707386701928206,-0.014697550987988094,-0.01317435452369559,0.004690917689775879,-0.04533258617565075,-0.04177324682838786,-0.08031244750279583,-0.06036735741361305,-0.06407714297499939
0.418,-0.04111082721667468,-0.006034961858008554,0.03492272034530003,0.026243844074526138,-0.039368169500838365,0.01322396997090844,0.01927540706458357,-0.03404785624513263,-0.032101816468700174,-0.0736028825402651,-0.054644606684534705,-0.05594596378923174
0.42,-0.05375224482161223,0.009561512855179312,0.06311348360005642,0.024487218047304894,-0.05949921499477961,0.035665548989379875,0.03726874011219361,-0.022190978551621013,-0.021665158237109062,-0.06622996005679208,-0.04754090211559171,-0.045181165336868286
0.422,-0.054446088378964363,0.021752512631184884,0.07584891029114164,0.018406295236158842,-0.06598816978388435,0.04787723740845377,0.05172229886904909,-0.014048968103492866,-0.014470924630521537,-0.061132497458982936,-0.04144374722605855,-0.0355587232848243
0.424,-0.048228929891540546,0.030302218446998604,0.07824160598595375,0.011105301675233124,-0.06382068760847667,0.052537811532084665,0.0609013588292687,-0.01057034894614528,-0.010970762039827239,-0.05847213071665132,-0.03659105001291838,-0.028165640548603196
0.426,-0.046282012278258754,0.03282196919525214,0.07907378265231514,0.008944628457684773,-0.06285763438016792,0.05378840723746268,0.06567271390503616,-0.009711864436660953,-0.009120073430090157,-0.056036119568681854,-0.03209881793250339,-0.02357718289517743
0.428,-0.04790160996952194,0.02938880261166435,0.07742806052905474,0.011020430967010606,-0.062394576076187584,0.05168628816984667,0.066148664180786,-0.00909218101448632,-0.007112011871761741,-0.05280728161092289,-0.02857388318017511,-0.022765600719186534
0.43,-0.0417288280513836,0.024995738750355375,0.06681435448760607,0.009385310534733557,-0.0537556046322911,0.044924513673607266,0.06343326585362806,-0.007428808358265081,-0.004510414781746498,-0.05026915276525305,-0.027430445581554826,-0.024965239320170286
0.432,-0.026863803698412847,0.023754093811753876,0.05058889960268923,0.0020190128482763404,-0.038264596630831975,0.03657231526783734,0.06160916840766919,-0.004601461837920107,-0.0018501068557485404,-0.049441937683746814,-0.028252312554621184,-0.027214671708121516
0.434,-0.015621719968965742,0.025934869142522486,0.041493854003969016,-0.005078290081715576,-0.02824616275740682,0.033261052150504025,0.06462645908940828,-0.0010583504427440263,0.00016349756607722088,-0.04888528628739737,-0.028622239462911567,-0.026963423617420143
0.436,-0.013823225690680568,0.031077100298685927,0.04488579953934966,-0.008943913540628444,-0.0291104577026463,0.03774203953038089,0.07120167994522231,0.002456757286660554,0.0013468621775497378,-0.04695748228317265,-0.026637820571549772,-0.024185016787597755
0.438,-0.01302403780966128,0.03861934648018063,0.05167053127818028,-0.013308693065130026,-0.03238492732770521,0.04485756767359891,0.07456388366755325,0.0042618466048249285,0.0016422499034978823,-0.04453896012250352,-0.023520529806069522,-0.02142989678650684
0.44,-0.0038777405497449364,0.04546265486001712,0.0493612873194197,-0.021052035430551477,-0.027587284331711367,0.046309956751953416,0.06853318618243856,0.002264527057134804,-0.00035304515263739124,-0.0444301125961927,-0.023297777050077847,-0.021976190740246496
0.442,0.009804566749195368,0.04801692935602511,0.03820754572421843,-0.02864120521435184,-0.016424774125461224,0.040710652952019956,0.05415135529834856,-0.003098056905048235,-0.006073133298400876,-0.047960446872333105,-0.027728864301561594,-0.025866701037262768
0.444,0.01318836794063185,0.04744297763440193,0.03424091454079853,-0.029475948751370565,-0.01334840629591998,0.03766023138063474,0.039215558178235,-0.007845464477729441,-0.01294215087318002,-0.05224467112127092,-0.03214399656511946,-0.028299982676918373
0.446,-0.0018055382453223295,0.047569798854965026,0.04937142418230563,-0.021376991207017776,-0.027997102177050003,0.045742074029825525,0.030082921919173073,-0.008782092397423327,-0.015369058577043498,-0.052136115105884104,-0.03042073747589489,-0.02506922519713092
0.448,-0.023406716645611534,0.04716065022718196,0.07055103108216677,-0.009658365325547525,-0.048726866368937055,0.057524820043086754,0.02509891022940096,-0.0075474729611530065,-0.011629750277042829,-0.046660793858306335,-0.023689425330250275,-0.018821388732571834
0.45,-0.031165045321798666,0.04050108633201823,0.07153962764341161,-0.002054617171388608,-0.052910491979045966,0.05589769219927739,0.0174923460501457,-0.008653966115107136,-0.00727133611023043,-0.04252340735468331,-0.019945817944374174,-0.016764084642786302
0.452,-0.019159008755995813,0.025813119879991585,0.04464394980282589,-0.0007759058874179383,-0.03359404619010722,0.035226574432739896,0.003299164177506252,-0.014790220596270384,-0.010147840239286913,-0.04757867179496496,-0.0248869900323686,-0.022330314315517127
0.454,-0.001039370903566891,0.007467483769188468,0.008081260704182625,-0.0008896515711070583,-0.006411548142808235,0.0071624548438582,-0.014887722854680346,-0.024935520782488684,-0.022281033990150353,-0.06100602726647998,-0.03589062472597475,-0.03152075874198905
0.456,0.007845599335582473,-0.009581537546824557,-0.017683690505462667,0.0029896323361136372,0.010727989216018658,-0.01471229695063814,-0.030775769800793724,-0.03644242995199786,-0.037982569224472316,-0.07457499411303482,-0.04592034631851564,-0.03820020243913861
0.458,0.006406101056292513,-0.0236335650087745,-0.029990905794501498,0.010542962990932003,0.0161667971676693,-0.028214706267675756,-0.03988575527282824,-0.047242795262605886,-0.0502122007275044,-0.08246357880499088,-0.05104418754883361,-0.040641510073783124
0.46,0.004634235462549084,-0.03529194684561867,-0.03964796918615566,0.017288409348344105,0.02071135782828637,-0.039507936056946226,-0.04287315281882984,-0.055611070399596556,-0.05673134633282399,-0.08544088746439754,-0.05239863883761491,-0.04131594062290991
0.462,0.010780388798934169,-0.044718735609853545,-0.055108589909010616,0.019311574988972506,0.0325740882361561,-0.052594431010308064,-0.043722666526071374,-0.06089423756446288,-0.06060234515591341,-0.08746082365939903,-0.05340348813971287,-0.042979874990079305
0.464,0.023913706990392206,-0.05073822062431555,-0.07429804053863046,0.015905387052895795,0.04946609348752567,-0.06502967544697626,-0.04470579430037574,-0.06501717766402519,-0.06623020292436087,-0.09087508936050828,-0.05691533759474458,-0.046789873445391844
0.466,0.03496395565875003,-0.05338773821313333,-0.08826220275442967,0.010963034816740972,0.061694033813901025,-0.07236379998862294,-0.04429006660330415,-0.07004587362553909,-0.073839402142778,-0.09445351925433483,-0.06277664756505791,-0.05194980803687419
0.468,0.03366490541473103,-0.054834651727321874,-0.08872326292253176,0.011150746818557508,0.06013713935472602,-0.07266160119478075,-0.03953335663787988,-0.07410504632567605,-0.07799351254228523,-0.09508305777429862,-0.06685338387420768,-0.0554548281859043
0.47,0.01568297559656307,-0.055637655516270756,-0.07150981837380625,0.02016878729390128,0.041554358287611275,-0.06490167045949768,-0.02876907522635471,-0.0722011398166533,-0.0728519448983818,-0.08985822175112868,-0.06433837733109396,-0.05353258761087143
0.472,-0.015333379706713671,-0.05405441249084485,-0.03844861739103279,0.03581036362312274,0.009618509803082409,-0.048559771798807175,-0.013539492534851214,-0.06243129971554034,-0.05896782495248718,-0.07829951979280655,-0.055365770227069074,-0.04575514635494932
0.474,-0.04861392203418624,-0.05123292702876993,-0.0018418869117445766,0.05221646091834678,-0.024478248978379163,-0.02936229696410272,4.3849750104658284e-06,-0.050756311112660935,-0.04506171748464276,-0.06595883545432701,-0.04662425254683792,-0.03793516254011402
0.476,-0.07091152266183766,-0.05293832275154438,0.018887136696066138,0.06423577529606327,-0.04569011586440802,-0.019682755196752246,0.003908119178288324,-0.04708833269722609,-0.04207936839815657,-0.0628976578858136,-0.046399348531394664,-0.038353340251038884
0.478,-0.07681129159162203,-0.06304421994824072,0.014363655553578398,0.07115595817603104,-0.046945028710987574,-0.026596069312395103,-0.004006984213682339,-0.05529765648399944,-0.05322481210079305,-0.07350639807782337,-0.057144139910050656,-0.0494431638438286
0.48,-0.07302389442757928,-0.07646935733094422,-0.003348201709585852,0.07513951608863104,-0.036457541369852145,-0.041775761274578556,-0.0161150816127964,-0.06910707186707105,-0.07002512432212983,-0.08978316825981547,-0.07234331805467961,-0.06469560238528468
0.482,-0.07034694827588475,-0.08364077897625778,-0.013509193238794391,0.07738388035879096,-0.029227794007476764,-0.04983394389442771,-0.022335217411571323,-0.0795140123751226,-0.08109600654576676,-0.1001121475418204,-0.08266360159421368,-0.07598881574574012
0.484,-0.07400852106459921,-0.08436562941870564,-0.010658015508971703,0.07965161736115378,-0.031398704622611316,-0.047926065753225194,-0.022096330170770305,-0.08523088040429824,-0.08558743197910719,-0.10389428977558735,-0.08713276272056875,-0.08343346479402199
0.486,-0.07890381648230699,-0.08887023126638163,-0.01040071676482092,0.0840062237445077,-0.033664103166468486,-0.049548456867088066,-0.024603786002293227,-0.09344758248754798,-0.09344516880589107,-0.11139081805773259,-0.09449833128624682,-0.09439636733988263
0.488,-0.0742175257405051,-0.10081821992956055,-0.02723973648026615,0.08746832080927072,-0.023283275084414943,-0.06427192388727297,-0.03558382194126894,-0.10864671173145243,-0.10977020096636866,-0.1277284335195084,-0.10980478404008664,-0.1111623430094231
0.49,-0.05970103549090203,-0.1102514916463145,-0.05104585396961138,0.08544554591905042,-0.0044746689577271105,-0.0816611375240719,-0.04868868123197842,-0.12384906268181214,-0.12547914204741992,-0.14349437748328214,-0.12504619393360952,-0.12428365989912651
0.492,-0.050976663137221746,-0.10820335732189788,-0.05703180582232015,0.08063698921168647,0.0027598214086076243,-0.08387256821357825,-0.05348755121934018,-0.12808708307313538,-0.12868608090367895,-0.1461276728830628,-0.12924646217848465,-0.12341088261790173
0.494,-0.059820219254197914,-0.09870893454748972,-0.03799940002338836,0.08008626358255132,-0.011452536259734254,-0.069096895225644,-0.04853703541579037,-0.12028742526800898,-0.11972853301938703,-0.13614762093963817,-0.12291967090005136,-0.11160520734690443
0.496,-0.07890874608678067,-0.09185070636962187,-0.012051646657908009,0.0854127654406631,-0.034531954970802824,-0.052328633962372174,-0.041759618014373584,-0.11000906300503244,-0.10927021391522379,-0.12545445781430642,-0.1158780691899249,-0.10195798642033052
0.498,-0.09102480389182714,-0.09046186335276163,0.0008289365271630995,0.09039328966658584,-0.047459469392766754,-0.045662871706552866,-0.038997600930708066,-0.10562128976696183,-0.10486418624638917,-0.12202376387374396,-0.11432446987777609,-0.1012672682833371
0.5,-0.08572271601214591,-0.08879600291070466,-0.0033618773377668216,0.08742870482427295,-0.042685878851179096,-0.047888932996851666,-0.03794502639042179,-0.10645837712316579,-0.10463197999390976,-0.12300167449750145,-0.11603390011172696,-0.10421722427827715
0.502,-0.06961763993449628,-0.08427894343007239,-0.01506708312300827,0.07810229541715186,-0.0285676176327451,-0.052245348461914885,-0.03453395016311883,-0.10698603887117518,-0.10373259881510431,-0.12233935500921043,-0.11638368287721317,-0.10363858232491811
0.504,-0.062119601199589515,-0.08321479717267499,-0.021419558055737864,0.07433242763400291,-0.02178471260477464,-0.05502799709960092,-0.029393201915349502,-0.10482162730098107,-0.10175181728037443,-0.11894945538210486,-0.11418758855596166,-0.0995298875433789
0.506,-0.07261035894969842,-0.08981622164147172,-0.0174807327122747,0.0825589756907011,-0.02955871501020948,-0.05579513954393949,-0.025828325495543376,-0.1023220298483142,-0.10139703655577532,-0.1156863706956438,-0.1114496432300781,-0.09671406067467253
0.508,-0.08751708760853531,-0.09874328333829696,-0.011434488774871882,0.09399250804539966,-0.040274359137678725,-0.056189019039433886,-0.02567323077944513,-0.1022696499723424,-0.10374600897747308,-0.11438189810920237,-0.11037936422068659,-0.0985223948709548
0.51,-0.09088813056232291,-0.10412268925916862,-0.013387212767885398,0.09828558663402147,-0.04027029222272623,-0.058837347892184165,-0.027373235406303816,-0.1037668070993273,-0.10637433803327755,-0.11351347847168636,-0.11068424066083841,-0.10318004499282561
0.512,-0.08681143891834454,-0.10698943792002208,-0.02041967407906857,0.09772568381640022,-0.03375848580374505,-0.06342496280727548,-0.026512134853380467,-0.10284058563412819,-0.10512600906657864,-0.11007497369619684,-0.10915485219332359,-0.10473435873697176
0.514,-0.0883424543068271,-0.11067923118938597,-0.022721152431824744,0.10031502254910914,-0.03352945965132541,-0.06689049945583503,-0.021280854952034172,-0.0981362638264195,-0.09958443794155855,-0.10439135255618527,-0.10390423616123926,-0.10001878168697054
0.516,-0.09270699914398128,-0.11452638201792532,-0.022221079146833512,0.10476953269595647,-0.03711403652650172,-0.06932670600475832,-0.017269726550939016,-0.0948493838436425,-0.09609022767302439,-0.10158336522924365,-0.09867082440131429,-0.09410913615648457
0.518,-0.0838398555745918,-0.1139297801900978,-0.030409547676469487,0.10091646182022403,-0.029149977533032233,-0.07358641956479836,-0.02164019627278772,-0.09985763478339849,-0.1013767013339201,-0.10595708083050463,-0.09974585467428426,-0.09453931311672883
0.52,-0.06050455208426753,-0.10604585768363212,-0.04567616500988554,0.08608241123603441,-0.009122958459052775,-0.0774765892709596,-0.03277321362987805,-0.11210959619532776,-0.11328129146926122,-0.11501715504145518,-0.10777623593232537,-0.10129912195726616
0.522,-0.04368991743179359,-0.094153120685654,-0.050180614161136804,0.07181852264143068,0.002614318007305438,-0.07414898972228419,-0.04147063077848604,-0.12150894030038176,-0.12163796283530895,-0.12105800176641472,-0.11520479025712985,-0.10722535839764431
0.524,-0.047423243787753144,-0.08455963970969041,-0.03639293200086842,0.06841248070039002,-0.005707298238236643,-0.06312055997368415,-0.04212970859706686,-0.12029632611333685,-0.11974767650017062,-0.11869892077591826,-0.11406226898079609,-0.1075587747259749
0.526,-0.060022374378395256,-0.08035168135751544,-0.019563955903733395,0.07193939318458016,-0.02069727819025174,-0.05315081588710024,-0.03689469788964525,-0.11167447092232567,-0.11130602724342187,-0.10976638056047157,-0.1051160213299949,-0.10472304794681597
0.528,-0.06530325203662182,-0.08030909533127992,-0.014701596500069004,0.07392666030435627,-0.026281463928520644,-0.0506640675384485,-0.029536873733613175,-0.10385576549388831,-0.1039637392779647,-0.10057951436121337,-0.09701177392892528,-0.1036957673363563
0.53,-0.06699001755794777,-0.08298877007386773,-0.016036420276287794,0.07573392686958208,-0.026635829144676024,-0.0519913958344009,-0.020545541294062834,-0.09977217589307748,-0.10002425420559129,-0.09554230504848465,-0.09654005517791259,-0.1066367775772412
0.532,-0.07920314739281176,-0.08890450759783039,-0.009489436378700422,0.08483885370111045,-0.03569314714847337,-0.05075391008224179,-0.008538567527252702,-0.09717882471159728,-0.09724214625093704,-0.0955271944172483,-0.10357396260478144,-0.11372541690496578
0.534,-0.10278176512840034,-0.09806170003549546,0.005445196519558614,0.10160216781472012,-0.05462045772645398,-0.047277968084457174,0.006991303497246363,-0.09652430346094071,-0.09641770374790168,-0.10242016710715934,-0.11710771004264431,-0.1269607214743219
0.536,-0.12558221011876017,-0.10823982096287474,0.018139837998961995,0.11852362851632683,-0.07242771970278643,-0.04595451973645244,0.02621569184090145,-0.10231626224167786,-0.10212110247054751,-0.12018021214257145,-0.14042414807707287,-0.1497845018382152
0.538,-0.14224804227271617,-0.1170423774306395,0.025506372623685367,0.13129406066020133,-0.08449821166848988,-0.04683337478244682,0.05084751384366904,-0.11454062101984282,-0.11379160747306326,-0.14787227249425242,-0.17529769682957652,-0.18139841458513897
0.54,-0.1605812207136081,-0.12365072468285461,0.03672831234014265,0.1433042902842919,-0.09894044280324432,-0.044616488189871295,0.08457238747615362,-0.12249222087520698,-0.12025339830751094,-0.17481895071882952,-0.21364118508795313,-0.21321912941085938
0.542,-0.18673141810367655,-0.12847605184635744,0.05797124407415935,0.15822900639228685,-0.12241945545672075,-0.036391286396550065,0.13144153275040527,-0.11168657528912436,-0.10795323317901963,-0.1875182674032103,-0.24136670939198593,-0.23564863839517677
0.544,-0.2113415840228162,-0.1322611490124197,0.07892338107531419,0.17229075618614498,-0.14568544483534754,-0.027931371901722835,0.18982928067279503,-0.0772270005666788,-0.07381435639492036,-0.1800904767193564,-0.25137394933877144,-0.24799516005890068
0.546,-0.21506307779187228,-0.13289309437714555,0.08196996944807032,0.17489130641928688,-0.1498545170847486,-0.02720702978237467,0.24750381894416917,-0.025034714478908003,-0.02386575539789739,-0.15207483083296489,-0.24392022383445497,-0.253519464398707
0.548,-0.18754896286240239,-0.12296276695594177,0.06426069745292501,0.15650921163230497,-0.12751995063466598,-0.03159107904506569,0.2899491625516227,0.039834494164603586,0.03897455752611988,-0.0995254095171869,-0.21397088404608133,-0.2455345668586804
0.55,-0.13689981738924847,-0.09658190714673655,0.04016059986535855,0.11754852769130257,-0.08989452393121551,-0.030397591542751495,0.31270620110174174,0.11545226927931741,0.11439526380207123,-0.019559900440359254,-0.15285233163844741,-0.21105192065830922
0.552,-0.07579494400486483,-0.056683108781971546,0.01940825817258274,0.06635010365138179,-0.048937202698178785,-0.020254643368351526,0.31695931872754346,0.1955035955173278,0.19541387298379198,0.08206365386302845,-0.06140295225250655,-0.14611129298816056
0.554,-0.0014676198323248313,-0.006901413667902032,-0.004896360750473293,0.004575781678061482,-0.00023542256036915114,-0.006871003748238346,0.2963819300224529,0.276005691465035,0.2764132017814459,0.20395503510186946,0.05680011937265575,-0.051832482958627406
0.556,0.10049466556397667,0.058909671284953724,-0.041370966284906774,-0.07816677024864255,0.06820547086468076,0.008101683870346465,0.2387765108345198,0.36503360427201026,0.3645647015266138,0.3583818111767146,0.20986713695150663,0.078719532276151
0.558,0.2319028542662621,0.14899332212975108,-0.08329113446848,-0.18847142056093819,0.15467075957566953,0.031855388136660404,0.14052347413318247,0.46621638306619273,0.4637851861474316,0.5473772820338504,0.40404851901232713,0.25027328352118045
0.56,0.3747313412040945,0.26063445511051186,-0.1147277983122396,-0.3166986236243715,0.2424669826924775,0.07134890127189572,0.012223171541028512,0.5627355716463003,0.5587582431075582,0.7480575638243167,0.6256632252718942,0.44938888798451676
0.562,0.5125111285762384,0.3830896781751936,-0.12975489230423073,-0.44805100418547145,0.32012245682407237,0.12508727206016806,-0.12972232726841562,0.6406973459801378,0.6372730570755001,0.9435759526520957,0.8570421381847793,0.6563502737875009
0.564,0.6441400899244096,0.5104830193243454,-0.13355831885452876,-0.5776343731893049,0.3889113650582137,0.18760894057133728,-0.2700229069262422,0.716347960034012,0.7151967599181734,1.14580397382518,1.096602896528728,0.8646558016716921
0.566,0.766663316726298,0.6467977569274606,-0.1196424610227507,-0.7061330882782771,0.44324569742299286,0.26308968833065866,-0.3953087712853265,0.8154649699065128,0.8157355289459951,1.366324791293245,1.3452186415630856,1.075821127495102
0.568,0.8576465969621627,0.7953140985132308,-0.0622718339389588,-0.8252456816568134,0.4591052134260567,0.36557242965420134,-0.5007745535372226,0.9313560201609618,0.930738478062291,1.5834967432802087,1.5850047622336072,1.2819038251046604
0.57,0.8937550944222896,0.9392937164620926,0.04544924549808204,-0.9155476389899392,0.4225859945921856,0.49107060145125014,-0.5985319562087518,1.0236981520843889,1.021620292195284,1.756612498115612,1.786269681294131,1.4629284605003248
0.572,0.882972879324999,1.0354293433782336,0.15238078332341373,-0.9586835247143982,0.3640528560250059,0.5931834058895057,-0.706019785968294,1.0607582538790972,1.0589577230944598,1.864250338849242,1.930489944692975,1.5993456295562147
0.574,0.8542315167427815,1.037967622115694,0.18374832443117275,-0.9454756423963532,0.334753273017048,0.6111028300237624,-0.8172891048766289,1.0417149797502334,1.0415730613064043,1.9052723585859834,2.0104880938365515,1.6777897453100417
0.576,0.8115277660114191,0.939342774302796,0.1278619876288949,-0.8744085328030801,0.3416800260639444,0.5341767015204936,-0.8959317939208048,0.9628765135276646,0.9638687225084638,1.8523527921129028,2.000662040503822,1.6817566829333126
0.578,0.7261998598551834,0.7821386092444268,0.055976458403959824,-0.7529907182553032,0.33479179118649377,0.419141352433677,-0.9100302164484,0.7886284531674357,0.7898211797324093,1.638207152376645,1.847980283921887,1.5882520531466116
0.58,0.5825921704391828,0.6186903197828851,0.03621137947473424,-0.5993639234744853,0.2725281056031187,0.32675036492342646,-0.8673888497077932,0.49062527943516454,0.4919434426959682,1.2237551044371522,1.5161535699824364,1.382583210465269
0.582,0.4030395567800303,0.46465342981021035,0.0619240548711149,-0.43223965502836503,0.16978109241412076,0.26200138742033935,-0.8025890087780366,0.10187909546243874,0.10294371188727271,0.6639342751842646,1.035330724919443,1.075387733832175
0.584,0.222379104320935,0.307693669921862,0.08571686744739773,-0.2632079683259954,0.06789029480432843,0.19526753431419736,-0.7386672984384453,-0.29053380474825613,-0.29096807277278314,0.0905352685624427,0.5083856485259302,0.7138960341387198
0.586,0.06513376498828441,0.1507316417268489,0.08573228900037225,-0.10623586545557398,-0.010352885042656437,0.11706055624499567,-0.6781044846530443,-0.5937490715101241,-0.595813156966597,-0.35412076164553874,0.07240613027853574,0.37959787785902804
0.588,-0.05250649831448162,0.02002993994486938,0.07218731851114148,0.017608989662604033,-0.06251862098369644,0.045376521231654476,-0.6215350172980705,-0.7514439017301987,-0.7533250523800574,-0.5845616324069541,-0.17662313620767398,0.14808153722061987
0.59,-0.12203211396786764,-0.06705340404190793,0.05440664624949694,0.09543029539642905,-0.08881173390809052,-0.006719141272495048,-0.5740673706039525,-0.7678513240629198,-0.7680757411396212,-0.6174236657234295,-0.24940968551781645,0.03250792437658805
0.592,-0.14690210939178552,-0.11826766583683397,0.028311770083756356,0.13304472540259135,-0.08843166318494537,-0.04529129162157206,-0.5339679097338541,-0.6999278814120612,-0.699054254650321,-0.5517498277991748,-0.24110725052961232,-0.01841636781755517
0.594,-0.14210850666939692,-0.14796476503736888,-0.005806267251330786,0.14575483601732292,-0.0691981708463481,-0.07730677335801867,-0.4897801482779383,-0.61301076406968,-0.6124336437594883,-0.48363428707476924,-0.23488099340927124,-0.05805607916751833
0.596,-0.12867721021689135,-0.1594022204318644,-0.030651912572272205,0.14570491709713645,-0.05050465568011486,-0.09551789278383559,-0.43225547423811894,-0.5365521254812335,-0.5367350930424584,-0.4393682613093273,-0.24204895992704203,-0.09361282377988793
0.598,-0.12006919173448018,-0.1489639563932049,-0.029155826260063175,0.13686873629658516,-0.04723688919088804,-0.08943798405381952,-0.36339209526659577,-0.46173645368325433,-0.46224717244164126,-0.3917319678559086,-0.23220103660432334,-0.1047232594024004
0.6,-0.11052234979609807,-0.11707927019257233,-0.007055992706913914,0.11608244663407612,-0.053505628731842524,-0.062204263681237236,-0.2920519429621155,-0.3740385778575437,-0.3747887788339548,-0.31971731377676355,-0.191400862770025,-0.08704127317388362
0.602,-0.0872414569817394,-0.07240145968430936,0.014511835428814146,0.0818285884052757,-0.05273000122989769,-0.028857568698746325,-0.22472015242147858,-0.27871974367802294,-0.28018355906896686,-0.23577895660331286,-0.13783028139609185,-0.0602567869214489
0.604,-0.055367691224720614,-0.030984941976870115,0.024415059090482433,0.04519954818830791,-0.04183057134127367,-0.003260908682648724,-0.16385526400879272,-0.1967564068530844,-0.19884531728498892,-0.16709196800487863,-0.09753142984773445,-0.044302225697654775
0.606,-0.037256751363596394,-0.009272814854866477,0.028172376514701412,0.025434382098030367,-0.03420170756412691,0.008867600737526855,-0.11265477118314206,-0.1445052755116935,-0.14647010954317102,-0.12888425167618434,-0.0810571719535845,-0.043050579951065995
0.608,-0.04542714019311909,-0.011789168399026705,0.03371793240332526,0.030848721831454658,-0.04021499731188391,0.009545362940768411,-0.07545833674903184,-0.1206327864081987,-0.12222909402219191,-0.11622935394779321,-0.08145636547551234,-0.04889956210225001
0.61,-0.06874025227353688,-0.027441396566842715,0.04125941190597236,0.05036053988627073,-0.055241411898067236,0.005088533077554922,-0.05213330834537149,-0.11060070367244025,-0.11200990538294328,-0.11309993680724449,-0.08619544673942298,-0.054448408173616146
0.612,-0.0852159779829157,-0.04117166295300347,0.04410279566582404,0.0652992946796938,-0.06532079419406993,-0.00035763996247357825,-0.036900682193063174,-0.10196332436536054,-0.10299887480668769,-0.1075770894258889,-0.08873362049068456,-0.058389345259113455
0.614,-0.08070527143255594,-0.04720356324435927,0.033827448673975524,0.06544221215093325,-0.058840645476042765,-0.008653884551265256,-0.02550046751623279,-0.09427706189020287,-0.09500510824096565,-0.10036658509175568,-0.09133230722408481,-0.06402435061638374
0.616,-0.05920332710512521,-0.04900659066407364,0.01065813603865146,0.054896800162136924,-0.037445154457373564,-0.021215191412724477,-0.01908481337367097,-0.09321660640428303,-0.0944116133488924,-0.09851735562682482,-0.09809015365301263,-0.0740196069100228
0.618,-0.03936464359701913,-0.04927004339651452,-0.009630415442640703,0.04515653092078715,-0.017835521191051258,-0.030843699735272997,-0.01796014901447609,-0.09839480180587788,-0.10022166535292583,-0.10290767976663663,-0.10660361498975537,-0.08549528873335549
0.62,-0.03720374783357528,-0.046560245068297666,-0.00937209589069217,0.04345589663993626,-0.016355510671003236,-0.028312884367770783,-0.01729570603367786,-0.10260471873026757,-0.10388379109126952,-0.10693701298872794,-0.11061233965568458,-0.09191983235716551
0.622,-0.05206148475423422,-0.04302455606303547,0.008984236986968753,0.0495378220318666,-0.03162969877070172,-0.017034094425134677,-0.013150071325344688,-0.1016187148802794,-0.10116326328296829,-0.10674433972436359,-0.11002619138007727,-0.09188999849390365
0.624,-0.07137846510758966,-0.04587871887879112,0.02560939702667287,0.060411319009973,-0.04866415384509075,-0.010802569962054217,-0.007010450320622053,-0.09814050294999836,-0.09614970591504442,-0.10565779193589092,-0.11085447724035137,-0.09149124549180396
0.626,-0.08474992404682899,-0.05645350662972969,0.028292737192446987,0.07231058960551022,-0.0572942239353242,-0.01540709020744871,-0.0010864017851575948,-0.09596656150804332,-0.0938754921525707,-0.10724878425619644,-0.11535525130191632,-0.09540831196975841
0.628,-0.08991658869308339,-0.0663226928089097,0.02302916740664162,0.08026314878167232,-0.05889302379535374,-0.022790704769631062,0.005138862290586322,-0.09543387865016181,-0.09457586277819846,-0.11005984533869584,-0.11992098979448357,-0.10147313308805316
0.63,-0.08939643902726513,-0.06864011984659325,0.019724957067688093,0.08142084663291063,-0.05780832439964289,-0.024926105876969203,0.011261797146813825,-0.09493977619310823,-0.09522916051204902,-0.11092727584497197,-0.12222214549785987,-0.10629839295767665
0.632,-0.08561244561530248,-0.0664451091812074,0.018335831256421308,0.07794499219029738,-0.054162507790625945,-0.024290513959383146,0.014092074839337968,-0.09376135930885635,-0.09374186094796776,-0.10922924150710529,-0.12387737903237825,-0.11054343012550305
0.634,-0.07938812238013192,-0.06666968954943082,0.012555340982912193,0.07416796931153778,-0.046211240357622654,-0.027804484888161795,0.012075599560352687,-0.09231021131462919,-0.09079072920116417,-0.10620421579860802,-0.12596642790092827,-0.11563814808820617
0.636,-0.07225664930203375,-0.07028426653604107,0.0022857074312394067,0.07212447086208719,-0.036491112728922054,-0.035452297551020605,0.008524298387676228,-0.09022631664456088,-0.08772507497885267,-0.1022850260223674,-0.12629659798562942,-0.11929405103949893
0.638,-0.06764176768989698,-0.07120650852879909,-0.0032004572793856057,0.07052036454017815,-0.03207058717724181,-0.03905632498883287,0.008130009168251658,-0.08643738690336679,-0.08430624930274966,-0.09702842008148622,-0.12238988085469733,-0.11779045428539313
0.64,-0.06815926317983367,-0.06489320991252558,0.003579000808377623,0.06767604713740084,-0.03724436529176743,-0.032662867881508136,0.01190843112275892,-0.08188487142818242,-0.08043252626524032,-0.09129480452339801,-0.11546735145065452,-0.11135954707427233
0.642,-0.07325133321295636,-0.055808376749701814,0.017855467869978603,0.06503954336153897,-0.0480127650038414,-0.021000586836801165,0.01753210791937357,-0.07867675576775271,-0.07742647004163172,-0.08704435717582253,-0.10973218832006075,-0.10439744786503391
0.644,-0.07911773839121151,-0.05285239842187253,0.026800204408662334,0.06565411467086638,-0.05528108742139994,-0.014891494629077559,0.022706858882959004,-0.07672604758433513,-0.07579753828607487,-0.08527486394933284,-0.10831284630684349,-0.10078604225993229
0.646,-0.08015491398926007,-0.05839226920420971,0.022191275777519646,0.06891476787190767,-0.05258162335362086,-0.01985806438233908,0.02576727226787657,-0.07601852214785026,-0.07585913991161752,-0.08698289653925831,-0.11190842904989026,-0.10162167144683024
0.648,-0.07304349657793077,-0.06623539472855379,0.006816316936398167,0.07021618899895964,-0.04069667475166603,-0.031685560830336294,0.025162532176795694,-0.07907775174236213,-0.07947932464279965,-0.09329612996995879,-0.11973111059302115,-0.10616406085149652
0.65,-0.06166463124513541,-0.07055912028513761,-0.009446654282282922,0.06750524043692516,-0.026899958866763284,-0.042193640838983804,0.021116185358616875,-0.08529464008350246,-0.08560942668012897,-0.10108795121192388,-0.12866565742044672,-0.11211601210849219
0.652,-0.05639431284704371,-0.07204912659376031,-0.016534875629679743,0.06549633337496837,-0.02093431377397143,-0.046238389063340365,0.016830938322481243,-0.08790963243550536,-0.08785628379182973,-0.10320663326627391,-0.13319820487846187,-0.11606777561955085
0.654,-0.06488301934794517,-0.0730041023887589,-0.008818048646581728,0.06970487128292549,-0.02902121550202486,-0.04249119793520366,0.016713669913682318,-0.08174337857725218,-0.08154666768467352,-0.09618384609112873,-0.12926633441376026,-0.11532592523414603
0.656,-0.080972540657177,-0.07195091294504788,0.008872821490198841,0.07710992290136884,-0.04580202102540901,-0.0331634150642144,0.022183761267397427,-0.06988744653071682,-0.0698207601409091,-0.08415348887807272,-0.11877424867473127,-0.11046631317843893
0.658,-0.0861720542427831,-0.06773125128144697,0.018760194445863677,0.07782924383391389,-0.053248957259244126,-0.026284662620061322,0.02844971062012424,-0.060834448065052046,-0.060909225689304465,-0.07490603157950854,-0.10938153746089438,-0.10632949358771794
0.66,-0.07034668280497855,-0.06399554144694852,0.006742793298019606,0.06823090854337296,-0.03907903940363217,-0.030212326819641994,0.028782620428994737,-0.060637754266524686,-0.06070985254255833,-0.07388108967005487,-0.10776385915716759,-0.10720462352185095
0.662,-0.046653997266485954,-0.06381798612713524,-0.01707905097726998,0.05638461216276871,-0.015023081445207415,-0.041610553442461444,0.023419317847522804,-0.06714967441913579,-0.06714339405192096,-0.07989822279130661,-0.11295813266015782,-0.11091541495115274
0.664,-0.034451048741180906,-0.06314583943897409,-0.028970116755869284,0.05016099185132869,-0.0029314016304814545,-0.04711227934488963,0.019512311760942643,-0.07251761830775828,-0.07236560742723179,-0.08604639204804831,-0.11846105191240672,-0.11186325027569025
0.666,-0.0369269477782643,-0.0573921376262274,-0.02081475393551568,0.04878872721945108,-0.00835252260966565,-0.040319254017318985,0.021498296679612262,-0.07256914720509285,-0.07189578461299861,-0.087070137394315,-0.12055180419697722,-0.10904908040437035
0.668,-0.04641541301955424,-0.0519964593511069,-0.00579611603173334,0.0506319133165582,-0.020467202743346437,-0.02996378701004523,0.02642807408686772,-0.07061799744113252,-0.06908373050309398,-0.0848647978878653,-0.12185679138286307,-0.10708176210183004
0.67,-0.058005296649881515,-0.055972243609809035,0.0018307613093659462,0.05776641288338862,-0.029684616077169886,-0.0277172561271806,0.029626655242047488,-0.0699931337619217,-0.06831202863927197,-0.08371889524290402,-0.12526975777479063,-0.1092735201224529
0.672,-0.06990987681401711,-0.06782071649920111,0.0017763930668286277,0.06950164511873853,-0.03540209051814908,-0.03379699561272654,0.030654417473179218,-0.06833880216774502,-0.06762602632383673,-0.08298155407737848,-0.12761633478602247,-0.11285633339729928
0.674,-0.08007840005531196,-0.07746182131194336,0.0023483690020335546,0.08006712227396716,-0.041025222422106614,-0.03912059823229835,0.031508414171357656,-0.06312976512540411,-0.06266737467051793,-0.07951252008340927,-0.12397666901191257,-0.11285020790719116
0.676,-0.08623360188354588,-0.07834953077037354,0.007844259757889605,0.0839767326988295,-0.047441960065474964,-0.03733562899752212,0.03249793450778476,-0.0564030516900013,-0.05418048170922551,-0.07410335413076587,-0.1150460193709678,-0.10786579292119419
0.678,-0.08699851764524369,-0.07226475574703292,0.014854956050297229,0.08086264156277163,-0.051912905077493056,-0.030680546130681004,0.032848010581929245,-0.05054839609670485,-0.04692584240329633,-0.0699949834440392,-0.10506731769977502,-0.09980070255640025
0.68,-0.08339684782216353,-0.06577307773400741,0.017688881686519616,0.07552836766125098,-0.05171008229857243,-0.025922636256701583,0.032700426349143906,-0.045765044109041184,-0.04413205287846703,-0.06807852175566531,-0.09627014131785784,-0.09150535910193106
0.682,-0.07927825768722548,-0.06361002215395031,0.015515579675949718,0.0731150244500805,-0.04841647904181983,-0.02604191607806964,0.03295182927430911,-0.042718446747162214,-0.04472143346433899,-0.0670525017352973,-0.0892543154546038,-0.08644905457530115
0.684,-0.07801462584873589,-0.0644943006554168,0.013157272806333038,0.07397433067304161,-0.04677522770740373,-0.027383103399809778,0.03480421738173266,-0.0423850794758651,-0.04479122415689459,-0.06611493071768255,-0.08559164427770172,-0.08720277815492178
0.686,-0.07794711787182655,-0.06442177736450033,0.013217816998437416,0.0741841607840144,-0.04731394983226191,-0.026592313579006727,0.0389325575862887,-0.043860209365875154,-0.04303990040671837,-0.06606504196184827,-0.08719279950276716,-0.09335711454508673
0.688,-0.07529617987453084,-0.06286776510432363,0.012523807947965404,0.07153409713699051,-0.045610743255689264,-0.025884631327245354,0.04405630133685829,-0.0452561548017129,-0.042580462829794476,-0.06812537055839328,-0.09400260969222768,-0.10206251113320364
0.69,-0.07234985044164453,-0.06270599197362171,0.010112225449415906,0.06925877206109074,-0.04193095438190441,-0.02754963069555831,0.04763541484553859,-0.04535105630158251,-0.044640856080055295,-0.0714700554295264,-0.10302624595574368,-0.109465441129693
0.692,-0.07472912459552836,-0.06445777389642028,0.010691408780749083,0.07087233952780676,-0.042401585167931216,-0.02872402976489524,0.0484417605375088,-0.043780208893868355,-0.045563096579099474,-0.07316169509154025,-0.10963312519544648,-0.11163794057585538
0.694,-0.07893376827199464,-0.06424517688693263,0.014844956096223034,0.07278489069054636,-0.046502278133760386,-0.02655355887263489,0.04696319593710443,-0.04163400539052732,-0.04327657493290669,-0.0720332038581143,-0.1110835348817839,-0.10704105596526982
0.696,-0.0723680201183858,-0.058687483889017324,0.013811817838791918,0.06681157055498868,-0.04326355998134002,-0.023874598301055046,0.0434965442957547,-0.04072777170649703,-0.040623783074955226,-0.07022681767981773,-0.10869428852660555,-0.09873766967220683
0.698,-0.05091017728930365,-0.050453701248616936,0.0007642528459519489,0.051770268738460815,-0.02631705745986071,-0.02569360449915525,0.03776230886358506,-0.04121348396420587,-0.04024904733447957,-0.06974119671597137,-0.10545685369695876,-0.09249258711206407
0.7,-0.030379651908839532,-0.048154536063175865,-0.01749272120550317,0.03990009521967485,-0.0066946603280250315,-0.033225217992878864,0.03069911419301372,-0.04225018844408139,-0.041939297578197095,-0.07076456815526448,-0.1032268228587292,-0.09218408524150722
0.702,-0.030483146036445995,-0.057200834165773505,-0.026789081834726888,0.04454027942589703,-0.001964252926988597,-0.04246032515872152,0.025744574888724277,-0.043547011440937165,-0.04452569985787176,-0.07226286572916021,-0.10218509056010634,-0.09618881405803555
0.704,-0.047804572431211945,-0.06973679619558913,-0.022390671155022582,0.060395040405090895,-0.013474530238412682,-0.046846865514615525,0.02666236940942413,-0.044298830855728416,-0.046210645508185245,-0.07151441899942317,-0.10071601825271896,-0.09878394131115717
0.706,-0.059172242672013896,-0.07181739148232265,-0.013170457543559362,0.0680781527782232,-0.024873457722569967,-0.04331716409902556,0.03322300047261527,-0.04367425143854315,-0.045139330602185994,-0.06689471227131619,-0.09753848018621974,-0.09746176152230375
0.708,-0.05389583176343477,-0.061784976675787334,-0.008125467379526723,0.06038685851064003,-0.02525608935044669,-0.035795663973890834,0.04089087082611982,-0.04216945106766686,-0.04171423827690205,-0.061885846827255515,-0.09520838820085314,-0.09698585553325113
0.71,-0.04528262805142279,-0.05116237568038777,-0.0057889797940816135,0.04970532760611173,-0.021697530583177325,-0.029854415541112362,0.04540601238757607,-0.039917193552843955,-0.03833914586953254,-0.061027126157683985,-0.09774593403226677,-0.10265869149398432
0.712,-0.048131609176923516,-0.0475864996555473,0.0007118899911075939,0.04836770931585532,-0.025738466191647994,-0.025628701434619785,0.046519626322886844,-0.03547445592201786,-0.03593409527460716,-0.06251846438046962,-0.10365521368109622,-0.11127041356532738
0.714,-0.06126570788328663,-0.04780897989698983,0.013516533291110541,0.0552528509877681,-0.03833902574079277,-0.019740568842875818,0.04699916874193861,-0.028069764712143497,-0.03237498960610888,-0.0605199979992681,-0.10600423043887192,-0.11323632966615467
0.716,-0.0733389685815057,-0.047119049433516434,0.02628154831862305,0.06190941630676508,-0.05044487232687489,-0.012715540133061786,0.04779193460532374,-0.02030959316710453,-0.02630388909275894,-0.054199971238520064,-0.10133235921296814,-0.10449706330018205
0.718,-0.07444319224600818,-0.04536037652214742,0.029356380158069358,0.06179868839888322,-0.052063156824288956,-0.009483574221125524,0.046036499513796354,-0.01729431227098478,-0.021111051831562002,-0.04899835063290115,-0.09389316238906356,-0.09205543784930892
0.72,-0.06336634901555739,-0.04312744360178522,0.02067342261445516,0.05416586106342437,-0.041749821565298224,-0.0118386949272128,0.04057558071945308,-0.021243339863122948,-0.02141919946132607,-0.04877308602451613,-0.08919811209043949,-0.0852113987315792
0.722,-0.04901874119031315,-0.04000473286328745,0.009304477834540284,0.04457316719484673,-0.02896784400210125,-0.01550664246649266,0.03618257167991977,-0.02762285489189617,-0.026141128093759774,-0.05119449677972534,-0.0879741146813181,-0.08535281942470407
0.724,-0.041171572050478535,-0.03762452897786751,0.0035534910612922384,0.040006340535919935,-0.02309604995491641,-0.01717073274417606,0.037617870826901205,-0.0298966644794142,-0.029670676791943056,-0.05159253133204101,-0.0882440828571358,-0.08790516525146946
0.726,-0.03932809908204044,-0.03951019305563313,-0.00018881416117546852,0.04154786940992789,-0.021671148477568923,-0.020048479624687282,0.04250142569706002,-0.027675996512887775,-0.029704462735362026,-0.04883997040334007,-0.08954004773510972,-0.09054625012918972
0.728,-0.036137110101709745,-0.04588932321789308,-0.009369016250860517,0.044106734314443716,-0.016178300768776428,-0.0279769543663891,0.045134661249705686,-0.025506719942192505,-0.028273443699752154,-0.04587427092770603,-0.09238418297950698,-0.09421237983293
0.73,-0.03004533380313486,-0.051496032593182715,-0.020652692676482676,0.043465211611535416,-0.007021293901415933,-0.03697804026750316,0.04505176095655005,-0.024209909330454915,-0.02558848553380893,-0.044417763639045336,-0.09477018078057697,-0.09757207332462375
0.732,-0.02706121599548876,-0.05154671559467186,-0.023765266820823895,0.04089756016409673,-0.0033280507931958943,-0.039181819727732194,0.04649682017358798,-0.020166364729657302,-0.01973218011792216,-0.042267274892737655,-0.09305314309341019,-0.09640499939778834
0.734,-0.030121782524568628,-0.04726777528151324,-0.017042657031046786,0.039758168302446974,-0.008419541058433018,-0.03348475032523297,0.051212578473866725,-0.012710883227102114,-0.011781449014925564,-0.03735271218607579,-0.08725307423523414,-0.08951476782252221
0.736,-0.03586680612587341,-0.043273890180609176,-0.007916538363715113,0.041169546183000505,-0.016283626315101163,-0.026072096755038125,0.0567271165283151,-0.005068581923872863,-0.004933225407457479,-0.03061072991856812,-0.08108808143706274,-0.08092107611967417
0.738,-0.043300811194740205,-0.04275443112087957,2.7943729850583507e-05,0.04552036797725527,-0.023429830756391632,-0.02173340479831549,0.05992064474413446,0.0006804701655461617,-0.0004596422795014409,-0.02419000631421858,-0.07669381422049827,-0.07478235480896105
0.74,-0.05503296984071285,-0.045633338839664445,0.009485420994358394,0.05307564270615748,-0.03287584321358863,-0.01967779885691847,0.05913797535833394,0.003871347524009126,0.0012659773160890386,-0.02033969960871689,-0.07371190403424992,-0.07142692589734562
0.742,-0.06793461611812719,-0.04911572387685095,0.019515251004919777,0.06067770932877053,-0.04401715369232464,-0.017719167551065566,0.055233937171527143,0.003476408670794707,-0.00033022393713033507,-0.020737942786623536,-0.07208996037429545,-0.06955693098720196
0.744,-0.0711604951116789,-0.049302217683006445,0.02264746061581866,0.06168550999174805,-0.04795950049218455,-0.016216508476985077,0.05181410866231816,0.00044816006206594,-0.0035141012364307933,-0.023883207526382698,-0.07198889645077762,-0.06882983571301139
0.746,-0.05685779873393817,-0.042392984612470964,0.014890642201779393,0.05092524446262745,-0.03779464929471442,-0.015501981558089331,0.05200216298503563,-0.0014712299433415174,-0.004850257555528393,-0.02530591763762103,-0.07229701554129547,-0.06867522988107552
0.748,-0.03132085637406661,-0.028305427287337134,0.003029827441945873,0.03128575411195304,-0.019486102430259257,-0.0134902517064534,0.05468097000244695,-0.00019774973315284087,-0.0030564436611275085,-0.02259658162846837,-0.07180588070931562,-0.06826385758494888
0.75,-0.012967064253743157,-0.01492488072076244,-0.002107919692621038,0.015395035315039406,-0.007874925375568652,-0.009382600621576783,0.05632898717233487,0.003130536449979237,0.0014801426636004626,-0.0174750925591013,-0.07091016338038629,-0.06833704115151772
0.752,-0.017018248133232636,-0.013028309976020027,0.0038907124945252816,0.016259362079230566,-0.012985741440003867,-0.0058688306089245985,0.05663049459752296,0.008380454821246735,0.009617574921139217,-0.011563968573665574,-0.06976224631277844,-0.06894143414161588
0.754,-0.04020939689151212,-0.023620253646337845,0.01651690832734613,0.0331387489869926,-0.030713789996626304,-0.005033928289101371,0.05904066017846496,0.017236149997378113,0.021373136066416106,-0.00407274552626528,-0.06598738207275281,-0.06668299410590392
0.756,-0.06029615968107464,-0.03430654401525564,0.025872515518418494,0.04869066387018839,-0.0446761111278923,-0.005493839412380819,0.06433697858016901,0.02833447163899405,0.03260323271250941,0.004808120730087755,-0.05783230303891734,-0.05933405135372707
0.758,-0.05764006812547113,-0.03270370510988582,0.025001476676950202,0.04629627508361708,-0.04181485381598851,-0.0047394845179960475,0.06706220076203662,0.03615794803703089,0.03817117872345572,0.011957465329922848,-0.04851626069911202,-0.05100273592002307
0.76,-0.03748972113986624,-0.020240675821924084,0.017847464947910705,0.02918031738400246,-0.0275996831942864,-0.00181491340925697,0.06208326301458029,0.03678951189927456,0.03726498737403048,0.01440330486187587,-0.04363416153686312,-0.047695140832308254
0.762,-0.02084265425931926,-0.007734358841498588,0.014122743255253385,0.014203867658872769,-0.01797402506217716,0.002514547349170473,0.052575438790675,0.032387642516424,0.0331958530738323,0.012296479434117219,-0.044844903487353385,-0.049770625517927346
0.764,-0.018235163684914107,-0.0017141995918617597,0.017304209678077647,0.010580233609322046,-0.019348614002277137,0.007026814653283333,0.047230792868862864,0.028665798440663675,0.0298974877437963,0.008601053396570395,-0.048605515230355396,-0.052609392601630126
0.766,-0.023495041838531388,-0.00048317416810007624,0.023062225311842578,0.013667887550983176,-0.025257637232888937,0.010930267557418119,0.050066052896725194,0.02889435443827988,0.029548275747776784,0.006823042262175561,-0.05062817425001712,-0.05306044524370873
0.768,-0.026688250370865637,-0.0007908439981342762,0.02542265271499957,0.01580201039988428,-0.027372896857197918,0.012615860241246555,0.05629172643188388,0.0315000858644562,0.031885197669637176,0.008103355601227675,-0.05008383783363259,-0.052474258207666824
0.77,-0.023156415177949637,-0.002642852209383699,0.020193317909809386,0.014640850554004688,-0.021984305675722716,0.009027895192053517,0.058710528640702,0.03356167178535341,0.035450863966550034,0.01047888558422815,-0.049389571507835746,-0.053909750237028535
0.772,-0.012645912159439677,-0.006085670563049232,0.006760546356597962,0.010870915479562137,-0.009484296838504998,-0.0005785472067501578,0.05562614574030349,0.034824249938702964,0.0391779611516946,0.011931032797353552,-0.050709636804980814,-0.05797107282921088
0.774,0.0014178628226521866,-0.008630183778172573,-0.009631252387621844,0.005217240772028486,0.00541670557732341,-0.011547248010140823,0.05127414549771675,0.0376108540770869,0.04289331087782241,0.01310328205970555,-0.053061531189169,-0.06188791313781581
0.776,0.011438839310882283,-0.008452038606316053,-0.019723713230529273,-7.565263033442097e-05,0.014454641700104921,-0.017162156919969397,0.05057127403740349,0.04490193201294948,0.04831663765666328,0.016780851641949344,-0.052394591974174,-0.06153942863150937
0.778,0.011775536061550587,-0.005280808174789512,-0.017211825703423788,-0.002624242634739523,0.012484805541878502,-0.013770707345521674,0.05524953400048778,0.05810701774158768,0.05835219962316995,0.025936743998144187,-0.044850360732053986,-0.054067568574672834
0.78,0.004152278543496941,0.001107995903566873,-0.003334816328311066,-0.0025271712918791393,0.0019142472780962162,-0.0025767014692784497,0.06351055077513643,0.07353385313651765,0.07169914942397963,0.040251565954015335,-0.03179976538175021,-0.04129949905340659
0.782,-0.006547778054231899,0.00868648219082646,0.014900518247743728,-0.0003115233374404668,-0.01142988173415894,0.010893320300925567,0.07111133746394534,0.08278387086406068,0.08096994407685223,0.05310924934522025,-0.020846960914535514,-0.030753939844511004
0.784,-0.015319103922959916,0.013083351502640684,0.028063191457337253,0.0030722809654943864,-0.021476574202542432,0.019463259246481075,0.07359886940020609,0.08117554803628452,0.08083990192396227,0.05649343328716006,-0.018414293241781697,-0.028918322869515584
0.786,-0.015007186641763547,0.01314051367701046,0.027913708847562085,0.0030838447573433973,-0.02137600707132152,0.019003386429770244,0.06997328736601173,0.07406017647971046,0.07479830369093798,0.050873469370141006,-0.022406837368181533,-0.0333827751270571
0.788,-0.0012133531502483792,0.012813933397425576,0.013875145652920688,-0.004627112830398766,-0.008277530968460454,0.011569740543903419,0.06440393809068408,0.07128130842380487,0.07118317572543115,0.04571723562340133,-0.025383203534994184,-0.0357331882371132
0.79,0.01946440687545714,0.015865861047464864,-0.0039469252108369195,-0.0170977245235476,0.01050414159229018,0.003890332472728603,0.062107787511672376,0.07728756931479326,0.07553606785103491,0.04889154643505711,-0.022912967415038357,-0.031629255989269904
0.792,0.03350180970054947,0.021990959852845365,-0.012201196312566779,-0.0266106791740283,0.02184501805258915,0.0024745484055042465,0.0632605072245732,0.08838220778301059,0.08650554594279852,0.05924530400285449,-0.016088807457118513,-0.02403519743775891
0.794,0.033620681148930305,0.028920181712466422,-0.005407131059114943,-0.029524340203436136,0.018568311232315365,0.009322137739053655,0.06357339624695617,0.09796884162781885,0.09770167005982074,0.07018234289953512,-0.007841819532105448,-0.01742998861261524
0.796,0.024837268013355427,0.03580365248014825,0.010690456554392633,-0.028847021788431494,0.0054895421987494405,0.02133557956297507,0.06124357986845202,0.10398632806463662,0.10544167220652627,0.07796545293989354,0.0009779429043911018,-0.012461771990595501
0.798,0.01879868641027038,0.043916956849297195,0.025260958859786457,-0.03021925656890454,-0.00551664142323856,0.03341873708703442,0.06015871035331168,0.11063926796152887,0.11278926076061979,0.08513256252571816,0.012083047097193635,-0.006282100443840027
0.8,0.02264387630136149,0.053578923619085096,0.03101252213593213,-0.03649846840992217,-0.006356539193409468,0.04160730177344414,0.06395828889972509,0.12089331886553203,0.12222863102327436,0.09496538195172986,0.02588681284930465,0.002514657054282817
0.802,0.03213622148925894,0.06108334469270147,0.028541518984747532,-0.044381092826826916,0.0003992494690261133,0.04429590374044013,0.06972347826094819,0.13029003000407788,0.12964402907868766,0.10495730133257442,0.03826166218693376,0.010274467323674362
0.804,0.03893432041677295,0.06263474363985708,0.022974070698557215,-0.0487555826071761,0.007100824516045581,0.042468456085735684,0.07174467351872138,0.13297654098792255,0.13137640569311587,0.11010610661392735,0.044473936569575656,0.012689431610730804
0.806,0.04303187974731349,0.05993930791205689,0.01650993679813411,-0.05006859035607458,0.0120451399601675,0.03814047382789414,0.0695744327464703,0.13050852580841701,0.13106095626369996,0.11027187643609482,0.04502356000903788,0.011267042261078051
0.808,0.04965434807129331,0.05804033743332325,0.008735432517355035,-0.05242702339598055,0.018257564196419676,0.03339719147188277,0.06835750465785047,0.1302199700729118,0.1346912283656336,0.11024373534801042,0.04472993380498608,0.011336721862576032
0.81,0.05687536964145465,0.06031365429966283,0.004242181309808261,-0.056550713339382594,0.02325740992022236,0.03224502477928908,0.07186809855284026,0.13727471357837728,0.14379224767872864,0.11499299075764581,0.04815690903272761,0.0157025338035827
0.812,0.05704939603540377,0.06665229090601842,0.010218627587027934,-0.05939226409887592,0.020303761805907754,0.038458821011610266,0.07704981907518794,0.14983279156706386,0.15469774486383878,0.12544728035010744,0.056636507374605495,0.022825855039669486
0.814,0.04984532933439045,0.0740191460530314,0.02427835263232452,-0.059539262811181604,0.010479355037903797,0.049158117988811256,0.07699478603031419,0.1612337550910198,0.1625349658031793,0.13705354803048536,0.06714434474737281,0.029315579923836845
0.816,0.04498452273193289,0.08017901558449238,0.03498707160459465,-0.060237259166145404,0.0038753629054385794,0.057061191663228,0.07028997345951474,0.16786019662534812,0.16719973969743773,0.14552370204211523,0.075210316948655,0.03394636045708124
0.818,0.050169872262664554,0.08750194955246245,0.037178361760795274,-0.06627458534644133,0.006208309536167673,0.060963010420605215,0.06379940657878552,0.17327468685297942,0.17365917438976888,0.15353709449011863,0.08070929339071127,0.03978810527247216
0.82,0.06233758425533088,0.0995519977075174,0.037245946327819184,-0.07835161400008389,0.01229513148611587,0.06657458025580135,0.06359521994919054,0.18226553773598192,0.18431018620575035,0.16575245152066542,0.08779076897619435,0.05003918258324189
0.822,0.07302849272114673,0.11437290729763527,0.041440356619852146,-0.09174380693423712,0.015076537441830531,0.07616173421784769,0.06751799198693403,0.19397737897669423,0.19538226490814156,0.1799830319623573,0.09847758945319889,0.06283886663504433
0.824,0.0778175701388797,0.12627016013208706,0.04848126202148675,-0.10116113168907828,0.013633692680939205,0.08580731939949046,0.06981908506308805,0.20425679170871117,0.20333801562520323,0.19106368866777673,0.11058794617673626,0.07428177076750365
0.826,0.07683118613305596,0.1332625020279164,0.05639306832322472,-0.10480169127740319,0.009129892461793644,0.0934806182253462,0.06993031001402204,0.21215705571197915,0.2101846059785835,0.1999237094694046,0.12211733705170202,0.08424369361979434
0.828,0.07017036224850629,0.13720373713800568,0.06697765788092298,-0.10309546566951741,0.00024682342445274234,0.10102496278052057,0.07222601389754496,0.22020884566170262,0.21937021912516327,0.21075940265997392,0.13285415674351475,0.09433448393468037
0.83,0.06161509882942607,0.1392053345195976,0.0774636530951033,-0.09894799020000263,-0.00987630545162339,0.10724233410988472,0.07660749394546423,0.22881426781160535,0.22942069901577455,0.22200699555044567,0.1409320274655508,0.10253808073600647
0.832,0.06370568630693572,0.14075018585264545,0.07673775443609097,-0.10017088158556367,-0.008799329451001068,0.10725389943687555,0.07564627515594143,0.2343458641616693,0.23511598176245455,0.2278287544162305,0.14339713587223904,0.10524859880651147
0.834,0.0861893608266052,0.14624865665739,0.05964397636400842,-0.11413237838591374,0.011349110204788923,0.1011431276214067,0.06639636040005524,0.23549755154352733,0.23555070280901105,0.22835131212485338,0.1427176045442435,0.10403513763598188
0.836,0.11930825675622465,0.15880330981317922,0.03923171061942386,-0.13728344660814748,0.038609216574940666,0.0973091497235593,0.05790196562694595,0.23837139523893164,0.23806685340167624,0.2323173427536023,0.14727731831457064,0.105979873584442
0.838,0.14035142418448607,0.174136058109685,0.033780666172032146,-0.1557278036700896,0.051852552080870945,0.10272013648748984,0.05871689227695218,0.24922906799566666,0.24953670721024543,0.24671010672921018,0.16160250295825312,0.11568923019726955
0.84,0.14078902635064403,0.1835560861774273,0.04278211985274008,-0.16062613112605686,0.047331122808397665,0.1124770305670623,0.06395770634893563,0.2646248611359303,0.26593420706271265,0.26737341164029316,0.18004604831975643,0.12928831138245894
0.842,0.13567647064102561,0.18457619108781587,0.048639996659075584,-0.1583852791823935,0.0419035418928324,0.11601940333957139,0.06360632365485562,0.2764086887012062,0.27761342435075514,0.28409855692953434,0.19389997370844933,0.1391513968189229
0.844,0.1388637008413347,0.18461789207561222,0.04528727966119752,-0.15995630406216735,0.04546601598674854,0.1137284870373563,0.057885194063040324,0.2839135851774561,0.2833206584814589,0.29315023356773107,0.20215669108356224,0.14386472761453875
0.846,0.14354041286581384,0.19166570214346307,0.04781175670352448,-0.1660931045844355,0.046654759503420073,0.11753083153829921,0.055964543720904356,0.2934918774978028,0.2911934441191413,0.300305147377457,0.2110295182410281,0.14946289164048057
0.848,0.1375314772708554,0.20379343651056425,0.06628372477388755,-0.16951706910913436,0.03422346011769346,0.13227815105074228,0.06213761222184558,0.3078869705271938,0.3060842656572523,0.3117526119919781,0.22429993416619434,0.16056375873970566
0.85,0.12392456138991628,0.21171872049505402,0.08796958589708438,-0.16672873749770956,0.016295490309947876,0.14742205429570218,0.07006247552110133,0.3224043100368876,0.3229569233280871,0.3264694768608922,0.23967553653962784,0.17548418827200513
0.852,0.11666712890222848,0.21143422172054152,0.0948246522076512,-0.1625986143218321,0.009071537524394171,0.15174218996386504,0.07139833985962234,0.33170050563495584,0.33428902017909223,0.33953540783741515,0.25391466877190166,0.19053721775935853
0.854,0.12358174731188758,0.20940082750833616,0.08563326122560423,-0.16473310175492653,0.0172602551483066,0.14722429273491383,0.06590751830513758,0.33654756008868275,0.33920924514593603,0.349705242839974,0.26516918168182607,0.2033346136427883
0.856,0.14049524163650334,0.2147330437896337,0.07384108592469352,-0.17627087688113027,0.03222970527530259,0.1445970480302787,0.0602119934279244,0.3422009315106707,0.34323923726778155,0.36024950104492043,0.2718933961713842,0.2118899299414372
0.858,0.1584797939024124,0.22988875685745797,0.07096067478337613,-0.19385723109783648,0.04352977101239778,0.15070646194149864,0.05890602695632972,0.35166321065629924,0.35101255347702504,0.3733811439151202,0.27577860319048747,0.21628581107523345
0.86,0.17215918518048198,0.24795981000307138,0.07544964582064967,-0.21030678492822083,0.048567915618020194,0.16139810154085935,0.060436664875319776,0.362627001637713,0.36117308343933596,0.3866800731676308,0.2822278377545362,0.22033197669564528
0.862,0.1815744559231171,0.2583353786684964,0.07645641471907141,-0.2198151756626614,0.05236556680089796,0.1660894588563418,0.0605445985357264,0.3706602539672998,0.3690084596704814,0.3957903972323981,0.29277824532218405,0.22691690132285308
0.864,0.1881609625626723,0.2576919558648739,0.06911246866450925,-0.2222768659290938,0.058470803890113145,0.16123409372725225,0.05716473500689392,0.3740520446022868,0.3729550689388558,0.3998906101059422,0.30246867529190324,0.23452484531956713
0.866,0.19257819207677498,0.25450485871120804,0.061391496350606985,-0.2231543187227117,0.06395073828484635,0.15574214431073063,0.052185853986176985,0.375231988465678,0.37583049363621995,0.40278289250539906,0.3079367707996029,0.2415841595478893
0.868,0.19742128259862593,0.25986595758762304,0.06199992051351898,-0.22893020631325958,0.06584327698699945,0.15937204584571793,0.04880482227976942,0.3775841417611285,0.37985524694825995,0.40830480623145493,0.31178828535894254,0.24950559569658504
0.87,0.20513836956759582,0.27462287004295527,0.06932594707187158,-0.24031839612429082,0.0659005702412958,0.17093449970505367,0.047705118716002214,0.38214576508870984,0.384750787457978,0.41702544516023,0.3175092774355814,0.25883211959987457
0.872,0.2127043606950864,0.288932756278153,0.07629774194724044,-0.25058470151998535,0.06638510340830608,0.18156319731099937,0.04716080035477535,0.3884682537089485,0.39091307880448756,0.4275867561262212,0.3256836354808248,0.2671997618094934
0.874,0.2162045571001221,0.29445867907993256,0.07825010344334223,-0.2540534291629489,0.06796286508054804,0.18492804941542362,0.04580755290794349,0.39644664079773273,0.39931121989712115,0.4382695676673455,0.3349480640203041,0.2727822621281466
0.876,0.2174109321799645,0.29213438983565587,0.07441472354410039,-0.25288660613713415,0.07133244651586623,0.1815655361945927,0.043582761971443555,0.4050402317245071,0.4078880980502102,0.44678340721728466,0.34311554065117644,0.2764466562136557
0.878,0.21959252009508481,0.2878629703752227,0.06779017234024157,-0.2522214251849352,0.07573158653732913,0.17630176032247233,0.04071747468303015,0.4110788092961616,0.4124339745843062,0.45175956151539876,0.34898486098260634,0.2802848080000071
0.88,0.22390789946150158,0.28671594825576735,0.0625366735794236,-0.25465304211553635,0.07973248558289417,0.1734099312728842,0.03695337745252621,0.4120782422990432,0.4117238388268449,0.4548017600092288,0.35382750297636717,0.2855595093978862
0.882,0.23198968888100396,0.2916853128890181,0.059865654343825465,-0.26125421555280615,0.08460326965558769,0.17435259749409726,0.03279655785724026,0.4102133905206958,0.4099023430781529,0.45868442258785264,0.3597083277094921,0.2920550521275892
0.884,0.24266357409346107,0.3020953483057081,0.05993170044677407,-0.27078717656064455,0.09014007850295411,0.17913032581087268,0.03116235930666289,0.4110861216637327,0.41257071595172573,0.4644833634004743,0.36760418886584684,0.29917395389572443
0.886,0.2492498435775279,0.3115555849348172,0.06279720808763277,-0.2779332129982346,0.09214438438599803,0.18531176674362174,0.03408490349237361,0.4163162429699964,0.41958163968510676,0.47075421585542987,0.376123478554454,0.306122553616274
0.888,0.2504034343522366,0.3129579278430756,0.06275204316846393,-0.27971849150967215,0.09218847966224743,0.186388809545329,0.038104053723759114,0.4205143105449098,0.4244144648107136,0.47469767114402467,0.38104160655570624,0.3111841621088629
0.89,0.2547846210790691,0.3077936725428506,0.05294015875786234,-0.28087380902682474,0.09872410984354556,0.1791896672761363,0.038128829103752315,0.41998153123192783,0.423552275570693,0.4764915271175903,0.3807884325770322,0.3141251345724365
0.892,0.2648024260764071,0.30444179871745014,0.039646967834865,-0.2851206770342631,0.11062208357088729,0.17124762946207123,0.03473529493143751,0.4194429782155184,0.421901702409313,0.48095763069466024,0.3819591816530899,0.3183164265745153
0.894,0.26936278937826813,0.306039016567421,0.037107218560995414,-0.28741497918529746,0.11482810981881303,0.17155411974161247,0.03268666767770389,0.4247817213568863,0.4255457638803724,0.490755845939297,0.3921899181002286,0.3267691823322235
0.896,0.2613291811523437,0.30716502630441594,0.046626926159307,-0.2823797992950055,0.10630829976925198,0.1775048683619902,0.03389769490313765,0.43434090679295173,0.43379181256945004,0.5011033113936729,0.40878722957134034,0.3375698287712701
0.898,0.24679610240073674,0.3033811634228538,0.05717702658622809,-0.27254816120001096,0.09376111903941502,0.1804846786960104,0.03636589683108725,0.44175006242322346,0.4410618997249881,0.5058505149253338,0.4217689846966532,0.3462660972667096
0.9,0.23191447028547318,0.29751323323729195,0.06548878542830909,-0.26270673489995916,0.08252386251587876,0.18019129433660402,0.03895970686090958,0.4434813411314461,0.44350980094132814,0.5056253904365168,0.42625356072626025,0.3509889645949111
0.902,0.2162783035721426,0.2949559321247198,0.07805313729561117,-0.254288586010471,0.06896583561840183,0.1835638380373063,0.04262134571058258,0.4409558271739236,0.4419331404587309,0.5054945861829335,0.4253807563997481,0.3527577983492328
0.904,0.20268556196463533,0.2976126993318358,0.09445483845624816,-0.24896445063676798,0.054008858353606706,0.19249253253222295,0.047022235927926814,0.43745670350482596,0.4394024075753811,0.5069276408396952,0.4236805941018939,0.3528358686907317
0.906,0.1986495395743946,0.3030810654064789,0.10445299321495523,-0.24939169941554276,0.046601877570254344,0.2007875847203228,0.0498504379600146,0.4337885749284669,0.4365904497360839,0.5057749404350622,0.42221292816315287,0.3513800428330172
0.908,0.20478557282868506,0.30690768128370005,0.1023808256304855,-0.2539131885451852,0.05050694014937835,0.20262217000639526,0.04972488993673676,0.4273413322916045,0.4308776043866239,0.4980060261554723,0.41857368019930197,0.34769059320501156
0.91,0.21230956975476103,0.3070581552187013,0.09484636674104979,-0.2575100064234278,0.05806936970252478,0.1997522467013719,0.048279126118456826,0.41791463941653734,0.42216597853301485,0.48622535094666214,0.41130046998218683,0.3424198599440208
0.912,0.21264555659513504,0.3046980419904105,0.09184094476359132,-0.256764405953806,0.05959822152987442,0.19773914964389397,0.04860884378838343,0.41035984858278557,0.41472469543579654,0.477211191254711,0.40323136512219293,0.33785486002545684
0.914,0.20436649623292114,0.29865081939509097,0.09385351733655865,-0.24999790427425775,0.0541265284499304,0.1960243715816423,0.05101563136955095,0.40604632531069357,0.4090388351923152,0.47145971855540314,0.39640655879199926,0.33332176944858477
0.916,0.1948798642893934,0.28669905938797424,0.09139058398232469,-0.23935403903405403,0.050418410433088326,0.18838430457717564,0.05189504752146604,0.3988368766575583,0.3994739437170668,0.4617871755306478,0.3875487973376567,0.32452779960134764
0.918,0.19565610475793163,0.2727739845888095,0.07691571455353224,-0.23282244175460245,0.05809622340409338,0.1733343028629866,0.04840074093285959,0.3844685971142891,0.38354538259200666,0.4445175342783314,0.37359553480017316,0.31006282303592236
0.92,0.20968248800319841,0.2627183824667374,0.05309033131522014,-0.23507309543187388,0.07731951939179911,0.15593063790329964,0.04179698973153533,0.3657584532393164,0.3649472270299681,0.42363300441613955,0.35590100609344555,0.2931102370859129
0.922,0.22516180109806128,0.2550495042156582,0.030018130265472183,-0.2389666007989572,0.09708144660733732,0.1406943706591697,0.035478066258404814,0.3467698623815164,0.3468322522205777,0.4029834295753055,0.33661894598962994,0.27646851549164825
0.924,0.22647982631503866,0.2443026461662712,0.01786300551046527,-0.23370974006986867,0.10408963904286239,0.1296375958288182,0.03250706185175471,0.32899870703004647,0.3294563907806542,0.3827455757021869,0.31698533883746843,0.2616284639504149
0.926,0.21137008701892165,0.23006591526303105,0.018647085634290322,-0.21864491071580072,0.09586827491403963,0.12339773434017186,0.03423846751377736,0.31252991120462426,0.31282619947427104,0.3630755946990828,0.2985489588769002,0.25016394311066525
0.928,0.19107212018692196,0.21660371475011217,0.025486495345499776,-0.2020053457031513,0.08192000739403552,0.12040718499333194,0.03928512058967955,0.29724303559664933,0.2978513346190181,0.3450462916960333,0.281928228569464,0.24119599368923264
0.93,0.17192036633329533,0.2062214520159483,0.03432769622437527,-0.1875526648585915,0.06804656178689836,0.11933696895196928,0.04534271742481759,0.2841697143996318,0.28648423115200194,0.32909426784063783,0.26656534757155936,0.23133216386420113
0.932,0.15033279741285027,0.1975791539049874,0.04742630394627103,-0.17236724138997822,0.05117329554392386,0.12093847185006092,0.051054511187086975,0.27455348040992594,0.2794871833475776,0.3148206475199887,0.25251769924471484,0.21893260103562082
0.934,0.12927900564014386,0.18933557737907816,0.06052550482812341,-0.15778049607876343,0.03433779802384144,0.12341118515951101,0.05415264453077369,0.2663160565707537,0.2728603424241118,0.3004680257858978,0.239171286141092,0.20466094672208984
0.936,0.12009742998423267,0.18157896155321634,0.06222187942966644,-0.14981658666773118,0.02863374975476382,0.12130645160323872,0.052015700263396615,0.25494416296432976,0.260598919797665,0.28377907402344316,0.22390907613804098,0.18909014104269375
