time,I,II,III,aVR,aVL,aVF,V1,V2,V3,V4,V5,V6
0.0,-0.0017112904137002052,0.0008556452068501026,0.002566935620550308,0.00043879241376928345,-0.002150082827469489,0.0017112904137002052,-0.014019417619928606,-0.01829764365417912,-0.01820988517142526,-0.013054074309636182,-0.0037516751377273737,-0.0014918942068155637
0.002,-0.011734523911672012,0.0044850658524627635,0.016219589764134776,0.0037013567226722955,-0.014053684530971066,0.01035232780829877,-0.098149587947368,-0.1279246901403173,-0.12816731380262605,-0.09226199616426306,-0.027479169029074355,-0.011496407670937982
0.004,-0.03521410582962321,0.008741789933069791,0.043955895762693015,0.013509404602350337,-0.03981436820885481,0.026304963606504476,-0.3082666721145757,-0.3999374745492406,-0.40407949530694537,-0.2922383113394024,-0.0905575917793233,-0.04008567815075533
0.006,-0.05916588808253234,0.005453896838947292,0.06461978492147966,0.02753751853222556,-0.062267848640168336,0.03473033010794278,-0.5789808983327727,-0.7424024945001556,-0.7581487007920491,-0.5513477479017904,-0.17844241467928199,-0.08431948607805931
0.008,-0.05632090243763368,-0.007842156655800219,0.04847874578183347,0.03334904195172158,-0.05280471591567258,0.019345975860508683,-0.7399270532248095,-0.9231886116049027,-0.9555942367864132,-0.7000988929082982,-0.2374797569401427,-0.12164278706807383
0.01,-0.019915019198797936,-0.022984518478600904,-0.003069499279802991,0.023119439069343724,-0.008942610671798034,-0.014855346845468543,-0.717941790526232,-0.8448879976307513,-0.8881987882882879,-0.6582426588319532,-0.23438454030002398,-0.13336540965154964
0.012,0.018956807979506024,-0.03462301209637132,-0.05357982007587738,0.009201710447768786,0.03524031513647153,-0.04632013475286207,-0.6192231301284946,-0.6614646530392413,-0.7024289529507152,-0.5297383722549193,-0.19642210186957718,-0.12663023869206763
0.014,0.025257764490434216,-0.042276824299797816,-0.06751264916954358,0.008901381436568469,0.04466424051298819,-0.056684585539316976,-0.5701841136814815,-0.562385026337489,-0.5918779768919636,-0.45336632760917633,-0.16935305348056137,-0.11985076930944759
0.016,0.0035144059094414956,-0.036662670789238606,-0.04002382131254475,0.016117338497386658,0.01982844451422955,-0.039414502650019154,-0.5744152145573724,-0.5652796017739486,-0.5838368680727646,-0.4469670795151693,-0.16059596145931185,-0.11643963951088632
0.018,-0.007974591888412982,-0.004788467042600772,0.00364485967120561,0.005984063698568798,-0.007113907622833569,-0.0014377745882534312,-0.5589113417610242,-0.5662751804901512,-0.5796773709822368,-0.4377539568525613,-0.1461535194333245,-0.10752968102621256
0.02,0.013369412053877504,0.04718009194478031,0.034560704167227514,-0.029830502027840558,-0.010777621721147474,0.03966247166929589,-0.488994709652251,-0.5021371014172549,-0.515547384914388,-0.38270715068202443,-0.11585840478814838,-0.09362032951096938
0.022,0.04539414984990254,0.09055024337186707,0.045856179030400256,-0.06684741257325287,0.000278727113976607,0.06679368914291585,-0.39536675567522106,-0.40387265209938195,-0.4203221560874934,-0.3107683254007409,-0.08753307819465216,-0.08784221121612468
0.024,0.050482549284251665,0.09840355844167568,0.04828219213410229,-0.07349280566042675,0.001208850268573166,0.07212684068480975,-0.32004579822262663,-0.32980031549471406,-0.35030587226129944,-0.26788833628124237,-0.08041938898529438,-0.09828115185720461
0.026,0.020072852265752877,0.07093833017530186,0.051021426902679086,-0.04519070481118137,-0.016556757457086627,0.05971875753173749,-0.27135527463899617,-0.2966508202083334,-0.3196334588308279,-0.2593197688227638,-0.0905774211028793,-0.11637582072724642
0.028,-0.021451699686567377,0.03628957023258622,0.05793292319794781,-0.007203599803003195,-0.041605648640352294,0.04515188821674548,-0.2301549130837055,-0.2779403087792169,-0.29976106652157336,-0.2531078439524076,-0.09639671939094824,-0.12498567493343746
0.03,-0.04321101613599934,0.021661206754683943,0.06495742238586098,0.011816086009740956,-0.05557926319172828,0.04063463893455169,-0.18320455387588877,-0.246976320239715,-0.2643850012768585,-0.22479433104437452,-0.08475010076812667,-0.1174046544564109
0.032,-0.03076913684018259,0.025299228403331105,0.05568650520066587,0.004797495304210194,-0.04348157791258711,0.037960576735849426,-0.13751183381671045,-0.2037991533543927,-0.21668945535197365,-0.182310257164047,-0.06430283155141658,-0.10435381343594144
0.034,0.002821865229648843,0.025534732538633625,0.021875625886868515,-0.011839555216587043,-0.008927670868176163,0.022043403929378425,-0.1036463178999596,-0.16195465588192168,-0.1739890664719426,-0.14625882308728513,-0.049428228849181216,-0.09842303462556307
0.036,0.02625195179945076,0.010153878076623948,-0.01686687998750051,-0.01621981216099967,0.022041774166266043,-0.00446554525051395,-0.08129489505145436,-0.12925968609184985,-0.14475142566097304,-0.1242346830604912,-0.04241216410291756,-0.10031213184747535
0.038,0.020838775078440765,-0.015160562374953895,-0.03624993856144519,-0.0010530537511226458,0.028296213380200098,-0.027012700438040795,-0.0655528020029402,-0.10793345498698106,-0.12747200990413374,-0.11223908578762254,-0.03828916149542061,-0.10481196983942227
0.04,-0.0008110643496356279,-0.0396663761360841,-0.03876523668027355,0.022069733201125617,0.018012076073836553,-0.040637428525498474,-0.05388486906113379,-0.0976321388135926,-0.11782535266036512,-0.10626551535948725,-0.03594033393264327,-0.109573561636048
0.042,-0.01314640698656291,-0.05531168190624603,-0.04223819396476408,0.03586540607197401,0.013361222917670966,-0.049734178831693614,-0.04256979731226268,-0.09192949617161163,-0.10965829612876953,-0.10313230334030532,-0.03637560506879579,-0.11301207631117498
0.044,-0.005704480758892818,-0.05471098263339784,-0.04929655673929856,0.031564057816589344,0.020986990754631823,-0.05277682784265372,-0.025750670373209057,-0.0808448016236696,-0.0961288660373171,-0.09679788445754946,-0.03547858170655818,-0.11035070952402015
0.046,0.012416830813185627,-0.036122487561897315,-0.048590407056640264,0.013388425349073635,0.03015831082519353,-0.0436973895538738,-0.003168331114313888,-0.06110286584237712,-0.07567156182716023,-0.08273174435854984,-0.0269510674703158,-0.09871985463562369
0.048,0.02413704790479516,-0.014077197362227597,-0.0378256664066938,-0.003127398071808889,0.030615048451369475,-0.027547952624801152,0.015828062703052447,-0.04052835642353777,-0.055223220262361934,-0.06604407031358855,-0.013442603127085099,-0.08543580090854401
0.05,0.01587544086838516,-0.011724403977715047,-0.02716046158192432,-0.0004669905611923564,0.020851776282815784,-0.02013710110352642,0.021962558274335364,-0.02990269870997826,-0.04357058832942094,-0.05740352172800903,-0.006238363712263138,-0.08284309588774523
0.052,-0.00828429548817846,-0.035256982827841885,-0.026884545721578897,0.0224025245736505,0.008625512312489663,-0.03054468969675391,0.017148198373439796,-0.03237375229294131,-0.04268052869606416,-0.05982688270291821,-0.010882121227348945,-0.0939146816483998
0.054,-0.02462760762193013,-0.0648087709731474,-0.040391605740504544,0.044737909503123445,0.0073259647472338945,-0.05181598197178489,0.010768769624054719,-0.04190972805497663,-0.047811603433129415,-0.06635430817716119,-0.020627638151988512,-0.11017085577710298
0.056,-0.02090145348314087,-0.07694927807775699,-0.05630278668143569,0.049414893310732545,0.016777447062772333,-0.06673494486567808,0.009793863704882062,-0.04808743593015461,-0.05140642688775181,-0.06856485974792512,-0.025097906384372363,-0.12092816208973194
0.058,-0.016969638532471572,-0.06943529792048192,-0.052653991187207344,0.04468479350379316,0.01624115403832904,-0.062421052432367174,0.016140420056559832,-0.04271126978367043,-0.04637258860075446,-0.06260667952478466,-0.020260791623902666,-0.1198713770814281
0.06,-0.028826881312699473,-0.05788663246611,-0.029192877633298173,0.04544792732084545,-0.0015642552728545125,-0.045639232939873646,0.026090118600979793,-0.027908410853922802,-0.03317033721662885,-0.052306587224859966,-0.011435083744468342,-0.10962314597102081
0.062,-0.036067382725799534,-0.0534111952781259,-0.017475396645629308,0.04698731292933522,-0.010408149794115654,-0.03739186065728128,0.03161502387024311,-0.015415308913846213,-0.021835604005272468,-0.04726011390657384,-0.007926189168324164,-0.10129498658195965
0.064,-0.01730662990374434,-0.05215976228778836,-0.035031569084427706,0.0370866976958615,0.008616901016707746,-0.0450679159070054,0.03071354358636061,-0.01201269764123602,-0.019372664327721167,-0.05085346326144135,-0.011597508400144094,-0.10175795437876425
0.066,0.007334510688640389,-0.047868028192483314,-0.055371342838209346,0.022624809609185094,0.03156588131610635,-0.052852281755654165,0.03272832071254176,-0.010969677252795457,-0.019775688893095278,-0.053932046334936076,-0.013945411832728637,-0.10476074258235475
0.068,0.003505994598689458,-0.04408669130797531,-0.04766728229024522,0.022225170239423792,0.025409150391125835,-0.0468508916230873,0.04502851450065014,-0.003080869779157542,-0.013108869356112397,-0.047350651442276535,-0.008634443398023448,-0.10186541260085319
0.07,-0.02351768555942238,-0.0452141022687261,-0.021771039159518345,0.03559131610784608,-0.0022667102931613306,-0.03395676609214837,0.06072015219507164,0.009999851074837885,0.0009329403754853115,-0.03417226069053691,-0.00041064168025880935,-0.09541012618460586
0.072,-0.032898172961088566,-0.046024628205311356,-0.01339359810251856,0.040293065369106096,-0.012391105783906578,-0.02992554190092233,0.06654798328985896,0.017784910508928505,0.013327647496523402,-0.024292795713736503,0.002280303393736655,-0.09422237889314304
0.074,-0.00399066910449066,-0.042182381264935745,-0.03863566529537944,0.02421180166526291,0.014284019770995316,-0.040897758566149155,0.05801679850853804,0.0130545920220328,0.01626934045024929,-0.02334087894731547,-0.00288967078025193,-0.102059849249652
0.076,0.03279765371628621,-0.04117917099314472,-0.07439594202921136,0.005871514399572408,0.05098909343755526,-0.05856016881751956,0.04360718847157363,0.0001741185779801197,0.011228293547128619,-0.028817693445402144,-0.01100571423283645,-0.11373704386305906
0.078,0.03217944329718137,-0.050001383337712896,-0.08249854316657855,0.010500836517529187,0.05544684113036644,-0.06695124319176037,0.036783293364518306,-0.008045267492825758,0.007335632778809414,-0.032846633047817465,-0.014221378154252028,-0.119723259437533
0.08,-0.005337240920792809,-0.05942560484731994,-0.054355325219387914,0.03305120841299482,0.02343223366315702,-0.05729522626153073,0.04376966651654901,-0.0026137884671488653,0.01185845418364516,-0.029607644284241796,-0.009057255327275087,-0.11477024836532941
0.082,-0.030894808037452363,-0.05534195743986785,-0.024626069330266252,0.0429721237188871,-0.003348346907260936,-0.04010008307158477,0.05746273422057582,0.011754707695768933,0.02191985759684036,-0.022518887249194472,-0.0017225339941492294,-0.10406715130827192
0.084,-0.014615081366922529,-0.04272119794145735,-0.028125532085818947,0.028684820961174674,0.0069092238306563795,-0.03547672491699032,0.06466593601483189,0.021568309160383922,0.02750590956137694,-0.02050308947791058,-0.0014587133087743695,-0.09857003062846775
0.086,0.011030737240583278,-0.042944997169711854,-0.05391510796177248,0.0169738892193962,0.03209336676564764,-0.04881872629209961,0.0606269653316595,0.020858201781823047,0.024435537050294342,-0.02525262016130558,-0.007835604134524925,-0.10266500344547806
0.088,-0.0022019767114799275,-0.0652383500909619,-0.06311045597944592,0.0357116209505128,0.02929878182777816,-0.06529201344318315,0.05358667408388722,0.0175188696791662,0.020495658032274388,-0.028026413151668057,-0.011494114295176437,-0.10978661899759544
0.09,-0.047369725977024615,-0.09039334370427876,-0.04336566922169588,0.07107955501785254,-0.0032921134385634635,-0.06887600697615785,0.05380937506812845,0.02092722381462843,0.025543018610334096,-0.021148534212265632,-0.007021010224670929,-0.1108167778968473
0.092,-0.06751321772914626,-0.08896663193512698,-0.02191413063101701,0.07989777182634993,-0.023736907384242924,-0.05800051523198391,0.06199088726936114,0.029405681865789197,0.038912052020544395,-0.007177393796101439,0.0019394648062782546,-0.10356844389221122
0.094,-0.031716088798065714,-0.056239857749783836,-0.024789896411672747,0.04505995887035252,-0.004125216975983184,-0.04289744718708873,0.06962008454185525,0.03388828871989433,0.05000069592916314,0.004854618760842218,0.009001622530440968,-0.09423503015567314
0.096,0.022422338637366684,-0.02044935676635296,-0.04280848478937332,8.073043673172825e-05,0.03212862215850113,-0.033264734001653216,0.06887401912735747,0.030609507680395956,0.051423462051586336,0.009285444857416454,0.011161940862678679,-0.09089418834153498
0.098,0.040583566242108425,-0.008824705062633022,-0.04911793362351277,-0.014420818901412143,0.04450990415257512,-0.03013961822368172,0.06176963408911257,0.025762969705716256,0.04814414690688547,0.008620173859148818,0.009775355067339606,-0.0948442508475594
0.1,0.021382365597375275,-0.018179998165765206,-0.039173905909207364,8.636956731187756e-05,0.029877233302110867,-0.030187923290469203,0.0571198171944399,0.026127289533843058,0.048466527265639964,0.00759062565836203,0.007210520695334038,-0.10040783307946506
0.102,0.005041360871639653,-0.03013626513672228,-0.034809401329703844,0.014197477473978242,0.01938623184406331,-0.03464594722997517,0.05744730699158526,0.028549192758232936,0.049690187030722144,0.004574532659433652,0.0025641358939231876,-0.10445059819723031
0.104,0.009501640222215026,-0.03903359860531225,-0.04836080909391642,0.016488930703053295,0.028507916873914775,-0.04614426673241552,0.056299672503579645,0.0252618693275991,0.04346769252048221,-0.004371221804625087,-0.005807226455764179,-0.10950341103362761
0.106,0.011329116709967673,-0.04937038567018077,-0.060855466039714104,0.020929676318516534,0.035803515890205306,-0.057448802006578294,0.051509213918907684,0.018332238421650302,0.03344678713900831,-0.014471522990310912,-0.013743973145189336,-0.11520161210840003
0.108,-0.007891320956401021,-0.057432784562641864,-0.0499820492480364,0.034472377262670176,0.02045699674196419,-0.05589038739641187,0.05035688363189444,0.01894692708730796,0.03365274101097083,-0.015453742491727611,-0.014279277953753439,-0.11598396182130517
0.11,-0.024276653441865723,-0.051578571342488326,-0.02777271495276848,0.03932982305839065,0.0006941730984419839,-0.04158905082070314,0.05675511520921392,0.03093084167413732,0.04831810224743745,-0.005439717318634624,-0.007191487162461999,-0.11005057202435567
0.112,-0.006385630461037536,-0.029469999841789253,-0.02330439202800053,0.01903255548157841,0.007309073561462049,-0.027679158341350256,0.06465605146756437,0.04531864887237879,0.06631252187015624,0.007905008802408416,0.0016138419533281018,-0.10109085536346807
0.114,0.029822761706110763,-0.004680733180106068,-0.034434663921278356,-0.011332184293255254,0.03117437969379703,-0.020247791890709372,0.0690050318106492,0.05406108676913802,0.07746635846892569,0.018964971864791198,0.009672985799904187,-0.08975863098590346
0.116,0.04322313616640381,0.00825471070930001,-0.0348210106975593,-0.024135129419883293,0.03829749825062888,-0.013984756957309042,0.07145489193972561,0.05786437436510363,0.08227695442323564,0.027444810657744238,0.018460849045315232,-0.07412087520864208
0.118,0.03271029339280523,0.008696413332457534,-0.02397329369257205,-0.019116725145705785,0.027949077782608436,-0.008725665523651999,0.07163280230728789,0.0575509977865652,0.08343174988093476,0.031452452582815635,0.02473157253667751,-0.059298296381311566
0.12,0.02886242302882684,0.0039615575588101675,-0.024958685433798835,-0.015336814613876038,0.026910699244993164,-0.011711257554531378,0.06610586490289742,0.05150253441185421,0.08049414818600487,0.028290459681661596,0.02281175255638012,-0.05441061551421613
0.122,0.033810567849815634,-0.004018130543455147,-0.03787836995310923,-0.013999036613344491,0.03591957631539635,-0.022170848090226916,0.05798923127922859,0.043962655741762766,0.0755632106277859,0.02193333726273217,0.015634798470750035,-0.059256382981661464
0.124,0.02366533219535636,-0.017253011686023674,-0.04091090969288323,-0.0016041521307916537,0.031852231457196775,-0.030563423369257717,0.05412251634659027,0.04156146961575336,0.07248352404575766,0.01936941199127052,0.011311208040062758,-0.0654427032355285
0.126,-0.0017600982180648128,-0.03215366904485485,-0.03038500318932379,0.01927900886547955,0.013077480101207736,-0.03281547121055794,0.05358825431797072,0.04241416939473471,0.07040911791896191,0.02080415371515818,0.010857578527297792,-0.06901321934459581
0.128,-0.017673253636563184,-0.04035994086480146,-0.022807489500371213,0.030790309980824243,0.0009217530926197835,-0.032595636612002925,0.05033684371522273,0.040825452255480434,0.06782420013754423,0.021865414974093066,0.010048049258028631,-0.07143200198052924
0.13,-0.010977279332378707,-0.03742462751505524,-0.026786374832317123,0.024372136980269608,0.006530392385621306,-0.03254063507684794,0.04434483616459236,0.03827196896965788,0.06870683552578602,0.022071942688534546,0.008578516571850324,-0.07114726072935652
0.132,0.009827456906519327,-0.02587020989697564,-0.0361315470393084,0.007202877186834674,0.02224055057379519,-0.03143910349347607,0.04274836792530109,0.04075448344341043,0.07717379187998488,0.02499345363146614,0.00976696686330547,-0.06342160659118033
0.134,0.02730290419489699,-0.01069199118531228,-0.03824948718114453,-0.008570182650003859,0.032608740378240596,-0.0252520738465846,0.051803669730225564,0.050217138109540066,0.09151108233820913,0.03335558581841094,0.016424026314221872,-0.04706240612090522
0.136,0.024820507089212556,0.004784482368883288,-0.02000374591388175,-0.013987177257645254,0.022495138791452866,-0.00840972142736444,0.06975521377830762,0.06323397331648592,0.10721207365055714,0.04671389585816608,0.029592438196711496,-0.026280824687236484
0.138,0.000996122334168755,0.01781050993115194,0.016962821146662706,-0.008394168184373423,-0.008010421893159708,0.017084273967172048,0.08631635713492526,0.07410308156923422,0.12020138352686015,0.060660964046011734,0.045364190378397916,-0.008081169692475082
0.14,-0.017652928616014998,0.02621985876344594,0.04391171833793938,-0.003927938377393212,-0.031052417897595653,0.03531088076843312,0.0908232485756033,0.07779114382099399,0.12626683860415008,0.06822989760748355,0.053904421745992546,0.0005630638960496519
0.142,0.0005654604796725235,0.032298060789877896,0.03155259546507095,-0.01649863119528159,-0.015855516844470317,0.0322779870702895,0.08340156533357701,0.07416527904373789,0.12413947458312068,0.06702801490676003,0.048885783168241534,-0.0019069172829519092
0.144,0.047494147323760755,0.03805653753334615,-0.009821389760877748,-0.042386574478592655,0.02836707128341643,0.013970288043186278,0.07458116664668935,0.06900429339302906,0.11869351573575113,0.06334812068375342,0.03594061969165376,-0.008972096113520952
0.146,0.07755056111315707,0.03706604733758849,-0.04092979573577927,-0.05594817202609572,0.05888769845340057,-0.0031896937968721555,0.07133346329446952,0.06702353412583666,0.11493976870283594,0.06349208105713917,0.025928036024118774,-0.013293896459447268
0.148,0.06466949936547582,0.024868204182746597,-0.04015789696002958,-0.04276429060543022,0.05174572291264408,-0.01020385573210721,0.07112791758997258,0.06786094247181974,0.11332990756582649,0.06620057508926817,0.024093452148685322,-0.01227238522457847
0.15,0.03101186290461456,0.01249596866181663,-0.0188027886419095,-0.019724044840341168,0.02408947335660952,-0.006276516917944898,0.07102957842059529,0.07093051583203314,0.11546484491909727,0.06914976624327425,0.029773437561851017,-0.004917200954806227
0.152,0.012100744754658438,0.014103889583263748,0.0017169380946870172,-0.011179682877478824,0.004588551086281789,0.005477409381047801,0.0715209436865388,0.07685626178241854,0.12493700678375545,0.07500303864882704,0.04024342170620836,0.007860596966182546
0.154,0.01602002439013515,0.02857436567849744,0.012327489871406338,-0.02031486151894069,0.0011678776105311503,0.019246284986765595,0.07252446622291854,0.0841624143956091,0.13905539625092248,0.08603965690300339,0.05136401200160761,0.02110423785402175
0.156,0.02467355114479844,0.043447869535319115,0.018599723107081974,-0.03215252573580027,0.001690163279665099,0.030271627397102256,0.07427745891059387,0.09014951688788002,0.1492012904881479,0.09852627235274622,0.05908402458466589,0.031080955741643015
0.158,0.021065972871797328,0.04791061498180428,0.026503671227672287,-0.03302254000560866,-0.00440151961165471,0.035832759034307056,0.07709077364334879,0.09253679720314173,0.15052069451269195,0.10544640152712852,0.062018434800075746,0.03762952332868037
0.16,0.007911608648280381,0.03947594735234993,0.031010245545961566,-0.022929454780262114,-0.01270334458638684,0.033206504146938515,0.07763199551024441,0.08972136102131022,0.1453786987143031,0.10342241889730604,0.06124644870743209,0.03968112928873614
0.162,0.0037031742884243895,0.026916177858284648,0.022843935707530797,-0.015269944179568966,-0.01039809858731869,0.02286489724340334,0.07345179370483365,0.08410584643062509,0.139575680945369,0.09666296507142066,0.059119543111070295,0.03717146130315393
0.164,0.018721390737348614,0.02353710947767167,0.004964545796910737,-0.02152374523906132,0.0052964608099522,0.012471240070876456,0.0694898469878088,0.08264091678949372,0.13906446535138298,0.0938224394096874,0.05907597122590542,0.035806642123908924
0.166,0.03687325953314002,0.031725684370961175,-0.004731897582230942,-0.034682713628766945,0.01831693692970108,0.011670175661440733,0.07154760409043288,0.08908823998953957,0.14680030163163704,0.09994735856072208,0.06339702766887674,0.040702987625405126
0.168,0.03619923785457949,0.041282468633928045,0.005284975685860662,-0.03885321587214063,0.013197236649946948,0.021332828918894018,0.07677726131429592,0.09865788139828222,0.15997841841067237,0.11181522640023862,0.06986832118209485,0.047816941427906864
0.17,0.022312558617396654,0.045243290564080246,0.022816995236713353,-0.03349909508520784,-0.0013583829720317552,0.03202911846458452,0.07801064323060751,0.10383141999472789,0.17240115400383274,0.12255054873934365,0.07389296906933314,0.04928449212816308
0.172,0.017895150549539197,0.04586974760839144,0.02782789845780521,-0.031119382225226536,-0.005077141855464341,0.03476547847187788,0.07301773660776613,0.10250736633861517,0.17948342494123887,0.1289816257914414,0.07417219034561597,0.04428200033052533
0.174,0.02519834973506903,0.04449617559452129,0.019407154014707117,-0.03387854291912173,0.002974817898258717,0.029960492048064714,0.06533122756507657,0.09901888190481839,0.18087136153590155,0.1324439024807188,0.07406113797786318,0.03998096139096104
0.176,0.02608165273947586,0.04098663486458292,0.01531327678445774,-0.032976484293200346,0.0049929906924187665,0.026685677873205617,0.06166062413793582,0.10027008955010919,0.1812867300403656,0.13610988094100715,0.07851317308773256,0.044943668164826964
0.178,0.016268546795907116,0.0428344563891683,0.0270393774812246,-0.029584129860458434,-0.0062211276278690275,0.0341705943662318,0.06736157587176428,0.1095159180745371,0.18689422945468037,0.142931120080319,0.0892355247959459,0.06122099701049624
0.18,0.013064051890246828,0.056841549102338226,0.04401336384920911,-0.035081862562672754,-0.016314498508439218,0.04993477740784147,0.07770689045617661,0.12100419688228711,0.19651112376690322,0.15165255256430793,0.10037271834785537,0.07923568609517517
0.182,0.026424142209968388,0.074119592995814,0.04763265101121028,-0.049921802772720694,-0.011327600784215259,0.05989151802051469,0.07984177710006264,0.12514147943954002,0.20148958095638841,0.15657194005841074,0.10316663508311001,0.08544806265865157
0.184,0.04372829865387886,0.08153177776794145,0.03765067358457528,-0.06149910253965265,0.0022840575895706526,0.057639731682304164,0.07031384902631231,0.12184085337289555,0.19945074270575566,0.1566845733588456,0.09858846028127993,0.07881489111244587
0.186,0.04826678872645103,0.08230964168633817,0.03399654227893177,-0.06344679098911804,0.006300430254148433,0.055531662836602484,0.061949183442488925,0.1223723605374505,0.20018805648092067,0.16036171224219245,0.09835718430456825,0.07231326623418204
0.188,0.03901276823962734,0.08836866831968304,0.04941392852544991,-0.0616327387732776,-0.006306264923978643,0.0665142711684696,0.06711297314723087,0.13454386756430678,0.21182560199267914,0.1746462941389144,0.10915374673501496,0.07601925802074709
0.19,0.02754557776264012,0.10014504502822058,0.07265234411555482,-0.06201851649114428,-0.02419149152090751,0.08491722522324326,0.08227117534270764,0.1526407741233781,0.22978826780382164,0.19524424485009204,0.12387715317545167,0.08720830242719844
0.192,0.023374179932782218,0.1097754909643826,0.086395287631832,-0.0649826610212466,-0.033391569061022586,0.09703658465081054,0.09417623369494803,0.16603904321927807,0.24547561454377337,0.2127459036871866,0.1332138492731837,0.0987334687331049
0.194,0.027972425582568777,0.11779108501571722,0.08978707695694944,-0.07143571445470215,-0.03237498383350551,0.10209045784087036,0.0957175471744838,0.1716862816606256,0.2574626315320664,0.22379678365535974,0.13803461745057818,0.10906149492066237
0.196,0.03878757726952913,0.13204294116152657,0.09324356779692305,-0.08416562965773645,-0.028140530316026983,0.11001877176528194,0.0909404358541724,0.1734676039470809,0.2682077060776517,0.23151262874068693,0.14443059096760483,0.1200792993255498
0.198,0.053300726263785445,0.15240953701206342,0.0991203927618112,-0.10173019741504669,-0.023704683930074792,0.1230191551777364,0.08660815517563364,0.1739026926249815,0.27625315541650947,0.23803249426673329,0.15229872174858014,0.12906464226791653
0.2,0.07078573949502377,0.16841398831924165,0.09761827193958393,-0.11843950245023657,-0.014323419338094173,0.13098274661764323,0.08413079533678948,0.17195716280671602,0.2776837605022897,0.24090278108554541,0.15558103145948748,0.12934346459989612
0.202,0.0887339912317482,0.17245201048155734,0.08358609701999944,-0.12940439911453924,0.0016950803078929736,0.12694204648632681,0.081612506686323,0.16796297300172086,0.27324469558988057,0.23834403676242616,0.1521839728101574,0.12081539374823469
0.204,0.09419891104726515,0.1663639667791992,0.07183081956133967,-0.12905071242604868,0.010167554736675065,0.11885517987742406,0.07943106320277757,0.16595573836813343,0.2699653357804633,0.23547154467864714,0.1486816804190259,0.1137361472066513
0.206,0.07097977361100369,0.15458906256590518,0.08316181916653329,-0.1112401046754641,-0.007770645618888342,0.119175687603371,0.07887561297363824,0.16895259586584957,0.2733595244607015,0.23955325726515636,0.1527342735195273,0.1171509724878258
0.208,0.026432727261074405,0.14058913316335309,0.11377187259475702,-0.0814956301706027,-0.04605225908128523,0.1275899535520206,0.07731493126766632,0.17440307882780534,0.2801982971788588,0.2501623961593661,0.16293729777502067,0.12802457461474373
0.21,-0.006711996163996439,0.130572808267425,0.137007704276024,-0.0598964598524822,-0.0741386473783563,0.13394842304010363,0.07098834282557626,0.17779611491928698,0.28471678727511407,0.2611133475700794,0.1711550540703298,0.13667873148533607
0.212,-0.007426748877978881,0.13213376553025433,0.13941504621364015,-0.061081860322690806,-0.07472541729828289,0.13562939565677035,0.062215165585278315,0.17969046506026073,0.2890713638491482,0.2703503673143754,0.17463346099565544,0.13980812585419747
0.214,0.015480351118743112,0.14956923542311693,0.13422251354692397,-0.08210519776645038,-0.059884622680116614,0.14165523199636243,0.05754254026973799,0.18471980772236918,0.29897823137053414,0.2804080380369102,0.17932402154855334,0.14314191210146734
0.216,0.04640675406722321,0.18219905741194292,0.13617179933504467,-0.11373690093691405,-0.04578376259287293,0.1589988117453465,0.05843726679540472,0.1946904688077309,0.31254344964496805,0.29130928393503824,0.1896654067210965,0.1521344052449026
0.218,0.07803526915195903,0.22174658022225952,0.1439253730299454,-0.14825823171113414,-0.034861040119230975,0.18243350849668855,0.05954189907808384,0.21008144037260934,0.3224553750342059,0.30008009770492416,0.20173420311484944,0.1650068787672711
0.22,0.10135068640360335,0.25366289343163173,0.1520427170139431,-0.17518794919352196,-0.02754322767814729,0.2016633828492997,0.05697088596954031,0.2379964475761918,0.32666205880682997,0.3063539104482915,0.21031662767416517,0.17664039395957734
0.222,0.10671222835912532,0.26921880117037567,0.16205300284102972,-0.18598735935965782,-0.02937225947527821,0.21360221516263464,0.0531408671676987,0.2850917671297251,0.330038140847001,0.313225360883046,0.21678593013987985,0.18484939434812894
0.224,0.10100602210376868,0.2740672311650402,0.17302845904036532,-0.18603350461637994,-0.03749962334975081,0.22151175685807017,0.05161897199370667,0.338604728639289,0.3363304252221355,0.3219903473241337,0.22451150524627606,0.1897884411942104
0.226,0.10532701489046582,0.2790184286942715,0.17417466905408285,-0.19036153149895296,-0.0361186813423279,0.22533120534407064,0.051207452889678984,0.3716364524500386,0.34318780425014217,0.32943386205151753,0.23153436349648468,0.1913614709731218
0.228,0.1274391715883366,0.28754592486808533,0.16058163746599205,-0.20494653855666112,-0.018104178037352776,0.22331907295550601,0.048996358589220565,0.37613347228361954,0.34792450473601055,0.3337550278543458,0.23520083126865457,0.19183618403688169
0.23,0.14566206042496524,0.2984093625341697,0.15280127129210122,-0.21913779089298874,-0.00444347847240434,0.22458640669713648,0.04790486077986506,0.37564714659387594,0.3559150538655094,0.3420135901529969,0.24168640396932997,0.19870004258952872
0.232,0.13387288403083744,0.3130865316176381,0.1790115394206071,-0.22079362028078012,-0.022928721266839015,0.24432207042460527,0.05346926215180715,0.39406047801095756,0.3745466250227663,0.362862575131501,0.26003616989403583,0.21754793148327742
0.234,0.10153911920503685,0.33141777412418727,0.2298660381227586,-0.21432985210271197,-0.06462470059899436,0.27833647755613933,0.06063731001689542,0.4223152802235662,0.3964856905749451,0.38869968215507683,0.2841515788056347,0.24003006147233052
0.236,0.08293970541970838,0.343120897734921,0.26055848432611545,-0.2114653957718231,-0.09001066958613632,0.29955354135380696,0.05497035445921092,0.43094254828366085,0.4016968274387252,0.3979644754094069,0.29432666312469735,0.2478921262256486
0.238,0.08575500688857153,0.33453623915045066,0.24930593429515907,-0.20878896874519792,-0.0839291697709655,0.290473694639702,0.03245380575685158,0.4105238474927182,0.38270278705032484,0.38227245906297874,0.2825385861421653,0.2344330102380877
0.24,0.0872186889587494,0.3089328207445309,0.22199160689348557,-0.19632759677618858,-0.06996771330522969,0.2652231150102676,0.0072842948476377015,0.3837368040649878,0.356631915741965,0.35918341951368493,0.2636259055069832,0.2145666199677768
0.242,0.07789459917571269,0.2909407993663471,0.21299739726101402,-0.1822052459424278,-0.06962096516917257,0.2523978814219045,-0.00463290624779083,0.37721042747641353,0.3460660394474936,0.3517794752958214,0.2572695181139443,0.20928836154577019
0.244,0.07325427806601176,0.3018750486426501,0.22857280170703506,-0.18556089767768147,-0.07861246697660912,0.26531785672203,-0.0016955603536047287,0.39371188441106114,0.35600641881739614,0.36499453761966427,0.26859601321015125,0.22483179910330733
0.246,0.08605465725739084,0.33674410579923886,0.2509622325790245,-0.21015980422718253,-0.08247805441890678,0.2930224318471788,0.0061772182252917375,0.41569431145008023,0.3739800509929555,0.3861620968017589,0.2884234306932876,0.24963983962979697
0.248,0.10713161322190785,0.37073145163824855,0.2640909395288504,-0.23810818208613707,-0.07830965878047329,0.3157995287005058,0.00989155342085483,0.42828981755009016,0.3866448912659082,0.4017965638398292,0.30524117288822467,0.2688372286882763
0.25,0.11359681748016032,0.3835268633015796,0.27024800507175334,-0.24724702054387532,-0.07851016856191127,0.3249425338485653,0.00740242045107384,0.43072140269637205,0.3906418585776288,0.40828969433022544,0.31261641370494125,0.2770703392557959
0.252,0.09709688443649352,0.37691068226737445,0.27978094684892935,-0.23471515099876042,-0.0919452745961653,0.32646572373823424,0.001061404819162461,0.42820424604645657,0.38972190581482463,0.4086985330888802,0.3085188612284685,0.2774659406084214
0.254,0.0794338543861395,0.37167498724283377,0.29205799566814944,-0.22273145839970182,-0.10734919835485117,0.33050117346767455,-0.006228372980475857,0.4236609400678555,0.38790815928087663,0.4065046030694141,0.2952260675299511,0.27508913398588886
0.256,0.08557178573636436,0.3852898174093308,0.2996408993480377,-0.23306542796128263,-0.10855773282713424,0.34198543499087714,-0.011703143672886784,0.4193163271307803,0.3873557529071338,0.4050635164158192,0.28074012914581714,0.2743464253820624
0.258,0.1087439634900907,0.4120552513291773,0.30337112920101755,-0.2592699474831653,-0.09888164967306805,0.35797576892826805,-0.014301805560634427,0.4169329358112814,0.3880303694839769,0.4067087671162875,0.27285435228715144,0.27702858795957475
0.26,0.12276572803058748,0.43036642228948097,0.30769318927231076,-0.2766750778451759,-0.09328898628848624,0.36941549638332216,-0.017509762740083288,0.4137692897293989,0.3865075568580417,0.4088036254450156,0.27042570356147544,0.2806221201055401
0.262,0.1192835104529836,0.4299759264760231,0.3108251629635436,-0.2752662448739735,-0.09564660135969143,0.3703932506930526,-0.02502305954076914,0.4060669616749667,0.3796109330980016,0.40654387502511724,0.26683002261482425,0.2825198991970969
0.264,0.10849165735263766,0.42171213082127385,0.31351022403954976,-0.2654176234526882,-0.10204236905221956,0.3671593803492552,-0.03260976665236425,0.39692294116292903,0.37084845155839663,0.40129317863078146,0.2607751696495617,0.2847247847943755
0.266,0.09656884570392185,0.41690809423374964,0.32074308284657155,-0.25618679072421663,-0.11190971938926539,0.3680083025087797,-0.03386828327418052,0.3918846735319174,0.3662208814040288,0.39818448245346943,0.2555848312619735,0.28931226803516347
0.268,0.09134922984734557,0.4135983516320194,0.32253817382779976,-0.2508565365504166,-0.11575230851676468,0.36665099452375677,-0.03391553194391902,0.38790872330374093,0.3634067153020068,0.39561510330200556,0.24989360685498097,0.29182976762041546
0.27,0.10968213274222356,0.4104050608255899,0.300866274114658,-0.2575040075724654,-0.09581790932136834,0.3533847866923285,-0.04265714701286952,0.37817740551221846,0.35548378464905706,0.3885429883963876,0.2399140587746195,0.2871235481993541
0.272,0.1467812286526442,0.4139717906626733,0.2675047150913007,-0.27744193769626474,-0.0606867694289331,0.33814309224862327,-0.05577867920162054,0.36584942710534396,0.34439232245824175,0.38049410377538556,0.22964329235091774,0.27982823282329855
0.274,0.16352875723874205,0.42175468422412965,0.2588827742898585,-0.2901276629621211,-0.04840126522325565,0.3385045807656398,-0.060904393416931886,0.3589627753457446,0.33765566547447495,0.37797635909687366,0.22592822842693608,0.278171380104817
0.276,0.13583149685650486,0.4175705017083455,0.28232747065484415,-0.2752757923045318,-0.07427225945914714,0.3495286638297284,-0.05939300800585805,0.35477485625203364,0.3338850437188852,0.37659592545466775,0.2244030135407825,0.27907386044117566
0.278,0.09130407712838602,0.395914145398225,0.3045711656359467,-0.24312524711840106,-0.10741269122106215,0.3504318912232593,-0.06262704204922703,0.3443046084733217,0.3252641295084541,0.3676343303138185,0.2141392005662078,0.27272766017128847
0.28,0.06984754045130456,0.3725587170253355,0.30212278059260084,-0.22079337412377287,-0.11652705354600217,0.3366760294228282,-0.07108689877208502,0.32909735568178855,0.31220337773342544,0.35343097313455746,0.19536413826762689,0.2600092384201488
0.282,0.07380284542023469,0.36207330913518715,0.2877767679249756,-0.2171638064473244,-0.10749025266079375,0.32299884843366344,-0.0746967838887931,0.31928147959400605,0.3029697082009159,0.34312409530053367,0.17932794718960726,0.25147563530771877
0.284,0.08024978656607663,0.3599147544604093,0.2796565383859574,-0.21933247714369408,-0.10072839392370943,0.3178117268787615,-0.07072241748044777,0.316834758388579,0.2992153524401969,0.3372322706540038,0.1704480879732528,0.25038108928669345
0.286,0.07749665386138342,0.35245028936458445,0.2752316767433188,-0.21451709445889067,-0.10025256801846318,0.3131601657661716,-0.06706046454366252,0.31286195702219244,0.2925017264080575,0.3267554261972284,0.15999608311582422,0.2484784219353006
0.288,0.07024997611274068,0.3343314499740434,0.2643475696576331,-0.20184047231531674,-0.09828828748798478,0.2998131135264926,-0.06902006230858701,0.3015631006127914,0.2766893748159359,0.30630467826630225,0.1394433115009837,0.23849679804752597
0.29,0.0668104068619931,0.31142044117009327,0.2448658480620416,-0.18831563134790202,-0.08971634852341123,0.27837674649721184,-0.07399194758683866,0.2863752753443557,0.25527243025096996,0.2803887292405237,0.11151722094890504,0.22190180790866185
0.292,0.07174840579659937,0.29179341757661337,0.22036012988629022,-0.18038719313219362,-0.07443452291310493,0.2548370198011372,-0.07857322132864084,0.27173782018983084,0.23522132248059469,0.2568896548617361,0.08597529282196598,0.2044691651006044
0.294,0.0790781989736188,0.2781720395339435,0.19933671321206217,-0.1764938123311115,-0.0600315706423189,0.23599500813743968,-0.08133937955596736,0.2592689592021194,0.22082393103261014,0.24111308762658024,0.07072577928226141,0.1918978122875871
0.296,0.07446503256996587,0.26772794023926444,0.19328966509834536,-0.16836860381288538,-0.05961985204970536,0.2273817271043859,-0.07983923697607018,0.251315603393524,0.2128147383140766,0.2340352297722578,0.06670803949868077,0.18800498488897793
0.298,0.05794739180825447,0.2572566220356518,0.1991953815090238,-0.15479475532616627,-0.07168959300732314,0.2261257243651445,-0.0736157274333726,0.24803914880661593,0.2069275907178874,0.22998532884381792,0.06601919055928714,0.18967577611355343
0.3,0.05049318156768049,0.24740850518531518,0.19683877496195254,-0.14647334995847708,-0.07506237221602183,0.22135109537846148,-0.06727819098282169,0.24414869413919008,0.1964881773357145,0.2202270425249311,0.05809760155788788,0.18761908913752806
0.302,0.06013705810227046,0.23906116798874,0.1789464446504931,-0.1474027783807203,-0.06118791387757259,0.2084949792882157,-0.06415272792399458,0.23630122276202284,0.18132982751037865,0.20269169850758845,0.04140622033369952,0.17773889472057836
0.304,0.0648595764919605,0.22731854124878395,0.16251129356224228,-0.14396361315946268,-0.0496787695326157,0.19371660752408149,-0.06284439839532545,0.22700871396387984,0.1677958327212321,0.18279391166394787,0.023270841009245563,0.1650415002678545
0.306,0.04847237369472774,0.20641924780616433,0.15796006647737218,-0.12554209999087354,-0.0550100749410562,0.18068022089140895,-0.062935080079058,0.21702628831516962,0.15754786724512476,0.16405246773445217,0.007459980925112203,0.1536905333769778
0.308,0.028782312011365104,0.1813016949638504,0.15249727764008,-0.10386342625655212,-0.062493144273231584,0.16584146824963225,-0.06602907020318495,0.20386231573274718,0.14544668761708396,0.14507669839469176,-0.009087795053005089,0.1420870179110545
0.31,0.031120360396601408,0.16410265300713353,0.1329864764845295,-0.09733721634762575,-0.05222059291618492,0.14775612690220735,-0.07185340684470408,0.18852687420566105,0.12867432557493305,0.12509215642597202,-0.028048548952083287,0.1281361544079355
0.312,0.04881344805180491,0.15490258129722348,0.1062240125232373,-0.10189340474216722,-0.02996441591463121,0.12943961226155323,-0.07887105154099353,0.17435072291006057,0.10967920656534408,0.10529271918017279,-0.04738029657233185,0.11185436306919501
0.314,0.04902281840476299,0.14017644273265434,0.09149242838822892,-0.09421709875276547,-0.02167756598669491,0.11446172918661161,-0.08393894820378267,0.16289898820533302,0.09276981009492204,0.08728996158532516,-0.06462890737860001,0.09605072031990818
0.316,0.019636304450754694,0.11715452332085338,0.0979443175451835,-0.06770241479427319,-0.03880481709083973,0.1065935099397027,-0.08157040043131132,0.1562393922500245,0.08191908095107014,0.07425631627774669,-0.07690912652494043,0.087521655112126
0.318,-0.00845615844148791,0.10021633222380047,0.10894542747526771,-0.045611644993817,-0.0583747805822622,0.10439799593742985,-0.07256051575238757,0.1545397344065813,0.07574352731760116,0.06652474944425009,-0.08344153338362062,0.08908918666534078
0.32,-0.0012164006167771852,0.09487712667364832,0.0961950932295177,-0.04726143687482397,-0.049143145814961195,0.09565310481650045,-0.06876874035536625,0.14996666338192097,0.06455760339914379,0.05523318701850334,-0.09096279905492059,0.09102024915824176
0.322,0.03221144634753736,0.08808758255517356,0.05605829103935308,-0.060731529846463676,-0.013094310825421394,0.07164329108853877,-0.07769489962081526,0.13523495888754988,0.04219221675499498,0.03256085036749985,-0.10756256045708082,0.08197377053515316
0.324,0.05292704132262596,0.07292461546295641,0.02035944246363837,-0.06288396821980416,0.01495807857011511,0.045521556050014664,-0.08800932164853635,0.11865537824167684,0.019805395909786413,0.008418890758505002,-0.12836846646393596,0.06649989280730847
0.326,0.04055995260391822,0.0588036564563579,0.018546267917380222,-0.04864803759844599,0.009860688930662047,0.03768210329218084,-0.08359241899831632,0.11621933275916324,0.014826735320131887,0.0009984210201923428,-0.13894861761979066,0.058937163984253256
0.328,0.008476027592220403,0.0489014102357079,0.040455201530215416,-0.026919466497979726,-0.01714941800870053,0.04454430793966349,-0.06726004450181282,0.1276366648750926,0.025922835098960196,0.009518240532458457,-0.13660552982155658,0.06154608988131465
0.33,-0.022081943656840068,0.03261606675517723,0.05455344505986107,-0.0034781759907728032,-0.03965275562548802,0.044068705535562434,-0.05666364147677502,0.13501321058010546,0.03344093611647107,0.013510131330650427,-0.1350979905775116,0.061945265808423064
0.332,-0.043096483983522164,0.008193382109569852,0.05119710574148571,0.018526612313922216,-0.04829959234548308,0.02993997642976609,-0.06027498440188933,0.12663317399762358,0.025178184962724705,0.0006779160264730544,-0.14498658331309783,0.05178068992212139
0.334,-0.05470434180054042,-0.010424302551657397,0.044333327072879826,0.0328345619058604,-0.04998638103608786,0.0163315455012586,-0.07062171066568487,0.10945683306899409,0.008270138084739885,-0.02010455700993666,-0.1620080570289864,0.036052187943301145
0.336,-0.054055858169389216,-0.014920371886386228,0.039354203831681873,0.03482786525128895,-0.046541581817198086,0.010623014396763449,-0.07892065885655283,0.09588429775801302,-0.005375712265177106,-0.03503326218152955,-0.1771523520285522,0.02323354752786218
0.338,-0.03602886109766144,-0.011611393954918588,0.024912682417887272,0.025269005113526748,-0.030274143413971378,0.004343859460141016,-0.08423762903889181,0.08806894148102963,-0.014069055862295047,-0.04183017468059407,-0.18779682829202154,0.015176787503392191
0.34,-0.0031590115318375096,-0.006089059687872997,-0.0020773360843989604,0.007250639450235529,-0.0008480427691398199,-0.0065582470907700665,-0.08620968775330633,0.08204063143917568,-0.021566744215423185,-0.04557121141068958,-0.1947232027210886,0.01025974056543959
0.342,0.026821024880935924,0.003866099179803013,-0.021970967049838246,-0.012407687083376948,0.02351031062459205,-0.011050036168675087,-0.07914802917315852,0.08004159040896092,-0.02550984033465805,-0.04678875059602276,-0.1948133313481283,0.010819891370829745
0.344,0.030652113730533264,0.016228282074578024,-0.013766075117773105,-0.021055459707622817,0.02118349925053237,-9.006538794052875e-05,-0.06131583089003909,0.08688954518561337,-0.0211638540549907,-0.04236455473009643,-0.18513919653639271,0.019692460706381365
0.346,0.006368105155184635,0.02119722464078096,0.014927498250431968,-0.012118075175168972,-0.004884549414206381,0.01698991790657425,-0.0435368727081192,0.09791973783646285,-0.012997615169814236,-0.035483573924922976,-0.17312377308891808,0.03071190020429273
0.348,-0.016931967194086437,0.014998373567673235,0.0316996056902261,0.0024157120036494813,-0.024547907895233152,0.02211286642202347,-0.039268420139989435,0.1020386460898485,-0.012077640105134426,-0.03575397826406646,-0.17316212331873354,0.031517090722315226
0.35,-0.010329798583907026,0.005501524829290522,0.015684460312828077,0.004106839077049732,-0.01354042821894548,0.009346231818683768,-0.04982653820371841,0.09486449487828633,-0.022685475306736282,-0.04739111493919952,-0.19022669817300164,0.017517802539158633
0.352,0.018742039064155874,-0.0007596248660636667,-0.019335999182444035,-0.007390839345516847,0.01779817603957177,-0.01103161694026949,-0.06578277756050863,0.08122885697653132,-0.03787819795555832,-0.06357153536459512,-0.21374932034336672,-0.0031948478578934436
0.354,0.035005411056690784,-0.00816735303676212,-0.04273978521772644,-0.01263920472384466,0.03715900797740759,-0.026459613011073354,-0.07815050855485983,0.06765303268932325,-0.048067051576771526,-0.07536374097388775,-0.23019417213465698,-0.019998924595049816
0.356,0.01957796417546027,-0.02141995428573777,-0.04054321377881567,0.0009716215958596038,0.02824165673143965,-0.03241328015721519,-0.08277125265832846,0.05852637432758616,-0.050249868608770225,-0.08011175028898504,-0.23501167354118724,-0.028889888783272123
0.358,-0.008487444937186655,-0.03328259728349096,-0.024581345790953994,0.02117042905055525,0.006414739157726581,-0.03039720709183359,-0.07910400023237471,0.05615811389784869,-0.048145766150173235,-0.07923242390982471,-0.23135211176306708,-0.030575076401003425
0.36,-0.02104051240723046,-0.03510598747734417,-0.014128466200814784,0.029039989699035276,-0.004459291842057862,-0.02533304867479251,-0.07104262703564579,0.058683076047773744,-0.04631393649066481,-0.07575296424359435,-0.22501108516662238,-0.02660824616785559
0.362,-0.01461581090991052,-0.0322185900935721,-0.017743648797140573,0.024481499061323162,0.0014741102411156542,-0.02509585204798933,-0.06561556594911114,0.060758234575045665,-0.04654960236777576,-0.074764287091761,-0.22139650238176484,-0.020094490992013762
0.364,-0.0037990128068600103,-0.034521029681712986,-0.030762539680837225,0.019896248646632784,0.013779980633350342,-0.03335359793604982,-0.06599839168068902,0.059961563614080976,-0.0481734046818693,-0.07874752937438255,-0.22182911359530666,-0.01539491559488809
0.366,0.0017919781049577715,-0.03970705431523778,-0.04144475780719816,0.01986642936836755,0.021345182277903378,-0.04273239369006763,-0.06823799989165934,0.05903764134868799,-0.04931401812928957,-0.0833196424377605,-0.22304066398438993,-0.015093008976135113
0.368,-0.0018434738237559257,-0.039942086111936136,-0.038028746764192684,0.0226178943948524,0.01710881404688454,-0.0421644566178414,-0.06731614039414847,0.06073582345298517,-0.04803055820751131,-0.08262410965317618,-0.22193943232864857,-0.01839056972066062
0.37,-0.01899928636260018,-0.037231921672935285,-0.018107658384352656,0.030368831498962592,-0.0014521088366606023,-0.030892123599162293,-0.06343915384714213,0.0643345779703302,-0.04371262704396966,-0.07701163642109604,-0.21953577529918603,-0.02233322638008731
0.372,-0.042061389648849284,-0.038680581539789496,0.0036791960783864944,0.04202615353060356,-0.023778412667311424,-0.020298766759743393,-0.06072992606088361,0.06705676068307165,-0.03866712671229721,-0.07248412347871833,-0.21958445520067757,-0.02476518499885093
0.374,-0.050640335708770946,-0.04369165143941264,0.0073389445568256655,0.047527368107257585,-0.030545270454899284,-0.020656703861538298,-0.06189342697238104,0.06658927538921104,-0.037076907649975926,-0.07396332114861381,-0.22374354437604776,-0.026090397075260577
0.376,-0.03994337892137467,-0.04806847241228554,-0.008011954267184162,0.04360367625993506,-0.018465325327164137,-0.030342538878425883,-0.06617290533133607,0.06223357597389969,-0.04130226107679134,-0.08138842549794154,-0.2305119271286095,-0.02881385640122834
0.378,-0.02763210130139226,-0.05288421818497009,-0.025725669195623472,0.04013772352448001,-0.0035334701222023658,-0.041298846092548754,-0.07216265712936204,0.05391205405130579,-0.0506862324860835,-0.09194488765536168,-0.23952541725098034,-0.03664701510619767
0.38,-0.02188251387012312,-0.05787581722364953,-0.03688986202175118,0.040626872334723195,0.005852956587929325,-0.04876522670903835,-0.07866279932746924,0.042929867552377196,-0.061990220824401455,-0.10229211404669408,-0.2508491288906332,-0.0503580471984374
0.382,-0.011488607612894514,-0.05517386620164999,-0.044432896035346954,0.03498463065576384,0.01573265287879516,-0.050571098779974136,-0.08136423658857782,0.03543128133983363,-0.06881373625968579,-0.10760285510573246,-0.2591118390038842,-0.06254706697815858
0.384,0.004983333150105968,-0.04138018639753854,-0.0465498515883713,0.020429005122981486,0.025305610085737163,-0.04475129880636646,-0.0754008452064873,0.038656280349344825,-0.06558241371612407,-0.10394457507337047,-0.257028008503715,-0.06383360684892514
0.386,0.009497825056428783,-0.02694824231616985,-0.03621599351098659,0.010817315496861138,0.022480480498569065,-0.03300069646125631,-0.06363209214670495,0.050903269763562776,-0.05438628009417972,-0.09377580679739415,-0.2458797525980832,-0.05580144979471108
0.388,-0.0059296177018022984,-0.022444467367812027,-0.016301216338387062,0.015354533361468933,0.005066733007678997,-0.021047869497200934,-0.054941147208265484,0.06233806494176995,-0.04359875587922034,-0.08471934397173993,-0.23533948273424496,-0.0494688399464149
0.39,-0.022579324789613855,-0.024675268594572194,-0.0021084815275299517,0.023755775144426342,-0.010166466322262365,-0.014377524412888287,-0.05366217747875427,0.06639860015236697,-0.03971151446978232,-0.08251697639860586,-0.2335563503492629,-0.05144477069345546
0.392,-0.019520641576826685,-0.025738365319732018,-0.006336941243776921,0.02258204226849214,-0.006620172655573403,-0.016230875714699302,-0.05764830247467277,0.06388161563560088,-0.04293589637942203,-0.087437504088164,-0.24126277672263585,-0.05919216349022721
0.394,-0.000711469003159622,-0.02640654309291687,-0.025745468259643054,0.014343785619642297,0.012226104847457673,-0.026353328719921836,-0.06392986757581062,0.05823636814193917,-0.04880379490314881,-0.09544334967016121,-0.2523434450588418,-0.06731146907354307
0.396,0.011119489840342079,-0.032714511877229416,-0.043815496994907846,0.01232830110026519,0.026958871510091152,-0.03904334771108881,-0.06951669919811378,0.05279635756742946,-0.05264026680072775,-0.10163078204198658,-0.2587246273936146,-0.0719958839152341
0.398,0.0017456889063737567,-0.04596039902363129,-0.04779073699481669,0.023281717276137724,0.02414645025247893,-0.047531886269245656,-0.0711687258241907,0.049664190277258234,-0.05423693256587662,-0.10471727474033894,-0.25828741625702084,-0.07239413524268855
0.4,-0.020061192420622567,-0.06102002029792032,-0.041286010417610854,0.04075823984170215,0.00977231825393439,-0.05131399829435001,-0.06864505409136906,0.048286962581505104,-0.05722984756369437,-0.10754510991695294,-0.25625331867333256,-0.07137824621703848
0.402,-0.036157664902610555,-0.07092857226923246,-0.035218840730492904,0.0535782956199241,-0.0018544156926820054,-0.05342469837678629,-0.06397045155237965,0.047709731212657515,-0.06236428648117609,-0.11149250025991084,-0.2567412392896145,-0.07219065152979882
0.404,-0.03965284394634815,-0.07220502951716093,-0.032819946617693704,0.056932603382462074,-0.005312763989326008,-0.053694464741266795,-0.0585313922808851,0.04869078145230536,-0.06520402136705346,-0.11346425591729374,-0.25869077130787127,-0.07480202023952322
0.406,-0.036996738654816765,-0.06790119368134633,-0.030848857914009167,0.05458110583979783,-0.004688534379778006,-0.05111731294487227,-0.05430315326619268,0.05129075780403957,-0.06235655573081857,-0.11051718383228681,-0.2602170700009086,-0.07806477155571286
0.408,-0.034218067634600516,-0.06307531093414753,-0.028569649612323986,0.05116591148064444,-0.003412017745420504,-0.04773088650866358,-0.05329062319935872,0.05452521662845174,-0.055492557547109835,-0.10375743327438654,-0.2595958760691291,-0.08136181912809401
0.41,-0.026545647726029294,-0.05628079382250346,-0.029343862249971656,0.04357663158238755,0.0014201984998649497,-0.04495123720920003,-0.05337434930452514,0.05944734896011633,-0.04767446224797614,-0.09538531498064376,-0.2537855531780428,-0.08179173146451686
0.412,-0.005429747081052207,-0.04162275097436431,-0.03579999878383138,0.024904443301803907,0.0146476695655343,-0.04088829643907977,-0.049631529360109644,0.06763093683879935,-0.039724950973193646,-0.08560440459024796,-0.24233039449379898,-0.07592512367017823
0.414,0.02542723851480115,-0.021871986658024586,-0.046971725236034274,-0.001164577120705083,0.034658930415160605,-0.03580870230309783,-0.042127989397248225,0.07551467537081985,-0.03281438950829247,-0.07635150651604422,-0.23128983045369544,-0.06737554316721707
0.416,0.046575289511902915,-0.012574100556691354,-0.05884825677035335,-0.016445840993167246,0.05073040418187961,-0.035810936075193096,-0.0384987244486234,0.07501970068988012,-0.03156694676635446,-0.07439672553797419,-0.22951797021398562,-0.06570763395112836
0.418,0.035792125754415136,-0.02689928526623196,-0.062382653367664014,-0.003178215431418987,0.04714624859243366,-0.04417802449187076,-0.04383480737654737,0.06386698470886827,-0.03862752018521249,-0.08316449886452759,-0.23901530884109906,-0.07329419239542215
0.42,-0.01093166536863999,-0.058273761431647315,-0.047134178690867196,0.03644027132613877,0.01604716396633464,-0.05296222547187655,-0.05069339973871709,0.05226067535434546,-0.04711896297251423,-0.09386778819808406,-0.24989331235786771,-0.07996691886791896
0.422,-0.06465851227589692,-0.08442583773685582,-0.019756837747887168,0.07614604891283364,-0.02485213389818307,-0.05352827214717922,-0.048463332810443085,0.05171952594672446,-0.047490191369928936,-0.0951391725065493,-0.2511182346327091,-0.07730921376796411
0.424,-0.08317895939729619,-0.09090035577849391,-0.00782403855681973,0.08804456280661056,-0.04022471152577151,-0.051317555929858656,-0.040848392787402314,0.058784743329299775,-0.04182682785663165,-0.08999562684283777,-0.2460221058538657,-0.07228755055160728
0.426,-0.057756831029113664,-0.0840791731543872,-0.026384292131370272,0.07173321751192392,-0.017938708201149678,-0.05690965712971152,-0.04062624029157783,0.06036861407009858,-0.04056080795830577,-0.09104044087081116,-0.24699377163067388,-0.07747963662735707
0.428,-0.02379687458120756,-0.07774279703408297,-0.053922588544517404,0.05189075852535188,0.013407121752228052,-0.06719999632967952,-0.04801439632358973,0.05433688003170714,-0.0455337167076428,-0.09987974705859455,-0.2557953688589934,-0.09139734032322765
0.43,-0.013006328287792286,-0.07394331561928122,-0.0608921463229066,0.044816850856879246,0.022996774442673184,-0.06888139350317952,-0.04951484703064839,0.05214308477755678,-0.04788738895128692,-0.10457654623739018,-0.26142928526928033,-0.09892373443045495
0.432,-0.014429162937899013,-0.062120483086276705,-0.04768226744615988,0.03937408688751381,0.01616605842445633,-0.05632572314810511,-0.038500489996326895,0.06052458618598404,-0.042546416445480975,-0.09783436074492188,-0.256512656655053,-0.09093229870560529
0.434,-0.0012686980046169609,-0.03631904511965433,-0.03504841032690592,0.019472332698774134,0.01616065053991134,-0.03656307393688556,-0.02338533671400596,0.07266115504372557,-0.034269448505543816,-0.08590905273418356,-0.24513850702951367,-0.07463608472147977
0.436,0.020017280331113795,-0.009919546923908878,-0.02982000379712938,-0.004455431670359503,0.02330087091020875,-0.02043970599591749,-0.014674064227793647,0.0794573719743622,-0.02856404832060657,-0.07829941133872213,-0.2352115329454147,-0.06341469105990827
0.438,0.01680338333780281,-0.005694919203081982,-0.022166907678312368,-0.004464491400400481,0.01731415358557248,-0.014927684833749297,-0.014496895288323304,0.07919686177515638,-0.025991290046481808,-0.07804913580169255,-0.23111837145358993,-0.06358299668661127
0.44,-0.016910564623671333,-0.028899842710573772,-0.011556871579260075,0.02485051943555122,-0.00467742353818738,-0.021610282678800052,-0.01987466429218032,0.07353124005582876,-0.027422142256851578,-0.08393120229138308,-0.23439426025120547,-0.07297379976849332
0.442,-0.04584953690621587,-0.058615715063723775,-0.012486185879680626,0.05465852595758512,-0.018404214724674708,-0.036716628520657886,-0.027814818593184215,0.06364978060211213,-0.03536830570134836,-0.09420406659936564,-0.2446642246099161,-0.08633801069544651
0.444,-0.03827771529222145,-0.06995123404472975,-0.03155008488864649,0.056048073883839936,-0.0050414968916971895,-0.05181753610455268,-0.03486073020245557,0.05344583915706441,-0.046638879647617947,-0.1050487721764541,-0.25726197699976944,-0.09864208065215359
0.446,-0.0017679802877384673,-0.057765055165191884,-0.0556874885513316,0.030670418162189364,0.025414171280547865,-0.05837723545675881,-0.03683792908730223,0.04904444189672351,-0.05207468625808253,-0.1104678538968559,-0.264134473226113,-0.10573158224026946
0.448,0.030771582855731842,-0.03663948743680363,-0.06672359908875897,0.003354970041735791,0.04744751919071329,-0.05384977462125482,-0.03239587294620135,0.0524850091594827,-0.047252633875819454,-0.10774683306233189,-0.2608570919368539,-0.105382616197877
0.45,0.035103631771152735,-0.025847780071637672,-0.06024692997962086,-0.0037274367822699777,0.046400027027067754,-0.044707862769581316,-0.026457884338148982,0.0587894446314664,-0.038610673896665275,-0.10191529531918875,-0.2530739712383939,-0.09997280585621542
0.452,0.013513148304646514,-0.034432179619595174,-0.04781163451459126,0.012173429522750146,0.029210713096348432,-0.04155188228832034,-0.02642909023075224,0.06117072715730998,-0.03594766227084405,-0.10050319373775404,-0.251371372601132,-0.095845870634659
0.454,-0.015250001135861745,-0.053894696688761026,-0.039273593441100756,0.0367186902486579,0.010431819074201213,-0.0462653522723033,-0.03208194573102815,0.05919082249255754,-0.04016723292552632,-0.10284246004507044,-0.2566136489516199,-0.09595634819861994
0.456,-0.036581103958503294,-0.0664611832551966,-0.030869491631869677,0.0536603791293664,-0.004461452942842684,-0.04872458011021147,-0.034607335812155395,0.05854821211886155,-0.04242147104813632,-0.10079360290680038,-0.2580195950162199,-0.09646727547558345
0.458,-0.044977806536596644,-0.06350985038310719,-0.019242495557916395,0.056144657556315446,-0.01449665694717773,-0.042463997315266525,-0.0295348744149582,0.06157106705396529,-0.037229645910101916,-0.09182979443018482,-0.2499506365889827,-0.09450583625352925
0.46,-0.04013274301539743,-0.0525917051432637,-0.012576993069474126,0.04784286833663023,-0.015544265578150796,-0.034345778672455834,-0.023232493474138846,0.06342689007814298,-0.030870087019702667,-0.0836842275982801,-0.24080527229585053,-0.09363505138484568
0.462,-0.02915594772204695,-0.04442469457207716,-0.015025961794979939,0.03781709894276823,-0.008974564689439524,-0.031188709718891303,-0.022199697075139895,0.06053320348831727,-0.031348166956545756,-0.08334199708320826,-0.24025152009877337,-0.09682233204209963
0.464,-0.024474840243361946,-0.0402164893353554,-0.015559066898320293,0.03320410466411842,-0.006261688912639641,-0.028496131418425233,-0.024023865747923288,0.0565651723344737,-0.03591322319025191,-0.08814507731688853,-0.24627494688745882,-0.10041433899320372
0.466,-0.031168348025896943,-0.03742265285507286,-0.0062666681742492335,0.03534900028415585,-0.01405079230639292,-0.022116774367477565,-0.024326217485501647,0.05540833260965849,-0.036994206028281566,-0.0918270616797935,-0.2510062781873362,-0.10128555598810694
0.468,-0.040601346331339654,-0.0387676214601624,0.0018523537007985207,0.04100666604571406,-0.02281313608494007,-0.01938175758931801,-0.023991626764291597,0.05497761871711817,-0.03455653096495413,-0.09353410681249126,-0.2523789391488368,-0.10278225946299364
0.47,-0.041527844136838195,-0.04572433580298626,-0.003904476502037861,0.044959855637826965,-0.020264513912239778,-0.026550429475609417,-0.023479854243095028,0.054467374959551285,-0.03276281664987042,-0.09485847631436754,-0.25272596879706827,-0.10688947959044617
0.472,-0.030554878200565433,-0.049139483888074396,-0.018117959827287863,0.04086609047313616,-0.007081829422088182,-0.03515148971585076,-0.019145004050311432,0.058952945580735085,-0.030959313587029493,-0.09385000804501051,-0.25189601440587617,-0.10857447782608964
0.474,-0.007647010422937675,-0.0374075931546821,-0.029464837212638352,0.02322813362454263,0.010567955979802767,-0.03372226339935877,-0.011039353169801924,0.06887707970959175,-0.027724562533807104,-0.08932593056607042,-0.24927673990713284,-0.10429957001365765
0.476,0.023743945151678936,-0.014168705114425419,-0.03794313601327628,-0.004050951991812693,0.030287196674538084,-0.02531618633964959,-0.006239430174819854,0.07454187609507017,-0.02720014186811184,-0.08590657352913851,-0.24830681821371386,-0.09921855751494832
0.478,0.04594793436641549,0.0014817430733243047,-0.044636201257825685,-0.022862706976295704,0.04404132013937756,-0.021030388687065287,-0.009010570483369522,0.06958913638851376,-0.03216087194339497,-0.08774191880378156,-0.2520811905016657,-0.10001259301484437
0.48,0.03693425385605077,-0.0034396700429310005,-0.04046801191291437,-0.016189265232711046,0.037080830397858526,-0.02257888026108324,-0.013759889632293519,0.06153500976132822,-0.036841058656148465,-0.09114968654044676,-0.25681621111237707,-0.10517904779812697
0.482,0.001084096242602653,-0.021379078066115845,-0.022539414121083404,0.01032700244043757,0.010544432606503978,-0.02361897153083749,-0.013422211192907717,0.06045777187075556,-0.03520050821814096,-0.09013539059164609,-0.25650648216358546,-0.10835662112870242
0.484,-0.028759071960671588,-0.0360422502075897,-0.007545032334495511,0.03282685479645644,-0.01109795703047923,-0.02349529092941095,-0.010196691038930481,0.06395273943319986,-0.030964708318940992,-0.0864167839877567,-0.2529072770259346,-0.1086838067255477
0.486,-0.031569362619556854,-0.041774603015916345,-0.010626197891661254,0.03792385838213315,-0.010554441036942737,-0.02709222190980781,-0.011123828726650221,0.06208671976695138,-0.0313947465789282,-0.0866794616518534,-0.25336508668849067,-0.11127264820454576
0.488,-0.023118086135511702,-0.045120880513737055,-0.02231511719482646,0.03609572079323696,-0.0010087637259355736,-0.03390010053068663,-0.01630649712938807,0.05298963011183322,-0.03572286015338344,-0.09165254727120191,-0.2592188621829306,-0.11778720396273198
0.49,-0.02775225948714081,-0.052376035352002824,-0.024768897283463726,0.04208409905552241,-0.003107565655028677,-0.03902156677707747,-0.019552506062965193,0.04437044517188367,-0.03838661958800432,-0.0963276512397381,-0.264883555952587,-0.1238200502755981
0.492,-0.04104638893594486,-0.06190138691519127,-0.021157318431069362,0.05275681118603818,-0.011957213979971773,-0.04302171838331721,-0.019184592644394392,0.04089482998950301,-0.039937952383519104,-0.09988549346685999,-0.2681900676281338,-0.12694286193318355
0.494,-0.03671560096584003,-0.0655908037756884,-0.029569314532785725,0.05157298140380968,-0.004827912764631906,-0.04979926233096286,-0.019937275967990657,0.038756651773049294,-0.04505642011702169,-0.10584438861235582,-0.2722702397070771,-0.1295588497673347
0.496,-0.00567710731529523,-0.05707027302730091,-0.05224756042333188,0.031705140777869886,0.023341484798876596,-0.056696389380825156,-0.024138998700215852,0.033965011672984595,-0.05243282920030921,-0.11312746199214199,-0.27757536081369666,-0.13248627636565571
0.498,0.026035267668148426,-0.04237666200048841,-0.06903304912249472,0.009149748617280816,0.04829448224125164,-0.05717695294953152,-0.028198433507609817,0.028973933210650265,-0.056055661426226006,-0.1162671447423522,-0.2805082184250759,-0.1336518230611284
0.5,0.02901345231198867,-0.03576707881420495,-0.06503802200049807,0.004828922585002254,0.047298256959930736,-0.05173918848812203,-0.02867217306072191,0.02785652008763565,-0.055132568360909705,-0.11411785205880616,-0.2796139875664081,-0.13355848938790102
0.502,0.011526093148310825,-0.0399909888115358,-0.05153196162115314,0.015463831915981718,0.030669107171615344,-0.04743082120906269,-0.026633472210532985,0.029414831531443125,-0.055077601642024465,-0.11157283749407275,-0.2775100615773026,-0.13529112349846636
0.504,0.00663018908031014,-0.04272016483428826,-0.04928901143848748,0.01880462118264522,0.026341418516048962,-0.047757141974942366,-0.02439554051697454,0.029960516350828904,-0.058775663754068314,-0.1123966850812037,-0.2765900498390738,-0.13899875204651257
0.506,0.02190115050273965,-0.03644017661835208,-0.058306455032523186,0.008031663416052166,0.038326071156603504,-0.04866194982994158,-0.021102782882801836,0.030585543129658176,-0.06223549267727893,-0.11395327510581936,-0.27567266563077497,-0.1405028995336757
0.508,0.028513469403946046,-0.029993176378174138,-0.058516144929421275,0.0020088437882562656,0.04149316809925557,-0.04508753572938262,-0.015381776064089824,0.0347406869065904,-0.06049796658358638,-0.11132102943477246,-0.2729000074774245,-0.1367416206708344
0.51,0.003130176571583286,-0.038362708561947526,-0.041513751146674084,0.01924077801709824,0.01972468233012127,-0.0407893988554015,-0.011441114845966625,0.038821618197176444,-0.05561245101848568,-0.10647215386942727,-0.27158797578170585,-0.13182225079850207
0.512,-0.04083108603067521,-0.06558537658154638,-0.024737173603677068,0.05467457121735093,-0.01085431269799475,-0.04644314671888314,-0.016054387542333515,0.03372904467689464,-0.05549999950698502,-0.10792024098062311,-0.2780946932318417,-0.13378833776620397
0.514,-0.07124101777665733,-0.09568161406118762,-0.024300567709452367,0.08457192858587516,-0.02573477914630924,-0.06189601614407764,-0.02741670813887558,0.01879761359000719,-0.06312570592425534,-0.11729827326104646,-0.29096906348977153,-0.1426893324303561
0.516,-0.07238313001827819,-0.10206873262898457,-0.02935151501929577,0.08804560002208302,-0.023194150781709496,-0.06816918130248643,-0.03297664142588894,0.0076434734484426715,-0.06986147339685903,-0.1227095696217234,-0.2980962002441353,-0.14665338867629998
0.518,-0.05109328930660162,-0.07176182267676756,-0.020247493164405016,0.06188295748935971,-0.01722573856310772,-0.0487377101772777,-0.0225031660271706,0.014085091135397017,-0.064813223573205,-0.11271550083633324,-0.2899221360873216,-0.13501554779531813
0.52,-0.018994922116965754,-0.02140475810891218,-0.0021586641764951937,0.020321197887404285,-0.010797634595085277,-0.01449299348305121,-0.0014965987581752468,0.033509563420482585,-0.050259449534396455,-0.09330517239578391,-0.2724716902909537,-0.11308995521664242
0.522,0.01224610656486327,0.013289667534056476,0.0010166604108407856,-0.012443269655787497,0.002984945918673371,0.004821814732416218,0.012233643924168069,0.04575308486756337,-0.041140906928567436,-0.08267324521889884,-0.26189092002214864,-0.09822802358958607
0.524,0.025220641645840026,0.009286449058034373,-0.016078191492755085,-0.016120831007725357,0.018435900003625875,-0.004800062199561123,0.007187052788217802,0.03925775952850514,-0.04683148004341903,-0.08917818738294468,-0.26618992589054913,-0.10012159115139545
0.526,0.012622319756417156,-0.020569957376850738,-0.03327590498696968,0.00587625898617135,0.02149427335415271,-0.027136630161808797,-0.009533048546039018,0.023779974861821426,-0.06004053306625559,-0.1026857347255884,-0.2775217597066012,-0.11075398838213851
0.528,-0.005330041701822531,-0.04254912044197452,-0.03730451628038226,0.02611153497973281,0.015125790363914017,-0.03963039620680117,-0.02173533576744274,0.014646261646285063,-0.06774593129102749,-0.10979163407402827,-0.28410348563037413,-0.11693783650773049
0.53,-0.006171991122282963,-0.0406025899815905,-0.03470255337662575,0.02545979037960416,0.013717046732663685,-0.0379708953386956,-0.02192185932961233,0.014522857116764046,-0.0664224674750904,-0.108651197993893,-0.2836197977142708,-0.11527405969691921
0.532,-0.0006104208901098998,-0.029932281573839346,-0.029764562562909387,0.017116448884308997,0.01417912311075366,-0.0310506916528963,-0.014869747011042494,0.016881693158210243,-0.061390269990798725,-0.10496134489628045,-0.2810631466022356,-0.11000424779509319
0.534,-0.013258614984286165,-0.03214865897309598,-0.019306137699832054,0.02436142906334505,0.0024978171254195205,-0.027203568981847344,-0.009204067302943712,0.01733493296403678,-0.058108791554053456,-0.10287579607313124,-0.2803466776036685,-0.10513754107043477
0.536,-0.03575196569294555,-0.04767872877696778,-0.01224347740741892,0.043295473719915586,-0.012774284859093116,-0.03144525869759007,-0.010731480380223998,0.01487356122726669,-0.0591932089338811,-0.10454250069762076,-0.2829850974663459,-0.10360559302977716
0.538,-0.03583491319242705,-0.058458321236357816,-0.022891429877577005,0.04866012997948276,-0.008043444992839634,-0.042397961641298554,-0.018415077008770483,0.009647869454142756,-0.06394102906710912,-0.11039761206091875,-0.28838450383034947,-0.10604142526252075
0.54,-0.013229279318997374,-0.055318128670522555,-0.04226881535635241,0.03567221846269198,0.012768193200267897,-0.05053929481877583,-0.024762927948455936,0.00393328329796091,-0.068616897042551,-0.11766752827118203,-0.29311176427461555,-0.10864212693379305
0.542,-0.004831851822805542,-0.050650840017883635,-0.04583833643815621,0.028893188259552626,0.01898057501345971,-0.04953235927767486,-0.024565775369321287,0.0009029777282209229,-0.07084139343113435,-0.12367077898154084,-0.2953148944497883,-0.10804216914213195
0.544,-0.025395020986196684,-0.05609302724017754,-0.030614842282099576,0.04133970945043105,0.0012953955087663398,-0.044438260486755386,-0.020354234816659697,0.0013032349813071056,-0.07158257278237623,-0.12806986247496951,-0.2975408743209831,-0.10586520667402652
0.546,-0.043238354596559114,-0.06214044391590463,-0.018844607510896894,0.05261031614299802,-0.013499068161796055,-0.04195835635777801,-0.015949769946027176,0.0037618827679855257,-0.071130377180621,-0.12895420107529573,-0.300490050376597,-0.10449467477320387
0.548,-0.030059408142917677,-0.05352435747721548,-0.023501728332375238,0.041440457527741587,-0.004351257672441631,-0.040101852203998124,-0.010386807135880631,0.007723333875868666,-0.06750400819408578,-0.12262108805467878,-0.29920133034046975,-0.10246716278579342
0.55,-0.0022434528557452637,-0.03405265897576548,-0.031978867397642635,0.018051507707961285,0.014216222175765396,-0.03398672647991778,-0.0019786619083966336,0.012950378343407955,-0.06093068939726543,-0.11071015695792907,-0.2911205075546913,-0.09787775354819855
0.552,0.00546903875086694,-0.02309345947307854,-0.028900503049088404,0.009238790540998607,0.016280650177089153,-0.026294557925765603,0.0062928796129340355,0.016430526590686504,-0.0563272487137213,-0.10199023560347893,-0.2830044882871859,-0.09325880259945012
0.554,-0.013977788116375584,-0.03115718037147828,-0.017564331991944255,0.023740409632949447,-0.00027232108361289337,-0.024500601181475554,0.009168557443722946,0.013946714956820339,-0.058166706420853594,-0.10327001892699342,-0.2836121721561544,-0.09307000807920357
0.556,-0.0372734677821389,-0.048236425472201756,-0.011073896560865014,0.04486733408375279,-0.016003340244066067,-0.030036313782916175,0.004761683936779246,0.00576790669806479,-0.06453651281349786,-0.11209686769029405,-0.2929207917556377,-0.09772769402542443
0.558,-0.04410507573726737,-0.057327250866032194,-0.01287130054900041,0.05346138754947934,-0.017863178295827443,-0.03602176607002625,-0.00323850058766328,-0.0019160322795446823,-0.06902977040699497,-0.12039345016050879,-0.30264976077440914,-0.10219094735043578
0.56,-0.03868658047453674,-0.05321798706959511,-0.013949368502446628,0.04844178020665646,-0.013073505438640283,-0.03517352454342629,-0.008079181030476622,-0.0030293092198091665,-0.06794151082420224,-0.12283766865321404,-0.30531371963015197,-0.10024768254304314
0.562,-0.0368909488590035,-0.04501719176984264,-0.0076789265585075935,0.0423456159024171,-0.01461872893973471,-0.028237286824104684,-0.006438490038672995,0.0010606127900010724,-0.06403996104686804,-0.12077501828276468,-0.30144078239164235,-0.09145472178424693
0.564,-0.040667304594651385,-0.04341096306107589,-0.002462889021279983,0.0422746521523757,-0.01998392070928994,-0.024673724321980693,-0.003005525234421914,0.0022222834927225986,-0.0635107717377849,-0.11936885048947306,-0.298616943974495,-0.08336470082330838
0.566,-0.03424401090830571,-0.04775983853464791,-0.013161082718870995,0.04098711024029673,-0.012780540381040033,-0.032032681500546764,-0.00499371105438233,-0.004562354683568255,-0.06923161529776747,-0.12175898130415112,-0.30255480815098273,-0.08311296829409842
0.568,-0.00787789319028576,-0.04680941762498635,-0.03843618367380286,0.028214246385594652,0.012652379958763825,-0.04420694211665133,-0.011407983096463402,-0.013613496654437002,-0.07635171330701879,-0.12527614125739286,-0.30914746158317186,-0.08772216411989223
0.57,0.024004532142098595,-0.03420369736065358,-0.05786868060975106,0.007055090572216748,0.039095718510280396,-0.04774060349875188,-0.013605512872955442,-0.015175084955776767,-0.07702580084402176,-0.12448212935428284,-0.3092034447631091,-0.08869333774634117
0.572,0.037337304565230774,-0.019757912698791666,-0.057241851577137376,-0.006629959091870843,0.04646577179433817,-0.040443443978273624,-0.008351889951252906,-0.009396987970658882,-0.07133578905903266,-0.11957594090089314,-0.3020631251412035,-0.0852941868827045
0.574,0.024380209996832772,-0.018993782242890615,-0.04389149498260969,-0.0011196600959889722,0.033847346465055675,-0.033547833910835406,-0.002924719933035899,-0.006755536724848038,-0.06838848136808601,-0.11779901999473819,-0.297928214094083,-0.08534954998031494
0.576,-0.0017184901981213954,-0.03443837796514214,-0.03311657602247324,0.019116650163960556,0.01543251206887224,-0.035709722240139255,-0.004387591839451973,-0.012985711998754493,-0.07374026138077834,-0.12322677877474633,-0.30391431110431294,-0.09243574267396337
0.578,-0.02004231072926998,-0.0518922091841193,-0.03184755473615163,0.03697324343659567,0.005273123163622529,-0.0435644387230118,-0.010228809298829331,-0.021257654061248465,-0.08155549646762188,-0.13007345607941342,-0.31397887881451736,-0.09942077932895768
0.58,-0.01712075359972218,-0.05508620006022159,-0.03775663817503324,0.03748274832665274,0.009269399677422829,-0.04815323988123348,-0.013181331637988337,-0.02273898190620137,-0.08332622575278008,-0.13105466880311928,-0.3170436245380991,-0.09794775185073355
0.582,-0.0013799596801641173,-0.046137989336562074,-0.044651955145681425,0.02554068480613204,0.020653024149917775,-0.04720319028866712,-0.011621079772794262,-0.018888265748791544,-0.080010744580813,-0.12825135760808148,-0.3120544942175326,-0.09061021441358715
0.584,-0.0004551452861689209,-0.04567878886139583,-0.045283299489368836,0.024878259389464193,0.022030422729921166,-0.047147764617299026,-0.010119042370128296,-0.017551139980977123,-0.07927570740517298,-0.1285300706397761,-0.30831776113542747,-0.08716526273391785
0.586,-0.028631550457082756,-0.06354438564420832,-0.03499897044567642,0.0475027521427414,0.0033151198428567983,-0.0508073286528973,-0.010446972316264526,-0.020496433452132246,-0.0826431599456981,-0.13154292132444145,-0.3108558367935732,-0.08978237664170896
0.588,-0.06161753593625548,-0.08094118518949765,-0.019332627574888447,0.072223725199498,-0.021205844701155056,-0.05181360300185988,-0.009063953279339112,-0.022680684034607244,-0.08397086218094085,-0.1314796276890774,-0.31459943624387354,-0.09125859888802054
0.59,-0.06273009041959463,-0.0769960678028842,-0.014223429375191922,0.07064611490035862,-0.025262417456114343,-0.04749032225424819,-0.005669935854817115,-0.022858090535310748,-0.0815337789772332,-0.12878192387064,-0.3155103058564053,-0.0886233584468679
0.592,-0.03329994605246551,-0.06181305201546415,-0.02848789137417271,0.04862934951567336,-0.004408055618818326,-0.046841127016605075,-0.006691125790488071,-0.026427189598015363,-0.08236612541845582,-0.13090696076900063,-0.31794133711844763,-0.08886246701136062
0.594,-0.01323681212717435,-0.06255535704740726,-0.0493297013411576,0.03955948279206125,0.015806394449180444,-0.056996853672109556,-0.015592631446893133,-0.03556002304137757,-0.09097740621906221,-0.14055918422971786,-0.32594698410665524,-0.09719245990115667
0.596,-0.027129188568858608,-0.08229726170896229,-0.055187154472557017,0.05688116238206886,0.012194429084076234,-0.06918573927275509,-0.025177007752786605,-0.04293848191569286,-0.10067203918946266,-0.14952204991756565,-0.3334285526565161,-0.10609885332072422
0.598,-0.05607866186382063,-0.09537815833005765,-0.039302522217299435,0.07804171334256185,-0.009882946617711616,-0.06770728049305777,-0.02506279653128915,-0.04002185217797638,-0.10134878727842682,-0.1477701123074262,-0.3299131208501081,-0.10266671935497329
0.6,-0.06711141409449105,-0.08338050738644978,-0.016260126364896637,0.07741624952441105,-0.026819377215586603,-0.050626776093056325,-0.014823160561968302,-0.028927761669229394,-0.09268805376497366,-0.13603903208838475,-0.31521706487787143,-0.08541455546749378
0.602,-0.05080326518150082,-0.057396191549819835,-0.006608932026312644,0.055944568586079414,-0.023330697254503378,-0.033105412820759954,-0.004498429701925382,-0.020628243969633666,-0.08366030641684012,-0.12432181899370404,-0.30136145093848776,-0.06714531031477629
0.604,-0.028358590903125296,-0.042944117700942905,-0.014718901641035358,0.037047279370937096,-0.007789875153452971,-0.029675939800106025,-0.0019933367087504174,-0.021739377574902987,-0.08041773099876653,-0.11936735312867185,-0.2981440815078713,-0.05979570674717759
0.606,-0.024971356828462073,-0.052858820993499235,-0.028219105009522138,0.04003213479754662,0.0007633485912995315,-0.04101156903586531,-0.005744236990289742,-0.029034247305691895,-0.0820440512083108,-0.12045303954994706,-0.3038347767490658,-0.06339392211179658
0.608,-0.037409350658760124,-0.07628360107779437,-0.03929774848799089,0.05801770695971142,-0.00010928844688209337,-0.058202397984730765,-0.010453715546952812,-0.036512528552079315,-0.08637100298998854,-0.12518927785242098,-0.31197536744238225,-0.07144051365569708
0.61,-0.04159971247476514,-0.09148624842193998,-0.050140199167862345,0.06769188745257679,0.002928331224711945,-0.07135533887430433,-0.012822192501133272,-0.04107545228551936,-0.09111724372342635,-0.13101677364683753,-0.318886445080217,-0.07817477844037841
0.612,-0.03088878329018792,-0.08800825178808369,-0.05711435063690744,0.06017593539950256,0.011678446065377344,-0.07334414135614674,-0.010316090266596613,-0.04143860869213995,-0.09180895925919463,-0.13342340478977344,-0.32161664015736185,-0.07820759337253025
0.614,-0.0227411990158255,-0.07266905036129287,-0.04991373398908739,0.048020039821596285,0.012170227349061726,-0.06246261839146493,-0.0013419184296494585,-0.03716198762312634,-0.08603189297541507,-0.1295790372132668,-0.31663017329415494,-0.06783565901659158
0.616,-0.025693210206173087,-0.05488928422245527,-0.029461206279078396,0.04076790723334239,0.00021299909267216352,-0.04366835371905105,0.011427474815909479,-0.029330006189639234,-0.07675880974661647,-0.12145487458710523,-0.30419579674076097,-0.049897802510980346
0.618,-0.026346220886521533,-0.0366819990604168,-0.010826698268617478,0.03255665082341629,-0.009979862054431767,-0.02526421141343355,0.021955326575763604,-0.020339238365457046,-0.06853855185566117,-0.1131412003535388,-0.28982844466669033,-0.03290273723584172
0.62,-0.015622942054845325,-0.02167099231846937,-0.006490935280036184,0.01987807102967935,-0.0069550633866879786,-0.01542960421235457,0.025029750240644702,-0.014482513468670728,-0.06532726094713703,-0.10906784514291647,-0.2812190654481212,-0.025083458482158948
0.622,-0.0037139392364870225,-0.022040836305488053,-0.018630483758216795,0.01373710585447569,0.005873415514298077,-0.021691754397915694,0.017624090698473233,-0.018299648078053704,-0.07184298346110528,-0.11419590532995878,-0.28527301869346533,-0.03045616406779209
0.624,-0.0010701842339667631,-0.045439345639257986,-0.044594484408122595,0.024024196119280028,0.021499125687980628,-0.046687943237484104,0.00018740355287721986,-0.03481046836683692,-0.08894334495593831,-0.12963916445669513,-0.3032997158713186,-0.04635475479059664
0.626,-0.003467091598096138,-0.07918708352035846,-0.07578782557839961,0.042655244690278135,0.03659598135824913,-0.07951070785610757,-0.01918574687210041,-0.05544416781031529,-0.10660718412415122,-0.14704094838161638,-0.3257757390059985,-0.06216751951097543
0.628,-0.004848141324730637,-0.09729284925906706,-0.09227794640303241,0.05263769430749871,0.04365554810818026,-0.09686999998426846,-0.02646256807735343,-0.06349769402006857,-0.10961386674778704,-0.15216851427308398,-0.3360410238359749,-0.06460212791520059
0.63,-0.013819465669785688,-0.08677557756001818,-0.0727840333823282,0.05103811445725205,0.02822449025422294,-0.0817996025307115,-0.013712062011951874,-0.05018507307261041,-0.09275216913081717,-0.13746324911611205,-0.3240806899511414,-0.04815147433487947
0.632,-0.0409609363642957,-0.0628596238908157,-0.022005812598859198,0.05154011216112506,-0.011686084312725071,-0.04463850224974167,0.010092903366749608,-0.026145923861282356,-0.06765388765270436,-0.11218451267430628,-0.298581274695775,-0.021994787987751667
0.634,-0.07118377737172765,-0.05249568120892457,0.018374698614516384,0.06132998677750162,-0.04706629673402021,-0.019566557289244682,0.02356815572916551,-0.01370729868776986,-0.0544571258582825,-0.09808827769127372,-0.2826056754853725,-0.005899994615371238
0.636,-0.07260549815771207,-0.06384942846148056,0.008489078521274462,0.06864038833117289,-0.042155631313377684,-0.030163404662406402,0.013673318881958727,-0.024540350543047013,-0.06365592681197037,-0.10870674903641495,-0.2909051983676302,-0.01336587460880591
0.638,-0.037908915378373376,-0.07901763977682962,-0.04123493271377873,0.05986093149018621,0.0007796279056695262,-0.062209790450170124,-0.00887304495031527,-0.047092097526772445,-0.08471570656928985,-0.1332915419959585,-0.3129475917720855,-0.03628603039830771
0.64,0.004150390220445598,-0.07902901438065342,-0.08312904859693067,0.03926513034737599,0.042915419571206814,-0.08267709975985295,-0.02201785328129581,-0.06086765970869427,-0.09828786291732046,-0.1487390279464839,-0.325854106129539,-0.052074324077466635
0.642,0.021877098390448376,-0.06591794494293064,-0.08747264412212621,0.02408548113706455,0.05359574318116203,-0.07796675775177156,-0.016749394494554544,-0.05863209101047986,-0.09729425939560293,-0.1447445332219235,-0.32037444612491356,-0.04681509419694612
0.644,0.00886467303482982,-0.05437619102219675,-0.06268769205159133,0.025201110261678056,0.03425366552265064,-0.05970708995894813,-0.0010825238301297455,-0.04796931754285649,-0.08819850171753149,-0.129426843467849,-0.30554164746294243,-0.026203492273874463
0.646,-0.021151198601724392,-0.052397148374875926,-0.030743049948326592,0.039252087503302446,0.002929256846869376,-0.04278115749976406,0.014218928293473343,-0.0371145174622015,-0.07752769690401631,-0.11490922726563065,-0.29274946715786454,-0.005327829690520288
0.648,-0.04757902235074584,-0.05501400299731489,-0.0072509271067622075,0.052965539106642257,-0.022249179678240284,-0.03234112799194308,0.024433759818488027,-0.028716247441735836,-0.06728304982736227,-0.10637315214712656,-0.28525295890104163,0.006047529568394186
0.65,-0.05012253055586759,-0.0525689861653713,-0.0025544623657329244,0.05204793747946097,-0.025813522964728112,-0.028616985112479742,0.027878510410969237,-0.02543133522754048,-0.06081927462364969,-0.10416750466960781,-0.28227633314582856,0.00695737891513761
0.652,-0.02760606727123653,-0.046336688585454616,-0.01887984624533488,0.03783266718238553,-0.0060591182328650645,-0.033425913996204586,0.022592722687428787,-0.031727513389804445,-0.06382734532914235,-0.10854984260566065,-0.2849560772774574,-2.3342329645572294e-05
0.654,-0.008515468047964408,-0.04957972069327507,-0.04108466875281511,0.031189008549535574,0.014932518277796554,-0.04612492115311452,0.010615958431565603,-0.04599281910952105,-0.0753674982179878,-0.11743739951418426,-0.2932418392932994,-0.010637005336399488
0.656,-0.01859402004959345,-0.06627473183694213,-0.047633970113150785,0.04545376729323835,0.013366525679080657,-0.05811472250152856,0.0010392982426270395,-0.05828614593143658,-0.08443641969182761,-0.12429531185089371,-0.30129740837840646,-0.018375254940035956
0.658,-0.04668087710278534,-0.08239632108092847,-0.035802778613301896,0.06693039251205683,-0.0063811500500517235,-0.060681359896846976,0.0013076954714351145,-0.06204016291511043,-0.08354818801419583,-0.12509527687478453,-0.3029959634865824,-0.01962833985953258
0.66,-0.06285576764866613,-0.0858937640361582,-0.02338148097887604,0.0752435798848605,-0.020282786735659437,-0.05614910630937352,0.007445955711969217,-0.06194247112375739,-0.07986721391961474,-0.12473750916684022,-0.3000016774110262,-0.01795793052380938
0.662,-0.057532507413208346,-0.08248961659471052,-0.025433190581735887,0.07001361565997001,-0.016148820635915502,-0.055003673757328196,0.00893973333434307,-0.06548393418776556,-0.0839674524266084,-0.1310212325579408,-0.29915439661145027,-0.01950326989806562
0.664,-0.045941903978077014,-0.08498742600505282,-0.03943867926383749,0.06605638075580685,-0.0031237881442818527,-0.0631367352911189,0.002505375623515504,-0.07238460421941001,-0.09410064297479541,-0.14337301403655325,-0.30330552133081745,-0.02601616737324008
0.666,-0.04217810861839162,-0.09305587008480481,-0.05116532608474041,0.06944219524135369,0.004597048964149132,-0.07345807544314656,-0.0030773591831277777,-0.07552826646433493,-0.09944126565478348,-0.15124879320979298,-0.30751439767567773,-0.032885744558687466
0.668,-0.04457319311917266,-0.09198295111349755,-0.04769830038565908,0.07066021621432522,0.001540757046693343,-0.07140983840852347,0.0025221422143658035,-0.06871967366767663,-0.09275982595080808,-0.14463004551011907,-0.3039138397585433,-0.03277046988344767
0.67,-0.04612644767756477,-0.07534624215334378,-0.029524359234478298,0.06286054861385942,-0.00863226848150426,-0.05362934618370728,0.01705837625436482,-0.05395886365415649,-0.07647303554975976,-0.12625894592372566,-0.29130581737347605,-0.023553695734865737
0.672,-0.04455029700085728,-0.059925731573598276,-0.015598930782312928,0.05401088448179809,-0.015524068398976675,-0.038542411724986125,0.025380975560922076,-0.043461020501575395,-0.06275927793892089,-0.1127016880861687,-0.28058249548498215,-0.013679798470888706
0.674,-0.041052372139249824,-0.06592457831305953,-0.024879764232611012,0.054932931502389745,-0.009912203267827963,-0.04616597072931885,0.016322870288255693,-0.04897767952414892,-0.0648988302178622,-0.11826259409664341,-0.2853312883468578,-0.014605078300591172
0.676,-0.038686234406334646,-0.08833590139113297,-0.04941859849242007,0.0644424572642974,0.0034325019329862283,-0.0696548964881051,-0.0023802669823175145,-0.06622017040262013,-0.0811472306596388,-0.13692409306103048,-0.3041474197580597,-0.026729749304311722
0.678,-0.038107101690185226,-0.10207940293373498,-0.06370524737167815,0.07081492497077099,0.0114148893352061,-0.08349597690356034,-0.012189920902342987,-0.07841705315421121,-0.0943625843407395,-0.14816174399458942,-0.31969065946527786,-0.038932970889241046
0.68,-0.03420630649053549,-0.09314285681667128,-0.05885800755968733,0.0649166549116861,0.011385841267782509,-0.07688248202648497,-0.005686782504957932,-0.07730203163557807,-0.09315773937095129,-0.1418768885585544,-0.31897412138337133,-0.04234373352120466
0.682,-0.024459961886955792,-0.07306726890578642,-0.04872432904603067,0.05064476719415364,0.011131415375317026,-0.06288229189556216,0.006342606596569353,-0.07124298345088871,-0.08454738959681005,-0.12907339794040645,-0.30714156931778885,-0.038839209097576134
0.684,-0.01470617594748823,-0.06138686651834116,-0.04690477582830231,0.03990222352496207,0.014854540472417911,-0.05725345878827249,0.009830056459610676,-0.07119102026794638,-0.08187681220236419,-0.12580771377904187,-0.29784384434108235,-0.03588072783722513
0.686,-0.011143059586663092,-0.06270392022984518,-0.05188383046522763,0.03825161582166744,0.019119515620666536,-0.06063449146681146,0.003846881213534938,-0.07676435970409756,-0.08763422275642418,-0.13367566597172154,-0.2964383686368703,-0.03680541457707495
0.688,-0.01594257200005143,-0.06821999386726933,-0.05264775849171871,0.04317784749143468,0.01743119916249662,-0.06330602712185754,-0.001082024192459035,-0.07978810042464773,-0.09286400608688314,-0.1410354442194643,-0.297619219263402,-0.03856315601400031
0.69,-0.03218501023552492,-0.07328167415576588,-0.04132942362493881,0.05424893633590587,0.004173138722445832,-0.05973692765927262,0.002275186512489433,-0.07633531572716888,-0.08990862857300237,-0.13896062698983477,-0.29554090714260706,-0.038021373754662344
0.692,-0.05884365750920886,-0.08117000427491097,-0.022318167734010592,0.07196700606723463,-0.018213567594052023,-0.05385707275705769,0.010013280114339303,-0.07096043779049119,-0.08103695859787395,-0.13024319852101418,-0.2908355353658463,-0.03694897926429053
0.694,-0.07779644879854736,-0.09181209839792054,-0.013890621115178886,0.0864232654055612,-0.03175775146322251,-0.05432614682685235,0.01261998986870376,-0.0717909316160977,-0.0756464509858127,-0.12529918465095136,-0.28930134922246775,-0.04027581923438077
0.696,-0.06587775233373605,-0.0975967693488949,-0.03165618641022769,0.08249456957664707,-0.017087070881904864,-0.06534877737202405,0.0060296731510759306,-0.08161140523282716,-0.08005882662605185,-0.13111578072520816,-0.294712875155072,-0.049688791256469536
0.698,-0.02766061390642012,-0.09284716352595615,-0.06522153675043102,0.06067184728572701,0.018392505286898148,-0.07983166874128966,-0.0030742832893627245,-0.09265968691854928,-0.08999450449528493,-0.1428635366036175,-0.30248849320547544,-0.05931667968215963
0.7,0.004860367646874715,-0.08198618356036931,-0.08689743778251786,0.03949561248050999,0.044990497853736114,-0.08637820394327758,-0.005441928624221413,-0.09497134247469873,-0.09624445998430979,-0.14936766275800928,-0.3044578159224328,-0.06171504843694577
0.702,0.007501974192857797,-0.07419861545620765,-0.08170618878753867,0.03509198660762295,0.043546054290841636,-0.08108770065947477,0.0004264906903571675,-0.08758606080428033,-0.09482120114565269,-0.14547677188355537,-0.2984892884034693,-0.05650895426868235
0.704,-0.020186076523583306,-0.07375678296180849,-0.053545761292301604,0.04935764977832445,0.01607794159338006,-0.067073738445388,0.010037340561649127,-0.07600063161698511,-0.08721917374370575,-0.13466979778409763,-0.28892925037602657,-0.048924285029882504
0.706,-0.06190585022883186,-0.0788380549913776,-0.016917236328370517,0.07309171192341087,-0.022411712231193034,-0.05079490721048513,0.018532261074595522,-0.06540984054664371,-0.07775764752765155,-0.12414664170583978,-0.281659358714103,-0.04450868003462278
0.708,-0.08975374300939715,-0.0841752814923915,0.005572016884585507,0.08959556301357098,-0.047364572654413975,-0.04173499142953849,0.022164919317843864,-0.05987040600532344,-0.07303804126741,-0.11977300317798645,-0.28093007874616166,-0.04677875711303373
0.71,-0.08036578948409152,-0.08277672986316952,-0.00242218045678344,0.08370168425493232,-0.0392233142523873,-0.0450275407514836,0.020505687355157624,-0.060877607025135304,-0.07601223396288415,-0.12140570662103359,-0.2863676264298701,-0.05419419672121804
0.712,-0.039652754560785215,-0.07121464986724502,-0.03156374724921242,0.0570263499447896,-0.00541738946331583,-0.053839362074995685,0.017612930708034845,-0.0654744582720415,-0.08082218155885325,-0.12381705425213857,-0.2922677933984494,-0.06012377724182932
0.714,-0.001247136127336665,-0.05596293743170644,-0.05468861321212606,0.030157039518889633,0.024275178857252503,-0.05713774384099126,0.01738468419974944,-0.06902659433901787,-0.0798332661222587,-0.12363220049320026,-0.2926562415043461,-0.05980791023371673
0.716,0.004142795817239403,-0.05100865278232588,-0.05501661553992064,0.025486250697171493,0.026951539463453925,-0.053880272955290166,0.01880830732552479,-0.06959378579544663,-0.07431580157990886,-0.12264872909681346,-0.28752826506600637,-0.05593404455885386
0.718,-0.023667397557821712,-0.06427566940575055,-0.04030397655966114,0.046493037754668086,0.006623910070888653,-0.053027678338851914,0.01778587476264956,-0.06928235725335044,-0.07274300726533085,-0.12442545723115862,-0.2829962590699832,-0.055123485567699
0.72,-0.056760390284654835,-0.08722502873752286,-0.03017583404267707,0.07448187557699275,-0.013910468346088254,-0.06018938462876327,0.012425503346744618,-0.07203832446452997,-0.0795226397533121,-0.12999402611711447,-0.28494494350340377,-0.06025186518684338
0.722,-0.06984906083965424,-0.10295305498853384,-0.033176413296121914,0.08840808383234436,-0.0189758509601969,-0.07006067863336186,0.005391362553294889,-0.0793211028746785,-0.0897159791026041,-0.13659959575408331,-0.29239211725781816,-0.06777110377351053
0.724,-0.061187967584551924,-0.10160580630847305,-0.04086501955254152,0.0827449752342513,-0.011895992547074831,-0.07301418741573334,0.0016987150718617765,-0.08707038852222523,-0.09446831479738985,-0.13935656289841308,-0.2976430140218371,-0.07174765646496335
0.726,-0.04144535800880892,-0.08470651189342872,-0.043683611288580955,0.06391114958655014,-0.0015939688861887511,-0.06558204186550584,0.00428550473560506,-0.08860972243335588,-0.08965252151901226,-0.13538914840934857,-0.29489848536608654,-0.06977873358232371
0.728,-0.020797612113469588,-0.06325707736165528,-0.042628530949949305,0.042711810092063776,0.008143265344579308,-0.054134515499681804,0.010820149403278207,-0.08267034958684295,-0.07993589894219086,-0.12811542353301114,-0.2877156787162337,-0.06541444319104077
0.73,-0.01193779763333151,-0.05349781205570226,-0.04171799299583971,0.0333434158282153,0.012790582128054827,-0.04868143787820354,0.015548477088248866,-0.07621812666117772,-0.07418557878064873,-0.12476690385745746,-0.2840950540180707,-0.06403123111959305
0.732,-0.024608835419181036,-0.06210032297411289,-0.03794786178534716,0.04357667017532361,0.0054944933432847665,-0.050929160240177074,0.01607386569657711,-0.07556966200814848,-0.07515959067746945,-0.1265667290618621,-0.28519445069062105,-0.06580041653467233
0.734,-0.04929774760958879,-0.07576313769401002,-0.027245346320493857,0.06221711177811791,-0.011531699114374903,-0.0522801847848495,0.01604728652569597,-0.07828716613896573,-0.07646977987261162,-0.12641078007499848,-0.2845406176620877,-0.06573494045798652
0.736,-0.062260138204015936,-0.07718714035079324,-0.015868503529754916,0.06936268205740061,-0.023796195973521225,-0.04741096055825068,0.01861355446662854,-0.07857434243584761,-0.07287396936060844,-0.12046418735094748,-0.2785743985903042,-0.06166016474122781
0.738,-0.052095390109960456,-0.06638009418072673,-0.015140046129193297,0.059364766763590385,-0.019761205797998397,-0.042006915654109425,0.02157720708934599,-0.07617188960235291,-0.06852230748024851,-0.11464543012323923,-0.27199454127793565,-0.05759756708399928
0.74,-0.03046608251778495,-0.05623178131646749,-0.026185332540606326,0.04401600539023055,-0.003830189830360776,-0.042951132752507476,0.021741458997088358,-0.07545194724414322,-0.07048279761960265,-0.1152826884550435,-0.27123492777751507,-0.05822478274917812
0.742,-0.015557665728639725,-0.05459064588393384,-0.03880791577805419,0.03605410221185026,0.010121549980977963,-0.04900296242479659,0.019271569131626753,-0.07896802117996775,-0.0785290824138933,-0.12107246080808763,-0.2770875871363635,-0.06399449426554174
0.744,-0.01245370665293469,-0.05834764762503105,-0.0453006538866545,0.036405626557420454,0.015055752199178552,-0.05459933247525054,0.015782249096515603,-0.08538533956891788,-0.08602370880824073,-0.1275296993636273,-0.2856569332849883,-0.07211986999787598
0.746,-0.012796288593440432,-0.060834561600446334,-0.04766276233097767,0.03757352064685945,0.015826211977758124,-0.057083327380060035,0.011550499785310399,-0.09242309344870317,-0.08885744246280632,-0.13300707046983312,-0.2940152472363502,-0.07985030346498921
0.748,-0.010141577226674525,-0.06034959770031431,-0.05037958200070559,0.03580244549314814,0.018516584229978955,-0.0575914986412812,0.006329447173966267,-0.09849056981955606,-0.0890576068979875,-0.1377485007372565,-0.30190343648710766,-0.08638510445519441
0.75,-0.0070555859341799474,-0.06013234244532633,-0.053631412655494745,0.034316506589226976,0.02218065453644444,-0.05791920778168043,0.0019307291432037346,-0.10145086885442726,-0.08928631521303285,-0.14069974801611793,-0.30811498517430913,-0.09174983662761722
0.752,-0.008906160852113829,-0.06302146854863075,-0.05463248156608804,0.037071624035722416,0.022068028631031186,-0.05870147473678627,0.0019546728411781768,-0.09973634362936638,-0.08846238770717417,-0.14012477342581542,-0.3095762107677284,-0.09468524173580233
0.754,-0.018888952126591526,-0.06971709427364235,-0.05100861783534636,0.045710705292565344,0.01514188879551564,-0.05992618879874492,0.007089239648718042,-0.09589871605197275,-0.08519030167899158,-0.13710230969156326,-0.3061946300659087,-0.0942197665575154
0.756,-0.03351115144653713,-0.07775516002508609,-0.04415305967509702,0.0573189664718684,0.004264864047042171,-0.06121516824095874,0.012603866252541673,-0.09499379940668155,-0.08144056834113259,-0.13555644767788808,-0.30226696847479584,-0.09220417980705727
0.758,-0.040409909421243256,-0.08022384093474691,-0.0397764078124036,0.062430992357529226,-0.0015541245028892134,-0.06114722080968426,0.01391548679301243,-0.09812295720661678,-0.08015208848545913,-0.13705031321821814,-0.30068765437601097,-0.09086597480438564
0.76,-0.033556383846672665,-0.07320840222188517,-0.03980985864571153,0.05573354202150716,0.0013847610356554308,-0.057999004699823824,0.012756293986568091,-0.10148688044528363,-0.08158356338330036,-0.13796981950451886,-0.2997803901984992,-0.08952878743607563
0.762,-0.03002078950950806,-0.06582484776374019,-0.03583705070266114,0.049883661310907094,0.0006995956520654621,-0.05237198249199475,0.013432668399411889,-0.1023602745629174,-0.08359333265344542,-0.134520536330666,-0.29767581216945377,-0.08684593897813396
0.764,-0.05160828418572182,-0.07308645970578367,-0.021025522351457767,0.06375395279476959,-0.017469438363790016,-0.048750395453873795,0.01496015949555888,-0.10217658022554964,-0.08482962182605742,-0.12896680926732162,-0.2962740040428428,-0.08465798238645283
0.766,-0.08878079247572894,-0.09539773909069266,-0.005895781158147823,0.09367310219774297,-0.04344417319357991,-0.052210016533683935,0.012642241318009137,-0.10309588189973606,-0.08639008475806395,-0.12757393606873713,-0.2982588783606784,-0.08656717816145745
0.768,-0.10725904545131137,-0.115746284944002,-0.008080613297556775,0.11391381603683245,-0.05180333497551134,-0.06269612121924875,0.005984804217581475,-0.10481557287636678,-0.08952049743672157,-0.13280276834887214,-0.3024732557829064,-0.09329617232091941
0.77,-0.0902431505115663,-0.12013878980317953,-0.030020511484951957,0.10813143868571702,-0.03265956308455796,-0.0749931264668268,-0.0005581748607248888,-0.10603308523026889,-0.093001146021129,-0.14074063595954026,-0.3053841784797993,-0.10167352193463487
0.772,-0.049611163418113134,-0.10810190757955564,-0.0588695982878299,0.08159469676833658,0.0022265807211132296,-0.08320290681251108,-0.002917839792035061,-0.10618478268547467,-0.09408966432883244,-0.14572620101987915,-0.3052666062978293,-0.10719963346150001
0.774,-0.006250165563436724,-0.08544837080559203,-0.0794775575361451,0.04806757804439204,0.0348528148579242,-0.08259174508413822,0.0009159916781493808,-0.10428265681918263,-0.09062853289926927,-0.14436260472212584,-0.3019526065031884,-0.10619109909498341
0.776,0.01621615777833342,-0.06279803583308485,-0.07900582410380497,0.025165969859329132,0.04647849689581792,-0.07147568955565939,0.011210951891130746,-0.09925935162163002,-0.08203862768416255,-0.13613610892022912,-0.29487294046120444,-0.09769663212936387
0.778,-0.0010698265269594815,-0.05445035575479157,-0.05311844885714277,0.029642542742182185,0.02508671342605253,-0.05470391358285558,0.024492323069528203,-0.09270414074139927,-0.07073955965112419,-0.12385714341957679,-0.2845282263555469,-0.0852260731380615
0.78,-0.044512626996472626,-0.06293683314697383,-0.01813164549324949,0.055765429012625975,-0.014320009737657142,-0.042047735867912495,0.03404960815375269,-0.08862191053681395,-0.06249371598965246,-0.11373198281939847,-0.2747517485875155,-0.07525513557025243
0.782,-0.06809716190705374,-0.07284033107921203,-0.004548470582439038,0.07238356911932481,-0.03312065744487563,-0.04105210896308877,0.035132393185609644,-0.0901772072419348,-0.06256041305259818,-0.11221609494808094,-0.2713986531272593,-0.07295359379438607
0.784,-0.047909445808939695,-0.07115560440598011,-0.023022651360783953,0.060919166414075195,-0.013858593127657803,-0.04999738749527761,0.029495957523279295,-0.09632224854268048,-0.06994922659408219,-0.11959005507263834,-0.2766721675021665,-0.07826602281250541
0.786,-0.018431362062245635,-0.06479001282798726,-0.04600270157039219,0.04242556536309657,0.012271409153997319,-0.05825393066534856,0.024232551754258716,-0.10094469704973687,-0.0768055288598908,-0.12722821945581314,-0.2845109779912819,-0.08482558025015006
0.788,-0.025085308176573475,-0.06887107007542739,-0.04336570986153563,0.04764501280251838,0.007535182652921708,-0.05862098885139575,0.024062875402772542,-0.09948660608542775,-0.07704912898033976,-0.12687776266626344,-0.2867739299386892,-0.08597470575290907
0.79,-0.05930228228988196,-0.08467521219521969,-0.024886643681948845,0.0732402134720123,-0.01842652180598542,-0.05697703808389122,0.025404986029134494,-0.09644959497445876,-0.0744635550892188,-0.12210717047112332,-0.2844378223305606,-0.08335377213691399
0.792,-0.07785538386896505,-0.09893925479267178,-0.02046012544301753,0.09076488379470408,-0.029107386068287392,-0.06161591974317431,0.022426306266734412,-0.09942001802362394,-0.07613980824543906,-0.12238519702029313,-0.2835654251599194,-0.08321555112412451
0.794,-0.06909254249727541,-0.10206247570459018,-0.03237457758918162,0.08880494238557694,-0.01842755532733823,-0.06873596075662239,0.016885213490569602,-0.10725831347259399,-0.08060217462705914,-0.12771992658413994,-0.2812037257639074,-0.08529667800676584
0.796,-0.056184087098528755,-0.0966101085817599,-0.04017000444954111,0.07965367818636505,-0.008687123941224003,-0.06942236922700647,0.015243123316534763,-0.11222660318054611,-0.08110145468261605,-0.12956138005336407,-0.26834880903353503,-0.08487962540352655
0.798,-0.0506333395059598,-0.08914418066849514,-0.038624766193256804,0.07260250194983146,-0.007734535540878756,-0.06437611550898432,0.018706665065857688,-0.11106718876380692,-0.07719824999038061,-0.1248398093068855,-0.24555665155332648,-0.08214439204734351
0.8,-0.045278674350866834,-0.08380315230109299,-0.03869795465933934,0.06675255185951742,-0.00575366538919073,-0.061171534115653924,0.023020910447834362,-0.10685086422408897,-0.07426500537737629,-0.11927371484830643,-0.22347701913623005,-0.07998715664521616
0.802,-0.04127490293622848,-0.08373750355561353,-0.04239506989343817,0.06449350883957923,-0.0019227431786393101,-0.06280526134173933,0.025272939286284123,-0.1035907846371212,-0.07489166554608254,-0.11850896016475078,-0.21023035044238905,-0.0785954759649099
0.804,-0.0502049019456475,-0.09101887352595076,-0.04055650291569897,0.07240056580049054,-0.006726895797580234,-0.0662262821086866,0.02553861245637824,-0.10412114650033284,-0.07740088974869214,-0.12274291381879132,-0.2062306973154918,-0.07844776484507578
0.806,-0.0724072114119579,-0.1019206644724085,-0.02950864103270265,0.08851295685729102,-0.02267144678018615,-0.06735861694276839,0.024629235022054028,-0.10859029416023411,-0.07933714640096956,-0.12780977278043376,-0.207183391288192,-0.08087857782770368
0.808,-0.0874471649245893,-0.1052001445885043,-0.018371734651484294,0.09717653245813479,-0.035306954505230505,-0.06396716892227758,0.02399174499933408,-0.11211224863534305,-0.0782286228107068,-0.12796185990958325,-0.2067055452332114,-0.0830888808657823
0.81,-0.07118422229754977,-0.09147019877497849,-0.021227176591409602,0.08196320246940351,-0.025493868718035526,-0.05779658257481818,0.025466477791819438,-0.10911730945398315,-0.07251940113836154,-0.12079860283222758,-0.20029041637287312,-0.0806691798259404
0.812,-0.025872547631009876,-0.06606110005894086,-0.040671005662296866,0.04659033004766441,0.006847313228316526,-0.05366882483902157,0.029159442896998292,-0.10074743736386513,-0.06373268628985873,-0.11044143274275318,-0.18950366712882197,-0.07435187767909955
0.814,0.010594707462793642,-0.04716123729440654,-0.05746366749053227,0.018850934114505405,0.0330365818812925,-0.05234834442831959,0.0331066383073615,-0.09321536009839311,-0.055412251338358545,-0.1030256467953157,-0.1793021004099693,-0.06786260287249074
0.816,0.0009563659406740003,-0.04800021298742146,-0.04840579697360396,0.024089928622760156,0.02332333710264985,-0.04892618150309169,0.03510495512494672,-0.0903841941813979,-0.05063854781943283,-0.10088363952125125,-0.1729523064213488,-0.0627596675503249
0.818,-0.04206168437216754,-0.06130433546533209,-0.019051387038657268,0.05254978645421772,-0.012600393275339915,-0.04148328339346572,0.034705053666657264,-0.09138839866051045,-0.05049722877926358,-0.10246227718096185,-0.17130583213445302,-0.05894249164361036
0.82,-0.06385207551741373,-0.06589247996140173,-0.0022323724079397907,0.0662079428546464,-0.0314432270034442,-0.035079737218694666,0.03371546869788686,-0.09367011237312282,-0.053143448423138694,-0.10509908923919653,-0.17305265947604642,-0.05632214390473086
0.822,-0.03737955655572029,-0.05441826265952795,-0.01723924591649725,0.04740085050123975,-0.010772088484123157,-0.036003223572918526,0.033395024482125654,-0.0965641454410826,-0.056296144793282654,-0.10766351398573482,-0.1760554551820106,-0.05582911382711392
0.824,-0.0006715775719186268,-0.045430883916962456,-0.044753994257394736,0.024111871123861033,0.021079645481679756,-0.044807710106652535,0.032306667806441,-0.10132186981920954,-0.05995035580874103,-0.11080030999866755,-0.1796812330892364,-0.05899878562194854
0.826,-0.005239040898241603,-0.057289304150657125,-0.05193895954516869,0.03165661398777024,0.022662619109531386,-0.05484757156306872,0.028817618619528813,-0.10787859024351863,-0.06376867628390243,-0.11429711060199654,-0.1830905044650217,-0.06384335405603273
0.828,-0.04839443746592839,-0.08225707275691042,-0.033812123782715524,0.06563668475084887,-0.007585181609003285,-0.05943238229881433,0.023678909276145067,-0.11398222233151452,-0.06555281071723085,-0.11660995409939959,-0.1839759030057592,-0.06523682062282658
0.83,-0.08084957965986152,-0.0971360660198674,-0.01632292623485259,0.09004149395115237,-0.033061866320032406,-0.05884750103431409,0.019291799556524818,-0.11701806133131722,-0.06457376474148638,-0.11668138624285153,-0.18149598741133213,-0.06204489391843528
0.832,-0.07007396056758511,-0.08854535468532128,-0.018494396601471837,0.08133036429255479,-0.027893886156764518,-0.05509338344412247,0.018523361619730446,-0.11434710443684264,-0.06144036191984936,-0.11300755064847831,-0.17589111633149623,-0.05686264406863596
0.834,-0.033400301908147495,-0.06150968929732257,-0.02797966492804872,0.05005999542084958,-0.005633562459397215,-0.04512730568500714,0.023324837456617075,-0.10482524727052889,-0.05489537797869871,-0.10349576937806475,-0.16618366453919267,-0.049218072177413905
0.836,-0.007214977110236064,-0.03285060864786857,-0.02530639535017319,0.022718008623390677,0.006559639249649176,-0.02903846968956325,0.03112954634882425,-0.09367608083826161,-0.04558911091692962,-0.09092932732258868,-0.15447692544231628,-0.03881696884126216
0.838,-0.003393297171439773,-0.018679729755869217,-0.014982927314907288,0.013645046429827576,0.004213991019404178,-0.017345015274759856,0.035264008912918456,-0.09035555640465537,-0.0400660871839861,-0.08366658363895375,-0.14832178425063863,-0.03183649037769591
0.84,-0.008770894940523515,-0.021570361179079265,-0.012878473653746544,0.017839243652088096,0.0006414861680953094,-0.018205113840171858,0.03402319178880967,-0.09560286677492981,-0.04175888603431501,-0.08451716004295849,-0.15096288913236136,-0.03282772964610634
0.842,-0.013823821721586842,-0.03040591118859256,-0.017040439432793538,0.024718831695083387,-0.0003839590475613815,-0.024653560054800787,0.03510860765881835,-0.09743676980006277,-0.04283062465608803,-0.08507859175198586,-0.15399010388183895,-0.035510384388728035
0.844,-0.02219993234656609,-0.03510722277669384,-0.013309547781824185,0.030675544337542094,-0.006859165050878795,-0.025200028196477833,0.04466444875765174,-0.08737907342183657,-0.0350097138677794,-0.07802173159558821,-0.1474885626608133,-0.03148075289309301
0.846,-0.03223752247920574,-0.03690499229481195,-0.004678015817526519,0.03569851447821355,-0.01598728315897539,-0.022226016472302438,0.055353181519420896,-0.07442162341544427,-0.023912685036118143,-0.06943185329001443,-0.1348585010939241,-0.023635889205145588
0.848,-0.0285905507744691,-0.042186546822201645,-0.013247896724639078,0.035839389539893934,-0.009267010745036622,-0.029342664523690814,0.05310220087601354,-0.07452061871872961,-0.023171936046089043,-0.07161063893769963,-0.1306489456682368,-0.023091405814274917
0.85,-0.005297869093928607,-0.05218894847164069,-0.046314076526213166,0.029006559485050275,0.01965647630441707,-0.05029534251493999,0.03622185953767951,-0.0895686378018894,-0.03607279679188045,-0.08592529025035929,-0.14225699120389573,-0.033747850611538684
0.852,0.015507378998571865,-0.06298661192509353,-0.07779018000582864,0.024348428427272063,0.046493342517509424,-0.07057366460384625,0.01994649773553384,-0.10506119681400203,-0.05037800858712684,-0.09943893390946376,-0.15906843711722654,-0.04562605151511504
0.854,0.004981902884525876,-0.0717023572228823,-0.07609246501753363,0.03464210034271106,0.04071636127042218,-0.07387222607242767,0.018179236515671687,-0.10811230671686396,-0.0521986742541503,-0.09943416038581677,-0.16434023299749345,-0.046339864901194926
0.856,-0.03581815849173321,-0.0780089431526537,-0.04197732809697583,0.05870107316801102,0.0029567456377179177,-0.06045447678781645,0.027474766249465436,-0.10092028711526592,-0.0408346583502721,-0.0871825830678604,-0.15468244407972462,-0.03585718282120272
0.858,-0.07368435127653436,-0.08126784855013147,-0.007715851833603665,0.07937385287260411,-0.03381162540911986,-0.04543844098586124,0.03424706362540442,-0.09482542463417162,-0.028328774940888375,-0.07514976001647536,-0.14209636257641756,-0.025028476980850672
0.86,-0.07966049538569492,-0.08026596966192111,-0.0007868564284213938,0.08178443339301705,-0.04065885336758284,-0.04164945629369502,0.03170685952972897,-0.09621793052162744,-0.026112368310053643,-0.07289458366007148,-0.13830194444403335,-0.021777754039036517
0.862,-0.05903894228821176,-0.07692655827136938,-0.017890891863673097,0.06969075954658091,-0.021600975635658753,-0.048533496652945166,0.023361111040155414,-0.1022495342391392,-0.03485675078451594,-0.07945539420374569,-0.14337225655683722,-0.025344045885285924
0.864,-0.039975690088367336,-0.07746199816580313,-0.037271397906427604,0.060328983450987264,-0.0021909756328456096,-0.05846332910857544,0.015116069800767776,-0.10726822956972415,-0.04680032076883143,-0.08801029192644712,-0.14995714725615755,-0.031865462028848414
0.866,-0.03623549751913159,-0.08506096579013954,-0.04844408630664702,0.06222506433501979,0.004963885429773832,-0.06806982378518987,0.00976022985834005,-0.10914133937072264,-0.054385982851097504,-0.09364772794384639,-0.15288973746597628,-0.03828987463422534
0.868,-0.03215941557536629,-0.0928594243951748,-0.06029671076258184,0.06402700597514079,0.012559191360479744,-0.07856550902006505,0.005938841624324367,-0.11070752919116485,-0.05667491192151315,-0.09692187010836986,-0.15279032767134024,-0.04260690056177849
0.87,-0.012168216712820723,-0.09129664250193412,-0.07891140338868283,0.05324186110514954,0.03211299396491034,-0.08784592538283947,0.0007149964348927432,-0.1162084251938785,-0.05845135559250363,-0.10093820197769389,-0.15276150047262757,-0.04455556764428988
0.872,0.00917363644393563,-0.08074475986736356,-0.08995194830016731,0.03767048646644103,0.04908268761852899,-0.08824749105128542,-0.004699902165017463,-0.12461531784073517,-0.06178043156636266,-0.10478514611832287,-0.152651790713385,-0.04398108445947464
0.874,0.0071054198410822516,-0.06822992434347773,-0.07546390931667045,0.03314487514416514,0.04119845361210597,-0.0740383131704465,-0.004057143312316223,-0.12821460742701662,-0.060434736745995546,-0.10232745372798771,-0.1473451129936082,-0.03815660235822523
0.876,-0.013910294829673125,-0.056540280933974806,-0.042680678424573196,0.03827536443523833,0.013800230468463223,-0.05074305665944326,0.005022402915195086,-0.12192629546844577,-0.04857360201368358,-0.09069722674639027,-0.13380934077389794,-0.025314436229902683
0.878,-0.027784858441472802,-0.049423446923712304,-0.021595879358624386,0.04158068370146547,-0.004428349404323097,-0.03604225338347362,0.013762903408468176,-0.11301442765023242,-0.0342654332555668,-0.07862702277191946,-0.1200929602851866,-0.011777908617911169
0.88,-0.02939898230717679,-0.05900074515283171,-0.029553811565535937,0.04674478844932375,-0.001604724783489581,-0.0448467279916068,0.010923824092384378,-0.11449527124748773,-0.03359066227507079,-0.07936084075510987,-0.1201346267268977,-0.009110939255927316
0.882,-0.03927800420069186,-0.08936874024893121,-0.05009075212298297,0.06625991724800605,0.0034877534463925723,-0.0705363263129218,-0.0015076453064090441,-0.12771224954017896,-0.04882674647814635,-0.0936072095726372,-0.13582533042059722,-0.019974251357090037
0.884,-0.06444137559948329,-0.12133943178297836,-0.05690214171569677,0.09399389619081462,-0.006008995261513687,-0.0900578930667733,-0.009297106428279031,-0.13977081326084345,-0.06424275860247307,-0.10783182981840471,-0.1522393591595872,-0.03228151775116936
0.886,-0.08474678948483966,-0.131005531063287,-0.04611790617015251,0.10803852177912461,-0.021356436985849388,-0.08935581987904752,-0.0029927042194642277,-0.13917607654006472,-0.0656814466712794,-0.11056515986064198,-0.15506902846140616,-0.03174531384337745
0.888,-0.083888985525381,-0.11741627471655554,-0.03306030310996111,0.10026970246667398,-0.026549833445261347,-0.0754721588227216,0.012361653071727789,-0.12741008823497155,-0.055231866083400326,-0.10333213664534119,-0.14630550739465295,-0.017605092206292316
0.89,-0.07072664063872941,-0.10238087329924403,-0.030893496128191044,0.08648843163408096,-0.020375858324585414,-0.06625242837097728,0.023640725173278063,-0.11675013087535445,-0.04669235960703351,-0.09702497188809966,-0.14060979646182317,-0.00442095980552151
0.892,-0.06177740127486369,-0.10505236281820399,-0.042596201744363016,0.08444221936635594,-0.010343633760505759,-0.07349495577176886,0.022414590030213354,-0.1188943334623729,-0.05062754607880085,-0.10099981812415014,-0.14890106270142847,-0.007038760044847661
0.894,-0.0572415603244414,-0.12022352097923461,-0.06277958484076154,0.09096026036935145,0.001239119451289389,-0.09200318324521915,0.012272543168902672,-0.13296802857748385,-0.06309778732008554,-0.11351755508094791,-0.16581542367885038,-0.023357598798672174
0.896,-0.04672173428632169,-0.1271742208097476,-0.08075825890174833,0.08969746529541642,0.015018109331775416,-0.10519691659094972,0.003562548694311822,-0.14741467968267938,-0.07107674944727572,-0.124218152578636,-0.17639385476762498,-0.03719911888636031
0.898,-0.032933488353780384,-0.12021932356058629,-0.08782066339777751,0.07887620597020102,0.025492349201405737,-0.10504620905553053,0.0015693604968017845,-0.15476098788749285,-0.06945361126173057,-0.1271181175754414,-0.1752456448361418,-0.03866729800755808
0.9,-0.034083579560854116,-0.1183551953699669,-0.08470891126252998,0.07765058826120112,0.023739350757490642,-0.1016695276631534,0.002238579627395612,-0.15827517627146184,-0.06656227158554207,-0.12651092080963647,-0.17179691604887687,-0.033925838221278065
0.902,-0.05792786159503867,-0.13759396998509574,-0.0798188314814438,0.09890949760803767,0.009576333894129995,-0.10821460658266942,-0.000593747077157464,-0.16310050372291263,-0.07120339005711568,-0.1286184551619638,-0.1754371871042862,-0.03314252552520402
0.904,-0.08543965287081107,-0.16431352436304378,-0.0787907972292723,0.12664860782737128,-0.005072272159539683,-0.12115515355043002,-0.005619719807217131,-0.16705221777416396,-0.07987320110080759,-0.13201646340546802,-0.18270870758394872,-0.03611278826149641
0.906,-0.09171213742399269,-0.1690746633072462,-0.07724488391645008,0.13278618323894065,-0.009462032613014365,-0.1231894537406561,-0.004250410597426954,-0.1633305679702232,-0.08041649750343492,-0.1295848032807264,-0.18239064474613428,-0.03412365964622469
0.908,-0.07629974181341083,-0.14387648495016733,-0.06755814752307963,0.11212765221683076,-0.0063264384007513256,-0.10592848496724036,0.0076254352790921095,-0.1505483278292996,-0.06725521528527434,-0.11876070527556687,-0.17005924377088721,-0.022601129855450635
0.91,-0.06056145973250189,-0.11357982974196346,-0.05307046474378692,0.08818972966856263,-0.004800037628114587,-0.08340714496664564,0.021310492299306493,-0.13767152633860347,-0.05019664006073611,-0.106927920551936,-0.1545729806854961,-0.007893864947456803
0.912,-0.060355342497757224,-0.1066947563875315,-0.046374356779412235,0.08438018124107736,-0.0074762999492443746,-0.07667916132299259,0.024724078302441856,-0.13615733398076585,-0.04449469061991335,-0.10396784396080085,-0.14823872576841363,0.00010392539504557735
0.914,-0.07058490624050744,-0.12232539564746213,-0.05172914438337461,0.09791267110385361,-0.01019696559422551,-0.08788772214009141,0.01791125152068399,-0.1471350110730245,-0.052986203911930825,-0.11067574607507244,-0.15221225758204246,-7.875549182323246e-05
0.916,-0.07283870799001714,-0.13481323836286133,-0.0619501919653975,0.10576987986363898,-0.007095915302027238,-0.10026005736105519,0.011088766298192325,-0.16087626870097324,-0.06411003140922672,-0.11929512160640955,-0.1578994889680472,-0.0023072569530989922
0.918,-0.055996840554533404,-0.12815138875077398,-0.07214911520465457,0.09372051038045151,0.005536512005597674,-0.10251761896588192,0.009747668287902798,-0.1683549089015634,-0.06742127517472316,-0.12404779188512667,-0.1603047504016777,-0.003069379479600203
0.92,-0.02944298355436727,-0.11325639285796638,-0.08382407714130233,0.07220673761771189,0.02434132006379349,-0.10072118571890282,0.010457647760224977,-0.16858103611627967,-0.06436328457666246,-0.12542782167573163,-0.16106598693636737,-0.003321667796764236
0.922,-0.013992444981460742,-0.10906454612647588,-0.09505821516201131,0.06181803816210426,0.037984135024026276,-0.10385293233687223,0.009942984660311145,-0.16528527065414425,-0.0617222619224139,-0.12495168615875936,-0.16117987001802267,-0.0022842291448000765
0.924,-0.024501876223570297,-0.11883495059336413,-0.09419978388430479,0.07209301120916023,0.03266059313103541,-0.10798219752639415,0.011211656544024975,-0.15999031112228135,-0.05971335899047838,-0.12077933098796273,-0.15815012958806995,0.0034544581302256424
0.926,-0.05929106946089399,-0.13203662277417186,-0.07241279688747354,0.09674910091227534,0.004579654254098511,-0.10356609038704863,0.01793871693641514,-0.15201821197104684,-0.053638053102713794,-0.11185862424054384,-0.15051547377659177,0.013326278036895437
0.928,-0.09838161466184289,-0.14110740625419824,-0.04230171491784206,0.12145567545613563,-0.02963259378523565,-0.09311826444555509,0.026088298353449037,-0.14481440915158397,-0.0454328485130294,-0.10355729319156215,-0.14244143490706587,0.020188557141521284
0.93,-0.11738346845077478,-0.1456496343188301,-0.02803477468069751,0.1333842246871839,-0.04563247806818908,-0.08802228408479343,0.027595960940802234,-0.14413221274707216,-0.04320820763399074,-0.10208287033129569,-0.1397589565861738,0.018557896043844647
0.932,-0.1068020878168625,-0.1436133803203425,-0.03697014024510081,0.12657967525020822,-0.03530970620336126,-0.09073859717192369,0.02149104748637799,-0.14895608187430512,-0.04915684190524389,-0.10519965757965977,-0.14173087231099557,0.011788720466900117
0.934,-0.07467903657773937,-0.13101550303566134,-0.05680936386568728,0.10346302758057582,-0.009072729077222999,-0.09400101664010034,0.01466744438096758,-0.15283370403211247,-0.05697089902156569,-0.10610564652824626,-0.14255521929051218,0.006921298318818805
0.936,-0.03769828696689512,-0.11167376440786532,-0.0744601321151169,0.07505973562542499,0.017985215613853883,-0.09402025003234094,0.012456829277672958,-0.1537205160223887,-0.06072626914468743,-0.10366724501674926,-0.1398839585384733,0.00622911985699196
