time,I,II,III,aVR,aVL,aVF,V1,V2,V3,V4,V5,V6
0.0,-0.000636248999965461,-0.001930686620584847,-0.001294437620619386,0.001294437620619386,0.0003290943103269626,-0.0016015923102578845,-0.001294437620619386,-0.004058829827365872,-0.0053532674479852575,-0.004058829827365872,-0.003203184620515769,-0.0023475394136656664
0.002,-0.00444440619792491,-0.01348647397991007,-0.00904206778198516,0.00904206778198516,0.002298830792030126,-0.011187643187879945,-0.00904206778198516,-0.02835224643503822,-0.037394314217023376,-0.02835224643503822,-0.02237528637575989,-0.016398326316481564
0.004,-0.013939558936373692,-0.04229935125520293,-0.028359792318829236,0.028359792318829236,0.007210116691227772,-0.035089234563975155,-0.028359792318829236,-0.08892477252514253,-0.11728456484397176,-0.08892477252514253,-0.07017846912795031,-0.05143216573075811
0.006,-0.02619511021134126,-0.07948861029648382,-0.05329350008514257,0.05329350008514257,0.013549194936900653,-0.06593941535958317,-0.05329350008514257,-0.16710673755510808,-0.22040023764025063,-0.16710673755510808,-0.13187883071916634,-0.09665092388322466
0.008,-0.033715487784486554,-0.1018664912735195,-0.06815100348903293,0.06837039969591757,0.017162908800552032,-0.0844841862660828,-0.06771221107526365,-0.21352611655153556,-0.2821159124543378,-0.21407460706874715,-0.16899031215285407,-0.1238840776162726
0.01,-0.033737234371170995,-0.0988409498507283,-0.0651037154795573,0.06685566554779536,0.015354951140575964,-0.08175598826260272,-0.0618411511706543,-0.2030189625736739,-0.2716046385690189,-0.20715750191669594,-0.16384074887684852,-0.12039268007155426
0.012,-0.03191250500789668,-0.08360747623258957,-0.051694971224692916,0.05825366575374947,0.009017836406810675,-0.06818420068285766,-0.04048278762095314,-0.15883284080226745,-0.22349194569893815,-0.1733243716705355,-0.13807511890087992,-0.1025203866919663
0.014,-0.034595647723910244,-0.07352809542121261,-0.03895438731799087,0.0545239388509594,0.000783597532133394,-0.057633681181504075,-0.014810773985815234,-0.11671677203703977,-0.18632958797488583,-0.14863419132535544,-0.12023543380100762,-0.091567326446417
0.016,-0.04139842276739062,-0.07170566824345931,-0.030438561241515574,0.05702620793355909,-0.007013957784294138,-0.05286006399134619,0.007009204133182803,-0.08972585987200933,-0.1726558310420365,-0.1406979755893003,-0.11618622999476688,-0.09154858424393082
0.018,-0.04662085390385385,-0.07058918129863377,-0.02429574645472643,0.059041731307915714,-0.012395220338205941,-0.04876330728526237,0.021256816633765364,-0.07200313100091489,-0.16616458068954423,-0.1368339246988552,-0.11667815133249351,-0.0948895468071217
0.02,-0.04594271542161966,-0.06529921083055559,-0.019779100625314128,0.05589504787196862,-0.01380780739110859,-0.04274026374015925,0.02646115652631783,-0.059167308858179356,-0.15485190156392958,-0.12974334204705446,-0.11745868554762856,-0.09791187981728182
0.022,-0.04096236938236074,-0.058786178564928945,-0.018079349853937283,0.04992225320879956,-0.011798697005240173,-0.037667222486030376,0.024079648798160685,-0.05371760008585037,-0.14352820300709995,-0.12386455552290551,-0.12160692382927878,-0.10281383285567129
0.024,-0.03712964814245576,-0.055861677172984535,-0.01870635557039113,0.04646306141330298,-0.00952905300658306,-0.036375889789373436,0.019879491865238998,-0.055780820254947114,-0.1402478034995763,-0.12353992810743532,-0.12943223937642628,-0.11003859817761727
0.026,-0.037876144634946436,-0.05608813789881283,-0.018066196657187675,0.047240227551177315,-0.010359716032461472,-0.03680210882146007,0.020839085647852054,-0.05916967984869549,-0.14281389401036412,-0.125229399569065,-0.13571759187779334,-0.11622927822987691
0.028,-0.042309367183387805,-0.05502446216198441,-0.012651879268379821,0.04954928958100182,-0.015258283496080268,-0.034400582110423406,0.03002165543666747,-0.05786610188265502,-0.1420554608962489,-0.1221952028271124,-0.13581150266616576,-0.11864400684239326
0.03,-0.04786790801416145,-0.051096424655338264,-0.00327464656133754,0.05090814911901881,-0.022368119812428717,-0.0282377057900726,0.04449249958152175,-0.05168763702962314,-0.13318822835928779,-0.11241385995756167,-0.1301601063764952,-0.11793315650471653
0.032,-0.05297690851399789,-0.047284746596649205,0.005635743594826232,0.051603197767251544,-0.02888349465956075,-0.021902924455639124,0.05829824212398761,-0.044180102094592465,-0.1196389202138173,-0.0998813277457307,-0.1228144636792558,-0.11663474437255891
0.034,-0.05703655635646781,-0.04556887096230572,0.01146552425579737,0.05227997864395294,-0.033554679612289404,-0.017930594240187888,0.06798207500217755,-0.03678669600701317,-0.10698072918962634,-0.08955142147789859,-0.11699560538614154,-0.11637378995474042
0.036,-0.059479575604599946,-0.04399938342403988,0.015509797985634413,0.051998538456241965,-0.036854278173309996,-0.014895130559515683,0.07414493618860978,-0.027368910214806436,-0.09715050402950069,-0.08299932774745872,-0.11278224900886079,-0.11690777937309553
0.038,-0.05999736817348833,-0.04088197820385843,0.019130708360846967,0.05021835150809432,-0.03909367139402916,-0.011350463284163212,0.07801613844638419,-0.01472388954624157,-0.08939092108596176,-0.07866769834155837,-0.10860026564754234,-0.1172926320462723
0.04,-0.05930127184786032,-0.03817771718979298,0.021114733784567418,0.04849909628712228,-0.039795931300551986,-0.008948601276156303,0.07927358041801955,-0.0017752510620310195,-0.08311708974505917,-0.07445231434742988,-0.10399410088296611,-0.11718732021708295
0.042,-0.05866127437663374,-0.03896803701536007,0.019680671295856825,0.048801355874137135,-0.03869720239680647,-0.010108998996383472,0.0773250881081826,0.0068138987725365205,-0.07780195009700781,-0.06950445215322748,-0.10081893166202426,-0.11692945962326587
0.044,-0.058682764703589366,-0.04352497746023048,0.01515659870761965,0.0512215784556176,-0.036384742861364075,-0.014708567897990755,0.07290631939997337,0.008343996760223174,-0.07267766771461799,-0.06427215777658779,-0.10140195557568177,-0.11686433170293992
0.046,-0.059028216561165275,-0.04872341134462938,0.010311094188509624,0.053939387469821735,-0.03413878172991427,-0.01973642245604642,0.06838086963638773,0.003654529340245318,-0.06828050374676507,-0.05942325497453997,-0.10513244169457493,-0.11697382186560436
0.048,-0.05907391823489376,-0.05085621923149149,0.008221351260228238,0.05498702138624568,-0.03315193260393989,-0.02187389235212672,0.0664984683643281,-0.003177177421000044,-0.06609049432285802,-0.054958201842775035,-0.10818066192612584,-0.11673245128632788
0.05,-0.05819594958215385,-0.048659941844025584,0.009534320227300776,0.05370615819447134,-0.03338401172283812,-0.02037555421893878,0.06867132297371094,-0.006437172973265931,-0.06532910846276906,-0.050361143929366685,-0.10706833381294849,-0.11465708180007873
0.052,-0.055655058733914534,-0.04373568249929313,0.011916577109474155,0.05056278882760182,-0.033292483400341084,-0.01727465627273856,0.07487662922865146,-0.001393030183538405,-0.0622315864986791,-0.04534394229104217,-0.1010536015531366,-0.10905443051751437
0.054,-0.051133810789963256,-0.039126040274945616,0.012007354427667566,0.04653915359913283,-0.031085405720977084,-0.015448645526916887,0.0842832202900965,0.012439459624923979,-0.054021053578686855,-0.040121855436489086,-0.09149504047930006,-0.1006222174154621
0.056,-0.04530261830287708,-0.03703606821423297,0.00826787888957332,0.04264165730792308,-0.026431468405545066,-0.0163481600334794,0.09486900765240765,0.030037860989651794,-0.042594491990183066,-0.034929935429323856,-0.08095481134534568,-0.09282758761203525
0.058,-0.039127303020307536,-0.0365151353955478,0.0026130293993068734,0.03880734396967189,-0.02085136397230517,-0.01844411031936396,0.10312222032668172,0.04382039856986062,-0.03360927718468041,-0.0295826034519822,-0.07312662821756145,-0.08846056473162209
0.06,-0.03329793257322449,-0.03458489924401748,-0.0012872801983524517,0.03420467534704079,-0.016412695227876094,-0.018707160864818613,0.10555979513247354,0.048409958379725844,-0.03173085369836799,-0.024128519482703836,-0.07132461891662983,-0.08735678730666599
0.062,-0.028936843182725772,-0.030645823518540862,-0.0017096003841585443,0.029567194792221158,-0.01427410940298181,-0.016453521184017755,0.1016122472491987,0.04392892789810493,-0.03597092427237196,-0.01984727765194244,-0.07497264209911135,-0.08772658655855994
0.064,-0.02765051448123412,-0.027636171789512422,1.4217622072273402e-05,0.027399319271432746,-0.014496987247163324,-0.014117514368707331,0.09481198131079853,0.03582613345271716,-0.04045220536640391,-0.018076298755510648,-0.07923916128116414,-0.08814045061517381
0.066,-0.03053445633221084,-0.028234153726123964,0.00230058124083814,0.029370813364878637,-0.017078307511335242,-0.013779564401261856,0.09045390030801763,0.03089023099888121,-0.04044412895701185,-0.01763488501714913,-0.08016511437013903,-0.08815932103939039
0.068,-0.03747142307455738,-0.03219629459033742,0.005275329828859256,0.03495345252816035,-0.022190254307689245,-0.014954848130169365,0.09153976854740782,0.03227022627552843,-0.03606269557820529,-0.015622634785968429,-0.07844411558351441,-0.08799125979708489
0.07,-0.046466334132258695,-0.03762344122778557,0.008842837020215964,0.04210946632375835,-0.02860725363695071,-0.016341442279929137,0.09622854254295787,0.037391824551385525,-0.030162084989085153,-0.01160608008052167,-0.07706920569216799,-0.08791364624008469
0.072,-0.054060014532641684,-0.042705195309724206,0.011354682651069913,0.048404008149312554,-0.033533019615929034,-0.017654148553362257,0.09980602801900237,0.04135398168267329,-0.02487045861049954,-0.008269822558241737,-0.07709562453135713,-0.08796628720461919
0.074,-0.0575409936089367,-0.045612748285654606,0.011928210586429526,0.0518542725058248,-0.03512234335450001,-0.0186110826586533,0.0998116499937205,0.04323549408255976,-0.020470425407144263,-0.006829341420802907,-0.07664383404675183,-0.08803137187712956
0.076,-0.05631237589763957,-0.04475308066609475,0.011559353169763085,0.05140005901292384,-0.03372175300858289,-0.018238067631074245,0.09797499962849003,0.04692780567741769,-0.016204491739808834,-0.005131944430582564,-0.07364952030649681,-0.0880331454531233
0.078,-0.051529970620285616,-0.0409434306704427,0.010586586581019835,0.04764632947145859,-0.030417764377368258,-0.01686609582718103,0.0970330202542049,0.054647050998360584,-0.011447617464847695,-0.0018031515257464596,-0.0690888240611125,-0.08799858338055905
0.08,-0.045215664038521786,-0.037549465674393614,0.007666189019495827,0.04290996712027716,-0.025922528913309328,-0.01666541855115561,0.09733138585193356,0.06297250764446362,-0.006138622264226883,0.0011516728990387237,-0.06622110899150514,-0.08820061742626427
0.082,-0.038926116854818886,-0.03643963199965438,0.002486454943935788,0.03899718413477808,-0.02097697900822429,-0.018445657228955286,0.09677580613310707,0.06678529652981222,-0.0003722332470139356,0.0015740384655492804,-0.06651115932088397,-0.08952436904910628
0.084,-0.033256991062375,-0.035552555708532836,-0.0022955738338152525,0.03554124910901183,-0.016855708230864613,-0.01980767657542156,0.0935841467290924,0.06469842090663878,0.005501697519702126,0.0002262888066444323,-0.06815539139662208,-0.09281308892314234
0.086,-0.029022197193091372,-0.03203162857529513,-0.0029874798267887992,0.031676577803837286,-0.015128900346694332,-0.017841332029073616,0.08898571544853015,0.05999085313382673,0.010096408454943872,-0.0007223103287197076,-0.06885832693537285,-0.09704029426342156
0.088,-0.027601187428082045,-0.02634804506934243,0.0013844688387844395,0.028122418356503698,-0.016541167744528587,-0.012639348729661395,0.08631724816339358,0.05744879215808606,0.011911039828571833,-0.00036257781467866296,-0.06832919236389332,-0.09947862360659075
0.09,-0.029640411666850004,-0.022273665439471405,0.007694163892145452,0.02677222304049083,-0.019947290690963126,-0.007560731152161582,0.08743691411720543,0.05984016355920349,0.011790286235185273,0.0010394749686846512,-0.06769398560432097,-0.09845145833166838
0.092,-0.03415074127373037,-0.022958599660771312,0.01161474031571711,0.028737302476256506,-0.02308943775430674,-0.00607333473909223,0.09144396961145033,0.06685789287684499,0.01282453495166862,0.0036138782001379796,-0.06767546928970092,-0.0945921632737355
0.094,-0.03866083301828621,-0.027212908284734823,0.011703463055040775,0.03265141612417274,-0.02454688432011438,-0.008216473428593229,0.09648853931935768,0.07578818363962739,0.01696014481918777,0.007866519747536896,-0.06801176457815633,-0.08944685066510435
0.096,-0.04048807750785956,-0.030457818747596427,0.010026527353017053,0.03519219394445065,-0.024413534269088575,-0.010699723669966361,0.10110833603696259,0.08318492308733771,0.022902787324693016,0.01333163551664152,-0.06818247877102968,-0.0844435763898252
0.098,-0.03851867482818684,-0.029375764372851672,0.00915037167892932,0.033875626575800906,-0.023363032312219277,-0.010551946885216476,0.10378678854431655,0.08724284592081918,0.02779696788094809,0.01827010243218638,-0.06808068504153168,-0.08141989739069286
0.1,-0.03386883655933676,-0.02469661743413936,0.009589677701206466,0.029188672427075013,-0.021832390063349014,-0.007827203380829848,0.10311402943051143,0.08849017349916494,0.029959049454206164,0.020941716284345244,-0.0679389687837271,-0.08218133718016973
0.102,-0.029266583896168385,-0.019953809844066146,0.0102621822245442,0.024227346358495383,-0.020291511012567334,-0.004893803305938424,0.0997736653872313,0.08836967768553139,0.029807355438085062,0.02109073093415844,-0.06792682804705034,-0.086007439905741
0.104,-0.02746930957083569,-0.01811924595367067,0.010565301687175097,0.022168910407426204,-0.01964789444737845,-0.003689748301136967,0.09683800449410161,0.08810177877494922,0.02926801149990973,0.020291349659862127,-0.06799835770158141,-0.08935316146877062
0.106,-0.029500907369448298,-0.019081942566599445,0.011554273304403666,0.023665497190898024,-0.02093773345385607,-0.0036935386291276698,0.09649534160192191,0.08872747677567117,0.030997692593223353,0.02089063721291565,-0.0680391465415343,-0.08971709057724941
0.108,-0.03416352941363112,-0.020492650048536898,0.014628624380824164,0.02683105921606625,-0.02437298680718092,-0.002940750571267993,0.09783098231862733,0.09119861040983547,0.03693253488241209,0.024050383560904578,-0.06801959422405705,-0.08817698846912209
0.11,-0.03873806235189543,-0.02071086356816018,0.0189360149467045,0.029293136634725745,-0.02838166979075647,-0.0009285405430230452,0.09871026308129442,0.09569053732130779,0.045974785216700086,0.028259391983083092,-0.0679879959868731,-0.08718096855420901
0.112,-0.04051523409949194,-0.020074518963761542,0.02141980018272354,0.029826253414373564,-0.030328462411318886,0.0006575596427491226,0.09843225284133136,0.10138084164038216,0.05430690368441083,0.03074857777599518,-0.06787387513151155,-0.08729177469049722
0.114,-0.03848918637571356,-0.019652360875829736,0.019876074221253173,0.0285485460666294,-0.02872960654890551,0.00012683022191284897,0.09782309477287485,0.10788327243277901,0.05942561061705809,0.03110310630848521,-0.06714466915955784,-0.08667614733610134
0.116,-0.0338401795866546,-0.019794433532795266,0.015075778624493334,0.02628963286458099,-0.024465198082826864,-0.002344009474497901,0.09768099738983944,0.11581121810076002,0.06249919199501455,0.032065188506262665,-0.0648822538279985,-0.08355816757378802
0.118,-0.029269115824772794,-0.020091315836294706,0.01017074927395652,0.024179116615707565,-0.02019107616206032,-0.00496112647981666,0.0979441021295927,0.12469977713065171,0.06611460759159428,0.03604945925091222,-0.06068962217870548,-0.07902769475455972
0.12,-0.02715707559288649,-0.019936180708879054,0.008201162375326263,0.023137981517447684,-0.01835629481959293,-0.00593110797372993,0.0981471835725861,0.13227489001295703,0.07123766707030994,0.042346655066867016,-0.05520142164692682,-0.07602238282236472
0.122,-0.02712097740761011,-0.01849187442684795,0.009601591421060231,0.02278455473814465,-0.01895571504289371,-0.004777147302728214,0.09810074519169046,0.13719478998941542,0.07696540862607747,0.04854203393762064,-0.04924299398756439,-0.07502182544674138
0.124,-0.02622466694293406,-0.015120033265277031,0.011959484062543995,0.02144545398686151,-0.019479655135031155,-0.002450672134823767,0.09796780462851258,0.14069220659865148,0.08224317124186285,0.053438770475635854,-0.043412927766988345,-0.07335800455083753
0.126,-0.02238368159255625,-0.010918907890948716,0.011991010577973993,0.01819284510734421,-0.017375207677243276,-0.0008452910126260229,0.09792965252094732,0.14466590595489534,0.08698790944633918,0.057631816701123446,-0.03893906050091909,-0.06980641326987308
0.128,-0.016789131940143812,-0.008428689403414784,0.008456040345476173,0.014272899990628253,-0.012655757044337421,-0.001443707964002516,0.09807172924513842,0.14973484998090433,0.0919152438801134,0.062024072145518735,-0.03704316499993976,-0.06672675164959256
0.13,-0.01300567882548615,-0.008702955527543469,0.004139595179994043,0.011903481679458842,-0.008524634173508175,-0.0032758901958228307,0.09875345316970947,0.15580811107756204,0.09810731706771961,0.06683353284230015,-0.03656364768396374,-0.06636614923239079
0.132,-0.013801968294824864,-0.010133720981604678,0.0035336554515399167,0.012164783826544656,-0.008624402108207155,-0.003575299864915636,0.10082209989138498,0.1632793843925059,0.10620592573968012,0.07184111462824266,-0.03459599343484981,-0.06781147132589035
0.134,-0.018062251270849525,-0.010743318624562015,0.007333243042770136,0.014110191395100412,-0.012698019830238516,-0.0014822217585873342,0.10488688384291546,0.1725354504781061,0.11507615890165027,0.07686593698214308,-0.030629403172664275,-0.06877297668071082
0.136,-0.021479021187614734,-0.010066691718476066,0.011489776696316506,0.015585356010760831,-0.016506824553257998,0.0009066383891528285,0.1100864816161972,0.18289909457660627,0.12243476830107232,0.08175816742884462,-0.027317881734150437,-0.06827841214508587
0.138,-0.02092320523824339,-0.008203605393039265,0.012749184649507975,0.014916045647733472,-0.01684696407416302,0.001961541738519216,0.11370957189717094,0.19294706964392916,0.12768982457285424,0.08598688252961892,-0.025982872638580963,-0.06643126876013093
0.14,-0.016807811701950864,-0.0049123918697370145,0.011867801824358181,0.011870383277658266,-0.014330968957354398,0.0024831788813780326,0.1131252527947999,0.20116358113202049,0.1322472638373548,0.08858329902110323,-0.024598624351080768,-0.0633250519383802
0.142,-0.011297411948020811,-0.0009768104080958686,0.010291393146247812,0.0075741862791613365,-0.010785322598313794,0.003205239499567091,0.10906573287292345,0.2060219779581865,0.13642055802015665,0.08906964069532297,-0.02169957211225764,-0.05980700811793054
0.144,-0.006147825584299688,0.0013208871426761443,0.007469810875276789,0.0038221219520130694,-0.006863050449674297,0.0029161088177338894,0.10573451865722933,0.2071775026026016,0.13881071080707624,0.08849597110433542,-0.018792087085874844,-0.05751105044648122
0.146,-0.002756407399888378,0.000385506036065122,0.003158353212724431,0.002126292826486395,-0.0032903180641921195,0.0005034471403667552,0.10671318839044483,0.20727282016241158,0.13978721236852057,0.08933970011119559,-0.017032363142295857,-0.05638005018507873
0.148,-0.002751922130793459,-0.0033532707858622258,-0.0005941010609079823,0.0033289502957497873,-0.001954861385937286,-0.003114541653538569,0.1116529009177789,0.21071894326113408,0.14287762593057513,0.09407726040321454,-0.014954726625986514,-0.05427287622271343
0.15,-0.006820822031122541,-0.008491105583490702,-0.0016757920623001938,0.007462743528440532,-0.0039560013471367835,-0.0062711371204525425,0.11691866342824615,0.21950548881244641,0.15096749276214477,0.10316207852626139,-0.01161067522020429,-0.0505731203598663
0.152,-0.013106011354358868,-0.013446870406652366,-0.0003474442388017652,0.013040024861944518,-0.007889510018164994,-0.008175983526471461,0.11909629900704971,0.23157146826673816,0.16286697351437196,0.11436732676132402,-0.008633297464479571,-0.04766137902326504
0.154,-0.017847701374892607,-0.015738054861785394,0.002109507437173384,0.0167661487567635,-0.01129897577385161,-0.008111717969545119,0.11809549168300977,0.24422348443728328,0.175153725535657,0.12454382229636499,-0.006999997684286729,-0.047461720666514745
0.156,-0.01793332628781097,-0.01255544146012088,0.005381412022431363,0.015353505052371891,-0.012806111205092036,-0.004843956902688412,0.11648504973861958,0.25703512106677184,0.185704975564364,0.13189516305332935,-0.005015362645583842,-0.04889266717538778
0.158,-0.013182000006146086,-0.004186002113646014,0.008997758515997364,0.008750802225856025,-0.01225306437340932,0.0011784067972394777,0.11618449610579508,0.2700566765827103,0.19401198774801368,0.1367475190193384,-0.0016544841710537206,-0.04975962657221517
0.16,-0.006195498689114872,0.004627879248901374,0.01082229402509671,0.0007571405176869452,-0.00971688058445516,0.006544470204324665,0.11666785280396157,0.28184496163668743,0.2002638808389613,0.1406683731761655,0.0013784410517804402,-0.04920580982677513
0.162,0.0004337626105900387,0.008564913064045125,0.008129671907388426,-0.004548201799725763,-0.004822841448251995,0.0074202309094595865,0.11585340588207294,0.2909307298327448,0.2059618199975158,0.14493236006644164,0.0030289954259715614,-0.04726110526950743
0.164,0.00590288955218011,0.006275976430692668,0.00037297216306616545,-0.00609823042911432,0.002369949860975591,0.002937385506460565,0.11243786154602667,0.2973740615423956,0.2132572877768159,0.149778555236444,0.004991952657569377,-0.04386394787001993
0.166,0.009858147858019377,0.0011615474522726193,-0.008695848322605651,-0.005487430463068731,0.00943198234879996,-0.00363443559581499,0.10787364552142097,0.30218475859450533,0.2219925318995416,0.15486003718672425,0.008333211110135156,-0.03992230232312978
0.168,0.011474066100986478,-0.0018907507034250028,-0.013364394965592127,-0.00472131488873445,0.01264629917880483,-0.007360599496557979,0.1053435669269235,0.3066166464970574,0.22981193828366037,0.1600118001364236,0.011258898132333493,-0.03756981795472963
0.17,0.010888633141198863,-0.0007015076743959628,-0.01159034975169618,-0.0047701053270939806,0.010980203100574347,-0.006071913858160154,0.10651063115648429,0.31251811581364936,0.2366406574668415,0.16572847342480257,0.012374434742033648,-0.03776845727033882
0.172,0.009732969968197006,0.0035207303091815347,-0.006212569665640133,-0.005764214515757254,0.006985625481972908,-0.0014491192248209763,0.11048675069836934,0.3221507488256635,0.24579794038988387,0.17297259553730687,0.013448951093855382,-0.039088003182507214
0.174,0.009410629859543811,0.008738497810852744,-0.0006721756566194839,-0.007692263852014787,0.0035645681647506105,0.003943430471645776,0.11561151990418128,0.3362279742124691,0.258749660976774,0.18216645275619125,0.01694482822024239,-0.039685747077027385
0.176,0.01007659059018167,0.013997442468406611,0.0039429507616932985,-0.010563970196686786,0.0016265776817967056,0.008993666582872296,0.12076063316118715,0.3526517030212645,0.2724689405882502,0.1926652110533279,0.022667630740901924,-0.03895444603366925
0.178,0.011780452085299153,0.019402036513110312,0.007774939684437583,-0.014518687582869928,0.0010685153818633024,0.013719724062996234,0.1250735489850779,0.3685305226770359,0.2843365322958246,0.2036056578628285,0.028517030621752686,-0.03637977060286428
0.18,0.015002062187156853,0.02489558876888321,0.010374161818012227,-0.019434961195334763,0.0020579823304109103,0.01789448387157267,0.12761501566927214,0.3829282079991223,0.2957276419532326,0.214300393211329,0.03335185830680091,-0.03080211518893419
0.182,0.018991167655907946,0.02917737655853482,0.011089415334684938,-0.02385721753689775,0.004150230178909518,0.02056448602919144,0.12804173508834682,0.3968078094902237,0.3083315622342846,0.22344276676219504,0.037742231564759234,-0.022652812190483953
0.184,0.021549747257805674,0.030815383340818483,0.010402503215002246,-0.02586396539122414,0.005757963895025399,0.021113186827238895,0.12724853598522995,0.4112418969933105,0.3209589344525337,0.22991632195458428,0.04253328390182224,-0.01476025431327354
0.186,0.02201666280662227,0.0306960904965227,0.009659352653892627,-0.02588245700579033,0.0059464613548763,0.020395574871252403,0.12661188560426834,0.4265707215624817,0.332480653446046,0.23514265530239303,0.04777099042631329,-0.008983891326662876
0.188,0.022723110868314807,0.03184303323122718,0.009626621585573588,-0.026908176752347416,0.005807067762400952,0.02021365672590873,0.12668795956194573,0.44226533207904645,0.3442464393685502,0.2421369638050734,0.052979147710597786,-0.004493762243270104
0.19,0.026178607432268183,0.03616022018442066,0.010002460555564863,-0.03109208665526421,0.0070925517828790505,0.021682745957630128,0.1270576510969886,0.45665105855551547,0.3572202631325284,0.25124853207960435,0.057828241622599655,-0.000636423602976892
0.192,0.032236968333615126,0.042408098412011444,0.009982558063640543,-0.037450220095751725,0.010255519562766728,0.02431563859076045,0.127414236499132,0.46822108648150973,0.36972136722951504,0.25951264458285145,0.062365640367291905,0.0014444379011227131
0.194,0.039018338631203936,0.047686991189787246,0.008562184636163187,-0.043458033774638895,0.014696257273978948,0.02648217304951199,0.12859377624182428,0.4782517397760305,0.3799201267039811,0.2652546472163413,0.06688903633801391,0.0011392588602684248
0.196,0.04501117634070156,0.05009822637544594,0.005128550685194377,-0.047540637278018834,0.019687093015546064,0.026720364033087446,0.13172991329069902,0.4899367376337266,0.38843067934166076,0.27071216649181806,0.07168146646916623,-0.0001316571111403249
0.198,0.04912870663331293,0.04993833193032681,0.0008847343068924419,-0.0494707541391567,0.023880700307425777,0.025148567667285467,0.1359628259952863,0.5038126789094812,0.39720575652735907,0.2788996439674338,0.07675953438669718,-0.0006609917528018143
0.2,0.05054184854707039,0.04924308031343161,-0.0012631745617646107,-0.04982608223449991,0.025430549370939016,0.023819096249015213,0.13837732911491457,0.5167551039162336,0.40714992414718504,0.28983393161816634,0.08157508985098279,-0.0002506551643579269
0.202,0.04977356243478137,0.050774363585321454,0.0011201108072489445,-0.05004554359665209,0.02355410555622495,0.025566140874452914,0.13684115729623805,0.5265450531832268,0.4175867822273836,0.3008673646690125,0.08452973058941471,0.00023548798260802407
0.204,0.04864139345590513,0.05641962192443202,0.008213425005445803,-0.05192076444670236,0.019227060182555482,0.03192203534289689,0.13208227842006795,0.5346514983068906,0.4275467600948368,0.30919672311623425,0.08379274402988791,0.00024822168471221734
0.206,0.04842979027084947,0.06509383324454619,0.017421325775539658,-0.0558051737226583,0.014456661539092253,0.04119317288378109,0.12719290898484914,0.5435835906131165,0.4369603146303808,0.3133257450636355,0.08000342771585565,-9.597530023105507e-06
0.208,0.04913570571531605,0.07297875666038714,0.024559424207700416,-0.059957692211686085,0.011255261040723476,0.04911217039927061,0.1252081999267898,0.5540108023304664,0.446451005508615,0.31384827135713583,0.07688297192555817,0.00018930812840902168
0.21,0.05079821434031659,0.07669504274835381,0.02628376418857448,-0.06250632750460502,0.01119105884234808,0.05199759398588965,0.12681225605011284,0.5656522759602627,0.4563239876718397,0.3139706602230764,0.07803656353831971,0.0023470416602910356
0.212,0.05397828120727084,0.07541910329191266,0.02174296050832993,-0.06316794143108602,0.01494654532809709,0.048926880212627706,0.1307034228921571,0.5786237231556108,0.46625822045137955,0.31788635693629813,0.08435165862452135,0.00811104893716818
0.214,0.05797011599424709,0.07051648143929239,0.013213238310947966,-0.06253152802745647,0.02102566713807844,0.04190084856303908,0.13552870390808894,0.5921680840086572,0.4759656841984898,0.32714446653587026,0.09425258539244864,0.01673123018904846
0.216,0.060772066735407096,0.06471128208777817,0.0049289452714127,-0.06123459594939409,0.02637809746095797,0.03457752100903416,0.14046030386181085,0.604218950391906,0.48563272725329243,0.3392904063795305,0.10519005202959067,0.02480820128110909
0.218,0.06256210157294985,0.06152234003980894,-0.0002811666543462814,-0.0609246358535939,0.03000601890950829,0.030043555729465293,0.1445559015514165,0.6138461833401407,0.49552863694858584,0.3509873138136997,0.11518338268821471,0.030310359172044977
0.22,0.06653441452886014,0.06407829077570888,-0.002312449074966999,-0.06433396991956655,0.0336774535101239,0.029818751365341012,0.14677432467675336,0.6224075723126776,0.50553348290924,0.36106735736382994,0.12310949357319792,0.03441947296759413
0.222,0.07420655014634223,0.07292644315409076,-0.0015436985642917598,-0.07242090346860994,0.03793888239492952,0.03423334318957407,0.14693297584061146,0.6315655251409789,0.5153233684073338,0.3695688460923668,0.12787195905985727,0.038167486053236756
0.224,0.08238157269386946,0.08456901424469898,0.0019783778913608097,-0.08213234684358305,0.04053447953127464,0.041844131541534206,0.1459076859055613,0.6413659515577854,0.5244469312443999,0.3759877809711906,0.12891873321406375,0.0406099367441398
0.226,0.08628505266133786,0.09262777465255874,0.006375753936569602,-0.08810279837075591,0.03979807734336787,0.04856000305890434,0.14421302368727865,0.6500719797703206,0.5312746121572561,0.37983592102357605,0.12760622078335127,0.041749839384746024
0.228,0.08427398176506304,0.09188986590320354,0.0077427605338637965,-0.08683131380275409,0.037275433993853295,0.04955478596799963,0.1414279605864251,0.6552894647921218,0.5331932326055572,0.38142750259060837,0.12636504170148372,0.043741655512916734
0.23,0.07930559976075294,0.08312840991544934,0.003865803548772969,-0.08002291958020212,0.03618711513938223,0.043699474027726275,0.1379707709000672,0.6561332590800354,0.5301063372120025,0.3815548842291638,0.12638455593379863,0.04736140722882939
0.232,0.07628650427692533,0.07329368781596196,-0.0030409790167712663,-0.07356726017771914,0.03814337097445451,0.03535907786581119,0.13575028182755106,0.6546997477757484,0.5261623848175666,0.38130654793515145,0.12726208229409464,0.050515800844461965
0.234,0.07790891683247136,0.06976944633059322,-0.008185802593212728,-0.07257173022950134,0.04180300829356262,0.03081160002760784,0.1358325125802013,0.6547209266883325,0.5258063161359506,0.3821845320269233,0.12888286487494227,0.05208553478302424
0.236,0.08298958534700435,0.07485617459461143,-0.00812928109049981,-0.0776497347107998,0.04445247702782359,0.03325294784523992,0.13703076096757566,0.6581758511414701,0.5297224379064368,0.38518167189352526,0.13194997665355362,0.053944227398735556
0.238,0.0879728783140549,0.08485419695859914,-0.003091449975433031,-0.08516199948669172,0.04434751023551439,0.04081770777922946,0.13762638935669716,0.6631645337034515,0.5356209891423102,0.3891621913012674,0.13591053208777307,0.0572796918717223
0.24,0.08971930438671834,0.09344359054174188,0.0037350337365274176,-0.09039818861720904,0.04175112109051788,0.04861824034612082,0.13717633393164363,0.6657700588211796,0.540956901017038,0.39132361692054474,0.13834221607201877,0.05993030107934248
0.242,0.08745813109344316,0.0963912208230494,0.008923363827308003,-0.09100948448521574,0.038288438218749124,0.05270552751926974,0.13592344156358677,0.6636984742875085,0.5435141614658382,0.3896252428408804,0.13745714936299586,0.058995338536231956
0.244,0.08271423740511778,0.0937496736458531,0.01102492662976832,-0.0878519766374055,0.03546573031387238,0.052394564365797286,0.1334699008601945,0.657153147660708,0.5409219530967239,0.38377056138247284,0.13366929766567345,0.054398580153507486
0.246,0.07822604660905495,0.08900501372192512,0.010779255059698255,-0.08374516281318722,0.03388827609613826,0.04986932752823824,0.12919374526665864,0.6475299367811973,0.5323031934743964,0.3745972007255366,0.12848057567407412,0.04926006129747302
0.248,0.07631494642403867,0.08599238952489517,0.009683315912161355,-0.08141528913461668,0.03359368249115615,0.04782300939109582,0.12387084888513361,0.6366967015088808,0.520324436667288,0.3638265326533467,0.12308849568080454,0.04673881005006056
0.25,0.07702151373727006,0.08507667928455413,0.00805781352670691,-0.08112223698847926,0.034543516079605714,0.046572601754274565,0.12022149192677842,0.6263235192304333,0.5095460542689811,0.35377993039566386,0.11798055267661671,0.04630012492192147
0.252,0.07834667472010776,0.08340800158489697,0.005059386743424359,-0.08077664178468982,0.03652860320410706,0.044244350286137324,0.12085469218637171,0.6168374971269058,0.5025322828731262,0.3463014678299401,0.11309470811214806,0.04464439605892435
0.254,0.07867142470649005,0.07979534747064963,0.0011215509953758597,-0.079145328301835,0.038686289971113244,0.040460615978502354,0.12495948013179203,0.6075140940758761,0.4983599533562649,0.34155997855826137,0.10821739761915088,0.04079155566106773
0.256,0.07813578128576654,0.07669143050216301,-0.0014444248981027804,-0.07742553903390656,0.03980958286631206,0.03761872252375732,0.1282888724479433,0.5975451547937817,0.4944416408423293,0.3379827379652721,0.10322687145011214,0.037344213303913666
0.258,0.07770365494690017,0.0763550039243886,-0.0013473920936459952,-0.07708275397105932,0.039582874115832806,0.037500340256380126,0.12728474000165724,0.5862699493396099,0.4888289479348123,0.3337809977513052,0.09794901681581206,0.035763834750046596
0.26,0.07778562367868913,0.07782567168889548,4.068978941379085e-05,-0.0778246630567878,0.038889239214328575,0.03893413408960425,0.12233347260170338,0.5732306510883057,0.48091716507900806,0.3285224798543026,0.09248011346264834,0.03406042374241066
0.262,0.07805909164815629,0.07878596920952602,0.0007264970833092319,-0.07840250440152526,0.03864305728731923,0.039758579806120034,0.11707593613305084,0.5594458225222839,0.47120555781824003,0.3229834100752243,0.08804787385915097,0.030804842297102054
0.264,0.07803527040263948,0.07814524300528408,0.00010944063158547685,-0.07807032899152506,0.038887827073353316,0.03907309338922341,0.11479883520250621,0.5469153400198177,0.4606504488667845,0.3174403209470943,0.08617282322144067,0.027778455945235755
0.266,0.07716096626243503,0.07541614377098711,-0.0017668085748938035,-0.07627899450826726,0.039138612671883816,0.03648441463605879,0.1150337829702303,0.5347720381159465,0.44913518116232454,0.3099539216535236,0.08618158631042978,0.026590009448495076
0.268,0.07465919789938846,0.06971537340382937,-0.005096811765836155,-0.07214414352843425,0.039017090636392804,0.031380393607817775,0.11423547464493493,0.5186104937141625,0.4348205037037029,0.2973993870143885,0.08509714023756143,0.025634517747289063
0.27,0.07017669183402654,0.061591541144994946,-0.009043732091794657,-0.06579081005730929,0.038218756178247285,0.02480217925342238,0.11003877291244867,0.4964004680238127,0.41638075144634523,0.27965510971748775,0.0808745911374385,0.02239111333195312
0.272,0.06446360484685257,0.05388802607979065,-0.011325676077410559,-0.059069339069291925,0.03630101423714101,0.019853324152352768,0.1037845303713827,0.47190430255253113,0.395164332830005,0.2609793243932151,0.07453135373284268,0.01667545830102451
0.274,0.05860025414374114,0.0486825397624213,-0.010595978880424024,-0.05339212335898383,0.033032536055195155,0.01837497921582149,0.09871607053038763,0.4493547707294978,0.3737183090329882,0.2454874276819966,0.068463852102096,0.01009169679333913
0.276,0.053193309963731165,0.04503139043125961,-0.00839180354261408,-0.048379604878523476,0.029193543476619132,0.018637475541100488,0.09674687171382815,0.42829594901200174,0.3534567328109536,0.23378293816599938,0.06375134626186355,0.004083264617078182
0.278,0.04909610423718197,0.04085540303076474,-0.008069174434697924,-0.043653498651147524,0.02684335643746166,0.01725462462770313,0.09723515823255605,0.4065321418744986,0.3350370492770552,0.22506354330530773,0.059732313351803505,-0.00013604790844998823
0.28,0.047459089412443436,0.03545194444491336,-0.01179809639770953,-0.039947020553215536,0.02786584033588291,0.012579457734651476,0.09812626894574072,0.38437183734566865,0.3188783235597149,0.21882491135137924,0.05538394519610329,-0.0018130481172181677
0.282,0.04811519705104453,0.029436376962644645,-0.018661747927148788,-0.03765135610736479,0.03199512958346463,0.005690166801306013,0.09760276854668562,0.3628192642792757,0.3037152166503088,0.21289337522796203,0.05039501172141835,-0.0023267406221906825
0.284,0.04930791471289723,0.02377532911136223,-0.02563516013814839,-0.03602076293302616,0.03685366984802945,-0.0010743539812442318,0.09481444090478584,0.3409578853846597,0.2870310744127333,0.20355436467097496,0.045128284528793625,-0.004430106299026668
0.286,0.04960626806992696,0.01975829004098132,-0.029906562611697458,-0.03447994190445155,0.039878136810564443,-0.005532228099949212,0.08999251769657438,0.31814236358588505,0.26853882040104116,0.19013112138984392,0.04000064672733502,-0.008442869649192337
0.288,0.04901833717794096,0.018336007559304476,-0.030654873049199186,-0.03336334427737015,0.0401304681562704,-0.006811026167511909,0.08415060947790703,0.29594565057937566,0.2508217848131488,0.17640499812623514,0.03488006435341427,-0.011724333603434788
0.29,0.04785973450252954,0.018411611035857322,-0.02940319078986518,-0.03257922980520948,0.03842454706063808,-0.006397982903582152,0.07813206751447534,0.27542561836039803,0.2352417625573545,0.16527650676458547,0.02880132621936369,-0.013140627198758567
0.292,0.04552559427222612,0.01712556224925684,-0.02839353695008942,-0.030720889288485636,0.035966187051464225,-0.007000279852708526,0.07238293600512907,0.25474998454701525,0.21966046439502643,0.15490723952102953,0.020861742876962474,-0.014856772827813083
0.294,0.04125497787217822,0.012765886879029097,-0.02851048372786923,-0.02663248880297688,0.033375744190602484,-0.009716161573292836,0.0679747315896205,0.23155482546385187,0.20144899304290007,0.1419799306544754,0.012005856397974754,-0.018207872148610277
0.296,0.03545281638034801,0.006793129869300576,-0.02867344254639195,-0.021146103845183225,0.030611683665945282,-0.012870492381442068,0.06618342115752864,0.2061142358515744,0.18094944258084245,0.12643299360071794,0.004567473566555088,-0.021250879125343
0.298,0.029275665696704832,0.0028772212780686446,-0.026393341504543654,-0.01644556819040372,0.026911108896164895,-0.013187902737095384,0.06623770866337463,0.18082884819949296,0.16096625495772365,0.11169669933659968,-0.0007334919201744943,-0.022296215886502588
0.3,0.02370630019742126,0.003733560055458118,-0.019962796946932693,-0.014129620589188324,0.02158981174469294,-0.008664052391042227,0.0652583613572309,0.15799894524259825,0.14380316584726469,0.10146078113388494,-0.0052693377699597095,-0.023018454020654267
0.302,0.019808267743912075,0.008089149666870629,-0.011717153744088406,-0.014102873518098108,0.015961521519201723,-0.0016398061362032628,0.06134095638905475,0.13895434426440423,0.12935544495640172,0.09643227639340796,-0.009407271395196058,-0.02616734191970441
0.304,0.01817539124310493,0.011526374307202969,-0.006653504842187809,-0.01475056376118042,0.012581443787989893,0.002718707487212157,0.05531428343377795,0.12341622738592682,0.11565603386875536,0.09371495483419513,-0.011814258696630386,-0.032070656244813825
0.306,0.016879509060716388,0.010931563370241783,-0.005951161284333581,-0.01377406986999998,0.0111037673415233,0.0022493727158666523,0.048946990542439256,0.10872848929073169,0.10085852607701407,0.0893840012886684,-0.012719537809027973,-0.038945103309414184
0.308,0.012287192845211929,0.0067864823876403295,-0.005499797232913288,-0.009523173574743474,0.00791414819232118,-0.0003599084874631237,0.04321097985165234,0.09182142134583493,0.08499171828426767,0.0815703212696595,-0.014615654501890802,-0.04506694341212029
0.31,0.003717866105440549,0.00128279061729412,-0.0024328844604327273,-0.002563611340892861,0.001630747200914339,-0.0020682756989762402,0.03900377525126393,0.07292689154437113,0.0702347522227045,0.07123004995637158,-0.018317359038982746,-0.049195298658121396
0.312,-0.005004469169005172,-0.004066937615394479,0.0009380797377038615,0.004552796009767629,-0.004455252374886649,-0.003003927407379429,0.03740342041501274,0.05542342841944403,0.05880323222275698,0.060531419373420596,-0.021541445830688098,-0.050543220678995714
0.314,-0.00997372821066314,-0.008985375156348403,0.0009874192015734914,0.009824061649649057,-0.006755370383923143,-0.004924173716532478,0.03812812346027786,0.04167387459678592,0.05025024901630855,0.05090974105896332,-0.022979050516717017,-0.04973787766728513
0.316,-0.010945906107477331,-0.013782510178938842,-0.0028592889080529997,0.013276838284389702,-0.005184594787197105,-0.008583984766882536,0.03934113395399917,0.031029369560336802,0.04196200876449733,0.04307829483138091,-0.024459944626923212,-0.04862360020081708
0.318,-0.010191754328836245,-0.018621851733116614,-0.008583199121003984,0.01587288690980549,-0.0019887257067925084,-0.01346094373804767,0.039615366039022805,0.02164091022902285,0.032280754847978196,0.038171407206803905,-0.027349170788023403,-0.04844076535454792
0.32,-0.009658431108223332,-0.02315760243451197,-0.01397936568972396,0.018147414575217468,0.0008834236852288424,-0.018452847808086457,0.03889539563118333,0.012266091007280086,0.021702142968588994,0.03689253488308987,-0.0300895318654504,-0.04904096007310404
0.322,-0.009788814002714797,-0.026277416925850637,-0.017369797512128915,0.019785569414515522,0.002492130711596669,-0.02191740638310363,0.037192017019148337,0.0024795377441533917,0.011086584930811326,0.03745676205344863,-0.031280311075864105,-0.05014278824262226
0.324,-0.010093188817960438,-0.026326153374725655,-0.017238722020544807,0.01986318694413705,0.002314413704858324,-0.021968796097672758,0.03400008687370661,-0.007609415183406809,0.0006636088855761031,0.03636936015805317,-0.03250792881539517,-0.052421335085740976
0.326,-0.010154855332719648,-0.022607929716308404,-0.013105718144399247,0.017876450763429922,0.0002477864800596968,-0.017988945377063123,0.030024882371658877,-0.017628927512570867,-0.00871327416834235,0.031881390475166145,-0.036164301777634605,-0.05657554587007915
0.328,-0.01023976404850244,-0.016800314759210535,-0.006644598092864879,0.014826513598164864,-0.0030323614868790648,-0.011762533045390225,0.027544503043002266,-0.02721257529729123,-0.015531700548258368,0.025422493513121248,-0.0420504258601864,-0.06168084282185144
0.33,-0.011457450139547687,-0.012337758392375553,-0.0006455178829837061,0.01308112834484856,-0.006660894286193905,-0.006473701314377809,0.02770039829521611,-0.03595679942940893,-0.019704505550410933,0.019201998970721657,-0.047514359469533154,-0.06507572528418043
0.332,-0.014759999109632485,-0.012189593159562681,0.0027113860123686735,0.014648811447791371,-0.009996350983775559,-0.004724757370306199,0.029069316430095374,-0.04325529454735526,-0.023050629456941148,0.014026324099854801,-0.05021069213935161,-0.06448402934289177
0.334,-0.01905158152864414,-0.016643794554437034,0.002215159786826228,0.019020859647265714,-0.011885771623419337,-0.007286364120524826,0.02971396336470975,-0.04878025223059481,-0.02728428227497386,0.010233187665672657,-0.05008611076935228,-0.06079292689491771
0.336,-0.02182015532554996,-0.023018349619631694,-0.001761677605420208,0.02341895186628941,-0.011230689961743904,-0.012640594157932353,0.029109758542615074,-0.053140483831887034,-0.03266737078699608,0.00850572112050182,-0.0491645161718223,-0.05773328853807935
0.338,-0.022716980593765448,-0.027967809196555803,-0.006029823783680326,0.025905613839688726,-0.009338376045950713,-0.017457674808448346,0.027382971165419302,-0.057412620392086666,-0.03868144721610967,0.0082390515534406,-0.04997540267137607,-0.05811567102107933
0.34,-0.02418370969527334,-0.029969368478674263,-0.006421018958620827,0.027103719576493712,-0.009499143057552712,-0.018772583301591077,0.02439400788213278,-0.06208856440905326,-0.04462481507584928,0.006943197923446757,-0.053579521517284755,-0.06168577420507231
0.342,-0.02735989423405417,-0.029723812618478646,-0.0025576729532062288,0.028278224537642425,-0.01272028965273521,-0.016702477235708484,0.02086629069298826,-0.06697905108698991,-0.04912316336554407,0.00276985123151528,-0.058223186577577565,-0.0666853997393547
0.344,-0.030135446120398306,-0.02869869067867845,0.0016240886699603965,0.029228585821668502,-0.016197579893906293,-0.014018804720989013,0.01891858654974062,-0.07176314750831178,-0.05096648887681581,-0.0033249512679193165,-0.06080015535724489,-0.07176244171708057
0.346,-0.030472768574690442,-0.027235378138647535,0.003577073799466369,0.02881842457651015,-0.017519908748810858,-0.012216652501084327,0.02025510115120629,-0.07592543839880811,-0.0514067715964875,-0.008608728677780576,-0.06032842713180306,-0.07602867180149339
0.348,-0.029176365443289633,-0.024555662979716425,0.005110997153667652,0.026740392821501306,-0.01773878253423842,-0.00996876496442383,0.02439319723487688,-0.07854062418927671,-0.053384452416259436,-0.011106069667370478,-0.058756638270538966,-0.07858227040222242
0.35,-0.028306281795860793,-0.021019531012504443,0.008096239773715968,0.02424542061718716,-0.018750886027494848,-0.006523004257420254,0.028749549855009972,-0.0790795664739126,-0.057377374706478516,-0.010984785832473162,-0.05818732343638354,-0.07904790165046312
0.352,-0.028569028470372376,-0.018703477095051102,0.010974048250636347,0.023011375605736163,-0.020244100484247053,-0.0037986693537790024,0.03049506924982939,-0.07852429119539958,-0.06049858188214465,-0.009953853003978812,-0.058938088218574186,-0.07848918972405777
0.354,-0.029168140330240167,-0.01878340932322775,0.011544486597642043,0.023368907128028818,-0.02081619883937045,-0.003552189458651688,0.028610986608326186,-0.07915088057023978,-0.06064078634925748,-0.00950230901438024,-0.06069373941489584,-0.07915173748805754
0.356,-0.029314334756437188,-0.020032853737013398,0.010308850762536792,0.02418539913029389,-0.02030733192661601,-0.004860711321720353,0.024318266272543146,-0.08246738322914643,-0.05906912272682861,-0.009796405642948286,-0.0636165151800024,-0.08248671042183534
0.358,-0.029058572817997293,-0.02065420528999372,0.009333113094261176,0.024418890845668628,-0.019715664088233456,-0.005695225447389169,0.02018552081517417,-0.08707398646773429,-0.058166343085566584,-0.010169225834845794,-0.0670968722852477,-0.08708262291200386
0.36,-0.028856655449520274,-0.020495639158867738,0.009289729739683547,0.024210727719555063,-0.01958498277152063,-0.005631393380994412,0.018631160401181086,-0.08957068366541089,-0.05875778225589874,-0.010408344770002426,-0.06947492886777093,-0.089564248031291
0.362,-0.028899617813531408,-0.021169338652363052,0.008591829572495692,0.024588536885367395,-0.019240542103795808,-0.0063550581212087455,0.020484689487101942,-0.08787246423829939,-0.060619121692021535,-0.011530074632292274,-0.07066570712317286,-0.08786468901360915
0.364,-0.029030268077148653,-0.024064207675546897,0.005519258222045242,0.026263976077382054,-0.017765855586407364,-0.009498411599161516,0.02465855776783393,-0.08299197060702551,-0.06367925868914812,-0.014702702275126173,-0.07275663086146228,-0.08299177473370932
0.366,-0.029069228252398004,-0.028118817491859995,0.00105525136702311,0.028546695973857953,-0.015560812877143672,-0.013982167581653859,0.02875120673811338,-0.07813282793581845,-0.06716755100567057,-0.01898459216395714,-0.07641600287099426,-0.07813697801657614
0.368,-0.029235943154845203,-0.03056695718524956,-0.0015044164063711622,0.029994219983577174,-0.014348003058578604,-0.016622343761269233,0.030768119927854637,-0.07611910231806247,-0.06905759302156758,-0.02162197164253542,-0.0790979267456347,-0.07590179471904042
0.37,-0.030502678675837627,-0.030269823138998075,8.831777375870191e-05,0.03045863885412673,-0.015645017739420872,-0.015661469816461018,0.03145329797010811,-0.07697889572843832,-0.06771505367797333,-0.021373891825463155,-0.07800148810089393,-0.07544507443080639
0.372,-0.03378344486993359,-0.028845238818468354,0.004953371478844968,0.031303504240183515,-0.019386778425933462,-0.012437633917129095,0.0334963294868914,-0.07843318208347175,-0.06360554701531768,-0.019875331664067318,-0.07331018719773293,-0.07362469240493698
0.374,-0.038037971147410775,-0.02825865894548034,0.009862594405129682,0.03310505427101354,-0.023545032489785227,-0.009656895501736647,0.0374073873740075,-0.07873599125671443,-0.05926613760956326,-0.019219067343756266,-0.06821447416318,-0.06970305271923198
0.376,-0.040822786281250585,-0.028946138537365745,0.011908552794175381,0.03486951251094348,-0.02570642926011018,-0.009003472546784042,0.040235644189301714,-0.07811941026536391,-0.05731565259910928,-0.019691005981012935,-0.0659846468762937,-0.06675148776721586
0.378,-0.04186845273440545,-0.03080195870063672,0.01103680008250483,0.03635141549497728,-0.025820354362145505,-0.010397453030546821,0.03907192020510746,-0.07766060045172908,-0.05800506034306153,-0.020273426716497026,-0.06687017963948554,-0.06786218557124452
0.38,-0.043674075446424196,-0.034083392184874786,0.009559217125385783,0.038894570674937984,-0.026129943057048403,-0.012777488366416541,0.034268684660769516,-0.07777399309613851,-0.059348977267829554,-0.020297942868898224,-0.06845462435819395,-0.07270699094543767
0.382,-0.047268776630940444,-0.038018117158255815,0.009251812100992452,0.042642176443992305,-0.027835991456178804,-0.014882402926814071,0.029156224269947257,-0.07807703219294125,-0.05968430852205294,-0.01999331960754932,-0.06880555234833008,-0.07786809387026145
0.384,-0.05018195515152329,-0.04021104247588941,0.00998861057446153,0.0452421107172138,-0.029614584867618986,-0.015657314587828833,0.02719887087577418,-0.07794048873088222,-0.059140249887444624,-0.019834459299301326,-0.06836032825917306,-0.08004539064208957
0.386,-0.049725634392202116,-0.03873161971196003,0.011001833488845422,0.044553200442869034,-0.029836935943077198,-0.014689414753622069,0.02943205071552659,-0.07650172174026411,-0.05869823765865683,-0.019924630924795093,-0.06916547347125057,-0.07909910358625091
0.388,-0.04588373772080418,-0.03412069930366383,0.01175711616351067,0.04087888055935915,-0.02831370418125786,-0.012558163277291154,0.03427819442730894,-0.07312238717209238,-0.0587804706066807,-0.020054326906916567,-0.0725557712003806,-0.07751431321124128
0.39,-0.04043671943328804,-0.02927102825673068,0.011158596638528756,0.03624226334732956,-0.025451824876702934,-0.010944494869662525,0.03883038662076607,-0.06891465948124953,-0.05905961001270468,-0.0200670685619447,-0.07711300972635851,-0.07719637466368995
0.392,-0.035279862776544525,-0.026917389245621336,0.00838425657119545,0.03254498680049056,-0.021806847129377364,-0.011213032818847292,0.04049675383196313,-0.06642537578138943,-0.05892865673785178,-0.020199842269894425,-0.07976323235840997,-0.07787694010151307
0.394,-0.0323472842360854,-0.02652215811139917,0.00598217830948336,0.0303484325395519,-0.01942192010390342,-0.011683812021807141,0.0384299772347075,-0.0667036911486927,-0.05750558341703661,-0.021343837778256325,-0.079371242063168,-0.07837456540373913
0.396,-0.03323598338140032,-0.025072452724080214,0.008646104057094095,0.02918732783418993,-0.02111385270787568,-0.008746279338903613,0.03382198423753142,-0.06813588062134916,-0.05413068744678871,-0.02430783066919176,-0.07779699583295996,-0.0782447952022943
0.398,-0.037073157009965295,-0.021632180161487984,0.016343091542944645,0.028679455830492806,-0.026431533588421395,-0.00247126883113246,0.02929273670838992,-0.0687439487311402,-0.04991651556793393,-0.028140156688078354,-0.07718310819609955,-0.0779127511638026
0.4,-0.04024502927244173,-0.01872121954805958,0.022681037305788635,0.02871020538475564,-0.03079139129370182,0.002252855257858794,0.02750738207770789,-0.06808775375034797,-0.047312034349027754,-0.0303347206189726,-0.07760688331465698,-0.07760558563584964
0.402,-0.03980600079796337,-0.01846314911929913,0.02247587351934197,0.028879329073733924,-0.030457306501338835,0.0017615869210963358,0.029504808261892952,-0.06635609773337826,-0.04682496301880253,-0.029345661959851718,-0.07742929068542442,-0.07643151756820005
0.404,-0.03588001447577293,-0.019871234120382372,0.016996940102380582,0.028375647225459204,-0.02607638476202029,-0.0024371949728255425,0.03414460972414547,-0.0633931807644585,-0.04585720663240048,-0.025752512197214337,-0.07501984596901667,-0.07327159291457112
0.406,-0.030417906149348847,-0.020751413936655673,0.01056914203402985,0.026585175456206898,-0.020564728663684553,-0.006580681963358526,0.03872689601680063,-0.05988056114919496,-0.041950027186710336,-0.02099778373960885,-0.07020273553361749,-0.06902421693945894
0.408,-0.025506182822016967,-0.020432551493213068,0.005912355566195966,0.024029375186421644,-0.016082081688954926,-0.008754434642070272,0.040739622183364015,-0.057728397643260765,-0.0358055650260816,-0.01615754938061883,-0.06469632567692674,-0.06661567269490584
0.41,-0.023566225421710423,-0.019801129088030667,0.004464004610583672,0.022602883120069972,-0.014329405673489056,-0.008924051917821849,0.040030218633274425,-0.05787148637032697,-0.030355034866460236,-0.012022709928402157,-0.06140999960074153,-0.06816255888177356
0.412,-0.02695313832037688,-0.01967012496178945,0.007867265171712174,0.024149405527259683,-0.017318150638010683,-0.0070169355328910665,0.03864824962547258,-0.05906109937088711,-0.027805629625282706,-0.009480244746484984,-0.06237782614799686,-0.07292330982119079
0.414,-0.03512309335659886,-0.0199507747949903,0.015762932033950707,0.02835259769398369,-0.024969859017182097,-0.003205192594281192,0.038297918729301265,-0.05961950917300172,-0.02799292631122156,-0.008961637749046316,-0.06633882399366625,-0.07780773177845632
0.416,-0.04369055108090721,-0.020046592039042247,0.024172985472080463,0.03258764759466272,-0.03352629082364928,0.001016771712377025,0.039071742210679494,-0.059046786006512884,-0.028886241736600184,-0.009484506649616968,-0.0692894082200702,-0.07989875520527326
0.418,-0.04803628268527416,-0.019225489439868477,0.02904600870058527,0.03403081839181806,-0.038744522186822325,0.004060782288534904,0.04083995816059328,-0.05726114694046597,-0.028148480492490316,-0.008830595113220777,-0.06822667712494439,-0.07906205938299803
0.42,-0.046732991470076604,-0.016683836902108413,0.029958777753060925,0.031579717148988655,-0.03936448705384609,0.005962514289992329,0.04403288252039743,-0.05395061072578918,-0.024871398092498248,-0.0055188121375096474,-0.06371730562074143,-0.07757662857641817
0.422,-0.04146281429268494,-0.01213130797599679,0.029158710042754204,0.026312815427035074,-0.036833996463963695,0.007856037263816684,0.04797328770672608,-0.04996368607141297,-0.02068191092216743,-0.0009295051148674877,-0.0590450411303518,-0.07724634406793769
0.424,-0.0353959689836601,-0.00661479926391742,0.028737643396849782,0.020770254023053505,-0.03357162780826892,0.010374619754857423,0.05043661685264844,-0.04754231342660359,-0.018156375190988384,0.0017808667840265137,-0.05715152984411033,-0.07764740263134655
0.426,-0.03190521838837644,-0.0025291312106026156,0.02944637069640515,0.01773299964040476,-0.03191908591088711,0.012991926888509857,0.050291594043926406,-0.04773274179260072,-0.01727934471758026,0.0014025156684580305,-0.058047576405044155,-0.07680989872465321
0.428,-0.032970338928341975,-0.002390059630804031,0.030637854515126628,0.01883055534878684,-0.032918828922072346,0.014221053745277287,0.048937167942707124,-0.04908595266324621,-0.015418061108887358,-0.00019745340394526287,-0.05945861733850476,-0.07342824677802862
0.43,-0.03718227568554596,-0.00677192540883397,0.030421948711533447,0.023173116283979483,-0.034979864687817254,0.01246060127834621,0.04829350442680164,-0.04970425733970213,-0.011697275595100195,-0.000831179057869902,-0.059713362237765986,-0.06889279644808727
0.432,-0.04076819422172771,-0.013170206092959701,0.027693091634220166,0.027741008593368168,-0.035403646689459,0.007977904683802299,0.048473416426914225,-0.04907410438919763,-0.008641433917612497,-0.00029325819517313017,-0.059094284889481125,-0.06646765892655948
0.434,-0.04224730326732235,-0.017300798204528577,0.025262255343733615,0.03000655773052903,-0.03456668213852379,0.004390724408228974,0.047701114135441425,-0.04722846213764008,-0.008384452808004657,0.00030835083820031145,-0.0586604385573699,-0.0681636338890533
0.436,-0.04387611282800177,-0.01636342442268877,0.027949457336418897,0.029860470358289128,-0.03608010997510985,0.00597011292923658,0.04447122206540036,-0.043920219047228544,-0.00986665131462039,0.00030603061185743657,-0.05878750514319031,-0.0730045846493861
0.438,-0.047163777788697535,-0.011864804803798954,0.03556764037547496,0.028914383107079798,-0.04107473749742499,0.012130075612082554,0.03997267858475009,-0.03996698409685392,-0.01078936753697761,-2.1876761573847434e-05,-0.059083598279855126,-0.07784595461199724
0.44,-0.050024545087758686,-0.008291758350769562,0.04170565474699202,0.028540884354558003,-0.04560103323680884,0.01718018547014958,0.037482359883548484,-0.03777984593480841,-0.010234212533297146,-0.00017721235192336607,-0.059155671573028076,-0.0798726565494641
0.442,-0.04970811642469818,-0.008183461125324257,0.04137099963281077,0.028727676495286836,-0.04555033392202917,0.016896395365815633,0.03912706294868883,-0.03927215307433415,-0.008258441295968236,-7.265078013658544e-05,-0.05902868515245798,-0.07902873484387818
0.444,-0.04596101145577231,-0.009969017887379219,0.03592582018613987,0.028403199159146717,-0.041089320360845165,0.012656011404580168,0.04397909425452836,-0.0438860764123052,-0.004847175365194705,6.199482823429212e-05,-0.05892875938089109,-0.07757495415419965
0.446,-0.04048305037022573,-0.010942892993222549,0.029611102993241475,0.02667605807440142,-0.03510158249151018,0.008392918733387756,0.048853736727154005,-0.04873015045638901,-0.000915744681761553,6.92477126630653e-05,-0.05895032799228872,-0.07726373035384199
0.448,-0.034842955519647514,-0.010248899213181867,0.024784778180457323,0.023638116412641966,-0.02970087535106273,0.006184456607419517,0.05110968059076468,-0.0507723216618488,0.0016435573789496715,0.00010894009150282476,-0.05890545570012073,-0.07776631911198893
0.45,-0.029400581966824525,-0.0081813562183957,0.021548663522742685,0.019653339243490796,-0.025252709787025332,0.005951953482053981,0.05156546181711057,-0.04922042790039118,0.002757642033493662,0.0008378235218134708,-0.058158369819075566,-0.07746139262591022
0.452,-0.02409747331612097,-0.004802591112541529,0.01968618308365605,0.014875171980125994,-0.02167847109652607,0.0072431692470337865,0.05337407199689004,-0.04532281804871923,0.0047189439606241754,0.003261538227746963,-0.05572878743512589,-0.0749481844473693
0.454,-0.01992714187374401,-0.0009366447665594829,0.019229985802527022,0.010429553474986718,-0.019481527748878374,0.00930202898350032,0.057290606725148144,-0.040444054049497316,0.008350668762966274,0.007808059283112753,-0.05118939711865985,-0.07015099900243803
0.456,-0.01834803363427715,0.0013898351635004053,0.019721592739509027,0.008296359630718904,-0.01906344591040377,0.010729370980103254,0.06035585663757517,-0.035588983958957064,0.011086884914481617,0.013276353408799148,-0.04572771113841353,-0.06451326669411434
0.458,-0.019148493391840583,0.0012201103447025247,0.020236048910995043,0.008867105279335007,-0.019755946326533158,0.010740286578304743,0.0597967294642102,-0.03249082162829048,0.010031352813727908,0.01684778445685407,-0.042155545091960206,-0.06006581136704694
0.46,-0.020391998875708653,-7.14397115609965e-05,0.02025854012340801,0.010275567741974252,-0.020343853844205825,0.010010324600242038,0.05582280663738392,-0.03313587430224014,0.005330349402446951,0.016098077195684957,-0.042901295060469954,-0.05806066904638677
0.462,-0.020631488618220326,-0.0006715960792964833,0.019999368618385555,0.010723740734122158,-0.020291176409884336,0.009617580302684683,0.05036882878055717,-0.03694703094051686,0.0002078289813319872,0.011980164620216678,-0.04701771852264552,-0.05819440374409523
0.464,-0.02009430695517289,-0.0005052169496365726,0.019641677351182007,0.010310976835812719,-0.019846322919313906,0.009590814698519984,0.04528068847159871,-0.04034911946476602,-0.0018101095433112598,0.008708075647023465,-0.05040095390407017,-0.05904549922619536
0.466,-0.019705449391970588,-0.0013077257872887438,0.018401686004765133,0.010473002873526318,-0.01905625876375564,0.008582772477279375,0.04238472749766093,-0.04074812582736851,0.0003996055207082232,0.009746738924208728,-0.04991067578412484,-0.059410063300003584
0.468,-0.019808743799928148,-0.004544660654815904,0.015237428330540932,0.012154615177894883,-0.0175361215080193,0.005351155621018344,0.04325341718401406,-0.03919401787150346,0.005267596930956421,0.014683228460518396,-0.045844932842966306,-0.05916491334706162
0.47,-0.020069051046515955,-0.009030083686594814,0.011024075518752407,0.014557311874084154,-0.015551319984189049,0.0009797771055698942,0.04706105058080958,-0.03817216596272388,0.009843029711295423,0.019914862329143822,-0.04032209753826647,-0.05885970534475361
0.472,-0.020334576745097786,-0.011510291942818305,0.00883169899594222,0.01594913531397647,-0.01457830559234096,-0.0013391433205227835,0.05012003447680878,-0.03849767298967913,0.011727972094161215,0.02207795740719058,-0.035249032451605884,-0.05884546231562967
0.474,-0.02140707363020324,-0.009867919724398419,0.011550815287704005,0.015717408944135376,-0.01647404389063512,0.0009223052496001487,0.04914872221922831,-0.03920705766269493,0.01096127836945808,0.021088810737244452,-0.032395435058993775,-0.05900299959848042
0.476,-0.024264524624835512,-0.005022519266666305,0.01924352942612924,0.014876844903542867,-0.02175432330651543,0.0073587638990023916,0.04436063080601964,-0.03937149311992502,0.00962167880702898,0.019491866780062858,-0.033275564688216054,-0.059085534592625916
0.478,-0.028084972996581525,-0.00014977205191310083,0.02792956594809534,0.014563870492682356,-0.028010084889991987,0.014343011734186574,0.03916312504903238,-0.0390645317794474,0.009322849573177645,0.01919139708538431,-0.03706565905645254,-0.05903910478428371
0.48,-0.03024423812871031,0.0018894889349231096,0.032130204073420966,0.014747186894649237,-0.031188404055110103,0.017574668407964147,0.03693535610131353,-0.03882832083110747,0.009659358379298821,0.01966742862381313,-0.04054892898915297,-0.05916944741770776
0.482,-0.0288492119348156,0.0010344428283935144,0.029885047129199142,0.014400791559808394,-0.0293661581415737,0.015947157514997003,0.03787498961488773,-0.03888284946336605,0.008773859228593504,0.018849437309728354,-0.04220659931080905,-0.06034459093336105
0.484,-0.024567782788970823,-0.0004315052296139704,0.024138865163362173,0.012753886461453753,-0.024352214443375167,0.012107782577345128,0.03948357733770261,-0.03903772613421021,0.005404508354662276,0.0154361974783871,-0.04397607338691579,-0.06332478232984814
0.486,-0.02017489752303795,-0.0007424699801942482,0.019432903663534874,0.010467654360490172,-0.019803900737127657,0.009357391979948147,0.039816628781215516,-0.039081940828099175,0.0009011253792419,0.010875016424755874,-0.04723359787700646,-0.06714784294616241
0.488,-0.01849013930887197,-0.00034281557304557215,0.0181680786628177,0.009331979831904681,-0.018318744741710448,0.008818771090939719,0.03913040944743105,-0.03923794449443014,-0.0017348043483292573,0.008016035552222106,-0.05011302677485408,-0.06943883864765628
0.49,-0.02042317839246794,-0.0011915334147869618,0.019384074661182284,0.010830978426346371,-0.019827288005786318,0.00904228423788141,0.0386218609359124,-0.040496696869028126,-0.0013653771941184731,0.007102100668172814,-0.05053586767095205,-0.0691928372363504
0.492,-0.024706124291402762,-0.004577775448645658,0.020609275403643205,0.014903791425619678,-0.022417170276963858,0.008035908669448893,0.03874949288599268,-0.043779495491702416,0.00019029171299286395,0.005399805281323829,-0.049228909177753945,-0.06787837246931008
0.494,-0.028807484707163346,-0.009109298543521924,0.02060203685506519,0.019447821259990884,-0.024252871266283258,0.005784051679817314,0.039086471225897576,-0.04803934915977951,0.0008076190470613328,0.0017825708022635757,-0.04829964446362384,-0.06731648800538463
0.496,-0.03043994666945151,-0.011530055285451148,0.02004690726682213,0.02162578813364129,-0.024674972317579175,0.00422175779196029,0.03895836704599409,-0.05082559977233592,0.00017622878676730165,-0.0013074477980105062,-0.04853676728834614,-0.06795567685476256
0.498,-0.029036437023515684,-0.009834131007446501,0.020181950444220817,0.020301932922184025,-0.024119377420675752,0.004894418887343057,0.03750511000534836,-0.05186904459630745,-0.0011749822882457684,-0.0016371745834453002,-0.04915585009287577,-0.0697749566413388
0.5,-0.02554853159363767,-0.004995595150651944,0.021059420489569606,0.016550772016469754,-0.02305070775483566,0.007310301031191469,0.034114248956697006,-0.053672822762493945,-0.0035769199546905757,-0.00017145284706480924,-0.049325947783219526,-0.0730652897313334
0.502,-0.021068893214610782,-0.00015535101849904927,0.020934440314597638,0.012222447998322653,-0.020991201940236955,0.009219537899109518,0.029908923199253496,-0.05726785528724466,-0.007774928396909397,0.0007829468823440534,-0.049070849604920516,-0.07702420618367183
0.504,-0.01641230786233763,0.0016527348230060356,0.01787661213042652,0.008933731209811661,-0.017238682076144984,0.008388359032534138,0.027646473253401006,-0.06029189678968923,-0.013308058002018331,0.00025191614691143823,-0.04885620584256863,-0.07922382982823563
0.506,-0.012929117302165616,-0.000503357521399863,0.012319331969203809,0.007972633153860301,-0.012677450394014718,0.004576522010600454,0.029240188051075075,-0.06060222855067089,-0.01830882345756281,-0.0017296039739370806,-0.048892708688536464,-0.07773440470555595
0.508,-0.012673037110630057,-0.005231283082529061,0.007505136260449924,0.010055140484299055,-0.010079337139304534,-8.72323250593332e-05,0.033943580072979256,-0.05916324781047364,-0.020973077824657974,-0.005156774447270153,-0.049027212028586654,-0.07311505120874033
0.51,-0.016556667048319332,-0.009769075841918948,0.007015905990478865,0.014405298859186781,-0.011803439355663204,-0.002573531470027432,0.03877504970160576,-0.058232204913723794,-0.021084579845910622,-0.009092664808905523,-0.049071537857470204,-0.06826681058288128
0.512,-0.02271597189342286,-0.011712467498582596,0.011497840867850707,0.018693343013806582,-0.017187153495483568,-0.0012918866947808358,0.040872082576768796,-0.05862816110118188,-0.020271296871153473,-0.011645418472549613,-0.04923871387188739,-0.06633530974483226
0.514,-0.027871391547888858,-0.010994230254136934,0.01774652611082703,0.020872826775143516,-0.022796882887519042,0.002430810729875929,0.040067154498236356,-0.05991709675843972,-0.0208844157205308,-0.012753941803912289,-0.05050274178222433,-0.0684368221260297
0.516,-0.030088093091276,-0.009645879107068028,0.021577506428923622,0.02083129608262465,-0.025520696830199086,0.005572336878696044,0.038593618166842605,-0.06214103289465436,-0.02405835511451386,-0.014716160939567357,-0.05378196302145617,-0.07320602753887002
0.518,-0.029832996325985333,-0.009316426241197405,0.02165696359716049,0.019974174159888565,-0.025149110314895154,0.00630993417206465,0.03825167870007262,-0.06595012925084216,-0.02826659484550915,-0.01835135875138364,-0.05803722890688298,-0.07779332252956994
0.52,-0.028883489359612588,-0.01008187602275213,0.019805240005088504,0.01967221386809808,-0.023718693203951615,0.005135447706242434,0.038640679125780925,-0.07116228023006128,-0.030857366097185444,-0.02150558603988492,-0.06080130080167042,-0.07995722772465938
0.522,-0.028549058333322955,-0.01183469861728237,0.01764230852012692,0.020438157794786898,-0.022721747836466168,0.002977262593158288,0.037803775976610526,-0.07613907840002879,-0.031755319803715244,-0.022943711469772168,-0.06171581932638779,-0.08052566732819152
0.524,-0.028857304495256173,-0.015024840012488853,0.01479566970801352,0.022062521010932524,-0.021871689074604926,-0.00022175878988554712,0.03442899139213691,-0.07896112917469447,-0.033590997070357245,-0.02446239704543807,-0.06319345025533657,-0.08243824838380509
0.526,-0.029173189787672315,-0.018972316421728617,0.011222103927868415,0.023772866775983906,-0.020646730138142527,-0.003966430316217416,0.029896493443046856,-0.07916866834541803,-0.03728813374444445,-0.027369499976673484,-0.0663651810675797,-0.08634296595078525
0.528,-0.02896026556899283,-0.021330843795604074,0.008637574445624853,0.024547102846412407,-0.019488734730009883,-0.006332726492604598,0.0274690184605839,-0.07812092746836433,-0.04012725735255324,-0.029790735548039453,-0.06913265515008263,-0.08923614317738977
0.53,-0.0276011331304254,-0.020418023880008605,0.008032663625591567,0.023722663052921904,-0.018670696046310845,-0.006136529668068756,0.02916226574061305,-0.07748223500999377,-0.039085265746863745,-0.029017947739816558,-0.06946855003394234,-0.08810679377775496
0.532,-0.02457874754058393,-0.01665682738647953,0.008426190143175307,0.02121911716075122,-0.017615087778997843,-0.004096079060086498,0.03400318921733259,-0.07769578730922858,-0.034334190601045575,-0.02489456960903194,-0.06817587351798618,-0.08328494254513776
0.534,-0.02083583133510957,-0.011495972005654661,0.009427860600316007,0.017598224997239134,-0.0165023235904059,-0.0010554622640217613,0.038846034707718635,-0.07813210979655576,-0.02918021939502342,-0.020239115344542105,-0.06730834901104628,-0.07814498189124437
0.536,-0.018606024505701847,-0.006322050162423711,0.012129204270310088,0.014108648916474337,-0.016781258139061124,0.0028828675759793344,0.04065406012049037,-0.07844550329835508,-0.027064884478405174,-0.018342720157090393,-0.06757028435320628,-0.07596525709215562
0.538,-0.018837489029331772,-0.0027308628160944335,0.015980171005892385,0.0121448525626999,-0.018687400927726378,0.006626443374132608,0.03849651929015894,-0.07956807209280309,-0.028750776674238466,-0.020317774978017615,-0.06816761208166176,-0.0768988465803077
0.54,-0.020111623917672752,-0.002644892779064815,0.017480366609101305,0.01247825803819025,-0.019972139040979636,0.00742989099074971,0.03376793483018418,-0.08270057431577374,-0.032752256651856916,-0.024736216345694447,-0.06831339706998642,-0.0784788969561482
0.542,-0.020662183379283383,-0.006783779381506276,0.013951088549468804,0.014842286622682454,-0.018504324490582105,0.003588482911150791,0.02923061781715978,-0.08696284071701602,-0.037607509489945255,-0.028879367924079687,-0.06805841320457962,-0.07880150078465922
0.544,-0.020456448033447126,-0.013453897142036937,0.007030229161263751,0.018168572102221735,-0.014964044665248045,-0.0032271302348338173,0.027287812979481543,-0.08961274353106582,-0.04261406959669892,-0.030567555690678996,-0.06785709092675686,-0.07812575046745052
0.546,-0.02114627720004802,-0.02014263274546812,0.0009777148956665732,0.021645611202945992,-0.012095781409862645,-0.009663787983615463,0.028006070894932508,-0.08938135420724339,-0.04700578727026163,-0.029859799946981107,-0.06789991292614639,-0.07762787917685833
0.548,-0.024074586014592014,-0.025535451907505183,-0.001488227354169895,0.02520955714490883,-0.011919163932220417,-0.013752061417447925,0.02935411167480333,-0.08788393205018749,-0.04966261994145687,-0.02865019874951354,-0.06803017138904265,-0.07775490415696128
0.55,-0.028136360516709206,-0.029084047411820392,-0.0009466279793834809,0.028445447824339342,-0.013896713282254728,-0.015464356746608931,0.029683405011650794,-0.08721910295045066,-0.05010144102819014,-0.028389036561977814,-0.0680690210190279,-0.07808577116902493
0.552,-0.030569672385834697,-0.03000798049621697,0.0005990446328887856,0.030040932493471853,-0.015922336415307152,-0.015271719461523024,0.029137444611797726,-0.08768632955967354,-0.049251073580454933,-0.029114627322042102,-0.06823589693378718,-0.07839387261603181
0.554,-0.030261546140873764,-0.027429677226453127,0.0029919029187586623,0.029050839944022872,-0.017300113787276635,-0.012709695271091583,0.02869791123583978,-0.08827117357258366,-0.048580515425974594,-0.030811238282185495,-0.06950276969020927,-0.07956903006065982
0.556,-0.0288398035007619,-0.021106578120572213,0.008186787956300812,0.025878930980413627,-0.019520650756372847,-0.006703323869317029,0.02878197243465035,-0.08829941867668789,-0.04867159117090373,-0.03399588824944135,-0.0727835135672917,-0.08272896430754975
0.558,-0.02826057972094127,-0.01258366553395151,0.016420769824445538,0.021930360504243806,-0.02345070215179939,0.0019847163664611796,0.029060482120848725,-0.08799525412723119,-0.04906695220163229,-0.0379712670420429,-0.07703795429236729,-0.08697575036650984
0.56,-0.028950022197865827,-0.005335556086768908,0.024292488383592343,0.018937843148958106,-0.027683986037271964,0.009813642934244695,0.029147625253655204,-0.0880539741559087,-0.04942761179460645,-0.04045581560656259,-0.079603344533724,-0.08938400759953051
0.562,-0.030802765538400348,-0.0030534560334724834,0.028004423596692793,0.018627400306543532,-0.03048867523252361,0.012969673766432757,0.029037451491882565,-0.08945618574723493,-0.05059508915999607,-0.0403018615534268,-0.07933588631853725,-0.08783730625123298
0.564,-0.034081658169220756,-0.007416410296118582,0.02662674070502152,0.02204817321000597,-0.031513682963428394,0.010076062065189129,0.028937339010595177,-0.09286052942211584,-0.053723241197149996,-0.0389315963267685,-0.07786734984147187,-0.08307680022972624
0.566,-0.03801684858660954,-0.01629185166304088,0.021842385568161603,0.0280396512563926,-0.03101599268513852,0.002987085848862479,0.028949643239208865,-0.0971001515224671,-0.05795892254966947,-0.038285241069634726,-0.07723599586422593,-0.07819239438795235
0.568,-0.04021138282933795,-0.024367888523739858,0.016269568177386826,0.03308379188318594,-0.029087709917738968,-0.004243341310186742,0.029229541062651822,-0.09937162533718581,-0.06037910573371365,-0.03847251019963079,-0.07748405099429896,-0.07610124500136277
0.57,-0.03873247457260642,-0.026746451798788002,0.012497261041103228,0.033760952076970316,-0.02626854621803859,-0.007599859739498019,0.030564879784622016,-0.09776350451464677,-0.05884413610816543,-0.03770519071093672,-0.076737576876968,-0.07693787186375184
0.572,-0.03412092189314761,-0.022059380929360106,0.012553887065682884,0.029362762071145673,-0.023996989873769952,-0.0051504538446829765,0.03381664825466569,-0.09304830686963256,-0.05408273172141102,-0.034473663755169394,-0.07348283458311024,-0.07842333847049764
0.574,-0.029270668060274178,-0.013117005745316006,0.016730840060674764,0.02261944657435139,-0.02382607441659358,0.001784616573475266,0.038019886103522665,-0.08821905993973342,-0.049191499899220996,-0.029971620176682378,-0.0689583266855552,-0.07875367771211599
0.576,-0.027114552309986197,-0.004932707676252555,0.02275165428020227,0.01761328806691094,-0.025976650854144495,0.009279703982915496,0.040576631870337776,-0.0863489275579629,-0.04709758138975157,-0.02748052184637408,-0.06624977123711359,-0.07813322954838177
0.578,-0.027901512952116705,-0.001201293407806083,0.026991349578075627,0.016323157348771766,-0.028663436066974978,0.013452776762821366,0.04033298716844667,-0.08846938476978591,-0.04793661033737886,-0.029126762602025416,-0.06659603984769616,-0.07765754908711145
0.58,-0.029398709843773706,-0.002587788430744602,0.026870471447116514,0.017818425833455942,-0.02937118285694209,0.012634843219672447,0.03888054278055964,-0.09321414918437675,-0.049424735231636596,-0.033979953852702506,-0.06818028039506284,-0.0777649940690892
0.582,-0.029761755735237,-0.007560952983271847,0.022488529991342925,0.020301339087691696,-0.02720128146105402,0.007723442478015144,0.03824387966499799,-0.0977794315836123,-0.049755033296593754,-0.038854311224319586,-0.06882389281870198,-0.07807439899651844
0.584,-0.029369924647983513,-0.013747322842732801,0.01645224329053564,0.022809523341164793,-0.0238327328924432,0.0013566389900728634,0.03870001323948213,-0.09972676430168544,-0.0491331147921438,-0.04089008969230534,-0.06851855971614709,-0.07838293437853887
0.586,-0.030193957458479387,-0.019258733278160963,0.01201804088434236,0.025611916885398954,-0.022077275770970663,-0.0037911054181870053,0.03926418811585812,-0.09899540779481324,-0.04865675449866437,-0.04003250144388028,-0.06923098813880772,-0.07957001144505646
0.588,-0.033564139241690404,-0.02368087383267481,0.010601104804211661,0.02945158363107736,-0.02318006190074323,-0.0068359826595237524,0.0392886145150814,-0.09763863946160217,-0.04876467715672631,-0.03856723961147417,-0.07250072616985628,-0.08273540232622567
0.59,-0.0381014622903759,-0.027814705567829983,0.010360422703546097,0.03404589141289877,-0.02527497503878423,-0.009159506799982814,0.038993905626089634,-0.0973123255803482,-0.04907468124783144,-0.03825798994595908,-0.07705097594067573,-0.08697828995069026
0.592,-0.040643451963556024,-0.03215060682069662,0.008217670319476995,0.03774965595359617,-0.025300737004542682,-0.012562560808591658,0.0386204337209021,-0.09806192854637891,-0.04938324214370304,-0.03909688149613376,-0.07976364345304306,-0.0896011034727999
0.594,-0.039496752902940045,-0.03509845764462353,0.004243675186068503,0.03867360215513569,-0.022640642722181213,-0.016303357068300408,0.03739432256649325,-0.09968463261481703,-0.05057000441936314,-0.04087375542847018,-0.0794052910571869,-0.08936737543676654
0.596,-0.03552386044874093,-0.03330269208912162,0.0024292937122084132,0.03562362464618067,-0.019674234358790732,-0.016743915874166494,0.0342457241426173,-0.1025446018310491,-0.05373523101571771,-0.04403530629453669,-0.07781303460422073,-0.08788361321906024
0.598,-0.030411458496572674,-0.02510127996669252,0.005888501458907273,0.028842687774250444,-0.018692591913705717,-0.0112251928214738,0.03003215888581442,-0.10606750462206943,-0.057978211957493156,-0.047956001373239125,-0.07717218775473766,-0.08722657969110895
0.6,-0.025694482328585327,-0.013548816634554662,0.012945231920236094,0.02071861035600125,-0.0197168751512584,-0.0018442531250713271,0.027633583362660412,-0.10808329506657988,-0.060381763500234206,-0.050427037279382705,-0.07770261251990412,-0.0876900742509937
0.602,-0.023659303098837084,-0.00534072629118482,0.019098441548251046,0.015445237364757034,-0.021819287187743737,0.00563255812892286,0.029166779866735153,-0.1067819264049078,-0.058834890998711295,-0.050296451896514334,-0.07830455297400628,-0.08826888173593475
0.604,-0.026895091895233064,-0.006006396807142692,0.02153775177755574,0.016768056712313247,-0.024898144593965905,0.006661250282485971,0.033915551721121776,-0.10262346176175167,-0.05407687123023245,-0.048944716120082866,-0.07830647594526513,-0.08829628038728118
0.606,-0.03504471106505435,-0.01470388334277747,0.020928594218217196,0.024429562733031908,-0.02887889384011519,0.0018637284214432946,0.038801722596728,-0.09823820048563642,-0.04919374636135404,-0.04829445880445346,-0.07798040907185864,-0.08799500584674652
0.608,-0.04368480395455283,-0.024397738641566698,0.019782154315608078,0.03342886721097843,-0.0325745079599649,-0.0038219958924489653,0.04068072246135346,-0.09629253188687016,-0.047101852031287327,-0.04846975307233948,-0.07782363586937532,-0.08783617200700988
0.61,-0.0480762998635882,-0.028383672941993433,0.019934712420401207,0.038232157863105846,-0.034491340933083106,-0.005848153590547539,0.03853343613701339,-0.09700926261714128,-0.04793742401108075,-0.04769884349032146,-0.07792650666875707,-0.08792452878827792
0.612,-0.04675523577374082,-0.02573554634219586,0.02109337745652508,0.03706431954362807,-0.03389078690607237,-0.003752438921523955,0.033771017519174246,-0.0983636020234257,-0.049422793281145946,-0.044472136659021,-0.07806112946609486,-0.08805334345494029
0.614,-0.04145160049412073,-0.02069220040414159,0.02108053905091261,0.03223062349487309,-0.030828795552251136,-0.0009273328666703254,0.029211943790456805,-0.09868900082320119,-0.049753661703464125,-0.03997435458879926,-0.07806929419719498,-0.08806665454911841
0.616,-0.035268775953224585,-0.01798450577547625,0.018144481245787374,0.02757227455092773,-0.02622619087781096,-0.0009378947261001816,0.027277210982722455,-0.09833196670110489,-0.04935291563119826,-0.037482661319826936,-0.07821913265949915,-0.088222120828042
0.618,-0.031246402954808877,-0.01867352241820957,0.013794990630953512,0.025599107840217128,-0.02229499579118367,-0.003606226712059001,0.02801119767860605,-0.09907223380567658,-0.05019025014538199,-0.039126292296674664,-0.07949461316535236,-0.08949748099600989
0.62,-0.03145142081748166,-0.020380056274636682,0.012236562164448211,0.02650782003128293,-0.0218090632608251,-0.005389406995517987,0.029362346268737054,-0.10210714026695625,-0.05357165064716314,-0.04397856164810742,-0.08278876627918516,-0.09278850539884953
0.622,-0.035950495250357664,-0.020875223676202474,0.01590112837224068,0.029146139794174988,-0.025798289216020433,-0.0037454103534083107,0.029684540497484525,-0.10619230700263793,-0.05810707331471679,-0.04885390288792683,-0.08704491449008273,-0.09704322483723317
0.624,-0.042219237897113106,-0.020211615801972907,0.022439769305771733,0.03198791909420736,-0.032034601044532394,0.00014885055780739388,0.02913349317089044,-0.10857862766411298,-0.06075173104937132,-0.05089065440710842,-0.08960380257342143,-0.0996031378711468
0.626,-0.04622644937563743,-0.019627766430926945,0.026807520145293168,0.03339482097862915,-0.036225143521201035,0.0030894997950245925,0.028695404149950404,-0.108235292954609,-0.06036898806952965,-0.050032994021310624,-0.08933230675842443,-0.0993329113431701
0.628,-0.04530140302640293,-0.019708106057822784,0.025954509412655563,0.03236121294400474,-0.03539317294187253,0.0031076096886446924,0.028782931306637467,-0.10682237692931311,-0.058802195738775945,-0.04856716671539095,-0.0878653900841839,-0.09786604161050522
0.63,-0.04087588250621397,-0.02006363564048677,0.0216234944868779,0.02980026907324816,-0.030917189884091995,0.0010149494020339944,0.0290623083059116,-0.10626658290764288,-0.058186822011224444,-0.04825768631580282,-0.0872370132264492,-0.09723699449511478
0.632,-0.03711151238130448,-0.020386938296186295,0.017872287491721622,0.02799237383457004,-0.026993391071334798,-0.0011107693304631397,0.029367370467759366,-0.10654554691123531,-0.05860581952524164,-0.0486579838330625,-0.08748560642759558,-0.09748524192737984
0.634,-0.03566354976639628,-0.021435015371846035,0.015261011712675653,0.02807155495639978,-0.025013905212550543,-0.0031985614129448996,0.030569175466428143,-0.10589354927470247,-0.05842675584565448,-0.04780876313098792,-0.0867377646388358,-0.09673760075569376
0.636,-0.03414694102136747,-0.024249284083847165,0.010423946211888748,0.0290515007193151,-0.0222234696522338,-0.007253933134904611,0.03374349661063914,-0.1029433481284889,-0.0560192157254697,-0.0444219299433074,-0.08348207543223522,-0.09348219606893643
0.638,-0.030895873002551418,-0.028062443752010988,0.0028354694552015034,0.029514505646445414,-0.01730236830060077,-0.013095994664585836,0.03798261243553916,-0.09885047145209214,-0.05118187819530539,-0.039890398903594596,-0.0789578616074812,-0.08895800866502898
0.64,-0.02810106229645378,-0.03032955373635811,-0.0024366103612281607,0.029328814164694513,-0.013563309891642561,-0.016922979453246046,0.040379354680492,-0.09661170736581394,-0.0455658708074281,-0.03746996097320003,-0.07646935958356822,-0.08646936399204731
0.642,-0.02892350933409494,-0.029385603440577782,-0.0005457177105347331,0.029483186180329662,-0.014997899705313785,-0.015485607146824273,0.03883133897079881,-0.09811725928187869,-0.04208240112512296,-0.03916604186873853,-0.07812893928938139,-0.08812886114237992
0.644,-0.03354578522196369,-0.025774409652149066,0.007955266928650563,0.03043546117948714,-0.02162056157699284,-0.00932009463074138,0.03407648913633254,-0.1024948045140723,-0.042954665421872956,-0.04400447855175797,-0.08298708506893346,-0.09298704533583536
0.646,-0.03875777830694099,-0.020986446039571047,0.018178651020912328,0.031001553686709964,-0.029440009233422822,-0.001570544278157497,0.029195502276885315,-0.10687328452689755,-0.047083115891730754,-0.048844589843243975,-0.08785652961310975,-0.09785655328104653
0.648,-0.04086129243687624,-0.01614018393969155,0.025175553046700654,0.029532726913762762,-0.034023074193536305,0.004705696962065574,0.027102899270280055,-0.108696174128447,-0.05073215765389989,-0.050872062561096464,-0.0898872576442327,-0.09966789442572906
0.65,-0.038643598037982715,-0.012020602512460832,0.026993439345095807,0.02590826571747812,-0.03358819399161084,0.007935496787951244,0.027936965985734107,-0.10792450404340431,-0.052284524042242764,-0.05002919590863286,-0.08902993807594398,-0.09749738705550329
0.652,-0.033725101289508216,-0.009488714860819085,0.02466779341133956,0.02179773840590038,-0.02935206213058373,0.007988872772386104,0.029422003000415003,-0.10661092574404463,-0.05391330857489933,-0.04857549853728446,-0.08756756072129188,-0.09276079961492026
0.654,-0.029129904817614623,-0.00896683360462552,0.020930190850995886,0.019231441955419093,-0.024493390127517785,0.006090177174744206,0.029753534177211324,-0.1063349775230148,-0.05716110375056749,-0.04826373876723458,-0.08725954221529683,-0.0882267360895162
0.656,-0.027482481562566895,-0.009811460445211402,0.018762140114783825,0.01912412789662889,-0.022364371853667773,0.004366022322254252,0.029353285992295825,-0.10689084398188425,-0.05989325870000933,-0.04887572415158619,-0.0876586552941155,-0.08650924891517604
0.658,-0.029581774597694586,-0.011235266081833102,0.01939754201609712,0.021215334869417606,-0.02422940465635017,0.004029093992016135,0.030190496644177632,-0.10730608958293941,-0.059042697544457214,-0.049337223085300176,-0.086808071049935,-0.08854171739196204
0.66,-0.034194960779627435,-0.013582289613839067,0.02129902487370074,0.02488923794396147,-0.02837470973759917,0.004014860348951605,0.03357156627380335,-0.10720462766259799,-0.054441178950800063,-0.04922762258686132,-0.08342123293553437,-0.09316122022015468
0.662,-0.03870894386661389,-0.017606575051407718,0.021447280279459403,0.02919328213943811,-0.03130004018330386,0.00211931231579895,0.03810689849323872,-0.10693091063115394,-0.049254437319325516,-0.04892492726323873,-0.0788904436592714,-0.09771468781951437
0.664,-0.04070356956144479,-0.022808031127508177,0.018101740302192554,0.03273157688755529,-0.030499560794607763,-0.0024369069423451715,0.04075169358956752,-0.10665809483356276,-0.04715165572374544,-0.04884016927732916,-0.07625096651747112,-0.09950532997198777
0.666,-0.04002279488419451,-0.02740488957544024,0.012755517686930926,0.03450665628045425,-0.026806183177442027,-0.00781020422741311,0.0403690655808322,-0.10558945899433542,-0.04935592006229051,-0.0489646809729444,-0.07663365548152606,-0.09749721194807293
0.668,-0.03866437840351206,-0.029824269228384166,0.008865631614769238,0.03463645621266179,-0.023430291563941236,-0.01115731838023067,0.038802253205107905,-0.10273782440100872,-0.05426760239566065,-0.04907034038493595,-0.07819759484078956,-0.09284941797273397
0.67,-0.03830967402723054,-0.029956443909215313,0.00829342081414106,0.034075359937255745,-0.022564472425801892,-0.011430490198055107,0.03818680716056719,-0.09891804174518987,-0.05886687307860078,-0.049052861123123445,-0.07881163531060131,-0.08826914881001002
0.672,-0.038849159125324134,-0.02888594938267219,0.009935492903721938,0.033627355722416215,-0.02369394196161195,-0.009921242645357268,0.0384960829675948,-0.09664622125232242,-0.06073935737393381,-0.04920625674532464,-0.0785032559962134,-0.08626174783543719
0.674,-0.03929946693089585,-0.027197488373978743,0.012261437229503179,0.03307653661736481,-0.02529576067352479,-0.007818315887753226,0.037770166754935684,-0.09749263897166767,-0.05995370442292389,-0.05049743086122901,-0.07923036747777476,-0.0869725941931471
0.676,-0.03922408589173836,-0.024435635437198754,0.01529920017485299,0.03166188956558475,-0.026870282730478607,-0.004816052589331219,0.03449183461213315,-0.10090398400928262,-0.05861184784140469,-0.05379713885615547,-0.08250878130953587,-0.0883523462832099
0.678,-0.038943842461444084,-0.020983017880981204,0.018875448108721195,0.029598182157144142,-0.02845335135145528,-0.0011360442783199566,0.029944840430655786,-0.10558850906785172,-0.05832228707617521,-0.05804737600727808,-0.0870551622240236,-0.08870083088431335
0.68,-0.03885113423254333,-0.018751553416716873,0.02124753278154934,0.02822459111043332,-0.02951189691234834,0.0013048186351771313,0.027457814179572698,-0.11038054170828442,-0.05866445470083056,-0.060381013010286304,-0.08954185096563204,-0.08836612774879536
0.682,-0.03895959594519879,-0.018826286159347984,0.021255071458164278,0.028280826060534385,-0.02956592075277589,0.001288659171433548,0.029130530557908915,-0.11347177665874016,-0.05777660047933501,-0.058796788736745875,-0.0878693080483793,-0.08922539131242486
0.684,-0.03906192766102897,-0.020027091135016044,0.020022662184527827,0.029027633048360084,-0.02904292904967086,7.442696429029762e-06,0.03399414574659506,-0.11285235067830901,-0.05440303654313471,-0.05405908161175466,-0.08300595990099725,-0.09258122527924804
0.686,-0.03905161776547416,-0.02062805328499749,0.019354133583510152,0.029391496290618407,-0.028725731724838256,-0.0006714597821649719,0.03885903378533702,-0.10906495125709806,-0.04989892639636543,-0.049206042465241545,-0.07814110475405124,-0.09709246922372838
0.688,-0.0387714614566546,-0.020288836380375944,0.019455703908439054,0.02906422014114564,-0.028646079117506162,-0.00043851501579360194,0.04088460059640263,-0.10588285422051118,-0.04726494849885112,-0.04733682970641688,-0.07633480413012773,-0.09973953027090697
0.69,-0.037434910913848735,-0.019799847985973132,0.01865957938135133,0.028105719223189305,-0.027693071033908098,-0.0005620478004644728,0.04002730233900514,-0.10678441719978858,-0.04763570478845925,-0.04947071013865303,-0.07850517998762344,-0.0993711301284839
0.692,-0.03418270467329743,-0.01974792286360834,0.015461055379642184,0.026441217122142664,-0.024793246890041983,-0.002127657404222868,0.038567751762006844,-0.11160598442753986,-0.04919094340422061,-0.054221384337305334,-0.08323895388053962,-0.09780987715724457
0.694,-0.029979919040154537,-0.019988622096416983,0.010990489533055283,0.02447911358275887,-0.020888093237135384,-0.004495932628812226,0.03826107184996455,-0.11685739276667154,-0.04980733986736747,-0.058782164202428086,-0.08777174527107018,-0.09718932210408356
0.696,-0.02764302438479178,-0.020131910096587553,0.008496414944768941,0.023398141824244528,-0.01871149305000699,-0.005824848091354374,0.038878677882935773,-0.118873242226566,-0.04928543789559513,-0.06072412115723766,-0.08970955642961115,-0.09749312367270808
0.698,-0.029199797243830816,-0.020069166035102254,0.01012405626702984,0.0241423917628531,-0.020144368363827464,-0.004977653762260392,0.03934008934830264,-0.11659462557668028,-0.048700911530128475,-0.0599926540302616,-0.08899138299823087,-0.09676738077010386
0.7,-0.0339261698896178,-0.019961062000889936,0.014969987900533024,0.02644156945886873,-0.024453302719230206,-0.002494098239905968,0.039227379750907065,-0.11169543825162646,-0.04870265537251189,-0.05863876653846461,-0.08764610773999815,-0.09349211882949071
0.702,-0.038788775957636315,-0.0199436659781025,0.019851027880724344,0.0288609272976159,-0.028838671603885115,-4.284979608434186e-05,0.03892324708487997,-0.10714259028463603,-0.04902097043646969,-0.058313889072796596,-0.08731808926279822,-0.0889464965653699
0.704,-0.040778441993998576,-0.019774947167117033,0.021981718536705795,0.029830132029343405,-0.03070229060213929,0.001060378232609247,0.039058895460235304,-0.10528534478870655,-0.049172039885117674,-0.058645753214129924,-0.08764375318887545,-0.08623905392930833
0.706,-0.03919135865160565,-0.018495486429445523,0.021561405000369616,0.028695866164242998,-0.029836616324814966,0.0012688509490585064,0.040497831706655704,-0.10605291783818015,-0.04907067500469214,-0.057772250636358005,-0.08676900317294073,-0.08659737667293882
0.708,-0.03530559352402184,-0.01520973557805964,0.02076684449937548,0.02578614476501897,-0.027763970042037556,0.0020676861575228142,0.04387773559239483,-0.10737782880125478,-0.04893988418846691,-0.054411164663344336,-0.08341070495744604,-0.08818676762527405
0.71,-0.030473630167747463,-0.010959772808228525,0.020070270789973144,0.022070873232848325,-0.025200364823457392,0.0033819909039451697,0.048085642852800974,-0.10766916754134868,-0.048932728006311856,-0.04990518264137775,-0.07890673527722124,-0.08882626193665022
0.712,-0.02584304522801416,-0.008508952008495182,0.017948564594320617,0.018947922276760298,-0.021984692083264982,0.003336088295454662,0.050355305427601076,-0.10692024507715465,-0.049000676287622134,-0.04748289732512152,-0.07648388982127814,-0.0882967548957555
0.714,-0.02369628043468911,-0.009542570246589745,0.014852075872335788,0.017953240113620768,-0.019641932957366822,0.0013215283835428344,0.0487636269772057,-0.10531695246688848,-0.04903703427973793,-0.04916415312251285,-0.07816377988345444,-0.08769599090862476
0.716,-0.026831692727774317,-0.013389825088755468,0.014142447945769009,0.02033771380503858,-0.02123109455666632,-0.0008556179356303775,0.044057271524257535,-0.10246588358198243,-0.049017319985605816,-0.05399651670973744,-0.08299579680202379,-0.08769412905889584
0.718,-0.03499426046799312,-0.018405028940312578,0.017243269722830083,0.02601076906024069,-0.027081457083750576,-0.001851966196839847,0.03922327511736606,-0.09893663873796338,-0.04898806239653158,-0.05884181756607469,-0.08784167738397519,-0.08801958310183425
0.72,-0.043805004933395265,-0.02351485075069922,0.020789207504626105,0.032929201230421215,-0.03313517223359817,-0.0027882900754136225,0.036907256321645085,-0.096803263777449,-0.04898484606079969,-0.06087508333372327,-0.09009480545238356,-0.08839542643435953
0.722,-0.04898482303940291,-0.028739276063285274,0.02043194176551946,0.03870646002567388,-0.03509651746965738,-0.005552268172772182,0.03640060164283861,-0.09755744575204119,-0.04899927630303273,-0.06003215169157493,-0.09056493772688383,-0.08960589197316124
0.724,-0.05004439759614755,-0.03427189469810631,0.01567477806443932,0.04242913031088787,-0.0326424643922009,-0.010271916515178997,0.03460047572903763,-0.10084924968281238,-0.049007924185235356,-0.05857526187496855,-0.09238193937713034,-0.09274572307215354
0.726,-0.04923427165610825,-0.03892576889860469,0.010158689692731527,0.04429536192155421,-0.029033529604349777,-0.014809786383361816,0.030715755944852912,-0.1055270100023873,-0.04900417996144422,-0.0582620126846254,-0.09629465062336309,-0.0969636387579705
0.728,-0.04851792783442878,-0.04050794885412396,0.007981438583140543,0.0444745803380206,-0.027579360608071122,-0.016537440628387176,0.027770770492120043,-0.11060043486291123,-0.04899767216467965,-0.05887502883212497,-0.09946319291425648,-0.09958847302424838
0.73,-0.04787565320693519,-0.03763525544438117,0.010327255264855546,0.04261074097719687,-0.028892200161090353,-0.01436001645738172,0.02886446331016989,-0.1150381287128788,-0.048996606995735395,-0.05933783292616974,-0.09966936951076734,-0.0993693379662657
0.732,-0.04581280420133539,-0.03066635267421333,0.01534654785490953,0.03811984731141807,-0.031050964106969895,-0.009049331598526186,0.033697555863757805,-0.11767496726192114,-0.048999649669417306,-0.059228293332307884,-0.09810184983320619,-0.09789144336541228
0.734,-0.041378782146948144,-0.021926830682863583,0.01992008553771215,0.03148647812907231,-0.03160155674844389,-0.0027526249605304195,0.03886234417467396,-0.1180868847079873,-0.04900168430451882,-0.05892491484362186,-0.09716624909804333,-0.09722924879796094
0.736,-0.035769545186627914,-0.014919742497837209,0.021721676674205038,0.025072618071371285,-0.029682701717681143,0.0018948290321571058,0.04104779323045438,-0.11701841454496284,-0.04878159949278335,-0.058839797303610684,-0.09754240729250514,-0.09768707606796924
0.738,-0.03207185612038843,-0.012306270792635512,0.020916232607527077,0.021931736314760496,-0.026940261490042142,0.0034487240762720328,0.04010338893772945,-0.11505009072183164,-0.04746700257509465,-0.058964510075596666,-0.09823132763129526,-0.09826599304547166
0.74,-0.032838740283931,-0.014381493078659146,0.019603604489380068,0.023437257911959573,-0.025984579274402266,0.002430537447087471,0.03851504897979452,-0.1118732283920987,-0.04419250029240701,-0.059070461749733,-0.0983589151225128,-0.09829653676896721
0.742,-0.03703363858723413,-0.018692953125174383,0.019338799443296473,0.027614277942755536,-0.027483882612846115,0.000520967498665498,0.03819438749019778,-0.10803697381137814,-0.03996708469114476,-0.05905301235626527,-0.09804540606528044,-0.09799670473447687
0.744,-0.04033301009351909,-0.021578237806431734,0.019676839867815644,0.03047845036128619,-0.029293159481431467,-0.0007628583757196828,0.038656193185649806,-0.10561675963695746,-0.03741215212738212,-0.05898686654407261,-0.09760666602967077,-0.0978368435753874
0.746,-0.03926534070888857,-0.02145524021452063,0.01877350483028137,0.029740347667314513,-0.028652218311713384,-0.0013401729820138864,0.03784245081677734,-0.1057279693914201,-0.03766876582172618,-0.058964797337043094,-0.09635964204641953,-0.09792392244346934
0.748,-0.0343001140278713,-0.019929849339686063,0.015394798995144017,0.02653790518418514,-0.024938767342764512,-0.002362830720518125,0.0344389976763969,-0.10704329098576247,-0.03912641538202152,-0.05899035306659102,-0.09323667273024427,-0.0980526873409241
0.75,-0.029070588532289953,-0.01920546882861522,0.010896681091433092,0.023663493230612766,-0.02045101797490325,-0.004200452567427224,0.029880167124909953,-0.1076866135499439,-0.03975848728513934,-0.059014603115669945,-0.0890467615094046,-0.09806667204962585
0.752,-0.027143580342167305,-0.019854977829935515,0.008268371454047463,0.02306434944103993,-0.018314071983701358,-0.0057752245533671046,0.027236363282552772,-0.10730836767304545,-0.03951671631965582,-0.059012239769117125,-0.0864261017001342,-0.09800309103707479
0.754,-0.029452706121311477,-0.021644502405410226,0.008638565095342356,0.025137551349472886,-0.019477124871993694,-0.006540903354490682,0.02763228834694254,-0.10677773372338964,-0.04026580030840436,-0.05899787709737118,-0.08663194802613386,-0.09796509260453355
0.756,-0.03431799022536741,-0.024638121852651778,0.010190441655456895,0.02919490163021777,-0.022253469311501572,-0.007461533671858278,0.029204911152807017,-0.10672682949889291,-0.04351835980440832,-0.05899230645353335,-0.08810121712348293,-0.09798164001379829
0.758,-0.03883799491415432,-0.028133934923738505,0.01080553926788505,0.033419663830676974,-0.024365443964926035,-0.009135644306440743,0.029815876057410505,-0.10699059295790826,-0.04804040081049454,-0.05899748366009132,-0.08876654365525674,-0.09801028015182583
0.76,-0.040698053671363976,-0.030063973393408036,0.010504247853520408,0.03545368603238087,-0.02492753164954173,-0.010359192260133522,0.029501288925900867,-0.10714433822567264,-0.05052957293329199,-0.05878360040025712,-0.08831491952077744,-0.09801492980207775
0.762,-0.03994974742474406,-0.028736457277711798,0.011234167996063067,0.03434485363028769,-0.02498017466637526,-0.009235483715388782,0.030227113622647322,-0.10707402119973725,-0.04887149906122955,-0.05747025070789897,-0.08773725631359325,-0.09800152114681139
0.764,-0.03863250407245352,-0.024612294012482792,0.014510055365517074,0.03137906636249982,-0.026102083686940423,-0.00529583895309447,0.033508300566326546,-0.10695659998236391,-0.04401370686176912,-0.05419295983659358,-0.08770392626350199,-0.09799257903734533
0.766,-0.03833431349724147,-0.020257680360864817,0.019053696751446803,0.028801573014449033,-0.028266906068718456,-0.0006113630217285644,0.03805670829940033,-0.10693888625506985,-0.03914360943822189,-0.04996553161275876,-0.08800174318413301,-0.0979956252182508
0.768,-0.03865892597668365,-0.018088534212288013,0.0217598519004796,0.027797257881154936,-0.029727825665625013,0.0019257381546227896,0.04076224801558615,-0.10699449559098378,-0.03711237659925068,-0.047630555714977464,-0.08816216237790603,-0.09800196015817636
0.77,-0.037767396286461384,-0.017473433014562948,0.02140199519394107,0.027221110912834225,-0.029054239363214315,0.002014931334132246,0.040401496237816734,-0.10703072133963193,-0.03796981133515622,-0.049201693104828845,-0.08807644975238338,-0.09800332369950446
0.772,-0.03440165725488798,-0.015546889527081803,0.01981352945813883,0.0249782720185241,-0.02658311172615763,0.0021136312369199658,0.038811983513478865,-0.10701767753153596,-0.03943251918558296,-0.053933879905013186,-0.08794803291466866,-0.09800051787682326
0.774,-0.029903290545650222,-0.011653230598135961,0.019174222753549054,0.021219955865602456,-0.024043660366021825,0.0037248586400697886,0.038173756617692914,-0.10699167829935124,-0.039740632704808584,-0.05879142406591894,-0.08793346886794148,-0.09799843354596623
0.776,-0.027487181984780906,-0.008769722432369464,0.019703314493486675,0.01877116665577393,-0.023110926016362738,0.005460305358195326,0.038923331706400555,-0.10698637809291858,-0.03912198844337846,-0.06088519744261351,-0.08777718700571892,-0.09777957295140417
0.778,-0.029167232272117254,-0.009897563127773732,0.020303777728735435,0.01999437193770737,-0.024240311900750877,0.005219194636320654,0.040836882597787984,-0.10699803480293102,-0.038659298710354825,-0.06006448297797887,-0.08650212103591488,-0.09646780860267642
0.78,-0.033995649240025246,-0.014713810709034433,0.02030572256230763,0.02434972762415824,-0.026644427477773663,0.002807118538199529,0.04411239131711447,-0.10700649511110677,-0.03877196432258174,-0.05858518500983055,-0.08321168224105466,-0.09319399122621447
0.782,-0.0388397228506633,-0.019852068312791012,0.019980472284312233,0.028870938565385786,-0.028904486135249877,6.0766263769757196e-05,0.04801293204982639,-0.1070041748729167,-0.03907677355934917,-0.05824910847508768,-0.0789570819703202,-0.08896735697475058
0.784,-0.04087455618133654,-0.02212179745987461,0.019714379098308813,0.03088380098291991,-0.029850051975780403,-0.0012223994234739936,0.05041216095222752,-0.1069984496131957,-0.0391608685618546,-0.058863449824066126,-0.07639690627747489,-0.08663086475448965
0.786,-0.04003304302983609,-0.021825152172385932,0.019050707942644234,0.03072925604529645,-0.02937357833392236,-0.0014656597588395225,0.05025827842384465,-0.10699698112465948,-0.03903488657734909,-0.05933934431177999,-0.07666694231259455,-0.0882008445764239
0.788,-0.03857597530632063,-0.022320769713014034,0.016781625570559927,0.031099852458039583,-0.028053426266015556,-0.0030065612392795624,0.048934601290790025,-0.10699940410210183,-0.03892888668035464,-0.05923533419203363,-0.07813386439454006,-0.09293330595130055
0.79,-0.03826186703444515,-0.026090740640295762,0.01227337758942882,0.033585129520386635,-0.02617308868397886,-0.007357734995512073,0.04831045966760433,-0.10700136283724139,-0.03894700567881062,-0.05892745314368795,-0.0787630404712078,-0.09779161297592269
0.792,-0.03865517371861003,-0.031975532295499945,0.006519591093531287,0.036866563760947754,-0.02369675701558498,-0.013307972613880193,0.04870231203079826,-0.10680351957490186,-0.03901349764736058,-0.0588371673722154,-0.07851482606968939,-0.10008305748249792
0.794,-0.03780513935057191,-0.036085838846454596,0.0015825478664392599,0.037972290500450444,-0.02066693218055975,-0.017819913028804743,0.049228952532628,-0.10562042406072726,-0.039035366778572014,-0.05896186866659499,-0.07926241264149342,-0.10044387107218342
0.796,-0.03442173257236148,-0.035364251773600815,-0.0009309204859260735,0.03513796232407807,-0.017423784925204463,-0.018641747447328542,0.04927053011540998,-0.10267326473935974,-0.039009526576259494,-0.059070635283089375,-0.0825177732227079,-0.10191107765741948
0.798,-0.02989228220994067,-0.030974786881361422,-0.001005173491796112,0.03017985693840915,-0.014880458539251703,-0.016451355176903593,0.04900449651285158,-0.09887031669858201,-0.03898524983344551,-0.05905453672383653,-0.08704196935582095,-0.10537849180979293
0.8,-0.0274709682534006,-0.02723180335756679,0.000270174096197369,0.027157857126932253,-0.014287203973255287,-0.013965350874247535,0.048854757759894875,-0.09676835716918465,-0.03898775567302864,-0.05876810375744361,-0.0897500384746571,-0.10818316769069154
0.802,-0.029165495236746282,-0.02629335553066502,0.0028672050161960084,0.028047030627628658,-0.016661450881992716,-0.012215539965859707,0.04892822705839309,-0.09818120284411656,-0.03900220097464426,-0.0574317141489684,-0.08940370770354095,-0.10768371943135834
0.804,-0.03400366775408438,-0.025798921982453853,0.008306431047184095,0.030826551372617837,-0.02210360525268382,-0.0091734396605363,0.04904496726793165,-0.10243987091219131,-0.0390077333252648,-0.054183010098132874,-0.08781970286630372,-0.10399541908020181
0.806,-0.03884450087168801,-0.02262659237202166,0.01654581823875435,0.03194133229131751,-0.02879076486496344,-0.0032231670015370854,0.04906063539289194,-0.10681216018462752,-0.039002492734722366,-0.04998180947697172,-0.08717623695318572,-0.09892955627225172
0.808,-0.04065306632771832,-0.017134237188974912,0.023979753939887147,0.029859568049290654,-0.03336016093796748,0.0036119474358980784,0.048785024417325115,-0.10869695857082766,-0.038996970409510716,-0.04753406258007248,-0.08770090761156168,-0.0942120435412395
0.81,-0.038496881650386575,-0.013037515202791984,0.02587571303955313,0.026127954894307824,-0.03305057807177001,0.006877287237155678,0.04743646817134823,-0.10795823513183546,-0.03899719255799479,-0.048542538457743555,-0.088301528874202,-0.09151378679728021
0.812,-0.033768650249165644,-0.013629112653330418,0.020589207413902494,0.023403483782967534,-0.02777797812198988,0.00388302821319115,0.04417604687631248,-0.10662660897687849,-0.03900031233018559,-0.05237610647166452,-0.08830596187788303,-0.09235715575037295
0.814,-0.029230761792026532,-0.01796246380724681,0.012019115240745636,0.022907612663459965,-0.021005734159651963,-0.00286639337691487,0.03997588908168605,-0.10632406075601783,-0.039001681272620416,-0.05739849352870467,-0.08798181384694848,-0.09605057300579282
0.816,-0.027506887535829718,-0.02141600832559683,0.007164269852196446,0.02376478464224453,-0.017686730354778576,-0.0072387019612254805,0.03742533656526964,-0.10667961427464577,-0.039000632622035486,-0.06210236285858783,-0.08782458740546634,-0.09906123091375234
0.818,-0.029538392547930156,-0.02034336864494837,0.010224551878462728,0.024431036775427788,-0.02028897445112933,-0.005100402944840779,0.03767025864434676,-0.10592616986828633,-0.03899938466526142,-0.06483307516935086,-0.08792619455598855,-0.09812594532887992
0.82,-0.034160920752389544,-0.01529158651988467,0.019434252975074794,0.02432200400092934,-0.0271229223703181,0.002317379171709437,0.03911993337611721,-0.10288577722730241,-0.03899936084582773,-0.06413939763269819,-0.08806046110850818,-0.09338132757542911
0.822,-0.03871635922227256,-0.010023816539832791,0.028714516617103183,0.023921351901241335,-0.03380505872567441,0.009862164799357344,0.039754576457735336,-0.09880518115884923,-0.03900003050747224,-0.06076052280021393,-0.08806914528021809,-0.08818531340360464
0.824,-0.040725687958927406,-0.008016219646615126,0.032489813164389876,0.02389899797492408,-0.03656774219164009,0.012844370063112042,0.03929898947036388,-0.09662149422016741,-0.03900036337337399,-0.057817882875378125,-0.08800003006002807,-0.08604438023011397
0.826,-0.04002931308480092,-0.009813239077819736,0.03011608649131884,0.024709103477725647,-0.03529362801155408,0.010685193113722244,0.038736178053564975,-0.09814664938199198,-0.03900015691838774,-0.057492902656044696,-0.08796228081444793,-0.0877385584150535
0.828,-0.03865542132167118,-0.013786470937445375,0.025051326621825905,0.026600599644901295,-0.03265059290603301,0.006012786330629969,0.038712104631983345,-0.10250350142303205,-0.0389998766514945,-0.05884079818714883,-0.08798196739547873,-0.09173543249200987
0.83,-0.03830183850136622,-0.018446859488480082,0.020270502960326096,0.029355562755512765,-0.030482003006888234,0.0010565458364976833,0.03900623805074714,-0.10686139968918452,-0.03899985544797477,-0.05971628266625189,-0.08801197098671348,-0.09646323594756384
0.832,-0.03863090833170241,-0.02298950638533546,0.016078651790132906,0.0320748003838886,-0.028461816034511766,-0.003648430673086395,0.03915984624481941,-0.10868575120474301,-0.038999998268190575,-0.05942977137530641,-0.08801555877762415,-0.1009374230164904
0.834,-0.03777173621108428,-0.026236188245882166,0.011772464440984388,0.033260191110586944,-0.02565048967894211,-0.007731786367622968,0.03907289048665317,-0.10792601134064643,-0.039000078058203436,-0.05881862446065092,-0.08800089885195772,-0.10371902850874241
0.836,-0.03441902014871627,-0.026390504901982196,0.00812885745528437,0.03154633445174672,-0.022292881117153586,-0.009690055853521123,0.03894759678232152,-0.10661733374830401,-0.03900003822996224,-0.05868021631779604,-0.08799193854861498,-0.1031749286055036
0.838,-0.02990921558356183,-0.022666039833696007,0.007587155743970478,0.027296861716825986,-0.020165856456089353,-0.007865505470698012,0.03893520292159619,-0.10633721576794675,-0.03899997566254237,-0.058946168600468,-0.08799565888656208,-0.09983972129612761
0.84,-0.02748053675646707,-0.01690538774032589,0.011434401252791007,0.023078712905266547,-0.020892614068427753,-0.0027480467903800232,0.039217045706091774,-0.10669095950563151,-0.03878057130523082,-0.058929200674615524,-0.08800232576963965,-0.09661692302933933
0.842,-0.029160824714853054,-0.012960741891933638,0.017409225586616308,0.021749015904958403,-0.024010954438132233,0.002355775986388232,0.0405667917619931,-0.1059244099518311,-0.037467443902171535,-0.05756773868274496,-0.08800347996198266,-0.09492593489123599
0.844,-0.033996215097374965,-0.013725165106857057,0.02145214753213824,0.024096015112346113,-0.027431344267327414,0.003935879125468299,0.04382438053170296,-0.10287874523368001,-0.03419327220031457,-0.054160072682782064,-0.0880003929936419,-0.09300755513393491
0.846,-0.038843489889210575,-0.018045733036297383,0.021780936865883893,0.028062644856561493,-0.02942890386045157,0.0018359305184521956,0.04802253605010426,-0.0988027827226139,-0.029967212554165883,-0.049896631239809495,-0.08799828861884085,-0.08968960947015611
0.848,-0.040656650516873206,-0.021817590002451037,0.019713246666951956,0.030492270572559828,-0.029407585540122436,-0.0011163010665094003,0.05057367794488565,-0.09642672953343139,-0.02741179195362164,-0.04739619900936641,-0.08777957187793474,-0.08685895380142944
0.85,-0.03849914537233898,-0.023202149545064037,0.016102904472843592,0.030227880563277132,-0.026998211836561502,-0.0036345822373928353,0.05033013007403057,-0.09676994558814522,-0.027668524005178403,-0.04769959353388751,-0.08646788718003999,-0.08649211839435056
0.852,-0.03376777555107637,-0.024407609451951917,0.009916138460729737,0.02885793594693288,-0.022000079097214832,-0.007461314860666484,0.04888079010185922,-0.09817720173785485,-0.029126496432411973,-0.049149845905230846,-0.08319402934488455,-0.08779959626785566
0.854,-0.029229108622402303,-0.027207193842692115,0.0021582893022241492,0.028289762462644027,-0.01615834556925471,-0.012959785937915228,0.04824555698229199,-0.09873035704568975,-0.029758657964173398,-0.04975285545980785,-0.07896733230081596,-0.08869871513813238
0.856,-0.02708972244152085,-0.02963619124319495,-0.0027063249737125186,0.028539032695017823,-0.012827984894580055,-0.016745408447156468,0.04870067944910187,-0.09825576478780705,-0.02929735740733866,-0.04928184347907963,-0.07641143595973533,-0.08866631497521556
0.858,-0.02682474979859589,-0.028516618766781222,-0.0018471254520239832,0.028075603610483692,-0.01337454192296389,-0.015694400784355186,0.04937328908634563,-0.09772823385446645,-0.028733171117450745,-0.04872892739988256,-0.07677798671790272,-0.08936981335934173
0.86,-0.026407934856658134,-0.02383920504649205,0.0025933296553987597,0.026209035345873283,-0.015976319950654506,-0.010944361560534967,0.050054242656226884,-0.09773177066574096,-0.02871155900953169,-0.048717998295504,-0.07889285520175263,-0.0924864073743366
0.862,-0.02587995792703915,-0.01931607884620722,0.006800292881835706,0.024416715258561452,-0.018498779143523693,-0.0064268528541625985,0.051397293828458146,-0.09791029106587078,-0.028897920283339203,-0.04879361383022154,-0.08105249963997188,-0.09685868792308654
0.864,-0.026727555847175854,-0.017536707833702453,0.009710191808041937,0.02394814027557748,-0.020501838642987345,-0.004081334432999342,0.05355404651493998,-0.09727973171370362,-0.028306767914385578,-0.04773700884786167,-0.08193781605475195,-0.09874633779004352
0.866,-0.028074781982778706,-0.015922142781488683,0.012985643900900635,0.02316091883779569,-0.022352028936607336,-0.0018611189326872143,0.05631983682513782,-0.09478406730068516,-0.025946502481960062,-0.045028736095610464,-0.08035754908448903,-0.09549932651039257
0.868,-0.027077851244535794,-0.009865565562621208,0.018031013098585267,0.01925788504006759,-0.0240128721767169,0.0033083986481687745,0.06057670782342553,-0.09025928089417956,-0.0216318619029253,-0.0423164013214736,-0.07645746792859022,-0.08863116335166604
0.87,-0.02319046125086434,0.0014367821155692657,0.024797383379839263,0.011897716418004436,-0.025357613372074844,0.012182329519854786,0.0669378218920388,-0.08522541726284172,-0.016358178001839897,-0.04186456394316809,-0.07263388419273037,-0.0831102967443487
0.872,-0.019325243302434132,0.014041060134388418,0.03258654417356773,0.003786351837177685,-0.026880224471473174,0.02268274112998283,0.07308523794419973,-0.08191490668784969,-0.011777151229330641,-0.04313271160167412,-0.07110228073439374,-0.08272451215329972
0.874,-0.018228601502377095,0.023228751977155983,0.04022636570283624,-0.0019524147520973154,-0.02917495275984632,0.03153928524721919,0.07571331794249225,-0.08076096897922842,-0.00914492336638315,-0.04252773016535758,-0.07070112842027362,-0.08577862735563269
0.876,-0.01944851261999519,0.027667730080329443,0.04629575786605415,-0.004430019581309233,-0.032064145821710605,0.03697771808554157,0.07509966173014612,-0.07962275034501635,-0.00811170021267221,-0.03730468079948287,-0.06810314143156176,-0.08720902531645963
0.878,-0.02064604167286354,0.029847238013266594,0.05041909777309838,-0.005068303652566932,-0.034998579932043236,0.0401090767179177,0.07474855381973781,-0.07666061534761587,-0.006559900158197378,-0.028869149790095663,-0.062432368688858916,-0.08493451413302909
0.88,-0.02038078349401014,0.03323869861612174,0.053826776889876804,-0.005999205513771517,-0.03778334958929125,0.04354368178439337,0.07661054021768965,-0.07296071145593677,-0.0025080931099509575,-0.021095543398262816,-0.05605612208112196,-0.08136408611040055
0.882,-0.018405915658029983,0.03933042584362629,0.057604498883461315,-0.009009172266135294,-0.03975455368647391,0.04862367089612287,0.07953381168153208,-0.07064432675459689,0.003970651249239524,-0.01631388432887317,-0.050480083077539026,-0.07895349838824203
0.884,-0.015058495333450588,0.046321519421973864,0.06085557951630753,-0.014285479158842528,-0.03949420122302154,0.053841494882613784,0.08231822523084056,-0.06972749531858673,0.010871942928584408,-0.014403129667357241,-0.04536152609304188,-0.0774064920769825
0.886,-0.01203548029716428,0.05069928511700851,0.062206119278386436,-0.019173376035708106,-0.03733238037043794,0.05661152219463221,0.08516042352092079,-0.06867247006551733,0.015729063626939675,-0.014306595588574937,-0.04169196021847375,-0.07547376182421078
0.888,-0.011267588379747664,0.05119293916568779,0.06211226713114304,-0.02057603196468712,-0.03583120366703019,0.05640222983037579,0.08792296844704088,-0.06656074883173084,0.017707186749803167,-0.014993970165100411,-0.04133214743915134,-0.07352859918682614
0.89,-0.012158778416339918,0.05068481872064278,0.062478607120941845,-0.019131846886740002,-0.036498089263612185,0.055427127084523645,0.08985556678029154,-0.06372358115550508,0.01867314207502328,-0.016019514728141056,-0.043560458431102435,-0.07356302041887211
0.892,-0.012966607947764996,0.05288020814692784,0.06521817067968627,-0.018227209133346835,-0.03893000023426778,0.056643631698457576,0.09109768345382613,-0.06135832087757071,0.021074870192055794,-0.01746914530463591,-0.04574339526918499,-0.0764251017793632
0.894,-0.013664250848943904,0.057405298981200226,0.07013151181757388,-0.019239055486415975,-0.04219903951955982,0.0604583757117885,0.0923192337511214,-0.05998483960766312,0.02532577239092557,-0.018592350391472046,-0.04659370155985893,-0.07975454137157129
0.896,-0.014728467644970466,0.06007261405348556,0.07370063011159123,-0.020567892102022825,-0.04476835129874508,0.06358776053052782,0.09311390798120858,-0.05832839636644703,0.029906444325602098,-0.017289701060256697,-0.04660405917768759,-0.0802362512937698
0.898,-0.015411759314835021,0.05843639150807195,0.07276905770680164,-0.02080642820922908,-0.045184346192429746,0.06304960814744716,0.09179681630802117,-0.055524788706767046,0.03230772196756356,-0.012184903333760962,-0.04626812808439961,-0.0770127944127313
0.9,-0.01436082760696084,0.05526441248274524,0.0686788222594919,-0.020880795711800876,-0.043324412856185934,0.06027288977273176,0.08657046371643512,-0.05319818608098346,0.030414396287610133,-0.00497822833987626,-0.04494101528411487,-0.07117680129607419
0.902,-0.010479552027824395,0.05527193464640036,0.06508112783942469,-0.02297737603549026,-0.039768754740041615,0.05894745576597981,0.0770966215576207,-0.05367057035939801,0.024792197420933096,-0.00015253049493658906,-0.0415909296019852,-0.0636968284485758
0.904,-0.004541288978728224,0.05915808136852383,0.06352372963453884,-0.027339963429442345,-0.03568483837566258,0.05998632914372145,0.06480856761206233,-0.05831746815474624,0.01772330767652812,-0.002005186617669392,-0.03715739022894949,-0.056141228817309485
0.906,-0.0003544697316084376,0.06218568778861055,0.06284958772809877,-0.030513485148472682,-0.03318094709159601,0.060555111196014366,0.05098005799944921,-0.06885092558526187,0.009582185844762683,-0.011564117406024301,-0.03557611200769772,-0.051895893669277285
0.908,-0.0010758225646701662,0.059198373035923554,0.0606719465972565,-0.028748365747521175,-0.03287042147812723,0.05734936343425223,0.035696038944691054,-0.08630319966417702,-0.0005107692695004373,-0.02562691808747865,-0.04036629863828736,-0.05323217325858626
0.91,-0.004537744802391038,0.05110742172428766,0.05577562119512191,-0.023375399533884535,-0.03248295172372947,0.05066579181849051,0.01992858558893077,-0.10625691164319874,-0.010885691095732807,-0.03836612726915223,-0.049548876624066186,-0.05731959966270728
0.912,-0.00536758861267391,0.045794936060771306,0.05114493820330827,-0.020565004482204847,-0.03042403762014945,0.04593129732944979,0.006658878280274658,-0.11947908528629601,-0.017651374145122408,-0.044934421517261056,-0.05640871522856868,-0.05891981887705361
0.914,-0.0012971385423298887,0.05041540086650866,0.051904861955744244,-0.02456575897939751,-0.02822685545045109,0.04892028175559843,-0.001929722748156327,-0.1205424471167468,-0.01860464053041742,-0.04435711581283197,-0.05642139986988281,-0.05741912333729491
0.916,0.004505493836229455,0.06231822748411081,0.05827036806657267,-0.03238457483561565,-0.027813905552225033,0.05811798907430992,-0.006713257692555553,-0.11328525156572676,-0.015275118488789794,-0.0393222487407596,-0.05121511861764631,-0.057103235237478484
0.918,0.007741144242904873,0.07099276077395188,0.0637397615011774,-0.03732957445236089,-0.028483685342470488,0.06512212812664159,-0.009790056551011587,-0.10665014212234443,-0.012091960026461273,-0.03411917262132424,-0.04556245062630958,-0.05985844178675019
0.92,0.008769190649962785,0.06979421586130098,0.06148910316370092,-0.03713121946418492,-0.02716623438891214,0.06368485689177804,-0.012487669601750948,-0.10656497066553515,-0.01313770507576162,-0.031879258776497416,-0.042763159023257544,-0.062278890557822666
0.922,0.01178986757949886,0.061448387542747555,0.05023443310422839,-0.03510333976118996,-0.020889438676165863,0.05475432841222288,-0.015605587327024264,-0.11192467126665724,-0.017926440595192456,-0.03216424427784605,-0.04291597957662932,-0.06125363915010687
0.924,0.018145709428826463,0.05164585944077296,0.03408465591050602,-0.03383632204630334,-0.009905193092520154,0.04251190140091142,-0.018888668771434237,-0.11718933212956457,-0.02187451091971592,-0.03207235533853577,-0.044077895419183305,-0.057981702064248276
0.926,0.024092516157549787,0.04267837414434591,0.018862761559702363,-0.03226930358205534,0.0014267160706342554,0.030039486768045628,-0.020389771327441332,-0.1178898287931747,-0.02204091404318514,-0.03026357910444615,-0.044562142830263746,-0.05519679965983533
0.928,0.026168021368600174,0.034581145570020774,0.00831510058124198,-0.02927886257558337,0.008422702579641972,0.019549696231297844,-0.01851404435483388,-0.11436156716576389,-0.019838710180795107,-0.02832284022416568,-0.04421430739178736,-0.053798313955185646
