time,I,II,III,aVR,aVL,aVF,V1,V2,V3,V4,V5,V6
0.0,-0.0008556452068501026,0.0013821961033732427,0.0022378413102233452,-0.00021939620688464173,-0.0016015923102578845,0.0018209885171425262,-0.0005265508965231401,-0.001930686620584847,-0.0014918942068155637,-0.0018209885171425262,-0.0018209885171425262,-0.0018209885171425262
0.002,-0.005976960059278327,0.00987448553341117,0.015851445592689493,-0.001642251964795738,-0.011297341291322266,0.012939593256118003,-0.0036781292672482015,-0.01337677587646775,-0.010311668153760917,-0.01250080084234872,-0.01250080084234872,-0.012829895152675682
0.004,-0.01927285429371535,0.03128849306798692,0.050561347361702265,-0.005024530874283619,-0.03607490770153651,0.04109943857582013,-0.011536186705964437,-0.04153307432452622,-0.03202928350633152,-0.038363425163440254,-0.038363425163440254,-0.040662255955470385
0.006,-0.038379485206666765,0.05814493203199538,0.09652441723866213,-0.007933878511953112,-0.06943654903757657,0.07737042754952969,-0.021678711899041046,-0.07730463427295921,-0.0596762236441081,-0.07016546752336511,-0.07016546752336511,-0.07737558421459287
0.008,-0.05263519766497077,0.07201451498395452,0.1246277730282368,-0.007022820290540631,-0.0907422213164947,0.09778698122772382,-0.027504533322260178,-0.09866325061568804,-0.07572302310161574,-0.08684213639357734,-0.08684213639357734,-0.10036939170978951
0.01,-0.05216934803387933,0.0689117998408221,0.12094983210925457,-0.0057812489406308,-0.08793474094500413,0.09382536603039333,-0.024830553355815303,-0.09665013309137481,-0.07210331145198805,-0.08031741177220421,-0.08031741177220421,-0.09754646139350553
0.012,-0.04016901466218788,0.06688933171553775,0.10675286693846761,-0.011562483022640152,-0.07389638592347555,0.08565497224061532,-0.015544108405247855,-0.08468602102682905,-0.05919199406119196,-0.06377946307655163,-0.06388916117999395,-0.08040568983928381
0.014,-0.030357464805314763,0.07965933848179953,0.10972551383618297,-0.023534972450857772,-0.07012322013626325,0.09375337874355269,-0.005712242765404347,-0.07988942135242098,-0.05213764497739358,-0.05352717144225947,-0.054183750269493854,-0.06831012081910903
0.016,-0.02885235183669876,0.0988160933093136,0.12774032353458978,-0.033875636345523714,-0.07875449741834782,0.11244112959817396,-0.0021634488267110053,-0.0853816568420184,-0.055240606985306175,-0.0533203279426622,-0.05506712134583707,-0.06919317512185791
0.018,-0.030306282769162092,0.10736681956873209,0.1381433206350985,-0.03715794512544049,-0.08507458129175775,0.12181999652024468,-0.008109965072749385,-0.09207429295431815,-0.06155248547442268,-0.056966124929149944,-0.05973572983827531,-0.07721895726976423
0.02,-0.03348508286295638,0.09833273469585486,0.13235047060230595,-0.03091213777454497,-0.08351599437044804,0.11398058993850547,-0.020771894720207768,-0.0928619689824724,-0.06383578089728403,-0.059331632306360765,-0.062246430962938665,-0.08344200246843955
0.022,-0.04149903613753348,0.07846276727124561,0.12032676471880477,-0.016699795594075483,-0.08095731233102839,0.09731708360518766,-0.03560876529736948,-0.09150574632501875,-0.06320243767731673,-0.062057009744883616,-0.06404166852608625,-0.08599297440557852
0.024,-0.04911221366248459,0.06079473210601625,0.11013762445803957,-0.003547072173500889,-0.0796386583392297,0.08303953547173905,-0.051557836845006484,-0.09647933830468283,-0.06662533103809479,-0.06891065028517276,-0.06945937060862438,-0.08926174602620464
0.026,-0.05005631603312148,0.05326761911864687,0.10345984179039817,0.001063679798002624,-0.07742964742862493,0.07640192949312168,-0.06873075062922139,-0.1089047932760275,-0.07655647988817722,-0.07779415303760458,-0.07734970718583234,-0.0948113138454062
0.028,-0.04918387892169231,0.05316776877754084,0.10239188264157996,0.000738997529162024,-0.0771094820387646,0.07646202393212358,-0.0841429090132982,-0.12114342149037241,-0.08631082233659552,-0.08188869181211943,-0.08128066027608713,-0.09857733869216784
0.03,-0.05052233702480069,0.05493461566536914,0.10552849597653477,0.00040051876257184637,-0.07938279418084503,0.07901372418505091,-0.09493925697098277,-0.12722003474860838,-0.0887442009759695,-0.07898539184145383,-0.07829482607574785,-0.09791114435576005
0.032,-0.045388510709467235,0.060387702544426665,0.1060578961332054,-0.005280527183127303,-0.07670121766271519,0.08192796271885057,-0.10292490737248568,-0.12977767827135558,-0.08596952416972879,-0.074289762606705,-0.07278442449615743,-0.09563799693018711
0.034,-0.02702035622637343,0.07497284618124857,0.10242351086558664,-0.022447026733310768,-0.06537025438399761,0.08763174667336757,-0.11130586042419258,-0.1353779196007333,-0.08585076480596288,-0.07316204103598789,-0.07041680061066075,-0.09525100959599213
0.036,-0.0057702145021623855,0.09563417217616997,0.10166652159490154,-0.043854403926278526,-0.05417376149813491,0.09757101465257226,-0.12003300041667708,-0.14600460813383762,-0.09158479160798691,-0.07569538022245308,-0.0720582164743791,-0.09581168897861024
0.038,0.002801075409909656,0.11012617636147794,0.1071998448227977,-0.05510800713661308,-0.05246701172054813,0.10682128323554481,-0.12711440685476377,-0.1565181866606191,-0.09910146493972717,-0.07872203269996589,-0.07488665585771638,-0.09378527578557096
0.04,-0.0011159787437435664,0.11108844571742593,0.11185177379230739,-0.05317457021820972,-0.056559871635288125,0.10884506260105395,-0.1312461463079169,-0.15990257925527837,-0.1030566515185234,-0.0794004574050796,-0.07606837054350168,-0.0883544670806332
0.042,-0.002357656002770357,0.1052019297532835,0.10741264591144196,-0.04993995177178325,-0.05498980997450841,0.10384102825497406,-0.13259657741485015,-0.15486514825008948,-0.10229174941601592,-0.07685629044824181,-0.07443598468963214,-0.08270969610029644
0.044,0.00797161147524775,0.10368642975108605,0.0960821125178422,-0.055272891673443014,-0.04453935736459616,0.09824421135092794,-0.13297038309258458,-0.1469167622866422,-0.09960064428284213,-0.07239180185481704,-0.07093686197342006,-0.07983177641915278
0.046,0.020861395678537294,0.1081698187032158,0.08811090498754476,-0.0643560333396382,-0.03443239802660188,0.0970514052248343,-0.13380859820781613,-0.14117771525491024,-0.09746376222581672,-0.067682205086538,-0.06715515309612444,-0.07887142684362818
0.048,0.02309439057802968,0.11092378685292664,0.08870416479534414,-0.0664145430923519,-0.03337265995928934,0.09883364517122366,-0.13485148411998032,-0.13776842785780688,-0.0955952047724951,-0.06296453740295989,-0.06314452065637374,-0.07715325519745624
0.05,0.016453625586869743,0.10748601097468888,0.09157424390744437,-0.06085458461498033,-0.037498516842003594,0.0986322667955236,-0.13620059280121136,-0.1354410633669981,-0.09270902005707256,-0.05762868077535691,-0.057988685962312915,-0.07334883763882728
0.052,0.017411416341924807,0.1052256521357222,0.0877857488230586,-0.06002522171869965,-0.034788878223222214,0.09570618157277908,-0.1376893815443102,-0.1342218549221786,-0.08831961147020283,-0.0511158516893888,-0.05111644477956768,-0.06666117036530461
0.054,0.03630360809236904,0.11391557095326713,0.07711165138761222,-0.07377066001149361,-0.02047006503682818,0.0946548701601862,-0.13640128139152546,-0.13309221229792997,-0.0829996856502834,-0.04341159517271859,-0.042624837331819,-0.05649550197487145
0.056,0.061540933650498376,0.12849251269912002,0.06641004168786767,-0.093657916559602,-0.003687192807152408,0.09642052877750243,-0.13069633370127595,-0.1299488728732108,-0.07901673795381163,-0.036075133041895566,-0.03442520645138042,-0.04490083020201835
0.058,0.07296066622821061,0.1320678731820087,0.05899945628225831,-0.10126321048653303,0.0045910251865029375,0.09436630823527936,-0.12523072452967857,-0.12495857937633748,-0.07942545184541878,-0.03141101057955462,-0.029965226176115026,-0.03625945908391828
0.06,0.06673137686205705,0.11814175495926427,0.05186695197699753,-0.09130733695516755,0.004857258798106348,0.08393574717996755,-0.1261791869916501,-0.12091066123988779,-0.08441066579054271,-0.029782374555858634,-0.03021309705838378,-0.03385673815524612
0.062,0.056168324324268055,0.09923801911144012,0.043799664954761675,-0.07641989382719741,0.004394165249880594,0.07083023374330324,-0.1329152824066659,-0.11936295512008792,-0.08946357587397195,-0.029352000828496372,-0.03173136553499692,-0.03724760742676035
0.064,0.052285817840869525,0.09019301252231822,0.03852384678373307,-0.06947672374984179,0.0059185185807738684,0.06382599120130918,-0.1387823406630204,-0.11843352325152216,-0.08914095351513515,-0.028146309229276675,-0.030784241774246122,-0.04164194620637334
0.066,0.054938327870859116,0.09100487251917876,0.036386881074789504,-0.07080075146072123,0.008449821558737566,0.0625050154282062,-0.13924221858460964,-0.11589609460554724,-0.08310531188810544,-0.02488038308415946,-0.026677688450515952,-0.041474326589049454
0.068,0.0598499919741566,0.09033462076048095,0.030539496822892177,-0.07301304746874189,0.013512742760330551,0.0580640683056262,-0.13672440979094802,-0.11310955327419316,-0.07679081643769176,-0.0191787414900666,-0.0203328217998352,-0.03675442128764191
0.07,0.06366309366897913,0.08114655968965362,0.017409753010109674,-0.07065753942629775,0.02194518994626383,0.046148490766905984,-0.13729891251340443,-0.11380901918122012,-0.07515840450621565,-0.012575225576505937,-0.013270090590337335,-0.033560792199687134
0.072,0.06432548403953217,0.06926689736080667,0.0049007251428649645,-0.06501612570031572,0.029000777345181517,0.03402650504771365,-0.1432092382776711,-0.11971806762324712,-0.07811837135303408,-0.007855769855712551,-0.007954193663931814,-0.03679910623504916
0.074,0.062253397092207466,0.06454443535870776,0.0024249651138816873,-0.061393471957521435,0.02960828261920207,0.030875747216162982,-0.1504773910730444,-0.1288809474652986,-0.08304625124306533,-0.006707965110863077,-0.006294356156118446,-0.04527176700408001
0.076,0.05832978101940158,0.06533936597345456,0.007391535706496399,-0.06009252271455426,0.024984381283854166,0.034113029211760786,-0.15427695807882896,-0.13687479480979692,-0.08809406881999288,-0.008986648544461769,-0.008095186352358811,-0.05438463878010921
0.078,0.052551511987937775,0.06256026222490936,0.01059879739727417,-0.056518559765171235,0.020146558068861762,0.03465866011766014,-0.15300231370338027,-0.13866011662742128,-0.09149730859169637,-0.013258465080654591,-0.011549980367423189,-0.06059287564695002
0.08,0.047302803241611305,0.05701426804756084,0.01041511939669875,-0.05157811892735749,0.017892304957823516,0.03225905459809222,-0.14746127096253223,-0.1324540341299945,-0.09223723070390179,-0.017888046023066796,-0.01526439614253114,-0.06433299459780363
0.082,0.04476887824391372,0.05594165821252602,0.011884446662028514,-0.049720060314191426,0.01665528060565461,0.03280232561950514,-0.14045911684318899,-0.12289740740565676,-0.0927552580274005,-0.0231935360423612,-0.0204390855372695,-0.07114772651744365
0.084,0.03953054692205435,0.05667904872897614,0.017680583683636304,-0.04727691564817022,0.01134702606635056,0.03595066131437954,-0.13505133478879602,-0.11635761452181914,-0.09576770349961522,-0.03078176895089837,-0.029398945807448475,-0.08599082676433562
0.086,0.02301113016621221,0.05057000160948422,0.02773229850077423,-0.03593832246455006,-0.0026953850871288846,0.03744079949931372,-0.13021964186538507,-0.11309428356305933,-0.09841527041302735,-0.03969687081980875,-0.040731466964125405,-0.104951282055758
0.088,-0.0023374010989273865,0.03829899635220714,0.04051443369999774,-0.01717331388696016,-0.022504231241711855,0.03742283809269503,-0.1222590062706415,-0.10909682175112868,-0.09561378552639875,-0.04649212868072275,-0.04905369813954612,-0.11846436988349038
0.09,-0.021364883349172345,0.028703465953775653,0.04989173123811916,-0.0027896421723341523,-0.03656068350288553,0.03776305849568654,-0.11215257142381944,-0.10460780950894423,-0.08895440887498926,-0.049751982698381284,-0.051668990587912196,-0.12316055045009781
0.092,-0.02276993831866347,0.025124497587337362,0.047745358165984436,-1.8807113036060043e-05,-0.03574985781778932,0.035714886180577256,-0.10629877029445854,-0.10464281509018813,-0.08636333632513854,-0.0516178860904408,-0.052192786412418916,-0.12463662859719506
0.094,-0.012631462520865194,0.02151387090874744,0.03391257896589253,-0.002887682866456626,-0.02399154220307477,0.027085225426643867,-0.10799296847398208,-0.11152332183745806,-0.09191461039124868,-0.054634381257592284,-0.05529004327128351,-0.12863744548923767
0.096,-0.006782900060925313,0.011899215181971045,0.018435531358390187,-0.0007550567304344541,-0.014059284708390738,0.013596664629212395,-0.11327613355522614,-0.12176874250118583,-0.10063793477954486,-0.05913644827375093,-0.06067745309953641,-0.13482717375841144
0.098,-0.011471577192605574,-0.00109432411134768,0.010431316278240496,0.008210996517157135,-0.012864209528704833,0.002286083995236811,-0.11670100765694146,-0.1294701858063779,-0.10518026293220611,-0.0637026558058559,-0.06462039756066343,-0.1398850223309453
0.1,-0.01770872990374739,-0.008359690039981677,0.009764558334371766,0.015249977024746994,-0.015660615558021455,-0.0012167205630791097,-0.1165608698191739,-0.13023348223178785,-0.10428641335155965,-0.06689652345594488,-0.06552381155291635,-0.14246929833425312
0.102,-0.0156484597165978,-0.004243748966586517,0.011800105721751225,0.012543891924780922,-0.015504608667022472,0.003058804708508707,-0.11377741362192545,-0.1243757880757594,-0.10311030135464208,-0.06831625588634636,-0.06539223368017556,-0.14315037105357908
0.104,-0.00668864685831946,0.007063685934200508,0.013804889922943087,0.002487584942794836,-0.011821178575895451,0.010238170848284994,-0.10995171952926293,-0.11769053599671792,-0.10707033141974107,-0.06825353563605724,-0.06580291287983954,-0.1422867816772969
0.106,0.0014699173802092097,0.016675107351669115,0.015001732101933837,-0.00687838636195991,-0.00801904065260958,0.015291950229000614,-0.10742049416978758,-0.11614268571297932,-0.11619228940737852,-0.06648923291311401,-0.06521012967885023,-0.14037899879990956
0.108,0.003448401409609449,0.020018013936212085,0.016315441275897676,-0.01045394930065041,-0.007343572138815959,0.017409712949852055,-0.10806960380135922,-0.11930550623060533,-0.12485947357007277,-0.06220466217195114,-0.06181559405394996,-0.1388464952270918
0.11,-0.003443787832345464,0.01778111211956967,0.020934232072814953,-0.006627984478246911,-0.012955579469178366,0.01900585828709548,-0.11110096029648614,-0.12211585437313416,-0.12737339215435617,-0.05657126197391602,-0.057344817490817615,-0.13881411780419742
0.112,-0.01952600272245787,0.011862517930612531,0.03105025035275354,0.004367439562761768,-0.026199422276694927,0.0215836988501098,-0.11374925404254914,-0.12254219727829274,-0.12349347414148654,-0.053678725191838625,-0.055552401577461885,-0.1400800222620844
0.114,-0.03868440657196113,0.006014659834402792,0.04446413716450481,0.017274832807030044,-0.042570015645776726,0.02531994229663956,-0.11369822137073622,-0.12264115108985171,-0.11721009181917036,-0.05476700844044921,-0.056482319559751144,-0.14140792963581067
0.116,-0.048859423445176416,0.006995046581221437,0.05584413456087105,0.022042375895621913,-0.053049477849197196,0.03085630694708295,-0.10961635857241193,-0.12205294702380116,-0.11126593190092396,-0.054303377901831575,-0.05515473872379733,-0.14126887756203352
0.118,-0.042581200990914884,0.01670171962914213,0.05937833883714043,0.014003540271643548,-0.05145731809776786,0.03652100203100305,-0.10225684450152013,-0.11753520884442026,-0.10611746758714663,-0.048298015920725634,-0.04919694315795822,-0.13987532023727478
0.12,-0.025815531033538182,0.025966301105836444,0.0517197802307584,0.0009472946028807395,-0.03979418931522071,0.03652566527746608,-0.09617742492865473,-0.1104978364593695,-0.10321979653833965,-0.04272102013037557,-0.044337789282534804,-0.1405453604884052
0.122,-0.01113974909690976,0.025946086438857388,0.036730687400380685,-0.006497665024198912,-0.026065867563843114,0.028926978111096128,-0.0961418191680059,-0.10729108525795446,-0.10461427971415004,-0.04561558891270305,-0.04704105563511993,-0.14588594180526082
0.124,-0.004926673710643045,0.021554289166368954,0.026007427713977987,-0.00757085700477962,-0.018352315851576154,0.02206320739588293,-0.10110691339697861,-0.11029305950381503,-0.10918816320942726,-0.054384872655657786,-0.054596615863209595,-0.15294948636279082
0.126,-0.006883274836116264,0.023400046901947972,0.030018200630160106,-0.007449636076163352,-0.021336250820914192,0.02586432413722867,-0.10520307991749377,-0.11502810674463766,-0.11312688200629255,-0.05849484726886177,-0.057849603855216494,-0.1559763201690129
0.128,-0.014977710408116388,0.0318582452323724,0.04688469626419396,-0.007142450215701937,-0.03346709354820487,0.0390379651764706,-0.10485140588356828,-0.1170305507937962,-0.11456310097084497,-0.053042447826644884,-0.05269130255514088,-0.1537240014761288
0.13,-0.022722795385127233,0.03875725701832099,0.061642093076220685,-0.006011778554250285,-0.044373080312831284,0.049888161713290725,-0.10302781134818444,-0.11747490010221076,-0.11558688868314526,-0.04414799097601165,-0.0450301156862408,-0.15102906349540607
0.132,-0.020352135359811105,0.04005489208318194,0.06046543267688693,-0.007549871622706417,-0.04217732458880805,0.0493475037602327,-0.10523645044310005,-0.12016468876600507,-0.11874905421868052,-0.04057167838025447,-0.043171515810331726,-0.1532054342637519
0.134,-0.007258236987424928,0.03839600518733873,0.04559695659592212,-0.013693414822356418,-0.027737548837597218,0.03998603821047441,-0.11163708025034882,-0.12496704044937766,-0.12268183980560728,-0.04357412457658878,-0.04751885905664275,-0.16068665223643916
0.136,0.004840289257565338,0.036695292857817814,0.031795881862438674,-0.019490343814690947,-0.014487876794473598,0.03142614081944413,-0.11605115841721032,-0.12795946586758875,-0.1229898084765765,-0.0470118746911061,-0.05104311298177921,-0.16858253132599132
0.138,0.006551155215462477,0.03613564785354496,0.02958712719258447,-0.020264895288749248,-0.012342127625795568,0.030293369533586547,-0.11335442311088444,-0.1266950971329485,-0.1174061642554241,-0.04537537185865557,-0.04882168267279404,-0.1701920269120029
0.14,0.0002853330775825162,0.037300874971090074,0.03704891338934495,-0.017660386003648835,-0.019147696127676528,0.03583389072986271,-0.1050951397877825,-0.12157347259924864,-0.1086154861473518,-0.03945906398357902,-0.04302613493235492,-0.1627575046656399
0.142,-0.0072490955696789365,0.037790008273828474,0.04505360382335726,-0.014070938705598075,-0.027256532937774053,0.04135226767970716,-0.09761825142636453,-0.11511996002201828,-0.10225670589834432,-0.03519015278182259,-0.03912971163640681,-0.15193964545223101
0.144,-0.014153535406845212,0.03193554745387761,0.04607781608793144,-0.007529098376614392,-0.031952144431274046,0.03927942899342363,-0.0962853979604126,-0.1121042016928866,-0.1024048196631081,-0.037958832352310595,-0.0403915789191616,-0.14780051746248446
0.146,-0.021600856738209964,0.018592797980054546,0.040180366997641215,0.00313982304700586,-0.033375297400582114,0.029074712136105785,-0.10107934690393254,-0.11536810153793305,-0.10783595355211371,-0.04694752319558907,-0.045561212112427925,-0.15359839651619683
0.148,-0.025967892068058152,0.007997173468931928,0.033964867082651895,0.010914964848479007,-0.03255694830519955,0.020128417879998108,-0.10665767140612302,-0.12078941911504934,-0.11283902086133604,-0.05516950219245713,-0.05051450496881886,-0.1618719756295456
0.15,-0.01844667994935192,0.014522437667573393,0.03295433370726711,0.004091096500726597,-0.02773405976565925,0.02297091887344422,-0.10672144283148459,-0.12102110987771306,-0.11235481414716088,-0.056214198917647035,-0.05198394618552075,-0.16345872558994815
0.152,0.003220762199733191,0.038421680550279336,0.03507312853283278,-0.01883601978413428,-0.016987110424890636,0.03625305756854528,-0.09995507081441611,-0.11442189040806439,-0.1070411805359116,-0.050795862819092874,-0.050399283408941724,-0.1572396335812702
0.154,0.02620335320950988,0.05866542504222233,0.03211049230945224,-0.04091950481529785,-0.0033233752337793574,0.044994591699383614,-0.09198103510814275,-0.10697828866382315,-0.10404675047301988,-0.04653854736647909,-0.050295908240252284,-0.15042649425080304
0.156,0.030857842603452208,0.05283114311404819,0.021438334205751874,-0.04057264911950175,0.003975288567229181,0.03692458539004037,-0.08830710281352792,-0.10429975158404937,-0.11008650076555558,-0.05072157219925432,-0.05641992263022706,-0.15084480485586918
0.158,0.007143422741539953,0.022044769756194738,0.014449489255939144,-0.013134230406854533,-0.005666648471559224,0.018263978176548037,-0.08544036118498455,-0.10442055783712682,-0.12304435976602084,-0.06376130302264267,-0.06872397919917185,-0.1597719459099664
0.16,-0.035810737494788046,-0.013473721742112024,0.022269029889763654,0.026064376285344023,-0.03195812808242205,0.004184148029978669,-0.07261059259745777,-0.10042302198789767,-0.13591851744228856,-0.08256286006235017,-0.08510666385153205,-0.1745527375080858
0.162,-0.07527649184322686,-0.03753423877046268,0.03805596019331348,0.057278788609175915,-0.059074882969272685,-0.0007000522940536133,-0.03907115472976038,-0.0859047765310119,-0.1487493112901809,-0.10867190913369458,-0.10878311847315826,-0.19671737010005436
0.164,-0.0971765366532028,-0.04738920662951962,0.05010939109656976,0.0728564183314885,-0.07475242157473717,-0.0003406394712690249,0.024745935655553847,-0.054866651228792036,-0.17024651514572262,-0.14941968445596238,-0.14837821325594874,-0.23190709441978516
0.166,-0.11314046771695009,-0.04910247429156831,0.063980004236777,0.08216994904000763,-0.08911918245829609,0.005482155634267809,0.1258355705815501,-0.0013581467563837067,-0.20741412120932243,-0.2116462898681238,-0.21045863892622238,-0.28216709645113913
0.168,-0.1432939667689881,-0.050266377213517566,0.09256108704445846,0.09864622988234015,-0.1190359264307023,0.019442372446339527,0.2580528151464987,0.07562242014875067,-0.2557116951749381,-0.293155388777331,-0.2917185059503928,-0.3416944439671499
0.17,-0.18331975436734238,-0.05173840256497298,0.13104756338961832,0.11992425672811917,-0.15881377826868012,0.038230404918858464,0.3945020923959815,0.1665667383181614,-0.2991403066688005,-0.37798430260349486,-0.3761542697268895,-0.39844057334149213
0.172,-0.20371410139252027,-0.04489404326936185,0.15858403537779592,0.1266240845665011,-0.18259639918038573,0.05526287560602592,0.49946737907441646,0.2552217286034581,-0.3197587296007911,-0.44236575049549864,-0.4406327671788661,-0.43824755599374543
0.174,-0.1834338405494034,-0.01909633310671119,0.164432675678122,0.1029812117854066,-0.17512677129632365,0.07076331926580975,0.5549813722168468,0.33870635209863514,-0.30285487013631757,-0.4661058154401294,-0.4648679988175213,-0.44975743828740766
0.176,-0.13253846677385764,0.02721568258262583,0.15992274400831813,0.0537003400060768,-0.14761796184062506,0.09187400290706235,0.5774883036579502,0.4454891410087764,-0.231743615063883,-0.4372164254887756,-0.4369043490549293,-0.4276086304129399
0.178,-0.07589619157309306,0.0855574614179298,0.16148998861171043,-0.0041798485615133635,-0.12027552821871253,0.12247936350080432,0.5995731495030701,0.6098376065165517,-0.09208703628341443,-0.35105030034586354,-0.35267262925265835,-0.37134276808706435
0.18,-0.021581583354928213,0.1532269952181618,0.17471524930184493,-0.06522361494375868,-0.0994869140340985,0.1630844134218535,0.6250369271498726,0.8128192225501895,0.10970196589145631,-0.209845819062102,-0.21354825360553972,-0.28065137154836145
0.182,0.04597338757639631,0.24315287931558463,0.1969724088464133,-0.143612920139169,-0.07639901853996227,0.21859314294039184,0.6131951980501114,0.9767513612870855,0.3495788002401643,-0.016297527803245594,-0.019920947346164293,-0.15159307987006526
0.184,0.14391294437426763,0.36506990297960007,0.22071107774754567,-0.25284244687169755,-0.039055823629054034,0.29096161861775155,0.5204405395424758,1.0372261350329954,0.6162949434101535,0.23661101698049894,0.23588913868979955,0.02087939377613559
0.186,0.27051649727901517,0.5052336577624863,0.23400249932833309,-0.3856226465222995,0.017679248757624805,0.36775117058698176,0.33891247147757164,0.9892003346701382,0.9182772186421014,0.559145547898647,0.5622521006680982,0.23513356683465056
0.188,0.4091106474803197,0.6412795590722657,0.23150064065650222,-0.522737953647163,0.08834062730535093,0.4345329686373809,0.08523310992439505,0.8597025448400829,1.260093015537909,0.9489996512837837,0.9548285355384735,0.4802813790524647
0.19,0.54414989930325,0.773168284254122,0.22877395521628052,-0.6561491172985244,0.15715252457948856,0.49898526811381455,-0.2158587383384175,0.6833620827076186,1.6361812606143464,1.3937293503893866,1.4003690048466653,0.7444873248467101
0.192,0.6644178420759367,0.9251698942245216,0.2609111842684917,-0.7921620848874771,0.2005851959046495,0.5914475083708401,-0.5222859109082028,0.5013846888069495,2.0317230172240364,1.8742549197920981,1.8798487549309622,1.0208943099007262
0.194,0.7584881518801043,1.111469019908842,0.3531919340918332,-0.9324777383853571,0.20056862885935445,0.7315048470834582,-0.7803451667017818,0.34220248133687764,2.4094049841907244,2.351862716438613,2.3558566080436223,1.3004087461084253
0.196,0.8217435742534681,1.3003479652105283,0.4786291899053581,-1.059139144925963,0.16909088833331123,0.8887670218890437,-0.9585413243104798,0.2133882373970142,2.7309482968828394,2.7756103403504606,2.7796704109355375,1.5624924513848253
0.198,0.8636731932704825,1.420437667567025,0.5566644891899494,-1.140574271094386,0.1513749698539373,0.9872083172926591,-1.068329614582688,0.12481723661722031,2.9950295306573715,3.110995995891547,3.1177516272178254,1.777261095069833
0.2,0.8970402612878222,1.416218500786969,0.5191166750936549,-1.1547341693341169,0.1871707642791172,0.9661589428078668,-1.1495358148739787,0.08195363578343717,3.1930882307176622,3.333891620727771,3.3449400105341813,1.9176860251128747
0.202,0.9212049237821864,1.2947883766933237,0.37363001270725044,-1.105273381315876,0.2718806157037549,0.8333866024508896,-1.2330730076214644,0.045383114244459344,3.2258837726242917,3.3935971556984774,3.4085261476721573,1.9674331298401595
0.204,0.9199398370210845,1.1069011473017532,0.1871378300787063,-1.0104391913447337,0.36442188105765244,0.6467476160386122,-1.3120366103108587,-0.06540260736073915,2.933794361214983,3.2132070885335313,3.2290805207356454,1.9163288725967085
0.206,0.8743095761116586,0.8966766044702817,0.022702619991282955,-0.8831266473587382,0.4242948949405383,0.45924355373727815,-1.3541944723433914,-0.30663702061034365,2.241822249662369,2.7495955666593357,2.7620494031239673,1.7615437461089953
0.208,0.7792422444959949,0.6862577155771915,-0.09258266325868139,-0.7313006451462096,0.43516648994758533,0.2959600244307935,-1.342617509238559,-0.6586098726627053,1.2491587924868999,2.0539379735096297,2.0606320551828836,1.5231847048635005
0.21,0.6520207413526558,0.4899796029970434,-0.16179995717718543,-0.5700737680841365,0.40652312576226657,0.16280626638776802,-1.2938622058119504,-1.0477787244848262,0.16318249111439895,1.2651950006709938,1.267748771899028,1.2464110323691286
0.212,0.5222582401814895,0.3187760767781827,-0.2035033786484119,-0.4196453145760834,0.3619638181232698,0.055747455353402545,-1.2372893524997013,-1.4008352187822315,-0.8139162413185771,0.545006028128552,0.5467415753880517,0.9768345571607376
0.214,0.4092637445952951,0.17328755521455233,-0.2361120214149897,-0.2903849614630567,0.3208668155711154,-0.033961393852366274,-1.1859389759496253,-1.6562026355666344,-1.5157191855848788,0.014377485807991171,0.016517026039429564,0.7376047041170762
0.216,0.31444249508054095,0.04557919587608665,-0.2689022489226747,-0.1792103186389804,0.28983172037697613,-0.11427294272460028,-1.1302052094297137,-1.7556353935278388,-1.825199307124797,-0.28543641701956907,-0.2848550313975528,0.5282163835833937
0.218,0.23668309492882927,-0.06754138409279166,-0.3040513599791008,-0.08393855585275944,0.26967829542296284,-0.18758093402162335,-1.055371831566741,-1.6767099276219837,-1.7567797098003335,-0.4057257979083615,-0.4088368062295773,0.33641630594625954
0.22,0.18080284619427117,-0.1562655340846007,-0.3366878790349019,-0.011849462993502142,0.25907753431571334,-0.2473040560294296,-0.9593948309553215,-1.467751454882424,-1.4843469096695672,-0.44693881628889565,-0.45289168198449303,0.15518059212110805
0.222,0.14376959158736394,-0.20769599408934736,-0.35104005168112135,0.032353548268473316,0.24745617266950343,-0.2802343075398654,-0.851033908491745,-1.215713510364638,-1.2082476158699664,-0.4753594573054657,-0.4811508305422177,-0.004067329435594909
0.224,0.10707102441200138,-0.22237779524291812,-0.32922069751569255,0.05835456935520843,0.21708883426311698,-0.27764622575578185,-0.73589128007638,-0.9815165519744581,-1.0069995483625285,-0.48779165527475643,-0.49111535845246485,-0.1190483823491335
0.226,0.05757351465228931,-0.21448668992809,-0.2721005705926497,0.07947136814242953,0.16317279129380752,-0.24569305977301764,-0.6135372483792744,-0.7812870163045224,-0.8461211339021649,-0.4581734072997129,-0.45896263873641313,-0.1812138807001463
0.228,0.008802885171847874,-0.19700365147560828,-0.20592246747133863,0.09518694903849588,0.10602531889989204,-0.20310318811551054,-0.488361761307046,-0.6119317709306515,-0.686903072621578,-0.3919905413493529,-0.3924366750067597,-0.20586724681243626
0.23,-0.013543827301761867,-0.17426541300357506,-0.16064168847915625,0.09515166763444158,0.07270659516182248,-0.16790803050516462,-0.3737798241785246,-0.4706493695975891,-0.5398751231928861,-0.3213328903617914,-0.32390524008348054,-0.21360752247076045
0.232,-0.004603661983941026,-0.14756251774601434,-0.1426059368697123,0.07768015408775127,0.06802717077408646,-0.14546707107909726,-0.2812694415082308,-0.35569422835152714,-0.43204314478487815,-0.26783176370628464,-0.27190714404538097,-0.2113086526350403
0.234,0.012674497538921428,-0.12092111687622106,-0.13325371821318538,0.05574079744131885,0.0712305852733104,-0.12861647563202663,-0.20989565654348163,-0.2643250005750689,-0.36634294614144003,-0.23089699763949753,-0.23272701751485841,-0.1988113547226086
0.236,0.014261097125189465,-0.09930853105169565,-0.11364283568231023,0.04369153360677789,0.061395265964685634,-0.10889129317436906,-0.15071374424151304,-0.19344785824007943,-0.3241034840800612,-0.20342580205101818,-0.20111631914142297,-0.18367489372271412
0.238,0.0010960558283314664,-0.08219364417407823,-0.08374414050021728,0.04137184911166557,0.03952524254410477,-0.08505088896098616,-0.09892323141630681,-0.14092593877354148,-0.28901271998005146,-0.18257381000865622,-0.1791514886352566,-0.1768273486938013
0.24,-0.007113311090469235,-0.06278059732954712,-0.05595000290719638,0.035860947442645015,0.02182839564684222,-0.06071460725259608,-0.057918363973834514,-0.10615570497453485,-0.25732886035137287,-0.16695912932023904,-0.16644819133695246,-0.17901886581689663
0.242,-0.0005169096982960812,-0.03795626949237281,-0.03714023008980489,0.020403871247608073,0.016346731462727596,-0.0389232354642752,-0.03282497283325115,-0.08844071705691597,-0.2316451555710237,-0.1542607337935996,-0.15691789110364154,-0.182265002369032
0.244,0.009018915885572017,-0.015078890441494375,-0.023471933721649862,0.0043740247641464464,0.014606566599610795,-0.02113081365948149,-0.02298151580727193,-0.08407647684844868,-0.21282623278167345,-0.14311170071650922,-0.14636728814286643,-0.18112858385778086
0.246,0.007667754424515767,-0.001480993831964588,-0.008773206002550792,-0.0015340546120108482,0.006253864897718861,-0.006810909040708396,-0.01996908898581546,-0.08470732269748761,-0.19733749155658709,-0.13246037055007942,-0.13433451443053765,-0.17470885263251806
0.248,3.3732341022965206e-05,0.008321592193531254,0.008212205113357275,-0.002373805960291103,-0.00671196092925891,0.007362770637975659,-0.012661413932457963,-0.0805453675586039,-0.18066224955078686,-0.12033463435951247,-0.12060417512748137,-0.16285428197558577
0.25,0.0004157820451889501,0.024199714413951415,0.023549039468250228,-0.010650845656161133,-0.014555442485510729,0.02316651253210026,0.0033924598990196187,-0.0682621465760075,-0.16328780108094337,-0.10713140335691695,-0.10663823580278572,-0.14840099632096884
0.252,0.011106766266281425,0.04305182669233,0.03188811852198196,-0.02614482802762863,-0.013081576787076589,0.03608524525657252,0.021990181600900428,-0.05350156547312822,-0.15052520315553047,-0.09753648915982567,-0.09718017972763146,-0.13877964082591515
0.254,0.020222428241239716,0.05113306655085986,0.031129053512007298,-0.035502741532752395,-0.007213899429504064,0.039395386239125904,0.03351115130943229,-0.042829826327031396,-0.14557123549028994,-0.09588786816788629,-0.09594952954593634,-0.13927615358242706
0.256,0.017470267844074835,0.041853913380605574,0.024773652553034257,-0.029602425209217895,-0.004419144541011541,0.03231038603361826,0.034918228006119864,-0.03620442325878147,-0.1458035872207088,-0.10074348074763197,-0.10095183669911476,-0.14626645451271905
0.258,0.0037621351035471975,0.02410750525225855,0.020629908090853494,-0.013278861435819496,-0.00882677980020104,0.022318610817543275,0.0318624567299869,-0.02921244879609005,-0.14536596238344077,-0.10510846621303353,-0.10528360969153859,-0.15018519484522141
0.26,-0.01198891080660956,0.01322145174231825,0.02508928909656293,0.0007990306240617746,-0.019054324822516223,0.01906489529509772,0.03169135006324124,-0.020318679394377308,-0.1400903360908725,-0.10307489133787168,-0.10376062314810885,-0.14680173828784387
0.262,-0.019077235950283447,0.016932489162013026,0.03554163524300241,0.002884355474169868,-0.02779595238814302,0.025152673291673883,0.034958291832729124,-0.014192086697540402,-0.13162456246169052,-0.09668724891503207,-0.09890745784421401,-0.14282510358033826
0.264,-0.012209366775799793,0.03085367889859699,0.042679072653853525,-0.00752542162416179,-0.02771658635366959,0.034816513981453384,0.036259072560973805,-0.016815764429413068,-0.12531782907203945,-0.09262425727935437,-0.09638324848492871,-0.14494086223450095
0.266,0.0013656308047474662,0.04465232773991975,0.043268253008642205,-0.021475543219633193,-0.021326768752720084,0.04189158527055277,0.033880800573778416,-0.027482437979814173,-0.12264051284784289,-0.09145324564492935,-0.09488821130391448,-0.14761057624275614
0.268,0.007700899205615276,0.05053601686897536,0.04302669056211197,-0.02809410649527978,-0.018495089203698918,0.04501476156121411,0.033382339010131316,-0.03814890387471106,-0.11919872980429701,-0.08679796856749618,-0.08796356090455518,-0.14024131855625416
0.27,0.002539181413585361,0.047607316176907055,0.045177178441588306,-0.02477432527535582,-0.02248848004088526,0.04488054034441339,0.0394035727732879,-0.04126980033983335,-0.11124323184205599,-0.07685225877062263,-0.07597853311410252,-0.12271614299516487
0.272,-0.005302178038806901,0.040403873343917394,0.04565721737924302,-0.017840744370135123,-0.026731675702593136,0.04146002009895511,0.048744341033664686,-0.03662086091575496,-0.10139117004678147,-0.06912190214079515,-0.06816984994692271,-0.10635548803035651
0.274,-0.007095450137478794,0.03442159061844655,0.041434472125239874,-0.013961369995747541,-0.025607865071402988,0.035897272059276904,0.054584064867143574,-0.02968400256128927,-0.09637534436615347,-0.07035400807521595,-0.07092612439699833,-0.10168057968639779
0.276,-0.0042105102825925195,0.031937443640459785,0.03613477994663159,-0.013581935886331031,-0.02160550364010895,0.031453310144544756,0.0548032367205402,-0.02422556210624106,-0.09863542985596568,-0.07762282211151976,-0.07967252950692856,-0.10884055588888387
0.278,-0.004199898368383064,0.031169162544207162,0.035407658399079424,-0.012578727018498308,-0.02101685032512003,0.03056221019870442,0.053033977032231214,-0.019301514595183703,-0.10258873948369751,-0.0827485580768748,-0.08450194568033942,-0.1189540820609319
0.28,-0.009927852084569944,0.03032247810091266,0.0402759465894304,-0.009110037041545166,-0.02566759250447602,0.03300934517248902,0.052582316821877646,-0.014434085768176539,-0.10231957934971592,-0.08183399201201652,-0.08122438772553241,-0.1249208987020032
0.282,-0.016572344347585918,0.029728881834864506,0.04629241728686982,-0.005559399127197644,-0.031226836872402183,0.036357940782530775,0.052304018161359496,-0.013591716349635874,-0.0995242496144569,-0.0784157717175069,-0.0752894002299785,-0.12964741239746763
0.284,-0.01930404127605429,0.029112588169482267,0.048398450149589003,-0.0036236596917818714,-0.03323585344640593,0.037251627174168904,0.04919474471118831,-0.020647622436591143,-0.09959003045775544,-0.0781118557340038,-0.07443557766905462,-0.13901209709653595
0.286,-0.017816332549476423,0.028265224045133663,0.04607768064814792,-0.0032610805558564897,-0.03142126624248721,0.03509775472927877,0.044101164738816354,-0.03251056262696554,-0.10286829816629624,-0.08043159620311532,-0.07823985127594336,-0.14963710996648452
0.288,-0.01235147318486354,0.030826508473254993,0.043186050236298255,-0.0067532705291658696,-0.027545884424808115,0.03430159550771064,0.04334943063933277,-0.040230645228391426,-0.10382217336213438,-0.0784513708441035,-0.07831275890057968,-0.15127586758683587
0.29,-0.00120580333887249,0.04180425731690754,0.043016029488506004,-0.018053321634922716,-0.02219476160156363,0.03980573671051755,0.05242706447738438,-0.03815010890708319,-0.09804126136977608,-0.06865744934551006,-0.07012411038353047,-0.13986737329572996
0.292,0.014560367624519158,0.05916344327079151,0.0446015234722519,-0.0356946163806536,-0.015556186137408157,0.05004706833028736,0.06793759912390432,-0.029650868799548837,-0.08836580866900956,-0.057548996655612104,-0.060410951834546193,-0.1233463767384449
0.294,0.026882448008357908,0.07161239188004785,0.044725945182156765,-0.049385852298951635,-0.010188891242293899,0.05691376613914582,0.07955745056498431,-0.02175498765035764,-0.0823826662697197,-0.05489559807528503,-0.059178381807332286,-0.11455423815593604
0.296,0.025761762537823887,0.06938470881135303,0.04364382297489066,-0.048221754233568656,-0.010827175352802535,0.05501940301924749,0.08138788332434985,-0.016884117836877204,-0.08340969673091339,-0.0624354991001259,-0.06727784755749186,-0.11906755441110421
0.298,0.009519753919213775,0.05496512895998885,0.04557836527566018,-0.0322101685276269,-0.019825183988286338,0.04802457749209727,0.0771795896509767,-0.01307888843218741,-0.08727323085254338,-0.0726240076047594,-0.07657900217983606,-0.13101742215301057
0.3,-0.010486258222657786,0.0400065502491064,0.050821607407706894,-0.013651395565238741,-0.03174161634563614,0.04271081941879956,0.07335004049238882,-0.00953038345337071,-0.08833992399324499,-0.07748198531742098,-0.08031993906578583,-0.1413150960743061
0.302,-0.01765206073215201,0.034628201327010735,0.052702612582144565,-0.006881155678139964,-0.03559865200441084,0.04126159933796372,0.07183905317741346,-0.008442328140791919,-0.08471652524637509,-0.07586832557771708,-0.07854374244737218,-0.14644008560453703
0.304,-0.006831838437531624,0.04035840926758432,0.0474668533111798,-0.015255242266944214,-0.027387632706072196,0.042264782751089434,0.0712841626392132,-0.01178286874625831,-0.0779083031946628,-0.07186980659576392,-0.0744256777825098,-0.14745221197990463
0.306,0.009829813144089218,0.050792403766446705,0.04106795412195705,-0.02897435463675459,-0.016299713783046333,0.04468417314086825,0.07121774472910242,-0.017325104365790215,-0.07055431326050486,-0.06769791548484437,-0.06919976327969007,-0.14473345912804114
0.308,0.0184486010728025,0.05851349807244071,0.040246863616601895,-0.037333770402893804,-0.012540685859293322,0.0477982754818013,0.07269388776843043,-0.019902846067679374,-0.06495309994289027,-0.061605763273791,-0.06267564975276291,-0.1377387208944725
0.31,0.01886731730798832,0.06145559449015457,0.04294798323053392,-0.039477517190952716,-0.014434629999240032,0.05020607232031599,0.07620776114423557,-0.017429798190579673,-0.06262499600880689,-0.05385742754141337,-0.056913526115911786,-0.1282757896798996
0.312,0.019550636221613092,0.06260430289787056,0.04333336102683623,-0.04081385718089752,-0.013891377219740068,0.051230359975492606,0.080445494169049,-0.012485216443520734,-0.06387994416716948,-0.04952209793404564,-0.05510864674353189,-0.12073115930123182
0.314,0.023302594219292993,0.0641628861705516,0.040759530811889516,-0.043158245081346296,-0.009334578191919692,0.051279082030809144,0.08308688427607554,-0.007367481813683591,-0.06782531424988374,-0.05263819220987845,-0.057526038739202374,-0.11891719878482582
0.316,0.024299313035434665,0.06433959486899539,0.03954721680186292,-0.042794271762417985,-0.007144359367348395,0.05083123250765097,0.0836329501646826,-0.0015725973130322165,-0.07287345153413353,-0.06088001567407439,-0.06144410262268474,-0.12321353623029177
0.318,0.01772969274444555,0.06161995537333514,0.04324359009067853,-0.03745316515517325,-0.012383730759266591,0.05105415368540649,0.08505593558872343,0.00514769399410378,-0.07622165513129445,-0.06727798078949243,-0.06336871316992145,-0.13034313011137488
0.32,0.00903142106443812,0.059495146866438926,0.04988971007751421,-0.03198793939522714,-0.02096218089945404,0.053375252127197986,0.08980621051462218,0.01065303597986079,-0.07455905591955397,-0.06649615627748783,-0.061312508308814205,-0.1359578348460456
0.322,0.009050219822484211,0.06351221002679655,0.0539770385179811,-0.03409479858068269,-0.023834975221563057,0.057823284710012815,0.0950406495776391,0.012904186696746789,-0.06734670907903482,-0.059629511201326674,-0.05696949971311239,-0.1377496561692407
0.324,0.017565548506390513,0.07232616165989506,0.05418488071422297,-0.04265564709168905,-0.02000135621475253,0.06260516020506396,0.09543286211704358,0.012209611788415451,-0.05866512030573116,-0.052780515082211064,-0.0541284002149478,-0.1370497900110771
0.326,0.022331223155470543,0.07590201037521159,0.05274990147294676,-0.04696872576052651,-0.0167698170899817,0.06374239763253058,0.08977227553272492,0.009352114980463927,-0.0549702962605261,-0.051184341161636206,-0.05463806425986033,-0.13737866389681705
0.328,0.018866628105940034,0.0692866286128572,0.04951444854047927,-0.0428168338135297,-0.016656805698526476,0.05881698464734897,0.08312916758611234,0.004913654052193581,-0.059194814103776215,-0.054226274233638086,-0.05680844991419549,-0.13962969090951552
0.33,0.014769603063607565,0.061782038744233644,0.0465032613358141,-0.03828330398377958,-0.01722072699889991,0.05331408123782425,0.08301370006088556,0.0021863789491389793,-0.06660027848111712,-0.05589907961839251,-0.05649622044868229,-0.14035318197786373
0.332,0.013597423490259029,0.064480152796505,0.051092040410883374,-0.03973894016100173,-0.02025572556768161,0.05650782296896132,0.09213408144873242,0.006111016113742318,-0.06978783896789044,-0.05158073150574628,-0.05080903078624795,-0.13712437356822554
0.334,0.011676114851351282,0.07630990579359005,0.06526824823953706,-0.044456691577817065,-0.02803745184849767,0.06951035963925535,0.10544322709757036,0.017481805576634455,-0.06753029433099463,-0.04365937485164497,-0.04250757435004962,-0.1325936784844398
0.336,0.008222717613883743,0.08714191587670199,0.07932296178443228,-0.04754318352354331,-0.03603687733896651,0.0826922309904884,0.11568049763617216,0.031291915053659046,-0.06499038679231522,-0.03916511096182748,-0.03887399695415369,-0.13231606271744317
0.338,0.007663824103548676,0.08996160016718646,0.08209532133160301,-0.048216276295991345,-0.0373176775510077,0.0862343947212677,0.11890092081539216,0.04108032495347843,-0.06612944100428497,-0.0428248545369838,-0.04431152790317379,-0.14063709756694937
0.34,0.013460044745097707,0.08736448531027265,0.07319878148196973,-0.04934843785682046,-0.030590847470982237,0.08037510548788199,0.11489312763810663,0.04370342580068269,-0.06893315395630063,-0.05230487569317709,-0.054907418244066156,-0.1559503489415717
0.342,0.022201657236549134,0.08528899674444071,0.062260168968423596,-0.05202870633540117,-0.02179394925039279,0.07297086166904473,0.10720516430505035,0.04076170967107174,-0.06846593108704677,-0.059919733888347884,-0.06224984072407033,-0.16932886654725798
0.344,0.025755455514061464,0.08361966184380733,0.0574010263401913,-0.05254989076532912,-0.018075873037665436,0.06882016837714423,0.10161710928862476,0.03562103975368277,-0.06353687178022563,-0.060124774964718575,-0.06234484551186982,-0.17285529801677396
0.346,0.021317377601731274,0.07784283009790104,0.05671678494810765,-0.04766936347892315,-0.019691731195834707,0.0651537162011662,0.10057823267458046,0.029552349819443092,-0.058329922850512514,-0.05479992130681794,-0.058407356650705025,-0.16850896570660795
0.348,0.01524497410036004,0.06761267708610946,0.05296133244866874,-0.040088921921168294,-0.020403322551606044,0.058038571292174976,0.10152074194134815,0.02265374066962194,-0.05609411405000269,-0.0499665886594319,-0.05538740133765654,-0.163913731706066
0.35,0.01374311404592529,0.058217298773723676,0.04488752257066411,-0.03487542769132896,-0.017109687834252364,0.04947362582570357,0.10233102560974934,0.017372390642713908,-0.0540914352222249,-0.04852261046973444,-0.054379445688595304,-0.16234996076601305
0.352,0.014739551062926265,0.05367145361945866,0.03889910329885452,-0.032684220456454756,-0.014000234604413684,0.044730937300980954,0.10431934179422983,0.018067676402266176,-0.048109399408351385,-0.04827667139750353,-0.052793864769749795,-0.16171817523966997
0.354,0.014032903270829566,0.053060259822422844,0.03877343656502672,-0.031357113988419436,-0.014328977940586667,0.04493561421979745,0.10845107072907831,0.026476652159964868,-0.039634474951347635,-0.04718012658395275,-0.049400881771077834,-0.15983024105385485
0.356,0.014144265743862667,0.05386646102996088,0.039468166056626244,-0.031615008240285944,-0.014043955460550964,0.045989799316012575,0.11240596313374947,0.03855716102223964,-0.03479243398780728,-0.047662741448622786,-0.04781089119436689,-0.15745568856501274
0.358,0.019089615050383146,0.05423146730341524,0.0347578022631078,-0.03456427171492298,-0.008666627868592557,0.0437845279440804,0.11296787769504309,0.047437260817877434,-0.037038576803071446,-0.0531663328987758,-0.05241456211135127,-0.15792950837190767
0.36,0.025076772205874825,0.05287238756871177,0.0271140534507617,-0.037000927878926226,-0.001777693063319488,0.03879116314909786,0.10951872187001416,0.04992595619346182,-0.0433098284586194,-0.061875112213531286,-0.061411921255872505,-0.16343267494497515
0.362,0.025108107312783127,0.05082588423747146,0.024933082230752072,-0.035874588302544134,-0.0009005157757559607,0.035801305644839417,0.10447009457927328,0.04812888107793912,-0.047292901380666816,-0.06739851631519246,-0.06742578636375304,-0.1710796259325221
0.364,0.018127176015607524,0.051076994148954044,0.03247604003276887,-0.03285144340361369,-0.008542250247700084,0.039054865784448126,0.10125243356455078,0.04502026588607269,-0.04532390285258435,-0.06598138283758453,-0.06551923532335634,-0.17499724488932988
0.366,0.006927524977255399,0.053199613186992734,0.046324002767725934,-0.02917266063138331,-0.021440937705509085,0.047120189877841695,0.10197716500376136,0.04151413585142828,-0.038990842477867986,-0.060384758953277835,-0.05816364642310713,-0.1725795778558279
0.368,-0.005454374955396252,0.051997693594649924,0.05784257521080097,-0.022882718426968002,-0.03345920127801445,0.05280954480042968,0.10569003383050433,0.03716622940935644,-0.03290252105244872,-0.05638124945740594,-0.05261208777294835,-0.16719447886726882
0.37,-0.012386704326849858,0.045435470458974454,0.05811871837749889,-0.015829720617373918,-0.036918751709668775,0.050119588974795015,0.10858003734158696,0.03113286964935384,-0.030731438906200798,-0.05706466458100844,-0.05423006003776867,-0.16420047994191228
0.372,-0.006607167934581259,0.04020708973643176,0.04672422214846786,-0.015443509330100785,-0.028337820205628077,0.04201651495788462,0.10806358863070982,0.024443829951048227,-0.03244794814440787,-0.05982595810978118,-0.06044557667075609,-0.16413620331605203
0.374,0.00871526536272925,0.044302769795315076,0.03524007066012839,-0.024724914944717916,-0.015070312963127969,0.03831925130931741,0.10671616444099223,0.022622828671658508,-0.03394689247833946,-0.0589660192466231,-0.06265825789965611,-0.1616886098458348
0.376,0.019476882150992636,0.0553303880329763,0.03567059773213383,-0.03557967711856768,-0.009973394920293078,0.043948377389324646,0.1085780205470982,0.031050080791992736,-0.03108357775303652,-0.05331127347957008,-0.05729019474738028,-0.1539274591631365
0.378,0.016465242754397355,0.062088267747024424,0.04582749496415937,-0.03747133950608014,-0.016523219465831997,0.05241217123918327,0.1121233500427962,0.04587793419944738,-0.025773622337151553,-0.04917170594614599,-0.05121527771190842,-0.1462783698863116
0.38,0.007119988850681547,0.05946117559279385,0.05268765512823883,-0.03141423799618114,-0.024443673684863325,0.054602150581807334,0.11183708774309904,0.055741784981236935,-0.024571470410403418,-0.05231579401769676,-0.052328711393085266,-0.14543719717670417
0.382,0.004154202246389637,0.05476189740174836,0.05073883606929112,-0.027858511652589388,-0.024620154171805287,0.05131926993789385,0.10635490279088214,0.054623198728505754,-0.028971912572314077,-0.059690666454077765,-0.058956779355408585,-0.14990064753545923
0.384,0.0075970317357662975,0.056007989809706685,0.048320123903031344,-0.030869692277650882,-0.021454513068358973,0.05098979557440051,0.10027335385299212,0.04726056945628116,-0.03212588948786576,-0.06291501459274917,-0.06267783839904369,-0.15244919780007624
0.386,0.008967797042641284,0.06117939115612157,0.052213150002129,-0.03445435087650884,-0.02296112454905183,0.056024798142612,0.09825854679536486,0.04115892018288049,-0.02783859504204713,-0.05777879598677102,-0.058740620434279286,-0.14863815400431765
0.388,0.006693093345784069,0.06291188746999146,0.05656457725061879,-0.03380439832637979,-0.02703131048161371,0.059319864568660174,0.10091738241057155,0.03898067392853183,-0.018038458036643935,-0.04762125248037338,-0.05029314567420674,-0.1395256477443765
0.39,0.006229152171108176,0.0597013843632454,0.054116689709454886,-0.0313828958417871,-0.02675367133679113,0.05630202076445239,0.10529164230054745,0.03863155437836876,-0.010179677174186944,-0.03980701045155768,-0.044235567368072104,-0.1298008333989394
0.392,0.01007528460325442,0.05753494310261576,0.04820888621436638,-0.031956433413981376,-0.022026265124374084,0.05193288226810061,0.10719930537396717,0.03721181690291858,-0.010922135283368915,-0.0400686761218887,-0.04507208076693324,-0.1255226144787635
0.394,0.01431161982074212,0.05929355263133735,0.045685692808363765,-0.035031938383212724,-0.01826207013273253,0.05118867578678476,0.10499261399208212,0.035577583239390885,-0.02064005660085876,-0.047142298387126094,-0.051095602270684166,-0.12893797944199387
0.396,0.01384200911796435,0.05980877438647125,0.046470226490397136,-0.03505730364225496,-0.018350864267430073,0.05147955913633976,0.1015644059595761,0.03835032233743505,-0.031775392793146055,-0.05322588726734882,-0.05608679099025188,-0.1341211674421338
0.398,0.009120196887205057,0.05590536042027574,0.04697118112466679,-0.030464467396912307,-0.020705391705998933,0.04972744767704914,0.10094531173691523,0.04738318873950748,-0.03545253192220029,-0.05230932157745009,-0.055711066377563255,-0.13380165811106712
0.4,0.005251380798864881,0.05257323619688163,0.047342359691412234,-0.02668244392698111,-0.022994245855558683,0.04867176746230526,0.10364578029535373,0.0578447222029411,-0.029928293490972938,-0.046122978223883705,-0.05100072547071943,-0.13001509156102523
0.402,0.004989836425884214,0.05440882782085427,0.04960215970897096,-0.027541818806727333,-0.02447497866992472,0.05134864112923402,0.1063125372714051,0.06289668682373704,-0.020404698336665656,-0.04062219782566811,-0.045689949472511586,-0.1307807665997338
0.404,0.007938190632842422,0.059518486340094615,0.05198403342756603,-0.031513791994836685,-0.02401391084731409,0.05537168935806782,0.10552783283940477,0.060520735028422805,-0.012195311336590579,-0.03876215013980096,-0.041889056441012415,-0.13787447496479627
0.406,0.01639757762319276,0.06654716577850192,0.050471635164503315,-0.03912511439201974,-0.01855070650477648,0.05761598855161411,0.1018050998797014,0.05490270676981559,-0.0062462557966327294,-0.037324154150641005,-0.03819330926038619,-0.1446142344562264
0.408,0.03211993865251599,0.07784741817106655,0.04574414463137623,-0.05291333344261206,-0.008146857753053228,0.0600251450112813,0.0988783853350072,0.05145267737526592,-0.0015377228811491825,-0.03164151799205758,-0.03233290375509815,-0.14536719518385793
0.41,0.045675773713800785,0.08948607742915635,0.043648954980238866,-0.06596830523050472,-0.0007928573183740564,0.0647272107330295,0.09859006270690618,0.051394775941963684,0.0003611079302240285,-0.023536095372539548,-0.0258257693355976,-0.14250956538106452
0.412,0.04185433578564806,0.09016481500790935,0.048216875989440015,-0.0643147768421853,-0.005716513177316819,0.06845143550880062,0.0993085647654074,0.053506182368341246,-0.0023959624575202528,-0.02001469345011917,-0.022959124220932724,-0.14153055802152037
0.414,0.018361085979495678,0.07673506682016697,0.05839212714818595,-0.04523922150619892,-0.022868578375801536,0.067939432440493,0.09990063949264856,0.059076338164516906,-0.00658901419688981,-0.023720123258910663,-0.025123821402302224,-0.14297041207322517
0.416,-0.009087050418762812,0.06014961326860258,0.06917543772497006,-0.022765189331148884,-0.04156482862845336,0.06494345820954271,0.10061451997762483,0.06938831691400463,-0.0073195559400511395,-0.030807471644934532,-0.0302284605933637,-0.14445008582328767
0.418,-0.021544678814234677,0.05214238214466686,0.07334968550569541,-0.012699445352570976,-0.0488476392276026,0.06202924185297742,0.10046952629020675,0.08061211153889768,-0.0047404430428392,-0.03703749286818617,-0.03588114868330578,-0.14684516363601025
0.42,-0.015785880901318838,0.05285799961938114,0.06805758541007217,-0.016619403913620413,-0.04236487905533079,0.059190965537255134,0.09898725495264744,0.08747278015507597,-0.0016828983901003701,-0.03998042053495297,-0.03909722795524899,-0.15192933421846555
0.422,-0.005445519200445044,0.05428157840855216,0.05912213822164005,-0.023176702896813006,-0.03274324489904805,0.05576033940920784,0.09823705949267635,0.08954331845847237,0.0020424688957692075,-0.038002748771786124,-0.036815060247983665,-0.15676221543176747
0.424,-0.0006098434702573974,0.05226977599589375,0.052489828272430705,-0.024741352728387376,-0.027871890259256793,0.051624947873145643,0.09883461342649053,0.08969079503176762,0.007605451630179976,-0.03168971419628776,-0.03011344127665351,-0.1563408222119406
0.426,0.003835788759021794,0.05084627596619838,0.04691615266808945,-0.025897569795507894,-0.023304991228640107,0.04756172242133534,0.09774058159215397,0.08879035786242634,0.012648882523150435,-0.02418983545717239,-0.024012910771280496,-0.15095927175979015
0.428,0.01420295329123148,0.055622560182228775,0.04151195971813958,-0.033113951544970516,-0.014798433791507373,0.04674007318006177,0.09382583260747464,0.08550988328670077,0.014294620114098391,-0.018526257263605152,-0.021487830427881428,-0.14599194846894387
0.43,0.02383413998768913,0.06627247011909418,0.04253124281317973,-0.04316477239854266,-0.009759262752882289,0.05291733384320631,0.09209940843071587,0.08139111263171345,0.014858536482118078,-0.015211302912107899,-0.020337846851529055,-0.1433918945463044
0.432,0.0215626019542274,0.07575354131480982,0.054214560403305835,-0.046716163407819,-0.01705622752771364,0.06438155955125956,0.09801329785292134,0.0828192640725087,0.019681220098773305,-0.012170797964396409,-0.016625438114095024,-0.1383142947855458
0.434,0.009781033104719648,0.0771657349193331,0.06746896866673814,-0.04145917222127188,-0.03059797168846849,0.07238223894243431,0.108635160025969,0.09387312648676222,0.029177626360551157,-0.008257112614597318,-0.010642965207642883,-0.12846226256799886
0.436,0.0033103382011884985,0.0708733038138946,0.06788889695061458,-0.035256640651936205,-0.034334100247846513,0.06942707481249888,0.11452382758274034,0.10926756252377795,0.036891689730739634,-0.006516511039666514,-0.007933834372210735,-0.1221116059744721
0.438,0.008792481205575775,0.063527275544648,0.055324751257416024,-0.03471044237461397,-0.02438163808401111,0.05883711943222839,0.11206364512444515,0.12045797622574318,0.03759015819262911,-0.009827048450054223,-0.011839832444590052,-0.12821747948253087
0.44,0.017599202089050286,0.06084380216049534,0.04395632205892658,-0.038009637012470655,-0.013326258035191628,0.05130187121797953,0.10788035066116447,0.12624025541240635,0.03379558572386461,-0.014998741715850713,-0.017731538539501508,-0.14208351058041796
0.442,0.021696574540352537,0.06241158406472358,0.04130961628132373,-0.04089791612842208,-0.010083302264398882,0.05110347657955217,0.10764435590287409,0.13038226200547157,0.03168463130566456,-0.016708595773243826,-0.018980366769837012,-0.1507098402506875
0.444,0.022736157447879005,0.06383255939419719,0.04129152219904355,-0.04237622504860225,-0.01023333401614185,0.05270844644436753,0.10846447432810687,0.13352173357305505,0.03510101290414418,-0.01390778122602992,-0.014899739163019956,-0.14863825502219596
0.446,0.02279765154054026,0.06271279132613379,0.039653648532243964,-0.04239531024854704,-0.009319450621664812,0.051794248192626034,0.1070192690698188,0.13528066478666453,0.044770497900378334,-0.007583088692755041,-0.008402855571316809,-0.13986336426159743
0.448,0.02042738812631448,0.06181481238324798,0.04100925157257059,-0.04103733930403633,-0.010352693207945572,0.05142019768355999,0.10678821428445519,0.13876970174985365,0.057934922884378674,0.0023801089990517087,-0.0002521689428574702,-0.12882013465403888
0.45,0.019262125923652163,0.06688455545786787,0.04749982361327462,-0.04251294881657857,-0.01387107793960867,0.05579014231764414,0.11210336959526059,0.14602926523524803,0.06914449839525624,0.014031079926051786,0.009880305834165382,-0.11764118221343717
0.452,0.026409984219601418,0.07907050627441724,0.05279197674559855,-0.05139578684794019,-0.013950752731225473,0.06332701337976736,0.1215206689926973,0.15433026041561637,0.07563813833424589,0.022857815059689705,0.020112071191317974,-0.1087452678897801
0.454,0.03973218115259001,0.0907826642831415,0.05118456506388085,-0.06357632547345007,-0.00801187589955153,0.06824991079550467,0.1308600446378949,0.16152009908400378,0.08030366458208166,0.02689688569534732,0.02762571550453825,-0.10393196997557007
0.456,0.04941971043333116,0.09434453600691121,0.044920647040156754,-0.07028160985528825,-0.0005962447221716551,0.06754624846176084,0.13789070307368267,0.1697585293541474,0.08679686512013265,0.0276327011684458,0.030801459317788354,-0.10301682485499665
0.458,0.05126908269701135,0.09165773779140071,0.04031412045301745,-0.06968323490502645,0.0033599529134668783,0.06448067846070746,0.14192732874738961,0.18099255207368328,0.09488901500599509,0.026519955698565138,0.029290656730686867,-0.1054711340473329
0.46,0.048435324197052904,0.09032688945041108,0.041858003104727,-0.06697903363145537,0.001971044118376013,0.06501391281125928,0.14332472062014634,0.19310594411169674,0.10334057670250768,0.025285866881110244,0.02557977695039329,-0.1103070371966379
0.462,0.044209978509412995,0.09305022741985175,0.04886472596409916,-0.06588285608041718,-0.003678985712620234,0.07042325875501841,0.14441962064687194,0.20250224693759905,0.11339800250357718,0.027918454093807464,0.026183337593317528,-0.11410145724002252
0.464,0.04072909369595013,0.09528876099494411,0.054589647421577285,-0.06571928884644512,-0.008438846571987887,0.07464393380780845,0.14765357460295456,0.20805492889519872,0.1258934820442511,0.03804928924088772,0.03667014930553536,-0.11259073543691181
0.466,0.04077132172727293,0.09398680753212552,0.053238400170428336,-0.06583258861537564,-0.007093378583129237,0.07273534008316848,0.15290600680308214,0.21160740425401045,0.13762941688650546,0.054030386125899006,0.054092772342299394,-0.1050431026813664
0.468,0.04584604848106518,0.09386584686015625,0.04813522670862757,-0.06860662427071139,-0.0010319726966690746,0.06917937616760109,0.1577462426192133,0.21542344159390925,0.1436818431003806,0.06816126426813902,0.06768729236194736,-0.09586498276370647
0.47,0.05461512444461843,0.10073946364318007,0.04644363873828004,-0.07641362680226722,0.00437819783139036,0.07131209839136672,0.15975053625220906,0.21990103824180696,0.14309634318297698,0.07309100934799515,0.07014232704000818,-0.09091713617699895
0.472,0.06384691890825687,0.11173553786792108,0.04833795498847684,-0.08682938780019979,0.007314451322456242,0.07803450076572258,0.15979088328213162,0.22463902689271767,0.14095881736948213,0.07001088369627875,0.0660794485775898,-0.09163835372212824
0.474,0.06915044404307606,0.11786445793065088,0.049107589505928084,-0.09306984186826817,0.008832778475095174,0.08223502635872497,0.16268975990110462,0.23124478000414656,0.14391025662622828,0.06772744498562341,0.06586149520554083,-0.09433372754569246
0.476,0.06713506246368671,0.11593712531371178,0.04910440318766013,-0.09101664048105637,0.007716216927249998,0.08190267636623047,0.17172597548054147,0.24266874352000203,0.15436402975123625,0.072391534649142,0.07318604307193421,-0.09585930991993658
0.478,0.05747773028071806,0.11135491986140275,0.05415061548719918,-0.08316398471132502,0.0006926041922469606,0.08199859656715679,0.18346781860065753,0.2590917062260132,0.1696540020575728,0.08147146597483777,0.08287498164173475,-0.0968670433547357
0.48,0.04202919162639548,0.10783368886263876,0.06601682150848727,-0.07337004552906629,-0.012739631095933958,0.08551036453917393,0.19110526624518917,0.27607525282624484,0.18455473696462635,0.08909953009476401,0.0893038584968807,-0.0992543389395228
0.482,0.028585419392336633,0.10379467581623668,0.07536194787307127,-0.06514881485357753,-0.024331172368433008,0.08802845772873504,0.1915938741999399,0.2871307336309596,0.19351829744797253,0.09374344528301938,0.09249957981858085,-0.10355588957612984
0.484,0.03305723476752384,0.10131820809512695,0.06850051204559368,-0.06659310861020162,-0.01932033547889651,0.08392003987954001,0.1875002100071539,0.2887184180340745,0.19426326373037242,0.09835214258141689,0.09593438984924182,-0.10804516377195306
0.486,0.06145630407502309,0.10632661257003881,0.045232072996187526,-0.08309276721230968,0.005669658495781095,0.07492262339082077,0.18407988934478778,0.2845786265052644,0.19182538734654597,0.10540717400107971,0.10219354528315658,-0.10877790962329326
0.488,0.09336753804417101,0.11620422413318535,0.023108035563062512,-0.10357823474386063,0.03235319748276969,0.06789934982992875,0.18614296234239078,0.2838254616999245,0.1957228403127177,0.11451361512029007,0.11178811617888929,-0.10245515845361375
0.49,0.10171607319322566,0.12027064815795094,0.018547603436339467,-0.10958305411813492,0.03955393122642994,0.06659721167321453,0.19552939582409323,0.291934188931908,0.20995290885901113,0.12406538208797431,0.12351847247733415,-0.09032259295709229
0.492,0.08477913636825596,0.11671322496524116,0.031668129652566546,-0.09932405406464347,0.025769338800735068,0.0712469155218772,0.20971857590018433,0.30580726882916676,0.22814042729824505,0.13345630773340758,0.13502359148010742,-0.07777609752523326
0.494,0.06597987831495218,0.11642868632068495,0.050019525900855386,-0.08990340260057453,0.007584667956087935,0.08115089628857154,0.22279818700921528,0.3200822901087891,0.24144777769874456,0.1427753071030184,0.14401949332207048,-0.06962141224258842
0.496,0.0664935247407683,0.1256270911653546,0.05861171055544635,-0.09492108895012877,0.0028591557613019663,0.09127474790174299,0.22897805575199523,0.3333512303251333,0.24855475334743332,0.15030870907040889,0.14885713785468102,-0.066976258861182
0.498,0.08400895863007252,0.135665751171008,0.05113263291002697,-0.10882949221763409,0.014847338032260283,0.09346713688967792,0.22712064840829144,0.3454205609132111,0.2543178307817809,0.15253194312233456,0.1484413877196499,-0.06863172457506853
0.5,0.0967971128589806,0.13484629753657915,0.03766322066282813,-0.11488656291035107,0.028372276810940438,0.08654011292475602,0.2217351103668838,0.354247284265118,0.2616205901716403,0.14869000840281682,0.14406974651028245,-0.07281119051007028
0.502,0.08928187852456511,0.12352992618378403,0.03411160455478074,-0.10530976197116086,0.026992992451205115,0.07857764099719163,0.218431387282718,0.35872613715280394,0.26969937315982634,0.144171285949566,0.14127545893084043,-0.07639868263479054
0.504,0.07192854021327484,0.11403390598345876,0.04217551987999013,-0.09150328695958555,0.014299465693254833,0.07687229293456434,0.21938296728400536,0.36138059055331073,0.2792646428758714,0.1469874652608938,0.1466581058596599,-0.07505968255683529
0.506,0.06933852129780398,0.11746223386607242,0.04820704252775856,-0.09169641151206456,0.009388357385251537,0.08090811974527586,0.2234006683851392,0.36569184040415026,0.29253887632333153,0.15966854165537303,0.16114651261550794,-0.0671499753657388
0.508,0.08943102141449542,0.13118546364270905,0.04164281737947756,-0.1085968095066273,0.021942470449469113,0.08483427930859404,0.22770862207747036,0.3709824033868837,0.3065319667631168,0.1752576562577485,0.17726097988137898,-0.05688339910354319
0.51,0.11370471010583216,0.14015520431543702,0.02607788512601984,-0.12502824761046377,0.041626848724257856,0.08248548221080414,0.22937315431396996,0.37317241025531434,0.3143312292700904,0.1841596856661688,0.18560479739792465,-0.05052974315994898
0.512,0.12087343127518785,0.1336034409558224,0.012275037771162959,-0.12492332744300112,0.05290195587641383,0.07243415742242504,0.22831499295352034,0.37256445941799005,0.3165820384060118,0.18546633912455324,0.18540463015787745,-0.048899596174900424
0.514,0.11103444311563634,0.11837798621680941,0.007096814710191073,-0.11231865298458285,0.05171884471406472,0.06112780111609104,0.22797683849781256,0.3760347008179234,0.3224610921127203,0.18700780798518551,0.1852461495893778,-0.04708756421030868
0.516,0.10103535965676956,0.1109890508746469,0.009979165627333678,-0.10414388722432535,0.045398054444592925,0.057928885741309444,0.2299805848416811,0.38770240673654227,0.33580880745645975,0.19327194555128832,0.1914000221816043,-0.042744592663560996
0.518,0.10215932154095925,0.11911112124169564,0.01694992082156798,-0.10921043385672309,0.04131523895168326,0.06596120475455934,0.2316291993868967,0.40253103127209316,0.3502846068898779,0.2000471967953006,0.20030490244846774,-0.039422953686520504
0.52,0.10933772573130426,0.134851210857651,0.025086846057334217,-0.12034261138255162,0.039765101379706146,0.07917648180765718,0.23097890912822716,0.41302646100485496,0.36067904184230415,0.2034330497027621,0.20583973640533706,-0.03915276838838884
0.522,0.11284688845135843,0.14514179825217546,0.03136001568499027,-0.12648386945826076,0.03849442311131598,0.08803495729810859,0.22933503544015402,0.41751799102452913,0.36903135177766316,0.20704201501830585,0.20918281599064048,-0.03744521460387709
0.524,0.1129427979920737,0.14595670516041873,0.03193144765557403,-0.12661216343570478,0.03896086800670861,0.08841008113494365,0.22755229089732218,0.4184974983072219,0.37743488974897804,0.2160406709717588,0.21620381806733183,-0.029829666013766947
0.526,0.11566609844191711,0.14293033383695436,0.02648303568444827,-0.12681696937283837,0.043271889519223394,0.08378126367493853,0.22446159560862566,0.4171877562427374,0.383209878072793,0.22860011126741572,0.22755615383171024,-0.01882950799002606
0.528,0.12176641165131862,0.14015599015931937,0.017987224839170063,-0.12918309870129882,0.050320835706298694,0.07784939290911877,0.21931717358448813,0.413594720052495,0.38382845757457357,0.23802320427581952,0.2373981646060008,-0.010242446227611075
0.53,0.12882400856512466,0.13565895128275277,0.006551075632224435,-0.13124611674293815,0.059515156195204026,0.06945889155356305,0.2127956242541312,0.40913329891352007,0.38124935605818583,0.24167905269641896,0.24182230552003534,-0.006140254146179018
0.532,0.13651288308062742,0.1271692167840987,-0.009621013901630268,-0.13143773993586086,0.07186582009434947,0.056900914676124965,0.20577983886954646,0.40602662957988794,0.3789483198944019,0.2429591749802263,0.2426534685255652,-0.004844160420318893
0.534,0.14332996275040116,0.11677485955231656,-0.026523042033518726,-0.1296327451462518,0.08424176929876416,0.04335610326863314,0.1989466069735826,0.4053108506994759,0.37789709996403104,0.24476131053040093,0.24244181367461978,-0.004503793104838628
0.536,0.14551607146464396,0.11015637295764699,-0.03469296642246903,-0.12677789012190493,0.08950739451311457,0.035875448165785126,0.19300455747090609,0.406401665749351,0.3775535086415491,0.24656465788393117,0.24194752838063183,-0.0039084954154725345
0.538,0.1417283864795475,0.11171403029266608,-0.028942211309716026,-0.12493588655695725,0.08451989174978726,0.039157240315931534,0.18805287005382051,0.40786752297533935,0.37830152768113096,0.2480972329011374,0.24281347207228213,-0.0018664691462068513
0.54,0.13390844230594226,0.11876537114536778,-0.014344901691241932,-0.12432809146803368,0.07336053608940286,0.05002248965951371,0.18285836260799282,0.4084875279536632,0.3807295459088474,0.2505305343709089,0.24654678588454107,0.0016837540645205024
0.542,0.1260942255051947,0.1232475589563404,-0.002721771510300455,-0.12317485114274432,0.06385125225518319,0.058858519830666055,0.17557190984778753,0.4069521911794159,0.3841945949803026,0.253591923560836,0.25086940689182113,0.004826087222422636
0.544,0.12624536671829859,0.12212719680320004,-0.004409990037776536,-0.12342247023152211,0.064380276795776,0.05827253705978852,0.16586871768854686,0.4012137860223768,0.3875561334038021,0.25519916087166594,0.25198973311123013,0.006398212425478554
0.546,0.14174017165692035,0.1214385894718224,-0.020514044854820772,-0.13087041455901266,0.07913054705554431,0.049877127848570645,0.15595671533996336,0.3907811663597185,0.3897710397294049,0.25437215141805863,0.2501149003900793,0.008539582462026532
0.548,0.16640566081835234,0.12577841323570307,-0.04058080103122162,-0.14461179208537359,0.1007956410480585,0.04123733305866932,0.14845358023304198,0.378862499849844,0.3892085822951587,0.25292162598227796,0.2495383495275322,0.013800353913914713
0.55,0.18042962844751262,0.12967600071598384,-0.05061859638191663,-0.15276083610442195,0.11317033761853214,0.037510264203788495,0.1434377124116986,0.3694251240220552,0.38480555152933577,0.2537028087163298,0.2534231949431398,0.0212554578959639
0.552,0.17134813242569816,0.12426262388416637,-0.04706787005192526,-0.14517725746448537,0.10760388642029138,0.03689107044422596,0.137923267540798,0.3629698562360288,0.3784424871535609,0.25695718925193695,0.2596450535488383,0.02736910845941524
0.554,0.1496406070275045,0.10886571094440321,-0.040960438550618566,-0.12668377411292556,0.09379901668089197,0.0333306631126035,0.12846938511981396,0.35682717504750117,0.3733145109464846,0.2592817692275465,0.2624294243766639,0.02893237585143964
0.556,0.13678720511946219,0.09252275726606951,-0.04463922697321762,-0.11241785227129203,0.08861715689566294,0.024037399331033583,0.11453314626168269,0.3485889235213093,0.36944414408653425,0.25743063091316326,0.25868312643304525,0.02506145898443222
0.558,0.13970456258187783,0.08334341984793213,-0.0567548609440079,-0.10985986655675789,0.09566947964778365,0.013050376485755726,0.0990482058131077,0.3387313323897209,0.3642612369085122,0.2527199316588351,0.2519420942278061,0.018662831654406988
0.56,0.14513458109595748,0.07955806806892095,-0.06567160050533813,-0.11116063188348213,0.10317698910071399,0.005867259814533985,0.08584142681911144,0.3299259765395602,0.3578922677791246,0.2506675725691583,0.24915678983718512,0.015477936223077604
0.562,0.14180740999333644,0.07604512620224725,-0.06539907116776379,-0.10777202048950679,0.10243033977784123,0.0038742010858327457,0.07583404638922628,0.3225725768718854,0.3532318679976149,0.25501640273387005,0.25357198122851815,0.019186507262253027
0.564,0.13553057553543468,0.0751128702821012,-0.05986036919053407,-0.10388473954640536,0.09739708182827979,0.006531312080234304,0.06608953024381253,0.31295421709253496,0.35134744268000456,0.26289330141174777,0.26165946522055433,0.028393709048965952
0.566,0.13601390852706932,0.08216695741905204,-0.0535390018575139,-0.10729361352988066,0.09425771266056962,0.013841673902396616,0.054051351503460666,0.2987173214721827,0.35124541780645463,0.26876212432520485,0.2680311249668722,0.04000492248423266
0.568,0.14184358440244238,0.09337348298779527,-0.04851908813817666,-0.115368825118011,0.09370606811234235,0.022201284824215357,0.04033095680856934,0.2824295209135184,0.35128059125062777,0.2713400141697333,0.2713346756268335,0.051719411662275144
0.57,0.1451010040864587,0.09612949426983175,-0.04903609242602805,-0.11790798808177803,0.09516672797730014,0.022972436850957244,0.025992932759333343,0.2666286913336841,0.34819296711008385,0.2728296100621745,0.27320308311486236,0.060241302239353166
0.572,0.14293192570596097,0.08304218498211541,-0.05964709967939616,-0.11008832032978876,0.09990394303273052,0.010616442972120211,0.01037913633261173,0.25003352347664076,0.3388714789857928,0.2733154436894474,0.27352709736446723,0.06248949039664282
0.574,0.14071569051369512,0.06195892011654036,-0.07839197981914352,-0.09885615003573181,0.10893264001702407,-0.009427819145226285,-0.007291457483752396,0.23185502028491342,0.3243383724128006,0.26992366047097893,0.2698338024819039,0.05904250970209335
0.576,0.1465257628660862,0.05077900365886696,-0.09574935353828189,-0.09706150744225282,0.12093618416237555,-0.023486126451963758,-0.02503388752092542,0.21634757910843522,0.3103729877758032,0.2621853466391701,0.26213704020396494,0.05428332222526409
0.578,0.16196246043661008,0.05935872712048477,-0.10305862377560791,-0.10962298037955712,0.13232424104484938,-0.02278088169181447,-0.038654526987973024,0.20833759694460602,0.30268109165195434,0.2547335834348094,0.2554718796041292,0.05333313129133817
0.58,0.17653065242966615,0.075462900465077,-0.10150989973635567,-0.12458429576406617,0.13865117290897544,-0.014296587536002344,-0.04783835528936458,0.20439843653756423,0.29970080250792336,0.2512977375335014,0.25366367528404543,0.056445445766517326
0.582,0.17676102234119564,0.07723220711983315,-0.09958224029909075,-0.12473002665591458,0.1378114423424865,-0.013037641365546832,-0.058540291480722054,0.19430917920057963,0.293283444108388,0.2489419365929317,0.2527418370256739,0.05791020835539267
0.584,0.16467144356430827,0.060899150505832014,-0.10358764113801648,-0.11003005501677394,0.13418719807887652,-0.02373756013482491,-0.07534641139236924,0.17326730280991204,0.27882357243128547,0.24233701875299687,0.24571216458975045,0.05477825130799668
0.586,0.15857521098217978,0.04480243151244779,-0.11376879594149045,-0.09910950016230582,0.13669675505870102,-0.03707258533087917,-0.09523608475298646,0.14696361134352198,0.25975296686059723,0.23150357040869388,0.2326183245405533,0.05173967793539932
0.588,0.17156367924711913,0.04638287958302469,-0.12555270789854406,-0.1070133919930241,0.14903953563565192,-0.04175444838618567,-0.11147571471005135,0.1234192503035629,0.24153226331340055,0.22182240825450922,0.22084734565382805,0.053540763941623826
0.59,0.19566071796158255,0.06398182139135748,-0.13217438280241142,-0.12846560972101842,0.1636866524957529,-0.03516825232117802,-0.12031569777315113,0.10586131776411231,0.22693236242258055,0.21754293933737165,0.21585633943718857,0.05913066897043522
0.592,0.20870837539141038,0.08013884366421474,-0.12873709316096363,-0.14307401539980832,0.1674618281971097,-0.024228294502937245,-0.12342604376056257,0.09389912244995663,0.2158138003416508,0.21741151575929324,0.2155908498556406,0.06525648807072518
0.594,0.19543000816768677,0.07981969253393098,-0.11534718290536149,-0.13552312541098346,0.15344623657771778,-0.01756740255062118,-0.12603975805424084,0.0855836107761861,0.20524000006551696,0.21611857842766397,0.21385902681044527,0.06980889979705841
0.596,0.16339622403919488,0.06503544136341657,-0.09806643888552706,-0.11127040174638539,0.12886647051750963,-0.0174049366413664,-0.13257607259905993,0.07724905709829905,0.19205595474163747,0.20892010555999627,0.20629061386152645,0.07104396330102675
0.598,0.13630247115928468,0.049049361925267584,-0.08721124417892086,-0.0896066846009566,0.11036757492027999,-0.02116730150301056,-0.14378401626856568,0.06491934933189873,0.17632664863435532,0.1949555426992671,0.19272180383335166,0.06737727936581561
0.6,0.12988587686532044,0.03939246441504434,-0.09038276351816694,-0.08233617168321089,0.1090032984278094,-0.02790130226587401,-0.15778218947655842,0.04739782095641502,0.1599033047332728,0.17725168750272163,0.17582487850773607,0.05876606923215598
0.602,0.1387783990560496,0.034378119172313835,-0.10381064906149848,-0.08548991903166576,0.1201915326627552,-0.03669247384778152,-0.17137667924893632,0.027972535820269023,0.14358678876431116,0.16078555532670882,0.15956308235557742,0.04840722862842513
0.604,0.14750069669516647,0.03244040641507303,-0.11416185687271585,-0.0897213706130228,0.1299460946132464,-0.042277648547454395,-0.18065248017690355,0.011872590945211309,0.12729852503141872,0.1496450641622617,0.14813688088850102,0.04168311591702496
0.606,0.14848454414683723,0.03439087262718986,-0.11339018865353202,-0.09089143980373253,0.130462803393426,-0.04061141572514415,-0.1842995052994344,0.0006794851186275627,0.11043678735708953,0.14420099139864528,0.14302439098799616,0.04083600853575635
0.608,0.14655872651311805,0.03902073748536796,-0.10728439304828291,-0.0910445386392177,0.1266159841354746,-0.035233559745459185,-0.18564409786123054,-0.008659822365242393,0.09265538212224209,0.14151487191059864,0.14137572237138293,0.043770509056504224
0.61,0.1484035858544175,0.043796553500106465,-0.1047594278459363,-0.09356195474941678,0.12614844212484647,-0.03160706007995561,-0.18817058167905462,-0.018569735996136656,0.07594358051786428,0.13842515938091146,0.13897101076176238,0.04903701894429321
0.612,0.15316521445693426,0.04720965479664283,-0.10637157642063544,-0.09808255739952224,0.1292237721348456,-0.030459918351762087,-0.1914173729566262,-0.028135834538958356,0.06258133314907156,0.1323389430482943,0.13271159369643912,0.05529203587250954
0.614,0.15616082064234968,0.04823976302428208,-0.1083720592625772,-0.10096150410060371,0.1317142677485634,-0.03059284611173972,-0.19334000001644763,-0.03572167506945297,0.05076974872642384,0.1210481719578971,0.12094382368669823,0.057698065100697714
0.616,0.15574238886983155,0.04651548490061989,-0.10945499374455704,-0.10012326150922789,0.1321940038200116,-0.032006182885076395,-0.19414693843885011,-0.041404217401254655,0.03740403900261112,0.10502086790770193,0.10476825434256143,0.05282419056373133
0.618,0.15207311547988517,0.04259094015357358,-0.10943058346356346,-0.09622887284208477,0.13077996275766135,-0.0342656650561027,-0.19636205662307063,-0.04698853751851892,0.023894990667923093,0.0882035027518059,0.08813794549802069,0.04379132800767205
0.62,0.14435819720942325,0.03641671251752394,-0.10779824278308425,-0.08945815858198464,0.126572720618397,-0.03678941731066595,-0.20178922031645524,-0.05431123151406067,0.01366440922088835,0.07476670179484211,0.07476282331387692,0.035674726463676386
0.622,0.1328681000523655,0.027159960138293485,-0.10565991746277623,-0.07896569468389315,0.11979828510879219,-0.040775338228545385,-0.20917298976292015,-0.06347184210071362,0.006046738128392358,0.06587830314356789,0.06519833404763059,0.030225289957339318
0.624,0.12103080870538634,0.016047237945847503,-0.10503534367103895,-0.06662371224897502,0.11313854184091758,-0.046911495033449525,-0.2149127918142604,-0.07312120473927208,-0.002054250595584566,0.06011917350946097,0.05780906599282959,0.027535502706217643
0.626,0.11304290379818849,0.007316950557264293,-0.10577688958999763,-0.05766177164207534,0.10885875567117634,-0.052448487921937806,-0.2157858434233251,-0.08157491583376984,-0.010462944072770663,0.05641683679585585,0.052611798738684414,0.028334540356436264
0.628,0.10980797091261679,0.003991819971689078,-0.10581263195078955,-0.05498248219972678,0.10643872302690979,-0.053981307685439704,-0.21179502077301093,-0.08744227594531799,-0.016327464636701716,0.05482145287175771,0.05141346016951784,0.03197217859080585
0.63,0.10882253478291057,0.004347695526124634,-0.10444551756725691,-0.055636635604937645,0.1043801532767756,-0.05194581922135616,-0.20649590682619,-0.09094244357175157,-0.019145628140756862,0.05384311247830416,0.05271549550307039,0.035131019802854754
0.632,0.10822459255918884,0.004487911294116061,-0.10372459799319331,-0.055365332095679114,0.10317054444546378,-0.05016889199854766,-0.20351735868945903,-0.09406747603627685,-0.02204593613247926,0.04959333114857257,0.05047047516919391,0.03502793872704458
0.634,0.10941626772430695,0.0035110439285589295,-0.10591543403047413,-0.054524367486926066,0.10487524833674645,-0.05121400281508061,-0.20318149373605246,-0.09756526393278633,-0.028737325924201248,0.03994588758586223,0.040900792669864565,0.032368553057193786
0.636,0.11338726675485378,0.0035886449900572608,-0.1097881461119297,-0.05605505775866939,0.10913295149427112,-0.05362827432471468,-0.20349914738478697,-0.09986068580074242,-0.04025579812630729,0.027995773739353164,0.02754399253742513,0.02937920620565912
0.638,0.11510398469209195,0.004264494733880497,-0.11070807812342609,-0.058064843930781825,0.11087573838102367,-0.054656044773543536,-0.20331316276529296,-0.10050000074067751,-0.053860427711735576,0.018580131808753394,0.016753316492961103,0.026238267978088033
0.64,0.10675255273950468,0.001723404588330118,-0.1046954280031262,-0.054098562355420834,0.10428007582342011,-0.053237796343103494,-0.20252342480495175,-0.10088136938960465,-0.06457360380804332,0.012957303477672655,0.01097840444978777,0.022134253969282088
0.642,0.08815464132174912,-0.00480875746975468,-0.09253783658121234,-0.042311251516046075,0.08951789530310195,-0.04999057191051531,-0.2008462326144343,-0.10162849975176791,-0.06891071462822361,0.008825452031099208,0.00783532540603898,0.01820451472039927
0.644,0.06911493944513761,-0.012346427080641882,-0.08120785207150881,-0.028508636680605,0.07450632618382137,-0.04787384537125607,-0.19886450467581618,-0.10342863926179885,-0.0683381022628547,0.002787810427446677,0.0023485913064829264,0.01577249437206484
0.646,0.05809472517484465,-0.019404579029291033,-0.07754949877162201,-0.01839627130328237,0.06678981186214548,-0.05029004717743772,-0.19793522852411063,-0.10797754104549681,-0.06793023373307645,-0.007089351711360735,-0.008769936251197596,0.014309480833090719
0.648,0.053265587816704374,-0.02511362688541602,-0.07865645436512252,-0.012715356816948615,0.06435728367612892,-0.0547437933513634,-0.1967636630372573,-0.11536995312698733,-0.0702597515200933,-0.017723482910315762,-0.021328770352018758,0.013985340143722456
0.65,0.0517723163395665,-0.024873349603191337,-0.0770130131167677,-0.012679250163381402,0.0622802379522528,-0.05411239158147205,-0.19131883892383528,-0.12417200357092383,-0.07280838465366353,-0.022691418231077773,-0.026334552626282155,0.016231053973942033
0.652,0.05967380559004006,-0.015554562803413058,-0.07545087497324258,-0.02192342650495035,0.06518256190751848,-0.04795962166639618,-0.18101352045963534,-0.13379347960046953,-0.07388352490288351,-0.02108007545232041,-0.0224285614550359,0.019736699105256626
0.654,0.07937923461402814,-0.0047996555573314,-0.08389773297080388,-0.036883532329720976,0.07957704690330716,-0.04558580191768008,-0.17151198104755042,-0.14299629880678652,-0.07745864796055962,-0.02067285553109286,-0.019884138401796644,0.020026637120120604
0.656,0.09784737557763527,-0.004604261354894901,-0.10152110057676461,-0.045319290772872736,0.09854224167190576,-0.05335357800252176,-0.16778846897640134,-0.14850564345282266,-0.08701790127971545,-0.02841557262052591,-0.02789939860496953,0.015043097928997447
0.658,0.10164231097267049,-0.014886372739740139,-0.11527567273240943,-0.04136726314191485,0.10804623192376177,-0.06523082539963529,-0.16814028246364793,-0.1486716804380477,-0.09824742507590409,-0.041309905671846135,-0.042932696973987085,0.007857984375801657
0.66,0.09268843688755105,-0.02386296720141508,-0.11552332882075007,-0.032123175638816025,0.10349869789720764,-0.07035746514493697,-0.1688462135389054,-0.1462526171897975,-0.10436489481913426,-0.050589415179281456,-0.05392294524995101,0.0025489289902393304
0.662,0.08059669785813975,-0.023380613366653608,-0.10350777458552649,-0.026260071881546727,0.09069559824798473,-0.06460263769653464,-0.17067528799669196,-0.1455794690552539,-0.10561684426299901,-0.05227844472418953,-0.05553161166284835,0.0006416633025581711
0.664,0.0711135899618776,-0.015513574969677854,-0.08665023748631077,-0.025434046788649047,0.07697279708837902,-0.052153400161193124,-0.17640140329227882,-0.1484728395251912,-0.10750009622986542,-0.0502290364178993,-0.05217995734314242,0.0017138456530778326
0.666,0.06572535663373537,-0.0082290899742416,-0.07414410368257629,-0.02632740478684453,0.06772520656895169,-0.041631749624677944,-0.1845127684426885,-0.1532822337170501,-0.1126503232320257,-0.050120245601611366,-0.051073145374146194,0.004306370624086833
0.668,0.06272673817960461,-0.009706716890571614,-0.0725166227108851,-0.024009409955987136,0.0651421543490008,-0.041035805369559045,-0.18975485332372505,-0.15685952317686766,-0.11919981113029585,-0.05361805151993265,-0.05476833652250201,0.006576350539777038
0.67,0.05818903854718803,-0.021536930651024522,-0.07969468856938393,-0.015796490493448386,0.06646621480400357,-0.05077320446979877,-0.18925710706038415,-0.15741463720730786,-0.12403743375926397,-0.05892818683910431,-0.06066025573353674,0.007622642107240989
0.672,0.05154714300118547,-0.035294146691607145,-0.08690459524089655,-0.005725090732855667,0.0674585038263196,-0.06217311762093197,-0.18475353286131888,-0.15515113971819613,-0.1245495211379736,-0.06403042059117077,-0.06546298542898107,0.008071816503520672
0.674,0.04612262465567623,-0.04081464687546062,-0.08726081614449666,-0.0007111829636621729,0.06614466259763856,-0.06592881727385808,-0.17847855763512466,-0.15007908411575635,-0.11968935433328036,-0.06753057904992939,-0.06816430410200086,0.009632145612439677
0.676,0.042496389372354774,-0.037378509083315054,-0.08033224676477077,-0.001488763758371026,0.061594514354623674,-0.060921072603345436,-0.17073228456932235,-0.1420009317538745,-0.11132257797602793,-0.06942728694725328,-0.06975715952012752,0.012778119699053314
0.678,0.03991658295776103,-0.03164611936336776,-0.07183682609943232,-0.00402374592234378,0.055416472336837615,-0.053757794518029006,-0.163306730849763,-0.13380658340659962,-0.10392546468677852,-0.0722478273242263,-0.07232960001727806,0.013783012919924148
0.68,0.04186695036809059,-0.027360444860898617,-0.06919166154766944,-0.007574707263251959,0.05348634048095075,-0.05066320386925548,-0.16009066477517356,-0.13014246844559427,-0.10235619701489329,-0.07775454079736012,-0.07707048039437862,0.008434717542527458
0.682,0.05060596927339707,-0.022984713980430276,-0.0734299647972072,-0.013737141894428971,0.058984052033062284,-0.05118136972656486,-0.16071018407211152,-0.13107382605233178,-0.10850836059474428,-0.08302880882771628,-0.08179979888104927,0.0006006128725252575
0.684,0.06074343259866021,-0.017873020665082926,-0.07855160570758486,-0.020500419571666137,0.0671272826215769,-0.05130838093131603,-0.15888569200141112,-0.13213776013321551,-0.11905230478420835,-0.08411037632830357,-0.08279974833500536,-0.0003182175468957977
0.686,0.06431809867135704,-0.016479168257902552,-0.08085075931130854,-0.022371760164073974,0.07133234720464966,-0.05126301646302497,-0.15060510299898242,-0.13124455885598738,-0.12795991823714042,-0.08198480414992874,-0.08008484051003202,0.007115201870015442
0.688,0.058136605952671117,-0.0239608531523693,-0.0821582835084524,-0.01558510734646947,0.06970477703250459,-0.054936849203622934,-0.13958022696416447,-0.13044200208027343,-0.13211790368263096,-0.08117209509305172,-0.07853302338466463,0.014010419021709958
0.69,0.045037691797302305,-0.037976585444428515,-0.08301452485655103,-0.0025495086106601273,0.06366714479086887,-0.06187044455381894,-0.13246084828183985,-0.13122611233109824,-0.13332570494721174,-0.08441915110098352,-0.08274314176420935,0.013801656184456019
0.692,0.032031263897118786,-0.049088352070075184,-0.08108669172540268,0.009129940244059727,0.05602563669182013,-0.06650285767008447,-0.131547577025056,-0.13243710862264743,-0.13541605005090326,-0.09101636003488858,-0.09177158442674202,0.00910871718281997
0.694,0.025724462420889764,-0.051745292080003065,-0.07745389535224184,0.013944265696687696,0.05106779768734227,-0.06659654209565963,-0.13336568349372083,-0.13255823273126432,-0.14076426117544377,-0.09823821844781899,-0.10023015540613327,0.005308606010790985
0.696,0.025100630653210818,-0.05227826115241312,-0.07738926534249148,0.015304534936454353,0.05088375427366076,-0.06743129943849188,-0.1332214995474681,-0.13144155987728634,-0.14849098686061263,-0.1040897677610808,-0.1050511287381322,0.0036158771175587657
0.698,0.022601285294268126,-0.0604069936640306,-0.08299994214048019,0.020932140023715476,0.05235350248640295,-0.07435682200544035,-0.1299777884531992,-0.12993680072192418,-0.15512650040947842,-0.10927943679791123,-0.10884491397488881,0.001742485753158109
0.7,0.01620712475424562,-0.07278298797123874,-0.08883769375047684,0.029919834342292694,0.05174989284285867,-0.08284121201218872,-0.125890692716141,-0.12891411407328174,-0.15763299403033335,-0.11462726945202562,-0.11447815943183491,-0.0019268716734547914
0.702,0.012654351514251358,-0.07512235889902184,-0.08728901302896999,0.03253953376856881,0.04902080250012606,-0.08218820251524044,-0.12277979339782977,-0.1282823967535864,-0.15561621069195677,-0.11810818093512838,-0.11974960120312025,-0.006744854749710298
0.704,0.015312860115660392,-0.06317692683196592,-0.0776046362293412,0.025659073395008853,0.04547748304412063,-0.07057879110069658,-0.1194284312100725,-0.12710303576659987,-0.15075909527969522,-0.11809504739526137,-0.12125074934454028,-0.011459011987174918
0.706,0.018534417395208554,-0.049962917580710066,-0.06747184279106032,0.018334934250215262,0.04183186110840965,-0.05900226911820039,-0.11319672173580406,-0.12554786783960908,-0.14540295044126855,-0.11701528566663,-0.12017317585819032,-0.015909496979947316
0.708,0.016784251508389022,-0.04841489432006309,-0.06444033801156139,0.01899220590343416,0.03898641919303986,-0.057257450307905175,-0.1042924989134017,-0.12578459703549955,-0.14145905633196473,-0.11797967967670302,-0.11987058436372454,-0.021127585482345168
0.71,0.010530056342507931,-0.0565579631429445,-0.06683013941970475,0.026008410395936078,0.036554409044882094,-0.06247286770719628,-0.09631442720427316,-0.1286711762091458,-0.13908069893973107,-0.11986905254156731,-0.12035016808403073,-0.027320917693034238
0.712,0.0024835386845625082,-0.0641151155723951,-0.06684603980331576,0.03309835711766797,0.03248311847591072,-0.06559491622496923,-0.09143461463277668,-0.13058859836043815,-0.1367441193164252,-0.11953743426079966,-0.11971598169866293,-0.03222418437146999
0.714,-0.00406641496918294,-0.06607882043487924,-0.06253755059176402,0.036523877561458425,0.02771456189120842,-0.06416188286401166,-0.08823193812206373,-0.1271753935846489,-0.13401977263745482,-0.1179728984821439,-0.1191923372779444,-0.0343537016855471
0.716,-0.007063623953600926,-0.06571036403398044,-0.05898418875354729,0.03730495533848319,0.025219449971182875,-0.06288503427497662,-0.08523042077745746,-0.11961577170052469,-0.13282874120610372,-0.11988792845840451,-0.12202382586665257,-0.03656749337322337
0.718,-0.011117591914756619,-0.06892046608591157,-0.057651899278465944,0.04098355859109084,0.022472043176936095,-0.06477014729486251,-0.08332776372638433,-0.11393905858607244,-0.13485412220687212,-0.12692031929685296,-0.12853231043654129,-0.04267863590320135
0.72,-0.021271531402572038,-0.07618234491730472,-0.054540099416438614,0.05027588032221311,0.015051400203856143,-0.06711683653765987,-0.08348157779089993,-0.1139888373511587,-0.13916461755084336,-0.13472918020006397,-0.13535237132086822,-0.05127956916084209
0.722,-0.03092056256103824,-0.07995791285593742,-0.048981646407610456,0.05771514011093909,0.0070613545285414985,-0.06584640555471807,-0.08396924942746187,-0.1171561593657679,-0.1428793413448364,-0.13758200886378186,-0.13850262937054572,-0.05590284467623826
0.724,-0.028972370333346244,-0.0755838208221604,-0.04704705267473331,0.05473616303065941,0.007573831438422038,-0.06228583544670672,-0.08199758789524722,-0.118727503151242,-0.14487148414584458,-0.1352748250446825,-0.13750991881177174,-0.05334364905187877
0.726,-0.016445191935693704,-0.07059025087383625,-0.054725268149491885,0.04520120701139054,0.018316295757522125,-0.06354959548330491,-0.07740370916082667,-0.11874370603477376,-0.14846112926210478,-0.13410363225447858,-0.13681139468907988,-0.04907601769301585
0.728,-0.005572423167215464,-0.07412762040373674,-0.06883036715540668,0.0405021611795223,0.03082601530617848,-0.07270954610941843,-0.07286296776967602,-0.1207970196311406,-0.15709223515781948,-0.13891047258378825,-0.14014521522936332,-0.04992964789867903
0.73,-0.004163103291755925,-0.08211560429705489,-0.07782891099534271,0.043745155463132936,0.035558104247247584,-0.08170973139738132,-0.07009573683688095,-0.12503455601811436,-0.16766200479485358,-0.14643115941514845,-0.14512086399529905,-0.0543985397024295
0.732,-0.006544536253927276,-0.08152093259676771,-0.07465206484243093,0.045615021676699966,0.0322390821428978,-0.07989443395163764,-0.06684026630410307,-0.12652905763270378,-0.17228267413297146,-0.14910615209680517,-0.14641147868587603,-0.05523220600846444
0.734,-0.002935725485630732,-0.06754700682117658,-0.0642613326139993,0.03756450443704861,0.02835626906486667,-0.06721446401663468,-0.05968634810013757,-0.12150286966524437,-0.16730629524565843,-0.1438561792586171,-0.1421298099913755,-0.049953941173479184
0.736,0.003864239985638506,-0.051838192086627176,-0.05549196711375192,0.026056496818421385,0.02700492856661937,-0.05455179175347881,-0.050255220303870744,-0.11299380934630927,-0.1577768296322852,-0.13586940116557264,-0.13606987270363052,-0.044844764322722316
0.738,-0.00026679245179295696,-0.051852360448208436,-0.05172021751051895,0.027363983148485975,0.023070215383506176,-0.05271494930273202,-0.04495346358153588,-0.10820776910516998,-0.15207604842845876,-0.13360545993903672,-0.13460267342725277,-0.04763787693552022
0.74,-0.020144566212793924,-0.07159687322198101,-0.05188685521313904,0.046582110854413904,0.013727048725275342,-0.06269960641264957,-0.04683179895347285,-0.1102666904011583,-0.15375102761626072,-0.13934694336518036,-0.13975209153831145,-0.057891259728861055
0.742,-0.041955170492611195,-0.09529118398495809,-0.05369668858439492,0.0689640132806572,0.004385520288711793,-0.07512351556900265,-0.05139928576894828,-0.11523159497507124,-0.15875418049489465,-0.1462726758531339,-0.14593975472859363,-0.06718722705056726
0.744,-0.04927315685681801,-0.1033953552191147,-0.05416975256118237,0.07638707761583545,0.0011329669612369718,-0.07929367036397611,-0.05288028571592487,-0.1182557119252466,-0.16030499170522997,-0.147020661912883,-0.1466416228521873,-0.06928748645199853
0.746,-0.04058855755766643,-0.09268427464586365,-0.05205158016347829,0.06683879174052498,0.003947466676819261,-0.07333600818010716,-0.050771257253244446,-0.11883873127263125,-0.15659847926908368,-0.14216440174686365,-0.1420533774912861,-0.06565613894490181
0.748,-0.028425844231444775,-0.07702934302597075,-0.04882565491725556,0.05385334892400286,0.008041190710021899,-0.06435359449471979,-0.04786948175323203,-0.11821329700532593,-0.15171455982006946,-0.1370395052730146,-0.13658831473024785,-0.05955410837805732
0.75,-0.026183990701601496,-0.07056070206239695,-0.04484115970441876,0.05053655837926522,0.007474726200331102,-0.05923404215073199,-0.04517521053212458,-0.11558466411188081,-0.14837979585318364,-0.13345069802491313,-0.1319123964133143,-0.051267270284193756
0.752,-0.035187445830197214,-0.07334384844947484,-0.038511049997702794,0.05655170982547865,0.0002148225020412355,-0.057569267565904275,-0.04068860903499842,-0.11003834836899395,-0.1446820565833432,-0.12874581774239385,-0.1265679915402142,-0.04191813208765148
0.754,-0.043929017411232014,-0.07487676270385586,-0.031067796853085982,0.06095908269914336,-0.008226308301819632,-0.05484054581516391,-0.03319495398728876,-0.10466696467856976,-0.1398668530484393,-0.12233373248855142,-0.12108089909369744,-0.03645467464551449
0.756,-0.04238527050204668,-0.0703838743547374,-0.02814516657869685,0.05730446582241862,-0.009786651066569205,-0.051190776347357386,-0.02691535210901315,-0.10493316463553432,-0.13747537931989667,-0.11884844815319316,-0.1196282394279104,-0.03945472143506676
0.758,-0.033638306008450226,-0.06761790030874001,-0.0343143830655941,0.05158482758494544,-0.002727991011832228,-0.05262166521941036,-0.02853355214646273,-0.11153053426037358,-0.13983619218037044,-0.12248583455063913,-0.12489573866189818,-0.050017805985241665
0.76,-0.029532520360018473,-0.07474342816874129,-0.04551994178248095,0.0537081458621617,0.005479957872115012,-0.061288280712318406,-0.037656003319578316,-0.11825808907820645,-0.14366259266658532,-0.130431072581334,-0.13299362029879694,-0.06226308840983364
0.762,-0.03780394774256613,-0.08751953373111267,-0.04976326542105761,0.06491140393438606,0.0044240571553817495,-0.0693929810989983,-0.04507049644277718,-0.11877046107056952,-0.14305795948876582,-0.1345791764330293,-0.13627023417436998,-0.0698714718753368
0.764,-0.053424919259718075,-0.09415279641341333,-0.04058831193505906,0.0761873786179078,-0.007618116970005063,-0.0680675410435332,-0.043414775415358195,-0.1134273642749264,-0.1356910585022026,-0.1302361279111375,-0.13166319610866087,-0.07044560381949974
0.766,-0.06342113677136214,-0.0908177882904432,-0.02729653351190299,0.07889958779043005,-0.019816070197930868,-0.059932761892669106,-0.03586208979865795,-0.10898405683549686,-0.125800204387992,-0.1221299185850576,-0.12492381572883146,-0.06695115872762562
0.768,-0.06128270877433564,-0.08593074583785076,-0.024695082135240683,0.07426785440338424,-0.02058074741393624,-0.05626972914120444,-0.03135294829081918,-0.1114179960827456,-0.11965646830004549,-0.11935193075150717,-0.12451135250774409,-0.06444871284865727
0.77,-0.052755217892205726,-0.08802133494493458,-0.03544198872803189,0.0701101146239979,-0.010387639904113352,-0.062470258831420475,-0.03356217245038544,-0.11851116627922373,-0.11797609690302199,-0.1237757198532345,-0.13047996115970065,-0.06446122777493446
0.772,-0.044397868496088344,-0.09471368044666195,-0.0505303564377849,0.06934760529780727,0.002696930288310894,-0.07308217597277286,-0.03780883544948924,-0.12212268319148362,-0.11688082591850538,-0.1279084632276497,-0.1337206144244401,-0.06413432195935916
0.774,-0.03228486606897225,-0.09596433606009917,-0.06374732725546517,0.06519639946875858,0.01613156769782097,-0.08046251121692131,-0.03881083002009473,-0.11883126713351394,-0.11586151554567925,-0.12646407815079563,-0.1293354522627796,-0.06171427822971404
0.776,-0.01321400771078744,-0.08716599717044961,-0.07376181060988034,0.052757839858524946,0.03010005591700693,-0.08166903237402001,-0.03726133690901826,-0.11341591661683936,-0.11718444211743166,-0.12316228325285808,-0.1236958938757977,-0.0590141772380409
0.778,-0.0027075154925328884,-0.07648352354774722,-0.073498648791889,0.042465920344469076,0.034035650209942564,-0.07684600198512805,-0.035554651466541125,-0.10983535834649749,-0.11698107907672642,-0.12162132534380211,-0.12277409409080825,-0.056821347773577426
0.78,-0.020375803963989397,-0.07529809121685382,-0.05481661253822436,0.04947622819233204,0.015085113143716024,-0.06739488882989537,-0.032469768795266966,-0.10570961709944124,-0.10785160664848835,-0.1184016677850086,-0.12229910264084166,-0.05332012350788439
0.782,-0.05629318968407543,-0.08359328670123688,-0.027387475591400874,0.0699518602040179,-0.016774364072722616,-0.05813475807463777,-0.027468151674751716,-0.09938682319596646,-0.09253587049621584,-0.11085658431460675,-0.11626909098584585,-0.04912169831371023
0.784,-0.0761312836850013,-0.09110246207148469,-0.015074931703291012,0.0830730021710791,-0.03266381704526538,-0.05575158478566672,-0.024519796968953938,-0.09490819625582358,-0.08335605388728028,-0.10302215355544235,-0.10693074821529368,-0.04762277368812069
0.786,-0.06404772924576152,-0.09127297275614792,-0.02723024282595921,0.07801871015495825,-0.020134693629110054,-0.06144773604326172,-0.026562915509103203,-0.09565904171154482,-0.08597778000349977,-0.09901758248711852,-0.10082444523520356,-0.04854661824115149
0.788,-0.0406456148777984,-0.08701543972661951,-0.04629415353455345,0.06549914286399686,0.0013876994195690011,-0.06809417250183382,-0.030606488312279013,-0.09873582722905525,-0.09325422133041343,-0.09791089142824949,-0.10062729134564402,-0.04702629932326006
0.79,-0.03467336749629864,-0.08448843676921812,-0.04965512390157832,0.06172555290727365,0.006002303209843317,-0.06822048050961194,-0.0319831692029405,-0.09886531909902004,-0.09614315637380288,-0.09783769313034164,-0.10365608513215507,-0.04063732932635586
0.792,-0.05017766392911376,-0.08724638413267628,-0.03675680033507893,0.07041942506075843,-0.008330715222541042,-0.06366324363030268,-0.030155449172524832,-0.09484845599746689,-0.09420320764120063,-0.09911321049398628,-0.10548726624973995,-0.032700850310748125
0.794,-0.06577021407152642,-0.09325883695397498,-0.027089023624613427,0.08072721457108445,-0.021081352501749678,-0.06227410074914622,-0.026889726525191292,-0.08916456405580678,-0.09310148157572723,-0.10069973131174655,-0.10339141730447172,-0.026995123731589393
0.796,-0.062024519318205296,-0.09577671717060306,-0.033499199750648294,0.08014397819350118,-0.01631575067790952,-0.06607777697496416,-0.02246376828956037,-0.08337486721172145,-0.09522923546731557,-0.0990958805716821,-0.09770451344828819,-0.023171074840054564
0.798,-0.0435938545578944,-0.09043192908209009,-0.046852414488617745,0.06853921375436628,-0.00060123458174924,-0.06868872766313101,-0.017968321068039084,-0.07827306514031064,-0.09730028342559628,-0.09402371209722561,-0.09187792599773346,-0.019756237489802837
0.8,-0.029804556809361508,-0.0785364087305623,-0.04887084835217608,0.05560015204178224,0.007838279109977305,-0.06292115354179532,-0.01678406958556413,-0.07625881790158083,-0.09621377533373203,-0.08996125126318821,-0.08970855565819426,-0.01762442084326234
0.802,-0.03030479040420138,-0.06412860920763215,-0.03388997072920206,0.04816197447867022,0.0009637767423357921,-0.04847964648333841,-0.01985614947353909,-0.07901830306405681,-0.0928423368150914,-0.0891509354452855,-0.09088482135794942,-0.017719400061326877
0.804,-0.038026680386741465,-0.05375461023895116,-0.01568691312160257,0.04660795047433297,-0.011921575024461622,-0.03503994663738777,-0.02396148646694486,-0.08513754749653428,-0.0900327118571712,-0.08846096606985226,-0.09163631184503533,-0.018820840227439312
0.806,-0.04127865898752059,-0.05468744923575151,-0.0133532118695655,0.04893385949910381,-0.015697466259158133,-0.035272389908861265,-0.026850099829070644,-0.09215250838158882,-0.0894827590182428,-0.085681597936639,-0.09042827917328605,-0.019392333305933842
0.808,-0.037823315364513964,-0.06756994722043146,-0.029742081564019075,0.05391533088855327,-0.00677639385871665,-0.0504819304563792,-0.029840363734124475,-0.09830896807565262,-0.09084765260697332,-0.08380603816932494,-0.08935551745615687,-0.02001754124528927
0.81,-0.036766672506294305,-0.08394490816633889,-0.04720624191253583,0.06168543792165622,0.0025810501337941,-0.0672063468709699,-0.0333769753300258,-0.10177229804781086,-0.09266330366101012,-0.08532001846653614,-0.08895190178598293,-0.022991061268393852
0.812,-0.04475969137428866,-0.09292218823315464,-0.04817835503425397,0.07021687745537925,0.00024511707485432043,-0.07150136725350209,-0.03400764459196456,-0.10070196873412762,-0.0935140806460786,-0.08620596428279881,-0.0859903494331202,-0.028373365635275358
0.814,-0.05435856421884738,-0.08906384221556034,-0.03467564824465807,0.07303386431745414,-0.010190406808039731,-0.06238099351333651,-0.02910352253170418,-0.09484880092388197,-0.09259253581329412,-0.08101255136471018,-0.07869598121049855,-0.03184894022073233
0.816,-0.05308322809503302,-0.07580806806202949,-0.022581203667011055,0.06565354083375596,-0.015507167532225393,-0.049706985469821455,-0.02176186145495839,-0.08613956563452638,-0.08964438365588426,-0.07162617006337056,-0.07105152483302866,-0.029889114777705488
0.818,-0.04125752361527211,-0.06369017623011487,-0.02210354522575969,0.05365104998146074,-0.010341243998828067,-0.043659048842607094,-0.01754254269059919,-0.07805337477909444,-0.084817333972425,-0.06572313132489564,-0.06918233956092397,-0.025342063109727357
0.82,-0.03148347259694274,-0.06117029220347437,-0.029270130641574035,0.047484338711652405,-0.0018753016378332038,-0.046361284726945076,-0.01795161186209703,-0.07394085483289992,-0.07855287445367405,-0.06706939598333367,-0.07360795451167503,-0.023877393036896212
0.822,-0.030012747886530095,-0.06392239085706272,-0.03365784927318001,0.04785622821702875,0.0017218297268938576,-0.050091908714763544,-0.019433477383051213,-0.07372077422415832,-0.071468770042634,-0.07090792688478993,-0.07730580140632591,-0.026218226308801756
0.824,-0.03091085787237824,-0.06037340219571417,-0.02948677891706177,0.04594539895036419,-0.00028960272828114,-0.04571779592429352,-0.017980481715054727,-0.07364149843906627,-0.06485118111450149,-0.07008681623393154,-0.07370116763973708,-0.027902811533441516
0.826,-0.030422915523009072,-0.04987905427403644,-0.01959920330936795,0.03991431746610782,-0.005222122779384915,-0.03463137263901025,-0.013675518146229141,-0.07222172103401403,-0.06133806001729898,-0.06419686517105679,-0.06497919182310018,-0.026322980447206868
0.828,-0.031558811328977275,-0.04453090426938598,-0.013056728532465521,0.03775522627542939,-0.0099202322265828,-0.028491715380809985,-0.010779767644345324,-0.07326530017203353,-0.06365212467602145,-0.05991139196130072,-0.0594948673125694,-0.02414179967338078
0.83,-0.0331148199981949,-0.05152733428868075,-0.018498942821689582,0.04240729264559656,-0.008962643738908246,-0.03585949987238336,-0.012713778011734582,-0.07913406848988112,-0.07102400848365409,-0.06181486895394693,-0.06151114972381473,-0.024695108201901753
0.832,-0.029923997908570248,-0.06482705959054853,-0.03517493962574266,0.0478358217900539,0.0002897535998708582,-0.05247359249030367,-0.017161071749035996,-0.08511338825353165,-0.07798738276704081,-0.06660029485750506,-0.06667919927418413,-0.026790618025204736
0.834,-0.024670919545467095,-0.07599247049928096,-0.051741735870307275,0.050992069710321164,0.011023777613117585,-0.06673260183364783,-0.018893367957840183,-0.08541100304132936,-0.07951576487482526,-0.06908782529291385,-0.0691444672990239,-0.026593377128835437
0.836,-0.026472357686740406,-0.08356208775575455,-0.057374274043822976,0.055830981786615844,0.013316816303967749,-0.07195610003056244,-0.016851088012259062,-0.08102944810105045,-0.07646271189797886,-0.06955981038772759,-0.06903775806780972,-0.023458451355792678
0.838,-0.03736724093280326,-0.08872586788446014,-0.05134812552554078,0.06401747603660422,0.005686090364780214,-0.06986651689703643,-0.014073924775141407,-0.07688518927888467,-0.07331448023583223,-0.07009092719992215,-0.0691201993630207,-0.02084635867579172
0.84,-0.048837172236478946,-0.08990488015317205,-0.040913349327519534,0.07058483969371315,-0.004556353742349418,-0.06501784527054294,-0.012206700962770024,-0.07482995538051446,-0.07231723332532235,-0.06865252860262107,-0.06865293042838336,-0.0217027534052575
0.842,-0.051211612629169796,-0.08556736963542665,-0.03428017876167814,0.07009281584965577,-0.00928527313827296,-0.06059178529126892,-0.010823514731864768,-0.07375611153956249,-0.07225190343421634,-0.0630357651780732,-0.06520047296743556,-0.02532883090542822
0.844,-0.0426233145465027,-0.07780464766200336,-0.03524817005532792,0.06236259445118489,-0.0056263052668810865,-0.05818939711874558,-0.010123490970786393,-0.07347907724133733,-0.07153107785150002,-0.05645020656109651,-0.05958275796753412,-0.029291574154908424
0.846,-0.029911606653892808,-0.07050724384513643,-0.04078952813155069,0.052080057769075865,0.0025726230312071476,-0.05778249718691148,-0.010345057597043471,-0.07474674222187845,-0.07006879311701816,-0.054163522621801165,-0.05579268080853965,-0.03253256619555686
0.848,-0.02233395703965663,-0.06616607363046106,-0.04416530998581922,0.04511626553958614,0.008068711879918162,-0.057648971315386995,-0.010448182129648145,-0.07680038308412163,-0.0678443261431569,-0.05697773246746526,-0.05644547911468704,-0.03511778580846688
0.85,-0.024452078987684048,-0.06594296596360155,-0.04188225231990597,0.04534453301558316,0.006446026447511104,-0.056457547146315346,-0.010086592743722584,-0.07779795820553312,-0.0640516292425176,-0.061357713134080435,-0.060216364935840094,-0.03707249450984918
0.852,-0.03360884545216862,-0.06970062627480432,-0.03635119044189714,0.052062399895342434,-0.00043026284190273784,-0.05481544955868478,-0.01021651576577894,-0.07674093847448181,-0.05903346674296767,-0.06425391186871167,-0.06417263517955901,-0.0386497883190695
0.854,-0.04303794960364773,-0.07420272285480191,-0.03127881355229659,0.05958924778638281,-0.0074437015580320525,-0.053446716797513144,-0.01026520128274594,-0.073402775256819,-0.05508095119157923,-0.06509675974390264,-0.06709309466940404,-0.039751400518797525
0.856,-0.04753972032671685,-0.07573233731968104,-0.02838810550552352,0.06252632510041979,-0.010997264851007157,-0.05247928436092225,-0.008940995337320498,-0.0687913278110568,-0.05433423728875741,-0.06500890813245397,-0.0699825916815938,-0.04024392925497546
0.858,-0.046448661535825615,-0.0748313332159371,-0.028744101442366304,0.06119627517669471,-0.010192756205015837,-0.05277234518501554,-0.007790061363563384,-0.06557619534942954,-0.05645388182788255,-0.06605974429427319,-0.07349371475676465,-0.04161342292830928
0.86,-0.043199727343688876,-0.07432161323802912,-0.0314169649045849,0.059781676655471586,-0.00713510202620008,-0.05443336856255499,-0.008933171536751803,-0.06507992790025825,-0.05889389574675762,-0.06931799908227629,-0.07585767904019174,-0.045388219258362415
0.862,-0.04141645551098632,-0.07397400100433985,-0.03256208913184128,0.05992518007626222,-0.005357145062829992,-0.055215409358317626,-0.011103571205286438,-0.06629951197999182,-0.06064462272739328,-0.07316523843934139,-0.07538453977365231,-0.05068975005864675
0.864,-0.03939674328534856,-0.07025980190773985,-0.030589668983308636,0.05785838081390316,-0.004749435552720278,-0.05281857046918711,-0.012161079309173118,-0.06919189379316469,-0.06411988271331044,-0.07519551095539084,-0.07357473304623548,-0.05559825908887514
0.866,-0.032355751559465754,-0.06192266933235293,-0.02914974871290382,0.04972195319823127,-0.0014295781575778851,-0.04809962546392292,-0.012631384541917375,-0.07469760416401118,-0.07072834427344275,-0.07480979804346644,-0.072807820223203,-0.05919438630480529
0.868,-0.020792084287509213,-0.053397730563723995,-0.032236407120628696,0.038189150450363925,0.005884056003813738,-0.0448079105106209,-0.013531333392240507,-0.08141596048909021,-0.0772463355949005,-0.07293041937104999,-0.07275041188491314,-0.06115939169096421
0.87,-0.011994310989274344,-0.049191843332996366,-0.037137164152397616,0.030211040334092835,0.012122873453165069,-0.04417849907030801,-0.012933570798682533,-0.08529579304718901,-0.07915453326270531,-0.07064100184790306,-0.0717237143262417,-0.06094308860462711
0.872,-0.01360678573431616,-0.048672678106961416,-0.03545465579911749,0.030449630641105854,0.009640426817534064,-0.04236386280036928,-0.007936723400650741,-0.08296932366938942,-0.07555742840614481,-0.068567653227031,-0.06978995961033485,-0.05838147614846536
0.874,-0.02589149848494353,-0.050506507339835756,-0.02528658792201882,0.03849965745397205,-0.0023414889268750082,-0.03811095118596714,-0.0002826282918356592,-0.07573360082704093,-0.07033213199026422,-0.06754542276121418,-0.06892711911984666,-0.05505674647230662
0.876,-0.03831347596225833,-0.05547038252447605,-0.01778215128151488,0.048256323485663354,-0.012837706880460665,-0.03751239254835294,0.0032671528002860867,-0.06959960127090435,-0.06899306414208041,-0.06963253510044898,-0.07131636826388488,-0.054211384935807995
0.878,-0.03817363416061188,-0.06168638876114519,-0.023868896134707364,0.05120855227887272,-0.009680936736603642,-0.04467433367999688,-0.0010290771780560141,-0.06901855473515381,-0.07309869381755824,-0.07573683563665799,-0.07694874548685358,-0.05799829661551902
0.88,-0.02729122052749506,-0.06457354617807677,-0.03734961742807672,0.04627141476195536,0.0032295542099009525,-0.053278931502119,-0.007627116190822755,-0.07139982622765842,-0.07816703538834761,-0.08183243330623233,-0.08190660329544035,-0.06431507447676166
0.882,-0.02368882623580665,-0.06285360813301012,-0.0390774885409627,0.04318617917431834,0.0065050429376840415,-0.052831658631328104,-0.007283281249450271,-0.07019718409667192,-0.07811068446613553,-0.08136448661270534,-0.08076808335300832,-0.06730419213094455
0.884,-0.038435837439919754,-0.05879162480794114,-0.020279900320769362,0.04915977264694574,-0.010593395072482378,-0.04085142861940923,0.0016812598778488147,-0.06320770571255485,-0.07117555970042512,-0.07291359649565964,-0.07255032562857884,-0.06263369055105358
0.886,-0.057822744315316976,-0.054114387310926174,0.0037046688401994542,0.05724085469945944,-0.03313251884757755,-0.026628926982238402,0.011438720965634003,-0.05621354726125257,-0.061715262445594894,-0.06281524350325447,-0.06303877033215405,-0.05263319416262296
0.888,-0.0599667748106692,-0.04956231570110943,0.010342178265874793,0.05603359883781873,-0.037836417896553225,-0.021609885880330054,0.014566872206179879,-0.05618264702623749,-0.05608555897768233,-0.05800166648972469,-0.058899155754144145,-0.045058747151960045
0.89,-0.04254913669901949,-0.04488566861096351,-0.002485147534447754,0.0448306388849478,-0.022168619340517278,-0.025901432123550176,0.01226567849169436,-0.061739915004651376,-0.05636740807266002,-0.05830315009853207,-0.06041040310669544,-0.04682653152373796
0.892,-0.022878631925856308,-0.03929888362671321,-0.016712368465090343,0.03269606704565421,-0.004422747543814231,-0.029774523090024846,0.010606690131824578,-0.06541661397819373,-0.05946225277052445,-0.0594209815858046,-0.06326637426457232,-0.05921573193733006
0.894,-0.015787943393558705,-0.03594497712596322,-0.02043263049902452,0.028267826551236025,0.0014595028982840154,-0.02955465591857519,0.01121854390364044,-0.06473110228927566,-0.06279082871883344,-0.06191949387796434,-0.06693596925514132,-0.07757540980852136
0.896,-0.02033043940382013,-0.041115389726475084,-0.020712863737936776,0.03326417316837762,-0.00063243525876702,-0.03264618893143693,0.009677353785312941,-0.06441171036972088,-0.06796302973388832,-0.0709828909501422,-0.0755086328867034,-0.0947759394522729
0.898,-0.02620370771507649,-0.054938554424350514,-0.028273074089467807,0.042334076440674745,-0.00017929651566585183,-0.044153223306406066,0.0037026700343018902,-0.06736604091265351,-0.0767327698398814,-0.08561282532316021,-0.08809388466318623,-0.10567714897944518
0.9,-0.027125166257468962,-0.06803980320501644,-0.04038612572675363,0.048440109789294604,0.004865110285486958,-0.05714742168159564,-0.0014952351220150627,-0.06962604947972187,-0.08599904699039164,-0.09533707876433,-0.09554500200626052,-0.10946255371362917
0.902,-0.025732097550300335,-0.07133041716240801,-0.045230728037690716,0.04922615016343841,0.007802861721713159,-0.06099459844170477,5.5202001592632755e-05,-0.06664443783749426,-0.08987562544983818,-0.09267920992975287,-0.0919215122133975,-0.10907559362926866
0.904,-0.027559816654818242,-0.0669590832217575,-0.039165072132232366,0.04835736080527746,0.004064923903185991,-0.05557241381907579,0.006708683345817038,-0.06061255699963564,-0.08524041401991066,-0.08274032168359013,-0.08285172543308451,-0.10806286006089307
0.906,-0.034179430294387025,-0.06577314226590003,-0.03143562206237522,0.051324217992237214,-0.002907743580197373,-0.05131237888656895,0.013004013977933906,-0.0572364051759441,-0.07363778839103602,-0.07524538674222273,-0.07704552429153291,-0.10678928190858912
0.908,-0.04319613535977778,-0.07390034026752271,-0.03055639603958152,0.059998438382983424,-0.007642796719573981,-0.055133692041697574,0.01822494264236037,-0.05711958276896905,-0.059826399670810056,-0.07285387930191085,-0.07543787934875329,-0.10289187933437115
0.91,-0.050344838727260255,-0.08497357064585409,-0.03436207909831207,0.06958005445936441,-0.008987136957877175,-0.06220713074152023,0.024624381596938947,-0.055905425938031265,-0.049585490650644166,-0.07249656978493024,-0.07451618063764422,-0.09592749028185882
0.912,-0.05094638840353473,-0.08770534543819195,-0.036381579148599644,0.07202283173697692,-0.008165240085580337,-0.06377544807083742,0.03010058753154806,-0.05270738424550081,-0.04660789920606303,-0.0736399453319813,-0.07510444594323705,-0.08918600731290868
0.914,-0.04591966314057003,-0.08130019406412559,-0.03511650163898119,0.06666244554322692,-0.006594141641776462,-0.05933388263621128,0.02977902574778455,-0.051900434051375566,-0.04978990448563415,-0.0785317895412136,-0.0805626618916301,-0.08599747523287983
0.916,-0.04329010349959159,-0.07777437044137478,-0.03445936947239125,0.0629795816462627,-0.006137463321376214,-0.05709442168333194,0.023964034374095736,-0.05504197530947035,-0.054150523194539994,-0.08535329947445351,-0.0886354467874859,-0.08572301532595623
0.918,-0.0455944322013864,-0.08503935763370274,-0.03944999484946464,0.06654383286152173,-0.0052900120472379065,-0.06326636784897535,0.019023434267345336,-0.05716314461104365,-0.055071101093657315,-0.08776531993299867,-0.09180531374795153,-0.08416035014084233
0.92,-0.04465784737301528,-0.09618091512533256,-0.051269850836059144,0.07074949925302809,0.000778514669663506,-0.07489569386756983,0.019727778459505085,-0.05381050055608278,-0.051750549275321196,-0.08295403102246324,-0.08657697324780993,-0.07804872862972616
0.922,-0.03763991456399411,-0.09990332794177562,-0.06180505991197725,0.06895549040713977,0.00945408543513573,-0.08249110922512395,0.023325289810501196,-0.04773422815102233,-0.047343939712235064,-0.0758847554856138,-0.07844386937342265,-0.0694428454233595
0.924,-0.03451821627742064,-0.09365362989621419,-0.05882243580543729,0.06451106446899507,0.009534711226306314,-0.07846895143353373,0.02294347916432152,-0.04591209896267785,-0.04614248200188738,-0.07383338439575249,-0.0758008104519029,-0.0643313341602115
0.926,-0.04070065244218093,-0.08414662721421119,-0.04346334144373258,0.06315390117325756,-0.0011863123225291756,-0.06608599568735642,0.01694559401542626,-0.051061410728640046,-0.049449666557807054,-0.0786209234841193,-0.0807003730046867,-0.06506816934521445
0.928,-0.04799701856220167,-0.07915036586351294,-0.031326370152339696,0.06469526171988524,-0.010787188133860459,-0.05688027383704007,0.011676245496545768,-0.057933179641374115,-0.05409110293585221,-0.08525094511989043,-0.08722207658753728,-0.06613431841733444
0.93,-0.049738276000725404,-0.07959815568232008,-0.02994063013086056,0.06630667794412706,-0.011987795547634178,-0.05586821137116796,0.012773047945968213,-0.059294066522806575,-0.056287636582317606,-0.08782831288774796,-0.08881039255086468,-0.06088259211584978
0.932,-0.04854079123808853,-0.07999398924982638,-0.03140060415290714,0.06645259586084817,-0.009848926739668784,-0.05706136376867806,0.018177023847386224,-0.054640424887920605,-0.05650023324095951,-0.08590932680257228,-0.08579033276112547,-0.050708610488513245
0.934,-0.04633565580902651,-0.0768100752069193,-0.03040535130815973,0.06399018821314015,-0.008211312820687532,-0.05565882871452742,0.022595950870631418,-0.05024329717500806,-0.0585057510652952,-0.08373417517443782,-0.0837615803389308,-0.04310890165057104
0.936,-0.04207909504914971,-0.07303114514850977,-0.030969313873069334,0.059532165192962304,-0.005236166363560835,-0.05406850774449135,0.024384503115880172,-0.05037223484485726,-0.06351882739311934,-0.08399183167888379,-0.08541543426163374,-0.04112960422635614
0.938,-0.03866860337378667,-0.07201640954097828,-0.03351442894829781,0.0565545980703944,-0.002696744219699677,-0.053898388007876705,0.02541743621517092,-0.05203198931811259,-0.06768994532653395,-0.08519133526025784,-0.08753139533741768,-0.039493674873896836
0.94,-0.04009248670599615,-0.0721112114407725,-0.03236555741840001,0.05703467045900622,-0.005255512927034625,-0.05261901849180548,0.026448588429440516,-0.05094953199528785,-0.06756218693384654,-0.08552428577851176,-0.08702699979338124,-0.033227900052994475
