time,I,II,III,aVR,aVL,aVF,V1,V2,V3,V4,V5,V6
0.0,-0.0003290943103269626,-0.0013821961033732427,-0.0010750414137347445,0.0008556452068501026,0.0003290943103269626,-0.001294437620619386,-0.012000972516589903,0.005462965551427578,0.01241782530967072,-0.005879818344508399,-0.021522767895383352,-0.005024173137658295
0.002,-0.0021891326885878047,-0.009567330843772672,-0.007509513920631745,0.005867261955836006,0.0024085288954724467,-0.008932369678542839,-0.08413785090567041,0.03848968545802704,0.08726909944912654,-0.04087498689807541,-0.14990474138500093,-0.0353148796318779
0.004,-0.006970390657074204,-0.03030571755858074,-0.023662745961453048,0.01861627546648096,0.007756997415019839,-0.028010368181233345,-0.26496479930922523,0.12240362065949197,0.27595926195646076,-0.12744145307471813,-0.46805967109050867,-0.11138760580721277
0.006,-0.014604555766854955,-0.0592089309416956,-0.04502698039121885,0.037071484217261176,0.014529711409398812,-0.05369228208786248,-0.5000571406801131,0.23503860498035012,0.5248735200369141,-0.2370946909039011,-0.8725169662013595,-0.20948898430284962
0.008,-0.02308893574663212,-0.08138271466333331,-0.0585273799673818,0.05312815706474844,0.017419443375825797,-0.0716939880319727,-0.64433666185544,0.3113379706393469,0.6865163046501588,-0.29698102571315116,-1.1007126297375973,-0.26440555530931575
0.01,-0.029607622735802103,-0.08490039081086902,-0.05513577884948237,0.059281993463864126,0.012877376450734605,-0.07181328165740623,-0.633290376338767,0.3175741651774668,0.6926971460141261,-0.2725496310134735,-1.0374120370227953,-0.2427861006206144
0.012,-0.03262045738140775,-0.07059243090900835,-0.03749875786097536,0.054271574568737026,0.002258140564666437,-0.0560566453315544,-0.5567092451475398,0.28825405130225845,0.6296510968278337,-0.2064212810192932,-0.8445717763889244,-0.18243246013228911
0.014,-0.032799108341102653,-0.049858544076415726,-0.016573614808718117,0.043556651112214274,-0.009501236987343634,-0.035252205967597074,-0.5291186253666161,0.2746824774446908,0.6094095741465979,-0.16258650061875496,-0.7360083139123212,-0.14257220197026466
0.016,-0.031373365046200426,-0.03600053905186409,-0.004395823633766882,0.03519048410399746,-0.016256658526961405,-0.02163059377981493,-0.5648862654270734,0.2876925206648603,0.645544739582484,-0.1634477854725116,-0.7560120664299017,-0.141830606167167
0.018,-0.02945193031152794,-0.03566164178527282,-0.006182427111646583,0.034174885164000385,-0.014807036990051935,-0.021496044966463054,-0.6050902665198701,0.30267615207448584,0.6801163254422546,-0.18684464429549302,-0.8117658089788752,-0.1573398885863932
0.02,-0.029961358476661072,-0.0455362892043921,-0.015526785178274846,0.040221444589535874,-0.009533794533486493,-0.03086690520808201,-0.6102555010206621,0.3007719277642846,0.6790158754599509,-0.20194189385360406,-0.8260004088913997,-0.16592297170406803
0.022,-0.036514747586738144,-0.055259723197080314,-0.018683399359052912,0.048910099804848575,-0.010024193045285611,-0.03780577555505217,-0.5923255645015545,0.2885342185227309,0.6631438237178253,-0.19893214006729182,-0.8036185037161493,-0.16780915318845124
0.024,-0.04759830680637613,-0.053986728542593315,-0.006494037969848511,0.05331613473903542,-0.020936349326428644,-0.03145748091628991,-0.5790977200464417,0.2819719460968481,0.6636121051301882,-0.18960446173022336,-0.7838224504033101,-0.17329710075718116
0.026,-0.0561515973539375,-0.03936886442912914,0.016527176621635685,0.0489181099498876,-0.03643136014610882,-0.012273521707122646,-0.5792603459913311,0.28646328725650116,0.6830409467189696,-0.18494097779576577,-0.7782908733088086,-0.18240049523816307
0.028,-0.057775099885763244,-0.022475980937749815,0.03503727510897334,0.04011498120488875,-0.046329146262409575,0.006049048063958163,-0.5832792494538919,0.29666144917200127,0.7037650232306811,-0.181937632106587,-0.7687170369820693,-0.18597516461007726
0.03,-0.05471430357097774,-0.018188239990273837,0.036250431076405756,0.036418893375358585,-0.0452914087225705,0.008758356802815009,-0.5827051008866184,0.30620768380681235,0.710817178784813,-0.17601084089803026,-0.742667466135929,-0.17954586043695614
0.032,-0.05127643699370976,-0.028330749961125872,0.022601458406651426,0.040465512223441566,-0.03666658021579431,-0.0037585949939503253,-0.5808732841310538,0.3110808103910456,0.7021168943556891,-0.1714194778415793,-0.7089562629763521,-0.1667782369039957
0.034,-0.05012255824632115,-0.03936110715098046,0.010397356191212348,0.045628355213796754,-0.02997734254647109,-0.015577203266836277,-0.5855107648837409,0.3089654856293899,0.6874608678920859,-0.17181058155289705,-0.6810392744188498,-0.1527724313396263
0.036,-0.05117658115320621,-0.037534862095929565,0.0132965948278994,0.04487154655228737,-0.0323237347011982,-0.012625475408363365,-0.5961337688253329,0.3007696121331225,0.678643997211298,-0.17454902522897756,-0.663148075198038,-0.14116758661937726
0.038,-0.05050426672946842,-0.021739033532630413,0.028455047054291485,0.03658524344284536,-0.04056764379328186,0.0034216198128771804,-0.6049963716149489,0.2906443414023643,0.6775968298585373,-0.17988604816369846,-0.6553393798499846,-0.13544302385838447
0.04,-0.044109921023607744,-0.0013859348570900481,0.04253924355989893,0.023859504671487234,-0.0456457775330009,0.020344818218960694,-0.6077640171543396,0.28226387035452843,0.6770251308725919,-0.19270415605012226,-0.6587240360967491,-0.1373685789537434
0.042,-0.035340882152836206,0.013440304070395976,0.04878254557202938,0.0127553840323531,-0.045051649826352964,0.029848550032339105,-0.6063059075636773,0.27649275327615114,0.6715475434449021,-0.21132339250141832,-0.6696871941900473,-0.1444249556924374
0.044,-0.03253773707331349,0.018698767755533086,0.051332177590294376,0.00873462158094553,-0.044783171999357996,0.03274905346873859,-0.6027361607087403,0.27331018164080423,0.6633878103558574,-0.22463083517046545,-0.6765089843651901,-0.15074874321575799
0.046,-0.03680914660162368,0.016995815343724647,0.053857124585110536,0.011275388947939112,-0.04770497263581276,0.032785040172541795,-0.5966739995343021,0.27424810031828023,0.6582844207442539,-0.22400058390429575,-0.6684072590049819,-0.15080899629015918
0.048,-0.03996600586947387,0.013511410239557351,0.0534532105252385,0.014615949165885959,-0.04860838543842699,0.031177347146726257,-0.5886889879918562,0.28080858254868946,0.6586111775184271,-0.2137040089157699,-0.6462316677547145,-0.14373511473312367
0.05,-0.03763961239359942,0.011032927426747129,0.04863262273361029,0.015277909784352742,-0.04436900207545757,0.028167501306173875,-0.5822479104510627,0.28984546629972124,0.6598172022514386,-0.2071469764876302,-0.6208917394610663,-0.13498623343244165
0.052,-0.03578164972838308,0.008714636944554726,0.04449006128893072,0.015516261532372911,-0.04046405259523643,0.025469011976805376,-0.5801800264945133,0.2935604600939679,0.6542076918921499,-0.21350055512518615,-0.6032452675071663,-0.13144773781104183
0.054,-0.04011102768809735,0.005223292009176025,0.04535298592344938,0.018285285292338676,-0.04241161639928243,0.024490596764317037,-0.5816565962598772,0.28743624821437075,0.6393318148560245,-0.22984772961868116,-0.59756958957916,-0.1340540863644805
0.056,-0.04630099110023811,0.002025352555234068,0.0483386546372391,0.0219012560263996,-0.046976492464086646,0.024424763474812948,-0.5843117611030685,0.2750718934471724,0.6206363762965096,-0.2470159509719801,-0.6009998811988776,-0.13758469790816755
0.058,-0.04633421319808008,0.001724668428888309,0.04805459333496472,0.022384888020992116,-0.0472341080091254,0.023796797631153346,-0.58729170653085,0.26222729713731513,0.6051020955343576,-0.26016322687640725,-0.6071921412404031,-0.13824852586318653
0.06,-0.04054640295816936,0.003972088125090259,0.04450973092944696,0.019491278096923064,-0.043084253450880634,0.022691422194285736,-0.5906955984355532,0.2511463301376538,0.5946647253481147,-0.270819549799632,-0.6126175867502666,-0.13841158964802397
0.062,-0.03626171721220554,0.0067027838808554775,0.042962656942179836,0.01638348505483925,-0.040905794597263824,0.022924935416726824,-0.5928635135535755,0.24275856285961508,0.5868772025422975,-0.2806435065389905,-0.6175300050270017,-0.1420318263181201
0.064,-0.03672076850097422,0.009708418472761552,0.046433085856780285,0.014660878735028011,-0.0437310331456127,0.02595973604814806,-0.5904732677145794,0.23857836409028935,0.5797924114490822,-0.28790814390586755,-0.6205697095245678,-0.14829534070120914
0.066,-0.03884649655004008,0.012631540025167094,0.05148090499320421,0.014069248052637512,-0.047604248689550085,0.030163640438326863,-0.5830495643936894,0.23853833357862395,0.573600963395325,-0.29117834486471134,-0.6189109127687993,-0.1530546125974837
0.068,-0.040250222954497906,0.012289552845426547,0.052539018211249316,0.015387235419494837,-0.04807242640328253,0.031205405082066102,-0.5753740596359463,0.23975804434111905,0.5678129784083222,-0.2932442363818051,-0.6140353509713634,-0.15531409699136436
0.07,-0.042126245558196156,0.006478570814441238,0.04860288918627357,0.019651835117136838,-0.04593908060522686,0.026946419295977984,-0.5725104827202997,0.23832653067223444,0.5593490598419507,-0.2989759403328751,-0.6103295119109784,-0.15854499477080924
0.072,-0.045633378588409726,-0.0013790290379219975,0.04425384246802423,0.02513099267491208,-0.04519713597568809,0.0210503215616034,-0.5740371535521616,0.23279201168718178,0.5456293849393649,-0.30976010289045447,-0.6088571850514244,-0.1650992828468485
0.074,-0.0492187588119619,-0.005092199067730704,0.044127369243637665,0.027919528675975268,-0.047313063641693874,0.019138314865822036,-0.5761629565254234,0.22556330075824155,0.5292040685955084,-0.322012246662385,-0.6084727389915966,-0.17266487113508183
0.076,-0.0504773089809467,-0.003053534438400593,0.04742443792849788,0.026474715406878208,-0.04972662470885456,0.021765005984051466,-0.5776407555069004,0.21897281580563735,0.5156763112624756,-0.33194465696169867,-0.6105719124255853,-0.17731031524387897
0.078,-0.049168642745853856,-4.1830914013466744e-05,0.04912668693799863,0.02377377864298829,-0.049670847354715865,0.023873850080459832,-0.5797132364483952,0.21162959544085158,0.5064803247367184,-0.3396927627738226,-0.617629586294488,-0.1778154094172988
0.08,-0.047560343921558806,-0.0012220277390812863,0.046337894501208544,0.02391341209170659,-0.04748320604557967,0.021375684026748325,-0.5812645983814875,0.20214634097843695,0.4984369793297784,-0.3470679416313599,-0.6287655992254474,-0.17634902920126025
0.082,-0.04781606976325388,-0.006509593577496977,0.041306342925264784,0.027520290572855072,-0.045412721567283605,0.015827494057344023,-0.5787133925755388,0.19356301658764993,0.49042710000256207,-0.35322576151085616,-0.6394065665812546,-0.1759883749122322
0.084,-0.04913884864974263,-0.012176206238775432,0.036962808879784516,0.03140312934458666,-0.04403035695594959,0.010991136381973618,-0.571838875814515,0.18910540576812676,0.4848646278024153,-0.35523529368543266,-0.6453751113497251,-0.1780097421856191
0.086,-0.04907326427306431,-0.01655942204606368,0.03249205484429176,0.033151334352264514,-0.04167883210372931,0.007080126326581284,-0.5650832194459727,0.18685928195012105,0.4824234346679846,-0.35233127810064896,-0.6466069502168512,-0.18123031447724874
0.088,-0.04765420653813957,-0.020967391942349714,0.026533541080932546,0.0343050496169251,-0.03806637930678138,0.0022548386195051463,-0.5610248084483324,0.1834611766398333,0.4800813486641494,-0.3472726210819704,-0.6448732700854701,-0.1835395163273713
0.09,-0.0471134584855552,-0.025092222049075436,0.021562409871999616,0.036814690493716044,-0.035700519419576617,-0.0021648052117129953,-0.5577396667732509,0.1793411732992798,0.4748525698015068,-0.3436457401768592,-0.6394841965589729,-0.18414121126677616
0.092,-0.04768339234067549,-0.026184397621218325,0.020748936516786234,0.038996873989805024,-0.03599948558135562,-0.0031854913271756576,-0.553750173536684,0.1768274770759173,0.46652020356801366,-0.343173948020641,-0.6303099417971791,-0.18437837066970536
0.094,-0.04736791233967775,-0.023952771535729892,0.022737028775278195,0.03823027832954568,-0.03679000635782694,-0.001590521162636895,-0.5499300559109362,0.1761525493305214,0.4567822971720568,-0.34540001217068006,-0.6227073879349657,-0.18557030432211918
0.096,-0.04568223314479114,-0.022282090699718104,0.02317030992118987,0.035552681438632334,-0.0355321215093899,-0.0013371559246282332,-0.5465242285386803,0.1745021821881105,0.4480295421979405,-0.34983591904289646,-0.6226920878666631,-0.18610898031016498
0.098,-0.044044356098467526,-0.024467752292043975,0.019748071964129314,0.03434773889018138,-0.03221519284018546,-0.004353332925934077,-0.5419369744734909,0.16837452914862477,0.4426259943346569,-0.35711727376277336,-0.6292219671929422,-0.18254595024660178
0.1,-0.04267409839950983,-0.029307682991522366,0.013575407883292475,0.035696355154057335,-0.02811381022009992,-0.009086040028854653,-0.5339819958730271,0.15823390878812463,0.4409561003768083,-0.365779935349846,-0.6368740160135193,-0.17412482602663523
0.102,-0.04066373903285979,-0.03329621318031955,0.0073846032070120395,0.03782239345841379,-0.02453833913029657,-0.013206564200779628,-0.522237377070103,0.14879187821366235,0.44020535440027586,-0.3707698658240229,-0.6429590656315691,-0.16432931380430518
0.104,-0.038690749547172346,-0.03494395275097602,0.0036442553522345916,0.03919525027374457,-0.022779703118408413,-0.01567612500741925,-0.5092964523060541,0.14289401765875098,0.43712500864196396,-0.3687180182452307,-0.6471230520303418,-0.1570894140920632
0.106,-0.03877697073504937,-0.035936910927899454,0.002781488197199497,0.04019933443014886,-0.023189104950891038,-0.01714475778490251,-0.4977021714937314,0.13874428525781035,0.43184768650509486,-0.36148434806480356,-0.6480569227688556,-0.15357215522815645
0.108,-0.04156655581807208,-0.03853219740978552,0.0030618031148128082,0.04204542124175261,-0.024693337816123526,-0.018932188526173142,-0.48653136123792845,0.1338602059930297,0.4269592573523486,-0.35224614105909213,-0.644872378946147,-0.15306183554029348
0.11,-0.044773986921249,-0.04190592975034268,0.002912977101777101,0.04429283532837398,-0.025646063875691204,-0.020799829658812264,-0.4734002338637962,0.1281476320262338,0.4227557753059107,-0.3416980599669731,-0.6385527099608936,-0.1539617612431036
0.112,-0.044570122846028466,-0.04218024035029609,0.0023963779543220965,0.044091143037531894,-0.0247970631908084,-0.02079988457521447,-0.4586235045486502,0.12271090880573982,0.4159872490669841,-0.3294757944037835,-0.6305667913250437,-0.15382537718470235
0.114,-0.03922011591690641,-0.03700435587034648,0.0021943744518305754,0.0392493140160437,-0.02212248554109646,-0.018088265310144833,-0.4451440360810043,0.11771723215022012,0.40450571359506954,-0.3164701451030226,-0.6229578682710192,-0.1509523165679918
0.116,-0.031676592951150974,-0.029043397449547228,0.0026194426662190166,0.031839010856164904,-0.019290823631496982,-0.014332272696120562,-0.43461171697769774,0.11166346935971341,0.3907678003546381,-0.3047712258512711,-0.6191640596127086,-0.14618374166107145
0.118,-0.027952994962711378,-0.0242448028730234,0.003713292635797158,0.027519625835883615,-0.01873224785627043,-0.012097363858084395,-0.42489000616704165,0.10234955455432777,0.3789698483450392,-0.29666128312968665,-0.6219748193744947,-0.14247912099518548
0.12,-0.03093845091283724,-0.02637415133781039,0.004574239892686089,0.029863886943975567,-0.02075719681099268,-0.01296519329062632,-0.41211351378763794,0.089560796071674,0.3706302989550016,-0.29320683730811403,-0.6309230566705196,-0.14260740593236357
0.122,-0.03661033628774987,-0.03317110902369933,0.0034411915148772143,0.03602768797757724,-0.022380423109403302,-0.016492505813751203,-0.39495585134523004,0.0769449531597878,0.3644416520069923,-0.2923170626079436,-0.6419971503463072,-0.14725232267351793
0.124,-0.03994765167107137,-0.039180720264461344,0.0007624450313446834,0.04078334637632592,-0.021637885210115972,-0.020269969206761593,-0.37573238007106,0.0692917109107229,0.3586975868708625,-0.28900763883499403,-0.6495656177693045,-0.1549391019585049
0.126,-0.041827598824855934,-0.04227243516967241,-0.0004480511625579275,0.04329207352716753,-0.020883964412929428,-0.02230503439562351,-0.3571298912304817,0.06743011705932522,0.3525236704874371,-0.2796859102190486,-0.6504155861372358,-0.16254389152717671
0.128,-0.04553841352396469,-0.04487316450114007,0.0006661617826856062,0.046166716186695746,-0.022817691827586768,-0.023298786784704213,-0.33960961977870385,0.06753884672346448,0.34539124170809277,-0.2668495265685843,-0.6460132822887406,-0.16703237670399212
0.13,-0.04992136722951486,-0.04820908706628726,0.0017144705453832044,0.04948981418029162,-0.02610970813503763,-0.0247115390404153,-0.32242481864246036,0.06556642953718121,0.3363882178652431,-0.25802396675358763,-0.6389119813777263,-0.1684785768031029
0.132,-0.050606661778238,-0.0489081591063713,0.0016990508012566948,0.04992621914174252,-0.027477256675962736,-0.0254321696643816,-0.30568281181364826,0.06043494999745757,0.3247703917688224,-0.25790485059653734,-0.6298901575735255,-0.16964299833093996
0.134,-0.046740095152243644,-0.043895852733300246,0.002843308892369022,0.045921081956553346,-0.0264413623035892,-0.02297017648040188,-0.2913727320620608,0.05243818566500266,0.31096135603144776,-0.2632116167194966,-0.6208310197675226,-0.17244157342210334
0.136,-0.042577662201879016,-0.035690844574919244,0.006886072596704709,0.040458064021734755,-0.02579551155030787,-0.0174486548658321,-0.2823129821406323,0.04108208140690203,0.2960849775845862,-0.268223811545504,-0.6153744892790293,-0.17662391552712742
0.138,-0.04195140606496842,-0.02989296823183905,0.012058591413219862,0.037490815655226814,-0.02744911331400127,-0.012124978945059798,-0.2784419993515653,0.02727396368410532,0.2807756599247118,-0.2718345492930198,-0.6151091057393326,-0.18044342909103706
0.14,-0.04441572725604786,-0.028789805556833536,0.015626401637883706,0.03767058497777617,-0.030398922463765975,-0.00928852785923087,-0.27487238665786334,0.01571403950594543,0.26583129539988865,-0.2748228556627871,-0.6186812939291476,-0.18154080912169115
0.142,-0.04738010322759711,-0.0286598280849594,0.018720420575389512,0.03819925331524801,-0.033550679481804756,-0.006557681130471353,-0.2663352226888562,0.011142880961800708,0.254343992849003,-0.2744773063283038,-0.6232313353411528,-0.17857487350307646
0.144,-0.04917528392580391,-0.02339495217609471,0.025780139302629214,0.035766895542538875,-0.03777346598128297,0.0008749850210770567,-0.2529613943960385,0.012987940072960162,0.25009059805490164,-0.26718788324125187,-0.624747529508454,-0.17211573085085652
0.146,-0.04979999201847263,-0.011131965080760945,0.03866785564840079,0.029814460155520132,-0.0441795149911108,0.014113379810905474,-0.2389511406577992,0.01663713674259615,0.2519913065433533,-0.2536043373741993,-0.6197798972044433,-0.16344267568510037
0.148,-0.050628587027399204,0.004592608303972061,0.05519927891638486,0.022848936903937224,-0.05299191557773659,0.030021339569378726,-0.2263617927315885,0.01909383094061368,0.2541793450239768,-0.23778895673456787,-0.6077457914511697,-0.15305127024889897
0.15,-0.05265453172017552,0.02143124699034596,0.0739545675059599,0.01628828267543336,-0.06421030583777504,0.04714138528013652,-0.21327253210190109,0.021355159051306503,0.25285260949576993,-0.2232776478114873,-0.5905346138655526,-0.14076808233855195
0.152,-0.05391900963712547,0.04090486030918985,0.09449648816648212,0.007892272774743964,-0.0759632910482838,0.0664181235050757,-0.1983014338260473,0.025854491928969905,0.2486274434390974,-0.2119314613232437,-0.5719599335450603,-0.1271232905347656
0.154,-0.05115921479101706,0.0620683631173352,0.11280493343768513,-0.003814941582843086,-0.08363717934985475,0.08554271859787319,-0.1843930667795712,0.03237962386608442,0.24272244857430572,-0.205791260729114,-0.5584405056299043,-0.1138730864180461
0.156,-0.04472492692296264,0.07914245220383606,0.1236117993608041,-0.0156710342324898,-0.08480318328674648,0.09927533923221162,-0.17566088978878244,0.03715327885891982,0.23536989312316814,-0.20768872732520494,-0.555120052221166,-0.10221164838204916
0.158,-0.038383496697562886,0.08862247587084295,0.12705358839747818,-0.023920287977059897,-0.0826397742810317,0.10602686067735213,-0.17108446679840272,0.03721448267099917,0.22747910471068955,-0.21774511269023586,-0.559176683834523,-0.09115493543290207
0.16,-0.034255293783946386,0.09376820316986008,0.12832257159418214,-0.029102575001743396,-0.08159610162354866,0.1096810847253811,-0.16490364059342016,0.034343208190834466,0.22108856970851656,-0.2310037951188063,-0.562287174803638,-0.07975845344236256
0.162,-0.03156561690458864,0.0994449218422569,0.13155443822107804,-0.033827337798075605,-0.0826237895021512,0.11449149178995151,-0.15425333087859816,0.03229502385551413,0.21739222628791716,-0.24192486441782726,-0.5606443617859369,-0.0705159635675045
0.164,-0.02996310090947626,0.1052333809351735,0.13603168405771374,-0.037718768475866124,-0.08421253884327871,0.11980018855845867,-0.1432298163327509,0.03187168272162475,0.2148235628377319,-0.24960982343150248,-0.5574515571323855,-0.06743018798515824
0.166,-0.03047974068468866,0.10653519095632458,0.13796406940361564,-0.03773182693341307,-0.08517604740866169,0.12105265758072602,-0.13703250573701262,0.03205771139825655,0.21072920542382317,-0.25583808507038347,-0.5555438249372905,-0.07008514037071512
0.168,-0.0327752986627006,0.1013638112532652,0.13478942128784077,-0.033213038368447995,-0.08473782495052468,0.11592472373902826,-0.13423297051399738,0.034156388308107945,0.20457234080720263,-0.261386657379214,-0.5522185677351034,-0.07272916463886903
0.17,-0.0341673947586064,0.09216625349857363,0.12646926916347467,-0.027393054060306194,-0.08155188753371094,0.10660247052282032,-0.12923119771640534,0.0394755277181779,0.19668380296485757,-0.2678486737893993,-0.543750651360676,-0.07091994804799989
0.172,-0.032663705432526204,0.08073541434916481,0.11333301006595177,-0.022613225223445162,-0.07435160855717728,0.09514066546077123,-0.12135231082929505,0.044852942765025876,0.18536349472720495,-0.27880255423491823,-0.5326500515987205,-0.06673010100848929
0.174,-0.029760227967197343,0.06476772349344283,0.09481498144579889,-0.016602334046004547,-0.06340950813099099,0.07958791911078668,-0.11574919030918449,0.04630528530785161,0.1688595154602082,-0.29589815701986993,-0.525998048209271,-0.06527468428857651
0.176,-0.029090999192552574,0.041296041369337746,0.07116382930894646,-0.00549264821039996,-0.050789759205487554,0.057050176660478694,-0.1158809845392123,0.043884613355555976,0.14881663260177175,-0.31707952499846803,-0.5270233439162206,-0.06816456583970673
0.178,-0.03219475739539594,0.012956373179760353,0.04593279721144693,0.010284984026859434,-0.03922873644241573,0.029887225090412358,-0.12026424118680773,0.03898422858813355,0.12985840289587067,-0.338568100834429,-0.5324431024584986,-0.0723578984936119
0.18,-0.036391830239684335,-0.012030600188777645,0.024626360933141578,0.025073897860528046,-0.03032352615560215,0.0056635720224290755,-0.12574228878548566,0.031599971053884415,0.11605622752069873,-0.35653107702641945,-0.5378764618640616,-0.07410694785318951
0.182,-0.03744228504509422,-0.027861151798031843,0.009370552930249859,0.033553298485875786,-0.023165476736446776,-0.010465843621064962,-0.1299794121888848,0.02288243980243341,0.10799345424302356,-0.3692321377457252,-0.5414856763860487,-0.07286808003421245
0.184,-0.03376598835833122,-0.03596082940176725,-0.0024416445000205564,0.03561583717766463,-0.015674041785584066,-0.020125457697840795,-0.13076439652026728,0.01768218230769107,0.10458771675886266,-0.3777216209176077,-0.5416557116493481,-0.07100716368402134
0.186,-0.02766914584186432,-0.04110698181893682,-0.013451652791522476,0.03509900765024546,-0.00748093691374487,-0.027659358687901574,-0.12597069914382394,0.02178387022151106,0.1060718318244632,-0.38267606903920504,-0.5364160606266734,-0.07051248827598436
0.188,-0.02214463179238723,-0.046949777298081675,-0.024702377542850262,0.0352685365156447,0.0007749105254965873,-0.03597080270810161,-0.116733625583883,0.03434256095153051,0.11094331163903123,-0.38342995876709746,-0.5268053363815898,-0.07219876308966314
0.19,-0.01761645560008822,-0.05548936758698015,-0.037914914018932676,0.03694702233334786,0.009821292693357504,-0.046801910435917284,-0.109013168847149,0.045329013370682306,0.1120775264912781,-0.38194484526741995,-0.5161305609761055,-0.07718111325322927
0.192,-0.014208302946984231,-0.06759746469658892,-0.05362060049806977,0.04084478142169053,0.019448828135177367,-0.06083266307431222,-0.1088390067880832,0.04423340459846595,0.10066797639911118,-0.38423957055920466,-0.5065847802318288,-0.08602262619166767
0.194,-0.01376183365751933,-0.08209311377393844,-0.06847995777297525,0.048023648861925554,0.026766798275020775,-0.07613587047463409,-0.11730547399935276,0.0291134570193727,0.07433520285644792,-0.3955715995993624,-0.500518720908598,-0.09649156414909918
0.196,-0.015239450562701784,-0.09334769858255985,-0.07792552714055043,0.05521610836833684,0.030452515509476964,-0.08736845164680539,-0.1308499092825126,0.006549165026148586,0.04120354931715001,-0.41401499813977377,-0.49995502368328415,-0.10378988381664771
0.198,-0.012853918299019594,-0.092228298981609,-0.07893568620874336,0.05413201558244309,0.03237538097319251,-0.08762424469448074,-0.14289021675327568,-0.012664511064697506,0.016230013847570276,-0.42824561553337964,-0.5003278708854897,-0.10311855634753624
0.2,-0.0029450492288041435,-0.07409442887665003,-0.07068591774709436,0.04008162214779259,0.0334392260111822,-0.07406244795522449,-0.14630284598888213,-0.019276992993775062,0.01038814223769371,-0.4253411494516114,-0.4920528858444637,-0.0929827166148177
0.202,0.010473076690039228,-0.0462584067278737,-0.05639813264680171,0.01922565827882659,0.03234654242601129,-0.05260650107133851,-0.13860976762490018,-0.01301170321812188,0.02138586640964441,-0.40483731853772853,-0.47247665378327,-0.07750669907593442
0.204,0.01897493533732448,-0.02411009826301959,-0.042950712731092404,0.004200509810194758,0.028565224214232098,-0.03459015750742747,-0.1234882880839656,-0.002851339613189176,0.03660741175846001,-0.3807267588646795,-0.44933982471426953,-0.0642428850034877
0.206,0.01750223244177941,-0.018273981245070677,-0.03581420508785399,0.0026146131400175136,0.023619233262506673,-0.027874434826268037,-0.10559443823110003,0.003566656904752932,0.04488082176739697,-0.3655996386296678,-0.43095332974938416,-0.05844891725795118
0.208,0.008590211126790565,-0.026438196832338084,-0.03511443684161499,0.011040934254972113,0.019605829235480914,-0.03149673375211008,-0.08720895502442644,0.007849573789483394,0.04412092533777341,-0.3581794744135664,-0.4185710663860394,-0.059721806149987566
0.21,-0.0011303166025112609,-0.03779001008941345,-0.03668740260992524,0.020424378141893972,0.017165917518118263,-0.0379745988817985,-0.070710423398564,0.015994726563967398,0.039359229508057585,-0.35010621815965237,-0.40710846197328004,-0.06277101983926618
0.212,-0.007451014191245186,-0.04462605576704185,-0.03716635967511316,0.025687416474449352,0.015521912556345436,-0.04140039834096386,-0.05999698047876302,0.028422490945909144,0.03508308259628203,-0.3389616934937461,-0.390856018199884,-0.06142546735969553
0.214,-0.010555678785317081,-0.04923563109506474,-0.038781613034533084,0.02905661309228928,0.014927604136597595,-0.04403061496083669,-0.05772219809034107,0.03686300143733358,0.029638297932853386,-0.3299981132134497,-0.3715956648117699,-0.05436498223276425
0.216,-0.013422103978107735,-0.05886988612188056,-0.04577737230886663,0.03571381115854327,0.01604897908513229,-0.05222145617622212,-0.06247899527441167,0.03209026078987474,0.017912078484418552,-0.32869882796308453,-0.3592623974659648,-0.04596006196361583
0.218,-0.019950350928685332,-0.07510805778212805,-0.0555754491446023,0.04773437387198883,0.016336234882605466,-0.06594410872851182,-0.06833898357571955,0.015082214796460238,-0.0006602162560055057,-0.3348279253892544,-0.3606345627685679,-0.04022144279209308
0.22,-0.030560182952621282,-0.09162841385150364,-0.06119942626307328,0.06170633735319058,0.013127282206268376,-0.07820853539339978,-0.06796134158888847,-0.001968020820041919,-0.019204832225346385,-0.34258157696757763,-0.37119539585836697,-0.03757546489108675
0.222,-0.03943945001250673,-0.10292687194983582,-0.06312835794027133,0.07216694203672004,0.01016647517831737,-0.08563203515255846,-0.05900386188312497,-0.007677264086534536,-0.030582231827297957,-0.34571852130432146,-0.38085856671517443,-0.03829868166042638
0.224,-0.041718127677448695,-0.11057562643046068,-0.06828244723183806,0.07763630162689318,0.012679386312832993,-0.09200571624884077,-0.04624378040682638,-0.0028633053621237078,-0.03591912453040899,-0.3427924476266364,-0.38386375576806303,-0.04415290551110483
0.226,-0.041464509786687025,-0.11826749544691269,-0.07648431170759834,0.08167031686381691,0.01732818979094681,-0.09942978376027975,-0.03495885636997286,0.002470007736058948,-0.041780419906616545,-0.33761833440146916,-0.3810934698586212,-0.05488097675922653
0.228,-0.04592750968064261,-0.12483915521203064,-0.07898711629645468,0.08722076760795769,0.015935151573857786,-0.1035135993392419,-0.02547560445116363,0.002315584801593406,-0.04983821893409144,-0.33445047657961635,-0.37474313447112617,-0.0654371542250565
0.23,-0.05431456985771874,-0.12590635622713706,-0.07181764738237342,0.0920628611838752,0.007766913067551869,-0.10030588271349802,-0.01616220720144343,0.00036908601730725624,-0.05568663354108721,-0.3323652089730675,-0.36360109586445444,-0.06885889375868441
0.232,-0.05896826363878313,-0.12039353101825065,-0.06164271334825131,0.09172910510058974,0.0006059263765493608,-0.09244979768345504,-0.007583699660338712,0.0019275202889604739,-0.057705231939718056,-0.326381905343881,-0.3462123839858577,-0.0636754130783963
0.234,-0.05661561044372787,-0.11305965571382223,-0.05682554653065336,0.08635813387060244,3.9182555166427687e-05,-0.0861340862473393,-0.002049663144372175,0.0051991620683661055,-0.06079869082197456,-0.31591173792726646,-0.3272868070942146,-0.05717833134608652
0.236,-0.052177805851987495,-0.11053169864267887,-0.059032112289462584,0.08181262603927546,0.003834936793055761,-0.08540353510175906,-0.0010731267005717918,0.0039266484543197,-0.06978298756476514,-0.3079484208975067,-0.3150318882709494,-0.05828786604552913
0.238,-0.051319325761152605,-0.11542175620937034,-0.06476608134453327,0.08325407981297586,0.00713012525041134,-0.09039554828100768,-0.0034434683982539323,-0.0037553550772038225,-0.08253498896834115,-0.30796336952592596,-0.3114703051835209,-0.06881935853222494
0.24,-0.05521854864286485,-0.12529803601718692,-0.07022062274097772,0.09062789030033289,0.007494633721840751,-0.09859134542894409,-0.005550330340468335,-0.012526875515615914,-0.09293788712506953,-0.312768383890754,-0.3112316033505047,-0.08400891589184058
0.242,-0.06189659482392193,-0.13651586776647742,-0.07413665922495262,0.10048265571132362,0.005435445522385122,-0.10718285367513819,-0.004033112931192456,-0.016171812337850058,-0.09940450007581356,-0.31660514038566934,-0.309005308813644,-0.098565924231916
0.244,-0.06766668221667445,-0.14716916678497594,-0.07883348211784215,0.1092790485729908,0.004225376923426978,-0.11530988420551312,0.0014037365463767922,-0.01412050413918108,-0.1049835023384054,-0.3177079296712623,-0.30220991827872307,-0.10999732431864581
0.246,-0.06930014560506999,-0.15689632797572775,-0.08717598793651837,0.11526500991999718,0.00715934297548014,-0.12367531216684592,0.007793363261665037,-0.009892306378448488,-0.10940904497457532,-0.31484863932375295,-0.2892037751748152,-0.11837688592033357
0.248,-0.06674729916469024,-0.16444342693124345,-0.0974975962626439,0.11799217405022917,0.013479299918302693,-0.13151412585570504,0.012879189994849275,-0.0053913665272522105,-0.10883487781494718,-0.30521415401799307,-0.2706141553606576,-0.12446978086888567
0.25,-0.062175535215578795,-0.16668161849725532,-0.10429704043196424,0.11679720633719748,0.019379159307358115,-0.13578177863241042,0.018183342148969907,-0.0002454455160460239,-0.10395541536957137,-0.29066098965047465,-0.25023070222123345,-0.12824415358018357
0.252,-0.05815951673873595,-0.1628113955946993,-0.10445807303031988,0.11232553744344026,0.021928104585174045,-0.13488805584859218,0.025384323249182748,0.00465837960565536,-0.10141769157048561,-0.2794737332904358,-0.2322174802690103,-0.13002514765034365
0.254,-0.057003251544099444,-0.15734678673188296,-0.10042831892023821,0.10803474785734075,0.020905744938452472,-0.13116399549019728,0.031811316734168635,0.0069776195317289725,-0.10641875630730775,-0.2770591385779933,-0.21896232657424192,-0.13173988307287834
0.256,-0.05855213876602474,-0.15509883444733777,-0.0970846388000992,0.1066963469202944,0.0187847091388402,-0.12813962223504666,0.03321377947185765,0.00624207748654694,-0.11742146077332566,-0.2797840906922966,-0.21048983212129138,-0.1348740227959994
0.258,-0.05947398164809212,-0.1558883022646635,-0.09724671907348616,0.10722417858641888,0.018836506005242892,-0.12750640235185076,0.030257444408119557,0.004632020139898175,-0.1278843206991174,-0.2814590133469287,-0.20444288276444486,-0.13825296012576027
0.26,-0.057242472506756535,-0.15708980482326496,-0.10050274106234991,0.10721533034269433,0.021920871989254905,-0.1293042486897778,0.028927750346036236,0.004280481900114102,-0.13194166183779843,-0.28093156255765417,-0.19858244116291204,-0.14002444524445914
0.262,-0.05419144829581175,-0.1589553860638951,-0.10479532789879023,0.10726028602119436,0.025329397740523306,-0.13309982322254515,0.03314755647683571,0.005673481476410118,-0.12897786669107178,-0.279756544409201,-0.19298621967637983,-0.14096771245895146
0.264,-0.055087020074169386,-0.1642853922015838,-0.10854663529937554,0.11057943128756481,0.025796837899105595,-0.1383197184433481,0.0403364963647768,0.008409990096129659,-0.12311707903780884,-0.2771477108108373,-0.1874670374982971,-0.142991291525278
0.266,-0.05930987680442415,-0.17234974104474035,-0.11209507780990585,0.11691016436590455,0.024407199424872992,-0.1436788760403676,0.046432126196691875,0.011320419114872542,-0.1192212312817693,-0.27174213207178227,-0.1796481827789044,-0.14616585522682668
0.268,-0.059264916969635845,-0.1766885156030863,-0.11674692164195805,0.11963279112610828,0.02640950769157207,-0.14711002100174883,0.0504731678729433,0.01208232915565245,-0.12005060794945557,-0.2652890696601007,-0.16852200698307102,-0.1505783502079568
0.27,-0.05037108298338661,-0.17245253336353575,-0.12195523533050667,0.11347842852236036,0.0339820293740798,-0.14734759489758922,0.052238185729156617,0.009580819067183055,-0.12507625563441147,-0.26045951155939184,-0.1564668309585493,-0.15702908736523144
0.272,-0.038432137486189656,-0.1628678880398471,-0.12465620819308186,0.10234278689427764,0.0420145600318922,-0.14476407526091697,0.051952557559900386,0.006880890746250243,-0.1307467620929428,-0.2571018820212776,-0.14628377050839894,-0.16264524139723988
0.274,-0.03311970519249738,-0.15531744127862127,-0.12237411965270288,0.09520452538918324,0.043685524128820846,-0.14055990046106479,0.05343995788141238,0.008830356776614147,-0.13322431207969423,-0.25418370544495245,-0.1398691467360717,-0.16215270527783815
0.276,-0.037554412026763746,-0.15483268056007343,-0.11727512719633879,0.09695481412743466,0.03844177988863979,-0.13749743257420774,0.06116741823395914,0.01664037426304015,-0.13032536807559722,-0.2524911228164645,-0.13907900216276203,-0.15702896147669743
0.278,-0.046325176370041195,-0.16335141498655598,-0.1170526545077247,0.10568546677476134,0.03347117036989341,-0.14096691743789447,0.0755186859537786,0.029008652967708316,-0.11969897473977935,-0.2509892604886066,-0.14371462487990777,-0.15657332764241186
0.28,-0.05091998675721317,-0.18137538107164658,-0.13072415673898546,0.11667649022458831,0.03823509280204128,-0.15645474994771985,0.09579240353602847,0.04905106784217066,-0.09677023554945592,-0.2435698078474531,-0.15020232970773642,-0.16706376905959122
0.282,-0.04688145832350645,-0.208803034169594,-0.16225202922835658,0.12769798137807134,0.05670606814161361,-0.18599893662055,0.12376291822515424,0.08418498944715865,-0.05713063661164581,-0.22388353103427805,-0.15533537937478478,-0.18627208437223797
0.284,-0.038082122940471495,-0.2446600381269677,-0.2065446288878389,0.14089095631107929,0.08331840329689451,-0.22653982409163206,0.1587699827781503,0.134788482889103,-0.0027497495841768945,-0.19123379201745067,-0.15774651106379228,-0.20919236415490197
0.286,-0.03331744274320737,-0.2837543667211798,-0.24998572400709781,0.1584317241100606,0.10650160544670557,-0.2683987132389163,0.19044902712726633,0.18466637718991688,0.05456088580983052,-0.14868382569653663,-0.153178604763275,-0.2311576360232214
0.288,-0.03611913531576826,-0.3123021262239092,-0.27578116324979957,0.17490936034431268,0.11719715008021704,-0.2955814277533321,0.20091537579386357,0.20841357223102364,0.10031278616495781,-0.09630170588708528,-0.13213254319740886,-0.2430043739547131
0.29,-0.0383171452724707,-0.31020730159011556,-0.27197481701896775,0.17564556657037889,0.11466961716045268,-0.2919824086658039,0.1771339896535588,0.19228662470595648,0.13193738403500868,-0.02592268879649648,-0.08213975162762514,-0.22858444756350407
0.292,-0.026578545493315436,-0.263730445948668,-0.23767913281519043,0.14693458918211466,0.10476684244526398,-0.25127731508562956,0.1195037808571402,0.14473538084541904,0.16224732404480557,0.07944530606356094,0.010468500084185565,-0.17097270328940423
0.294,0.0054487397460760995,-0.17805017221268102,-0.18404989019908372,0.08839875697825653,0.09480617136089373,-0.1821908699159015,0.03683873300475393,0.08327637318133423,0.20423375969982632,0.23911776458126432,0.15643896484110228,-0.0625201947957969
0.296,0.05488430795984132,-0.0727963438561323,-0.12789209363102796,0.011346936721609073,0.09108564727629496,-0.10225302087829646,-0.06386491108507664,0.016027220400788255,0.258682850564266,0.4655078455708088,0.35810927157905187,0.0903137463235974
0.298,0.11668793453191201,0.037276201902923425,-0.07929520389610524,-0.0744382171926861,0.09698629468255023,-0.023289969801771344,-0.18151316964768202,-0.06303572421955024,0.31628926647246536,0.7575611476747237,0.6108801768493646,0.2728147451028234
0.3,0.1869761553982254,0.15506744388169358,-0.03174319880429754,-0.16850409217756168,0.10840847005249686,0.05918651806115439,-0.31943899175922996,-0.17160133431769195,0.3543176562378348,1.091383143733608,0.9043539915006681,0.4730720581682952
0.302,0.26022569218595926,0.29546965706285894,0.035267185738025925,-0.27560886691216807,0.11218052612179645,0.16288740043499175,-0.4822386143552014,-0.33212500355017616,0.335527236846834,1.4210571070084033,1.219529092447169,0.6878693648822072
0.304,0.32979806681671303,0.46921284445252703,0.13931685404561872,-0.397793039549337,0.09506871216222129,0.30245238725006146,-0.6691691006887927,-0.5478655244705553,0.24582130055611442,1.716019409354963,1.5418338921841206,0.9210851099642472
0.306,0.3939753585004329,0.6725587063715561,0.2784031611255568,-0.5320339058055502,0.056661196509075966,0.47470662139139375,-0.8682571698111317,-0.7819078259212578,0.13156092771873854,1.9959594268646803,1.8790441768954342,1.1777531130953793
0.308,0.4559901054943256,0.8894214243665273,0.4331216279660811,-0.6716780016715984,0.008991320665472065,0.6607308888687977,-1.0626255194631018,-0.9843254731587214,0.053331080622260045,2.2879692708315336,2.237779552955553,1.4529385692277754
0.31,0.5138132977757796,1.095020105633133,0.5808191896391419,-0.8033191378227117,-0.03650391984968465,0.8365368367837054,-1.2413006869439525,-1.1450488814009234,-0.001904052469550362,2.5421784334030795,2.5729426106072357,1.7178438715957884
0.312,0.5570661432318654,1.2594188125270336,0.7021041642400154,-0.9067536413623551,-0.07487603780133133,0.9786370438924585,-1.3938962930100698,-1.291016161446577,-0.11380615665202098,2.6406995700279596,2.7930850467372608,1.9238303063586326
0.314,0.5799382579580836,1.3629749945270637,0.7830686361832099,-0.9695176799048847,-0.10255374299336742,1.0711117857227108,-1.5000238972133777,-1.4286180492337965,-0.32165322661285256,2.5203655405832532,2.8386725745571373,2.03521179453618
0.316,0.5879090722192846,1.4097215625674835,0.8220782644825894,-0.9971424822084012,-0.1171025983231991,1.114605669026523,-1.5424058613997604,-1.5276652464822094,-0.5718629516333037,2.245513885037853,2.7347105700931027,2.054790767573772
0.318,0.5856772784514136,1.412232967384379,0.8269494830489292,-0.9984121647233934,-0.12106359350768373,1.1183949397106365,-1.528788533988882,-1.5688569055781898,-0.790911396146245,1.923383062498647,2.548906791335604,2.008011337481543
0.32,0.5656962490836625,1.3601266980331614,0.7948146199336076,-0.9631901940921247,-0.11648781774933929,1.0758831313606483,-1.4766964278651127,-1.5648104724940477,-0.966953935503118,1.575072470770967,2.3081082371306896,1.9049558188344173
0.322,0.5073891535943088,1.2179645260899157,0.7107764462857034,-0.8624293504723444,-0.10477965763176297,0.9627600902176439,-1.373534220681312,-1.5243060777722297,-1.1409497881860906,1.1092044460510593,1.956750021711446,1.7166330581924458
0.324,0.3880233398156286,0.9759002892900788,0.5878677869076384,-0.6804794051339993,-0.10272900306908216,0.780954963296962,-1.18560155794715,-1.4340180235851891,-1.3407220303069205,0.4331204759903317,1.4135224461763487,1.396772498926271
0.326,0.2146310475830991,0.6964255956140896,0.4818070473132598,-0.4535254504858378,-0.1348798070784979,0.5887366971880252,-0.9215877523697433,-1.2842334396708608,-1.5189449173640388,-0.36241713674963777,0.7149169604935949,0.9550028299452681
0.328,0.044083398150368644,0.47470551320836796,0.43090216584321867,-0.2579201352749644,-0.1931509715185623,0.45215137178366116,-0.654826095586554,-1.0898068463941881,-1.5626320744471371,-0.9693521721077087,0.07528901600782205,0.4999409482327657
0.33,-0.0596646597468516,0.3470921324306641,0.40721839203580695,-0.14307708881245973,-0.23276875676830983,0.3760370298565316,-0.4619540488233753,-0.8888601968447085,-1.4104562683231987,-1.1343166477260573,-0.282157495772555,0.16436362998537518
0.332,-0.0894532760312215,0.26811808078913435,0.35787126616749304,-0.08919994946425222,-0.22388972729267978,0.3120279342344933,-0.35692645598699674,-0.7254199691545393,-1.145252730693955,-0.9355924968329883,-0.34222760669388613,-0.012742984210248422
0.334,-0.09111564389294471,0.17913014951623918,0.2702423589729353,-0.04376010518156794,-0.18231181147956166,0.2242074290037227,-0.29426319331337736,-0.6142312805628863,-0.9126073895689629,-0.6769052728776556,-0.27797952109947016,-0.09578390123060802
0.336,-0.1014118577435332,0.07295607348948142,0.17432953018011887,0.015258830901639594,-0.14035775972145276,0.123375706559202,-0.2246771142513868,-0.5245798961040744,-0.7698423783814946,-0.5545981330039808,-0.24420585274920184,-0.1567250964012314
0.338,-0.11466525263689302,-0.015292932308685838,0.09962493671762082,0.0670127539968169,-0.10931713861634876,0.041673789595001245,-0.13856569120670828,-0.4174763385406799,-0.6653910716480801,-0.531996854366335,-0.2574600478005201,-0.20837279995626987
0.34,-0.10928563291279268,-0.06059721890037617,0.04916464960728115,0.0874991535041843,-0.08021042629992796,-0.006854025423263398,-0.05802694348531342,-0.2915481944993582,-0.5415364216393015,-0.4927029838637025,-0.2588231106844999,-0.22874953556426547
0.342,-0.08357888809960054,-0.07353861199268907,0.010362134178921213,0.08099559528719519,-0.04703586310954135,-0.033475537044552015,-0.0009269659256918754,-0.17876218508317682,-0.4062451417252492,-0.40442604818793737,-0.22230484906348755,-0.21413682373298265
0.344,-0.056403507709106224,-0.07957290090971443,-0.02321420991106832,0.07009715086024179,-0.016818146190102738,-0.05351772042948369,0.035591242177106804,-0.10382576710591333,-0.30447002451278543,-0.3187621698676376,-0.1753097514546795,-0.18995115387336114
0.346,-0.04400750246933236,-0.09110747311242114,-0.04741178664410196,0.06950605773089383,0.0008298453336600631,-0.07106534494815141,0.06389829723565116,-0.061217118264259233,-0.2536432004035952,-0.279028206751942,-0.1476632805742128,-0.18196204371984043
0.348,-0.044795235149564135,-0.10466251448429985,-0.060276013846714535,0.07653665244980867,0.0068402355913914584,-0.08392896281221134,0.09112529190994298,-0.029790268105675345,-0.22773990387623655,-0.27459365895203885,-0.13937431466422212,-0.19314444265587835
0.35,-0.046891322806497764,-0.11531913769626645,-0.06879401584710187,0.08240626629496163,0.010670127931511116,-0.09318279678643036,0.1162333988926183,0.001954577604632167,-0.19633113014981296,-0.2725995532122942,-0.13593082378876056,-0.20993746392854223
0.352,-0.04632906800803903,-0.12499699192738559,-0.07883032852364263,0.08620202403845202,0.016262998513504653,-0.10239175849372831,0.13577833967739086,0.029648351219759804,-0.1594364504069228,-0.26091209680002553,-0.13147250204415867,-0.22205209490160885
0.354,-0.049497957739940035,-0.13614178195835408,-0.08648322192243046,0.09291862591207785,0.017867164944761257,-0.11118367320829758,0.1488998981553299,0.045876563800259965,-0.13664815487490062,-0.24956655739981704,-0.13054239478718277,-0.2299209246927528
0.356,-0.05890635435910994,-0.14548471135467134,-0.08614211746450912,0.1023658379868648,0.012027733256987742,-0.11585414012563791,0.1570060699646503,0.05213431327322345,-0.1351842353534081,-0.24698198989377235,-0.13708672553567736,-0.23706488175419352
0.358,-0.06761114530770052,-0.14972558284171372,-0.08164824751089741,0.1092079175106519,0.005329832702598936,-0.11663053368223536,0.1616696628760175,0.0563617169909989,-0.14235636481327674,-0.2500434136566111,-0.14805384383879114,-0.24363697821645464
0.36,-0.0689944564351842,-0.15144662439433312,-0.08223197407458262,0.11138001328858065,0.005884217516579961,-0.11872518500522805,0.16416115851086738,0.06291828267814559,-0.1433786975053994,-0.25257992754842173,-0.15653342722850863,-0.24778055900763113
0.362,-0.06438882305299838,-0.15456379812496043,-0.0902412101121427,0.11122925750359658,0.012973198835403849,-0.12480328887006731,0.16517450883388415,0.06947838242916464,-0.13491663987911756,-0.2528870491555943,-0.15876444283024507,-0.24836252544299028
0.364,-0.05910144236811337,-0.15852754312951178,-0.09957236902828775,0.11041497024546577,0.01993298605878914,-0.13137458135354751,0.16501453468582322,0.07254241129315489,-0.12286307414721989,-0.2521715005467975,-0.1570597762715703,-0.24662468370258128
0.366,-0.056053105164889275,-0.16046408862516737,-0.10445243885826604,0.10895718335079531,0.02297398446489014,-0.13413194089881816,0.16548058574645097,0.07260108708966576,-0.11389390034844508,-0.2505712509796054,-0.15621574487870113,-0.24705155258564973
0.368,-0.056144073200673605,-0.16034080211420337,-0.10413994971242645,0.10831054029200815,0.02223317021883516,-0.13323178740394034,0.16999240261032103,0.07328346898189535,-0.11042092254443539,-0.24747822946710218,-0.1578549472855216,-0.25358818909671327
0.37,-0.060012673875348546,-0.1611831796665452,-0.10112085710587765,0.11079423601777451,0.01867180907453785,-0.13220456902807912,0.17976145173023234,0.07662106949063557,-0.11060267413132888,-0.24395180196230234,-0.1590421543086794,-0.2640795580118033
0.372,-0.06509056494570487,-0.16456020424233345,-0.09947651644274541,0.11526168050373636,0.015356008790805722,-0.1337667709696822,0.190906873041207,0.08064657624027181,-0.11084624368179459,-0.24174731721654047,-0.15652956661150572,-0.2722553668611849
0.374,-0.06510518803920375,-0.16816543951970717,-0.10309048018162299,0.11703816945278198,0.01755621639886769,-0.1377226263345273,0.19735565924663695,0.08264160436713704,-0.10900263946708126,-0.24055813763121325,-0.15097287712771768,-0.27474659293383064
0.376,-0.05828988527481611,-0.16955791782798066,-0.111256777362739,0.11457544185475485,0.025664946566533172,-0.14200535311608886,0.19633134122761658,0.08365659708063254,-0.10557092569248766,-0.23819293412048043,-0.14645640135423627,-0.27300962690202557
0.378,-0.05265441497421078,-0.1701644843629647,-0.1173454400768442,0.1129584485030263,0.031605764506416355,-0.14452845738418266,0.19025054485727097,0.08730642587797392,-0.1011675960996904,-0.23323503384531327,-0.1462236179680907,-0.26973153444340686
0.38,-0.055900101505723,-0.17196885046063573,-0.11559875743648843,0.11639458305133289,0.02861312600022172,-0.1441869452969184,0.18407411495165016,0.0940926328508227,-0.09504561479847105,-0.22699849192074056,-0.14886752943989257,-0.26573215281929236
0.382,-0.06376385941381174,-0.17289249957492403,-0.10837944599306545,0.12080483838234912,0.020974702508639934,-0.14139721004048234,0.18149693957986449,0.10018303855920563,-0.08724705748434354,-0.22259354871485867,-0.15010497801880257,-0.26061755585220925
0.384,-0.06616400119775416,-0.17052010742406315,-0.10368449895641477,0.11993736326627337,0.018000804723611732,-0.1384492437367946,0.18335813384316604,0.10265027137975181,-0.079050420047221,-0.22145403352335746,-0.1486602470655533,-0.25579469026129725
0.386,-0.060787687264860314,-0.1668314380603412,-0.10581655346536202,0.11462180772830981,0.022122241782890413,-0.1378751954790786,0.18850297547547853,0.10271607645009868,-0.07105965310766933,-0.22174867837221718,-0.1475766174905155,-0.2542746090786373
0.388,-0.05357286718436706,-0.16413458779737922,-0.11073089769709972,0.10966792313417906,0.0279538341081215,-0.1388618418660321,0.1944756774512613,0.10265424906530032,-0.0638718858475295,-0.2210969884379919,-0.14897499208377352,-0.25636591689427246
0.39,-0.04972702106892481,-0.16099903231552332,-0.11147847133776616,0.10654381866067698,0.029901104958384373,-0.13747608694370464,0.1981293640340285,0.10264054415069614,-0.05891159523039268,-0.21883071083584238,-0.15074217671606316,-0.2593129778201993
0.392,-0.050159859429685774,-0.15664234975547398,-0.10652154800194603,0.10473683240956043,0.02699032351444383,-0.1324818678615809,0.198542324398185,0.10283610172528643,-0.05524960405885974,-0.2142639284653461,-0.1491442646044213,-0.26206790469636865
0.394,-0.05326579436961466,-0.1537791951679435,-0.10052163692029903,0.10479756897544562,0.022319920138206013,-0.1275670908560835,0.19890288989646848,0.10556177958800327,-0.04935697658494323,-0.20575010439927233,-0.14166657222161072,-0.2653581128917235
0.396,-0.05505053606564517,-0.15312869086785683,-0.09821633366863446,0.10524276073740316,0.020374122590521578,-0.1257298341011563,0.20218468565885772,0.11159161327990884,-0.04215794942521124,-0.19442686229437092,-0.12858128269057023,-0.2671352657373154
0.398,-0.05111661418666454,-0.15116851266083053,-0.10017407367779252,0.10225377068103274,0.02359463472691403,-0.12573472145998518,0.2057654359270986,0.11679787122658136,-0.04031944077164657,-0.1857848630061201,-0.11559021593093853,-0.2638097506827605
0.4,-0.04310057747623509,-0.14669032604279617,-0.10348897274307864,0.09621209206158737,0.029529465830913423,-0.1256209696196402,0.20403825679201365,0.11708676929418836,-0.04611629139662671,-0.18338337421584638,-0.11097650193338798,-0.25561002962413265
0.402,-0.038833885146105626,-0.14354646646745145,-0.10456915441821048,0.09285406560005234,0.03241432623906532,-0.12528438435069147,0.19571584067983322,0.11400109435892222,-0.053535177873876266,-0.18463693720891616,-0.11617781509932724,-0.24664539813496558
0.404,-0.04239837752741476,-0.14488238334225667,-0.10267021618716027,0.09545399978760734,0.029656565115152186,-0.12532398077530574,0.18559099687817399,0.11128334418981985,-0.057198080669437636,-0.18603473913074287,-0.12368283809274196,-0.24106133985194575
0.406,-0.04830362610581189,-0.14925457253461807,-0.10144253612330643,0.10051765102468443,0.025713799693483596,-0.12672257447406005,0.17994866712937477,0.10936831783199823,-0.057590765764967654,-0.18719353560305563,-0.12585573751842558,-0.24074321794836223
0.408,-0.04820378558219518,-0.15231252865085299,-0.10445670126289974,0.10209620813784542,0.026980223500141207,-0.12980960916587517,0.1815952155436018,0.10674652650790267,-0.056392403858258035,-0.1881106919363996,-0.12251561260047067,-0.24448498630591636
0.41,-0.040605426688230806,-0.1499083742474501,-0.10916605916622438,0.09750705277128685,0.03327145447527487,-0.13143105792402238,0.18768084399782367,0.10433712243314455,-0.05166748501244372,-0.18725032336261138,-0.11926817874282564,-0.24931265954070364
0.412,-0.03242027795119035,-0.14231514399447937,-0.10936934494463413,0.08976461567150139,0.03760129137968584,-0.12770241797353676,0.19226381987980296,0.10557955597917204,-0.04019651903714343,-0.18285400272602179,-0.11927529233661208,-0.25367458354294853
0.414,-0.03131942180383318,-0.13604217777569272,-0.10420074554765044,0.08536484099577706,0.035211324550981256,-0.12118345700793817,0.19211209110619076,0.11139102455330187,-0.025460686451842008,-0.17510372142014854,-0.11946154529023773,-0.2572122516677576
0.416,-0.03677383413365257,-0.1364751716967554,-0.09948109709260161,0.0871388369445029,0.02945921422017248,-0.11869033756652742,0.18870456983726216,0.11713306492005594,-0.017813410512647922,-0.16663213718184636,-0.11671692133702503,-0.2578958192902843
0.418,-0.0410111226983496,-0.1400715848608638,-0.09903627319469337,0.09059840633174539,0.026777655890084344,-0.12110592782316783,0.18498398903886248,0.11793743629363646,-0.02026990424397961,-0.1586672389964613,-0.11218274997182649,-0.2535724880991126
0.42,-0.03972494911368929,-0.13972209469653746,-0.09982359135893429,0.09062082310485976,0.02829360018557732,-0.12240202704893224,0.18260110868095542,0.11598605522087777,-0.021848801965759758,-0.14931384470932269,-0.1071096757295883,-0.2458534629847435
0.422,-0.036359000927361856,-0.13367067086065593,-0.09691184089923187,0.08726411433028158,0.029503530729388584,-0.11808427868562978,0.181531469580421,0.11815736073233755,-0.013401554710141065,-0.13881141470537986,-0.10162812545767361,-0.23886761724273414
0.424,-0.034326074878581435,-0.1250628234842421,-0.09041136206782786,0.08239194561480821,0.027698893064719107,-0.10986525073367334,0.18033357125680924,0.12599390828071913,-0.0008956400549625358,-0.13096112578476574,-0.09783601216339735,-0.23516221128872208
0.426,-0.03304891734448306,-0.11909237669375608,-0.08602343584259599,0.07776181409361084,0.02556144635176109,-0.1038721601010792,0.17721419316912826,0.13268712936209798,0.005231318725999557,-0.12725136448067606,-0.09766564251583532,-0.23505245725695814
0.428,-0.03246305546967581,-0.12021122765015786,-0.08793180352881043,0.07646457920363149,0.026139742607935647,-0.10462484219710952,0.17228667386390428,0.13205720499775186,0.004585250153980482,-0.12528125475432625,-0.09892757020085036,-0.2376504571452046
0.43,-0.03268186095143445,-0.12578741733350413,-0.09333246744419181,0.07851552851644598,0.02896372722280045,-0.10939953176474593,0.16856274525760628,0.1255984232571184,0.002844140467134182,-0.12267827208159178,-0.09742748998708137,-0.2410013134560422
0.432,-0.030968671919730295,-0.12745780808004215,-0.09677721582268374,0.0786497431858094,0.032216990633214405,-0.11170131457028062,0.169156539214626,0.1187350089924994,0.001732904442355396,-0.11852294993261514,-0.09207456742357968,-0.24381892375830985
0.434,-0.0267663021569229,-0.12247837418010285,-0.09606385127647073,0.07454934086166362,0.034012610877685825,-0.10932828932420624,0.1737722207387346,0.1161563623147351,0.0012146111614135574,-0.11224809771738124,-0.08541194757443635,-0.24617104397247883
0.436,-0.02530685229542198,-0.11648200150928183,-0.0914179479836409,0.0710434616744158,0.03197092506153907,-0.10468688669996568,0.1792071836232274,0.12080166004943553,0.00465488277076185,-0.10390831867986079,-0.07941108251822321,-0.24642021061622885
0.438,-0.02981346655810529,-0.11403486515534968,-0.08422813947890755,0.072049645003631,0.026066558731013666,-0.10026852211755172,0.18273955654566534,0.13055648554712856,0.013462157756427843,-0.09552700111631772,-0.07404066845742376,-0.24182953776422544
0.44,-0.03499047478164638,-0.11322252487764835,-0.0781086866327359,0.07444043226747439,0.020758116182706107,-0.09723182974808142,0.1840506186289606,0.13819042977330376,0.021984497229508116,-0.08999799695244452,-0.06985455815912149,-0.23352833633835024
0.442,-0.033634109128779566,-0.11012094798381439,-0.07641666767114091,0.07296644687719818,0.020632908078719238,-0.09539353437151792,0.18382496136686574,0.13953308200560646,0.024254126514333035,-0.08742036196519487,-0.06811504916346729,-0.22617577007578266
0.444,-0.026018599886087887,-0.10464691943484931,-0.07865889174658185,0.06726341877791649,0.025202869642449305,-0.09369812785084208,0.18182203428085303,0.1373033153280926,0.02186364039856558,-0.08437285883567071,-0.06877545156593709,-0.22282702039938918
0.446,-0.019234238238868346,-0.10095765025595971,-0.0817761948773162,0.06220640600981919,0.029858120796688335,-0.09242527298495248,0.17855398711788587,0.1352772994724914,0.02129578946378702,-0.07830367638405877,-0.07047104867329104,-0.22258946854235004
0.448,-0.01957520610685039,-0.10250510713458579,-0.08293881498293881,0.06283115876684826,0.03031625387924247,-0.09305792269412301,0.17744234096728645,0.13457428061867896,0.026383899040338363,-0.07110790680232677,-0.07070486362677815,-0.22200148291780314
0.45,-0.025781410061143307,-0.10707197309958319,-0.08126616639185585,0.06824569953992063,0.026769172753028102,-0.09520386072796687,0.18087986554526372,0.1350395563561058,0.035806868514293315,-0.06590349677224737,-0.0659556267693994,-0.21834104039024227
0.452,-0.029555201115430446,-0.10857678859511495,-0.07898313248534775,0.07141653016436963,0.02431461023729403,-0.09637818854974313,0.1858427745002923,0.1356628666183428,0.04597853297778122,-0.06136000195803104,-0.05513829440181006,-0.21232334282416382
0.454,-0.026033333117647113,-0.1043425068815719,-0.07816132479120057,0.06790097726629765,0.02607059391857227,-0.09471530960427356,0.1885031389768201,0.13605956492906204,0.05442100517523106,-0.053778312652724945,-0.042541842140497374,-0.20642924632701617
0.456,-0.020974075769525095,-0.09784240363734276,-0.07642118141009634,0.06191050095431336,0.027747210200903094,-0.09015459091144805,0.18998793355475666,0.13882097664434154,0.06094864649051933,-0.04396844816220601,-0.033776786744638757,-0.20142263023704987
0.458,-0.02161686990726957,-0.09312933866725935,-0.07076502936717577,0.05940357064025866,0.024353958200254718,-0.08388244021087012,0.19240139301328776,0.1457246447646767,0.0665961283510914,-0.03639115748918938,-0.029941138737044154,-0.19637756401607445
0.46,-0.025686279538568193,-0.09034326040441283,-0.06395180690796888,0.05969142305572727,0.018665539599420803,-0.07810400539164965,0.19294881672081432,0.15266947491005045,0.07199014630914885,-0.0330337599375227,-0.028237449876312323,-0.19068358903866425
0.462,-0.027088588138098647,-0.08884779610928088,-0.06137224453213246,0.05943149992233512,0.01668033808211664,-0.07563813573529142,0.18763225119255136,0.154586957155139,0.07721107587483071,-0.03248276742512384,-0.02579467905032194,-0.18479996355835906
0.464,-0.025936600568924367,-0.08938025025676492,-0.06315732720854651,0.059101314644436145,0.0184791711594029,-0.07722984191217207,0.17881852863048703,0.15348199487606376,0.08301980914994589,-0.03142216201196625,-0.020558007099229524,-0.17968808341493872
0.466,-0.025559811718006645,-0.09051614026410597,-0.06441786266366738,0.05970255452313304,0.01950564281340593,-0.07939350994975206,0.17329704858297976,0.15499581083830705,0.09133173828943396,-0.02530226629859396,-0.01141310579114303,-0.17539457280605816
0.468,-0.026297376415354255,-0.08925990084863253,-0.062302166243538466,0.05946858050358378,0.017692865298730782,-0.0780585728765578,0.17349642790279865,0.15925552764457354,0.10302485918970704,-0.013030270260139459,-0.00012265219354858228,-0.1710665295815657
0.47,-0.027252777774683986,-0.0863789035730976,-0.058792656161416545,0.05796472021940004,0.014903017927613282,-0.07392436175426331,0.17615220916897467,0.16163606073616654,0.11508741942162244,-0.0004784859863178907,0.009132733923540587,-0.16751387165446474
0.472,-0.029119632950698724,-0.0855651892979301,-0.05655756037216771,0.05787637860247491,0.012887062453025296,-0.0711238909588501,0.17821712128794165,0.16078203607692915,0.1221592114600641,0.006117987804617489,0.014031231363202931,-0.16729076629864784
0.474,-0.033194699015454,-0.08784102925521882,-0.05488293903664913,0.06095778189206589,0.010409999530513211,-0.07132316569100164,0.17948556622439923,0.16029398477581797,0.1222240046622905,0.008174910277010103,0.01708846832569151,-0.17015581085391202
0.476,-0.03962395160988401,-0.09057344584603311,-0.0510120605646981,0.06561601695510438,0.005228291342585357,-0.07172525934460348,0.18076318826229845,0.16330200790139054,0.11993024705145963,0.01204888824587292,0.02334883853940673,-0.1717077612563815
0.478,-0.0460143705292961,-0.09049267834466586,-0.04438243998176375,0.06845439980613438,-0.0016839916758597659,-0.0687888304934607,0.1819497870756767,0.16935387496386045,0.1234082953280528,0.02129748987973327,0.034112809862827255,-0.1689516256903171
0.48,-0.04742755112185134,-0.08520102547551862,-0.03767135208316669,0.06623070180714055,-0.005968156827389327,-0.06200621722701603,0.1820555052482638,0.17670868315603788,0.13721969918380225,0.03462905829097829,0.044935724708028035,-0.16351262431555794
0.482,-0.04039241327819365,-0.0739482318861705,-0.03343798980715887,0.05757587194682236,-0.00476847212287083,-0.053567414251985135,0.1805901478321041,0.1844245692672603,0.1581239325028678,0.048415741704364725,0.052165859796825184,-0.1575180058816341
0.484,-0.027960771246281862,-0.06024505490257379,-0.03200691022942152,0.04546461440951821,0.00021842079547336755,-0.04651220187118634,0.17829901120676014,0.19092187933623533,0.17816955890520864,0.059181688649643835,0.05795154671980932,-0.1506569107806
0.486,-0.017534334267261524,-0.05119916228134128,-0.033258782412142626,0.03623006885419705,0.005761089079795927,-0.04373392260285599,0.1768433718263545,0.19420640497278335,0.1920088997573054,0.06623406026246255,0.06624860755265335,-0.14269131597345
0.488,-0.012724827756117517,-0.049566925670881126,-0.0365891209438155,0.0327015874164662,0.010299378313140796,-0.04523988925862506,0.17751457067499352,0.19518991780949654,0.20038293294670068,0.07265874479169188,0.07730233952845852,-0.13550357757556092
0.49,-0.011392149586716357,-0.049066869286952176,-0.03783536345128591,0.030965396001948968,0.012215428946539753,-0.04570037998826162,0.17909177934021345,0.19667032239489474,0.20773191465255803,0.08246744418942611,0.08820529299012132,-0.1317195418800642
0.492,-0.011510598356435498,-0.04258041032899814,-0.03169812204796889,0.02708097184497097,0.009090386727261403,-0.039279182892320436,0.17813221350060138,0.1994503206903419,0.21934279301212758,0.09751934882412762,0.09686087581713872,-0.1318624885610746
0.494,-0.013621744550629629,-0.03176285187931524,-0.019096518889264332,0.022737989801866663,0.001499248952525723,-0.027281588864296005,0.1733036431646645,0.20355639380866916,0.23838387421638763,0.11655284132874977,0.10367002712112941,-0.13273231144571415
0.496,-0.017463440747250085,-0.023358097612237217,-0.006858273318412643,0.021091134315873443,-0.006368690950255057,-0.01631733948386546,0.16758540147712436,0.2101334981249186,0.261285771776629,0.1353219326881167,0.1105120337058317,-0.1298453196882941
0.498,-0.020648937048217617,-0.01963213137105969,0.00042467851059333644,0.02136305913132348,-0.011279050294928745,-0.009965719263134096,0.1637015122661243,0.21834074630135172,0.2790542916774218,0.14916023502357847,0.1190222726875555,-0.12196315383276861
0.5,-0.02116302531039708,-0.017171460452629596,0.00391381295640012,0.020323623375858916,-0.013213038054389902,-0.006409647187825206,0.16019186885178124,0.22438804087492564,0.28694578425170847,0.15699974835774824,0.12852543684332174,-0.11158140023120702
0.502,-0.01883100862721645,-0.011760035881183318,0.007253955942601759,0.016094931590932407,-0.013884241187719432,-0.001969956154839893,0.15490553358592415,0.22655420673758986,0.29007206757487625,0.1623451198236603,0.13641218531762708,-0.10145505736078518
0.504,-0.014666065757716881,-0.0019664026892572684,0.012713567365593386,0.00925257004309063,-0.01497688302219405,0.005467613031768168,0.14899216227419285,0.2270186976804892,0.29669252374479826,0.16990225147045887,0.1417011733901553,-0.0932783765593113
0.506,-0.010527093609962634,0.009078165450288032,0.019224354890841105,0.0023389231570093653,-0.016786796001640205,0.014200199410252672,0.1449336104859412,0.22712827258930476,0.30808485239418937,0.18086551066131515,0.1458741196931185,-0.08862491129384828
0.508,-0.008595345698947878,0.015682944473909523,0.0236110715858712,-0.0015189727690571625,-0.018263911160820503,0.019805254752969344,0.14335186702856473,0.22559299469305008,0.3183298365728529,0.19169139153582543,0.15043203477425124,-0.08764167157121085
0.51,-0.009707648673521219,0.015829789635678163,0.02479631699441929,-0.0012114183475243618,-0.01907203388228763,0.020318949645102245,0.1429122208191483,0.22242259769530223,0.32311767903276406,0.19848360250976957,0.15638928197501425,-0.08751849514539128
0.512,-0.012729144729232936,0.014098192589450678,0.026139480676906846,0.000780794499989417,-0.020770349232796016,0.019389811913141514,0.14186442886523892,0.22080895389207228,0.3249595897487445,0.20223580583986678,0.1643087259467,-0.08471889539471737
0.514,-0.0160231642581324,0.0167549019409856,0.03229960460099315,0.0005482345204386451,-0.02521980067602543,0.02287266024761054,0.13947589101962354,0.22401002544300638,0.3284982425141887,0.20752321915558053,0.17227448534241907,-0.0785056147761657
0.516,-0.018811037004745967,0.024893786102389355,0.04366485510984063,-0.0029063852547920915,-0.032177291738961944,0.032258195351893844,0.13615042858072646,0.23154393912770208,0.3324565584055651,0.21555962846334187,0.17655661229171093,-0.07097260892027421
0.518,-0.020359371280443628,0.03399328075647086,0.05478578939611551,-0.0070372403720205985,-0.03846379172407179,0.042587996859282835,0.13186422917999,0.2385234808517064,0.32971706647423227,0.22166859539414538,0.17601577787925482,-0.06380490316013276
0.52,-0.018912650353599333,0.04007127165382648,0.05955228257427568,-0.010113370325388478,-0.04016782369757938,0.04824011311448732,0.12535110701094307,0.2390053342740668,0.3172489516804269,0.22046690346075432,0.17226072348074173,-0.05759975549218753
0.522,-0.013652738230972952,0.044087039923658186,0.05799574417013474,-0.0135891967448258,-0.03695004585765617,0.04950120289181281,0.11615288118666664,0.23159981541443397,0.3026233199195509,0.21106632941579317,0.16566736298407161,-0.054020702868699456
0.524,-0.007439910752208099,0.04904388011243239,0.05623920427583452,-0.018655483578562792,-0.03316735464270438,0.0510785110687554,0.10707309064004795,0.22177973466568826,0.2969212305921658,0.1980282214918059,0.15729595086739132,-0.053876986643295
0.526,-0.005324096479355385,0.05451718280416701,0.0591709661204936,-0.02287361318285915,-0.033379589273941794,0.05537591812642281,0.10239604159019977,0.21628771736352687,0.301758087080732,0.1885882490175,0.1534677014396976,-0.05413124379728767
0.528,-0.008971523802274225,0.05715828948640821,0.06517768881259131,-0.023165464169491484,-0.03755612403612867,0.06015567403981834,0.10263300555695502,0.2151900935976771,0.30648694058718223,0.18614101997322316,0.1601877538750963,-0.05155402971779939
0.53,-0.013781243478174991,0.05596762541030466,0.06868876195477558,-0.020599830645256587,-0.041367393895131464,0.06209072447273617,0.10334851224646804,0.21245468504762285,0.3008916803103982,0.18650356617414868,0.17382956659607612,-0.046845509180813885
0.532,-0.01423378444661657,0.05306336399854287,0.06635854672740929,-0.01856419813054382,-0.04108287952373762,0.060073925744472144,0.10070558163841918,0.2047782723115871,0.2877140730134017,0.18332027444129145,0.1839435686752761,-0.04226674414898438
0.534,-0.01080228671706204,0.050819833763479955,0.060972845058532656,-0.01831910535626771,-0.03787048339439299,0.056360396528365,0.09618061064249814,0.19600508415362233,0.27637972576404346,0.17421499343493158,0.18388078203828973,-0.03879189808422439
0.536,-0.008299713784595304,0.05195225114689758,0.05986395266172389,-0.01972007596370646,-0.036541413027022136,0.056114847375718216,0.09429582101114782,0.19131656710148304,0.26753542455344387,0.1601146525622306,0.1755977093675347,-0.037090581735719795
0.538,-0.009295677799016404,0.05835176730900411,0.06740057379646196,-0.022837689550057848,-0.039957943301729075,0.06262961477834358,0.09616419999123896,0.19061387311321368,0.2537051598894068,0.1442469155806783,0.16588339021996196,-0.03796235357259949
0.54,-0.011940732266816925,0.06694633508650452,0.07875353243180844,-0.026512783853915513,-0.045536340748998594,0.07204828331893268,0.09699013156925797,0.1893972942386782,0.23430501687167685,0.13238242440984846,0.15892943355143346,-0.04068856824893713
0.542,-0.01310642060810765,0.07148229078746618,0.08458730482030712,-0.028630735315782942,-0.04831398015408859,0.07692502922846511,0.09164869736640568,0.1837917171140307,0.21955136754682716,0.12750486271924144,0.1528638838086339,-0.04319047441477254
0.544,-0.012303460356003887,0.06957411517118363,0.08192473232841285,-0.02829432889556475,-0.04704990032086852,0.0747093039809681,0.0816569514461397,0.17411914606130732,0.21661085783038533,0.12414636529300778,0.1445735387723397,-0.043926336433279714
0.546,-0.011589204046797051,0.06436275853113517,0.07586157974267704,-0.026089879832975952,-0.044640457884191104,0.068955640244879,0.07436131009746498,0.16455666421836568,0.2187328227701148,0.11405188637799275,0.1363334358611423,-0.04194545968406635
0.548,-0.01106705983482842,0.05998075909234762,0.07070496278920627,-0.023812666993270046,-0.04212405422970602,0.0636122666758302,0.07498811448189216,0.15847881944897924,0.2132963253613747,0.09719787310665952,0.13362066478261586,-0.03720797108163448
0.55,-0.00798598655548988,0.057948003677446985,0.06545972049039826,-0.023632990806328573,-0.03719785602732255,0.05958687002803705,0.08098905022503838,0.15494521989900586,0.19880883353613504,0.08207321409808041,0.13594838354065122,-0.03351868693046799
0.552,-0.003200785396822868,0.05670708513856431,0.059514876626529066,-0.024773463872195266,-0.03085420367954793,0.05616000540255274,0.08562033033080241,0.15140901112305705,0.1872984677578282,0.07486824102404879,0.1354818763839421,-0.03664004532367425
0.554,-0.002781003900166762,0.053608268755271214,0.05610069101919541,-0.023371303748789457,-0.028901789786692552,0.053059792048118455,0.08593846820805727,0.1474706120604723,0.18675281171748798,0.07182722293140568,0.12726438496916762,-0.04521687521015503
0.556,-0.008629505785612814,0.04833490087441223,0.05669723849018902,-0.018383271765552454,-0.03304088747410624,0.050473340339217326,0.08423751111438571,0.14393278251503908,0.18872569477907122,0.06399710989206293,0.11579345526135484,-0.05003615036427081
0.558,-0.014714890488996967,0.0433308174679464,0.05785082145373837,-0.013404016227698514,-0.03752775414952325,0.04836181511520115,0.0822840141639601,0.1407173338515211,0.18020743885451648,0.047858961001288614,0.10873296253521651,-0.04700759234389441
0.56,-0.016228051099159636,0.040588567087839325,0.05678968288080249,-0.011280749052423355,-0.03803268637043764,0.046840924817652126,0.07883918494008052,0.13741269728866076,0.16125469907840448,0.028507626413037095,0.1072394185326658,-0.04258450210360092
0.562,-0.014593622541511465,0.040284994095700404,0.05496629786765803,-0.011730750841799083,-0.036344222689611634,0.046486004952315786,0.07374509379153216,0.13401537162253488,0.1437583254820033,0.013414771101045563,0.10517088080084944,-0.042887248255597886
0.564,-0.0123282617018737,0.041164660386909455,0.05355670086637445,-0.013405309309687731,-0.03447488692719882,0.046725116135462375,0.07064083893614499,0.13114979970105778,0.1379708769531446,0.005736985416109626,0.09755700713450553,-0.04654193661698174
0.566,-0.009687285252181555,0.04044806496544362,0.05012105319718763,-0.014623146610666606,-0.03105837097604857,0.04473038160497291,0.07371374281968006,0.13034649360697254,0.14407273855784802,0.0027552605617385,0.08677273026885325,-0.0500659957943655
0.568,-0.0062563863364018,0.03627405850608642,0.0424889220514427,-0.014107360151543884,-0.025124766101799572,0.038591088534697775,0.08166777008476374,0.1311447747247753,0.15143296689062458,-0.0016136416993762178,0.0785705588542858,-0.052967126162258404
0.57,-0.002357885757367533,0.030569129891960516,0.032914616319651015,-0.01254739755313596,-0.018785617417932783,0.030759731252822907,0.08649884576620036,0.1289850970157392,0.1466437594791586,-0.011454147837284875,0.07565165232010877,-0.05622343608066172
0.572,0.0007940361680506961,0.02657238107447034,0.025772998812717655,-0.011472968699649701,-0.014663666152697315,0.02528087761697643,0.08235518805011147,0.12155200386822526,0.12832427742122599,-0.023594962003433907,0.076871281015957,-0.059452188105977154
0.574,0.001270335445969954,0.024560733782494217,0.02317377275304973,-0.010520698789468338,-0.013635150696600947,0.023145564654021556,0.0740701656171284,0.11461236964364374,0.11034619062698957,-0.0307083582936882,0.07940817759992487,-0.06045208735691815
0.576,-0.0020401536350062484,0.02255060627093286,0.024261320093803752,-0.008012823216212961,-0.01548796485163849,0.02282672876310988,0.07128804576158444,0.11539746923672606,0.10613930873304048,-0.030867440190142523,0.08115057532225799,-0.05652583192172447
0.578,-0.006698038085437622,0.019816846298041927,0.02608330372768469,-0.00446643710963858,-0.018347799398504276,0.02261847890652722,0.07621220798436684,0.12250041313205984,0.11468501785674023,-0.029278568731608185,0.08164864239539725,-0.04744577378897271
0.58,-0.008076401099785125,0.017147814773397156,0.024965490770951195,-0.0025998470589551335,-0.018582855167718022,0.020774161288281568,0.08174573051919136,0.1268553467387561,0.12355513604743223,-0.03181007081304402,0.07985012275547712,-0.03819615166284479
0.582,-0.0054270472966873925,0.014739271893865757,0.0201953688297581,-0.0030100221623314684,-0.014948298808142083,0.016491673724132797,0.08055661881221882,0.12203897260278225,0.1221651034427169,-0.04085380648546744,0.07339054625334201,-0.03569690498324319
0.584,-0.002900486949730843,0.012113392073662447,0.01516302579812304,-0.0031425622315480696,-0.010577520024064833,0.011454055320701746,0.07370121658137836,0.11157222821149307,0.11210412065883675,-0.05365907317148613,0.06244207386470933,-0.04082712402799211
0.586,-0.003591604220782382,0.009059336267472483,0.012713913971679175,-0.0012021444189281463,-0.00885821889344624,0.007905530503962092,0.06911512835981753,0.10498644538300017,0.1042189632838711,-0.06301359313555019,0.05236565438803268,-0.047023823820407366
0.588,-0.0065959963430966915,0.004980812232015469,0.011528734731377967,0.0021583174399604204,-0.009803079279808556,0.00534001302397381,0.07167945875096089,0.106447334209847,0.10429401925494523,-0.06394251910674818,0.05004122033982555,-0.04897146278995389
0.59,-0.009314121063610705,-0.0012284400544665165,0.008028466364552385,0.005898864182205775,-0.010468225450395349,0.0009374061606952243,0.07775397411587423,0.10983168565047288,0.10630802881714878,-0.05870927372735668,0.056576606749207066,-0.04887647283039766
0.592,-0.009694269609316457,-0.00878750764192937,0.0009052813056398909,0.009375402731553397,-0.007899866555762388,-0.006149320833712369,0.08087707860716851,0.10767574627817326,0.10322606135685752,-0.0525493341263577,0.06551475085147286,-0.05065642623722339
0.594,-0.007819088409627684,-0.01419706468494758,-0.006347610867846401,0.011775107728276992,-0.0029247321900538244,-0.012350204877883054,0.07946202669467187,0.10145966313548223,0.09737472835264015,-0.04884546516859625,0.06948207837793459,-0.052953277900725
0.596,-0.005886395178415601,-0.01480403381917725,-0.008902328774396777,0.012505640346290122,0.00033089770040346887,-0.013562930715354322,0.07659772726976924,0.09817625464868,0.09463341331667068,-0.04939440197122785,0.06623774654752378,-0.05308021075633751
0.598,-0.005138272907981274,-0.011642305105300583,-0.006513271675443778,0.011414929583712518,-3.1283009694403854e-05,-0.010228736088286844,0.07505556830564841,0.10015286766089264,0.09503212565639317,-0.052961250263808025,0.05803864228038795,-0.05234687544282183
0.6,-0.004669564641341264,-0.007939161125855175,-0.0032823578461198865,0.008895226879413527,-0.0017100703197189002,-0.006323029935923452,0.07495147522170913,0.10392012430854583,0.0946414890133853,-0.054806883617430066,0.048247259110018224,-0.052957042224120426
0.602,-0.0036344316515438233,-0.006210123487250689,-0.002576745213272181,0.006212954595284568,-0.0019487104151805156,-0.005032203712959663,0.07499778660470278,0.10675079947863501,0.09169168691652332,-0.05315780847540188,0.040295358181327484,-0.05430557228235808
0.604,-0.002427132235354981,-0.007082122906336022,-0.004670470183068206,0.005109479435278989,-0.00033657573051142954,-0.006978620617909433,0.07463203799211968,0.10890441942956199,0.08747420340090531,-0.05219563855961391,0.03736817441648553,-0.05487823194136401
0.606,-0.002345316144188174,-0.010439528017908397,-0.00822186739708559,0.007106676117139936,0.0016805082237607526,-0.011113114785109034,0.07443520764226005,0.10992931014221212,0.0847584698498379,-0.05547995010719737,0.039210137917313266,-0.05499640539544125
0.608,-0.004181155955624807,-0.016094886155045104,-0.012264865969936367,0.011991498931189937,0.0029562432441693903,-0.016019529882189475,0.07449984563607481,0.10765218290469544,0.08553681514037507,-0.06095715383584304,0.041360742551519974,-0.05618482499153423
0.61,-0.0070294510536895284,-0.022614780807930033,-0.016164036627503764,0.01711648388124471,0.003647285937975718,-0.020531232986670155,0.07416879579349184,0.10255685356478679,0.08797160698658411,-0.0640629629008888,0.040143994970498205,-0.05876695229642638
0.612,-0.010003923110602069,-0.02800321957048865,-0.018735901298631272,0.0204672263051355,0.003573530551246941,-0.024088153765246124,0.07396418552062314,0.09928413911072162,0.08757296752268007,-0.06325622130480513,0.035253227316706964,-0.06133577261565941
0.614,-0.013366837292848118,-0.03172468284197224,-0.01921214500750162,0.022734332661010777,0.0017983288924374328,-0.02674136538694222,0.07555377998373125,0.1008199642496929,0.08218291908640585,-0.06137440443749528,0.028175439217821015,-0.0629017414447794
0.616,-0.01709252911610052,-0.03406866142926979,-0.017835034963366345,0.02502947059501948,-0.0017056686118004038,-0.028123298836298275,0.07893717107438876,0.10427717851065138,0.07358614610389212,-0.0619212060618368,0.021765626567362376,-0.06414824654770052
0.618,-0.020864889323183818,-0.03481112849507344,-0.014535828459603923,0.027376830311129155,-0.006153166904357729,-0.027170900651604324,0.08166864543744097,0.1053546318242414,0.06525363406659623,-0.0653647497562413,0.018637911269174034,-0.06520651795772409
0.62,-0.02427994036740911,-0.03362377664583039,-0.0094746680845446,0.02924439864506794,-0.010425666381784614,-0.023790076801580587,0.08139113495132398,0.10296197735695334,0.05923609138113088,-0.07023368326072031,0.01742168557478721,-0.06450631271726955
0.622,-0.02463148749227362,-0.030637938391115945,-0.005850243108118056,0.029032256229011965,-0.011571257742363832,-0.020129625899745318,0.0770627812851371,0.09662445442801867,0.05375832009934588,-0.07658665948630693,0.013333997331536344,-0.06233240982313173
0.624,-0.01854285513958385,-0.02663870595815187,-0.00806615815979101,0.02482966314358865,-0.0065971212801642694,-0.01890674966074257,0.06913605531369854,0.08595799839746589,0.04608273298948724,-0.08527695250671267,0.004452155281725722,-0.06195007129911045
0.626,-0.009413524256741055,-0.022677684384903363,-0.013601103239046055,0.018090850820950386,0.0008566342600374239,-0.019313893975315216,0.061438330648572154,0.07611698906710256,0.03884849497310353,-0.09343560769595514,-0.004242695847509941,-0.06399639524811183
0.628,-0.006365653249197307,-0.018145855563951336,-0.012292258424693791,0.013086530189112398,0.0014743267551883962,-0.016149023657550027,0.058996989031516164,0.07520791442963402,0.038553514436365156,-0.09518294780910035,-0.005749408178189759,-0.06377001795635485
0.63,-0.011764972657061057,-0.010277986585105902,0.0011935116527022384,0.010747734530875876,-0.00797964179242576,-0.005509784788988244,0.06128398943986336,0.08264630112496556,0.04628419973886198,-0.08914246060213302,0.0007656676979819037,-0.057230341356278254
0.632,-0.01865485900317558,0.0023859506208296207,0.021074706648411975,0.007996672023749336,-0.021177058468723545,0.010744148575131715,0.06344417968239824,0.08850213026476601,0.05503740986475011,-0.08100417793289744,0.009525375480334199,-0.04698900088357724
0.634,-0.02212624390902451,0.01818904693396953,0.04036474629775984,0.003150694491355021,-0.03261641466077579,0.028606276807785297,0.06490190337994196,0.08732165997307519,0.05805378719682651,-0.07643021896449484,0.014728972955999621,-0.04000745409156613
0.636,-0.024230569933933504,0.03508762055313229,0.059054254587584135,-0.0028786006435572793,-0.043229370049536184,0.04663711893010056,0.06892285602035038,0.08463627612901614,0.05629534649645352,-0.07576724356433429,0.014570461593721527,-0.03985556249912683
0.638,-0.027912672362998898,0.05125576645785508,0.07868077027995994,-0.008689168613026639,-0.05459534667497396,0.06398849894774582,0.07456306873151873,0.08697857711908304,0.05578984995071161,-0.07711523011338942,0.010344443695693368,-0.042833698846859315
0.64,-0.03208017196791044,0.06363412156797325,0.09539315087316948,-0.013207189328466509,-0.06431025032123774,0.07760367075669547,0.0772994834570261,0.09263357778468839,0.05980671550695555,-0.07980401159238147,0.005250909606663377,-0.04244056376243712
0.642,-0.033346769354271416,0.07068263323552976,0.10405885945627835,-0.016652249377488947,-0.06919187396559122,0.08551605333365252,0.07657701978129018,0.09574240019029878,0.06608325928652606,-0.08327581421165918,0.003894356393758961,-0.03611302249031532
0.644,-0.030864518020613414,0.07547248151553394,0.10654219154951713,-0.020676817915979778,-0.07005342103916633,0.09041679528809064,0.07723059071052811,0.09490552023386675,0.07135187136240913,-0.08571816543795273,0.009164711449387644,-0.028366272921972642
0.646,-0.0271153067527913,0.08286582432263274,0.11019148618744332,-0.026733136406484864,-0.07073239533520333,0.0967790084184519,0.08379263359924764,0.09437369258088817,0.0758365829221168,-0.08529608233868673,0.017469821532117038,-0.03044750487128712
0.648,-0.0232732549356071,0.09379474716894941,0.11733642785204328,-0.03483129576698219,-0.07228633727973185,0.10495061157023468,0.09436761908754251,0.09778658560703174,0.08093684166938206,-0.08224297535665889,0.02106351865462381,-0.051738218603181285
0.65,-0.01682034900317453,0.10383527112761716,0.1210070343636159,-0.04351072305700149,-0.07042313061903457,0.11005794297868819,0.10073518886674247,0.10303665358330472,0.0846233756692759,-0.0784785123037642,0.018295184118426445,-0.08465290699577067
0.652,-0.006353803770206605,0.10792402603675277,0.11453117292130177,-0.05036399651101748,-0.061591196886479856,0.1079281548063489,0.09697140883724777,0.10504994225084294,0.08329996245466029,-0.07504342684359498,0.015882015112984562,-0.10689598381852476
0.654,0.003487591796591921,0.10407164798388524,0.10061797162630849,-0.05248148672774251,-0.04953365316856639,0.0994118217565746,0.08700284159256096,0.10225803642700744,0.07666816159182496,-0.07301293305658574,0.017514609098111485,-0.10685985712306217
0.656,0.006942911875810244,0.09204282867674404,0.08510461591388906,-0.04800183581383107,-0.04001579970325681,0.08657415408849466,0.08058089142060045,0.09831189415419646,0.06759139366965562,-0.07521227379149245,0.018013535547571107,-0.09606289618414297
0.658,0.005669026500086313,0.07226458937240716,0.0668484003409891,-0.03827581552923056,-0.03142557215921447,0.06843628995064734,0.0826860579747421,0.09836250985181234,0.060074000228012396,-0.08126580109974642,0.012601376971126385,-0.09107299609668192
0.66,0.005954304750008035,0.04686450008736694,0.04136304147286356,-0.02651747387728549,-0.018221031988457644,0.04372547209138453,0.08896941694816889,0.10353504535046468,0.058057684957107634,-0.08615746328964162,0.002604487936826035,-0.09510357668355379
0.662,0.009041516479312655,0.02005349350633409,0.01132254915333913,-0.014506460954849414,-0.0014860186977366412,0.015802966115789813,0.09103685373781449,0.10853166106828675,0.060607208565214905,-0.09017770388773878,-0.010744883454788344,-0.1012022343308887
0.664,0.010381985522713617,-0.0032019787775331232,-0.013599468981548443,-0.002659316027115261,0.011320182348036377,-0.008218694902843144,0.0850789158150581,0.10695765239879809,0.05973412096825959,-0.10110010188834845,-0.027589893763572498,-0.10389647839235722
0.666,0.006902788612895823,-0.020459694904684737,-0.027533304510126855,0.008486172846206159,0.016173242455260684,-0.024306192802630737,0.07492837796655659,0.09908851880170906,0.050070671752057504,-0.1201586827626455,-0.043547481399312325,-0.10402841273538713
0.668,2.4993549557285756e-05,-0.03371996854699513,-0.03384761742876916,0.018811281930898174,0.016101401994461802,-0.035079807842699415,0.06659664130156595,0.09148130401487489,0.03725827241061989,-0.1362894483916739,-0.05212948861025185,-0.10632653012810017
0.67,-0.007134863725712529,-0.046054890356193104,-0.03897799418111984,0.02841629818100457,0.015615668764761342,-0.04490862180982378,0.061533099431717975,0.08911768778780561,0.030351579503066238,-0.14017195762681203,-0.05290259673171044,-0.11358784462612592
0.672,-0.010815032824459246,-0.057336669439147954,-0.04664925690003755,0.0355570276663938,0.017711813238383726,-0.05498167681968129,0.057582153380845776,0.09138799901666761,0.030989747231948587,-0.13547035360836313,-0.05073718403299052,-0.12205447998882926
0.674,-0.007420335877782203,-0.06622584449831494,-0.05889565152874299,0.03809733458954579,0.0251804976943173,-0.06539539709296951,0.05393950136311226,0.09562184625118006,0.03415171116318954,-0.13203933919957894,-0.049033708930558834,-0.12433871438524907
0.676,0.0015264210676411108,-0.07516268475635106,-0.07655685350030625,0.03828771431621117,0.038183739408437174,-0.0781713876697681,0.05000384781365997,0.09885251155811874,0.03386670450300329,-0.13480434120113444,-0.048659348316064104,-0.11848231769122969
0.678,0.008855611155633172,-0.08766325183693212,-0.09625702664471626,0.041209499442707825,0.05149681477220743,-0.09376289325960456,0.04194626280446615,0.09492996244998998,0.025803962308047806,-0.14253339295972242,-0.05074704185408842,-0.11111232368684651
0.68,0.009662662499414195,-0.09998086953216886,-0.10951368574682994,0.046941319034836886,0.05830621027354718,-0.10592891623920402,0.0267222355621331,0.07775726921048925,0.008986139936094734,-0.1528402053052335,-0.0567090762738635,-0.10946716562814283
0.682,0.006358162731559821,-0.10187759608278839,-0.10830312741330132,0.04897899193049525,0.05615830189525064,-0.10543980551735496,0.008096733427354357,0.05161576199876636,-0.011376617605117637,-0.16366684298968115,-0.0659460653798088,-0.11229504142927381
0.684,0.004849758924503224,-0.08743803341063179,-0.09239517784537851,0.04171441751618828,0.048011570613503654,-0.0896913470852461,-0.005605633704362772,0.03134244596540639,-0.024450877923537274,-0.17020647984706955,-0.07371238002053986,-0.11100251812599744
0.686,0.008044283801511218,-0.06158175263473435,-0.0696217497486598,0.026785068945073664,0.038437099348169856,-0.06558493783799645,-0.009706804925874413,0.026713045201176577,-0.02299792143454872,-0.16662793784614185,-0.07312009139580582,-0.10007205434862476
0.688,0.013461274133950008,-0.036068639571841546,-0.049348927828263375,0.011763243565310381,0.030146687469998743,-0.04342918617472083,-0.007095212679340236,0.03192636311288771,-0.012487195162933194,-0.15459203404736258,-0.06325159799690776,-0.08407428665776955
0.69,0.015262038719840873,-0.021792969413885293,-0.03669399418034773,0.004780449777288695,0.023423839481848646,-0.03029591239912075,-0.0026285775305163296,0.035134975312329446,-0.005118687908513366,-0.14469505807521793,-0.053512868638679344,-0.07307753181931129
0.692,0.00851841007996529,-0.02346354969160619,-0.031570265612042514,0.009697782621717426,0.01722881237174449,-0.028094207444353828,0.0038945328873586454,0.03371922517239488,-0.005540900682104388,-0.14489625258361022,-0.054075124938925724,-0.07313779540274958
0.694,-0.004631334751241112,-0.03669316771650402,-0.0318298163947361,0.022382651155067473,0.011908977077657932,-0.034412169639113345,0.014544673967281057,0.035120056182410694,-0.008700495495547304,-0.15176065056805516,-0.06376662797622075,-0.08188787728664085
0.696,-0.01407253164888355,-0.05083545645217443,-0.03679389217533581,0.032955339520736975,0.0109165675404449,-0.04459389412207621,0.02490192217227883,0.04342346492828955,-0.011024105825895787,-0.15766713853661446,-0.07349672522600213,-0.09136779499888345
0.698,-0.012875129333035926,-0.05929453206387475,-0.04655489726847407,0.03626905750854321,0.01669279123584701,-0.05508600328673832,0.025691700305998648,0.050295403507013815,-0.01669510025191502,-0.1622103974586191,-0.07876183604145388,-0.09478864291588171
0.7,-0.006811554885854367,-0.06487465360940876,-0.058118505451714056,0.037221339637758546,0.02522117718651909,-0.064518675095434,0.014316572448503949,0.04433976261820104,-0.03010607241844031,-0.17047389931773876,-0.08276323325059204,-0.09239676569325114
0.702,-0.006239466400008635,-0.07207084812000564,-0.06578714328079208,0.04194092646948925,0.029212452565402388,-0.07151885780979704,-0.0001448067821572895,0.026368940929695803,-0.047322117501916415,-0.18350145562208287,-0.0894006326755433,-0.09080334841792083
0.704,-0.011423428607439685,-0.07908270204920513,-0.067608019815608,0.04810568945622322,0.02753872869992321,-0.07463668969368928,-0.006872776667882295,0.008201530110332063,-0.06030200464040614,-0.19692594815227107,-0.09848081440352392,-0.09521998492210511
0.706,-0.013559117177320184,-0.08220144269147547,-0.06864159905817659,0.04937336566356724,0.026728642055707148,-0.07576607888210042,-0.004442990354418321,-0.0009837915460122783,-0.06704585438030544,-0.20776793181213257,-0.10784819031243437,-0.10409446974843165
0.708,-0.009738222783829574,-0.08377274230167443,-0.0740619921406066,0.04670289111224667,0.030742522337745187,-0.07956590026196059,0.0020322464046425917,-0.0010468074193178004,-0.07165008446690062,-0.2174195549739551,-0.11677675907221155,-0.11283369927582054
0.71,-0.008063738868217946,-0.08895084970577896,-0.08090062737938239,0.047864260143513415,0.0345360013543322,-0.08658221150449527,0.01008208896685322,0.002528350399273965,-0.07572352319243893,-0.22755238086255408,-0.12617828970887396,-0.11970497026648001
0.712,-0.015862132639660655,-0.09752691850439983,-0.08165626845790745,0.056403276286691326,0.03140883809796279,-0.09149948339363967,0.02036205867308812,0.004271048815887831,-0.07702676119020897,-0.23712366637229,-0.13629839536435964,-0.12601838307029345
0.714,-0.029884022560907966,-0.1050035434533636,-0.07510808308907685,0.06762886048567732,0.02230614579011145,-0.09110881809616724,0.030424246618974304,0.002969514365304553,-0.07670409979281444,-0.24473679521071623,-0.14543888840207772,-0.13268232788536102
0.716,-0.0405148571904531,-0.10906094888237262,-0.06854527646640056,0.07508296971722377,0.014540581201424641,-0.0892236027229022,0.03373258087730386,6.810656789193456e-05,-0.08086227156952791,-0.2510151755069543,-0.15183272958586003,-0.1388325319540501
0.718,-0.04257480865202626,-0.1110562635003273,-0.068487306414736,0.07715864411302806,0.013181654965730198,-0.09088372691108423,0.027776191706880404,-0.004868097813731087,-0.09327446546225178,-0.25696524015068195,-0.1549391582155723,-0.14294102324271787
0.72,-0.039968128298434734,-0.11257844763328914,-0.07261355893881948,0.07696914046535915,0.015861778241682205,-0.09494355342432544,0.020007059083466967,-0.011511774841838757,-0.11000727478825134,-0.26197432865820647,-0.15494394528452188,-0.1432791758099155
0.722,-0.039785190508520675,-0.1135167203004836,-0.07372988387795945,0.07769594700566691,0.016595672202442985,-0.09614904989037587,0.019195882709243325,-0.015085088446286895,-0.12231680356384314,-0.26554509115704006,-0.15390851955358784,-0.13934324189449288
0.724,-0.04454825277366856,-0.11435020814814718,-0.06979940131254182,0.08045156800327148,0.012969885953307224,-0.0936593338950842,0.023297155080374096,-0.012638306212746114,-0.12399395146821253,-0.26938236358925316,-0.15577966592610504,-0.1348858601336587
0.726,-0.05115536314524315,-0.11774127507117704,-0.06658559019383566,0.08531050129222047,0.008245910789879692,-0.09315011228629864,0.02420241711612825,-0.008578945449276985,-0.11681617449729387,-0.2754184432056794,-0.16230937814183516,-0.13547423641302325
0.728,-0.05469537776665295,-0.125642468392309,-0.07094833075911246,0.09125016235204557,0.007728783013626413,-0.0996037382706546,0.02088145887214292,-0.008866266707560577,-0.11015874611739049,-0.28345521088050013,-0.17083369340928678,-0.1415375025862144
0.73,-0.05292214091523361,-0.13562570094331627,-0.08270432795832726,0.09587557091184606,0.013241533163495328,-0.11078357321563592,0.018994993546892366,-0.013699722632426331,-0.11268991450034489,-0.29155231947471383,-0.17722238531496765,-0.14807136384658648
0.732,-0.048651663591523495,-0.142177180590929,-0.09352520703457437,0.09732489051324036,0.02039592780705206,-0.11922812822679704,0.021044855002226286,-0.018571793801920863,-0.12235663920181028,-0.2966115852357739,-0.17947168300227634,-0.15147708688297498
0.734,-0.04663820873057942,-0.14225364495233153,-0.09561486908818681,0.095924519849931,0.02310719289985419,-0.11992919853470026,0.023542316936286913,-0.020187296824047723,-0.1288678682435937,-0.29640792517010933,-0.1790642048965152,-0.15332956051954902
0.736,-0.0474798039773037,-0.13775910970468544,-0.09027920398846474,0.0931081112817143,0.020967472536705462,-0.1146761363885904,0.022033859726419216,-0.01935075537176538,-0.12772616120506441,-0.293561312074338,-0.17969002620590704,-0.15685450520503047
0.738,-0.04797933175350249,-0.13290162600891356,-0.08492255515736984,0.09038338492552572,0.018561749084773507,-0.1092644595905475,0.016315273416357426,-0.019179105627222057,-0.12592041500693685,-0.29418416758151933,-0.1842492822381687,-0.1621433287450274
0.74,-0.04688998799061705,-0.13069944686667986,-0.08380963901842446,0.08924285438527448,0.018391935703863507,-0.10773806034628532,0.011329634690279231,-0.021936209734289443,-0.13143961243497201,-0.3002233487839025,-0.19284277607610764,-0.16586826480079372
0.742,-0.04561164773276674,-0.13071125602995382,-0.08509955196275908,0.08952729657726778,0.018971429929390774,-0.10894335463185499,0.01193868566471072,-0.026566064893414027,-0.14229732218244162,-0.3063023257812758,-0.20176793672255083,-0.16415626351380383
0.744,-0.04570908201364742,-0.13083306433481845,-0.08512385710487445,0.08994346714826812,0.018256897386099626,-0.10913117171824056,0.016258047494846464,-0.02980422267919994,-0.1494490246645384,-0.30663653918364653,-0.20532870964096553,-0.15656511785611668
0.746,-0.048447939819310684,-0.13178678985855657,-0.08333882097209516,0.09122342085713211,0.01598149103325982,-0.10809513808594005,0.017406695970748058,-0.030306911128908258,-0.14758406779630004,-0.30259768754986255,-0.2021760182333428,-0.1481331932410549
0.748,-0.052439715818688344,-0.1353256060419697,-0.08288594467267081,0.09415016374993605,0.014299960439301741,-0.10911127327239667,0.012643844616056022,-0.02923879429914109,-0.1399075732887824,-0.299976961195968,-0.19726871247363897,-0.14477561149031112
0.75,-0.05277617733100123,-0.13900163142837027,-0.08622549596800172,0.09590379949012846,0.01605238647571526,-0.11268829573478198,0.006951154592748196,-0.027806086090869323,-0.13380363863244113,-0.3004324590489782,-0.19488705139865917,-0.1467587089832489
0.752,-0.04751080628137396,-0.13931311248414854,-0.09180229648818074,0.09402627450631215,0.020839394368435796,-0.1159126637002064,0.006828378945931049,-0.026794435852097745,-0.13332328320318637,-0.29982008259288206,-0.1938313876656672,-0.149878426430686
0.754,-0.041807849466077074,-0.1378512153204104,-0.09604333836433067,0.09124229783610772,0.02473921715103931,-0.11743248659499926,0.013074484114932994,-0.02640975764812956,-0.13569944182606009,-0.2949223670923818,-0.19141123485263917,-0.15200179837675531
0.756,-0.04092366427276177,-0.138242026983184,-0.09729641526048315,0.09124268978949653,0.025416532774075528,-0.11814431811935108,0.0202145370841855,-0.0258408341041346,-0.1353371006105765,-0.2882625590419084,-0.18843780968560622,-0.15429428898210484
0.758,-0.04281163667160192,-0.1403288831999054,-0.0973859420251131,0.09295718213739979,0.025216252308236535,-0.11888337920397338,0.022664129123718832,-0.02431427384933434,-0.130110691442518,-0.28450789836225315,-0.1877761996103025,-0.15663902902282892
0.76,-0.04260232328276676,-0.14243377252532546,-0.09950403983468736,0.09366735263299242,0.027328191805218338,-0.12072320179181836,0.021693869536181066,-0.020371950793971732,-0.12174085258723766,-0.2842682470303768,-0.19005303529775294,-0.15721273566839317
0.762,-0.0409002242234717,-0.1467196927976052,-0.10539686182203913,0.09507018973091069,0.031373074050645704,-0.1259955706234946,0.025329672108669477,-0.009470564058230204,-0.11051710025760147,-0.283459115085376,-0.1938920363188342,-0.15736415487824246
0.764,-0.04183589893167346,-0.15938042510194425,-0.11728897949799712,0.10220584538632406,0.03633050653241652,-0.1387931498693426,0.03973349322620271,0.013956487912391038,-0.09273436487218324,-0.2780928776225762,-0.19969553410511712,-0.1632242317487674
0.766,-0.0447729165953991,-0.18590663538557894,-0.14115939022203286,0.11714712998985907,0.04610796051212134,-0.16445681976701565,0.062411809946,0.05077601993914207,-0.06431076644289944,-0.26846793275227154,-0.20948402557325985,-0.18088253216869915
0.768,-0.04460677073587696,-0.2255781431682142,-0.18111717134502972,0.13659166911550946,0.06595214293191361,-0.20454980478657353,0.08639945690894077,0.09457852919062504,-0.025365396496949903,-0.2567734377708044,-0.22248837554465284,-0.2100160645164013
0.77,-0.040376039007387704,-0.2697110178877587,-0.22939819679894852,0.1557444195261933,0.09261116773796824,-0.2509751657989007,0.10736049320505611,0.13335042224349333,0.018403938940031173,-0.24006636604112366,-0.23324896293535294,-0.24234017302922362
0.772,-0.03608630689754579,-0.3039871010562609,-0.267854664034943,0.17013127027543098,0.11456348683132953,-0.2875082356590612,0.1215086946817318,0.15413318391890599,0.059896563151174205,-0.20768443803741005,-0.23098861157534564,-0.2639480322914365
0.774,-0.03197944071121154,-0.3117124802347334,-0.279654680277901,0.1721575015677665,0.12279135378177124,-0.2971087416500108,0.11839117850882934,0.14983754033046134,0.0991593938321723,-0.14476959276469986,-0.19847930841005107,-0.2575901773535577
0.776,-0.021466310803763777,-0.27959959077870766,-0.25802174218083385,0.15164020632994574,0.11724161784175288,-0.2696431737704142,0.08234897711343825,0.12099389053948519,0.14397332849174116,-0.036451629434776596,-0.1177841241487378,-0.20787542433876163
0.778,0.003172970196719974,-0.20647986404865568,-0.2094863372226304,0.10330512326588347,0.10544320846084747,-0.20832320098002882,0.005515449499344807,0.06974963765669291,0.19864136751637057,0.12885453720995746,0.020363521695481206,-0.10901930535642242
0.78,0.04542152790690898,-0.10543880508435238,-0.15078046572781612,0.03155310982227748,0.09762865058688763,-0.1285726633687637,-0.10369223496791077,-0.003268908976807914,0.2595380699240417,0.3582656504366698,0.21698540982620437,0.033387055956091385
0.782,0.10286524482193914,0.0074025646118369036,-0.09562092386660576,-0.05394876881805702,0.09906781665704253,-0.04501864325076192,-0.2304106785765801,-0.09719694816633355,0.32096608462629633,0.6535903724265607,0.47119688586162356,0.2093154450420189
0.784,0.16816332837605963,0.12835074061035567,-0.04008123555079912,-0.14702171241039855,0.10374266579504449,0.043009367735888815,-0.37022231810618517,-0.2162572593084897,0.368454655471849,0.9996602919293351,0.7752326639537137,0.41123044057271835
0.786,0.23273918352477968,0.2692347341013471,0.03637661609179501,-0.24912710080447228,0.0972789595689347,0.15166413488711722,-0.5318001040694655,-0.3759087993556153,0.3691019793068399,1.3544556203968305,1.106007282113952,0.6338411060905056
0.788,0.2932681195896682,0.4430473367395251,0.14987744860188684,-0.3657424569652846,0.07064613792687204,0.295153510406048,-0.7218035196027153,-0.5854468584602777,0.30065966870877436,1.6803255306917124,1.442412603919331,0.8734300370241842
0.79,0.35576443780352335,0.6480635514404383,0.29253612266264417,-0.4997209335373922,0.03110718424314676,0.46865304437760735,-0.929883769176074,-0.8195244704476058,0.19595859864495024,1.9919609707673562,1.7934216768314097,1.1321504518394594
0.792,0.42877589126889926,0.8686526195034671,0.44021612320443226,-0.6472687612235525,-0.005714709020714862,0.6525096575021934,-1.1340159165939565,-1.030344939071293,0.11934788955384511,2.330560845846303,2.180980359952165,1.4144466280686605
0.794,0.5091007142584952,1.084861568323084,0.5761320012822074,-0.7958991477127052,-0.03380860628464959,0.8284961933307601,-1.3191551692655388,-1.1987338590976482,0.08015551110316858,2.667346193057015,2.578883560843348,1.7061564442115427
0.796,0.5779179018978506,1.2729862568640953,0.6952925448120896,-0.9239762471311496,-0.05971787241166538,0.9824200216874819,-1.4795847450048922,-1.3475068406657078,0.0050944676614183785,2.875981974416718,2.890116411548576,1.9598844881528985
0.798,0.6172413295625775,1.4074724767402222,0.7902184323121547,-1.010309128184138,-0.08776441893699376,1.0978112392154318,-1.603217096689966,-1.4919179577022033,-0.1726195492038924,2.8467783150940003,3.0170769234797454,2.120441751411872
0.8,0.62847612518216,1.4775797730757345,0.848981128751654,-1.0509367940576788,-0.11106433679712212,1.1628098064625816,-1.6707067066113168,-1.6067331896202903,-0.4242723497615147,2.6049759408881066,2.953376856654208,2.1716891168779644
0.802,0.626621121394117,1.4926889568960564,0.8660306181297253,-1.0578610671190825,-0.12004455226786769,1.17872660285482,-1.6761291229087414,-1.6611937368402985,-0.6615313397574668,2.270862577830529,2.7781752165250007,2.1428347706204947
0.804,0.615915532470332,1.4540482796973666,0.838321375064831,-1.0330756575323532,-0.11184185093284585,1.1449874984199595,-1.631068724104505,-1.6582583054359912,-0.8386178186690364,1.9161048572778194,2.5545699823733363,2.0602969816358065
0.806,0.5752498614757824,1.333352050959149,0.7586099902005291,-0.9518615334506306,-0.09320426710692084,1.044552796583429,-1.5360931338629018,-1.6163176296049973,-0.9879038904140597,1.4828417604985111,2.2476841775784586,1.9018963449952189
0.808,0.4699718654156649,1.1108076457550622,0.641590323830971,-0.7878888578878274,-0.08781929437438499,0.8748323082841042,-1.3684240534898084,-1.5369433934382777,-1.1683217128313994,0.8457840743073473,1.7557426179579636,1.6125217635839062
0.81,0.2918348986763471,0.8336392080882119,0.5424360482911967,-0.5612102806028753,-0.1269474576661277,0.686642240565211,-1.1226840977888224,-1.4114970912609288,-1.3799025599979222,0.002562649137832853,1.0547455277141697,1.181452632466172
0.812,0.09312662921282511,0.5956046118812044,0.5025623832207337,-0.3442717175844917,-0.20571654483704838,0.5477251333673766,-0.8502741189679769,-1.2423998251123956,-1.5215973024209206,-0.7889529710606638,0.31458167191920267,0.6990877352187989
0.814,-0.04543186994396281,0.44523603956667035,0.490197534414824,-0.20063472187644593,-0.2685332687336386,0.4667072912741868,-0.6300470253736182,-1.051178552394226,-1.4773165431559132,-1.186199701180263,-0.20259289680846823,0.30413324739590586
0.816,-0.09383089167131332,0.3475242544195731,0.44086570023877764,-0.12741939704334715,-0.26806226153890966,0.39367009657937785,-0.5001511670485409,-0.8733464802817085,-1.2573992564010714,-1.1171952720135216,-0.386777479036914,0.06657365770573598
0.818,-0.09376633949561279,0.24525324361951725,0.33907597333689826,-0.0756556789160999,-0.21695743229463535,0.29198216166681107,-0.43162389973804527,-0.7327652589220786,-0.994994693787327,-0.8433512710127334,-0.35939024582215606,-0.05158701768790295
0.82,-0.09524573485601802,0.1277868306367722,0.22357823210968894,-0.015573530637255124,-0.15969352701736148,0.17560559807044174,-0.36800027519902034,-0.6164616139505256,-0.7969178983072803,-0.6512557752469329,-0.3056500905814833,-0.12327172933772804
0.822,-0.10434140689451582,0.027106989455222733,0.13192691631771047,0.03972696637427984,-0.11848048018849971,0.07935937527084802,-0.2819073060720345,-0.4921130823896955,-0.6588764081150595,-0.5980426004089122,-0.2997746605631712,-0.17931514555081973
0.824,-0.10196305271829673,-0.03172733290463925,0.07037835560640605,0.06822678501658257,-0.08670277405962021,0.01889256105448611,-0.18885996992945314,-0.3506047106546726,-0.5280993138892854,-0.5742823307504872,-0.30443739273139364,-0.20886644632942372
0.826,-0.08464560430823907,-0.05588081489679569,0.028857762357067242,0.0719048305640782,-0.05716043373169592,-0.014524027950013004,-0.11529110541093192,-0.21723794093369778,-0.3915814390403478,-0.5038826341094745,-0.27651184863239614,-0.2044162795818582
0.828,-0.06857429492178982,-0.06778365672068934,0.0010875933096399044,0.0701525980820073,-0.0350873610799103,-0.0349766834860649,-0.06867411113240338,-0.1227651901797061,-0.28183428350035455,-0.41640056120541197,-0.22703008125604823,-0.18352534866669165
0.83,-0.06472822554222415,-0.08063370410770312,-0.015607604080993188,0.0747725533757446,-0.025122666000983642,-0.049767589335408376,-0.038154734395472296,-0.07327775207636793,-0.2235767254409786,-0.36847514894106853,-0.19088625315464333,-0.170527085621202
0.832,-0.0666237796114781,-0.09407597512775702,-0.027510185704955527,0.08207891037221282,-0.02057817491257087,-0.061876686815065786,-0.011328707046891918,-0.04965927496803795,-0.20189395568359006,-0.36542757416835475,-0.17914251466244277,-0.1726818240551921
0.834,-0.06463509553541702,-0.10515002800525255,-0.040953611216121705,0.08631772400606519,-0.012962444994014524,-0.07381607735800101,0.014012157049704543,-0.030513455631046817,-0.1831586871275459,-0.37278557057208633,-0.1788229577533315,-0.18221599837874114
0.836,-0.06071575370045895,-0.11511177043475133,-0.05479836007956839,0.08976619033446497,-0.00398664748128999,-0.08605193358725528,0.03233937404781933,-0.008886464461539238,-0.1515019882816035,-0.3676050673043515,-0.17963058724580444,-0.19332204440357761
0.838,-0.062204788021062475,-0.12550145547606478,-0.06318643478374035,0.09626205075371043,-0.00047770113347080437,-0.09586680229457098,0.04153140776831649,0.01171757817554705,-0.1174493384753356,-0.3563277513222086,-0.18165734858602162,-0.2057104812650101
0.84,-0.06898949746909966,-0.13462683546032636,-0.06498943135614632,0.10369216632397181,-0.0027730881431726343,-0.10109201555849859,0.04614567465965327,0.02725663548431293,-0.09818335069422397,-0.3549870026721944,-0.18498108481670889,-0.2157743680315453
0.842,-0.0741374443013441,-0.14109618885446973,-0.06620593744508373,0.10815374379956087,-0.004572845432584245,-0.1040583461240937,0.04957558387975634,0.03577520456748632,-0.09718708666028207,-0.36585337469908935,-0.1850495512509916,-0.21674976919471184
0.844,-0.07457843211279369,-0.14688083994355583,-0.07186790151950402,0.11066939805555312,-0.0023507531869445507,-0.10928562620434233,0.05015136699529415,0.03807708537629476,-0.1027058443157111,-0.3757034424716237,-0.17884013313947247,-0.2086074497773007
0.846,-0.07460523068392587,-0.15339258447245077,-0.07872716943697483,0.11469843827356085,0.00030591794586094963,-0.11667182362187986,0.0469197698270548,0.039955303629009224,-0.10125970994085264,-0.37429734663923697,-0.17065155532756865,-0.19941876801374023
0.848,-0.07709915227792304,-0.15718161700969313,-0.08009459974718164,0.1189446204708109,-0.0005186257469850218,-0.1203904487438774,0.043542141934417376,0.04783236013082771,-0.09034866921984344,-0.36655243475837995,-0.16743239741021912,-0.1954980078572954
0.85,-0.0782395677400426,-0.15496353313351166,-0.07650558909654198,0.1186674944348156,-0.0023370426235675167,-0.11751317897717928,0.04380280773708909,0.05945479903547162,-0.07930228094694154,-0.36276339408987096,-0.17008509364260485,-0.1964549794479398
0.852,-0.07418946766164049,-0.15070463681049762,-0.07619505121086864,0.11372167506101395,0.0003951898692340281,-0.11402097307359638,0.0469526116273584,0.06590754384338358,-0.07832100630006088,-0.36505650175304055,-0.17448008082845137,-0.20033731749931954
0.854,-0.0666750384151733,-0.1511189923549682,-0.08445738206944778,0.10924232423335065,0.008964405325350987,-0.11756689567313673,0.04974068191271802,0.06367594383058485,-0.08716862304075215,-0.3690487559300522,-0.17768870505952508,-0.207011648178803
0.856,-0.059978102605286875,-0.15701495712286542,-0.09747289084217392,0.10889208325520788,0.019102527067845817,-0.12782460785463076,0.051044923933097404,0.05731517394658707,-0.09664488717232271,-0.37210504508706355,-0.1782994889739855,-0.21533602106271466
0.858,-0.05692769566652927,-0.16444337774505616,-0.10794267336861739,0.11195456318533314,0.02574689557999849,-0.13823005076174888,0.05317815123101257,0.052953064607470256,-0.09874997277082202,-0.37387463180067365,-0.17538831276007197,-0.22192014682541397
0.86,-0.05846441195730098,-0.16959139635401665,-0.11118332953036486,0.11577470374253768,0.026284906692174034,-0.1428518739217721,0.05868905138831748,0.05590192072816028,-0.09085212082157963,-0.372570352881538,-0.1713677170296226,-0.22366552097072237
0.862,-0.063323545900618,-0.1691748273205759,-0.10565434163866856,0.11763119398568898,0.020706771762821447,-0.1392663873608672,0.06580336506983937,0.06872927395811455,-0.07436242210639378,-0.36593683046786885,-0.17106949441016245,-0.22006522094031164
0.864,-0.0673247353515463,-0.16235020748091394,-0.09489320138233272,0.11581490843030894,0.01291029241138811,-0.13020328981166612,0.06870558725159091,0.08561092934274217,-0.056516752744502685,-0.3555748287871108,-0.17537752200947254,-0.2141860505311301
0.866,-0.06664658120571659,-0.15397007793644846,-0.08738611094117613,0.11159371937781118,0.009366344135527022,-0.12285472120197777,0.06421807562587396,0.0948158545310355,-0.04867542034731017,-0.3478677890495668,-0.18024758087279988,-0.2108385060049179
0.868,-0.06186718844420004,-0.14975690242754858,-0.08811237613140115,0.10790683177466255,0.012555499949265447,-0.12169288523475195,0.056278015894306435,0.09145407389614621,-0.05439468722333717,-0.34776943562750373,-0.1815885299305539,-0.21166689194506583
0.87,-0.05609893412241059,-0.14882073509298477,-0.09307103856069376,0.10510641200612247,0.018408524741763542,-0.1233371675609184,0.051352277314429325,0.08277125780209532,-0.06286664475710274,-0.3515682164630215,-0.17674785067477045,-0.21345275928117657
0.872,-0.051565519337893925,-0.14664345454365355,-0.0954832211627028,0.10165540224947286,0.02160151110757386,-0.1221324455319062,0.05096053746152626,0.07832667947407539,-0.06090274582213219,-0.35076407771726015,-0.16516066762340903,-0.21229927435717408
0.874,-0.050090421426307485,-0.1432106458574389,-0.09347643103867564,0.09858047943638122,0.020476273199693806,-0.11807427566877866,0.05118984605970941,0.08016142672025284,-0.047651963217515005,-0.3431348978282642,-0.1517693255776795,-0.20796524500897265
0.876,-0.05334339303326184,-0.14272871143696525,-0.08969382964359561,0.09906937137874855,0.01647950710082785,-0.11571114272862447,0.04949767742909651,0.08462700355311488,-0.032628965222277366,-0.33428225389545807,-0.14453746752191052,-0.20395225156831087
0.878,-0.060331364504865946,-0.14658940319121047,-0.08655479749142277,0.1038076581276165,0.011513659792213492,-0.117002505169414,0.04944958218638304,0.08875409964551954,-0.023170872790845638,-0.32898610949821777,-0.14521293564034268,-0.20281610290479515
0.88,-0.06709919718229694,-0.15108435115736227,-0.08418331581179542,0.10946803307239264,0.007046718458031126,-0.11894139778261553,0.05542693674463128,0.0924071876656434,-0.019068603598803257,-0.3254268329009567,-0.14711608369269735,-0.20155548184187508
0.882,-0.07052616654554772,-0.15299952801284689,-0.08248571957297723,0.11254633426218216,0.004452717164372838,-0.11900908749282808,0.06375127583141907,0.09696912281510728,-0.01703179420972395,-0.3184627932946604,-0.14371629916773307,-0.19542367139413144
0.884,-0.07081835714855261,-0.15366118136225734,-0.08274639274879574,0.1130154755233674,0.004540547907092558,-0.11900048766650552,0.06520754232850007,0.10297447272501048,-0.014582774206497551,-0.3078637755419924,-0.13536825548640558,-0.18585080521107786
0.886,-0.06955577629933403,-0.15453991278127385,-0.08492413238973709,0.11249666809498785,0.0064829196507547975,-0.12027291507743072,0.05686039188731824,0.10788726470528293,-0.010620274926122244,-0.3011221371161982,-0.12743424742228315,-0.17913177639832475
0.888,-0.06681270906062453,-0.1527414885920947,-0.08594965445348425,0.11027719596723257,0.008517560426212378,-0.1197147361951283,0.0449419887669756,0.1072953015796707,-0.006359798686420123,-0.30444318975164225,-0.12425435777496709,-0.1776175844712117
0.89,-0.06086939740698427,-0.1451609556828086,-0.08433416310335122,0.10389102970895735,0.010745673728632978,-0.11497473857112303,0.03644657013324209,0.10046905415528876,-0.003938362604944987,-0.31258731739139956,-0.1242665388528634,-0.17700507712872793
0.892,-0.05095015702171916,-0.1344650738478057,-0.08352424332220922,0.0937280871654463,0.015313100369991953,-0.10958604084379699,0.033866393072614555,0.0934951546429714,-0.0022259236447335494,-0.31378857480238703,-0.12223777682140916,-0.17289660139273924
0.894,-0.040563306436566034,-0.12712274362203885,-0.08654078542604132,0.08475097216930992,0.021922614951710842,-0.10831586742419362,0.03670477473979657,0.09399021494819325,0.002921813364538973,-0.3043249455407051,-0.11715354466271571,-0.16675652480345982
0.896,-0.03548208061804742,-0.1260715326209756,-0.09057545561278818,0.08151398888182432,0.026289168290531472,-0.1103377691102059,0.04248588044470446,0.10272438381169571,0.013195399497319966,-0.2914856579225724,-0.11307208388836644,-0.16346660498114532
0.898,-0.03672988065167199,-0.1277790907209723,-0.09105268543793175,0.08272827616495655,0.025716798574259573,-0.11101834505368814,0.04698643532247614,0.11263575468706538,0.024581465884266164,-0.28251324946069273,-0.1115572653951285,-0.1649972647415301
0.9,-0.03971101212449364,-0.12743578914194392,-0.08773406864235533,0.08389864516536623,0.022510724163772765,-0.10856812644573784,0.04762727173440521,0.11708920195339115,0.0303637466061382,-0.27776088202816035,-0.10879040077923395,-0.1686644895812641
0.902,-0.0413905635987633,-0.12484662245277403,-0.08345860049431315,0.0837215330552826,0.019728113239439335,-0.10525578141620562,0.045764822506432906,0.11701866029929228,0.027928441808923277,-0.27432293141592845,-0.10027392458919768,-0.1699330671088619
0.904,-0.04293711480537899,-0.12321395957053208,-0.08027298900440874,0.08401271128498568,0.017787123810795422,-0.10330508298578965,0.04270053525817544,0.11734101044661022,0.022225533113119086,-0.27021445909432773,-0.08570002959684471,-0.16586689135328023
0.906,-0.04465876249203576,-0.1240118142213082,-0.07934982327256752,0.08508192646404128,0.016910092877599623,-0.10295100721108684,0.03604185960501795,0.11844453705318818,0.02006195306499381,-0.2658982526261423,-0.07133741990888043,-0.1583242893645587
0.908,-0.04364483041854482,-0.12489649197790481,-0.0812522236410581,0.08467975051237575,0.01854935295411422,-0.10341435045364354,0.024375164327241586,0.11628421313276865,0.02191876934339089,-0.26485507239762063,-0.06708403504885671,-0.15385493581928464
0.91,-0.03834199803103708,-0.12245039993153861,-0.08411043218357347,0.08119362938697526,0.022319062607406442,-0.10325416997884142,0.01321681896636111,0.11085010975829639,0.023439338201408845,-0.2694265416942809,-0.07567526442417999,-0.15721008305113307
0.912,-0.032751699706331065,-0.11711619082160762,-0.08436515413509171,0.07666419218049433,0.024611733867080644,-0.1012617772542737,0.010672671642605304,0.10842809948570516,0.023097404174831623,-0.27503553848856654,-0.08680264781959393,-0.16560188286842975
0.914,-0.03304857191037169,-0.11392861348938912,-0.08087925030155026,0.07565431272747068,0.022350889078774,-0.0984223997135751,0.01799498353576524,0.11301268728097774,0.023950462489428077,-0.2735957970125049,-0.08916736338745714,-0.17241148085611077
0.916,-0.039501270667964467,-0.11659357938454722,-0.07709156893577723,0.07997406926057347,0.017268045047296413,-0.09755729585764639,0.02898619722692758,0.12067450292609723,0.0295395258396513,-0.26317322396976395,-0.08451070562173675,-0.17419273187772424
0.918,-0.04486596800032621,-0.12284829266070214,-0.07798240311971398,0.08571179551673251,0.01494670972360685,-0.10039067543957567,0.037418657839590475,0.12537773477261524,0.0397276541599908,-0.24926124739832783,-0.08091570196814939,-0.17103825520895793
0.92,-0.04322801510427548,-0.1269565015720226,-0.08372892765980679,0.08734229821967367,0.018322518417864173,-0.1050344297424846,0.040949655423446696,0.1263946799652107,0.049534807397936816,-0.23724732785186525,-0.07882961461145395,-0.16431122108956064
0.922,-0.03758008736135399,-0.12535957878802895,-0.08777965934698076,0.08388472464135793,0.023319757408424926,-0.10680970947280483,0.0398401816862159,0.12754339470750334,0.053750389992470254,-0.22870402505040355,-0.07471842686787768,-0.15770908077748325
0.924,-0.03562707260798196,-0.11989514643428709,-0.08426791326541985,0.07962797588359485,0.023392155216392492,-0.10308929847412027,0.03622023632292343,0.13175155439476133,0.052972414796376543,-0.22303623555831337,-0.07034060449650616,-0.15641487951422905
0.926,-0.03969190593882348,-0.11490375392284358,-0.075211679653324,0.07840284055842373,0.01755700045456031,-0.09620221131196575,0.032660980158594456,0.13826793727783868,0.05290423685996989,-0.21795164625371016,-0.06726825344386393,-0.16131541927071252
0.928,-0.044098215883163046,-0.1112323799715092,-0.06713417130620901,0.07857225627287116,0.011182008480598124,-0.0898402562749406,0.029188651811030995,0.1438264718430675,0.05819709304238849,-0.21063499835728988,-0.060635160461285455,-0.16580722989239527
0.93,-0.04312948609953628,-0.10685858495245613,-0.06372919416255331,0.07638672244225794,0.009216027279626648,-0.0855368941391301,0.02492642655605878,0.14565180957146748,0.06808544865154662,-0.20118794470739945,-0.04749647605144173,-0.1613406369605191
0.932,-0.037633288469953015,-0.10259138042310068,-0.06495813353929278,0.07205462260448646,0.011961094430284045,-0.08405828910249245,0.02213575864206231,0.14412191598956517,0.0777182891912184,-0.1930985155782431,-0.03433986042885953,-0.14717833127695115
0.934,-0.032195727465190595,-0.1015016715033437,-0.06930591188928442,0.06875179839232576,0.016851165528551555,-0.0859355005184517,0.023866516024230518,0.1419564241685564,0.0833315433823187,-0.18980839005706462,-0.02939978297554912,-0.1324969511082324
0.936,-0.03038483368451137,-0.10379411762328095,-0.07340924588817997,0.06840043489580207,0.020305644059740863,-0.08928909824551497,0.02953372998626092,0.14125392057012873,0.08631087578090241,-0.19047553528710345,-0.0317646199049764,-0.12680099081494148
0.938,-0.033048626391534115,-0.10670015412210544,-0.07365152709991282,0.07052193433333721,0.01958412225237028,-0.09103960560805381,0.037154768399827794,0.14347497490676545,0.09249551872126394,-0.18888838936909302,-0.03325570826248451,-0.13100027956061372
0.94,-0.036462646952692655,-0.10755452267654692,-0.07106995656702268,0.07222312313511153,0.016720028044632927,-0.09055909137911716,0.04610925625913665,0.14962873715837638,0.10556340445119783,-0.1801631232415553,-0.02928284525343345,-0.13919142522574765
0.942,-0.03455228143698407,-0.10507707101982,-0.070393483936213,0.07004136909892304,0.017221646611839617,-0.08934155221278234,0.053535160735116556,0.1570355162306575,0.11976572895844084,-0.16848811197500976,-0.023058803745921324,-0.1446387049988515
0.944,-0.027662291400913537,-0.10068503846149564,-0.07269532166633629,0.06508187707718709,0.02165257152572005,-0.08827630517406714,0.05347843020279516,0.1597791370958459,0.12324275273762478,-0.1632213248146795,-0.018858671263344187,-0.14346116055320693
0.946,-0.02386797100784919,-0.097618248765296,-0.0733496036140706,0.06275927758391316,0.02355524495461456,-0.08664384508414268,0.044698566084026364,0.15649261750054633,0.11315197079002275,-0.16689454049823454,-0.015158261241027206,-0.1368873512033045
0.948,-0.02695822846804137,-0.09557249848700997,-0.0684681048662895,0.06409495296122235,0.019074008304972523,-0.08260391260223254,0.03542950817718351,0.15432082559605545,0.1039273170270951,-0.17046071792648831,-0.007315634027912808,-0.12937551277418882
