time,I,II,III,aVR,aVL,aVF,V1,V2,V3,V4,V5,V6
0.0,0.012746919619997682,0.03093486517073448,0.01820988517142526,-0.021851862205710313,-0.00278633182743495,0.024528495929702944,-0.011562180102820618,0.01735423996457516,0.03361149889472711,0.039074464446154686,0.03446714410157721,0.030518012377653662
0.002,0.09031387734456445,0.21545384545086632,0.12527128387174877,-0.15294951928043882,-0.017861841728930513,0.17004508407869268,-0.08311312790699076,0.12186125943302076,0.23735418717989382,0.27540508022415155,0.24205864923924122,0.21359509490734116
0.004,0.28827036367284786,0.6721218232603087,0.3841788786474073,-0.4803707728068957,-0.04911206436110741,0.5271672234203478,-0.27100819702223666,0.384965047738308,0.7553991729889663,0.8740136784430319,0.7642913206800162,0.6712228521467886
0.006,0.5520686825893362,1.2487323405569868,0.6971082028047172,-0.900677472064074,-0.07450435792260261,0.9712126343568525,-0.536919468422267,0.7290874531413475,1.4451156294838874,1.6649348272829223,1.4457211814571265,1.2614088648275539
0.008,0.7172283777641021,1.5590291534634084,0.8421876321361225,-1.138365396427692,-0.0646452122076223,1.1987671970748437,-0.7391693749837788,0.937418779844411,1.8836332414071493,2.1558297813198375,1.8549582440658734,1.6046766239599015
0.01,0.6905626870243621,1.4232258003529288,0.732964858928376,-1.0567534503428044,-0.022948405480438354,1.0767324798281674,-0.7878367301622695,0.8943988206624541,1.8295725713686988,2.071305411012653,1.7646202822437471,1.5118345374092887
0.012,0.554178653560899,1.0568032527682452,0.502923347437734,-0.8046067706126061,0.024121998568018856,0.7788708977800002,-0.7410763896616629,0.7008067024499378,1.4669100070295469,1.6320227962912273,1.382986221802626,1.1777373906158954
0.014,0.4432956082508082,0.7533756114759862,0.3104036439517765,-0.5966987740523066,0.06471855805588639,0.5307191121157735,-0.704491765836121,0.5016689105453618,1.0973757733177423,1.1959695726316752,1.023099878070475,0.8785689574953927
0.016,0.3868876684955403,0.5823738151558295,0.19583402218025814,-0.48259472596333275,0.09374831084373171,0.38748991365159785,-0.6992772917573753,0.31152238008663763,0.7940581010162973,0.8618854132642518,0.7617451772252883,0.6769151788625456
0.018,0.3130322896809962,0.44778141131961274,0.13508234857083823,-0.3782563453052845,0.0879005656915909,0.28946727785173293,-0.671535000576315,0.0632407881435732,0.44960834622081414,0.5213813565165175,0.5009957680303203,0.48488133507243864
0.02,0.18013543262202555,0.29142306006773006,0.11148211354522175,-0.23361547882896744,0.03433770855596521,0.19929429972982332,-0.5891338828109572,-0.23319325320697443,0.04048626777516619,0.1405622324693273,0.20970715709943982,0.2693541430293682
0.022,0.04619914581414063,0.1481798528097503,0.10197155765055867,-0.09528656410666261,-0.027275263480543255,0.1230193597236152,-0.4791780595765911,-0.44980982771972705,-0.2826164106575856,-0.1527492365499546,-0.0158504406535177,0.09545270728106477
0.024,-0.009393791365829168,0.059274178681353075,0.0685632733718089,-0.0238034530531818,-0.03850350149894383,0.06242528818054841,-0.38171113559994163,-0.4709689916384978,-0.36871670689401576,-0.23852340789953053,-0.09162232947499623,0.01792130489941627
0.026,0.013255391287605675,0.016033574641595404,0.0027478892763259048,-0.014384762338355929,0.005351184476001436,0.008575087961965919,-0.3080637005574485,-0.32711062254336276,-0.2480518801844594,-0.15640845115568613,-0.052056192217028015,0.012658648153455956
0.028,0.0509183556046145,-0.008605109799772566,-0.059363059458437034,-0.021170702160371292,0.055051663539473515,-0.03461213107208227,-0.24882050757603086,-0.16146889592859937,-0.08999412295161377,-0.05005222678305304,0.001964772196248474,0.019309314573465793
0.03,0.0633918690667769,-0.02142456264057562,-0.08442478455967284,-0.020658369274331623,0.07364398844938379,-0.05390076392083826,-0.19624906384090404,-0.07997831055926674,-0.01973694505070397,-0.012188644301729609,0.012382669904145577,0.008217359302079983
0.032,0.06054393536044604,-0.017488920580766877,-0.07747424191949681,-0.02070423032319203,0.06816887535205363,-0.04882673564026792,-0.15044156445116105,-0.07366638034464874,-0.028912817077695187,-0.02779567747089015,-0.005961221586961199,-0.00938860226394487
0.034,0.06028880616416907,-0.0032206960137525983,-0.06294723444308953,-0.02707386148194837,0.06007524551142802,-0.03445035176783858,-0.11472654926629164,-0.078899464367372,-0.046329418301302216,-0.04268752323202562,-0.017574528133206826,-0.0170097994824825
0.036,0.06021005290076065,0.006827489784450928,-0.05299807370471955,-0.03139133102545788,0.05510896870314031,-0.024206025982977213,-0.09052456565219624,-0.06519959926545557,-0.03791709292222066,-0.03834339752036414,-0.014530654939927733,-0.017174661284836697
0.038,0.05072709970150579,0.0067079016422474875,-0.04388218334720606,-0.026609698400859833,0.046774401837730906,-0.019426269844728235,-0.07507167307954106,-0.048748169318345386,-0.022812431623764125,-0.03309922522547277,-0.01279516419495405,-0.021113751850410496
0.04,0.03185792457624585,-0.000546342161470371,-0.03235251024668277,-0.01432975079445597,0.032533118540269745,-0.017177528747231566,-0.06347518563481962,-0.04965995502179693,-0.02617328664482264,-0.04220492990846202,-0.02370760614864271,-0.03121228321538871
0.042,0.013558988283056718,-0.012916137083824828,-0.026245825747815463,0.0005996291789453457,0.020490618638021325,-0.020578271503095522,-0.053215310857450716,-0.0635078079028063,-0.046592996073864065,-0.0599273004369842,-0.0426654819264691,-0.041984908531570414
0.044,0.00612174910047847,-0.02988052862650481,-0.03559082151967301,0.013373348227454111,0.02096311565351353,-0.03417864969502101,-0.04567089861301382,-0.07326736890197044,-0.06652418362413796,-0.07405751934151131,-0.05931452602979857,-0.05016840786283935
0.046,0.006340211192456086,-0.04734007332833429,-0.05337937543281226,0.022693350175464394,0.02933637687336249,-0.051713031065116995,-0.04093730915710775,-0.07107372439347995,-0.07420610634973288,-0.08025844808331092,-0.06731422912626273,-0.05548473468040827
0.048,-0.0023823856933708476,-0.05868831510870077,-0.056303811599777744,0.03277928765321739,0.025823562738749955,-0.0580013685947599,-0.03418950493306756,-0.06107083822554897,-0.06979863507281119,-0.08035810248745032,-0.06571100998368763,-0.05627619364163261
0.05,-0.024527696593524117,-0.06030001895315164,-0.035929213798909065,0.04418523372606151,0.004138297076441963,-0.04780427972920242,-0.023334622284896467,-0.05162150971408659,-0.061885560740307724,-0.07842615516308814,-0.059779539161114545,-0.05294748143109113
0.052,-0.03989094175603829,-0.05506781705870592,-0.01523848534361207,0.048499132781675544,-0.01383243874062706,-0.034937389197977946,-0.015164718185333586,-0.04983689567200912,-0.06111832301759834,-0.07997318293639763,-0.05881477124693753,-0.05189571164786271
0.054,-0.03404459585421542,-0.050297387754351656,-0.016079008637553877,0.04254044768030611,-0.010246719996120158,-0.03383250723807833,-0.015190800361217659,-0.05622703039719786,-0.06992664173901562,-0.0870558009642791,-0.06661952038863689,-0.057769390738234457
0.056,-0.02342950211185087,-0.05079866420474712,-0.02699793574251711,0.03772353138761854,0.00026097939707770687,-0.04006511598912144,-0.01739397476907509,-0.06321161150010997,-0.07961453571977847,-0.09521895864207819,-0.07706537101119651,-0.06579002577436807
0.058,-0.03015602524777242,-0.05562059594421244,-0.0251646715490451,0.044755506749973806,-0.00471154429286177,-0.04110206176371259,-0.012774630376276283,-0.06370207299650305,-0.0820812069830626,-0.09959186884547634,-0.08252696108394941,-0.06871335706446587
0.06,-0.0481431208491562,-0.062040938913908175,-0.014023252159622242,0.058131848386967125,-0.01955735440423899,-0.038149447415797955,-0.002266204318197842,-0.059351860072170824,-0.08001221659316698,-0.10090696212947244,-0.08287583707599981,-0.067206700727285
0.062,-0.05303164730973355,-0.06828539932383361,-0.015853143292737737,0.06375253609103945,-0.020508907159596145,-0.04251799680112765,0.005882785256286134,-0.056994728072966766,-0.08161753813303689,-0.10339973140418968,-0.0839103285766563,-0.06794206207302766
0.064,-0.037353131000225255,-0.0725720608904151,-0.03593990718044348,0.05714574100254919,-0.0016787739391992094,-0.055448520813104814,0.00713397556262515,-0.059644232268531,-0.0893579985292362,-0.10916678242251968,-0.08924675308504126,-0.07427732393486865
0.066,-0.02015458101283942,-0.07461744266509447,-0.05490849671827228,0.04850699369243687,0.016993329339187936,-0.06590845723140465,0.004391389094682244,-0.06353001208426676,-0.09730922595831018,-0.1153657639742778,-0.09555610242782574,-0.0823873926279355
0.068,-0.02085525044860181,-0.07651509676197676,-0.05574271336136809,0.04912355632653611,0.01696400461144576,-0.0666594582770293,0.002831961505930121,-0.06306253078750848,-0.09826433944162295,-0.1170527937513732,-0.09677901079872839,-0.08611945717926568
0.07,-0.035450325586539926,-0.07832687123512382,-0.04286918945199657,0.05702592509195732,0.002454663366873238,-0.0612511552790948,0.0038815747409426853,-0.057399733977840865,-0.09139880848878675,-0.11288886782116031,-0.09214484021784491,-0.08358953511501373
0.072,-0.043183127851508296,-0.07599339453198552,-0.03304049329897828,0.05958773413211305,-0.00738318532987179,-0.056264266816313524,0.004779025007307924,-0.05145900609184053,-0.08286197515617019,-0.10695057480168821,-0.08734431509723138,-0.07847360407996405
0.074,-0.029270680066926704,-0.06787652681522913,-0.03904985333902428,0.04862936580609536,0.0019796296659494255,-0.05602210032684902,0.0027121428723606354,-0.050998169940457756,-0.08024798865898511,-0.10529180907279548,-0.08849420795525399,-0.07661792765835758
0.076,9.375910171048279e-05,-0.06046934346547076,-0.06087905101427649,0.03065511364666176,0.027789309826769887,-0.06284105011288041,-0.0017346678090629521,-0.05719919498267174,-0.0863883398754959,-0.11089515852702737,-0.09661542256862421,-0.0812131066990201
0.078,0.022025790976298386,-0.061749051029783474,-0.0837663987654241,0.020750899319432775,0.050931118512711634,-0.07387586338280558,-0.004768483523126794,-0.0655973393328986,-0.09695752932481051,-0.12049747552373583,-0.10677917033191896,-0.08962443584672163
0.08,0.01876227828921557,-0.07122863308743867,-0.08982077498111496,0.027050419259395386,0.053233917276121374,-0.08092135456555524,-0.002887674917237011,-0.07033620687131335,-0.10443481287714594,-0.1273265613919233,-0.11266279521190459,-0.09611272738000616
0.082,-0.005073658556926024,-0.08137395757354733,-0.07623812583418664,0.04378715303209179,0.035336163611833095,-0.07917401505360198,0.0036011345841574557,-0.06876833453393073,-0.10464679215170783,-0.12766674985275625,-0.11217609620623936,-0.09744515498055059
0.084,-0.030963486253340496,-0.08501059866809874,-0.05422785385701556,0.05875154156269021,0.011653293327014836,-0.0705833553280475,0.01174023379098758,-0.06099015718842363,-0.0977421764393672,-0.12178703571293543,-0.10637101778600173,-0.093073200183394
0.086,-0.049244239347153586,-0.08050519449268842,-0.031657751729478045,0.06601457757728725,-0.009247009154670765,-0.057823442587147625,0.019829804575127622,-0.04814129481864514,-0.08496836669149489,-0.11016608101751048,-0.09522953150720057,-0.08294824144773194
0.088,-0.0633682695730542,-0.07375923390211844,-0.010820116189988705,0.06953993088197558,-0.02750926274682169,-0.04427481601247471,0.026877109367634686,-0.03422923802336966,-0.06978771737385772,-0.09503651280659202,-0.08040136114746659,-0.07020677864738267
0.09,-0.07196209491380907,-0.07124762481008973,0.0004935122104070621,0.0721264345407505,-0.038010529154555266,-0.03690514380174637,0.030010963362804607,-0.02586878640101849,-0.059945600573238014,-0.08339946358899798,-0.06903355792752484,-0.061908874217121
0.092,-0.06342767621178894,-0.07076674273969046,-0.007293305046038707,0.06763654137036847,-0.02994215871113874,-0.03994033531138219,0.02721321048479197,-0.026864563103189232,-0.06176579018119236,-0.08195713160772854,-0.06786227776836994,-0.06240107716066841
0.094,-0.03520549248687687,-0.0663083150829263,-0.0309662849436281,0.05163180859077442,-0.0036886603308257417,-0.04928850215231013,0.020906433581504475,-0.03502479904671179,-0.07300900404691488,-0.09010104461163797,-0.07552655756793343,-0.0692047678059989
0.096,-0.005246980026163791,-0.057943876103478315,-0.05264905855628844,0.03247689507047102,0.022371277079746895,-0.05614300635821483,0.01604848607159576,-0.04421635975298785,-0.08468499090967399,-0.1004463527704164,-0.08431170385367329,-0.07659722884873628
0.098,0.00447940654159537,-0.05011231329499873,-0.05461820278128858,0.023498960256461976,0.02785520873141445,-0.0535482544467548,0.0166241843757021,-0.04769028146801763,-0.08860001144590678,-0.10481062780148968,-0.08691610279386267,-0.07997968649631085
0.1,-0.00933447571424216,-0.04665004243034788,-0.03723337303091198,0.02883622714390437,0.011523326287182828,-0.043229413153966306,0.023539781815824428,-0.04236747463805082,-0.0830333573670419,-0.10034693425990075,-0.08158652116563007,-0.0782647416142093
0.102,-0.029939503948026226,-0.05062500218989871,-0.020377444019957572,0.04168583772523449,-0.007429444335308194,-0.036749515593383145,0.03288608990024251,-0.03233618509514234,-0.0735071701589931,-0.09200962911055173,-0.07358542049846814,-0.07516690817111923
0.104,-0.038128351426125966,-0.061493431484237374,-0.02304590438854413,0.051578701525007244,-0.009562837283809252,-0.0437128807147131,0.03760962273037779,-0.025305577783810828,-0.06768918215386485,-0.0878699836047681,-0.07034971767777623,-0.07588209985831215
0.106,-0.028986580725233795,-0.07270647450876754,-0.04377985960845879,0.05218371430777487,0.006221536744285227,-0.0599549847090138,0.03382830762528872,-0.024930376193401493,-0.06855983716283783,-0.09115547997518923,-0.07412975770427863,-0.0806228630607037
0.108,-0.015160684615881543,-0.07840381760492177,-0.06372286053690307,0.04710863233988693,0.023562448893907764,-0.07242103629416669,0.02484086125513185,-0.02871110105009376,-0.07294354669926348,-0.09807393913287081,-0.08072988936988706,-0.0841779282129534
0.11,-0.011798355514985058,-0.07843949084409324,-0.06720676422655088,0.044938055124329454,0.027034131879806345,-0.07316851805052237,0.017240681900166456,-0.032237557451205635,-0.07571197972027269,-0.10261391546543328,-0.08466701793999025,-0.08278781948916514
0.112,-0.017212954769376117,-0.07381339465026854,-0.05709679909911089,0.04605510615442035,0.01898744299174754,-0.06508695368534508,0.014298102524057284,-0.033234135974566814,-0.07419090367510663,-0.10176598032048448,-0.08384885218949317,-0.07824716612634011
0.114,-0.017311015874714928,-0.06426418689533299,-0.047505286189953796,0.04254818461436529,0.01371795584247571,-0.05575555229852827,0.015603868026449325,-0.031327495270626234,-0.06900441462564712,-0.09644477243774598,-0.07965640625766798,-0.07369975852899327
0.116,-0.007420891280916005,-0.05151720153605117,-0.04465191998723691,0.031659975407322745,0.017291789206322284,-0.04880025805210171,0.020957454716678932,-0.026235035310201164,-0.06223769833552405,-0.08931965093537866,-0.07430011893563464,-0.06901044548268281
0.118,0.0019525157832346767,-0.041022803850975675,-0.0432729738585377,0.02136436991316003,0.02209687638164512,-0.04371307686446309,0.029613722770274103,-0.019050861382442136,-0.05626475018678165,-0.08334808168239179,-0.06935426825024962,-0.06374835866129057
0.12,0.0002939040884335535,-0.039833551012901154,-0.04017580596683469,0.021416760117901966,0.02049360842833035,-0.04200761964962062,0.037405105633000785,-0.013381243280409912,-0.053410482979900364,-0.08084697928384163,-0.06645756127605172,-0.06142356187758517
0.122,-0.010515120137271409,-0.049376115227543635,-0.03897510160672579,0.03174927361375052,0.014333244246235879,-0.0458440618499328,0.040275576633193595,-0.011313567584861678,-0.053943052395651774,-0.08147863592744173,-0.06713636671343524,-0.06553273188458592
0.124,-0.020781013215818066,-0.06070200384071345,-0.040155490007087166,0.04238512269457674,0.008942745776562797,-0.051084651630660526,0.03970635469267413,-0.0098241049701818,-0.054536560055707485,-0.0819744025628462,-0.07036048998180923,-0.07293731721290668
0.126,-0.024223018194975566,-0.06398785925991624,-0.03976692897096096,0.045139120358561005,0.006433023042152259,-0.05166034707027701,0.03955534877517247,-0.005191136180742279,-0.051893747701385204,-0.07981953535166161,-0.07279504371843179,-0.07672110992413002
0.128,-0.021525201349043704,-0.06088389981416722,-0.03897699564393832,0.04169432933459395,0.007391008008635438,-0.04974779226358063,0.03898492323645815,0.00036681737285414954,-0.04752203601176149,-0.07646162514739009,-0.07324081164575424,-0.07568338307022643
0.13,-0.016543214684517363,-0.05926552708506416,-0.042312940023884464,0.03835993306667084,0.011644844009699788,-0.0514047726462424,0.03449863128153099,0.0013020760069407103,-0.045158246507655674,-0.07457677485629785,-0.07332430978932968,-0.07488964766272524
0.132,-0.011039718360222755,-0.05991213327925804,-0.04879485546514565,0.03645269346398821,0.01742536509371641,-0.05576778841251979,0.027489704473773108,-0.002967381970819004,-0.04479880854394864,-0.07346366761857834,-0.07301382691425401,-0.07624199682459824
0.134,-0.003915803856877488,-0.058077552911092616,-0.05433893058087888,0.03259558028341038,0.02351599303669862,-0.05806026549776178,0.02342621448247013,-0.007532858919774938,-0.043822277295686926,-0.07095626984900719,-0.070480227695837,-0.07607355396742561
0.136,0.0032134600246236126,-0.05340048148623236,-0.05672640590873637,0.02690403303832932,0.028380410147325542,-0.05723661225995346,0.024686093542367626,-0.008516638855542791,-0.041985171439797284,-0.06798376969250122,-0.06656307035269925,-0.0727964387079098
0.138,0.004091600342630026,-0.05020552669321033,-0.05413693731823451,0.024866640506943087,0.028004126358149056,-0.054685177096431066,0.029204828246912687,-0.005524114196225524,-0.04054248623156213,-0.06658017833851354,-0.06403729955375342,-0.06923350645539654
0.14,-0.0038481085608080444,-0.05215162689444851,-0.04788922585699602,0.030047942588604253,0.021583090456798987,-0.052646718072856605,0.0344411217175545,0.00039473409684016793,-0.03879090941822769,-0.06590933206915918,-0.06321321803655175,-0.06726384896432212
0.142,-0.013354126325132278,-0.058634385243260256,-0.044831532113896684,0.03819779703755643,0.015902893338822336,-0.05400310059569404,0.038801990204813966,0.007340925319556913,-0.03556106296298033,-0.06421913252067267,-0.0624409384672739,-0.06593714497076525
0.144,-0.0156906604356339,-0.06372998481037372,-0.04781854624102336,0.041445068427946805,0.01649013865949037,-0.05735587302790707,0.041204995269234,0.013233333164126143,-0.03143849476769866,-0.06165056789822902,-0.0607069049271659,-0.06388842533712348
0.146,-0.01103052658053136,-0.06118828938392049,-0.05021428664657314,0.037204753012536666,0.019799379910623024,-0.05674104623790754,0.04173843985887939,0.018276601985774913,-0.02691321016422359,-0.0584350959360955,-0.05738694543814376,-0.06056598521710847
0.148,-0.005320027792091633,-0.05145431845467787,-0.04627587116999116,0.029561987531536292,0.020103613250036772,-0.049840383649207246,0.0416260423911365,0.024393712120576134,-0.021231155322528332,-0.05355391258141742,-0.05247569018641361,-0.05665002795514575
0.15,-0.0019730742241288127,-0.04135212312017035,-0.039423422762949904,0.023518194002819074,0.017769218260686077,-0.04160205463201342,0.04204691512388796,0.031358969334610874,-0.0143980364942752,-0.04722426222553452,-0.047533806453742285,-0.054044475260890665
0.152,-0.0006377900418978104,-0.03687911130472727,-0.03618849253416605,0.020882635221971067,0.016431788273687527,-0.03796438343003052,0.04321734971003045,0.03637903784555877,-0.007923053348473166,-0.04193499929659992,-0.04395722279712304,-0.05347391735332678
0.154,-0.0014461475258411426,-0.038340420990936555,-0.03682299731691696,0.021287817370328435,0.016046641742078253,-0.039184791021865964,0.044214177158748265,0.03770589028739546,-0.0031898280170037027,-0.03957494710021325,-0.04150384521337551,-0.05274667820187962
0.156,-0.0071104282387996,-0.043041883280247266,-0.03580501613092744,0.025243526153598452,0.012560808251726488,-0.04117798538206609,0.04390856508779655,0.03630205549810236,-0.0007978019467019082,-0.03980317630452207,-0.03996207522360592,-0.05011209892027539
0.158,-0.017641849935741357,-0.04849828874388048,-0.030558122579309156,0.032482628918783896,0.004859481289773407,-0.0411666812345784,0.042492340797937206,0.034422026668478385,-0.0008054778304044093,-0.04147998962218065,-0.039944354697618915,-0.04748161311810178
0.16,-0.02459303180431394,-0.05112172923222852,-0.026139269223343756,0.03739524287968992,-0.00047949810312869045,-0.039778173227361095,0.04176397879937797,0.034079449796094306,-0.0021760166942883814,-0.043502077219041466,-0.041261183590378725,-0.04753761076622427
0.162,-0.01679753254726627,-0.04672756523099263,-0.029795312095979597,0.03201029682958308,0.005377193097078988,-0.038795099136350396,0.0433067722606323,0.03614610892755792,-0.0030480255662022862,-0.04459127468620384,-0.042651506902943705,-0.04997889945347641
0.164,0.006512775056969502,-0.03527996026785241,-0.04213468889602974,0.015506086301146757,0.0229477036918437,-0.03872512069439351,0.046240952827514274,0.03982556556451791,-0.0024590049396671972,-0.04407177808986619,-0.043205037909480014,-0.0520369951968622
0.166,0.03237743799156423,-0.024022564827803777,-0.05696881175548855,-0.0024916130954182898,0.04287660770472602,-0.04021970367774579,0.04717311553553353,0.04292531007916407,-0.0010923511616404223,-0.04276751290518441,-0.04310924637442641,-0.05164272255686657
0.168,0.04540964344721511,-0.022150723905702007,-0.0678853960642359,-0.010208002009787706,0.054775384163372035,-0.04493555111474537,0.0440303656653505,0.04417704725024692,0.0007904291357317509,-0.04143533455868227,-0.042646985727460264,-0.0494991264609612
0.17,0.03881987738361931,-0.02966818304384403,-0.06841903057201602,-0.00403210677950097,0.05226956867850173,-0.049729075611772075,0.04054108959883845,0.04632216975832686,0.005682565797428353,-0.038153939735085476,-0.03996751528660096,-0.04654018610934467
0.172,0.015935726980400435,-0.03711023061179586,-0.05284164450380953,0.010750737672845737,0.03382341055992278,-0.04648474782746441,0.04306708304297386,0.05351357680453866,0.016033063679201976,-0.03007984422671982,-0.032100051983496664,-0.041190061032360545
0.174,-0.011177854229573864,-0.038069962924761454,-0.02682421611787067,0.02561718717081474,0.007701618787769022,-0.03424153025851602,0.0517280714992278,0.06439520789725671,0.028960583453680272,-0.01814297581022177,-0.01999444573248632,-0.0326855602342817
0.176,-0.02578340604141575,-0.03376659826762805,-0.008036931709439067,0.03209162063041807,-0.009247882762933726,-0.02240385155844137,0.059446534355689286,0.07248033199452476,0.03759300087474511,-0.007186144054180301,-0.009477778013522335,-0.02441625259881276
0.178,-0.01907749731163746,-0.027078001609488336,-0.007942271091703302,0.025859813555611275,-0.006544052810050907,-0.01840666392614011,0.06027474416608383,0.07367632384018526,0.03806068531605083,-0.0016250627892834615,-0.005634427556052345,-0.020813558471190728
0.18,-0.0010744826262067792,-0.0212350256853639,-0.01984907763176479,0.013284163181107879,0.008286091284028928,-0.020934698907815723,0.055371690599045204,0.07051969692432326,0.033575173846397736,-0.0014410604470184015,-0.007620194994409763,-0.02217558266856956
0.182,0.008782914009626509,-0.01966973332742084,-0.028118773374158263,0.0069899506530386145,0.01783903798830862,-0.024398284150953176,0.051672080061887934,0.07043373628349212,0.0323602048573899,-0.001264816944844853,-0.00875840325483399,-0.023619350251351808
0.184,0.004850579158274088,-0.020099062841520896,-0.025004448681858037,0.009548368020427581,0.014566477737941274,-0.023798057950818175,0.05457702102293934,0.07870359061774185,0.039944079910881135,0.004292279696568847,-0.0029962659177190923,-0.020426544510383376
0.186,0.0009103493573715617,-0.015547623330605826,-0.016921316628486695,0.009827621324415654,0.008023002257332292,-0.01824727122445742,0.06023972007074057,0.09107147855740971,0.05206790597984783,0.013341032359978819,0.0073210758777694784,-0.014492253492127998
0.188,0.010506786550789422,-0.004888061428978121,-0.015834630119591284,-0.0006012182288270283,0.011442574133620839,-0.0125974919980618,0.05904380067576525,0.09759776531078192,0.05918580574182733,0.01893006348804208,0.013564708248126525,-0.012010482652544263
0.19,0.03106266895852694,0.004967421701494831,-0.02626376767477531,-0.01664508176848497,0.026594215125005607,-0.012549867523218638,0.04909023766276604,0.09524069291362015,0.058811225707034634,0.018939196046148243,0.012197037417104706,-0.014535951675743326
0.192,0.04760106931708371,0.007854535888023068,-0.039872858369378816,-0.02671332204576729,0.042082274261864144,-0.01761159993019865,0.04007664995369934,0.09173710487160178,0.05862870594251205,0.01923775290082412,0.009857060402495194,-0.016422684071504764
0.194,0.046114938125247626,0.004050938480986601,-0.04236277644487929,-0.023834305044426206,0.043282968504045526,-0.021072888544696654,0.04072931078797412,0.0959886518305168,0.06611538587055282,0.026004600896270172,0.014820902543412156,-0.012196227629256201
0.196,0.027543003173742555,-0.0012604937085942758,-0.029106005826842554,-0.011511766087893402,0.027828247656224176,-0.017797488455810605,0.04825654052591534,0.10757782878078036,0.0786845291336018,0.03756984999886342,0.02593053405793968,-0.003759136665365627
0.198,0.010054956822841236,-0.0031983953712473433,-0.01331742450922651,-0.0014138963521003244,0.011381216730687808,-0.011209864370158586,0.05319675447900935,0.11701971208045886,0.08712056268427086,0.045734022749452485,0.03335790082519085,0.001663424633893919
0.2,0.010725198097400244,-0.0017245023540472218,-0.012321524129999081,-0.0022034920114197215,0.011113522137571372,-0.009582256252349746,0.050340343615404466,0.11647203207473633,0.08728568561366594,0.044965270625729664,0.030440041867008723,-0.0001637210445742534
0.202,0.027735515442387206,0.0004570131690292374,-0.027174896128136616,-0.011866558416253534,0.02642153455026156,-0.014972679100320166,0.04270649088966865,0.1093865136862345,0.08446150593342443,0.0386601921662651,0.02163263023467378,-0.005902241774473514
0.204,0.04823960617223649,0.0034930984399796695,-0.04476373838674187,-0.02408828482927164,0.044711880772536454,-0.021262737858359856,0.03674199631350086,0.10644283589874509,0.08565833659461423,0.03514115062388232,0.016938062595457177,-0.008462740951611713
0.206,0.06473123562508354,0.009144039721672945,-0.05565183350364619,-0.03568794518282038,0.058481880587610904,-0.02350622659166731,0.03508579691098555,0.11227377108653273,0.09135663344502952,0.038692264964556244,0.020707095010044415,-0.004416939945720029
0.208,0.073544375828973,0.016010634614827435,-0.0575555915494673,-0.043793253067991256,0.06493303977443743,-0.021451485440161875,0.035808620763536886,0.12268151634133656,0.09808224284391716,0.047637916125386946,0.029727572248841903,0.004037296911264766
0.21,0.07154814136298322,0.022169537229036328,-0.04935391725481231,-0.04600481797795778,0.060937847042361465,-0.014776503850254369,0.03796211684137803,0.1346908188489212,0.10651996905978289,0.06044433443025589,0.04118606691147109,0.014418029533582495
0.212,0.06407578297343335,0.029345075013217963,-0.034706995186622354,-0.04624292387705532,0.05011932251469446,-0.0036274764943157968,0.042279106773999785,0.14930987453699443,0.12028145112112044,0.07701308470849136,0.055553206759239186,0.026643149215473446
0.214,0.06056949909363972,0.039365481818921674,-0.021184204894629105,-0.04992357766745917,0.04100766884937805,0.008850603200783532,0.047025723328226215,0.16422250995505466,0.13758495935833462,0.09341078473100449,0.07088826679283644,0.039243685355844556
0.216,0.06019365871570966,0.05042494140609331,-0.009673290998987146,-0.055135657880979974,0.03409724342239611,0.020270265276195024,0.049877069046076854,0.17428346837817515,0.15201485990963173,0.10376634520643323,0.08205551137016877,0.04925474525396511
0.218,0.05672297552706631,0.0589723197357162,0.0024399451771156063,-0.05719472193092073,0.02560953954639752,0.029870184341074725,0.051475296464800556,0.1785802028517043,0.16052820228231163,0.108125758006583,0.08675979844458898,0.056085052662500516
0.22,0.0515869579080305,0.06250963301789574,0.011022844906856758,-0.05633616155403994,0.018958691454372043,0.03526564078373527,0.05241942506687325,0.1802276863621893,0.16505106216871573,0.11180091665671474,0.08771904762280545,0.060399890883904406
0.222,0.05125137072548312,0.061437538896475304,0.01002448652078959,-0.05605757317857824,0.020208708599376346,0.034493270817479216,0.051209195428934255,0.18225461688177824,0.16840210388533441,0.117819687746826,0.08926796997468876,0.06194284889058628
0.224,0.061933554036551486,0.0596487068712765,-0.002566209812512555,-0.06069427060627668,0.032324264778332654,0.028205808059406933,0.04670881670630257,0.18585814414477891,0.17137334863490797,0.12404820894653731,0.09302222137492717,0.061324067705326675
0.226,0.08686986610675655,0.061577460403311454,-0.025393597696326615,-0.07369848131395111,0.05560154447216074,0.01842391073337009,0.03917466039536553,0.1898132654453976,0.17340530917737548,0.127547926895004,0.09702933916597266,0.060912429143731135
0.228,0.11506410218307404,0.06736095507799449,-0.0474906063891501,-0.09014701164106988,0.07984422704351886,0.010147469417236998,0.030971905027938576,0.19356994026346697,0.17680235628571597,0.13073602896756062,0.10082821632035505,0.06382589851253548
0.23,0.12374201230150735,0.07325997156263316,-0.05004428193273006,-0.09734566696044453,0.08528831091898265,0.010881477552537273,0.027426394227188202,0.20083612827928662,0.1873122338827714,0.14058495978242044,0.10906655399012288,0.07294440893537646
0.232,0.10777184871181916,0.07865035947119835,-0.02868738080847294,-0.09226779596573727,0.06711327268926683,0.02306978758457727,0.03191029630024138,0.2147022276339884,0.20648017925405018,0.15929883710661602,0.1253831617265771,0.08803613726614849
0.234,0.09007122753519962,0.0873252634855398,-0.0025227031931572045,-0.08791423424992252,0.04555291370648205,0.04005966455339285,0.04003159333426918,0.23122655718830637,0.22678287781317008,0.1795905930794258,0.1450330060022427,0.103396188622567
0.236,0.09021812371511609,0.0997408434980229,0.009595950223626384,-0.0941884421300948,0.03939760785768979,0.053044771520219455,0.04422120564902029,0.24378895905296155,0.23926429809974245,0.1930557100601348,0.1597351625552077,0.1121840635777353
0.238,0.10220939654616386,0.11127096712108797,0.009257151792191273,-0.10576319548716286,0.04500043223833451,0.05951032313014004,0.04280363676005646,0.25078779196869916,0.24377069421760475,0.19964439068640788,0.16775666744598836,0.11391580330159838
0.24,0.11174615402410099,0.11871308557248611,0.007350655286627422,-0.11416807792973062,0.05013547973480468,0.061985254058613236,0.039487360481740556,0.25476267320330476,0.24756997546292692,0.20503696270506389,0.17322505145494546,0.11425378363108803
0.242,0.11745290582301986,0.1221331901791562,0.004985972618562054,-0.11909645263179813,0.05383096564684242,0.061283199197639505,0.03597522373867251,0.257669009130239,0.25530080662673454,0.21167680924078502,0.1781011932409798,0.1169520693712577
0.244,0.12656474918350394,0.12173504339340614,-0.004788375084058317,-0.1238588804135918,0.06319520828125126,0.055675461454893875,0.029885819442124237,0.2601080682331812,0.26405682138358455,0.21685578212360293,0.18078036963055855,0.11991468641931724
0.246,0.13986389931822665,0.11788062646171116,-0.022003207419664998,-0.12819654161036906,0.07853979819268135,0.04617132698270503,0.019757386676078376,0.2628838626574006,0.2693347394125032,0.21907950570915216,0.1813746222283929,0.12079165094056202
0.248,0.1518243357700146,0.11366838688074088,-0.03791879319895231,-0.13099514915480548,0.09280967251721435,0.03751598752324511,0.00856040088718107,0.26707504410616173,0.2724628722352951,0.2219968938462926,0.18356958397618156,0.12242779274047903
0.25,0.1628659812783683,0.1142474634146656,-0.04818166354400398,-0.13618077495717404,0.10416509690278153,0.03291358789605075,0.0002358732070999318,0.2724564966699559,0.2780176643673376,0.22973375826229747,0.19053499917480093,0.12872945363232735
0.252,0.1785517626449996,0.12275730084035509,-0.05560382533380011,-0.14874017061578046,0.1164785430212671,0.0327639263737223,-0.004923521471456095,0.2774732939993985,0.2867313647667795,0.24154385791565675,0.20158787525489652,0.13854097170189966
0.254,0.1969429590936133,0.13815073428712082,-0.05915490418657684,-0.16650302371932071,0.1276088838597555,0.03845560689445448,-0.008350314040831988,0.2821120396827436,0.2966396036355652,0.2543510204765239,0.21405467300576006,0.1488924485837866
0.256,0.2077016372358596,0.15610085759033263,-0.05233068844153472,-0.1813040713552988,0.12900974045011512,0.05129441624757528,-0.008787963841099472,0.28890459056907714,0.3084186637184061,0.267812343616894,0.22702375881889772,0.16055367426820877
0.258,0.2033632638073565,0.1707485450456978,-0.03328205310614842,-0.18638544717817865,0.11673437370198539,0.06808262684984238,-0.004223957785445024,0.2993782605702645,0.3238007901803,0.28328745901658603,0.2412528014769032,0.17505417905756404
0.26,0.18611143690181103,0.1778642666662043,-0.008591621167913411,-0.1808578456252374,0.09593491374846494,0.08292943498272437,0.0025975410470435757,0.31117973065972226,0.34050041448227575,0.2994602214650634,0.2557435416437435,0.1894997818058953
0.262,0.16432772066454743,0.17830021051252953,0.013955677291926255,-0.16960926555167147,0.07466118046710106,0.09354310705069072,0.005686204035186709,0.3206751909905995,0.35372814645852474,0.3129673910470873,0.26768064415779946,0.19911068083454803
0.264,0.14600761985116648,0.17739249549818278,0.03161073702474482,-0.15995107785120327,0.05744445092229287,0.10243222979674692,0.003530722027708693,0.32802528136866427,0.36281319726148203,0.32370971789757735,0.2769864564517334,0.2042886215681399
0.266,0.13643886923071138,0.18002940580552004,0.043981733829267095,-0.15710009569686365,0.046336713276689735,0.11145120536752735,0.0004125296104122905,0.3369296846138305,0.3719413344000185,0.3352542938586152,0.2871184981470505,0.21124001468959214
0.268,0.13742660321741929,0.1862352459756238,0.049217818860179514,-0.16111929256752117,0.04326096662122978,0.11826962292858573,-0.000951946260785514,0.3484797152516027,0.38319439830147667,0.3485170180841066,0.29918681791784996,0.22387404753468915
0.27,0.14626815933657458,0.1922055013490037,0.046154496717151695,-0.16825251591449894,0.048391284995490745,0.11970164145592012,-0.0035183527656603513,0.35828358507635844,0.39290806441654863,0.3593165529109049,0.30934686141243223,0.23788799939315725
0.272,0.16020800573306232,0.19567031104657726,0.03540364208975853,-0.17658762285947005,0.06082308352758915,0.11546494070483576,-0.011682032882278693,0.36028140360017447,0.3961607391425674,0.3636193199047871,0.31360343659831746,0.24468257134004529
0.274,0.18070102831228543,0.19832630899282608,0.017341509511178316,-0.18828086356579082,0.08076349240882254,0.107459193433255,-0.025439403493507387,0.3524183491776888,0.39266121199254933,0.36229090539903225,0.31196122274656435,0.24077785595562418
0.276,0.20697114125598917,0.20272595067105045,-0.004753942836768519,-0.20392302441732824,0.10520305954968913,0.0988767119459662,-0.038720965375627296,0.34059028939343783,0.3882992102233473,0.36071688755506087,0.3089835646152859,0.23330480265319797
0.278,0.23080551205645375,0.20916849355164643,-0.022342942901271482,-0.21886757662370615,0.12534015035300697,0.0937548488957616,-0.043926940363337226,0.33563747550912704,0.39089410977051775,0.3648006484823283,0.3115908728253391,0.2335863598815344
0.28,0.24502547071510125,0.2158892839915016,-0.0297880074374226,-0.2284815045801641,0.13522067575892568,0.09345099379062673,-0.040207895900143245,0.34232967390466756,0.40267651342069843,0.3752794842165434,0.3219901878175125,0.24397175115536357
0.282,0.24890034053333834,0.22053313846269984,-0.028729004727343882,-0.23198975187282633,0.1360024178371258,0.0956877916859741,-0.03494824415586508,0.35479072013840307,0.4180685104920525,0.3867004866759673,0.33382394378861796,0.25602955834675184
0.284,0.2418790132634076,0.22180044083543327,-0.020261006304572223,-0.22926350627636566,0.1282479774234692,0.099595753965467,-0.034845341700272967,0.36589784106644435,0.43031682123098364,0.3945329933108059,0.34060372981396525,0.26266321907189477
0.286,0.225310346644609,0.22098328124657476,-0.004552969310646297,-0.22128735030604468,0.1124855566883495,0.10655977902035814,-0.0400843252597108,0.37394056143561,0.43742452282550803,0.3999706045307923,0.343732421059346,0.26495213495032094
0.288,0.2110709163426579,0.22214785609296336,0.01084703880527329,-0.21522185907341962,0.09810065161950615,0.11528284784008787,-0.047735731082864455,0.3785516845864606,0.44122499065957704,0.4060186209655541,0.34815572054715604,0.2669970322919193
0.29,0.21370285592907756,0.22995423247642494,0.016185299154719078,-0.22072405788182103,0.09709529989311767,0.1225003782128836,-0.05440564578030424,0.3796922266374691,0.44501924401663423,0.41391030391011957,0.3564829004189722,0.2714133473154037
0.292,0.23303273541570077,0.2444447005270877,0.011477732073085872,-0.2382208087689487,0.10919450121588534,0.1271281406895254,-0.05701651099261501,0.3803130608626249,0.45155105502396053,0.42342985889156604,0.36829649996547037,0.27929972912742657
0.294,0.2545529437326778,0.25770873969486613,0.0030875432723242147,-0.2562938643415127,0.12388473909029736,0.1283962702233882,-0.056585117312634756,0.38203333069970075,0.4596935381622533,0.4321884224690478,0.37940795064140076,0.288886732671502
0.296,0.2661473958311757,0.26105781547528584,-0.005552490109447684,-0.2638096275588893,0.13386251084952092,0.12484237454325266,-0.057684600429198006,0.3819357328793835,0.4650240462782027,0.4366185277776714,0.38435491965075846,0.29564603612856577
0.298,0.26681076983315505,0.2562940845851994,-0.011314961067417074,-0.26090136496675087,0.13752246215435374,0.11987317747460449,-0.06140638236886134,0.3785521881595849,0.46514959818399065,0.4361785408961951,0.38264530703350863,0.29730407460866676
0.3,0.2607230228690286,0.25358599631065293,-0.007858242493964667,-0.255487076748292,0.13344948990922076,0.1215442734488226,-0.06364297785678893,0.3752636228273555,0.46197430292724334,0.4338453418814697,0.37897537432270434,0.29641704255846696
0.302,0.25054769264722254,0.2578431343252899,0.006928414117681481,-0.2524307489598542,0.12140705819388622,0.1322944205404289,-0.060618248804142766,0.37599595703145244,0.45953438114463707,0.4330613870644972,0.3780747029451856,0.2966818699291722
0.304,0.23841996465416604,0.2631601652033706,0.024472151718978062,-0.24975518667019045,0.10673807519386468,0.14391741043556466,-0.05369910609696885,0.38050795025165196,0.4600773394922788,0.43465550237137196,0.3809922973056044,0.2986814186617202
0.306,0.22941111758543165,0.26125129184703055,0.031321514644424155,-0.2445719585392415,0.09863344175192311,0.1456200243313017,-0.049829178289239946,0.38279652710532447,0.45996480538041656,0.43454156917652637,0.3832429653546541,0.29895554852915984
0.308,0.22786933792271055,0.2507093950578231,0.02230002992953671,-0.23783863370934138,0.1015423265530184,0.13506354905646006,-0.05456015613354337,0.3767702968944998,0.45303257406451786,0.42822108493337396,0.3782721112103602,0.2940973542205815
0.31,0.23139067722391254,0.2372594923757659,0.005858681865632501,-0.23220590715254075,0.11036186311932934,0.12004357975861815,-0.06377209739109155,0.3648533523554908,0.4397362258508502,0.417625259504196,0.3658962209556059,0.286024924868039
0.312,0.23532140965732695,0.22785869471397152,-0.0069460016540636585,-0.22974027997276197,0.11829069759556746,0.10946056154042336,-0.06835909824330542,0.3537981475733474,0.4259487357947663,0.4068792154576255,0.35262764307817374,0.27889316862898017
0.314,0.23825028783605318,0.2239440536966059,-0.013941241229084609,-0.23019235886533065,0.12398118350383384,0.10447700402199826,-0.06608784962376851,0.34331247391445646,0.4131087909876797,0.3948958654266368,0.34189900907964477,0.2720284530339452
0.316,0.23744421807549884,0.21982053155332068,-0.01791443276562627,-0.2283715880351246,0.12661467874177504,0.10021634357837826,-0.061933682181234025,0.32834190418380726,0.39788842290130016,0.37855489602639697,0.33041434073223336,0.26164801679352556
0.318,0.22896190673265174,0.209876604455148,-0.019751946778049503,-0.21871430463020164,0.12369929610793648,0.09350668089817275,-0.05951548376277635,0.3092917349567096,0.3794238346367571,0.3582658425797155,0.314682071495617,0.24653891768353373
0.32,0.21619966282029612,0.1951383239245742,-0.021461292181594954,-0.20367833671009206,0.11792339460456,0.08475135637596151,-0.05849050767482942,0.29086674027899145,0.35944253026302275,0.3362630961551385,0.2947427796312252,0.22752397591069137
0.322,0.20800151008208334,0.180611527253861,-0.02730388093977287,-0.19149674736426603,0.11642317974616036,0.074997121511102,-0.056998916955134954,0.2746738569069254,0.3385817581538381,0.31401325546340436,0.27232341455427655,0.2060671137303913
0.324,0.20432696883400234,0.16934684116548748,-0.034726925968287574,-0.18471127036692714,0.11838110062805801,0.06658176061638887,-0.0525409117123904,0.2600972775291484,0.31785795247124954,0.2935380661673762,0.25057743134731286,0.1862860373331542
0.326,0.19152941424327466,0.15997053597460328,-0.03147693514544915,-0.17525935957259028,0.11078852025006791,0.063787875811884,-0.04361293124588485,0.24878725634094223,0.30017706733558336,0.27712736324705906,0.2337541472089509,0.17337259979422273
0.328,0.16057910666229652,0.14919095564566298,-0.011483773081735543,-0.15525937427386935,0.08561178880875109,0.06747829335354491,-0.03228337957612869,0.24230406213291575,0.2865135949812466,0.26359231368713426,0.22267144752508472,0.1673351926166302
0.33,0.12587786166357576,0.1362408839069729,0.010272752995546742,-0.13059582188874777,0.05731902041761788,0.070582467447535,-0.023353945322644752,0.23641885162604306,0.2723114228607592,0.24749819136615986,0.21146964292092277,0.16114085610311582
0.332,0.11138450297858192,0.12312942823910693,0.0117316447551551,-0.11529892661260759,0.04903662415000801,0.0643084538728748,-0.019875756742477418,0.2230540877373044,0.2515256791091554,0.22473186475019225,0.19328759702196363,0.1481438228567886
0.334,0.11863164707832559,0.11092825280838813,-0.007759531106903619,-0.11227062080851824,0.06191508121627889,0.049088193922680406,-0.019734976672464908,0.19983456263526014,0.22456694689273238,0.1976630661197695,0.1691663592042531,0.12974090117971218
0.336,0.12462033392587317,0.09745243159327048,-0.027343303699641473,-0.10898294880571903,0.07414532779455581,0.03349936861573594,-0.01794997212262505,0.17339355896836026,0.19773362571901512,0.17207272374783433,0.14602026212975464,0.11186664035309074
0.338,0.11119283809533698,0.08015438839163783,-0.031152781650871694,-0.0941317385613675,0.06892809373140191,0.023542450119205065,-0.011790629526476989,0.1516802012807135,0.17496993748938028,0.15028497035603192,0.12691215274005446,0.09638878465694899
0.34,0.08081477517030095,0.0612032626787265,-0.019464883309202735,-0.06981098825390435,0.047691576046849773,0.01992534060021655,-0.0020093182425061115,0.13729420365312855,0.15561958224705227,0.13084208857790955,0.1100371049934385,0.0812037810655762
0.342,0.04630405132025235,0.04574661109937437,-0.00027553888085073873,-0.04525050924549074,0.020765134373773565,0.021349125254931774,0.008925244355751417,0.1279672653656354,0.13841403713256623,0.11295542323708502,0.09502106548902141,0.06643539319085495
0.344,0.02143391591395773,0.035224892459232326,0.013900639413296749,-0.027854272610812067,0.0011757049195999915,0.022804355720212315,0.0172930961866621,0.11884828603825748,0.12192540660886096,0.09634281566895135,0.08284594350654201,0.05437563232320128
0.346,0.015116761616528349,0.026790098321681242,0.011464547850919651,-0.02048644309937115,-0.0007952374166150357,0.017339336919961642,0.019320395564575644,0.10543366939600467,0.10380330768836273,0.07887296675091618,0.07138245076689287,0.04432203728024868
0.348,0.020174120600505968,0.017996071228039034,-0.002618638828611611,-0.01852017838876074,0.009138181731593349,0.0058705264037134455,0.015059228333086,0.08800935864059889,0.08413188039924993,0.059372041675017535,0.05709650689378908,0.032972946701655965
0.35,0.019161265839299,0.008403056312899691,-0.011195717466092514,-0.013042825486057027,0.01392457195999475,-0.003342751842158074,0.00925875729611102,0.07105424125610568,0.06609351251985641,0.040037609915947715,0.039989340310296294,0.0194190897965076
0.352,0.010518748513339107,-0.0013303117709809239,-0.012050460545175277,-0.003522626788996479,0.011154974273829821,-0.008423587058190109,0.005914191435943978,0.05644557431367624,0.05053029281991783,0.022916439770105233,0.0232698606341369,0.005740279634134003
0.354,0.01098202675604099,-0.009071666318741584,-0.019971850686323504,0.0005286968513048133,0.015652931012522173,-0.015614436977739798,0.004405786268879537,0.041701226766049336,0.03481423993871896,0.00792866410398487,0.009222371508849251,-0.006278473242785217
0.356,0.024446887246992517,-0.013093943424181465,-0.037276765829032735,-0.0037573324638376687,0.030415849186185766,-0.025802345054462474,0.0033351109787058807,0.026104008398313606,0.01863832642091874,-0.0045282948443387035,-0.0023508315371225863,-0.01608420105343882
0.358,0.03014432240006733,-0.016150921092146598,-0.045951439141229115,-0.004687801165941286,0.03711698648069167,-0.031880519195493756,0.004150699962268148,0.01304311118997398,0.0046925480760456086,-0.013890590182587849,-0.01234018441381568,-0.02365190893069706
0.36,0.012145722401820328,-0.02351571393629917,-0.03542105760644047,0.00802352554318125,0.02330293468216174,-0.030901459859024056,0.007804939632913896,0.004627438074969542,-0.006594693606502921,-0.022110117561225738,-0.021365398950472694,-0.03010036895897193
0.362,-0.018369991178995505,-0.03638706624296049,-0.01811213915779908,0.02921851874947596,0.00011088967070362219,-0.02885704437066771,0.011863413004023434,-0.0015961997975414569,-0.01679914272734565,-0.03167120870886057,-0.0301003642293301,-0.03728552336693114
0.364,-0.038098578856250176,-0.0496294629049695,-0.011842005813067916,0.04525786695899216,-0.013116140613528315,-0.031835348739493785,0.013488675701826804,-0.009044695067229937,-0.025662051132443388,-0.04207053389973874,-0.03846310068997932,-0.04521038430704706
0.366,-0.033719737805599274,-0.055304503191416804,-0.021609478099206922,0.04626495959979659,-0.00739503724857928,-0.03889325921042772,0.012227466166227916,-0.01800253171808606,-0.03249624645349458,-0.05083214200779437,-0.04526686791231756,-0.05124874834900009
0.368,-0.009715539103017735,-0.05021426364717928,-0.03997251180698757,0.032654488633873976,0.012352339283719477,-0.04518675175754249,0.009146913127238813,-0.026018055013983663,-0.038709424288654856,-0.05652369375132477,-0.05006247011753983,-0.05373151881795505
0.37,0.012413575483414662,-0.04155369186263973,-0.05320254462072166,0.017749334054269816,0.029584002938623337,-0.04752694381972133,0.005912257968953941,-0.03098343004666761,-0.045397736632537086,-0.05991582124556415,-0.053924136459614386,-0.055353636353387664
0.372,0.010082497500153612,-0.040729635655887254,-0.050305781832940454,0.017904741063426884,0.02757011101695062,-0.04607664356084912,0.004554340248651723,-0.03338385786810713,-0.05121767900810051,-0.06334316661966279,-0.05735748910469336,-0.060345265023220865
0.374,-0.013887688095932552,-0.04996224334292455,-0.03600811254154734,0.03313163534916365,0.009352622999583575,-0.044158823594902405,0.006102618326202984,-0.03573124600059673,-0.05492187328748162,-0.06837896010720906,-0.059508767052342225,-0.06844911748286978
0.376,-0.031060517102096945,-0.05912013992318608,-0.028228643963736824,0.04504380460898348,-0.0025482810798164507,-0.045281934969472776,0.010003659142239728,-0.03924815558053344,-0.057046354530661536,-0.07328081572280612,-0.05984697510443286,-0.074163710686734
0.378,-0.022352995698755377,-0.05820373321158868,-0.03596543385170399,0.03976444470687511,0.005756250541138661,-0.04860362275755434,0.015101750764831081,-0.042099865947706656,-0.0584237662638437,-0.07522705851671689,-0.059036435418509614,-0.07348124808930942
0.38,-0.0016994532443002546,-0.05003475141152644,-0.04830571415672692,0.025588203618177867,0.02219906077804294,-0.050119743614071434,0.019561764659920124,-0.042948690415691985,-0.0598879239088982,-0.07559742601568442,-0.05916930485248813,-0.0698160667487038
0.382,0.0036297201633942577,-0.04619245500477979,-0.04974831350186937,0.021537579448252988,0.025743098368929792,-0.048241683806284394,0.02107922776637014,-0.04377826755460131,-0.06243835754991977,-0.07851122798168146,-0.06263057904339309,-0.06965860062965266
0.384,-0.013908399388178996,-0.05183625832504898,-0.03790866780688211,0.03377605353249918,0.011186085852671493,-0.04473523865222252,0.019543170590570258,-0.045822684611132675,-0.06564033332020382,-0.08369870203000236,-0.06826177589452335,-0.07347180664038885
0.386,-0.03822686967404575,-0.060359962094491966,-0.022163836759807015,0.050793711888197646,-0.009123591625976918,-0.04103469870230248,0.017993581679016806,-0.04620218694515114,-0.06714299358910494,-0.08573500503379733,-0.07089197850311117,-0.07544837912504729
0.388,-0.05086441784340141,-0.06432111702491645,-0.013481725240826982,0.05945601966471713,-0.020370050866300313,-0.038717869132850496,0.018220230940282967,-0.043197968693018826,-0.06568530196479724,-0.08215065264725174,-0.06830380985969829,-0.07281468925827946
0.39,-0.04488292706439345,-0.06496202953854568,-0.020052344214687712,0.056986088847091,-0.014653716768230513,-0.04244219687587822,0.01715643896949197,-0.0415627571640111,-0.06430420733332545,-0.07886881481496687,-0.06597186173048847,-0.0712800166893949
0.392,-0.024392743221232523,-0.06611366263648746,-0.041573663807332975,0.047445971293145775,0.006076004288030408,-0.05399860671847479,0.011856650386511184,-0.046535635343949486,-0.06735875010284946,-0.0830983909888788,-0.06980506235032655,-0.07694890572093967
0.394,-0.003431819754570126,-0.06661251453969028,-0.06284829758800647,0.037107617870393926,0.0274591171499626,-0.06516243607593383,0.005916626834369442,-0.05502937333596905,-0.07411276807711548,-0.09252918000128138,-0.07705936339433977,-0.08590637526592894
0.396,0.0023545420724677057,-0.06509599284439399,-0.06705618982560733,0.03303806868584639,0.033304027448774934,-0.06689211626068618,0.005012651083209036,-0.05966622965565338,-0.07993949764003293,-0.09817240848250927,-0.08096566348980805,-0.08948234622718497
0.398,-0.007441504710173895,-0.06452151330242328,-0.05696151847146579,0.037208561099562484,0.02416979707595047,-0.06216616735809751,0.008308923226911399,-0.059151583249332965,-0.08338242593066629,-0.09683632446291933,-0.08110657353345903,-0.08738164961875439
0.4,-0.020570581643926975,-0.06815895552582753,-0.04794075613486786,0.04541287216616985,0.01308568557545557,-0.06012425429358644,0.01049995910114095,-0.05771686347269398,-0.086426368736731,-0.09359949151989942,-0.08187589954076963,-0.08672690309196167
0.402,-0.030500470061647685,-0.07614975733051033,-0.046192280629013496,0.054367820052526904,0.006588894131305667,-0.06347877203667808,0.010138926673398505,-0.05726888890052277,-0.08892392372166472,-0.09300057645230145,-0.08401058144534362,-0.0902227030740839
0.404,-0.03697825303360762,-0.0858084296823045,-0.048994408388509804,0.06230464187382934,0.004389038491190393,-0.06927156204751056,0.009943856667804106,-0.05672848586882456,-0.0887402438586051,-0.09461309243600168,-0.08506664089422208,-0.0937450740043437
0.406,-0.03815761544784865,-0.09305448580842193,-0.054367618928923084,0.06625852880513693,0.006773247731854176,-0.07467166440883166,0.010792549530302266,-0.0560557591004227,-0.08621807805284976,-0.09631714347825143,-0.08490240360095894,-0.09372250828523598
0.408,-0.03624457028182921,-0.09434217698721957,-0.057146674794462164,0.06600716220924623,0.009357437222733137,-0.07593071102724597,0.011363135112668501,-0.05526354088800447,-0.08293167922894956,-0.09588102676306279,-0.08412385361454147,-0.0899145936475879
0.41,-0.03859727984252458,-0.0885866275685512,-0.049245747200500074,0.06486220668273036,0.0037346741054126225,-0.06914725724150934,0.011856181170206934,-0.052768971067600576,-0.07843475756317515,-0.09115400360128452,-0.08095359982367063,-0.08352940725630296
0.412,-0.04578519168126648,-0.07919916692289554,-0.033237153556888194,0.06435205946384136,-0.008714570102084861,-0.05734222007195738,0.013316583315321389,-0.04868366268053778,-0.07298743584200665,-0.08377339487079809,-0.07459181974877757,-0.07762350457260718
0.414,-0.05122719555235487,-0.07327103808707514,-0.022177357104794123,0.0644074647063655,-0.01718821657859476,-0.049744816518893266,0.01593508363340694,-0.04564357858418839,-0.06925278978529399,-0.07920702726842027,-0.06784915800051917,-0.07549646802983985
0.416,-0.053554537226612846,-0.07450604868773826,-0.020958019386130178,0.06634414952740826,-0.018259989709226872,-0.04987052289000409,0.020191417581547147,-0.04431720183447521,-0.06794155102577368,-0.07971977571332799,-0.06373765046918199,-0.07601121319336025
0.418,-0.056793722065995526,-0.07786525740264806,-0.020973498744485234,0.06968351833152013,-0.018971347160455888,-0.05107735707180311,0.02608085543081345,-0.042686304462865116,-0.06688963750821199,-0.08212157278237937,-0.06282217064702092,-0.07500037896030218
0.42,-0.059838736628778415,-0.07635714313274497,-0.01671967151810128,0.07007802194689729,-0.022336964875108726,-0.04792158686836525,0.03059022899092811,-0.0405255347195318,-0.06635179673504987,-0.08408873321373536,-0.06508751529264079,-0.0718398275785946
0.422,-0.05477233055785817,-0.07098473759922402,-0.016908724956312727,0.0639799686664054,-0.019987402962232885,-0.04558174954826212,0.02911011963226557,-0.04042238883687955,-0.07009409105758814,-0.08736023194768204,-0.07135936207399658,-0.07073704890793261
0.424,-0.03615319008561595,-0.06825363914984438,-0.03301418223202246,0.05251964375781206,-0.0026668210717297686,-0.052530213816232185,0.02048472577349194,-0.043882681840594205,-0.07915833826316596,-0.0934585933188435,-0.08128416750048316,-0.07532817961054779
0.426,-0.01017868413331891,-0.07029114304552159,-0.060752500322940994,0.04060660735953709,0.02480980208053298,-0.06721434761834971,0.009406974944526404,-0.048808437979071174,-0.08806924178363389,-0.09985187043289946,-0.09115169294810475,-0.08344298055267686
0.428,0.007549826331214417,-0.07286884940216926,-0.08053667334378728,0.03382732365945824,0.04429742807537723,-0.07799666463231612,0.002813281122907189,-0.05091287695114313,-0.08951596900323949,-0.10139448124701526,-0.0951253525521534,-0.08797849791380209
0.43,0.0043444823399651986,-0.07283986139411547,-0.07697713385781568,0.03621026082642844,0.041071487789092684,-0.07615472340685797,0.004535747478427346,-0.047100166317236944,-0.08141636187573435,-0.09530235144913256,-0.08965413424775684,-0.08410200765618729
0.432,-0.021329481485001526,-0.07275736673914981,-0.051262357333344874,0.04922230938253024,0.014994469814151298,-0.06353624816753346,0.013375230192016252,-0.03820395641380988,-0.06825124917839312,-0.08444861704498628,-0.07703011193017441,-0.07463847747671676
0.434,-0.05831111845052242,-0.07585632613903115,-0.0175686315841412,0.06872010194489547,-0.02087892758414852,-0.04837808084155037,0.02425985810992902,-0.02895815260659926,-0.05680421021250173,-0.07461678752848448,-0.06408518238281131,-0.06702905769144835
0.436,-0.08530131855589002,-0.08036081997247646,0.004820244399942126,0.08360136866997109,-0.04602273517715492,-0.03937867441136641,0.03127016191465989,-0.024666112797003342,-0.051623919060028896,-0.06975499056197462,-0.057449951418490686,-0.06639807264613325
0.438,-0.08609984735403696,-0.08211077030107512,0.0038232902971627597,0.08451086993205707,-0.046105146321254335,-0.04072407659333568,0.03204342879824667,-0.026780601703242646,-0.053168495408362965,-0.07093075009344177,-0.05962318136648419,-0.07198705583937642
0.44,-0.0675309531133828,-0.08076418752581992,-0.013502052201319852,0.07492218022436657,-0.028068244227495077,-0.048555217027132995,0.029417942643946433,-0.031843751841123265,-0.05846195370342416,-0.07668630194555731,-0.0678794688871232,-0.07880965111130807
0.442,-0.052320452675306994,-0.08011537983099194,-0.02805003956640977,0.06765888329391564,-0.013142655961770399,-0.055221112446577396,0.027895399073817013,-0.035139727647105296,-0.06318312644040534,-0.08282774180795677,-0.07625148849543285,-0.082339983063997
0.444,-0.05250494460621457,-0.08134876902097879,-0.028774655703273106,0.0689981950458381,-0.012896193407148798,-0.056389900726550514,0.029274218224363574,-0.03475621458138246,-0.06435991966971617,-0.08492588140351144,-0.07973463279741613,-0.08208598935647987
0.446,-0.057183725735720524,-0.07836331566508989,-0.020752323123062973,0.07026466841386839,-0.019002098613694913,-0.0516306849172121,0.03129161569076049,-0.0322928382361697,-0.062495510014358005,-0.08261183413315794,-0.0781065235350085,-0.08117315274236145
0.448,-0.04780621972767624,-0.06459553367687654,-0.016374588236816475,0.058583437149360255,-0.016100652456807037,-0.04291579215307971,0.03011319690670865,-0.030534702105594586,-0.06067769459411368,-0.079376503992891,-0.07545151089295732,-0.08261563132704346
0.45,-0.023057301049007745,-0.045585110678238554,-0.022351570458968104,0.03586792989973585,-0.0007580935931737714,-0.0358004673277618,0.025465863309499077,-0.03085348445067227,-0.06077942878237585,-0.07764765368727472,-0.07492905763355877,-0.08571885534195081
0.452,-0.002289313349639565,-0.03709867300245636,-0.03466567608974717,0.020074030805840425,0.015239103377118467,-0.03680902619194051,0.02165605835714767,-0.033104744914028345,-0.061764223130062475,-0.07683010839267657,-0.07531003477163344,-0.0868677057153066
0.454,0.0004950059346777838,-0.045260341803952026,-0.04545249242626444,0.02214814130308347,0.021460827063861397,-0.045856332138492856,0.021895580693747547,-0.0369064341133842,-0.06224143542070185,-0.07630028746509329,-0.07385287624092829,-0.08420747363058116
0.456,-0.005360351607231172,-0.0571448782964761,-0.051467602942540346,0.031451014443788936,0.021146875062389728,-0.0549166585022179,0.024726507724997755,-0.04149325706561984,-0.06263117325139926,-0.07678853275812947,-0.07058526331320267,-0.08006971504705329
0.458,-0.004382234142043959,-0.05848920250828666,-0.053917400186984515,0.0325633940634053,0.022401699590784706,-0.057212764791250474,0.027081918822033958,-0.04520931035457237,-0.06412777526629154,-0.07850304422403714,-0.06830183222303463,-0.0784790930645015
0.46,0.0014393143136261027,-0.05179353199078982,-0.053032276973270766,0.0266816570552426,0.02452276061109807,-0.05384531255487878,0.028206557737567636,-0.04628428500982961,-0.06639589657391233,-0.08024181567024825,-0.0691713448253509,-0.0808080939109268
0.462,-0.0031356356479936886,-0.048901824019716544,-0.045443379595272546,0.026937839889255286,0.01870260674233831,-0.04871309448705423,0.029690558091903865,-0.0440025234814425,-0.06684309771750746,-0.08052372048475065,-0.07203321100087229,-0.08369104923146117
0.464,-0.022893309076268416,-0.0533990856934415,-0.030209969904170977,0.03817312188448207,0.001948321641047657,-0.043077987473107496,0.03219135535515746,-0.03959177202104197,-0.06383809093225062,-0.07927156447187096,-0.07358061291310547,-0.08254328684918504
0.466,-0.043707544997672855,-0.05944807989123714,-0.015571810636158805,0.051485561600608104,-0.01521442585829135,-0.0386559930146226,0.03341482252276625,-0.0358762641616217,-0.06019065738948025,-0.07824994416352903,-0.07232276215998519,-0.07755057823246654
0.468,-0.05288587528272772,-0.06407152039939602,-0.010983513375926342,0.059384870555769145,-0.021899508384019876,-0.03919125343249531,0.0311240267014211,-0.035002981305934544,-0.05998722682255299,-0.07883645828242898,-0.07012096428566317,-0.07337923693833422
0.47,-0.05376506540154135,-0.06967824148139472,-0.015578265057037462,0.06382525318950492,-0.019988163694619424,-0.04512289514402134,0.02675604467266033,-0.03698068174408619,-0.06316288515643521,-0.08002343616904549,-0.06946594099217043,-0.0728450713330496
0.472,-0.05071236568090887,-0.0739307910812344,-0.022939636200014275,0.06462441054742023,-0.01500255379387913,-0.05117124296522566,0.023358689659485385,-0.04100287248847233,-0.06695570091338753,-0.08047917716304215,-0.07088748055230192,-0.07439270236363693
0.474,-0.039198180802870006,-0.06976652622644534,-0.030535189933284353,0.05587523292051147,-0.006013846511695481,-0.05220859978082349,0.021626573308613062,-0.04646664851304119,-0.07028468297084706,-0.08141473702533898,-0.07343931014584676,-0.07558767106533155
0.476,-0.0202654921083592,-0.058613135390772536,-0.038477647260055446,0.03965308182030131,0.007196211024317222,-0.04963267213779099,0.02049284571330899,-0.051933807505118675,-0.07351494745419039,-0.08501708779046616,-0.07608262029283726,-0.07600752345732055
0.478,-0.0068232163175417065,-0.051521977644817224,-0.04480832684655595,0.02871478977015958,0.01779229953075114,-0.04864536489085194,0.019858710578361385,-0.0550793270370972,-0.07629918118517114,-0.09077776318027865,-0.07778656194187956,-0.07674541331634299
0.48,-0.010329818967062598,-0.05471645060543008,-0.04449209228916057,0.03226844653475371,0.016794608364070793,-0.04986665660881616,0.02122582954308939,-0.054430918972593285,-0.07734557571338585,-0.09491539401294628,-0.07705363865375747,-0.07778602106577878
0.482,-0.03035025779936281,-0.06360414777448241,-0.03352127235065684,0.047608449777019134,0.0010968409210201776,-0.048904833234258455,0.026307339111522866,-0.050414098690633284,-0.07570829753225708,-0.09390731416143815,-0.07312202879307272,-0.07682319453445054
0.484,-0.054764271918280316,-0.0710166016880547,-0.016638048343068573,0.06422271580480939,-0.020676799721884628,-0.04460008795966644,0.03379356010763408,-0.045562796996935204,-0.07284284686114355,-0.08929428453710733,-0.06870963075742792,-0.07346750626603885
0.486,-0.06656629094672258,-0.07329509125116579,-0.006878498393823534,0.07124176729692222,-0.03187826924781475,-0.041408985366396193,0.03790419745903649,-0.04371706700192092,-0.07240325627491499,-0.08716825745383636,-0.06873524871359861,-0.07197194838240915
0.488,-0.05720349626552001,-0.06987235513470784,-0.012336087429925383,0.064753738674692,-0.023706359927581373,-0.0427062806792712,0.03447171315916258,-0.046714217282373224,-0.07601766551197463,-0.09020735271393135,-0.07361373115298843,-0.07460328840465523
0.49,-0.03668855403951188,-0.06347226896772981,-0.0262111367451674,0.05175966348180371,-0.006027283375924312,-0.04642728589426567,0.027454761468284287,-0.05200430347377483,-0.08051991105000819,-0.09342927585963044,-0.07766820415835651,-0.07670683568540043
0.492,-0.025031192889382145,-0.05857148707765763,-0.0332084601387699,0.04400870867659916,0.0024689374816039902,-0.04729722444199958,0.024148224159135433,-0.0552856011896842,-0.08123735717353411,-0.09113037815911913,-0.07703929060876605,-0.07358799470479763
0.494,-0.031962502679308835,-0.05672798104081874,-0.02485525388159024,0.0465841352039861,-0.006409524645231517,-0.04171812821428153,0.026244263502911445,-0.054894900356755,-0.07754673304603506,-0.08423395064532443,-0.0744131452873203,-0.06752721048723524
0.496,-0.049623116723480576,-0.056630301273142114,-0.007324016426768739,0.055192429886533674,-0.02421778421641968,-0.03213357199058373,0.029904624785738756,-0.05311403683741668,-0.07410552024873127,-0.0788053639949207,-0.07401094551884704,-0.0646572198098925
0.498,-0.06485665846724448,-0.05796445416348151,0.006626056032245655,0.06349221531265585,-0.03785218021526716,-0.025427188822027613,0.031482402238997474,-0.05355021487853155,-0.07566210576816662,-0.08005737824759664,-0.07663035201897758,-0.06840671525340943
0.5,-0.07268536968765722,-0.06156990359052729,0.011074706312080695,0.0692755472896858,-0.042968185318212004,-0.025504026942049618,0.03026358151763425,-0.057101086463752615,-0.0813957919182495,-0.08758371102680576,-0.08056882067366085,-0.07687402991544902
0.502,-0.07381110200517671,-0.0665898660868489,0.0073315699246007246,0.07205944528117181,-0.04160398489621587,-0.030792850072400575,0.02735370951978361,-0.061432288364776565,-0.08681222967837932,-0.0958462739065996,-0.08389290983760116,-0.08460575566349059
0.504,-0.06502202573644361,-0.06861830862629834,-0.003648130913103506,0.06780717300564311,-0.03241290019977545,-0.03774143418191492,0.02381551659126263,-0.064249475756779,-0.08981146232098323,-0.10008093824251578,-0.08512778577621326,-0.08710362242870401
0.506,-0.043741734550232114,-0.06260589187347838,-0.01920988015969611,0.053100315770821596,-0.01437694165315348,-0.04229873313204045,0.020780850766530534,-0.06490056638652947,-0.09103111217834482,-0.09990177584947765,-0.08389452550794362,-0.08452847139716559
0.508,-0.019199875449860227,-0.05084094925309782,-0.031996767663590074,0.0346103650794904,0.004490765779496414,-0.04242036568510782,0.020067940146962008,-0.06362142695853948,-0.09034610114750545,-0.09709347414084084,-0.08169456337675624,-0.08098855181370374
0.51,-0.006956012962012425,-0.04460222945676695,-0.03771470437429303,0.026084339052227096,0.013554128676021368,-0.04217422725380857,0.02205336525149628,-0.0616938272540293,-0.08767855457030463,-0.09341641844548135,-0.08055074543221034,-0.07977054698386206
0.512,-0.011932799968512646,-0.05141347015715842,-0.03932832670818925,0.032837420973495485,0.01149822024939511,-0.04702965876348349,0.02389200293867383,-0.061466164416510455,-0.0854772803382381,-0.09100624735459115,-0.08077043736151149,-0.08006436511632352
0.514,-0.0222908730248292,-0.0635273236167659,-0.041119222608274233,0.04399289893102569,0.006911956703234822,-0.05485343686858144,0.02269522804607853,-0.06433935359890523,-0.08672437967524912,-0.09194089807361484,-0.08162124110244935,-0.07971886528761606
0.516,-0.023324019083442834,-0.06730899800336976,-0.04400864532486234,0.04546809214019542,0.00819653371476827,-0.0584348456457194,0.019308991593950976,-0.0693418715501893,-0.09178890393338357,-0.09640214571691515,-0.08302163942695044,-0.07953471316749644
0.518,-0.01702092716120901,-0.061443399186864596,-0.04449748760898624,0.038638617262147595,0.01247091200517023,-0.05504249740000034,0.017180765739220626,-0.07408595489344035,-0.09831584573296301,-0.10176895342014076,-0.08441837251968022,-0.081544244493578
0.52,-0.0192580586038706,-0.0559436268194271,-0.03670885015063191,0.03711725292380936,0.008154336226139553,-0.04740148259189614,0.019053423441999527,-0.0757702797254752,-0.10226657347545932,-0.10384852773273884,-0.08340586307371724,-0.0837431519648658
0.522,-0.03460520507283165,-0.055901391608890905,-0.021244592578879756,0.04540475752765779,-0.007067085949713383,-0.03902788423374016,0.02425192251357198,-0.07277519014079191,-0.10080652671036543,-0.10092539176313284,-0.07864480265174427,-0.08161971821634306
0.524,-0.04805499494842429,-0.05776604790456993,-0.0095528764428841,0.05366971156041149,-0.019673468305715994,-0.03396495318451671,0.028056484855798383,-0.06762807721686745,-0.0967034473889715,-0.09673047461543012,-0.07324892370776681,-0.07565595952206826
0.526,-0.049342382930036566,-0.06060565450494834,-0.010917247852101906,0.05634397424849917,-0.019750941953352055,-0.03635140177432878,0.026589574323608475,-0.06554329017544715,-0.09594954188228715,-0.09633717142128287,-0.07148961051371179,-0.07137474196612814
0.528,-0.04764215939659244,-0.06861081471679778,-0.02043097836005175,0.060279636705026014,-0.014526998225156526,-0.04570698421277072,0.021877134086247637,-0.06808822071434338,-0.09947939952969778,-0.09996337876173768,-0.07351910377003432,-0.0714831530852421
0.53,-0.05022523453895792,-0.07988122776276785,-0.02907897229079648,0.06786685760287336,-0.012026762246367343,-0.0561849932508341,0.01803974937025519,-0.07197665264339406,-0.10275199201897277,-0.10396340425037146,-0.07665252373723519,-0.07371591334008706
0.532,-0.04581272314740277,-0.08407977283253973,-0.037864090761831365,0.06787836328335073,-0.005661990648842307,-0.06284766092933222,0.014428357536076596,-0.07556372708274703,-0.10420123677615462,-0.10649772191835462,-0.0800214376916845,-0.0767479190343284
0.534,-0.02390853550172397,-0.07639723116427356,-0.05237283209449427,0.05258068991329346,0.012696672872538575,-0.06623056642777009,0.007375691609289802,-0.0819533493679178,-0.10790240763129227,-0.10937099782275207,-0.08539880574208225,-0.08307974012963443
0.536,0.0033867464217675917,-0.06571211985636778,-0.0691881216091697,0.03278021740609756,0.03484482443724319,-0.06918206585905393,-0.0020559681083726954,-0.09275315274349653,-0.11585007823861368,-0.11403127387444892,-0.09331805729883252,-0.09298229465313722
0.538,0.012145935386745852,-0.06389277404188178,-0.0761418905263554,0.02695643835600639,0.04256513379431207,-0.07129786176280738,-0.007367639362021405,-0.10289320183008221,-0.12303313874541523,-0.11848462352446384,-0.10015143078094735,-0.09980140615859924
0.54,-0.005781889435617726,-0.07183058736462504,-0.06605697415394104,0.04002788954201606,0.02874207438268012,-0.06954720075152268,-0.005124768957383374,-0.10568746286672771,-0.12378638285856315,-0.12030463449143201,-0.10156893024137742,-0.09747551921368337
0.542,-0.03445701612846994,-0.08017129811223231,-0.04566477940289061,0.05912376667069009,0.0049767600204463774,-0.06352953638411796,0.001331862106971573,-0.10040111056201662,-0.11878280115934191,-0.11949011101046646,-0.09758216497624425,-0.0889347830837121
0.544,-0.052970818387675006,-0.08105772614311785,-0.028058709514682353,0.06913511648071859,-0.012565841508524397,-0.05632217555751216,0.008046385924531697,-0.09196929830477953,-0.11252946030247177,-0.11652648191173812,-0.09159270917349731,-0.08112056118518139
0.546,-0.05667253896044889,-0.07542149684029133,-0.018762114392042412,0.06763282627419907,-0.019655295966522834,-0.050143714510902805,0.014113293852229132,-0.08515361401543284,-0.1075536598355993,-0.1111498399991738,-0.08615994754946943,-0.07624414681897877
0.548,-0.056674668572412094,-0.07055644204628896,-0.013903314273172542,0.06412705170039641,-0.02317050180789842,-0.04534824441246568,0.01869949321243954,-0.08114143440901635,-0.10360151162142375,-0.10419060225094112,-0.08161817692250713,-0.07224532607443476
0.55,-0.06107850444119048,-0.0717655409624717,-0.01069015029499698,0.06633179808818981,-0.027093160995331038,-0.04321021619604658,0.019540950280590354,-0.07943185096636528,-0.10050776040706276,-0.09868340583092643,-0.07772668090989165,-0.06799637863859062
0.552,-0.06335557280150887,-0.07441555876533615,-0.011049736707239091,0.06914561583731074,-0.02694613886801638,-0.043571466790758455,0.015489829777382311,-0.08055728771288882,-0.09947606996838153,-0.09761905974204033,-0.07541113946054563,-0.06505668450821327
0.554,-0.05450458303923536,-0.0687920918979489,-0.014258980329797886,0.06253130158675153,-0.019887445142867,-0.041910262715961884,0.009219068151073696,-0.08496669593093696,-0.1014154059478964,-0.10048920061652164,-0.07668831321804716,-0.06564585146295902
0.556,-0.039165772650903666,-0.055998364831226645,-0.016703722086438236,0.048684429326268104,-0.010989203837570677,-0.036816630653698494,0.005662447924120629,-0.09086403246071403,-0.10562519717740701,-0.10403603088815977,-0.08243286003307906,-0.07003114377573802
0.558,-0.02926626869570236,-0.049703438173582255,-0.02011451342223726,0.04074889019887522,-0.004846824624110295,-0.0359107604767873,0.006218944992046662,-0.0959222490286905,-0.11094469288788383,-0.10692065039775883,-0.09037303512099507,-0.07622914694748034
0.56,-0.02621924454635563,-0.05813567981686782,-0.03149477019771927,0.04392215914834055,0.0022271950660190955,-0.04662233003854066,0.006403086065660693,-0.10056179385952728,-0.117413161477978,-0.11142317641460281,-0.09725851571027394,-0.08306976229254963
0.562,-0.01918695921223983,-0.07355203373752854,-0.05410738365952672,0.0484388470887157,0.017366892928047002,-0.06604279877382865,0.0013707774395639058,-0.10694471257546725,-0.12560019872978487,-0.11979404251630671,-0.10285942822508144,-0.0919516393070085
0.564,-0.0016850586981779214,-0.08285783831627531,-0.08119691301268613,0.04413896154201505,0.039934895429894084,-0.0840492923280285,-0.008163680523700565,-0.11467143619025015,-0.1340229813430883,-0.13033352405310258,-0.10894298286735325,-0.10286621806496024
0.566,0.01567468293729497,-0.08234122808425706,-0.09816214543178937,0.034801102009936885,0.05705985279411759,-0.09199716202433884,-0.017185912721829837,-0.1198665401344568,-0.1391565882960749,-0.13808407352829624,-0.1150548474098212,-0.11136225869483866
0.568,0.01469293530621744,-0.07870497644066363,-0.09346217702428036,0.03319683478656838,0.05399431596493277,-0.0876955454466859,-0.021710936257406437,-0.11968744492131725,-0.13950359443939817,-0.13953950761668407,-0.11848345139582311,-0.11324955610464923
0.57,-0.0076966377352137546,-0.07847936545841984,-0.0707368602121377,0.04415480251559364,0.031101002276278846,-0.07613812711827789,-0.021602457930077815,-0.11623121702334382,-0.13781159164412304,-0.13617909816606516,-0.11771506322420036,-0.10961536837307138
0.572,-0.03438221490988198,-0.0815934492700804,-0.04715436860481435,0.059139702921116394,0.005473572074080724,-0.06594899483123479,-0.018913284818187843,-0.11367175397327337,-0.13738458794618458,-0.13238049720671247,-0.11363395083087628,-0.1040621436423173
0.574,-0.0502864633636147,-0.08627165498573507,-0.035982673562637166,0.06985586719415253,-0.008610191415808509,-0.06273764864095187,-0.014150387353765144,-0.11244218956347216,-0.13739228814078072,-0.13019384609855222,-0.10767414838107106,-0.09753959392881896
0.576,-0.058495265161655936,-0.09289875335088353,-0.034411228063181115,0.07800490501051066,-0.013937061176226262,-0.06485258153049912,-0.0057092278388854376,-0.1093947409151073,-0.1338903010325832,-0.1276232865289005,-0.10055970530477805,-0.08885947523809293
0.578,-0.0670671570641229,-0.09902185143820401,-0.03186086659891324,0.08598768242361299,-0.019772223029000467,-0.06582774979007769,0.00541785641234466,-0.10345046938443397,-0.12585190793104994,-0.1224125174355516,-0.093820115728034,-0.07956323189100378
0.58,-0.07217816580488563,-0.09753698360458754,-0.02517590288853883,0.08785709731175846,-0.0257295526739626,-0.06119979989332384,0.013214034830772527,-0.0981377625797783,-0.11841141983446553,-0.1164689922223167,-0.09095579464430396,-0.07517966065243428
0.582,-0.06363764078059368,-0.08461721285812242,-0.02100304337860042,0.07659155234224654,-0.023407069066079648,-0.052800303722469646,0.013150921844937841,-0.09731514143066977,-0.11743992353564162,-0.11423614059551673,-0.09368360737385582,-0.07886793127126045
0.584,-0.04150267161770965,-0.06569043383844116,-0.024680975227794142,0.05532910379477409,-0.010314834218299764,-0.045845538512045675,0.00869135289992587,-0.10003577092178242,-0.12167048186666511,-0.11629145888399839,-0.09760975745942477,-0.08549687459022237
0.586,-0.02177418675336709,-0.051752015450154565,-0.03070988777885287,0.0379045587781867,0.0027790603945461643,-0.04268924101707245,0.006558036261403266,-0.1022011469447832,-0.12432570897235577,-0.11819656204345452,-0.09662905977909432,-0.08669145293348092
0.588,-0.022335941695759524,-0.051582666053822515,-0.029757406303276175,0.037739608414161664,0.00245019721529298,-0.04251347830015704,0.007813870365817295,-0.10263701292368856,-0.12241538685256176,-0.11704358786003444,-0.09188512240579173,-0.08146531325360076
0.59,-0.041928712334715845,-0.06513011824286642,-0.023440840574078976,0.053988880773222746,-0.009863397693358705,-0.04560513267732138,0.008074573567490402,-0.10401503757698159,-0.11993509460761238,-0.11535669726115023,-0.09059780871847883,-0.07703488938658136
0.592,-0.06058489229287015,-0.08204015972860333,-0.02175122823930866,0.07125957761179713,-0.019582115526385245,-0.05209913251362569,0.005133797319325827,-0.10746978374038677,-0.12099318384670696,-0.11639678782462577,-0.09491981579745579,-0.07851241375750355
0.594,-0.06292528985790172,-0.09094823792857899,-0.028531968871844206,0.07641184770536659,-0.017526747421867956,-0.059421388412301566,0.0017768227958002939,-0.11045551926171304,-0.12434318187610885,-0.11919819169618048,-0.0986207993498325,-0.08308312388941648
0.596,-0.049631152380356806,-0.09140334387233584,-0.04224890085455484,0.07019911063895681,-0.004708613733668125,-0.06728254282613289,-0.00024375736187500798,-0.11207715710037777,-0.1279599130831709,-0.12195731390833446,-0.09807743425930084,-0.0868734915479039
0.598,-0.026783581980073707,-0.091054207082381,-0.06431617167424138,0.05975593883703986,0.017154534472456302,-0.07938524100684655,-0.004504446587250326,-0.1164514501981429,-0.13440908304657895,-0.12691210602071767,-0.09951484167892974,-0.09165916517544401
0.6,-0.0015473143769354659,-0.0930784713845645,-0.09097109767143051,0.049605014744189165,0.04310997379592916,-0.0941556770122378,-0.013537954392987274,-0.1260007534021931,-0.14521341939263777,-0.13589087750913956,-0.10866999142512816,-0.09952258618101012
0.602,0.010225907886326623,-0.09435028775261024,-0.10367213576687778,0.045020013917998244,0.055978602838551494,-0.10075531304197796,-0.0211436002389783,-0.13411631210243743,-0.15313860818464173,-0.14320202828796427,-0.11870209446639114,-0.10555763198853452
0.604,-0.007734968422611246,-0.09332756951127404,-0.08488846491426402,0.05293758308273689,0.03844787608713433,-0.0905056848851027,-0.01789905940500654,-0.13128504668631993,-0.14871362950184427,-0.14033922572589297,-0.11756429053471722,-0.10236358567566606
0.606,-0.04895406959953661,-0.09223642147301239,-0.04312125279937511,0.07191684854940011,-0.002615368853001368,-0.06908295464200699,-0.0042793222364209335,-0.11810913465684567,-0.13396876190365115,-0.1278409209527735,-0.1051082563260768,-0.0903811243801625
0.608,-0.08381066038486693,-0.0924196763415376,-0.008849485416058104,0.08883800647710983,-0.03758062472773322,-0.052221041741750275,0.008386496702608966,-0.10550941169300711,-0.12129514755666941,-0.11580844473119148,-0.09363625349432028,-0.07891825161534297
0.61,-0.0893570564361369,-0.09139397255564626,-0.002362583979254977,0.09122820858733569,-0.04467166671048657,-0.048650856849021484,0.011443077381418032,-0.10162410555856387,-0.11819675898534665,-0.11202462177874498,-0.09178259542057943,-0.0762916163035418
0.612,-0.07114077613027657,-0.08673005530228849,-0.015901233026309244,0.07999531048262017,-0.029821370333563715,-0.05306486161144836,0.007155333241493804,-0.10472340253608117,-0.12105403893195664,-0.1153665355889847,-0.09626993542029752,-0.08197655021918278
0.614,-0.05227044236997799,-0.08210736025461315,-0.03014942296804359,0.06793528268554588,-0.013476025758756692,-0.057541714045414104,0.0022729254871878806,-0.10911301317284448,-0.12368917200621668,-0.12069804086136349,-0.09996272074970396,-0.08930695046868052
0.616,-0.046551206703497675,-0.08276248702657461,-0.03644431900420031,0.06484347005298984,-0.006869585193215961,-0.06054082409478113,-0.0003007301001325916,-0.11203593982987016,-0.12475544000331802,-0.12484504195668006,-0.1008568016585777,-0.09350940298693293
0.618,-0.04579997868813683,-0.0847978833544307,-0.03914185987630338,0.06539692729746521,-0.004573386531627565,-0.06267200588932154,-0.002019870051817898,-0.11432253805044851,-0.12682716694802168,-0.128145581689517,-0.1020363675273692,-0.09561321888370304
0.62,-0.03368853789692565,-0.07984020057706642,-0.04637568558892327,0.057232309822576884,0.0051422824665297365,-0.06403728547050447,-0.005105765958460719,-0.11799860252053562,-0.13244481513833137,-0.1329759468088028,-0.10661364822213427,-0.09905515329874295
0.622,-0.00986114055934875,-0.07017721891446548,-0.06067482975684193,0.04066013566746547,0.024263973537553937,-0.06662867372085221,-0.009495146745111104,-0.12325139935214503,-0.14063324877586839,-0.139627221047198,-0.11349279094905582,-0.10392527451985109
0.624,0.005528326430365587,-0.0673522489230995,-0.07315882817726162,0.03147533404637114,0.0388070372560656,-0.07126697622671924,-0.01234499440334078,-0.12710061217146462,-0.1465751063564633,-0.14410625131906074,-0.11794456946636266,-0.10601962691658119
0.626,-0.005969754081753624,-0.07643008694888397,-0.07048024714530803,0.0419171411333287,0.03240554706568914,-0.07407673833152739,-0.011140677283826003,-0.12664781871741793,-0.14629789389024903,-0.14282037956671606,-0.11695008417705867,-0.10215816115992812
0.628,-0.03933708879730639,-0.09080242854380853,-0.05130736999155242,0.0660827258806066,0.006070438164538732,-0.07166592132288624,-0.0073442214231838054,-0.12300269772232249,-0.14135277106579047,-0.13770374112595565,-0.11270011001627399,-0.09520370430763642
0.63,-0.07063794827475492,-0.10032852655033343,-0.02947598298367536,0.08659274568017133,-0.021450125136809488,-0.06587958322712269,-0.0048756854837161585,-0.11969969252063686,-0.13655340072459696,-0.13311703374955586,-0.10928112106653617,-0.09088256852116541
0.632,-0.0811003016726629,-0.09954051185135002,-0.018122070094401397,0.09164710418268282,-0.033486529990889524,-0.06005353052598058,-0.004640008014226627,-0.1182446095792794,-0.13368315196260686,-0.12980852496173553,-0.10749435040167443,-0.0902137394938053
0.634,-0.0727180137506934,-0.09114682822590599,-0.017935119897457087,0.08393612341587445,-0.02981930899531384,-0.0556849130145107,-0.003865489768338764,-0.11761590151856356,-0.1307541997741969,-0.1259409317952088,-0.10530034779727725,-0.08922514550988654
0.636,-0.05990944776876641,-0.08350316178937171,-0.02302286502172657,0.07435821040191162,-0.02048449103590498,-0.05432832889939449,-0.001470203219971773,-0.11720832471963949,-0.12694238907218186,-0.12215971511335157,-0.10224177104642564,-0.08554913064508124
0.638,-0.05222191048053997,-0.08252746548721977,-0.029881691821755412,0.06996182751223397,-0.01279652656235562,-0.05730052199525702,-0.000334020286836761,-0.11806051780526676,-0.12463986474050522,-0.121593816726693,-0.1008968757849146,-0.08171704072517735
0.64,-0.04989052470630314,-0.08661999671151374,-0.03660025816258136,0.07000189809473209,-0.00846655648732867,-0.0626168577255345,-0.0027820864425086938,-0.12093393689481141,-0.1263136299623349,-0.1251858837759435,-0.10339853008175541,-0.08193268581900419
0.642,-0.049864453962815705,-0.0908681074670445,-0.041097921458381315,0.07098792722892795,-0.006561388831832975,-0.06683116041571256,-0.006775085243596839,-0.1245864815231888,-0.13132935146066144,-0.1299632807371003,-0.10797043546155591,-0.08738936573676453
0.644,-0.04906435348695102,-0.09388185760337012,-0.04493035823582355,0.07141915362208963,-0.003965161656400991,-0.07012777953864334,-0.009350693018643524,-0.12740009695341015,-0.13697283422278334,-0.13317349991438154,-0.11139240978496971,-0.09575114220197233
0.646,-0.04503939691630715,-0.09717005644227422,-0.052118881012457714,0.07128012745409278,0.002465828707381104,-0.07512683489170385,-0.011546191443722511,-0.1297104995783145,-0.14201897574757064,-0.13594443206475765,-0.1141139173701929,-0.10408054305135732
0.648,-0.03732010862853312,-0.10007649273441355,-0.06257118818811556,0.06964604191266124,0.012210046401354471,-0.08166451163202644,-0.01599128390379174,-0.13287137942871666,-0.14727985447861577,-0.1404988676350361,-0.11910467189023138,-0.11013482258193566
0.65,-0.02671942857460658,-0.09992781911092462,-0.07284965395460864,0.0649378313183755,0.022860696781852406,-0.08726230115509259,-0.021444615201812116,-0.13675294292131313,-0.15226257860638437,-0.14567042674413572,-0.12594363453238547,-0.11182182529917836
0.652,-0.014756145791990949,-0.09549884409600551,-0.08033414859468539,0.05719220105367719,0.03255534723048186,-0.08988852092045325,-0.023863862525477276,-0.13921731309456242,-0.15397612302741928,-0.1481075007626209,-0.1297512414273594,-0.10849015345823185
0.654,-0.00611864657470849,-0.08847288847010247,-0.0821223736533668,0.0496729227002688,0.03757908591811295,-0.08782541041968359,-0.021890735394558544,-0.1383130553189155,-0.1510089741379262,-0.14671892302989456,-0.1268616028075803,-0.10289982957697048
0.656,-0.008476580613736318,-0.08396198337038217,-0.07551471755722698,0.04849719638479115,0.03265987415610187,-0.08143638646832708,-0.017780091864765007,-0.13466068383308927,-0.14662901978179615,-0.14362278227043315,-0.11935292698206708,-0.09906320311552182
0.658,-0.026562960479637323,-0.08724259318255295,-0.06081426876830384,0.058558199567800034,0.015740975097294958,-0.07412790165997775,-0.013638427101962442,-0.1305241936771965,-0.14471210389878608,-0.14124534919895687,-0.11246402688981832,-0.09756528723558958
0.66,-0.05641569917191407,-0.09648357961696802,-0.04012378406418935,0.07750194814759365,-0.009745696289196595,-0.06751530730247561,-0.009519301070183074,-0.12657351962951113,-0.14405282562829147,-0.13941365864227576,-0.10847626312018746,-0.09542239926316039
0.662,-0.08509171767648985,-0.10302793728980976,-0.017870747622234895,0.0951109337715142,-0.03488278566987176,-0.060203295292138,-0.004532357799835616,-0.12158686588533371,-0.14052628425679278,-0.13575039929359292,-0.10507687674992577,-0.09090946299382628
0.664,-0.09768258153461297,-0.10128914250148152,-0.003424057086244648,0.10110559956072948,-0.04787255768236468,-0.05335243371094369,0.0011554613159173825,-0.11580807848448778,-0.13422514574501068,-0.1297146523857599,-0.10026303098367591,-0.08627207648495908
0.666,-0.08929900630094702,-0.09381247165913158,-0.0041849655816446766,0.09385721305815885,-0.04335790544772777,-0.05057024522237834,0.005164893922250834,-0.11177839962858127,-0.13006539884825824,-0.12422391231695792,-0.09608403385950316,-0.08440576092255118
0.668,-0.0689526272331997,-0.08629828488491852,-0.01695032008694584,0.0802251375428304,-0.027712130266022487,-0.05256964586326706,0.005091900282210299,-0.11135298738944038,-0.13079224908179243,-0.12180769932116235,-0.09570664970562758,-0.08512189377016312
0.67,-0.047914971794380465,-0.08202816248048292,-0.03387126200777799,0.06718384012107413,-0.009682166431278564,-0.05797336765563586,0.0011594772704824775,-0.11478075428823,-0.13403606249742805,-0.1228287375248716,-0.09987413434720574,-0.08751562141014188
0.672,-0.029740265001994583,-0.08098095816577124,-0.0512580066780565,0.05666212830158162,0.008147596507250415,-0.06611077938360742,-0.005181531612928275,-0.12177036699319725,-0.13755258899349704,-0.12774573912679457,-0.10726712126674108,-0.09308895902807084
0.674,-0.015089325702839183,-0.08179657613303118,-0.06684163235555737,0.049006913281390105,0.024435966885362873,-0.075136470193703,-0.012507363104079612,-0.13058389738378187,-0.14228246475861542,-0.13605377201160135,-0.11527720531576018,-0.10238559673372716
0.676,-0.008903728786446184,-0.08359893163979183,-0.07475752845090212,0.04687714076201921,0.03287509038500361,-0.0806817158495129,-0.017210507450074783,-0.13707844710872688,-0.1476058283066913,-0.1431242499772163,-0.12029561720160341,-0.11058439745154353
0.678,-0.017627214733924007,-0.08511449233016904,-0.06744695085358107,0.052667876083237045,0.02547407033168435,-0.0778374236196974,-0.014749381603954392,-0.1369898913234359,-0.14868068148171323,-0.14299130961717169,-0.11960917860278293,-0.11062703924084834
0.68,-0.04056787996504443,-0.08424874092068765,-0.04362769999154735,0.06432681132505388,0.0018401767014433424,-0.0654767682960543,-0.006074569630484441,-0.13039255324735896,-0.14328619948856694,-0.13546826557153147,-0.11406183229546664,-0.10149341623729406
0.682,-0.06665500937449799,-0.08185546726617272,-0.015174746106160073,0.07644746084684735,-0.025884168235955067,-0.05047496009755777,0.001963879452204417,-0.12273431241597663,-0.13682725771459406,-0.1272842474716705,-0.10809245520647497,-0.09048075819323756
0.684,-0.08126130750767926,-0.08301652308880955,-0.0016509585340204174,0.08425073064724256,-0.04014045765868463,-0.044581261543671216,0.0039245645146364005,-0.11985938478983767,-0.13594433203286332,-0.1253640806491083,-0.10633161196341794,-0.08606684731145742
0.686,-0.07653642344034182,-0.090308730870874,-0.013459869322495696,0.08515733940958096,-0.032000893270218767,-0.053506135496126,-0.0008116206589067275,-0.12311567059742334,-0.14132688425737314,-0.13128462564640067,-0.11004493258167913,-0.09047110569708872
0.688,-0.05802154597441102,-0.09840403831632728,-0.039952295076339094,0.07959983909043188,-0.009796213125581012,-0.06972868145819067,-0.009277442082838979,-0.1286526636088417,-0.14799802749829066,-0.14050051888474296,-0.11547635140063854,-0.09795447701749213
0.69,-0.04189647598003642,-0.10051046390364092,-0.05834665228698018,0.07251672411952383,0.007277641877342804,-0.07956399113668912,-0.016423752908672602,-0.13082293014089463,-0.14986499045848745,-0.14574154238052062,-0.11680353927787163,-0.10010390290549875
0.692,-0.03893076289907113,-0.09837295921602425,-0.05946637896231632,0.06993282502673905,0.009483088928351587,-0.0793436573940543,-0.020249578007442242,-0.12947742106331694,-0.14685211915456242,-0.1453267602883199,-0.11449473722583246,-0.09634416188979783
0.694,-0.04077268710597682,-0.09827883365105523,-0.05765766693142527,0.07058889078509786,0.0078078409253786426,-0.07859706087614939,-0.0244113388780354,-0.13153471008071166,-0.1466672247903764,-0.1459639437304477,-0.11687140532068849,-0.09561882934757035
0.696,-0.03192633997101076,-0.09853052858152829,-0.06667095157157724,0.06593875271538552,0.016456679830126227,-0.0832446405643921,-0.0303673224991302,-0.14026566374734764,-0.1538693400961082,-0.15203389911320345,-0.12777492711357785,-0.10313329593658505
0.698,-0.013626855904439515,-0.09230677507498831,-0.07863236002159896,0.05331405131296394,0.030970045432288942,-0.08656807238673483,-0.032962051589485904,-0.14879902227582367,-0.16182395034151528,-0.15829096937815526,-0.1390649800539465,-0.11281784914699629
0.7,-0.0030741107790513743,-0.08240253853615549,-0.07926939098329268,0.04298998862650457,0.03616960705993661,-0.08285985191273249,-0.029204486463231115,-0.14980502402494966,-0.16203304471402916,-0.15865498191853744,-0.1415286988869192,-0.1169374759751828
0.702,-0.010921930491768797,-0.07990719468341466,-0.06898263231512664,0.04597773241092513,0.027508454067767175,-0.07688031921583184,-0.023452640033020316,-0.14449654668848255,-0.15508965889466306,-0.15444392527279233,-0.1357869140719039,-0.11430944231885118
0.704,-0.030873345438572734,-0.08718313237323584,-0.056340596838510844,0.05980014442582779,0.012285046572696606,-0.07338419447449368,-0.019988851356220215,-0.1378055897804496,-0.1469145164612705,-0.14949608694356686,-0.12761583280592922,-0.10687652696887241
0.706,-0.04853542720314451,-0.09332141661820825,-0.04480213984046635,0.07136076732830006,-0.0014662306650084882,-0.06940542542957413,-0.017959214066151852,-0.1318401243952809,-0.14073026706948613,-0.14450550383070532,-0.1204783115050158,-0.09700740731750382
0.708,-0.054018013166150805,-0.08905981203257773,-0.03505465793330446,0.0716699887414586,-0.009085102252981488,-0.06209274982704809,-0.01547297308222436,-0.12712056113483408,-0.13669091441847941,-0.13907991206773532,-0.11574690353203779,-0.08887919875474755
0.71,-0.04968298933356377,-0.07845928201861156,-0.028894464287138395,0.06470880832284008,-0.010693542029303884,-0.054611716246026495,-0.012722821045380903,-0.12456283753751876,-0.1342647901481309,-0.13397335809555264,-0.11378970667494101,-0.08575413140435376
0.712,-0.04575403042636801,-0.07238273464599007,-0.02695480032629162,0.060512269058736454,-0.010661168008236325,-0.05152244595778305,-0.010566213608199659,-0.12425010841512132,-0.13295479993521528,-0.1302987786408404,-0.11378705092575679,-0.08671860036236363
0.714,-0.04692275174203002,-0.07545905963581274,-0.028965453358508832,0.0624975232243123,-0.011088108737344508,-0.054131352293861595,-0.009467935103834625,-0.1253068501844191,-0.13325892330649067,-0.12906668338791746,-0.11522202632366176,-0.0892434311616288
0.716,-0.04937635082125097,-0.08304913463783337,-0.03393217012291788,0.06636363528101677,-0.010043612200087919,-0.05997961981551106,-0.009764722742975714,-0.12743827220648524,-0.13647030346260197,-0.13055361360546022,-0.1180830918348399,-0.0923296011256789
0.718,-0.048913570755684796,-0.08828919699228986,-0.039348220506250774,0.0679660587648165,-0.006386970866512636,-0.06506073806504466,-0.01201922207612511,-0.13114270780472456,-0.14245710493032435,-0.13384122712352184,-0.12175223720783379,-0.0966116956113622
0.72,-0.04449426148942025,-0.08868300952165316,-0.0440400253899098,0.0664743364365651,-0.0008285335981416925,-0.06770140555516842,-0.016368798499784572,-0.1360931809099192,-0.14875539112437,-0.13789890290463813,-0.12541761465489482,-0.10293678449216402
0.722,-0.03743708115253659,-0.08638036951017049,-0.04887962036690475,0.06282679909942608,0.005356184317649546,-0.06904495235583576,-0.02106288564876398,-0.14045735850523808,-0.15262684421126044,-0.1422176047367953,-0.12826672068912234,-0.10965123029677716
0.724,-0.030070592887009476,-0.08450465450323583,-0.054481572307497075,0.05859353701368672,0.011190284062290296,-0.07047788045137632,-0.023725949139927663,-0.14313918195116956,-0.15389091093766835,-0.14646453694531264,-0.129388092332767,-0.11287331822678127
0.726,-0.023646624104982163,-0.08400553658637729,-0.06041623715372218,0.05506966451331473,0.016617735203160348,-0.07239708075553046,-0.023957757726804692,-0.14470192615897826,-0.1542672365756223,-0.14985633757799627,-0.12853950387352897,-0.11127041501755897
0.728,-0.02005628008721767,-0.08380782201481371,-0.06375338246864638,0.05341964656548522,0.019742272931662412,-0.07361422621689626,-0.022421660398159345,-0.14469788738561287,-0.15372159069290006,-0.15075580669799482,-0.12602958481270657,-0.1073077467613519
0.73,-0.02252810424279479,-0.08319599331774127,-0.06063763551886918,0.054812392357071985,0.01686091220838349,-0.07217182982472065,-0.01959295753982365,-0.1418042256662097,-0.15075246119458513,-0.14853620130497586,-0.12234675019347498,-0.1033399678027751
0.732,-0.031434583558178325,-0.08319227844572459,-0.0517641816731908,0.05949235363308369,0.007889737498863535,-0.06818805698882614,-0.016700073922367015,-0.13720556795967787,-0.1463444390212253,-0.1451754640482718,-0.11865755657186033,-0.09975485880920776
0.734,-0.046678659150811284,-0.08648486804619634,-0.039946634809449745,0.06870665547942807,-0.005547994780691517,-0.06387814374274506,-0.014281888472320432,-0.13328498633914224,-0.1432281031144385,-0.1420693457564671,-0.11601303622756125,-0.09580800456083682
0.736,-0.07205638124032457,-0.09501957506092154,-0.023281450868040267,0.08531859286871413,-0.02604124287925671,-0.059878258229976764,-0.01006716813170903,-0.1295094607179648,-0.14128373635953279,-0.13730348695753075,-0.11330161317620296,-0.09013137119942045
0.738,-0.10445152746686326,-0.10489422245656399,-0.0007351161566030232,0.10566898239490376,-0.05273466179486169,-0.05416185076275457,-0.002621992600104978,-0.12442256379979591,-0.13806174124083412,-0.1300932631387145,-0.1085410899501112,-0.08313670564455546
0.74,-0.1237369328792248,-0.107358682040246,0.01645656078358571,0.1155385705614807,-0.0703485834548624,-0.04710528838214474,0.0036673413354684306,-0.12062490287000957,-0.13414629404596548,-0.12544028190781908,-0.10386327342670566,-0.07970229662290491
0.742,-0.10983624107872807,-0.09978905606024135,0.010499153049910812,0.1041781342927819,-0.06009401539844971,-0.04548563701831274,0.0018340332306933573,-0.12293419610449709,-0.13398082065408798,-0.12932715565319616,-0.10539864095717356,-0.085064934652349
0.744,-0.06932242294316562,-0.08998181962148996,-0.02025980700247181,0.07909318276863163,-0.024436696965615935,-0.054697489187565757,-0.009059176697698304,-0.13183769885500207,-0.13985797772409728,-0.14033379587801856,-0.11518678065918991,-0.09730386119390157
0.746,-0.033254070068372776,-0.08481055333847556,-0.05152178909338809,0.059147860429490294,0.008818706936087765,-0.06727434174709084,-0.021293816494204646,-0.14158587120089372,-0.14750763563146732,-0.149876091867532,-0.12639340243020106,-0.10747662328451092
0.748,-0.0260925942132819,-0.08277799337490134,-0.056877732362898094,0.05561748340731061,0.014213759193953828,-0.06956134198777945,-0.025709640518425236,-0.14498407721777715,-0.14987600079598257,-0.15060699580353631,-0.12962116817309283,-0.10806581816281363
0.75,-0.042179795989004155,-0.08124596045184267,-0.03918443848634334,0.06392508130856515,-0.003423733507403429,-0.061010544386547585,-0.0210927101991848,-0.14033413447361842,-0.145425314986675,-0.14314772013639984,-0.123142691904684,-0.10026646815419939
0.752,-0.055395037096126955,-0.08149070047840132,-0.0260508230559802,0.07102994843579609,-0.016376098617611152,-0.055381594819887005,-0.014770614165368606,-0.13379760641560845,-0.14059502302061871,-0.1350700289576469,-0.11479062249933837,-0.09246595166863107
0.754,-0.05079366998311423,-0.08465808891528882,-0.03377872069657329,0.06976492722107551,-0.00911405850248391,-0.06106458411718824,-0.013308760129878531,-0.13256593752809795,-0.14172685267409396,-0.13317220075989866,-0.1126526293710555,-0.09108339609794193
0.756,-0.0402148060508439,-0.08931040842393653,-0.04907875412947624,0.06561313960293193,0.004493126791135643,-0.07070426261316867,-0.015230082580491446,-0.13609223413458144,-0.1468780021571413,-0.13677369853286864,-0.11583438317785928,-0.09380492028765766
0.758,-0.04047088806677116,-0.09214884799206706,-0.05171651029366234,0.06598397658348333,0.0049935337479270255,-0.07303083096369346,-0.01513145233918852,-0.13824750333177843,-0.14950654465932772,-0.14041366011765644,-0.11748419914360411,-0.09415699553142261
0.76,-0.04820114061909026,-0.0899487833252629,-0.04177524173632759,0.06833002156304382,-0.0050561564568754455,-0.06699333567031676,-0.01204250047950261,-0.13658695988010638,-0.14756539129412508,-0.14158280364765988,-0.11505342275128137,-0.09130885117933622
0.762,-0.05003550688843209,-0.08416124315602672,-0.03411790009411375,0.06701027216859692,-0.009913012197026129,-0.0606012413545958,-0.009380050558210031,-0.13361938901828857,-0.14435438481587332,-0.14157904992794587,-0.11220513437885092,-0.09017646656411019
0.764,-0.045625710025723194,-0.08110662311466779,-0.03544017683165021,0.06456424133644656,-0.005820111727547921,-0.05998611344668743,-0.008728804798631829,-0.13098414882294757,-0.14265898662239732,-0.14087288162613149,-0.11136730523536069,-0.09252986679046735
0.766,-0.04542672757565916,-0.08382656035778742,-0.03826381535743605,0.06689051946026031,-0.0031462142291547148,-0.0630125715297996,-0.008641524309543893,-0.12846154981675045,-0.1423415219830342,-0.1389519941678261,-0.11080279086055098,-0.09451352575715181
0.768,-0.051571384202312456,-0.08752180719347114,-0.03563101500103768,0.07215846970599914,-0.007554763666343767,-0.06394380307278716,-0.008722749935428667,-0.1271658316603243,-0.1427942758343555,-0.13739330334740588,-0.10992172790879776,-0.0938179539831811
0.77,-0.05422193976970799,-0.08674575121109743,-0.032085658578656355,0.07295150622664655,-0.011595036672717695,-0.061880170068268736,-0.010762212039533366,-0.1289551771450417,-0.1443704640295341,-0.13871945247455766,-0.11143376086004726,-0.09354217318728655
0.772,-0.04856310954088819,-0.08348831465329123,-0.0345370300008214,0.0683543975531937,-0.00858734422230581,-0.060741864644975135,-0.015114687332036861,-0.13291046570415166,-0.14658729463571013,-0.14250391325805495,-0.11581854046786971,-0.0966118759801683
0.774,-0.041436180521836445,-0.08300294505480318,-0.04126090085741212,0.06447251617228081,-0.0023491464196072837,-0.06276527806864608,-0.019074443387577612,-0.1355831756945608,-0.14753744093570037,-0.14564171844847337,-0.11914728116592016,-0.10097813169783468
0.776,-0.03565611983011605,-0.08457818203879597,-0.04864400622827043,0.06210709081738871,0.0040181383811557225,-0.0668656752464987,-0.02052460548935254,-0.13582994685048252,-0.1469576085672246,-0.14680896405866486,-0.11949101509447323,-0.1033809823562667
0.778,-0.027885847688757022,-0.08415596125862239,-0.05605750050521927,0.05771491044702789,0.011943471669947912,-0.07090752125676898,-0.019991881255378673,-0.13643039823438124,-0.14713464020110512,-0.147714340039232,-0.1197495655630899,-0.10378036003491556
0.78,-0.02540935832358431,-0.08346871633168361,-0.05790905535479742,0.05622476030253482,0.015033550348863172,-0.07224267082015391,-0.018026765553760135,-0.13893058194326807,-0.14871422843071974,-0.1490880279689014,-0.12136284429775072,-0.10343972320267307
0.782,-0.0371712385946284,-0.08646135897849336,-0.04905188028405749,0.06402843173963392,0.005885928216685089,-0.06976186282697465,-0.014694138736666976,-0.14054241216126098,-0.14889403534328313,-0.14869542385376597,-0.12141583459464664,-0.10218349188972496
0.784,-0.05105800728080718,-0.08929686178257866,-0.03787640666940756,0.0726563896534001,-0.006037868917553157,-0.06582941690520765,-0.011553702739466078,-0.13861407008395826,-0.14589936912517057,-0.144922541016385,-0.11813126429325353,-0.09945862622076627
0.786,-0.050232523384668,-0.08524579250239682,-0.034740884561089286,0.069911734562374,-0.007681935845412531,-0.06250876757075316,-0.010384897539096662,-0.13483966044836385,-0.14228257646889758,-0.13994633317713392,-0.114235041580388,-0.09631241478751876
0.788,-0.042360817991849854,-0.07675883860120807,-0.03438293101479061,0.060839223620257586,-0.005186172238933485,-0.058385048981279296,-0.010997026800253225,-0.1325822416350318,-0.14142138545540903,-0.13732619650586125,-0.11321932246515255,-0.0948745030351156
0.79,-0.04573505047859602,-0.0722190756654896,-0.026619175198466596,0.05943528612305468,-0.011745665027432232,-0.052268315628235335,-0.012092815027768296,-0.13226002738086798,-0.14293583807608853,-0.1377532318819997,-0.11486580607586863,-0.09562660882395106
0.792,-0.05806701127181457,-0.0737254997369347,-0.015738720286990023,0.06653522679807174,-0.023343074965222227,-0.047101752445440334,-0.012875183854964965,-0.1322569875894323,-0.14431398715488106,-0.13954710878216245,-0.11622797831898128,-0.09673148646982427
0.794,-0.05999231387442041,-0.07628565181813954,-0.016261143548259832,0.06990845716345633,-0.023552132423617308,-0.047774442700265325,-0.01376564087025305,-0.13305881325447982,-0.14552710047926246,-0.1421523339819965,-0.1164092200000497,-0.09715837402181696
0.796,-0.04171573800591735,-0.07692384255471738,-0.03512713477539298,0.061926397389695846,-0.004960690446850014,-0.05690168873096808,-0.016746331138523647,-0.1373364144700744,-0.14933329903444198,-0.14666350820262897,-0.11837976557619088,-0.09878286790790847
0.798,-0.013298511998674788,-0.07824450906248036,-0.06480367422392819,0.048088536513516716,0.0237697302530884,-0.07265312037459563,-0.023939880201257934,-0.14626450836103141,-0.15752216643139902,-0.15379479881671548,-0.1251937243991353,-0.10413430601817734
0.8,0.005829131806464641,-0.08221788784803577,-0.08776834601232435,0.039741477833006515,0.04498066384722931,-0.08687340050901143,-0.03335288191101027,-0.15616069905557697,-0.16715316689456491,-0.1611893086860152,-0.13431374445457217,-0.11173715372624718
0.802,0.001176534456866496,-0.08548395714037772,-0.08638800966492494,0.04339107896798368,0.042563410389591674,-0.08781995848368866,-0.037341940579170375,-0.15878055827514653,-0.17032648461547717,-0.1622361368319501,-0.13709159537085808,-0.1147192593495243
0.804,-0.02453997104735066,-0.0846425774898751,-0.06016885828741498,0.05585067399542495,0.01679687500757814,-0.07315961966104088,-0.0307022016553189,-0.14931037072735084,-0.16167265532474107,-0.15284270517203266,-0.12831664947921656,-0.1081742902671524
0.806,-0.05045491807197211,-0.08288404955516815,-0.03288640541278112,0.06773310333935262,-0.010351236420090813,-0.05757969683314859,-0.01939416750294596,-0.13482206038228622,-0.14720474959724428,-0.14018503214254993,-0.1156947447285048,-0.0973426330213977
0.808,-0.058717881746513705,-0.08622833202487018,-0.028039990910033754,0.07321920361754183,-0.01771889024548862,-0.05700348463427488,-0.014526132823773921,-0.12791669350632293,-0.13912321456254015,-0.13599711386955532,-0.11215910838523502,-0.09198493648233354
0.81,-0.05365564115334954,-0.09388363515607596,-0.04062047141865157,0.07441683346416228,-0.009282142105812224,-0.06812719808083254,-0.01865090055707104,-0.13129569728700138,-0.14091614434767322,-0.14077635933194843,-0.11868723639466333,-0.09340466434036869
0.812,-0.05067902558574687,-0.0976206709013458,-0.04730800160797653,0.07470783782916036,-0.004078741591861593,-0.07390951684387126,-0.023979665264987206,-0.13584721649320186,-0.14473230738804826,-0.1439743281768408,-0.12337655489830857,-0.09407436191294519
0.814,-0.05512018224641526,-0.09335128213490902,-0.0386715262087115,0.0743285014814501,-0.00970005428860064,-0.06704678744510066,-0.023527506991508802,-0.13434150408549086,-0.1437088317180777,-0.13971904751786268,-0.11850634518338661,-0.08966956630325687
0.816,-0.06027319380924375,-0.08761060991757941,-0.027644162135280228,0.07346057487154714,-0.01708186761610574,-0.05796236381953143,-0.01911015605152904,-0.1298965394063588,-0.140061098768129,-0.13359405738174263,-0.11037819449651416,-0.08460234523422575
0.818,-0.05737203648810895,-0.08656690886394178,-0.02906238934408912,0.07148011894802635,-0.015149069469518621,-0.05824322134220775,-0.01663371161110522,-0.12905613484030562,-0.1394594366774057,-0.1326013943516604,-0.10892629317111722,-0.08415906105665334
0.82,-0.04334534022592247,-0.08498184175088394,-0.04114363834962841,0.06439453727798147,-0.0028970948101094754,-0.06454889796721675,-0.01669980035570453,-0.13161684022801057,-0.14216798545655376,-0.13520360055228342,-0.11365233193487845,-0.08667731890868995
0.822,-0.026661132785943526,-0.07481498706227373,-0.047761224475429166,0.051789703131894176,0.008437196874311461,-0.0638356459681125,-0.013850479260770992,-0.13071724832651963,-0.14241497683717577,-0.13413449523405668,-0.11520222957044861,-0.0865939835310096
0.824,-0.024519684741178625,-0.059858126503462186,-0.03530734493505357,0.04340321607748006,0.0035830041638326557,-0.05035428668994412,-0.004803475665990178,-0.12189497713301818,-0.1352457225829837,-0.1257502354005621,-0.10824615438572802,-0.08209821971669345
0.826,-0.044084003972914114,-0.05182794506673505,-0.00781372621092343,0.04877113912112733,-0.01964961363096079,-0.03216979546953038,0.006460092932413963,-0.1094066382569629,-0.12273867388008759,-0.11431138987322752,-0.097719744809485,-0.07674016830203771
0.828,-0.06888619596633992,-0.05320391487347951,0.015879091776956906,0.061852592748172085,-0.04355102279827545,-0.020637480414135635,0.013701540984859617,-0.10178243520617321,-0.11237971688536416,-0.10731065954467017,-0.09176571365850761,-0.07442483124107696
0.83,-0.07597475631226708,-0.05343530546191347,0.022884951274932983,0.06638907072472394,-0.049887385779941874,-0.017208035821623877,0.016117133970203285,-0.10172610292625807,-0.10851437209276325,-0.1069473835638584,-0.09182977354769918,-0.07445538732324657
0.832,-0.06411096731948937,-0.044494215958069114,0.01962982320351195,0.0570127724314368,-0.041909139526286804,-0.014368752459459589,0.018245927486587654,-0.1032664898464258,-0.1080189246036476,-0.10791110129090188,-0.09233073261146414,-0.07253623938663967
0.834,-0.050927045427585124,-0.03201973038917571,0.018470420050270088,0.044318506981580214,-0.03548334815166667,-0.008485488472572283,0.022688245571267796,-0.10043989962150364,-0.10662777487736508,-0.10529540581480198,-0.08903032645230392,-0.0672163280134503
0.836,-0.04523836223636104,-0.025561059119534744,0.0192352134479741,0.03739535124714265,-0.034451210969689665,-0.004547572339535931,0.026673485263478368,-0.09517238177266296,-0.10503740177279372,-0.10105999285412146,-0.08388398703494014,-0.06238487165398612
0.838,-0.03882357608516495,-0.024151028639886173,0.014609335625527919,0.032484361449794844,-0.029592478192979187,-0.005902250925996406,0.027019303005541846,-0.09349169771334927,-0.10593400911966688,-0.09965819775792369,-0.08104965058813349,-0.061814760738257514
0.84,-0.024343350421035092,-0.019524094145297703,0.00502114199099713,0.02245877947518866,-0.01693603488748802,-0.00819836251934251,0.024196078524953854,-0.09725921759949659,-0.10959547107426267,-0.10187218407981731,-0.08204826409699705,-0.06468685812278743
0.842,-0.007997270172133312,-0.009534266419100207,-0.001398604451247509,0.009411725066970798,-0.00468371706076206,-0.006399184441354051,0.021072344443096195,-0.10178219263224332,-0.11287387802456218,-0.10450091671866944,-0.08461543865610412,-0.0661169222599213
0.844,-0.0031205219009986284,0.00048735470152068454,0.0035674323750213665,0.0026354105374978678,-0.004549838965297787,0.000773611076452737,0.021559517607240303,-0.09995111785651117,-0.10997444884188952,-0.10222393949611813,-0.08344026720932833,-0.060400525970279915
0.846,-0.015014686627094265,0.007777999213848842,0.022698109621362664,0.005939026347440731,-0.020106086708148865,0.01340480898688131,0.029021435181837807,-0.0889628340115433,-0.09756501238734391,-0.09136321966141966,-0.07428213684596452,-0.046924790498072425
0.848,-0.03361651505529641,0.014838007296254658,0.04843103479864235,0.012250416336387212,-0.041836309532146364,0.029453968465451036,0.042403930261654926,-0.07352792337063896,-0.07990411721148363,-0.07494494498260451,-0.05913409055917017,-0.0323979185171296
0.85,-0.04386180842541782,0.0222030279555028,0.0661269999973639,0.013203441261046157,-0.05540903287683628,0.04242309800598279,0.05439959003950063,-0.062170283954986756,-0.06590382515267894,-0.062076147301055665,-0.04570722876854862,-0.024616085763157814
0.852,-0.0407728291008091,0.026593813594462397,0.06755191970800115,0.008452761628168572,-0.05513128531945478,0.04617661792101994,0.05663849164662892,-0.060264521297924124,-0.06193289672186281,-0.06004566258338573,-0.04099841527060507,-0.025662974616348075
0.854,-0.030292612292880244,0.026896768748726846,0.057641478814119816,0.0023155172089649153,-0.04613261755969338,0.04148618511810173,0.04813027767327511,-0.06622062479797283,-0.06782330751041732,-0.06739017509188433,-0.04504744425380766,-0.03119088983087031
0.856,-0.0184388996959048,0.02493050141233176,0.044098787999915026,-0.003021436446784887,-0.03398005443086877,0.03295807672661079,0.034742231242419236,-0.07509832011333469,-0.07862575681104693,-0.07653832367246895,-0.052078260101161296,-0.035413005707981
0.858,-0.00450889663233137,0.020166861550378827,0.025369608403951492,-0.007903365449970372,-0.017001941145302093,0.02066794928127087,0.019579986119592732,-0.0853965325672334,-0.09035525742043221,-0.08331464620692486,-0.058295172092575946,-0.03757743424511083
0.86,0.01267187934021133,0.00972817066197853,-0.0025523030158913764,-0.011432854958816368,0.006564873294242275,0.0018135961338021085,0.0010914954444723175,-0.09860752699338862,-0.1022892582753214,-0.0902757101579746,-0.06499538731678318,-0.041588944755909976
0.862,0.025956526676324757,-0.004560433157774723,-0.03022233624490932,-0.010602240551963162,0.027590466539862333,-0.01860605620677564,-0.01786037933462177,-0.11180160384359028,-0.11237416555797687,-0.0989349389637598,-0.07247321976828922,-0.048082326959234874
0.864,0.025619440843461138,-0.013997368806900255,-0.03907680297638227,-0.004768730993452717,0.032071159901669984,-0.0277940988043653,-0.027799511088276576,-0.11666294371374099,-0.11505177824447484,-0.10346890754804629,-0.07607927625184759,-0.05122236799540142
0.866,0.010859440081245245,-0.015100493732424024,-0.02528143011518065,0.004115936187478141,0.01796791513020102,-0.021879004937385094,-0.023647989496519216,-0.10924068035945896,-0.10822592717791728,-0.09759363627780741,-0.07233039506482945,-0.046826520443331424
0.868,-0.010375440245331333,-0.01854139995773396,-0.0077038274144302175,0.016623389157752595,-0.0016177353186267122,-0.014658250747123354,-0.012222396782794557,-0.09630889168663533,-0.09861072018292603,-0.08518858119102109,-0.06514512226702188,-0.03965959123367689
0.87,-0.02766251755336992,-0.0330152838784509,-0.005136548020791685,0.032070130094959994,-0.012217309683456195,-0.019754523665334412,-0.0051060311973584955,-0.0890516884416525,-0.0955027252047423,-0.0777118095816831,-0.06213416781687221,-0.03774435235033489
0.872,-0.03361262612233696,-0.04840035084945258,-0.01462183638348197,0.04240097107395688,-0.010943486946000554,-0.03158337092636963,-0.00705462173906998,-0.09277093643615741,-0.10141812555421574,-0.08128475624406534,-0.06659369232158846,-0.04250791465072484
0.874,-0.029185723650357515,-0.05009721734408603,-0.020871338254482227,0.04076767141998304,-0.0053147741468673,-0.035566750910735134,-0.01294156581616568,-0.10335766092565173,-0.11072618809621812,-0.09115723692158874,-0.07489221307563966,-0.0491254241756081
0.876,-0.022285331199033646,-0.04058237088636135,-0.0186644315473773,0.03212983163354349,-0.0024278351861015996,-0.029689918315253493,-0.014769893817378484,-0.11266625078351358,-0.11658282850800164,-0.09933978652386484,-0.0812811138072561,-0.054173362335868294
0.878,-0.01966773417027479,-0.034586754537248285,-0.01560395887203983,0.027734182933189723,-0.0028470568919799215,-0.02482000011877894,-0.010827560601356699,-0.11733419771616505,-0.11853203597782334,-0.10369923760918469,-0.08454304134585983,-0.058953606067268155
0.88,-0.02141200960849085,-0.040015357220895956,-0.019030639685315508,0.03185499794767729,-0.0027537358324795608,-0.029097710024272257,-0.00700861782930547,-0.1211805610299593,-0.1217116292198275,-0.10796636515119588,-0.08835839860616476,-0.06579949242923872
0.882,-0.021730023923481962,-0.051241395315191195,-0.029322147269575844,0.03803426472957927,0.0021118739700494234,-0.04041150053069371,-0.009681931251703062,-0.12848067174269634,-0.12917740259437085,-0.11551449302946039,-0.09536398518098715,-0.07387502901643159
0.884,-0.016957109342665498,-0.059045430224947744,-0.04162133449865973,0.03922169262648166,0.011332122915169041,-0.05158525930053964,-0.018675172372223364,-0.1375328521994146,-0.13803198084196205,-0.12514517787149648,-0.10336323410911673,-0.07970670890254046
0.886,-0.01445524178215766,-0.06284709862966315,-0.0481871443643774,0.03931931795242656,0.016122964939612024,-0.05763219692296289,-0.026966007325964103,-0.1426089564052393,-0.14308687989590121,-0.13237941268387313,-0.10812920791863886,-0.08094361424721096
0.888,-0.024589512220426376,-0.06989935652754276,-0.04545001771323208,0.04794944393277533,0.008880477479715522,-0.05951146658259409,-0.028557977128683763,-0.14165740951301703,-0.14307256545437433,-0.13512078874839833,-0.10932901015660336,-0.07966394130515937
0.89,-0.040834116598736335,-0.08265309492960961,-0.04200187827832789,0.06295546969336895,-0.001763679369812832,-0.06286013090073457,-0.026591103993298917,-0.14026081981679855,-0.14295662680342627,-0.1371073844565554,-0.11215182597960469,-0.08159284544331064
0.892,-0.04522225009140444,-0.09291898990032693,-0.04773307624736455,0.07029944551581725,-0.0006757483461748656,-0.06974158551230521,-0.028100753866486493,-0.14460019907820007,-0.14777047818441907,-0.14206594192496974,-0.11984194932512708,-0.08904814961818132
0.894,-0.03793180979210402,-0.09232386633221855,-0.05443109449552844,0.06546904372227642,0.007447365561880206,-0.0728921945177741,-0.03132035010118151,-0.15116118031081988,-0.15402374316598014,-0.1461484142056381,-0.12612014714316447,-0.09548513644666985
0.896,-0.04035034794899606,-0.08417122599273495,-0.04409612971558564,0.061666022581382735,0.0015069249544412253,-0.06472180946114371,-0.02744007005203183,-0.1500615011076208,-0.1529879541586605,-0.14248572338158713,-0.12187898109249946,-0.0923972021704238
0.898,-0.0651068800756505,-0.0800039475137995,-0.015323005162588724,0.07205090362267398,-0.025675913055414733,-0.04921913197840979,-0.015596868636322342,-0.13956097622404312,-0.1434500515363759,-0.1321073180185915,-0.10910107205746188,-0.08091077837782833
0.9,-0.0983937359065854,-0.08469405584781056,0.013534943157341422,0.09211754775454443,-0.05705063667102593,-0.037454269203482556,-0.006237154865167984,-0.1297991750691998,-0.13430762115760675,-0.12397351959823849,-0.10004952451489424,-0.07065999849415736
0.902,-0.11370397659306898,-0.09007650520809629,0.02397499275712375,0.10355952652226134,-0.06972493865470328,-0.035028802023661994,-0.007388344312069162,-0.1299813479016761,-0.1333273376931392,-0.1243846464297351,-0.10198285996210227,-0.06849498621687446
0.904,-0.0990051532457528,-0.08724987911232626,0.012343115335928323,0.09528440291780638,-0.05625359455849854,-0.03970849755112131,-0.01570152603239643,-0.13808828907464493,-0.13941080569954112,-0.13090938066132027,-0.1100631872602755,-0.07363875190578636
0.906,-0.06972156240763891,-0.0797610442434416,-0.009686461403885776,0.07692702943202348,-0.030567490185806304,-0.047036440781186226,-0.023390120888296968,-0.1460246630439431,-0.14705725899065114,-0.13729931131326029,-0.11654076289176031,-0.08193650140193331
0.908,-0.052190998058328386,-0.07859867637407135,-0.02635288701916122,0.06736181001341493,-0.01381789033678147,-0.05406417534225801,-0.027622577473243124,-0.14994875235580096,-0.15314639132228713,-0.1410615820208041,-0.12017383710112896,-0.08988422286544935
0.91,-0.05647337011475205,-0.08793548717990228,-0.031367832965808605,0.07376517418756784,-0.013918122970807538,-0.059966136520710894,-0.03013599988494496,-0.15150174907662425,-0.15712760452178826,-0.1435401837584303,-0.12332197924727628,-0.09492833951826356
0.912,-0.06999077515948911,-0.10112394419274347,-0.030908969509842763,0.08674657401677137,-0.021057477020677652,-0.06549942597968789,-0.0319762190302228,-0.1526939847538197,-0.15901098312530468,-0.14538301286814967,-0.12549932896205068,-0.09586523631179339
0.914,-0.07580713181527518,-0.10934884959186149,-0.03351183829095146,0.09352801277363763,-0.022493534843224437,-0.07121604345304154,-0.0324133745036233,-0.15382745940677062,-0.15976738923793193,-0.14617218454972283,-0.12491472078262304,-0.09419205432095312
0.916,-0.07077008543131748,-0.10999491724015764,-0.03946717311710289,0.09100822586058957,-0.016921751764349378,-0.07554286727450511,-0.031639200328276045,-0.15469461637046583,-0.16083264983220766,-0.14660021165463147,-0.12286234433317843,-0.09287757815632812
0.918,-0.0623880787229787,-0.10686358073160916,-0.04457886953436973,0.08480082781614254,-0.010375862319032845,-0.07733574031071354,-0.03235599012809301,-0.15664227226059244,-0.16336419389763338,-0.148948159546493,-0.12349931431857619,-0.09430927001778937
0.92,-0.05568058733574953,-0.10531688911763924,-0.04942670678474729,0.08041296424420764,-0.004858144364399882,-0.07929110922273788,-0.03688037913012805,-0.1618791842247419,-0.16823984925319724,-0.15479027540978216,-0.12942292725020027,-0.09929006288100777
0.922,-0.051897897490567016,-0.10663334823979495,-0.05463239161421608,0.07945641010543979,-0.00038294422778318383,-0.08276429730715465,-0.04154197147681636,-0.16766864169002516,-0.17268248155862104,-0.16013562186365737,-0.1361298246476519,-0.10435707299400085
0.924,-0.053406187721259504,-0.10719464100705621,-0.054079198015367126,0.08140342286213961,-0.0009891245156284523,-0.08302260012581648,-0.03856472445485498,-0.16641898069049887,-0.169998700571863,-0.157400393783146,-0.13447540748059508,-0.10329279661819725
0.926,-0.059755701996101494,-0.10411725444884326,-0.04465865512413209,0.08422900251895328,-0.008207417274798505,-0.07676991718540338,-0.027595294703951168,-0.15708794645741325,-0.15937666380084636,-0.14709083265296577,-0.12355010837421215,-0.09662473993965627
0.928,-0.062197170421959824,-0.09841930995717563,-0.036018930242692225,0.08338819481862868,-0.01354007313433675,-0.06908880129350953,-0.019785711485060413,-0.14947102426948108,-0.15097188917580334,-0.14059969325492824,-0.11548058001735936,-0.09382747188132708
0.93,-0.05243604637304055,-0.09326611234951342,-0.04024253609334374,0.0759001710853687,-0.0071689682789404215,-0.0676743977371235,-0.024337029954374024,-0.1513018702598119,-0.15364314053417194,-0.14540104177403562,-0.12025166779159718,-0.1003982535012424
0.932,-0.038997588588396206,-0.09223766468524357,-0.05283067166153995,0.06787972219009926,0.0050753229826059,-0.07258425985284589,-0.03513920892225805,-0.1575833361086256,-0.16171388409592152,-0.1537558867622648,-0.1308242052785338,-0.10864387701785039
0.934,-0.04332713564657318,-0.0961887741995198,-0.052900204483136884,0.07084262227049491,0.0029571909224914246,-0.07455525315723899,-0.03763234865321759,-0.15765664671468224,-0.16156747167114469,-0.15238740527616026,-0.13171157232751304,-0.10670518040693203
0.936,-0.07035546537053691,-0.10078820774972604,-0.03066838052064637,0.08584761582401451,-0.020937557321637355,-0.06677507726292198,-0.027245511529869215,-0.14865080188665222,-0.15012279206784743,-0.13954913684230325,-0.11942227731247997,-0.09372545316555198
