time,I,II,III,aVR,aVL,aVF,V1,V2,V3,V4,V5,V6
0.0,-0.0005265508965231401,-0.0007459471034077819,-0.00021939620688464173,0.000636248999965461,-0.00021939620688464173,-0.0005265508965231401,0.0010750414137347445,-0.0007459471034077819,-0.0007459471034077819,0.000636248999965461,0.00021939620688464173,0.00278633182743495
0.002,-0.0035903707844943448,-0.0046841322320784785,-0.0010937614475841338,0.004137251508286411,-0.001642251964795738,-0.0031515783707250613,0.007926366713712564,-0.00490352843896312,-0.00490352843896312,0.005102594818578835,0.0019494066544342365,0.019880286832269216
0.004,-0.011010923644176926,-0.013301050899500212,-0.002290127255323285,0.012210836323559729,-0.005353625184610581,-0.008494306438681695,0.026048047401501396,-0.014504510450526666,-0.014614208553968987,0.018427522416991627,0.007301744004309188,0.06354065419588581
0.006,-0.019513390452404904,-0.02372942611904428,-0.004216035666639372,0.021960667509686022,-0.009047969786806172,-0.015135421908213124,0.050152571289198866,-0.026347037891274988,-0.027003616718509378,0.03973936855967778,0.015144060660141801,0.12071808306452457
0.008,-0.02014430708710758,-0.03179076631823369,-0.011624519610437638,0.026851742235260354,-0.005628051820132988,-0.023245731081960944,0.06273226088366664,-0.0349062740788062,-0.03643367127509643,0.05775392660064422,0.0190708217256847,0.15377682574957172
0.01,-0.0073173607824839285,-0.03390403862714371,-0.026433422458524435,0.021841892086076786,0.00817885989951087,-0.03203280342573093,0.05511875953009966,-0.038770495629599416,-0.04002948629805981,0.06243610925676543,0.015623077813509419,0.1452510090812074
0.012,0.011865989207435909,-0.024120930866491398,-0.03552818524853392,0.007043282998862943,0.022029203891587856,-0.031744588516729524,0.0418643126153,-0.0391359061566393,-0.037375276117845545,0.05850310690870261,0.01182162848192448,0.12186663455830085
0.014,0.021790171564489594,-0.002145662406198471,-0.023185809694363367,-0.009594958363831937,0.020739382819320636,-0.014147569514739245,0.041806767270162574,-0.03660276302385517,-0.029991742343846207,0.05831944075919713,0.016241890655467706,0.11844631332161813
0.016,0.012946572864806159,0.01496621721513099,0.002697790238072085,-0.014122420678545168,0.003740633361309295,0.007911536482842934,0.053002827751005004,-0.03365792986725858,-0.02380732899947399,0.06466978644289344,0.025580933941061992,0.13624113712632335
0.018,-0.007702589742388429,0.008514332795002372,0.016446789748622202,-0.0004651595281268304,-0.012943822688571497,0.011751723386873515,0.0590801394360171,-0.03467670684024735,-0.025450007049896653,0.06893958771003378,0.028778849711333123,0.15114628697385113
0.02,-0.020310656557573945,-0.013710192110051787,0.006428994380705753,0.017409754941996675,-0.013812167028295226,-0.004544486805845733,0.052985423442835286,-0.040951266699527866,-0.034435516242427494,0.06439764719784463,0.022271868948550787,0.14889540639347465
0.022,-0.011662941519376059,-0.02548558267328753,-0.014031653470806994,0.019769109027333774,0.0009067876733944905,-0.020974727707152224,0.041756137066677135,-0.04948003529252771,-0.04434722831427806,0.05479318957629256,0.012748551172360666,0.13654334460305215
0.024,0.007452848060445063,-0.015950287843693484,-0.023420221694194585,0.006417450880246173,0.01488753574905123,-0.021186509822338422,0.033670907034828765,-0.055866249566997934,-0.050221971726354536,0.04935619212575343,0.006877417268477694,0.12712535652705836
0.026,0.012229318627490365,0.0012947300358299933,-0.010810100728288707,-0.004137820980276683,0.010391318580574349,-0.0064939724920082004,0.03165149105041875,-0.05602111100426647,-0.05001612871147274,0.0526643017198453,0.006527359226081015,0.12601272488894463
0.028,-0.00853484634305976,0.0058618512628858055,0.014564653211591146,0.003356642609619386,-0.013291778042710112,0.008215633074341165,0.03449145136638184,-0.0496017571082261,-0.04419883244064304,0.06014519321344071,0.010625474036099664,0.1289660363102593
0.03,-0.03787275679672167,-0.010026458800081302,0.028036896245118816,0.024927812161154674,-0.03518471954197245,0.006912526465391692,0.03742190199484555,-0.043596812013077677,-0.03829102219323819,0.06310089656107509,0.014818340846694976,0.12737764941101612
0.032,-0.04531505711551776,-0.03235999302248458,0.013136641818620329,0.039607592405047166,-0.03153068046769546,-0.01134289736336425,0.03578057525541891,-0.04601020555319072,-0.038940205932228744,0.058198631742614346,0.013942801190151394,0.11771012956856026
0.034,-0.022279365406890714,-0.03946460299783671,-0.0170313805937257,0.03257353072536272,-0.004330313944350333,-0.02949881458953747,0.030236512276107255,-0.055562326758817566,-0.045368644163941145,0.04963832367023901,0.008556501585442746,0.10628264345989268
0.036,0.003739205028455665,-0.02831531851319909,-0.03189174551786647,0.014999222560801108,0.016875423061239733,-0.03136402002573007,0.024993941801990813,-0.06352040233837147,-0.05052935373031283,0.042727217273579074,0.004626075875438815,0.10260545861053877
0.038,0.004308390192266204,-0.01513762349861421,-0.019296841564896333,0.00811043494476191,0.010778853304529445,-0.018840707897744113,0.02241266987524665,-0.06459624947043364,-0.0505251232350951,0.03970229334442153,0.005240565994227489,0.10921836591412015
0.04,-0.01164251753075581,-0.010402613376419692,0.0012697715337374547,0.01281708359699737,-0.008458489892674927,-0.006284094336123971,0.02195124847282344,-0.0613706461290207,-0.04794986018251873,0.039735767884194785,0.006640222613880983,0.11957699541951455
0.042,-0.013682545125722674,-0.007471565109033322,0.006033272046141598,0.011738748292698513,-0.012404580376478784,-0.0021853272125051193,0.02238522241618692,-0.05903107489298164,-0.046373990248266515,0.03984381902309462,0.0047361035082668715,0.1254977259620771
0.044,0.005567791305483554,0.0012029184813294597,-0.004747183937954093,-0.0018467746155045955,0.003520026852938101,-0.0032080506732480984,0.02256583392075809,-0.060185816991894084,-0.04682625205030009,0.03799475682809397,0.001123254152038261,0.1250661061757547
0.046,0.023178238275498905,0.008219511422873443,-0.015384972697025882,-0.013310350712234565,0.019258450304292317,-0.005558992115023448,0.020966655193862795,-0.06482692774808899,-0.04951563667674725,0.03493481986130344,-0.0009219520754112434,0.12177141677073995
0.048,0.02062464319765628,0.002174483471595141,-0.01865589418516102,-0.008772834755134833,0.02026371030519309,-0.010938578977900697,0.01740843802245427,-0.07083565259178015,-0.05348676513550668,0.0314207883875828,-0.0016194904936920479,0.11840073173178293
0.05,0.00425273974086205,-0.012231068424977192,-0.01631128310161184,0.005932507884735128,0.010020203607954904,-0.0172918524597199,0.014050061629942353,-0.07488091037316527,-0.05617651178667315,0.02648247489336625,-0.0033264119240706495,0.11474957496714719
0.052,-0.011771779228879722,-0.020842908138470066,-0.008605570358798803,0.0173724071610383,-0.003170427695527724,-0.01761341639871951,0.010962278573208922,-0.07724249375529095,-0.05834390092852535,0.01956568410388556,-0.00813963627418729,0.10855926285438547
0.054,-0.021365470316847743,-0.021498601536784536,0.0003405682603703704,0.022134468692595048,-0.012968248552774854,-0.013242654464373865,0.003742633331397668,-0.08284568957649571,-0.06480478081113399,0.011694510612397895,-0.016568291316951575,0.0980538925470238
0.056,-0.022613791614007565,-0.02252182961514983,0.0002778100491028541,0.023454400552947917,-0.01314217498535835,-0.013687215788671877,-0.009291989457416092,-0.09260867087002449,-0.07528278892147079,0.004318197655743721,-0.025310439854263986,0.08695375612756488
0.058,-0.01633402560569209,-0.026243161085838042,-0.010094769731867726,0.022646563717085438,-0.003966529268963714,-0.020602746557363175,-0.021449123994184884,-0.09905729008209205,-0.08132429785498586,-0.0010675359710052724,-0.02871016620004612,0.08312642154486867
0.06,-0.008275988132937758,-0.02821809896351444,-0.020282500184334598,0.019938694826554595,0.005902821720722765,-0.026208583998603662,-0.02475380482629895,-0.09609630747344987,-0.07705505173214881,-0.0027253021687019866,-0.025168181791023307,0.08842071908893614
0.062,-0.004863324788910877,-0.028385555325432948,-0.02365245578180701,0.017969266770995754,0.009407966971758053,-0.027172557731543846,-0.019671113982361592,-0.0876392139802877,-0.06669934227116796,-6.96712893244654e-05,-0.019545815255133638,0.09590728348874444
0.064,-0.008668226832716596,-0.03140318308918992,-0.02250912950297473,0.020476493384816705,0.006265669129519792,-0.0274741970376431,-0.013567398549293851,-0.0817064385009182,-0.05860443292800149,0.003799194984357263,-0.0173434562617892,0.09943243800169921
0.066,-0.014546259667157878,-0.03477178505342281,-0.019897216876600638,0.024669266755790786,0.001340450701961051,-0.027883713176622773,-0.012004765608455873,-0.08091970171744457,-0.05695247271178349,0.0029256631499881432,-0.019329920318715964,0.09894828017429481
0.068,-0.011860931733842554,-0.02793087315304148,-0.015958997654141917,0.02064629845295261,0.0008953871579483297,-0.02321331250439072,-0.015421682346169363,-0.08283707810095434,-0.06106599204969852,-0.00516042120677672,-0.023556662347533234,0.09543422970027611
0.07,0.0011350858051605297,-0.010369319735650745,-0.011616920865720368,0.006494334771285143,0.005823070603838276,-0.013217112168873044,-0.021735493952235094,-0.08531376488449795,-0.0683454562749937,-0.015791355183088145,-0.02881201718734261,0.08853498531295631
0.072,0.012916315852308161,0.0012791539485553895,-0.011755795021591398,-0.00506532805163211,0.01159427149318189,-0.008051415848039626,-0.02752071012422119,-0.08746354102690419,-0.07494806503419821,-0.02288099109234847,-0.03347771366050229,0.08069346779276958
0.074,0.0145915997868693,-0.00568421444481928,-0.0202742220440321,-0.0032176050490339324,0.015783968618024318,-0.0157203478952208,-0.028497435615532543,-0.08760217937219551,-0.07628776285059496,-0.02480075006167859,-0.03423472048442129,0.07710531997859084
0.076,0.009206138064210492,-0.021851770098642323,-0.030992914619379204,0.007081065021818616,0.018274009307495013,-0.028589082228444126,-0.022445262363928093,-0.08374735053080049,-0.07050871402376799,-0.022019106813978007,-0.02923355568993835,0.08059330885515796
0.078,0.002772792581207038,-0.029011740906407953,-0.03175412169075503,0.014224153130117602,0.01656915396406369,-0.03185417431362772,-0.012473235022929902,-0.07753878532109905,-0.06233603941333932,-0.016183066809697364,-0.022750332204031328,0.08765746980556886
0.08,-0.00430049138500868,-0.025623138757401027,-0.02134344023288114,0.016473201965617135,0.009087199875991681,-0.024515717165842534,-0.0069207474765336065,-0.07523723067273885,-0.06087382274678928,-0.014180255994626701,-0.023478999307858378,0.0887640015259219
0.082,-0.015673621271959468,-0.027541735304930027,-0.011894620808763525,0.023033238922099273,-0.0011753129879199166,-0.020689526841182266,-0.012004406228357023,-0.08016787640598216,-0.06936291269740434,-0.02273733522758532,-0.03427306478110274,0.07770010323922355
0.084,-0.03287325695195738,-0.04347696327888361,-0.010605032209935653,0.03951742244482184,-0.011383351489407542,-0.028064136903626483,-0.02317896791075209,-0.0862861757253096,-0.07908664843248109,-0.03722872207712065,-0.04642728521168478,0.06196676605350804
0.086,-0.0467467882135225,-0.059884508816708315,-0.013123895517858431,0.0551567010465721,-0.018311052885971308,-0.037319762384478095,-0.029560023388704237,-0.08540564496178236,-0.07934075574378627,-0.04608931874816092,-0.04925409936455624,0.055209114898602155
0.088,-0.03966825974769154,-0.05765059579559053,-0.017975009740902857,0.05113014190593765,-0.012951322819918532,-0.03817134641902245,-0.027741274352986723,-0.07869607493029737,-0.07116832854776028,-0.045574586123862,-0.042793308593875,0.05946672336236531
0.09,-0.010360766051633491,-0.040308168993437386,-0.029951447565959872,0.027724406935811827,0.008233748258943092,-0.03536077759240258,-0.024850809407641453,-0.07506137680371998,-0.0653359527579354,-0.041721755427543444,-0.0366301071467633,0.0639804020059255
0.092,0.014870195378450092,-0.031959650543779715,-0.04683577566842884,0.01032219322381977,0.030502210896968356,-0.04031116304011892,-0.028564703482395308,-0.08042803278444995,-0.06971035091493773,-0.04086210120698865,-0.039103232093027254,0.05945563770303312
0.094,0.01424199576576105,-0.04221773834236646,-0.05646035919911059,0.015559045540978549,0.035613761661240494,-0.05117053479485012,-0.039895904761100644,-0.09308288494564211,-0.08322804194552938,-0.04529151044075087,-0.05081422214736837,0.04632645134908656
0.096,-0.001994214138029136,-0.049471248429662475,-0.04747409689865399,0.02771121082320042,0.02228485935573596,-0.050269020729253426,-0.052854144141905805,-0.10593210159947669,-0.09774660568171117,-0.05387856597767119,-0.06423745560457823,0.0329793976388936
0.098,-0.011249239221072566,-0.03299754004034987,-0.021746556647830987,0.024340924716139332,0.003593556423151635,-0.02807366775038219,-0.05785883213032195,-0.11106217482046993,-0.10321855903140978,-0.06160479570972033,-0.06883350761014333,0.028788551583681102
0.1,-0.00964368018778294,-0.008013320041372077,0.0016515298737422549,0.010576216901316082,-0.007480268931665544,-0.003126424763033551,-0.051470426689257893,-0.10689018865490792,-0.0971674339700956,-0.06371562497311344,-0.062166522998817864,0.03366505822141336
0.102,-0.012317399140478075,-0.006403873207059295,0.0060654617427873475,0.010355657637829297,-0.010131865630799958,-0.0008763913407308806,-0.04187476823930019,-0.10006325470352526,-0.08825507529098485,-0.06196447184573694,-0.05325657506760633,0.037837716911609344
0.104,-0.02930708001082148,-0.029816145833988946,-5.0541150463427704e-05,0.030207578312892867,-0.015123965505956953,-0.01736583498165232,-0.03785786792563507,-0.09634042790759091,-0.0845049960552512,-0.061141371795189775,-0.050200721016760055,0.03612700189539036
0.106,-0.04603620614824496,-0.044759744880163065,0.002027105287828166,0.046295333819093794,-0.02518653719778518,-0.024915333148151128,-0.03828178887906485,-0.09445300115481597,-0.08363505080237765,-0.061891629024676084,-0.050627442293951906,0.03323564511574685
0.108,-0.037636746947987146,-0.02404220644205383,0.014273097102232561,0.032439611375481334,-0.027720816093419372,-0.008164658274042929,-0.037608204708548004,-0.09144797616353133,-0.07999109991659516,-0.06170873449601944,-0.047863982137007155,0.03375566442060947
0.11,-0.006000319264657706,0.01988386420448029,0.026113908648802725,-0.0045884689741567935,-0.017547915394028248,0.02087064558732612,-0.033758546978065476,-0.08742667445882099,-0.07343058302681583,-0.05935999969299979,-0.040182007944054826,0.037198669813076894
0.112,0.01820115827020893,0.046857416594967706,0.028484496282652313,-0.030045663327339052,-0.006115299464532079,0.03671612515516078,-0.02903932547093757,-0.08455053977282928,-0.06863051122264928,-0.056620142044468386,-0.03219782912867736,0.040433422020484916
0.114,0.014374758256243408,0.03183224654310043,0.01724841401651166,-0.02127051326250003,-0.002260738447968716,0.024179561093315288,-0.029321504716952586,-0.08628509559141001,-0.07091100324233113,-0.05755830382401347,-0.030991459389892607,0.03857683297671713
0.116,-0.00943245565386413,-0.010998100700527624,-0.0015826010913557456,0.01145208833671035,-0.004751693293456913,-0.006751090028835353,-0.03871136387700685,-0.09481976280225857,-0.08117805968633067,-0.06380451846932293,-0.039310126292615814,0.029023181713273092
0.118,-0.033876503148926006,-0.048043936995711106,-0.014064789821167503,0.04230551976425904,-0.010773739986116831,-0.03169924741656624,-0.05220938024992476,-0.10676565008059252,-0.0929314763856706,-0.07098836814732391,-0.05133410778317367,0.016257257578864755
0.12,-0.045281131681241246,-0.059459740531166046,-0.014120054442932113,0.05410196182998324,-0.016800826533471862,-0.037044811586257165,-0.06088246841842392,-0.11621545233185579,-0.09925527265793194,-0.07468683198785657,-0.05936458084961442,0.006020677141786172
0.122,-0.04090654828113888,-0.048787817179933406,-0.007908777803597066,0.04675192059613846,-0.018466108326554667,-0.02795556362351712,-0.06313944012373338,-0.12133128055646462,-0.10101226513283611,-0.07690409355851742,-0.06257748375531785,-0.002409726132562808
0.124,-0.02899566406713253,-0.0307989062946197,-0.001848183434915899,0.031971673389285644,-0.016331574016321154,-0.01583547845796857,-0.06262719631680422,-0.1227203820808386,-0.10207274428672437,-0.0810891513436837,-0.0637142524029446,-0.011330202211488304
0.126,-0.021173205861915956,-0.01842765759259683,0.002739077682376149,0.022223140156684393,-0.015083683749156836,-0.00788753701668478,-0.060454619786279876,-0.11988075412193666,-0.10213239266180696,-0.08583847543139249,-0.06257786434873261,-0.01815139614020582
0.128,-0.02227264342650576,-0.018013630221274227,0.004280422291135411,0.022769049336650218,-0.016303142947789586,-0.00746401629140611,-0.05709556141593902,-0.11437727328347592,-0.10003803287817878,-0.08850469553058336,-0.05861926958731206,-0.020335091537098764
0.13,-0.02788627058444425,-0.02840611535062247,-0.0005060942831593903,0.030475330638702322,-0.01646166245026919,-0.01536520679003208,-0.05522135135506819,-0.1108070729056647,-0.09785092206512627,-0.08998109064841221,-0.054571852389046445,-0.020311482999599992
0.132,-0.029414621479170094,-0.040251802600604146,-0.010842295610843678,0.03655934158660018,-0.011693856245834744,-0.02680514601694447,-0.0559107764747005,-0.1114549209499221,-0.09781402331261004,-0.09299839513308993,-0.053273425958425276,-0.020909587743957035
0.134,-0.022313742496386388,-0.04048999773856231,-0.018186200936178242,0.032864553996429686,-0.003807428911765873,-0.03096601674037308,-0.056914438301717996,-0.11368734494356059,-0.09919148526628285,-0.09771568644690075,-0.053558045447411814,-0.02061081638601788
0.136,-0.011838087604702955,-0.025738956204222615,-0.013902827809198126,0.020511357495289848,6.670106843267786e-05,-0.021318742836150206,-0.05575981604210799,-0.11300852084880365,-0.09944660054454692,-0.09986257252842082,-0.05177250455238646,-0.01613634601571593
0.138,-0.007093809019824239,-0.009891521255841721,-0.0028151601395163266,0.010475845391309255,-0.002608442052069264,-0.007238947905767575,-0.05285297693898282,-0.10822774634301387,-0.09777198703434399,-0.09619978551571574,-0.04766510687299699,-0.008876156694783508
0.14,-0.009880419845275493,-0.009399075374498219,0.00035324332359537114,0.011697707573346575,-0.005492744638766892,-0.0051601949754627036,-0.0526099242551373,-0.1040508975012193,-0.0972408081575201,-0.09187213840408011,-0.04642119182717116,-0.006753428293032106
0.142,-0.017274591441163556,-0.023713007945897997,-0.006744811714346977,0.02276915573827648,-0.005823608938202845,-0.016404551148888325,-0.05969747295027983,-0.10584313070835405,-0.1016061540659569,-0.09517797456359305,-0.05221107288708597,-0.01609872460966354
0.144,-0.030224948498234403,-0.03886227274602799,-0.008930805409998141,0.036963228560959197,-0.011298021327794932,-0.025736254677202242,-0.07152889418340493,-0.11159761799128616,-0.10907776803884625,-0.10464720779156031,-0.06147188354727372,-0.0324128838401691
0.146,-0.046177964023338194,-0.0435585257078668,0.002690769582695941,0.04668365689524339,-0.02473434853359251,-0.02219877310706812,-0.07805842594664539,-0.11289657135765924,-0.11184325987850777,-0.10986846598818838,-0.06546270064489652,-0.043842830210904384
0.148,-0.050242981936918896,-0.033683476139505945,0.01700871920732738,0.042518084815136255,-0.033357165779457784,-0.009237578024952953,-0.07184134186437426,-0.10386136711597889,-0.10395065600921473,-0.10507325263013652,-0.05864646252568873,-0.04296038410003692
0.15,-0.03191170148886773,-0.011569385798485403,0.020766337645709655,0.021345064967707956,-0.02589897544085708,0.004557737985707404,-0.05631402025582052,-0.08777251040677583,-0.08916263340782754,-0.09475428034889147,-0.0442506112444628,-0.03277757522107092
0.152,-0.006448640932085134,0.009965205403566156,0.016604489745762667,-0.0021754034100292035,-0.011558045575749406,0.013290691299675987,-0.044078167412620085,-0.07630087086548146,-0.07982243765176787,-0.08808639573582681,-0.033990686948539704,-0.02411735512340949
0.154,-0.000931273553392337,0.013705001176781249,0.014924542387803396,-0.006274181503247471,-0.008674492441933043,0.013628414886225676,-0.04623281284282056,-0.07972806040517372,-0.08560936085758501,-0.0919595775423017,-0.03909641906686987,-0.026157226428825304
0.156,-0.019650974217467,-0.0030992323263398435,0.017313302665696466,0.011917713614810787,-0.019664652283195822,0.005897141083980844,-0.061092629657140594,-0.09502522593794367,-0.10240365994830575,-0.105258927348719,-0.05736754602551842,-0.036535532147144875
0.158,-0.039773623583990135,-0.02478536529339214,0.016037984738118984,0.03297740492791384,-0.029345361052602815,-0.005460234641873513,-0.07648842829196556,-0.10873194922308276,-0.11674716964865656,-0.11977776624560638,-0.07530764197749895,-0.04573234427040482
0.16,-0.041841296206878396,-0.03575386775067779,0.006826096321928245,0.03943719311271079,-0.02636145398551,-0.015511072342542663,-0.08400960512861722,-0.11293977181806575,-0.1216695077249518,-0.13005469312938184,-0.0846143524657568,-0.050579702489845876
0.162,-0.02912069199846781,-0.03355599967615793,-0.004311841266302448,0.031744603232608984,-0.015217676207978186,-0.02079059021572768,-0.08497231762556742,-0.11111209789819358,-0.1205949420838666,-0.13714646457171584,-0.08716525552704908,-0.054253567533221345
0.164,-0.014171181125101042,-0.024215300540591442,-0.01018602074390018,0.019554218018153983,-0.0049123061706479315,-0.020168177820449874,-0.08324616616677716,-0.10840845997966887,-0.11727582199353902,-0.14082371142674086,-0.08590217878276091,-0.05656273832996248
0.166,-0.002791295164930356,-0.014846274738412353,-0.011918364608806499,0.009777214410587556,0.0025280792036112667,-0.016528833326096514,-0.08065320503076631,-0.10514400989266158,-0.11225739189566197,-0.13741430980477531,-0.08145760150278274,-0.054889266577288945
0.168,0.0015014230657106557,-0.011592533564136661,-0.012624347228482088,0.006829083131391217,0.005969851808399304,-0.014204528644186889,-0.07948858457793721,-0.10134693306352033,-0.10798896609770275,-0.1283735455720866,-0.07615769054349635,-0.05186602938788955
0.17,-0.005071496382697704,-0.015585963968679771,-0.010135323393517345,0.012076964139312411,0.0016007312364959957,-0.013647367888408547,-0.08182246578613128,-0.09979320125057421,-0.10800169748245371,-0.12245878865317028,-0.07404867269061663,-0.05357828382226728
0.172,-0.016053477994264157,-0.01975415880413508,-0.0037144822197293366,0.01859722734546228,-0.007273013128249506,-0.011868575258369504,-0.08599295775263015,-0.101307864168624,-0.11168598605360462,-0.1257635941411275,-0.0766808489587095,-0.0610774519094514
0.174,-0.020745102010449826,-0.020287619413262497,0.00012960801845879035,0.02035792369524597,-0.01145010268828553,-0.010158019217548097,-0.08907431767660147,-0.10317881127171381,-0.11604002659025996,-0.13508614839644287,-0.081954420605772,-0.06935342437733794
0.176,-0.024011838690679584,-0.028184609597012186,-0.004605969692026362,0.026193601858191248,-0.01075396675213381,-0.016657213794826268,-0.09144241536522091,-0.10429762650610334,-0.12078515638316299,-0.14368404461417703,-0.08736113205214135,-0.07401386638512034
0.178,-0.037709760169531446,-0.051560799809166724,-0.014220167042710802,0.04547084478791855,-0.013226270506598104,-0.033553282337248205,-0.09487810969904834,-0.10628965861696414,-0.12665325920836773,-0.1488805864842471,-0.09205742927678426,-0.0750841947481303
0.18,-0.050687738693977816,-0.07031124233506031,-0.019795913724130306,0.0616707664767396,-0.017038783019686195,-0.046254896797556885,-0.09780738013540044,-0.10805091105518815,-0.12985489012522738,-0.15118706768525644,-0.09478607990698348,-0.07444410591323376
0.182,-0.03518137217709883,-0.05477764725170881,-0.019559697073787654,0.04635846887503036,-0.008846861992613076,-0.03872228450422658,-0.09673856549744568,-0.10488453413750622,-0.1246268582108776,-0.15094119558244878,-0.09322685869025855,-0.072288127127248
0.184,0.006995102206682355,-0.012653600356304359,-0.019542911663201275,0.004849659063082977,0.012740084563485401,-0.0176742990950752,-0.09285658912895305,-0.09632784070430814,-0.11310026247773348,-0.14969747247549187,-0.08866056589189278,-0.06891094140928719
0.186,0.03582533172367557,0.012697983721054754,-0.023089188507129807,-0.021673422688862107,0.028988821837476236,-0.006605254501598593,-0.09181427853186597,-0.08892886364653159,-0.1048394747675657,-0.1501090251201047,-0.086250861460103,-0.0676982165097762
0.188,0.027564244444035237,-0.0006123480209652094,-0.02821287710164207,-0.011219763859370159,0.02753764842571716,-0.015618505237939083,-0.09507452831269128,-0.08736801505537692,-0.10418930979023755,-0.1520033070887841,-0.08705370143701076,-0.0714338106137283
0.19,0.005422285581316445,-0.026163309145257285,-0.03162364358023466,0.011656940835438157,0.01852626460379927,-0.029882631708557147,-0.09905094960464039,-0.09032084649409966,-0.10775730227596214,-0.15420459113881435,-0.08795116677660797,-0.07952342213766699
0.192,-0.0009130195011126852,-0.02957967625668229,-0.028643476816162323,0.015974247257520627,0.013845993558032954,-0.029847277471256095,-0.10428650167520848,-0.09708549029512518,-0.11432486732862655,-0.15975973501469554,-0.09079390107728348,-0.0913959351683753
0.194,0.003988405060191912,-0.012104850821617661,-0.0159407333346099,0.005127635565681643,0.009216692230717013,-0.014670822816022553,-0.11427626205047686,-0.1076021536633823,-0.12487932188796043,-0.1711334618326935,-0.09897378590478478,-0.10467640566883535
0.196,-0.001692310212887577,-0.000258413129545911,0.0017707667623924252,0.002681594683428441,-0.0032922857881671035,-0.00040618811048452434,-0.12380297809127644,-0.11480172298286521,-0.13342206516227642,-0.1811949865926865,-0.10559257212386607,-0.1106516711550832
0.198,-0.018680268691855836,-0.005220463039464356,0.013875370761577124,0.013806852146322468,-0.017921830681250184,0.002100559863202638,-0.12220475755892607,-0.10962156487461246,-0.13073261535294992,-0.1789936151792244,-0.09978063294218875,-0.10259694256000622
0.2,-0.02731881782436706,-0.012257849147373564,0.015307996010846923,0.02150938975747334,-0.022292501201321355,-0.0014281924837513064,-0.11017717607375406,-0.09536568073973682,-0.11810507010321468,-0.1649917771111217,-0.08396860581803718,-0.08714912377699326
0.202,-0.022075947250502128,-0.010228000963903847,0.011822048275535083,0.018113173001038776,-0.01729352187208675,-0.0017666260162898296,-0.10020804209513084,-0.08552935721241918,-0.10708255379125584,-0.15196594627757154,-0.07221815341336764,-0.0776665443055071
0.204,-0.020166140901626193,-0.00963340440571228,0.01039147764573958,0.017176705898443532,-0.015672407438960215,-0.0009528210119971834,-0.0998760768069204,-0.08725659355843927,-0.10544258714100775,-0.15061890844784767,-0.07251330285323249,-0.07974032148309645
0.206,-0.03383265034309851,-0.02341370792678838,0.010358016419610103,0.03042185503797773,-0.022898266144236224,-0.006809566379201217,-0.10599243215416672,-0.09620972097234202,-0.11095499752030728,-0.16010641876923667,-0.08039461259367592,-0.09029082713251368
0.208,-0.05456932115389239,-0.04560391333626088,0.009010155081407676,0.05089797990834987,-0.03252558439919446,-0.018546105985240976,-0.11299095090135314,-0.10469549678397012,-0.11740206750083723,-0.17165352592103375,-0.08831617647742684,-0.1045280811220153
0.21,-0.06450890733023287,-0.05805092064367859,0.006490555450024065,0.06189736423910975,-0.035611521660450306,-0.026946683481672173,-0.11751728951847028,-0.10791251584067177,-0.12081029983089424,-0.1781597288484152,-0.09308908566386485,-0.1184098985708216
0.212,-0.052652592375012686,-0.051571582689587954,0.0009516973290249587,0.053589948765723476,-0.026531855086311968,-0.027270353540142865,-0.11810760008935936,-0.10608445863004361,-0.12084583774376287,-0.18039454055554255,-0.09534879690644951,-0.1294214552865566
0.214,-0.02279880130656428,-0.03336511685677609,-0.010922373458344403,0.030238803267126704,-0.00613547251290634,-0.023787252753365077,-0.11695973174947606,-0.10408931072228074,-0.11975045895686312,-0.1837107855086393,-0.09774776340883386,-0.13720301568954513
0.216,0.008168943227508706,-0.0173441336673811,-0.025950452556470164,0.006385598921193208,0.015776032062621043,-0.02239800061690973,-0.11903597716757365,-0.10693689655291022,-0.12028602990741374,-0.19030747948861407,-0.10302196172919421,-0.14212705498988856
0.218,0.020984966489052303,-0.013567292998571817,-0.03482118486870295,-0.0027692606408306637,0.025721265580835675,-0.02492929656663699,-0.1262815641103977,-0.11521497199595934,-0.12345281790402508,-0.19790691609911495,-0.11037306432993776,-0.14413722805503634
0.22,0.010356075553903159,-0.021160985345346058,-0.03161056320426907,0.00592239749860004,0.018824276097200283,-0.028169417629259213,-0.13467048392207345,-0.12478407786707738,-0.12730827154172344,-0.2036748499970198,-0.11454775159464628,-0.14249347119147285
0.222,-0.008557199821328807,-0.02700738305234163,-0.018630675518532317,0.01855321965465199,0.003795265314511194,-0.02526258397957152,-0.13791359083244997,-0.12964650464972743,-0.12802316677885392,-0.20506216031665112,-0.11106096372502935,-0.13634793039803164
0.224,-0.016400805020677114,-0.019873009260693384,-0.0038376780851539175,0.01941131403595949,-0.006697085832654565,-0.013512981098108895,-0.13374003990902908,-0.1269906939827631,-0.1234918210437869,-0.19962956369424714,-0.10233035527047935,-0.12714220921996605
0.226,-0.010125154393763424,-0.005935164471839468,0.0038847966713577656,0.009759735810326265,-0.007678088754061847,-0.0012238021790722498,-0.12662482991026902,-0.12124084446393733,-0.11673189878161618,-0.18892069082438545,-0.09602599320767816,-0.11943584376791207
0.228,-0.002372232449999461,-0.000938621764583899,0.001404503563858319,0.0038391339317444457,-0.0035520259093081777,0.0005902856380304103,-0.12287382639545148,-0.11961835469646014,-0.11327033032924766,-0.17947137786703898,-0.09592983634309572,-0.11622519247079967
0.23,-0.005841427303469657,-0.01133602685932179,-0.00534825945980555,0.011168894835315631,-0.0023302703215887788,-0.008744972674885675,-0.12280242882921255,-0.1224894218382669,-0.11421715323580686,-0.17607578932892592,-0.09785134835830155,-0.11471260345354714
0.232,-0.0198036311933424,-0.028853610053289003,-0.008956759233796983,0.026968922965704873,-0.006961831458361955,-0.020403799393957305,-0.12128430925769407,-0.1239299423436851,-0.11543387866059636,-0.17747092468326242,-0.09710520904096626,-0.11092497884235848
0.234,-0.027841411996822663,-0.0385768073793551,-0.010767492729519691,0.035378854515630415,-0.009484757088839264,-0.0268216860412282,-0.11597147361768878,-0.12187755015273777,-0.11419612162521407,-0.1799160387390435,-0.09517378299782071,-0.10631362700053186
0.236,-0.017582138325325895,-0.03614963286217806,-0.018633565166250577,0.028237292037409028,-0.0005249817799455156,-0.02984935518987429,-0.11065940332359137,-0.12097171832774871,-0.11334367797854747,-0.1817034348476186,-0.09588607525855428,-0.1055830226525328
0.238,-0.003777418119947306,-0.0362075763858725,-0.03244458090630497,0.02086623189108984,0.012742858545758235,-0.03680817018918816,-0.11063652834841185,-0.12571960172065383,-0.11754531986837974,-0.18419714273185842,-0.09983073898263951,-0.110435868317545
0.24,-0.009569203098123983,-0.048891838279909096,-0.03929361870376377,0.03027314466890221,0.012783026569058671,-0.04608584255650842,-0.11631581036044053,-0.13452773203397814,-0.12608117640720742,-0.18840740512376752,-0.10415932721135414,-0.11698667989104976
0.242,-0.026915757700319343,-0.058239722169318095,-0.031302237098370454,0.04410373372033922,-0.00015998902697477054,-0.04598856493350774,-0.1206965055320184,-0.13990336046984617,-0.13109954120825557,-0.190803201058014,-0.10429649896129918,-0.117696420068322
0.244,-0.027748812204200647,-0.04635076455765855,-0.018607390650186018,0.038998149534460944,-0.006766225512765056,-0.033314387404209,-0.11572575507139915,-0.1357918129263964,-0.125815738425133,-0.18709159298921538,-0.09725145177346275,-0.10810644753917063
0.246,-0.010067926630266056,-0.02414692021750512,-0.014093441468301823,0.01938705222149101,0.0006252577678569481,-0.020277557612259144,-0.10288475079005527,-0.12605774959027316,-0.11338774411196248,-0.17972843972626062,-0.08613065315966807,-0.09292860582734293
0.248,0.002569291999625938,-0.014535369209686344,-0.01710859451012457,0.008285275716672825,0.009464170455743463,-0.017467857415036505,-0.09251383163338535,-0.1212049478922205,-0.10370504284273911,-0.17525719921699104,-0.0785785626872622,-0.0819769284824437
0.25,0.0021959122738385,-0.017797769099877344,-0.019987676487072302,0.009552186997880293,0.010980988776982354,-0.020419896127751733,-0.09100880343000127,-0.12522011832135735,-0.10222850456941246,-0.1747237957711164,-0.07875233512037479,-0.07942642324299194
0.252,0.003050895809038015,-0.015892974576425176,-0.018916916321184824,0.007408652649366267,0.01005457036884287,-0.018398898700275758,-0.09506882076310223,-0.1327433134030715,-0.10637447572461661,-0.1743921439500558,-0.08386324283587962,-0.08114315182404955
0.254,0.012100976952549117,-0.0036239748200943053,-0.015594517833153795,-0.003501059320645227,0.011916721247195238,-0.010660153694586331,-0.09967663290701764,-0.13968501602577266,-0.11167254788419394,-0.1749723480471819,-0.08949205643681853,-0.08299554798850413
0.256,0.02135877096731744,0.0054965274957274515,-0.015516042454592106,-0.012174322455032218,0.016446660330612765,-0.00685764651982018,-0.10332249470058139,-0.14635724656243312,-0.1158539884913617,-0.1795853773814536,-0.09369456341753812,-0.08562335425472777
0.258,0.023366207402744737,0.001021369024846437,-0.021791944422008044,-0.01011489867787159,0.021390196243685024,-0.01268792421572677,-0.10479259273355968,-0.1508587462071249,-0.11767812215003462,-0.18441182099821854,-0.09532101672437528,-0.08975513865524527
0.26,0.014613866438343021,-0.014031186381404229,-0.028060860442317974,0.0022122691478570064,0.020758545315217494,-0.02282629115235534,-0.1035637843636107,-0.150467933964682,-0.1170825238890524,-0.18328459597530275,-0.09400073939872901,-0.09318939769404341
0.262,-0.006350894698424902,-0.030660423481957706,-0.02393338739878164,0.020611939752542427,0.0079471516741136,-0.02834937757945032,-0.10208286125928984,-0.1474583679594835,-0.11579250569736584,-0.1780907436424791,-0.09195203252361482,-0.09337821143311346
0.264,-0.02984729775693264,-0.03994974861793298,-0.010102206681066869,0.035964847648482214,-0.011541214539236573,-0.02619911935515663,-0.10150838782786528,-0.14572982374333826,-0.11463317036597402,-0.17446397509982364,-0.09166316162849215,-0.09022851571663094
0.266,-0.03603890225701988,-0.03689521374375721,-0.001141990228625529,0.036710481197294316,-0.01953633929263392,-0.02113801419701109,-0.09915467144291842,-0.14585471433654712,-0.11238677220592377,-0.17250532388644546,-0.09292755264190865,-0.0868510237764624
0.268,-0.01999951836857923,-0.026635293279593325,-0.0068308880295617205,0.023845584339095498,-0.008103461863310022,-0.01973459013880503,-0.09407990909023546,-0.14766753655620476,-0.10990342256141114,-0.17037158499015795,-0.09470584591276701,-0.0868546980950829
0.27,-0.0034760934102178224,-0.02318766719034689,-0.0195510564272888,0.014929239883627946,0.007358335111944101,-0.024604668728217035,-0.09101540054415226,-0.1527461251627673,-0.11196570134775373,-0.17155593731307026,-0.09796073529382396,-0.09072538300020327
0.272,-0.005025404562703997,-0.03326362264901476,-0.027886511730044007,0.021168644880630767,0.010611861534962345,-0.033503776942057466,-0.09415998733409642,-0.16077665734255348,-0.11994078648215664,-0.17934713078033995,-0.10313679698237695,-0.09522850266494977
0.274,-0.01624215083796809,-0.04478455058544125,-0.028264159927095134,0.031689697233425705,0.004175705390135684,-0.03884211767045127,-0.09908579802834601,-0.16693366259906442,-0.12583557869285794,-0.18741706871981847,-0.10637826308575273,-0.09470170070507668
0.276,-0.023645722193927778,-0.04451841090038205,-0.020641156072447892,0.03428089159928918,-0.0037932022141353395,-0.03412537682617899,-0.09704935086869668,-0.16672242311556867,-0.12152422498736684,-0.18571139671850467,-0.103587119563708,-0.08576937781474694
0.278,-0.02940233787276868,-0.040268675765989116,-0.010573927728498418,0.03532995238621007,-0.011085525817948153,-0.026370331829190935,-0.08678587097592183,-0.16176042293299908,-0.11073946687415005,-0.1747261738687423,-0.09738561877026244,-0.07372267898597624
0.28,-0.03627164126416281,-0.046148823561034905,-0.009612692618779424,0.04296891628022025,-0.014522809322698171,-0.028750748933291742,-0.07591894928051894,-0.1578523649310935,-0.10375119461191235,-0.16541498022828052,-0.09448751284358362,-0.0689256359870196
0.282,-0.03454547351917681,-0.05470154045239691,-0.01998609890369326,0.04705039523498212,-0.009075922965169465,-0.0385269024414068,-0.07105548174843897,-0.15826799729963134,-0.10373288727992097,-0.1646144061974643,-0.09664188747129786,-0.07390525603366122
0.284,-0.01693199297617971,-0.04778020917629196,-0.030650488435017796,0.03419317525726167,0.00412847920408415,-0.040665280420306496,-0.07107836335183672,-0.16098821472999358,-0.10514410389285224,-0.1676131948637657,-0.09876987298537714,-0.08014518935207073
0.286,0.004871881278261769,-0.02854941999413886,-0.03321001050789428,0.012647192755204036,0.016273643831999605,-0.03223796834312327,-0.07067241363959303,-0.16252245838102758,-0.10278688745642679,-0.16708725472233052,-0.09598123706980738,-0.08006144571598987
0.288,0.011994682646147992,-0.01863688869927467,-0.03068607623760216,0.003668710631671411,0.019519117605882975,-0.025496378967929882,-0.06781803969493835,-0.1625824215446403,-0.0979830763650577,-0.16392159880084659,-0.08963504225704357,-0.07589456024002676
0.29,0.00407375821466697,-0.027790764290571618,-0.032239031683795515,0.012487828776417692,0.017321364921581674,-0.03013976920787363,-0.06582796934001539,-0.1636439081517627,-0.09601388911934872,-0.164980360764635,-0.08609922679075298,-0.0746609133469155
0.292,-0.001439480922022963,-0.045033286038613465,-0.04382623145713528,0.024278694516135284,0.020744089841806004,-0.044237317719905425,-0.06785874362708404,-0.16646225281902557,-0.09882483922887464,-0.17218092040360602,-0.08948040501781297,-0.07869823447865328
0.294,0.00520793427234446,-0.0553971505080621,-0.06020454922336383,0.02626497802674089,0.03227697878550554,-0.05810536014335067,-0.071310754172729,-0.16775967056705962,-0.10215357577491255,-0.1785399847584044,-0.0957828584257392,-0.08258872021707739
0.296,0.015056127085911237,-0.0537877686668162,-0.06792035253704094,0.02072679286402933,0.040967538721309704,-0.062134979820781144,-0.06953584053767764,-0.16322573380901456,-0.10033646958260245,-0.17624485316544114,-0.09625286908313122,-0.07852687597478596
0.298,0.016239306396201775,-0.04533803293626462,-0.06077709734574525,0.016348788361268025,0.03746723096582362,-0.05493159482672771,-0.05967267072459833,-0.1526304653924483,-0.09227693873523174,-0.16570224404977804,-0.08748923872479643,-0.0656724161159894
0.3,0.010248206085141463,-0.03877359186752548,-0.0488246848897034,0.016326229316026588,0.027411600954932745,-0.04542724795482674,-0.048402297572535696,-0.14230835295253974,-0.08310755872355603,-0.15548807178663576,-0.07701515552442612,-0.0534172513188756
0.302,0.006196648600569722,-0.04092914690919156,-0.04737927656643458,0.019436788612585326,0.02368466240425988,-0.04500658946498996,-0.046294733573313776,-0.14037231622163193,-0.07969634152064478,-0.15341028260954515,-0.07573558620600551,-0.051772270470475966
0.304,0.004975098423560195,-0.05446289594031014,-0.0596686885048372,0.0269112439457844,0.029086496898887232,-0.05724527382392829,-0.05458107936191565,-0.14713590659864093,-0.08282920729156547,-0.1576733022946011,-0.084379373589992,-0.05961156472033749
0.306,-0.0015511417976929328,-0.07606285042407508,-0.07449456473580673,0.04103059591877597,0.0338506463147851,-0.07544454533902883,-0.06329743756617713,-0.1550402795073219,-0.08668062000194561,-0.16043882139768084,-0.09283035488190029,-0.06799947817525374
0.308,-0.015356897754707744,-0.09497964431096677,-0.07947008567070829,0.05704609523327352,0.030158387396642113,-0.08808499191364268,-0.06379269191323363,-0.15902316165907798,-0.08659636123325688,-0.15837050542284833,-0.09309143732714256,-0.07195445780342663
0.31,-0.023922149691443594,-0.09747709217207388,-0.07337025140117669,0.062166708988320066,0.023391236216399457,-0.08702406817523918,-0.05627087280185434,-0.15949781267939533,-0.08249380140943131,-0.1530986555703236,-0.08617889661368315,-0.07154625041915592
0.312,-0.013120922904937318,-0.07982443111031301,-0.06642138650359286,0.04804738879808341,0.025883273043725945,-0.07494706931371797,-0.045644062173526345,-0.1569628685222598,-0.07612449658694598,-0.1461016524439778,-0.0774542120938297,-0.06611095123957433
0.314,0.015304138820699304,-0.0542862579777108,-0.06921840291520019,0.021433055088703613,0.04183142741300141,-0.06348084869631003,-0.03597811113142768,-0.15153601484078827,-0.06960103624833922,-0.13922396970173284,-0.07100868655115941,-0.054706467172583206
0.316,0.04529376521224664,-0.035480568690851956,-0.08049632590780956,-0.003057503383976243,0.06196349601222476,-0.0595915490976551,-0.02913515939446884,-0.14596405929398237,-0.0647502589260274,-0.13474304718086275,-0.06769758441835429,-0.04014195704266114
0.318,0.0626404217602678,-0.025634004332963294,-0.08816287759202612,-0.01729422994469657,0.07340548688010338,-0.05813205565507743,-0.02656723505912064,-0.1447715136047091,-0.06256264800149866,-0.13293248615270686,-0.06635739919791173,-0.02909532831738607
0.32,0.06600423086571143,-0.017154830157996386,-0.08311768807282183,-0.023893936095639362,0.07222071234068257,-0.05060275526218915,-0.029708561326003108,-0.15017500207047485,-0.06382100198056982,-0.13302494391797018,-0.06644373815097354,-0.02672299059071369
0.322,0.06362885066198302,-0.004329508103065986,-0.0680666868642161,-0.029338029762215383,0.06427650549073888,-0.03601385779180742,-0.036467701211967116,-0.15861479034186687,-0.06783546363966061,-0.1344919521471261,-0.06783110995841365,-0.0307226700321767
0.324,0.06062584244844912,0.008326320436794413,-0.05275926273647315,-0.033788170149844005,0.055796504325140155,-0.022238579652646976,-0.041154231023022465,-0.1632799036309076,-0.07119534553611039,-0.1366435614258067,-0.06944021802467878,-0.03408691141631589
0.326,0.053721685536175214,0.008681272063418517,-0.045688351157451616,-0.030033589629645408,0.0484967319407547,-0.0195337890936677,-0.040940754244447215,-0.16214405101659018,-0.07094206660914626,-0.13907918409314454,-0.0704997930656105,-0.03442195482884562
0.328,0.04313048674255175,-0.0073757968182364365,-0.05089576808191773,-0.016838824285642262,0.04510813856183865,-0.03106237008102556,-0.03796095613330791,-0.1594575063871089,-0.06694210793881676,-0.14002953643961225,-0.07026872130883077,-0.034805885604314885
0.33,0.03978865138450575,-0.02689442638829854,-0.06673260641661836,-0.006159518755240989,0.05110087015762829,-0.048949480068102375,-0.03446259425471433,-0.158512501254208,-0.06069094530807579,-0.13619171767596155,-0.06704231248915313,-0.03590575283128494
0.332,0.048969254887847334,-0.03641951031145741,-0.08547811257267456,-0.00660266100343679,0.06524949465349282,-0.06279935385068595,-0.032709997007800556,-0.16052001869824262,-0.05635526610881229,-0.12998717760374479,-0.06279863188817293,-0.036284465982762
0.334,0.05760411373244588,-0.04033480553413931,-0.09830368883264286,-0.008684299782598293,0.07629350359905722,-0.07062503270567058,-0.038032267673935145,-0.16947019660114634,-0.06042122729579654,-0.13056201235006978,-0.06475156904675723,-0.0391580801080752
0.336,0.05134170425345967,-0.04981765705194874,-0.10163430046773964,0.0003398341675398335,0.07519484901199752,-0.07648035243376254,-0.05306536978265897,-0.18766336001916967,-0.07360936018011266,-0.14078747161947527,-0.07521617288611802,-0.04804014623641504
0.338,0.03540551528631277,-0.06142753830884388,-0.09719858986081853,0.015073172655457849,0.06550837267010788,-0.07989826594247226,-0.07081972985603573,-0.2077063537621122,-0.08688456731698325,-0.151853577825777,-0.08541337500053957,-0.057751515744676775
0.34,0.02777261707539267,-0.05980825988553273,-0.0877197847704658,0.01775409092300426,0.0574919159730094,-0.07440053588768776,-0.08137019344880712,-0.218556577112333,-0.09193439211179567,-0.1560811775282683,-0.08654767985747629,-0.0594220135785486
0.342,0.03536926590194569,-0.03944798402823013,-0.07463239698901923,0.0026301837514416237,0.054900709243637554,-0.057440126602016355,-0.08261242213823874,-0.21795746597201526,-0.0903317287892301,-0.15589772044502534,-0.08107418176527749,-0.051633568193332216
0.344,0.044265901128514924,-0.01588247504032946,-0.0597260438955514,-0.013880792816263053,0.05143681045812377,-0.03795479972943966,-0.07837139063942306,-0.2120743039772397,-0.0871047400990951,-0.15564467089903022,-0.0761681520788637,-0.039995785648453394
0.346,0.03648769648744064,-0.011778198720054204,-0.047938464380320976,-0.010853396170581387,0.041120736908649216,-0.03050861783379289,-0.07185413396310233,-0.20681393598696685,-0.08369635564466026,-0.1539861753605299,-0.07356397745140049,-0.030294549865052218
0.348,0.014307696265408901,-0.03260577012968441,-0.04689744546891728,0.0120185557217696,0.02952489071666028,-0.041422111047557754,-0.06709516590301452,-0.20562165661195694,-0.08223016104591876,-0.15009799317150047,-0.07266251000665826,-0.027009126509180203
0.35,0.000977096029665633,-0.05862404288843832,-0.0597631640964607,0.031897297343293725,0.029615782005781965,-0.061313196030194216,-0.06874052620286848,-0.21022794498896824,-0.08627424915495761,-0.1479838756859941,-0.07459381275073018,-0.03171393708664815
0.352,0.013914453093091424,-0.062566275718201,-0.07657433921368977,0.026538373126954652,0.044520454425333096,-0.07135700066451586,-0.074280092687327,-0.2171753612539136,-0.09257553277714375,-0.14841439033437342,-0.07674255179525036,-0.03797239562484312
0.354,0.04215359271299203,-0.03770052662660329,-0.07981401965360066,-0.0009977355820978589,0.05993598493279746,-0.06034477768571822,-0.075109222420612,-0.21935151184573595,-0.0923184218741107,-0.14650516210457745,-0.07289383244389591,-0.03627338680918082
0.356,0.05677895490426262,-0.008143878576117536,-0.06485285223666194,-0.023553125890554957,0.05938305306544198,-0.03850989041306839,-0.0699773239104455,-0.21623191518917498,-0.08487318798737177,-0.14246311970111367,-0.06431575464701847,-0.027945445104863294
0.358,0.04355702491844559,-0.00368152108595541,-0.04722661797102792,-0.01923245930559967,0.04365157555557532,-0.027998081710016706,-0.06799159378540269,-0.21618134136013356,-0.08074335272690945,-0.14398818803052293,-0.06131394659495205,-0.02445895797351823
0.36,0.017666142827198833,-0.02305510579848075,-0.040775512545549036,0.0032265564740240125,0.02737293759033048,-0.03443744092011739,-0.07415641367779917,-0.22411659492714875,-0.08635164212159618,-0.15315940522458632,-0.06864783492713004,-0.030291887394221163
0.362,0.003761332287405098,-0.034697977381925316,-0.03861256579447454,0.015544247718120513,0.019628365172900637,-0.03854525250090428,-0.08102963617929876,-0.23305101615642662,-0.09400009442709213,-0.15980505929773342,-0.0773613284694162,-0.03590590867011632
0.364,0.010964474428297568,-0.01781218007908975,-0.029096932206924886,0.003203802558595376,0.019045673951986038,-0.024690895337079674,-0.07930735048322649,-0.23289869073237482,-0.09245168383783517,-0.1535901945716602,-0.07655879958982548,-0.031126285563774097
0.366,0.030321021478861336,0.012805654362471403,-0.01792259560186522,-0.02134534753437491,0.023660727287491367,-0.0037583578427205205,-0.07008291097353317,-0.2241222933354727,-0.0821801502700185,-0.13817987179294436,-0.06719368146941657,-0.019021268756303524
0.368,0.04778757123202642,0.030378654885512064,-0.01766100970296454,-0.037677642321966916,0.032593497633523545,0.004574713289882477,-0.06176677723207252,-0.2170952377866055,-0.07365837982110551,-0.12721265440559054,-0.05852252512669633,-0.011145591990014945
0.37,0.05435304214407859,0.028635913840464197,-0.025676259114573746,-0.038950402182626305,0.039898246302037026,-0.0007877655761305498,-0.05845340977110551,-0.2183259637988721,-0.07289200660348161,-0.1274117574814674,-0.055708785523198766,-0.01235208300460125
0.372,0.047459471179113165,0.020855082483662978,-0.026354318121860478,-0.03146169766566582,0.036383611571142775,-0.00470186747680123,-0.05648193697762554,-0.22269181710772434,-0.07529952618684586,-0.13222261362720517,-0.05652374326811978,-0.017128293832323713
0.374,0.03193030426221504,0.018132547185941962,-0.01353719484858791,-0.02318481832915612,0.021717794240585543,0.0011130009480591857,-0.051390620155919234,-0.22128962197493915,-0.0736391738542209,-0.13274871295863122,-0.05720027469838008,-0.019413071158147215
0.376,0.019328593784846512,0.017432501834485248,-0.001821717929533193,-0.017435524649682167,0.009411831784743068,0.006707152399098903,-0.04412655128302411,-0.21361093626007663,-0.06721036290985259,-0.128717268356053,-0.05706395650986479,-0.01966630635089584
0.378,0.016227579741587256,0.009122629312922343,-0.007196182406573749,-0.01193408515810616,0.010706120203525557,-0.000979384189052895,-0.040431000148279495,-0.2089909728193808,-0.06264430841714759,-0.1266038747490197,-0.058665649528346415,-0.022165441615748797
0.38,0.016884069057554227,-0.00672971005279672,-0.023571132196326332,-0.004078944309469718,0.01954019799772076,-0.017654396055880907,-0.045259806645706814,-0.21564243724872711,-0.06677914683669424,-0.1309484366703902,-0.06534240394460353,-0.02891520376856682
0.382,0.01513676545500189,-0.017361922728375,-0.03216777784986472,0.002124185692414165,0.023381635630810003,-0.026532465855996352,-0.05664135412409481,-0.2304059670936501,-0.07873213298382355,-0.13989402692093697,-0.07715365745687687,-0.03719831286517905
0.384,0.012474531578122046,-0.013808569803205367,-0.02592946157198582,0.0013763666311507735,0.019059807442468636,-0.02026375811022505,-0.06585440698650603,-0.24213548720131226,-0.0904609398609079,-0.14806407888511577,-0.08885472678502036,-0.0424702722423651
0.386,0.009617977197893758,-0.002858311008811471,-0.012400698838749833,-0.0025842167772701053,0.01037354303913669,-0.007543584458260449,-0.0664817742970083,-0.2445940670986897,-0.0961177087309352,-0.1526712961262638,-0.09455072995232504,-0.04368638999361211
0.388,0.004554138533745996,0.002909193286756812,-0.0017927760365541881,-0.0023081708525912147,0.0018232513753304073,-0.00027675593739517554,-0.061946731722049134,-0.2424808957038979,-0.0979086943245277,-0.1556045701573861,-0.09425272092681349,-0.04442258254252001
0.39,0.00040060324546764494,0.0005237806141396204,4.2294553190625535e-06,0.0011502198002332708,-0.001368365658705117,-0.0017345509970170475,-0.059435370973750956,-0.2424179883665908,-0.1000466459508969,-0.15764520102649252,-0.09224353103323245,-0.04658183142047405
0.392,0.0028254091154723783,-0.003507966809899279,-0.006312993689565726,0.001156664698402715,0.003504309604512057,-0.006876025826667118,-0.05855171491408996,-0.2418128356218653,-0.10098662425549439,-0.15434931135456373,-0.0900512565402093,-0.046324082384346425
0.394,0.010574449689883362,-0.00507179655446354,-0.015571860740202038,-0.0027634146948862003,0.012778767061023332,-0.011252168896103823,-0.05410843496086083,-0.23329951978111874,-0.09737131017727985,-0.14445247117725588,-0.0867082128175951,-0.04121410916363251
0.396,0.015761657620619395,-0.007877457457273761,-0.023614341856293783,-0.00372589716384556,0.019643566452016186,-0.016194698459263007,-0.047608768974959845,-0.21665575527535053,-0.09171941884824884,-0.13732781424391122,-0.08399260882185931,-0.03741562824277109
0.398,0.012912702851396403,-0.014186003095865127,-0.027127304116850326,0.001836009449612033,0.01929738228709765,-0.02172677698975485,-0.04467230782545987,-0.19765559149749717,-0.08852247790867455,-0.14176949025616115,-0.08383577146501338,-0.041937949226132254
0.4,0.004769706560859401,-0.016316787368835406,-0.021113664024810585,0.007545184850308135,0.011217801516346312,-0.02031877486000315,-0.044048529148924986,-0.17965590868982312,-0.08665687826144325,-0.15252407775289398,-0.08350011938932654,-0.05080451025160563
0.402,-0.002402816501010656,-0.006010150539003868,-0.0036047232162320386,0.005536382135685954,-0.0014215070352595937,-0.006029800270051984,-0.041414214724769104,-0.1647308692621487,-0.08394492732246153,-0.15829045008688036,-0.08075500257811011,-0.05465132321300945
0.404,-0.006179701182996251,0.012896955061303287,0.019092723197060592,-0.0029942846662251547,-0.014039522270900459,0.015374651451054456,-0.039731871275946996,-0.15725026889848603,-0.08463595436526923,-0.15765062579746275,-0.07923886028312485,-0.05345468988524987
0.406,-0.008078595938635962,0.026820835279099002,0.03490568061618906,-0.009534252437761312,-0.021996099622927017,0.030344561627669114,-0.04438159492100506,-0.15841920934118564,-0.09334280926895407,-0.15750877229967183,-0.08235972717399272,-0.055051528866208344
0.408,-0.011679881377351636,0.021339145593320594,0.0330132447938818,-0.004630860807751571,-0.022304778900526182,0.026480343540577968,-0.05225267062162934,-0.1614723562221565,-0.10500179530730708,-0.15995206114626323,-0.08654443082162991,-0.06086486922302435
0.41,-0.020824283433042524,-0.008358272558991627,0.012459838889710315,0.015628041870968463,-0.016666274511751285,0.001298720245635259,-0.05489654384231705,-0.15826655603875472,-0.1094136093989614,-0.15986569351396707,-0.08591800105010096,-0.06389670067874689
0.412,-0.033742648017899404,-0.047251125980758535,-0.01350827056687395,0.04217971723278963,-0.010736871157847596,-0.031016120172503537,-0.050254398947815936,-0.1488836023443801,-0.10454425194005455,-0.1550691087222219,-0.08081371141424563,-0.06155529127221378
0.414,-0.04144369576747734,-0.068639696051612,-0.027192533067546907,0.05706171203924109,-0.008467996229220193,-0.048467765627690465,-0.0445138727011717,-0.14043476609124644,-0.09835808161577088,-0.1513795647068896,-0.07665987435402774,-0.06010589723236079
0.416,-0.03618266615072595,-0.06011091156154866,-0.023926702474723928,0.05050946726908601,-0.0077993299088014775,-0.04275400669839711,-0.04280932125819046,-0.1372693243142125,-0.09729186157496092,-0.15463179929920254,-0.07587845892232388,-0.06382667322505403
0.418,-0.020383935111091715,-0.03630252329805606,-0.015919743336978837,0.031062193742783777,-0.003630599353745626,-0.02722535731392752,-0.04351474194339133,-0.1367524020418248,-0.09895022322679844,-0.16191695725213004,-0.07554324738854258,-0.06895678761841564
0.42,-0.004584051218314996,-0.02081658077678613,-0.016233923335512233,0.015493560506068097,0.0049115215840071546,-0.019847835485247024,-0.042771639676372035,-0.13463310424220024,-0.0980463987383298,-0.16492507712260476,-0.07240637396872769,-0.07040780490513701
0.422,0.005055118604348818,-0.01936236816934138,-0.024395582504251886,0.009720425081579775,0.013861048013245236,-0.023039995461472007,-0.04029247332150858,-0.13059651757446492,-0.09455505541110772,-0.16065187734907985,-0.06713352335581675,-0.06808476999782946
0.424,0.012233483794459769,-0.018857852676731793,-0.03098121659552157,0.005599127286533566,0.020288328408836973,-0.025898380461095494,-0.03767629006960591,-0.12687517862024839,-0.09182905638807996,-0.1542780391253464,-0.0627094977494575,-0.06540831428564252
0.426,0.021128090337052135,-0.009104322324233098,-0.030057874448953414,-0.0040285530584750415,0.02393146855065855,-0.02090731053930009,-0.03425402392532309,-0.12381942474242644,-0.09002297950092222,-0.15101240703721241,-0.05986656810979002,-0.06438552850519075
0.428,0.030312763388650486,0.006670518556304854,-0.023678601412579787,-0.016999633466531588,0.02546250312663039,-0.010477045175475245,-0.029710305775595146,-0.12046998748171822,-0.08714531049342082,-0.1502556108268737,-0.05718030622502417,-0.06436886976969082
0.43,0.03705617306604791,0.01994377014252935,-0.01762913895745014,-0.0274759775304473,0.02621445217297538,-0.0009220208578692575,-0.027076534250866,-0.11737746465618952,-0.08352857289455412,-0.14821343076022855,-0.05427874876562293,-0.0640185794231953
0.432,0.038753781324881595,0.024350406563032317,-0.015238535426061683,-0.030467875562939246,0.02638988028932911,0.002958763804197649,-0.027166867222414286,-0.11447611256294857,-0.07970048969310696,-0.14205870936884793,-0.05075898679394459,-0.06124025237829518
0.434,0.031102919545277545,0.01639446128142804,-0.015411382639429027,-0.022242765619823177,0.023215292206316334,-0.0007252472434727808,-0.025827365505185173,-0.10981519134077972,-0.07488896260168511,-0.13315520140229842,-0.04594426108569402,-0.05545448086056026
0.436,0.011770203649161431,-0.0017953924213407176,-0.01387985727720034,-0.0035394497134616275,0.013079070206962203,-0.008837044028657655,-0.020994435161090338,-0.10302272120029866,-0.07069395549861059,-0.12700170333963884,-0.042544847470702786,-0.05152445446278744
0.438,-0.01399130715399205,-0.018937427552068013,-0.004968502128243885,0.01729489052400608,-0.004587755348044271,-0.012468059402088697,-0.015290346054455659,-0.09492018658656584,-0.06884240667268304,-0.1262650175752997,-0.04437425832394631,-0.054555557269514894
0.44,-0.03285292060493582,-0.020869728757432145,0.011950983867344799,0.027499317962481905,-0.02332231383906647,-0.004518037168289157,-0.009475231628488196,-0.08251651714721485,-0.06471470092574624,-0.12592276305532787,-0.050069991328288675,-0.06272990928496948
0.442,-0.030492378163841902,-0.004034036812938112,0.026176322293576124,0.01847455184913576,-0.030003309172154977,0.010642764582701364,0.0018509736295537868,-0.05766124547182844,-0.049386525865294885,-0.11817628731260836,-0.053521555462883695,-0.07041435027385619
0.444,-0.006718501406072256,0.018741114507759796,0.025012074688738964,-0.0044942812473497615,-0.017823502902092215,0.020258187124358958,0.02631799797323069,-0.012918432492280106,-0.01750822623973615,-0.09847289153284729,-0.04880805117796382,-0.07336728074566999
0.446,0.01735748160824912,0.029009757636592894,0.011362752920435855,-0.022336041644690583,0.0009119165330922199,0.01756215616229621,0.063353666702606,0.047789100700900304,0.0284719002100333,-0.06640813620599793,-0.034314589177754005,-0.06981521987514387
0.448,0.020602677442582127,0.022816258866843415,0.0022365734544356804,-0.021670993337353592,0.006791530950828297,0.009926047674547567,0.09703502409832106,0.1039195417127762,0.07952460152461278,-0.02530373418660841,-0.013738979395952828,-0.061124094198187526
0.45,0.009371363750591034,0.01559414723456407,0.006363527435067932,-0.01236185527762745,-0.0012130224068803925,0.009143224474079658,0.1058150250578871,0.13089529317624887,0.12747791579448625,0.021047048990170698,0.009677267065319316,-0.04950936391790847
0.452,0.008741222118382661,0.02137833570219738,0.012578417999051954,-0.01431200714278506,-0.0046286986326891134,0.015601785536128364,0.08381663756686879,0.12403075532531771,0.17562585963927008,0.07615768952277074,0.03975457755196672,-0.033418495408532915
0.454,0.029640833380894394,0.03870934252500633,0.008690242029494545,-0.033278232021845953,0.0082447517796001,0.022138290842827726,0.04872088663304963,0.10553895365239702,0.2396293261712705,0.1528181085941509,0.08503186406190756,-0.00769123714459184
0.456,0.060130813781824284,0.06468747117686544,0.004070266128023983,-0.061993258046406235,0.026666093025876348,0.03285359888909838,0.02305708337936334,0.10075671088550338,0.33380859760636294,0.2623423228966793,0.1522092955587686,0.03325943613670698
0.458,0.08507877167443414,0.10518114582280363,0.01984373353893571,-0.09514216274786161,0.03213607371318142,0.06176724644181874,0.00786723343938673,0.1097143418974622,0.45721504227714593,0.4022685468898516,0.242925552612011,0.09357419049102157
0.46,0.10200564164001094,0.16272167231763726,0.06077488186417619,-0.13227461208619345,0.0204395914203514,0.11158966531904162,-0.019910462960723192,0.10915612467738342,0.5947685605646545,0.5582639997933297,0.3528483930235276,0.1728983390835864
0.462,0.12110466843480588,0.22962433984345,0.10868300400348996,-0.1747018353718148,0.0055935094432243,0.16830459001468617,-0.08379172372812782,0.08338313373129115,0.733752271284785,0.719640054794952,0.4738027776719898,0.26364767567915764
0.464,0.15719497595904608,0.30094836141520637,0.14380689000467992,-0.22771257980644036,0.005418628463723936,0.22007860000517024,-0.18489927532290684,0.04976668101886478,0.8826134248221668,0.8923215711120657,0.6002038319273248,0.355628813782048
0.466,0.21797672650801309,0.3876320758646971,0.16961695757237447,-0.3010389899325116,0.02250731961546437,0.27572052987839585,-0.2991531852329697,0.05076693342057453,1.0696199844228786,1.0945494841188839,0.733892209364954,0.4460224017332022
0.468,0.2912586982911541,0.5041428819298786,0.2129575972728937,-0.3958870131642983,0.03735740367453489,0.35650101191106515,-0.396067109266747,0.11341868175602231,1.3081893162147422,1.3313776844475353,0.8783210845589281,0.540800553958174
0.47,0.3461879723681477,0.6393671233683579,0.293511449353023,-0.49098470317887233,0.02464424358456118,0.4656956163473057,-0.4643673491036852,0.21365321810565963,1.558792419587048,1.5674052032841757,1.023074183340555,0.6412378955939664
0.472,0.3608964341045461,0.7557313443181075,0.39529129356580855,-0.5565685597631972,-0.018618996077744508,0.575459439231664,-0.5148316307908061,0.2907787525401142,1.7378091834905294,1.7343888480481437,1.1373577794020084,0.731280361501675
0.474,0.34515339467622275,0.8195070779446257,0.4746007535244505,-0.5807945249360067,-0.06587348218516008,0.6470676634042128,-0.5598156906510113,0.2973289776077769,1.7679363650680553,1.7716464970768042,1.1850154102051518,0.7837808031936176
0.476,0.3197976912762862,0.8160963285266055,0.4961296669842485,-0.5665475456024106,-0.08915641362264516,0.6558654396368466,-0.6062542811466637,0.2193105686357261,1.6132890863967593,1.6506176888615158,1.1441308442594793,0.7783385085372325
0.478,0.2844831298020369,0.7445028562819329,0.4595334444370605,-0.5129842770998078,-0.08832188957711566,0.6011860712057288,-0.6649256442577014,0.05519912033333184,1.2771433804310193,1.3669818536801115,1.010357847755657,0.7092861137856612
0.48,0.22517852471148225,0.6158488071409902,0.3902066981881064,-0.41899413591575413,-0.08291413458328374,0.501420508523005,-0.7411266495904828,-0.19068446752698442,0.7949111163469277,0.9376474657862832,0.7909053787935322,0.580834955601889
0.482,0.14371498245102804,0.45210145152965153,0.30829370607735457,-0.29655817867602413,-0.08229916261786255,0.3779662255361208,-0.8155617307873021,-0.4820599227676841,0.24574556357496813,0.422589390029725,0.5088785621892066,0.4054192408447608
0.484,0.06100932164788185,0.27901760202469233,0.2182897863429059,-0.1685117191813863,-0.0786355241758365,0.24613587174502954,-0.8574784809978195,-0.7442827702557815,-0.24674964625586446,-0.06550037268484726,0.2143792813786754,0.2100713356991722
0.486,-0.005244697373923251,0.1225978124326527,0.12808326689542007,-0.05655165425038739,-0.06700119276955724,0.12289981467037833,-0.856534527026541,-0.9080770386608128,-0.5667709779810846,-0.4073596880066421,-0.025934400904647853,0.034864441966415256
0.488,-0.04937892435837137,0.006260376875442692,0.05550289973647394,0.024183728229279788,-0.05322872065595943,0.028853711291966375,-0.8233584111347908,-0.9555803657795594,-0.682385533777162,-0.5544958048210742,-0.16757154915975253,-0.08629304521813576
0.49,-0.06546879797384308,-0.05740987300324021,0.0077161575006451134,0.06380732474571477,-0.03788660590377897,-0.0263627917317238,-0.7657243675167574,-0.9168260501797877,-0.6591562963023248,-0.5561329053340038,-0.2159896549081649,-0.14534281577438218
0.492,-0.049257461359464745,-0.07305639929984675,-0.023965100534618693,0.06259086660329388,-0.014382009015521833,-0.04992445387179471,-0.6846888241273805,-0.8327385442936927,-0.5904857618895728,-0.5022710593827953,-0.21081380681419642,-0.15843476207558665
0.494,-0.018009099409067954,-0.05740320039474603,-0.0393222532824918,0.03825487525024893,0.008897538707545071,-0.0503118300014146,-0.5871440709647262,-0.7277140485298473,-0.5233367314148643,-0.44748487126352027,-0.18756171895600737,-0.14718012375888323
0.496,-0.002540193639293066,-0.024572017689440742,-0.022023467242218004,0.013731361694170673,0.008405045484686327,-0.025819880871336347,-0.4840903579356695,-0.6075870912716989,-0.4509106183229066,-0.39340674862434627,-0.15778620945844865,-0.12441463812796365
0.498,-0.010854753052492776,0.01792519747392152,0.02847118863589668,-0.0034230000106947045,-0.02062530757526349,0.020795575372683166,-0.38214832682790817,-0.47695353932483736,-0.35950235104592304,-0.3280020855410875,-0.1200963208290564,-0.09604030125492001
0.5,-0.022069388946971653,0.05584838195300769,0.07745031449612808,-0.01665092424716979,-0.05079621347982884,0.06479785336061229,-0.28730911662985253,-0.3545301244618234,-0.2641776385091973,-0.25908959551607763,-0.08028902232252072,-0.06964652483719765
0.502,-0.01858522761136684,0.06841140587968213,0.08683009472532892,-0.024172071566503438,-0.05415224684854845,0.07592546995842563,-0.20914995002660788,-0.26356687868274387,-0.1946257517397965,-0.20572966276477997,-0.05214051692952042,-0.054024485524453464
0.504,-0.005322431369976883,0.05215315042752965,0.05782282412155844,-0.021976999165556368,-0.03338162178969988,0.05302473619970059,-0.15384856919210663,-0.2092257461386845,-0.16056258183680241,-0.174345753210639,-0.041170580624538364,-0.05064270709683021
0.506,0.00232503189848691,0.030532583704311327,0.02867539263809666,-0.014609389609295918,-0.015011131974131346,0.027637154716268222,-0.11800306106640746,-0.1760639085053711,-0.1455721877539773,-0.15668722524657974,-0.03900851894074786,-0.052043195308459016
0.508,-0.0011928043479682094,0.029623693050636245,0.030813756131251917,-0.01256417881791889,-0.01749164347400306,0.028630428155735403,-0.09254576977313217,-0.1473695746004991,-0.1303682865669408,-0.14400441227352745,-0.03590366480587832,-0.05090381720700935
0.51,-0.00793474722973543,0.0470739267353607,0.05450031709418834,-0.018514355091129756,-0.03220303478736613,0.049482545801641124,-0.07021703984098174,-0.11885660021647063,-0.11078027854005686,-0.1333097669363251,-0.030518224802521234,-0.04690457012859972
0.512,-0.01380089104720894,0.05096022576607329,0.0642715285872014,-0.018168782296954112,-0.03951013981646231,0.056438870713596954,-0.05018675094106899,-0.09546442172163327,-0.09450234154906136,-0.12493566756002947,-0.02676678401678911,-0.044573318068838214
0.514,-0.025518448307825382,0.019436409903876836,0.04478672492855522,0.0033418616439887857,-0.035149882120688467,0.031103104868332773,-0.03720889273825357,-0.08253944652771891,-0.08891074960961579,-0.12108832509582468,-0.028438883321192453,-0.04882790321965273
0.516,-0.04071898817443555,-0.02230281345415466,0.018295125341743854,0.03252940200285675,-0.02937756632177016,-0.00297976109331381,-0.03320773578710627,-0.07922886771630448,-0.09265830467427881,-0.12264127742876174,-0.03570961362290732,-0.0600307321285705
0.518,-0.04233157520305318,-0.029317278618419623,0.01259699015555936,0.037867547877788794,-0.02774776866186695,-0.009599695492544169,-0.03157751145501984,-0.07810625406874748,-0.09687712549264937,-0.12539969474618295,-0.04356276040614177,-0.07062540897036686
0.52,-0.025696739739376983,0.0002752455799429323,0.025333331535214484,0.015075989760852586,-0.026250810699354397,0.011261591157803919,-0.0250147980963444,-0.07323145265938326,-0.09560634299248809,-0.12406441538184586,-0.047175086662260265,-0.07234173056767207
0.522,-0.008971291487835018,0.02313790738397184,0.031611382575801095,-0.0055550410281851245,-0.021079794777668033,0.025796234926710966,-0.014431960715274892,-0.06592729260674107,-0.0915614115154347,-0.11836305048936482,-0.04720335755315402,-0.06653509635346794
0.524,-0.006045082211774027,0.012563265311797174,0.018458484866037256,-0.003069945671940366,-0.013017427612398519,0.014143767874276956,-0.005807991389488966,-0.06030449954809589,-0.08932753564237676,-0.11237242218680493,-0.04683564306505712,-0.06159933702300348
0.526,-0.00816619710827907,-0.010659814455681956,-0.0024898425972085373,0.008864101072486977,-0.003832963163429133,-0.007797374117123376,-0.0026722774305969915,-0.05755840844214041,-0.08916056740322643,-0.10968116335904449,-0.04781823378027683,-0.062112044074267084
0.528,-0.002894698166573079,-0.0168799553416503,-0.014181030096101615,0.009732212915783984,0.004480505121880156,-0.01699690018335609,-0.003967202827679948,-0.05658760079602378,-0.08999496249426783,-0.11029162149387967,-0.05024645604514553,-0.06543811667046702
0.53,0.0018491850114787088,-0.010197143590865104,-0.012472055581556774,0.005253409589198852,0.006262730509392157,-0.013341213675394547,-0.006945005808877189,-0.05669251004344366,-0.0924387863729269,-0.11225702147375412,-0.05346443267381101,-0.0685097105566093
0.532,-0.0099879207288254,-0.013233877211831443,-0.003550030627074745,0.013991857036328659,-0.003729275187221471,-0.010650431850602594,-0.00989148953931219,-0.05757414454529486,-0.09614699529205117,-0.1148064953400928,-0.056885251055655804,-0.07270823407749354
0.534,-0.03212725727125893,-0.02662396407845874,0.005628287933360077,0.032362996621825714,-0.01950066446868696,-0.012366915384157372,-0.011414434347374195,-0.05787843689395399,-0.09817543685291896,-0.11729817782998611,-0.05948260808832875,-0.07974335555512589
0.536,-0.04062077758616042,-0.03088655537189053,0.010230224271951123,0.03839724676102839,-0.02653901861521818,-0.01152885844022043,-0.00926165511606788,-0.05524324303663885,-0.09598635156827473,-0.11727347470810612,-0.05925611870485935,-0.08724870892523776
0.538,-0.027292845058642348,-0.019732710960559247,0.008074166921994292,0.0252679867849999,-0.018986600268017496,-0.006505395879211303,-0.002530171603855963,-0.0486973422268465,-0.09069881854287694,-0.11307295483365667,-0.05582739070432958,-0.09130487693495375
0.54,-0.008466154278283622,-0.006280378943968181,0.0023962310868665716,0.008362380993282155,-0.00649396583267943,-0.002217867652717597,0.005331686007765843,-0.04123642604349224,-0.08661559131361132,-0.10650023419562478,-0.052583078233456086,-0.09115596137297016
0.542,-0.0009967491671973357,-0.0007015099304698118,0.00019826950981414223,0.0014996716878938263,-0.0013018493017660782,-0.0002561822168810516,0.009355438790987639,-0.037352829956227296,-0.08660235751320404,-0.10023678954215885,-0.052826524746514086,-0.08922411610425154
0.544,-0.003296965166641095,5.7069037437491765e-05,0.003198405629731064,0.0022641001344455404,-0.003622494797699963,0.0014139258667748688,0.010180189520291833,-0.0364750829473063,-0.08791150263802074,-0.09492488010548229,-0.054626497204129605,-0.08641281715103058
0.546,-0.003849993698023846,0.0014749810197679477,0.005295819682066424,0.002063675304423062,-0.004863683691707487,0.0022566661872022494,0.013578206369160111,-0.03336823253419899,-0.08556711368488784,-0.09053658201078714,-0.053313547516002834,-0.08071227834685044
0.548,-0.000970381290936291,0.001514859344903016,0.0025530020818365405,0.0009476583659108372,-0.0024661649390441773,-0.0002638447279749885,0.020719077948043296,-0.027126026084796986,-0.08017749396583201,-0.08787198466016644,-0.0490156397736454,-0.0727611106899278
0.55,-0.0038403947403823414,-0.005728487208007716,-0.0018399109147317497,0.006198461447333938,-0.002422121572514628,-0.006624867425075713,0.02451560478250685,-0.024558073257758592,-0.07859860661759854,-0.08833131222541835,-0.048007621577923085,-0.06905651014245796
0.552,-0.014392546424179907,-0.018740534160246944,-0.004361558863810902,0.0179236335175264,-0.007070596770594627,-0.013895945089504216,0.019168129498530133,-0.03134817600344829,-0.08518924964249512,-0.09349425483806337,-0.05455412370690723,-0.07540635583299322
0.554,-0.021702406929893996,-0.02637460329598891,-0.004704821773436536,0.025257397720773594,-0.01098470882135556,-0.016901613547284602,0.009169776742173655,-0.04263172819917408,-0.09426596756181069,-0.1026884321716583,-0.06391449785466485,-0.08861478422061903
0.556,-0.019647124659901018,-0.02238831593840823,-0.0027493674338389808,0.022250131842780442,-0.011126439361288556,-0.013414407915300698,0.004491115486924332,-0.046694230018155744,-0.09466964083664951,-0.11120283220882869,-0.06749392171279257,-0.0985637021415119
0.558,-0.016598196173597556,-0.01476506390174587,0.0018250726013093778,0.017241642822538702,-0.011619613717068851,-0.007624097540505513,0.008526741502670071,-0.038927153473139145,-0.08351397484410863,-0.11417573733924258,-0.06368638797763022,-0.09893735561089724
0.56,-0.02223742079813692,-0.014278026704104756,0.00783916320928824,0.02035673020367929,-0.01658256850240357,-0.005081209100840633,0.014821018694729418,-0.028260774081186997,-0.07170407812316634,-0.11190644294093208,-0.059435961258685076,-0.0936213076927959
0.562,-0.03500151945869564,-0.02249017551658591,0.012159705489807193,0.031065878784705767,-0.024196703481727564,-0.007514522735717342,0.01611703344494488,-0.026255105707168838,-0.07124960050152945,-0.10932037152932544,-0.061236875829787,-0.09136596540125264
0.564,-0.044356752909293196,-0.032676828088948104,0.011118866544208647,0.04033509147783243,-0.02826954465328406,-0.012986257724017796,0.013231023813445885,-0.032547623779924824,-0.08002471525442505,-0.11027515057935502,-0.06738360567022453,-0.09482430351309354
0.566,-0.04311237302102857,-0.03644987935456826,0.006077369208603478,0.040787548061907035,-0.025854256125354615,-0.016617231712896988,0.011933348840444351,-0.037379471821653,-0.08601486863287786,-0.11361031104715592,-0.07116589960835623,-0.09778669933066153
0.568,-0.03638775136578499,-0.031611281804083464,0.004360459168715631,0.034712781143793094,-0.02212309868057274,-0.01415899350060721,0.013618893274528482,-0.036248018650135196,-0.08427337128506746,-0.11514362297344137,-0.07044895604359064,-0.09442876262379547
0.57,-0.032464830772412134,-0.024541134790297747,0.007663244390870721,0.029725090360996482,-0.021691573016090673,-0.008545755522079352,0.015157783009586354,-0.03219376310216399,-0.08014144492909328,-0.11239182112176732,-0.0688440957238038,-0.0866686758805052
0.572,-0.029098137772348084,-0.021958711700811488,0.006747296473373613,0.027490414607868018,-0.019562921539076805,-0.007810495995254702,0.015963656975569184,-0.026057668396378127,-0.07789317106767929,-0.1069271242003927,-0.06810109733343553,-0.08030677383721198
0.574,-0.017988265009743275,-0.022238522338862293,-0.005033485577087014,0.022148571183916343,-0.008640898934437969,-0.014200624938655655,0.017448102613812612,-0.016364873875331993,-0.07703579970035977,-0.10335788979727922,-0.06687760267136544,-0.07902038441088426
0.576,0.000773670442444139,-0.019586951946968544,-0.021381884365089945,0.010574644321044428,0.008405409084231118,-0.021684065473968367,0.0180797443016207,-0.006467347908201124,-0.0775936454208917,-0.10539283993075706,-0.0658978827914798,-0.08333146007161105
0.578,0.0140764155037564,-0.0153385272726758,-0.03026837810733661,0.0007921741106670454,0.01941852674980345,-0.024902063517803236,0.016296840700491193,-0.001501096315386424,-0.07986570273711531,-0.11086278331607902,-0.06668743259969294,-0.09038012251547979
0.58,0.008399268588457062,-0.016902372012739187,-0.02587067705277038,0.0042826357488459504,0.014585973466462792,-0.023996479852732885,0.01488698354883383,-0.0006149379080724135,-0.08154299427927905,-0.11256868193697543,-0.06711178405883195,-0.09520243825314098
0.582,-0.012368972464581155,-0.026454303920026297,-0.014587553399862742,0.020168736789685858,-0.0010995887928238032,-0.022494017549530156,0.01685796784438711,0.000870189809924842,-0.08093944874596726,-0.10708223185279382,-0.0645355582394102,-0.09647207898411175
0.584,-0.02912690214517075,-0.03857228167391268,-0.00994019486361886,0.035244649148637536,-0.011362218363905567,-0.024770306179574066,0.02019857144255881,0.003933984097227794,-0.08039507063877581,-0.09988737353067313,-0.060996776925478814,-0.09821829984915961
0.586,-0.030300712772058133,-0.046118268618444126,-0.016062202296151698,0.03956706833573551,-0.00863748775129415,-0.030749079275358228,0.020660881963480024,0.005408313719954656,-0.0829324528028189,-0.09832471777721878,-0.06021556639093823,-0.10312153444591238
0.588,-0.023389838991220664,-0.04401451270199242,-0.020436489110637012,0.0346741930068095,-0.003112624897018809,-0.03255370575463371,0.018212819177210418,0.004518249491150655,-0.08666567618217454,-0.10233377849687765,-0.06166098199021081,-0.10837038277383447
0.59,-0.021158963360557764,-0.032614076791724816,-0.010953800985431285,0.027635563301321286,-0.006744701905289409,-0.023490368746236907,0.017634761075607755,0.005428039665403668,-0.08566448409277626,-0.10554542893927801,-0.06132188432703958,-0.10988158662675253
0.592,-0.026731433752059205,-0.020827403714238742,0.006388946632608196,0.024431500015612218,-0.01776775616533317,-0.009577064992460145,0.02156041328086435,0.010837670081950836,-0.07812730679958421,-0.10329452561053143,-0.0570099326992531,-0.10755675453596779
0.594,-0.03430592903653614,-0.019042190172848247,0.015457363571349109,0.02704685761804496,-0.025898928129255996,-0.0039846185100918885,0.026260427337635065,0.017222009978532387,-0.07019715012591715,-0.09693589435059226,-0.05093252480846511,-0.10461675886433282
0.596,-0.036240131297412596,-0.026409070668365786,0.009741558309430381,0.03134129353091021,-0.024723942360531104,-0.010473018449915989,0.026771448867386156,0.019479435461152026,-0.06905990303508669,-0.09190696378449872,-0.048206753905921204,-0.10316196730164666
0.598,-0.030723165870454188,-0.034750829184076626,-0.004170670990713751,0.032800379723126924,-0.016039865954594557,-0.021804182189229228,0.02238638482057358,0.0164779508633621,-0.07553618471875155,-0.09240145823243913,-0.05278933650904419,-0.10347485429232983
0.6,-0.0219556747205365,-0.04023718839996641,-0.018308711455260678,0.03178206989385307,-0.0048802605347216125,-0.03144107755245471,0.016001083107870784,0.010893983595075632,-0.08418829363807857,-0.09629593963791795,-0.0629133448070197,-0.10620433740829417
0.602,-0.009969495040189213,-0.038017996825241394,-0.027986674519474345,0.02551238420013191,0.00646146493086665,-0.034518980128256965,0.011263759504383217,0.006344386249544377,-0.08884804501382226,-0.09663507420463563,-0.072168469445816,-0.11131141681267274
0.604,0.005963168835820407,-0.021156581260900333,-0.027075465233736478,0.009713710117680689,0.014509247739818468,-0.02495915207702286,0.009821772473535599,0.0040959509365805285,-0.08843040323054735,-0.08988398848004905,-0.07659288905458946,-0.11676514828932605
0.606,0.015176894237448576,0.0019375814809386054,-0.01322956745082447,-0.006331925783692261,0.01244960525046771,-0.006061758967762062,0.010272712221522484,0.002099455651160993,-0.0868589424865374,-0.08036756035812935,-0.07761430236029587,-0.12069176399623988
0.608,0.008399018079051912,0.010281940109376324,0.0020063352759074394,-0.007491555071028736,0.0018948861322985117,0.005745417594123963,0.010293251415936358,-0.0014816975846770478,-0.08761601518402952,-0.07540412720375293,-0.07813035626877375,-0.12333626108236023
0.61,-0.0069594224960063105,-0.002058584760561067,0.005330034599869564,0.005983299729562753,-0.006740844971860848,0.0007970178736052129,0.008674937809480105,-0.005247024409760329,-0.09040742368620935,-0.07849531544380375,-0.07975511201339938,-0.12643057724147513
0.612,-0.021773615984400144,-0.020953327792056192,0.0014296941578632039,0.022984441505882275,-0.012128377066376915,-0.010996951628007484,0.005696060377763049,-0.006810137792345618,-0.09257055048376837,-0.08729177296140128,-0.08327386384337633,-0.1311414864612975
0.614,-0.0371413078520061,-0.035065397951153286,0.002327436515042022,0.03808295454230943,-0.021319740783381454,-0.017555700929526356,0.003510569579157784,-0.005980139186472673,-0.09211691379834996,-0.09530392287871181,-0.08814653331706428,-0.13672939849896967
0.616,-0.05269642188584006,-0.04500030074646055,0.007305244181692557,0.05066256969349235,-0.03291054922845615,-0.020041801833864045,0.0053689080399002,-0.002964065549693909,-0.08878482458755489,-0.09550305214874955,-0.09109011954983105,-0.14056792370549598
0.618,-0.06197676870581367,-0.05082981381666294,0.01061823333584111,0.057667716103682196,-0.039692219349118756,-0.021732959903927557,0.0124163648757883,0.003997940197607602,-0.08252823688115482,-0.08521330564945585,-0.0879068984074052,-0.13898816065603192
0.62,-0.060655583343017315,-0.04828335445782126,0.012353949254693759,0.05575649675437859,-0.03956225792952561,-0.019711906155143802,0.021209664708645826,0.014537638580260148,-0.07384892295846031,-0.06955174246210949,-0.07924498315516527,-0.13130470178835077
0.622,-0.04995775848954005,-0.04003468448314798,0.010357541370969931,0.047133724532414115,-0.03285859916417202,-0.015757716639122274,0.025803007778411,0.022159981409944518,-0.06655733011587632,-0.05903810013468792,-0.07269023026367966,-0.1242786270421817
0.624,-0.03538323504074991,-0.03650551561317379,-0.0007027401652383498,0.03881757195305849,-0.020004563850960857,-0.01838336486164093,0.023269947366982322,0.020015107252210212,-0.06610220262451275,-0.06101062669835886,-0.07535883390872834,-0.12717695476762086
0.626,-0.02217551297017778,-0.03940949003634058,-0.01699893286472194,0.03336707139817705,-0.005076317657360262,-0.02761016189111698,0.016939187561744996,0.009642297089283245,-0.0731308791657682,-0.07234688326812289,-0.08514178011423673,-0.13996132060494879
0.628,-0.01245254490843165,-0.03856936967117857,-0.026042104353230705,0.026890098289366345,0.004967403936703145,-0.03239982950343489,0.012947718654785886,-0.00038946000662480964,-0.08186778026517043,-0.0821427138798392,-0.09307802855212031,-0.1513457031593846
0.63,-0.011277957775139609,-0.03334131750310372,-0.022346380054441024,0.02253093032492253,0.004460615471884193,-0.02899450476993577,0.013153546087409207,-0.0042308670570377635,-0.0865819161663536,-0.08281657304742693,-0.09478798890842116,-0.1522563614497139
0.632,-0.025091030833988514,-0.03769152738695202,-0.013429614166844017,0.031185027230103083,-0.00647363129836758,-0.027077246412653952,0.014121611156782543,-0.003355874213627023,-0.08693826145481214,-0.07679828378625835,-0.0944789692185002,-0.14649528066785458
0.634,-0.045993130859756044,-0.05309560422254399,-0.00820676905339367,0.04947045886474649,-0.019324541542668786,-0.03155276597144945,0.014117813523995928,-0.0008414939210786786,-0.08506822118632874,-0.07065258975743602,-0.0953955950087363,-0.14228362679041134
0.636,-0.05229853604565179,-0.0586330493318962,-0.007212845266445936,0.05562083169287446,-0.02300926496563563,-0.03314563870084328,0.016146301678615995,0.004334949014760443,-0.08042917253282669,-0.06604928722102262,-0.09374587644632043,-0.1390473144723447
0.638,-0.03546190219878063,-0.039580786908015315,-0.004657673579101935,0.03806321475534894,-0.016424949762236452,-0.0224572980295576,0.021767783062142543,0.013803926698467962,-0.07177483845993085,-0.06025038395504877,-0.08659776042606047,-0.13082825495681422
0.64,-0.014124875262873295,-0.008318884710770521,0.005332067470096835,0.012577992045503965,-0.011420518417667674,-0.0024056790668169742,0.027177192227202922,0.023947959059544357,-0.0626682976575733,-0.05339448617666837,-0.07827793187566327,-0.11843278163677425
0.642,-0.009546073160965517,0.011988685430630194,0.021015525119632537,0.0009693757988515803,-0.01685930903582271,0.015381060392254167,0.029012528910113744,0.029194525170108388,-0.05902914447406831,-0.05004828946374817,-0.07412660450368877,-0.10988785797492026
0.644,-0.018952765507490404,0.013306022195161724,0.031844403601183735,0.005136012748715349,-0.026147961600103676,0.02182616582741922,0.03035149254816163,0.03044877983918917,-0.06047548325079339,-0.05171762171855237,-0.07317902965820007,-0.10883355963680037
0.646,-0.02670852016447696,0.0048351590529162125,0.03126659289143325,0.0128089709450111,-0.029260541415657787,0.01770321739188599,0.03608838741147816,0.0337564605711311,-0.06042265123783099,-0.053160970561591005,-0.070756251194051,-0.10943994642929798
0.648,-0.02887197940661994,-0.00459684266780392,0.024032273259267205,0.018301297100216055,-0.02707183762997234,0.009078000072321327,0.04425020419772434,0.03978398480106702,-0.05658410024145254,-0.050145545677153916,-0.0657020691289965,-0.10663476973801506
0.65,-0.03275090524230694,-0.01658120957447219,0.015982820314651647,0.025984308949783968,-0.025491964527520408,-0.0017971722451423046,0.04771584930253078,0.04205676036377642,-0.05481108359838966,-0.04541404155746555,-0.06174482554817754,-0.10445105058069436
0.652,-0.04110421273689832,-0.03380344212604023,0.00724243282084489,0.038145609983922996,-0.025310723692202622,-0.01521738605039946,0.04384449667997975,0.037320234014052385,-0.059892956382193725,-0.04336473999576419,-0.06232897899254308,-0.10879677124876719
0.654,-0.04701930380256144,-0.04881027765862105,-0.0018438625570746969,0.04802115240429242,-0.023367795663371372,-0.02692610562440092,0.0372110908126383,0.03087930698197361,-0.0681278682761441,-0.04398842011175862,-0.06673166626273992,-0.11801332249272543
0.656,-0.04474185919667804,-0.051467528010340415,-0.00698868922121785,0.048330817504960225,-0.01932328400813999,-0.03041628707661977,0.033625058915520686,0.029719971449679985,-0.07210909419557887,-0.04468328215399865,-0.07069125350871415,-0.12483863268305846
0.658,-0.03848291364350862,-0.04316608877568999,-0.0051147272605772,0.041520900428603624,-0.017004037750648418,-0.02531925502256891,0.034872240982129966,0.03459056364408993,-0.07001990968089919,-0.044131729282364154,-0.07005820156247124,-0.12414930864623958
0.66,-0.03143652110035541,-0.031041988511970233,9.9703812331837e-05,0.0319036605973112,-0.016263788818489774,-0.016761557447476393,0.03837749044436777,0.04066659865565904,-0.06690038678352263,-0.042449472333877566,-0.0653927867322459,-0.11713401559397657
0.662,-0.01701283006830108,-0.014885173858255175,0.0021171440494349237,0.016041712056984212,-0.010542559644027788,-0.007677210818566392,0.040363829101870495,0.043660751176973336,-0.06719936975246855,-0.040298403857950756,-0.06223990925209879,-0.11003131586470062
0.664,0.005314019896963106,0.004759601538296735,-0.0005473855224934899,-0.005391251889115869,0.001336285404978453,0.0006501947333066523,0.0391647219506979,0.042631936557485796,-0.07047190707137704,-0.039095059414764814,-0.06567430811847329,-0.10927253749952356
0.666,0.02036514313938464,0.015272572595010366,-0.005473396536070311,-0.01807655328947787,0.010833878255838056,0.002928414137553262,0.0354688904366266,0.03830142809808604,-0.07489045083018238,-0.04008156729939922,-0.07537760801299753,-0.1158468025959326
0.668,0.01576729211312748,0.00631049956419461,-0.010253819282814039,-0.010648737879338906,0.010865917732887314,-0.004401305707314135,0.03086381331084374,0.03261076550363804,-0.0793481065458792,-0.04267216994008379,-0.08560430585897487,-0.12449207701986925
0.67,-0.001891177359599744,-0.011764127479877014,-0.01059400328269397,0.008211832918621521,0.002670167103214296,-0.013403087246116765,0.027745113667095773,0.029791094793330124,-0.08098437865085739,-0.0441289970591317,-0.0893919902289467,-0.1293291881528561
0.672,-0.01715321475825609,-0.019334346259865732,-0.002263454249681398,0.02037525552684254,-0.00850801925438101,-0.012116057951273733,0.028871876168640988,0.034101168250698324,-0.07609192764625584,-0.04092145767084014,-0.08408311020911734,-0.12843987513161118
0.674,-0.024094426489526238,-0.012701934733069185,0.012055205693305593,0.02031307066699617,-0.018812844843211534,-0.0007727160291426601,0.03416043855979628,0.04441122267627195,-0.06598735791057586,-0.032064125608036946,-0.07401585211096551,-0.12402771118486801
0.676,-0.027609821569610286,-0.005453005367964397,0.023134494833065483,0.01737947116773754,-0.026102001927115863,0.008465981910863788,0.03940432336590426,0.052938585161194096,-0.058042093940400524,-0.02148090881593343,-0.06717917242612471,-0.12097971808275411
0.678,-0.030054497230790053,-0.008506437944012435,0.022212533667865585,0.019320212095092108,-0.026875574687051387,0.005875440299210316,0.041357820973048035,0.05332464285678378,-0.05746140720130693,-0.015015740913569237,-0.06712193961037492,-0.12247659177943118
0.68,-0.026560008432675322,-0.01943283047395849,0.007130742494250191,0.023342487792990464,-0.017534355357960392,-0.007788865695522156,0.04203335162381023,0.04865374621538836,-0.061328938176211184,-0.014586412216577619,-0.06906257381993301,-0.1255878552993633
0.682,-0.017128558484780287,-0.03084178099730637,-0.014163370839410088,0.025325772913245892,-0.0022430914469442204,-0.024524555146563903,0.04540666574815964,0.04664036230333231,-0.06337457289333034,-0.016134335410534058,-0.06648653943568708,-0.12474340684274282
0.684,-0.01154143816096008,-0.038531226600056485,-0.027390994360634267,0.026939207809577582,0.007084032671076729,-0.03489524169638056,0.05280161848975015,0.04983900011836457,-0.060391747658997956,-0.013475245999301668,-0.058733777297241135,-0.1185676606911752
0.686,-0.015174609663745977,-0.03855630047482773,-0.023509806834842478,0.02834158720645433,0.0035697541479367432,-0.032276885064478955,0.0617545104981476,0.05517449797354917,-0.05333176262221661,-0.004735236104341884,-0.04989466426190987,-0.11015964712113765
0.688,-0.02272274217887662,-0.029142589932126848,-0.006453837000977538,0.02640886371913083,-0.008393631663992401,-0.018298879752917524,0.06690638242318957,0.05934412702279118,-0.04599210072421031,0.005321328528971735,-0.044123003342976204,-0.10284608311792764
0.69,-0.029180197310630686,-0.01807018191224969,0.011008603982996246,0.023367596556656066,-0.02045440634612115,-0.004110661548799799,0.06531479833328231,0.06163818208841276,-0.04157872263295628,0.011214071259784228,-0.04273336229290759,-0.09795082075895441
0.692,-0.03430116871627607,-0.014514217525542343,0.019688219622870352,0.02417371580178059,-0.027846441574438694,0.0011946875653129525,0.06127273816734455,0.06338600369086796,-0.03981082439361629,0.013032943740364678,-0.04352501951987911,-0.09537456146629311
0.694,-0.03715333688377117,-0.01584864861100267,0.02132469553940364,0.026935601999507935,-0.03047288757775819,0.0007569176043422297,0.060796056987158405,0.06612195149971822,-0.03852715673752561,0.014311999006666456,-0.04366551912298967,-0.09443614006853052
0.696,-0.03568603566838263,-0.014521229650836041,0.02135352183059895,0.026391777210316002,-0.029779999671202054,0.001639371799211118,0.06396577511538606,0.07088948582083458,-0.03571158014835353,0.017361853530502114,-0.04259935325336899,-0.0937723201359341
0.698,-0.02984653975111349,-0.01100651659552946,0.019198626608183583,0.02214855948021623,-0.025556751564147974,0.0031263867967121777,0.06708211756228137,0.07797526853145917,-0.030511677759931837,0.022573233795504487,-0.041039451567402206,-0.09240158668949075
0.7,-0.02108097524427365,-0.01074115449031113,0.010746340295352808,0.017268397099336794,-0.016585111854440088,-0.0001578294326379552,0.06819072058002056,0.08548103093331064,-0.025148138393191154,0.02860673034370843,-0.03939437199685886,-0.09156611279314261
0.702,-0.01234619893052221,-0.01515386355732646,-0.002577062848427958,0.0143947014750784,-0.005128736930734996,-0.008890238355670937,0.06748031040765588,0.08994703788321917,-0.023194310626991215,0.03294657935580455,-0.03766724184134485,-0.092664503464655
0.704,-0.008810915506453661,-0.02014455150322121,-0.011340632013289283,0.014899524436458004,0.0012512257846489549,-0.016457433797049635,0.06577911850064763,0.09026378606118161,-0.024255398456169214,0.03498847583909398,-0.03513231367148559,-0.09321644737893667
0.706,-0.011759976329160718,-0.018273529526426507,-0.006537936097046987,0.015700528650403105,-0.0029182954472854786,-0.014003562036698574,0.06469292105412545,0.08959926418335105,-0.02348377609737731,0.03752201370474446,-0.030748871605037788,-0.08867329923711807
0.708,-0.013887326598517487,-0.003852478698507197,0.010197216974070965,0.009700227962378655,-0.012966444729503273,0.0011286754698888483,0.06579434548814839,0.09199836016147875,-0.017085001598743824,0.043350880323553886,-0.025017707348321896,-0.07889560718350312
0.71,-0.0074840266579100255,0.018947585905545412,0.02670128358603051,-0.004869608094397688,-0.018172385001150593,0.020764192937003295,0.06890736492413431,0.09812049587331306,-0.0059552186585095195,0.05281534922246789,-0.019981386916682616,-0.06959894972786297
0.712,0.006198488166156889,0.03717548904091209,0.031210183846265723,-0.02055491138355682,-0.012965197305153327,0.03224370534083567,0.072638095762265,0.10563361211561781,0.006238556651226997,0.06505380264649258,-0.01664597459227029,-0.06574309954368696
0.714,0.018760219138404647,0.041398844663350046,0.02289052790762891,-0.02867656664071911,-0.0019648416718089584,0.03025024159007273,0.07512597139909728,0.11213761219689428,0.016217448821893604,0.07712914978346566,-0.014665652955828105,-0.06577832561811177
0.716,0.024329559987545383,0.03350014819675466,0.009475030451187036,-0.027783104896192568,0.007161914013915219,0.01972562576785513,0.074354042209257,0.1168310134227338,0.022489465112842957,0.08343706447311423,-0.013924362732962287,-0.06459862302160486
0.718,0.026632113510502604,0.02394921023238883,-0.0025443610496319723,-0.024905686996477126,0.01351401701412783,0.00952918947430162,0.07107168877048055,0.12171487273678361,0.026666019848853886,0.08257820052062755,-0.012705598992500905,-0.05965427037279987
0.72,0.032783366613089705,0.02426483895953678,-0.008691817789870281,-0.02864550370032516,0.019543503645116395,0.007577549633808824,0.07004837887076486,0.13061401043754253,0.03309060962341013,0.08251084023780225,-0.006422298192059795,-0.05166153507983319
0.722,0.0423601217919491,0.03848132613244634,-0.0040922147812604915,-0.040248226435948345,0.022647792032900637,0.017595229679646118,0.07510446412617602,0.144138408949964,0.04426434346697315,0.09274084051572001,0.006935032436188286,-0.04206461798115488
0.724,0.04753431044770722,0.05757890555854478,0.010113345865241654,-0.05150567785773624,0.018524137978290327,0.03405595975201518,0.08313176087564554,0.1564013867177674,0.05662822445929399,0.11175241903909715,0.021189419634616943,-0.03304084358084988
0.726,0.04055318446338827,0.06404112632224165,0.023684598203581417,-0.05053027272970356,0.008008284392432147,0.043391138416712965,0.08484959684889569,0.1594466171254463,0.06284789175241455,0.12581883792728127,0.02617253270360358,-0.028749780078807224
0.728,0.022221828245472752,0.050008003684216734,0.02774166311075845,-0.03417207211436293,-0.0036385434984591604,0.03776716285999311,0.07505078096457742,0.1526896503665733,0.060585635630832184,0.12443453610585084,0.01968033285542156,-0.03164114322550585
0.73,0.006476917549743925,0.03193758009244404,0.025185866228302656,-0.017366574184416755,-0.010583405820365712,0.027152106072176368,0.061643345427665544,0.14618154203073655,0.057859299771179415,0.11557925916619229,0.01239216127768325,-0.03629097282387886
0.732,0.008305214166434465,0.03440964635942604,0.025921010150680497,-0.0197600892248486,-0.010311789600382886,0.028666751679188824,0.05758413623205723,0.15026401518088703,0.06434451657888286,0.11710147709761935,0.016214970360279014,-0.033015731078716685
0.734,0.02454500778724102,0.057184407333732236,0.03268799505649578,-0.03985910409816707,-0.005912255148484072,0.04319768866759963,0.06486113821423377,0.16386883755022072,0.0792035006984194,0.13411653656830363,0.030430362041394914,-0.01918361895626788
0.736,0.03905186709040447,0.07579586260072806,0.03687149717035609,-0.057166349147409215,-0.0012425249361317614,0.05418331766078156,0.07463349528121745,0.1775587951313325,0.09379574636449307,0.15528576494651694,0.04501684889461592,-0.001614374368936015
0.738,0.04524385876152955,0.0763843598397549,0.031177986716434045,-0.0607432651317464,0.004317590742472521,0.05157136699506429,0.08071722819165447,0.18517926896364084,0.10284912762288285,0.16902941248948225,0.053990508659617104,0.011852713577626172
0.74,0.0490130144673764,0.07023185209517617,0.02116767568777747,-0.05886965497190544,0.011425251675687616,0.04406437720096583,0.08403635580405418,0.1881439727479089,0.10781374919511215,0.17385526236598098,0.059097508070023556,0.018973439191696813
0.742,0.056133470109498845,0.07236406479405205,0.016185471232642523,-0.06262692603426277,0.018281197271711635,0.04317368961695881,0.08583886403594049,0.1902092530310205,0.11244558348246242,0.17521646473686464,0.0636575044371165,0.02230859646896364
0.744,0.06625544000167213,0.08235997575315318,0.01611075510063622,-0.07244540501484736,0.024093544536309713,0.04784722475400835,0.08594810886051153,0.19301694485543341,0.11900055812803764,0.17972340453258234,0.06935132156334149,0.026234656377426564
0.746,0.07000653587431273,0.08976476198285002,0.019785799951670586,-0.07821434757183719,0.024227563093072568,0.05269815664203489,0.08655229922658049,0.19694518423677151,0.12786063588194005,0.19087321305385402,0.07723336883532193,0.03466962884082313
0.748,0.056264568772184005,0.08884073283451926,0.03258595239300187,-0.07077161677348635,0.010638088138401404,0.058565296765325445,0.08886327869499488,0.2009393690361416,0.13714136573867594,0.2050740427309948,0.08612518177838656,0.04625635715950511
0.75,0.03137275348977592,0.08240991167069298,0.05102679282086417,-0.0546805553277369,-0.011301443347169659,0.06525986336485358,0.08867600380525217,0.201718609266499,0.14267101551175368,0.2141088567519559,0.09137440093329238,0.05301057499307237
0.752,0.01611352804515277,0.07653114482508266,0.060407324889617135,-0.043940571080156886,-0.023844015255229903,0.06781620158775856,0.08330127772893754,0.1985091524462791,0.1432542054894042,0.2160533506548688,0.09065815330503414,0.05119810604440067
0.754,0.01964101049337204,0.0781277003084731,0.05848742987794353,-0.046850826618990156,-0.021528437399484818,0.06796520625270615,0.07868563612108477,0.19702049446907335,0.14526496248381546,0.2197214459932686,0.08965777392409546,0.050257243509727316
0.756,0.03286956792080108,0.0922323350692334,0.059368736846590726,-0.061105747204916995,-0.015663990130883897,0.07498316300631555,0.0825378541076759,0.20384601996132753,0.15589076496044652,0.2329137326122287,0.09576350282009925,0.06183611693116627
0.758,0.04434135900752772,0.11323221327716436,0.06889330181909195,-0.07777104282243191,-0.014261921315576753,0.08943428629193638,0.09331833034619266,0.21745300552860558,0.17236691513495817,0.25058418381802133,0.10693016776789817,0.0827135840148807
0.76,0.04962172275376832,0.12445759340443777,0.07483378196018423,-0.0861764221839165,-0.013456226092214507,0.09787245071219122,0.10075637783028082,0.22795280987767952,0.18328396031356115,0.26070711130660723,0.11329685999020897,0.09674936648616576
0.762,0.05002072980903214,0.11595114447160516,0.06592808131969327,-0.0820633457862396,-0.007794687792895265,0.08979112061098246,0.09678514541770454,0.2268265170976639,0.18100632157552005,0.2581841988811677,0.1097973438008689,0.09346710179060362
0.764,0.0507960555236293,0.09980055362724102,0.049004523419731195,-0.07414151883129314,0.0013029327105733414,0.07367674479540494,0.08459652588720534,0.21622147877920522,0.17057326913653115,0.24880671063307752,0.10256661425125604,0.0803488746287561
0.766,0.05822837938875009,0.09806214381714451,0.03983504987891443,-0.07674557131981206,0.009143571005286967,0.06808171439477496,0.07518909384211377,0.2071861890513286,0.1647980037350208,0.24389971084591502,0.10211181718073632,0.07497092222337126
0.768,0.0717330462184978,0.11438346637170038,0.042629080717804024,-0.09171097593944234,0.013633377968857522,0.07743578749939807,0.07445288397779551,0.20771060330814886,0.16999248258895158,0.2518905681340322,0.11168577920187936,0.08509739371687218
0.77,0.08085869671099447,0.13069818259467597,0.04970775529923239,-0.10490046140422044,0.013755132105704476,0.08893113305763733,0.0794728688434066,0.2161343231676835,0.1813584752027254,0.27107739344013126,0.12550397215298031,0.10180062096845828
0.772,0.07718509263306805,0.13638256099745563,0.05886952362913045,-0.10639134957430613,0.006999047695308855,0.0958427752401075,0.08744098474396769,0.22730339518984014,0.19353222385711508,0.2915208584672207,0.13773422783392364,0.11487094708249004
0.774,0.06425181645742271,0.14033283602761512,0.07563645001823759,-0.10171350348605371,-0.007257674878949518,0.10560494974173815,0.09695119922755302,0.2372260838983962,0.20541478453497328,0.30372455634767803,0.14581024554482763,0.12372187162320517
0.776,0.04984433532269631,0.14809520437857782,0.09786428768715637,-0.09760013253288007,-0.02463326072046628,0.12038786838003393,0.10253981685325482,0.24152432078543,0.21375537035270173,0.3042842703444994,0.14700425660774377,0.12884288515487127
0.778,0.03795372793418657,0.15026915284818768,0.11201382418926593,-0.09222521432444851,-0.03735416594465365,0.12872192463077003,0.10061697932270224,0.23869118988573848,0.21354913068393216,0.2968322325093503,0.14106791793095286,0.126799243776733
0.78,0.030977854050448922,0.13877758390890813,0.10754477995864671,-0.08305515056137254,-0.03903934410962705,0.12115061672342477,0.09700258229594563,0.23418138277055883,0.20573693851388833,0.2891896318433346,0.13312005764452634,0.118333261433255
0.782,0.029429655677450293,0.11993159180385748,0.0904408092215657,-0.07304577706235003,-0.03162917701184474,0.10400369544948519,0.09981841852847433,0.235045077195955,0.19764612839806378,0.2876771567406103,0.12859921580897976,0.11103930236141203
0.784,0.031011039016390695,0.11095120346935079,0.0802471149834639,-0.06956389859859068,-0.025501397485984446,0.09559783180706613,0.1091340025311713,0.24146008134395655,0.19465376322398295,0.2922517865976335,0.12823304752228962,0.11039902594543773
0.786,0.03440614775644004,0.12485692552906817,0.09096281974476679,-0.07872492793319019,-0.028525971294861785,0.10866573330980032,0.11815872970249477,0.2468771772424883,0.19448915725288293,0.2965529327371154,0.12845144313961054,0.11289805149049922
0.788,0.037483402071030236,0.15341352120265284,0.11624674889064826,-0.09514497883543246,-0.039152059466267715,0.13527169788579418,0.12251864194860748,0.246990037738462,0.19256789413353304,0.29465238264332133,0.12600895638484488,0.11156090441989606
0.79,0.03365739628277638,0.1707831290651819,0.13708351978450253,-0.1019789953320923,-0.05140474089910831,0.15325793428945486,0.12533008582840954,0.2453641570185529,0.18930567987970373,0.2873689957389854,0.12212541646318804,0.10586443984277512
0.792,0.019430854198636455,0.16084946309373097,0.1412316861543149,-0.08914215854677837,-0.060731634326180464,0.1491927779579589,0.13116401400987843,0.24701633471626264,0.18660450046445146,0.27947175115172396,0.1192158699004369,0.10088475226673835
0.794,0.003496164284145752,0.13453700964514786,0.1309885831602343,-0.06711683629286633,-0.06388356956227945,0.1302383903494142,0.13801019877841275,0.25028979515863137,0.18197424232695564,0.272795706140816,0.11556083238849794,0.09842034988503184
0.796,-0.00024191845732529513,0.11443037795061274,0.11486679417459364,-0.05514825556607803,-0.058311751357009674,0.11222214187423764,0.14067728012962102,0.2499004707017716,0.17232417227214356,0.2645528086053292,0.10786213526502701,0.09508776567890008
0.798,0.010088576676790731,0.10757787452073438,0.09790921283462742,-0.057624840549674025,-0.04539980269473416,0.10114608010198732,0.13829952936962123,0.2434415463675262,0.15819745584638528,0.2507088379489523,0.0953493206303598,0.08798381287956415
0.8,0.020496393618559,0.10111935824416021,0.08117651199359202,-0.060129635259886044,-0.0322793172198931,0.09044634739154907,0.1322063043993154,0.2307307305856237,0.1401055070083847,0.2303675060439089,0.07797644320323403,0.07674612614264126
0.802,0.017567077161313144,0.08396811762518963,0.06694547478204085,-0.050055038989644036,-0.026807115189028733,0.07482079453324329,0.12281977805009088,0.2130309526189169,0.11776363102357663,0.20826491138813746,0.05662123789964958,0.06189033386958617
0.804,0.003506906787050744,0.06279854953962817,0.059670378856560596,-0.03229069670046598,-0.030297655362294187,0.05991689234444033,0.11362789120672338,0.19581284421528455,0.09521882241579592,0.19125744914475068,0.036784402549468555,0.04572412089372126
0.806,-0.00938059264371053,0.05023210471453019,0.059734754728073075,-0.019583145983133328,-0.03657615006606095,0.05341586287897211,0.1098092305588276,0.18552454101044144,0.07874707906661468,0.18017722545638434,0.02440019569318649,0.03200670853001141
0.808,-0.013432949758010187,0.047192866523731884,0.060552731243696395,-0.0162478631573699,-0.0381452648699644,0.05306362315640687,0.11114455432136132,0.18240058076460713,0.06904821460826283,0.1695372238849196,0.017946949760571915,0.022555190689694218
0.81,-0.008636114429439715,0.04726069197957464,0.05579796904405299,-0.018985289030997363,-0.032182982128613875,0.051483254375407767,0.11360254808268623,0.18122285574138966,0.061313604755488256,0.1570759657614198,0.011471326506434438,0.016943578509784927
0.812,0.0006463617998882939,0.04770195920027408,0.04704057241377963,-0.02396650236132824,-0.022697362769266954,0.04693450639999875,0.11504236764796456,0.17777284922026867,0.05126165883635308,0.14552133791860108,0.0025436492839983,0.013877080519404929
0.814,0.00515892162124968,0.04719931491542385,0.042084302146514915,-0.02593524349050116,-0.01855642910514185,0.04311583266162998,0.11404857256176597,0.17111659752502514,0.03772423159743605,0.13420573695540633,-0.008066088160915155,0.010742579935763304
0.816,-0.0016637908446221613,0.044193174746460534,0.04588617490872022,-0.021237849277437916,-0.02450973338112886,0.0432480363770082,0.10889312568937935,0.16209957520100612,0.02211827197930915,0.1196920364882026,-0.01953850467569229,0.005419330300346904
0.818,-0.012735316638321588,0.04053298577426777,0.05325868142869241,-0.014278280151742925,-0.03350821652871623,0.046059877213106525,0.10137142869210233,0.15266780295096985,0.007577030289580268,0.1044582941565626,-0.03000396252477877,0.00014596056503885923
0.82,-0.017090111080808556,0.0371104311136758,0.05418013837416822,-0.010280507285603152,-0.03550372041567392,0.04562993063962002,0.09616074963940656,0.14490811226489847,-0.004068064813660891,0.0935971003031231,-0.037588591114936884,-0.0005799420522069803
0.822,-0.017252119276760174,0.02951039401625658,0.046779952803967184,-0.005437055214216428,-0.031711386741295707,0.03764875609691752,0.09451182058034509,0.13883799133169378,-0.015540900474976747,0.08414599567707196,-0.043774443201590935,0.0024266008562406436
0.824,-0.02278222058588328,0.014418423056018537,0.037340926000172865,0.006011426122217828,-0.030094011506390312,0.024211393140848893,0.09278714308957768,0.13199278317137508,-0.03136602715478228,0.0683957572411557,-0.05140421290221956,0.0027501218912207486
0.826,-0.03397720224980536,-0.004969901610849471,0.029319512872528066,0.021626291421363956,-0.031943499183533855,0.010039125381612288,0.08759710230834782,0.12178047800177517,-0.05135017085333448,0.04690869049629032,-0.060388743131392225,-0.0026847790596153686
0.828,-0.04456918563879502,-0.022372868065039502,0.022485930060469665,0.03493736642830545,-0.03373331990609323,-0.0014124833541471833,0.07901801044974244,0.10793176170182198,-0.06990145059114748,0.029069433153675106,-0.06904853095502023,-0.010550791440577002
0.83,-0.05142695139339837,-0.033891083524779,0.017459515130372735,0.0432485746408459,-0.03461189736269769,-0.008666592538434936,0.06882461084067547,0.0924110728743771,-0.08255249819122137,0.019274184281702064,-0.07800047978622598,-0.018162412563368088
0.832,-0.05333658685618648,-0.0400051322126993,0.012881954199099278,0.047129072729837615,-0.03386219904725191,-0.013648278709782585,0.0595772415515375,0.07824674463621094,-0.08973437518241881,0.011781710315075954,-0.08807922342387957,-0.0260495705078557
0.834,-0.04925589966808162,-0.0432587063660917,0.005597714173589254,0.0473600670306181,-0.02931301497428339,-0.019319479331206604,0.05588017147015122,0.06984717360981296,-0.09299348812621122,0.0036625476842727187,-0.095345200878134,-0.031779600352099736
0.836,-0.042121439718576396,-0.045218876864398655,-0.0031334251379747085,0.045496512680278094,-0.022321353630587612,-0.024926587058029692,0.060306042913944494,0.07026616511378561,-0.09322672693071873,0.00036718394137508957,-0.09526462071257964,-0.030665560418253718
0.838,-0.038173135365741025,-0.04668567893185713,-0.00832088868814998,0.04448972573087668,-0.017827944704192446,-0.02773352777979239,0.06704745718911435,0.07528489203605675,-0.09416369703197924,0.0022742512017923412,-0.09143474538566275,-0.025290117180016378
0.84,-0.03984811465864109,-0.047806744270315345,-0.007839973526650714,0.04561251330460501,-0.018128075522575046,-0.02737213752137325,0.0676579040649063,0.07687946900935053,-0.09952191755917864,0.0016572489231294492,-0.09152374756644102,-0.02348854869381354
0.842,-0.042184671428509124,-0.04706983979545856,-0.004929456022943632,0.04611973158907147,-0.019849744490993082,-0.025764836816471293,0.06325032606689644,0.07406043827594946,-0.10622080714545622,-0.0027986882889816486,-0.09612967443683268,-0.02555288514947313
0.844,-0.03955438375767097,-0.043333795505579364,-0.003886994118572314,0.04293350528721078,-0.01879577334298808,-0.024531561596974113,0.061809971041269424,0.07196652352263845,-0.10874396525564775,-0.005357289280835899,-0.09987256453644586,-0.02446913928391009
0.846,-0.03589038609862419,-0.03824900642625656,-0.002507059438818576,0.03837679142045041,-0.018043409578643733,-0.02229919096515661,0.0645923428316301,0.07152680177470726,-0.10840827104764056,-0.006417847762215098,-0.1006970723215673,-0.018186417046505022
0.848,-0.04328036146935039,-0.036988982459072006,0.006002348635059877,0.04064776216208866,-0.026456928023515278,-0.01746045935520837,0.0642773562714946,0.06819307298448178,-0.11157253208526413,-0.011539077538239809,-0.10213596401178877,-0.013023246960394821
0.85,-0.06616837916220407,-0.04768742240132696,0.018086023475339733,0.05660116002740454,-0.04423073198769887,-0.01638583536515057,0.05549342823875814,0.05893512813353477,-0.12142894487556513,-0.020879189668847036,-0.10818349629137561,-0.015360351994022442
0.852,-0.09084821911114502,-0.073146446463329,0.01743851885885913,0.08176232649045938,-0.05646763205775986,-0.029387903010432127,0.04109053504858823,0.04596034027592363,-0.1350742480214131,-0.029438978940719812,-0.11804864508546742,-0.024027701812038716
0.854,-0.09819351476879448,-0.100596461646989,-0.002396051060032307,0.10026437460713268,-0.05012846993511762,-0.05295326636396043,0.029082306015067224,0.035444180901206074,-0.1459351592835683,-0.03387002180855913,-0.12558925241129162,-0.031528248291777944
0.856,-0.08595416172156284,-0.10947996808705754,-0.0233847694996556,0.0997200121875516,-0.032842596236420274,-0.06722835580195136,0.026325637037041206,0.03365095649963596,-0.14767836196883746,-0.03314881532913975,-0.12436925369587312,-0.03131375123382272
0.858,-0.07105094993693091,-0.09449523868862053,-0.02337310008041086,0.08516767943207798,-0.024611149247811933,-0.059133075033804335,0.03279614637579921,0.041175453737898035,-0.139498729823844,-0.02680757823710688,-0.11448152552154688,-0.023428088930789435
0.86,-0.06857210297565602,-0.07351211676676841,-0.004979738243292134,0.07330121745148946,-0.032248107496382676,-0.03994361886016927,0.039925646913271856,0.04991458446281172,-0.12957000408383895,-0.01850733220954383,-0.10441118284325013,-0.014536804992625591
0.862,-0.07491507939042047,-0.0650257488541528,0.009831620781125424,0.07191019150602118,-0.04294047269941817,-0.02957003556183464,0.0390016494363978,0.05021141765712986,-0.12781135295555468,-0.0167070833356616,-0.10302899446397867,-0.011429729250153117
0.864,-0.07663159682053045,-0.0656063528974452,0.011040909978206257,0.07237626235046654,-0.04470857265927514,-0.029857475850461744,0.032064093205904115,0.04201948116303308,-0.13416136046863858,-0.02521610624127608,-0.10973931845255712,-0.014000911005737577
0.866,-0.06987673172794391,-0.061717303596382875,0.00829715054206313,0.06606120889398934,-0.04038903022240495,-0.028624214119106282,0.02791297492024097,0.03343600643846086,-0.14108859772586874,-0.037011898825420275,-0.11719554687028647,-0.017218559779456577
0.868,-0.06092646448810495,-0.05368186775622582,0.0074357214191606395,0.05704087487182428,-0.03606463643321708,-0.024175934151663206,0.02886600431784601,0.02924425524571995,-0.14522165173822235,-0.042237039402621704,-0.12166282726022988,-0.018439821822819683
0.87,-0.053591745622370145,-0.052589255438409005,0.0009590116656028714,0.053406884919391336,-0.02977681773105567,-0.026868740414970442,0.028717505499017366,0.026863116611303833,-0.1489463751763941,-0.03984081754434568,-0.1251658434558762,-0.019503467004480555
0.872,-0.04750306069267358,-0.061843820509304,-0.014848002814298386,0.056300785362358205,-0.019026901901440463,-0.03992029446523508,0.022302442743936546,0.022554786431590118,-0.1539427922435946,-0.03740854439133087,-0.1297868859807366,-0.022281024387381148
0.874,-0.04374297144646421,-0.07418765133826861,-0.03115058340426764,0.061580778347954813,-0.008429106320725455,-0.05439364154257449,0.01279688768589418,0.017896375844152813,-0.1581991906145811,-0.03968463997968485,-0.13387595360134746,-0.0240154104700804
0.876,-0.045719979366955626,-0.08180198521780445,-0.03645170299485704,0.06645450391778517,-0.005822103208894219,-0.06053687580710247,0.008919566361214302,0.01848708679085928,-0.15814622771699555,-0.041934938395490645,-0.13335832958566474,-0.019162322659694753
0.878,-0.0559446681815504,-0.08317178337852846,-0.027136813385880386,0.07181346217551447,-0.01489769966740179,-0.05639838141814188,0.014471798449720926,0.025712868837317483,-0.1532081878018825,-0.037920500821397654,-0.12713119943023707,-0.007056240525410139
0.88,-0.07157255191572702,-0.08390585336542768,-0.012210826675760487,0.07959749960924914,-0.029880781436545444,-0.04952209308134742,0.022731962359021897,0.032642883896106666,-0.14831853117088675,-0.030812033993009705,-0.12128876300632069,0.004818816314223019
0.882,-0.08437982168097102,-0.0909147103345752,-0.006791625041552388,0.0890814386407106,-0.039036748615446544,-0.05043100755599645,0.024928322553208117,0.031793607691948736,-0.1488594759369317,-0.02984211509762435,-0.12296842061761361,0.008609575947442724
0.884,-0.08711366722430812,-0.1013155913744331,-0.014725526478316434,0.09497887736711565,-0.03681484797793337,-0.05932681431849069,0.02171484644368712,0.02481927205536285,-0.15317784158562048,-0.03666624041440026,-0.12943686356838024,0.005337224408268228
0.886,-0.07809010295858992,-0.10295887068883487,-0.025233184936165293,0.09070754898094378,-0.027607439732011827,-0.06516723620231986,0.020475865669856902,0.0196459922038607,-0.1550167310602373,-0.04205998197488386,-0.1313971088947142,0.0023763640545310222
0.888,-0.0627981288279172,-0.09344891174534439,-0.03072143015203155,0.07843717331444122,-0.017714704325556718,-0.06330578190587488,0.02329885653097055,0.019709168882045876,-0.15288133625079445,-0.03846640058490571,-0.12694119705054388,0.003694482630163053
0.89,-0.05448378337636732,-0.08783199165071323,-0.03334500732321179,0.07238884155485045,-0.012483821994606358,-0.062135903277747685,0.024468260984316457,0.021058679625925815,-0.1516366782823777,-0.030472293946626688,-0.12343678337431127,0.006763547393748492
0.892,-0.06293471126979568,-0.09445122222881791,-0.031530038304222366,0.0808090095169438,-0.017486251687529566,-0.06475392742757743,0.01979082125795456,0.019558086109907377,-0.1543718235685737,-0.02795798301837033,-0.12591617187245277,0.00851238919179586
0.894,-0.07779715856787614,-0.0975258427838177,-0.01962811479887127,0.0898089974672897,-0.030653321261485487,-0.06029360692993329,0.012492961375996056,0.016649979172807205,-0.15751753494889734,-0.032451476298612045,-0.13056351369842795,0.010681061160938289
0.896,-0.0787361749343523,-0.08279088624024383,-0.003849700133462884,0.08241341884288374,-0.03913471115815335,-0.04459150760259068,0.008006788830685894,0.016009154754364822,-0.15696278690718385,-0.037467128635535064,-0.1310139835487997,0.016727996805559274
0.898,-0.06586988939447039,-0.06473257308741952,0.0012569412060826376,0.0668361889646391,-0.035513963253862336,-0.03249982148533948,0.007274273722952655,0.01772205875343628,-0.15441408286503905,-0.03859007901686211,-0.12647416534714284,0.026079400347774402
0.9,-0.061484692952844235,-0.0671626085904431,-0.005719300739142527,0.066099205867655,-0.029694702805868747,-0.03735991557742945,0.007647639040114652,0.019509191302051174,-0.1536694135132666,-0.03531153468781155,-0.12117785100990683,0.03512892391897193
0.902,-0.07764830916445271,-0.09074855677690906,-0.013189646662534,0.08570937548474418,-0.03354685261054956,-0.053538685704175054,0.006766913273580543,0.020889394116869957,-0.15587179610582114,-0.028207046415430276,-0.11929782325506161,0.04087117724795267
0.904,-0.09789564796685363,-0.11487402809724614,-0.017001603617403473,0.10699515890108945,-0.041386569953320206,-0.06749684242036409,0.0034750369312005506,0.02219650057739949,-0.16117038927419763,-0.021584083012294617,-0.12249694908444968,0.041339682885590416
0.906,-0.09722226803503782,-0.11935615269698287,-0.022096684367378557,0.10839188607615201,-0.03851955284981132,-0.07128196133944763,-0.001697535235836403,0.022501517710676013,-0.16851403150397642,-0.022616552312483884,-0.12923440710267575,0.03708866678258196
0.908,-0.07171262982628976,-0.09902221379402755,-0.027300845007936506,0.08610064002597856,-0.023594370797918988,-0.06282417738883464,-0.0048560239869399665,0.02265089996895015,-0.1718458879601953,-0.03039251088651327,-0.13399486662020385,0.033849444994062
0.91,-0.03947539727104415,-0.06730689951787003,-0.027968317860996118,0.05520940526627218,-0.007765167563574252,-0.04752052662726359,-0.0007218828881452398,0.026909649451493396,-0.1638474848778407,-0.031732559209130574,-0.13010889658658856,0.0392689324669263
0.912,-0.015547298670908219,-0.04334921596232402,-0.02814868456375028,0.03162258082117701,0.0038988127173314796,-0.03662446520831796,0.010840378518599684,0.037113548732802155,-0.14621894092516668,-0.01675037359597549,-0.11706895776381673,0.05469004540438926
0.914,-0.0008672659917338494,-0.032015362070711706,-0.03157695358822005,0.01806807893657664,0.013124363818287665,-0.033201650339948874,0.022548731149850256,0.04865346172041536,-0.13003857230100901,0.005716676369621275,-0.10290018040969806,0.07249958482958849
0.916,0.00547260341941151,-0.02517540408020093,-0.030895982714712854,0.010737830496361452,0.016660818614918364,-0.028840709541792377,0.026931368588714956,0.055865782512041856,-0.12371676228976397,0.01743810965462172,-0.09573445692901102,0.0836887823823825
0.918,0.0054341124701249854,-0.016800119339606106,-0.022223473119919693,0.006287558307078802,0.01295708958361217,-0.019349556339040362,0.024038929539747494,0.05816658349381917,-0.1255177943997218,0.012826220375763298,-0.09561601587258907,0.08661627724074909
0.92,0.009859015263309985,-0.005588692392760551,-0.015433999407378739,-0.0011617370016548702,0.011600712610467698,-0.010340993607460403,0.019306241748046255,0.05842756345329767,-0.12895736414396294,0.002769839625053278,-0.0975097234356698,0.08657427652600984
0.922,0.024624003355439822,0.007028320081612281,-0.017864088960613655,-0.01418362499626949,0.01938938914603511,-0.006450258758044292,0.016467917973695012,0.058369872925102276,-0.13062774976932323,-0.0018738750963926882,-0.09861137300089903,0.08828315617210154
0.924,0.040276420246680315,0.016761632366983876,-0.02396316900652576,-0.02643367611752454,0.02995544483921413,-0.0058432592362838,0.015995578368929377,0.05849543026378561,-0.13046944396313695,-0.0005848010896352014,-0.0990143190787113,0.09204830766268766
0.926,0.04909506254055703,0.021930587060344457,-0.027343582799969703,-0.03329077636019409,0.036745847466617236,-0.005045759228407686,0.01806528226093301,0.06079559054030662,-0.127989072573992,0.0032833629596218795,-0.09801532987943812,0.09716932910048386
0.928,0.05431337147937246,0.02420751345324136,-0.02975332772026415,-0.036977991795564116,0.04153063458677919,-0.004571494513313588,0.023471860384351402,0.06763135548475464,-0.12214312703130886,0.008731266375558436,-0.09421962102326728,0.10418280486033703
0.93,0.05846036092594088,0.02379179884090007,-0.0340486892849322,-0.03896995665327187,0.0460586694309137,-0.006973862575553552,0.03168995584608117,0.07745016918411392,-0.11420244589178959,0.014611900913882302,-0.08885233120927456,0.11219722506010962
