time,I,II,III,aVR,aVL,aVF,V1,V2,V3,V4,V5,V6
0.0,-0.0014918942068155637,-0.0030057280343195915,-0.0014918942068155637,0.0022378413102233452,0.0,-0.0022378413102233452,0.00278633182743495,0.00021939620688464173,-0.004058829827365872,-0.0077008068616509235,0.0014918942068155637,-0.008556452068501027
0.002,-0.010421366257203237,-0.020995987900541815,-0.010421366257203237,0.015632049385804852,0.0,-0.015632049385804852,0.019463434039188397,0.0015325538613534173,-0.02835224643503822,-0.05379264053350494,0.010421366257203237,-0.05976960059278327
0.004,-0.0326858623335659,-0.06585239911321365,-0.0326858623335659,0.04902879350034885,0.0,-0.04902879350034885,0.06104565465239514,0.004806744460818515,-0.08892477252514253,-0.16871673057472986,0.0326858623335659,-0.1874630339719221
0.006,-0.061423017047282966,-0.12374931375702597,-0.061423017047282966,0.09213452557092446,0.0,-0.09213452557092446,0.11471651713242553,0.009032796624600437,-0.16710673755510808,-0.3170511615234753,0.061423017047282966,-0.352279068359417
0.008,-0.07923857511414888,-0.15875838573458828,-0.07838292990729877,0.11841907025745402,-0.00043879241376928345,-0.1180022174643732,0.14706048429285484,0.011697901441733436,-0.2142940032756318,-0.40654848058782195,0.07879978270037959,-0.4517424736071573
0.01,-0.08033849134060989,-0.15524112169572826,-0.07392273886756227,0.11722323308132332,-0.003262564308903012,-0.11409198453786717,0.1430336779246947,0.0122074437710335,-0.20890945198493402,-0.3963552541904798,0.07705398741101839,-0.4405479822644462
0.012,-0.07848331752605042,-0.13526698658074032,-0.056255053613070594,0.10639244673023324,-0.011212183603739748,-0.09550768218644,0.12211413664608496,0.013130910313966852,-0.1798611265789036,-0.34223387370672204,0.06713981815686379,-0.3807405341202174
0.014,-0.0873121822542448,-0.1266064342810413,-0.03914208136701376,0.10657386868231275,-0.024143613332175594,-0.08285286056651535,0.10956934313625356,0.01688383575865238,-0.1640724270928771,-0.31624171247322813,0.06284114986212268,-0.35228296018826905
0.016,-0.10404581161032656,-0.13312368992926038,-0.028939015115859796,0.1183509255647003,-0.037535523857452235,-0.08107094237861712,0.10963374132752346,0.02270211946601662,-0.16717759942828195,-0.3301334484073302,0.06597798443305376,-0.36808346111208273
0.018,-0.11700183259966038,-0.14203484200385996,-0.02471686826203373,0.12953326342631827,-0.04616558463303319,-0.08334200533314742,0.11115507354010772,0.027743154912643602,-0.17268985819701974,-0.35016734075395434,0.06981443036458136,-0.3910620053470712
0.02,-0.1205020414796128,-0.1452776894993441,-0.024478613677531125,0.133195190910512,-0.04816295493595939,-0.08488643936787388,0.10662410254280945,0.03004260472957591,-0.17041049308315845,-0.352238069780077,0.06996138777338179,-0.39548907523438015
0.022,-0.11809091203588504,-0.1450251411515607,-0.026884798999839803,0.1320766207954139,-0.04577211730193814,-0.08624128778325899,0.0985709115743328,0.02987649461064938,-0.16476592896250591,-0.3424153735909282,0.06794819302832543,-0.3887007318996851
0.024,-0.1155514024658029,-0.14522638759714654,-0.029807126473426652,0.1309700204611195,-0.042913974081308065,-0.08810217629997212,0.09252585303168935,0.02914572422768008,-0.1628112376884324,-0.3366234489922971,0.06690654242556607,-0.38779258459979865
0.026,-0.1144008224026498,-0.14620378612540222,-0.03190012161739594,0.13083457467174356,-0.0411825962904684,-0.08970839670379753,0.09084766522530327,0.03029738216318834,-0.16426556104883247,-0.33921181068808115,0.0675063618235634,-0.3966820347829614
0.028,-0.11237154242332906,-0.1466131676274034,-0.03421903254128819,0.1299685090571163,-0.03901751849383315,-0.0909531517016478,0.09295122521376196,0.03539112571217044,-0.16398160370475137,-0.34360304940411673,0.06836085427190991,-0.4073965932145116
0.03,-0.10862487007628467,-0.14620705563172742,-0.037518510149481266,0.1278881239240393,-0.03556036145176254,-0.09229815666720241,0.0967026324582006,0.04473296763082015,-0.15927996081926718,-0.3442866776942571,0.06844167470217781,-0.4126026976406222
0.032,-0.10584241707068755,-0.14576063575277337,-0.039899771041038735,0.12630097749701327,-0.033006675883014314,-0.09327898322278198,0.0995777816720328,0.056193080668541236,-0.15215104613803207,-0.34210741594898947,0.06801402460796425,-0.41196370723136666
0.034,-0.10694234855817557,-0.14576804147032157,-0.0388514853448639,0.12686987848666842,-0.03405858180819672,-0.09282011755197173,0.10155349048681618,0.06702050266019047,-0.14535321488717948,-0.3399798090109077,0.06776567114380024,-0.4096247543151508
0.036,-0.11169486243233892,-0.14601868069897347,-0.034346201840084536,0.12936403265623617,-0.03866139998954847,-0.09071519873210457,0.10562661832029063,0.07638590732655857,-0.13878295223703324,-0.33805565849220437,0.06788042188007123,-0.4088628729139756
0.038,-0.11681904752658445,-0.1461357085984782,-0.029313294791218702,0.13197284712475046,-0.04373952840723552,-0.08823450725325419,0.11326015321283,0.08540522839762786,-0.13055122762791802,-0.3345110562849376,0.0680707623900846,-0.40968503453908744
0.04,-0.11880946201325693,-0.14585739045828836,-0.027012172292427198,0.13281634128107245,-0.04589931654330836,-0.08691073576579035,0.12210580137097972,0.09551405059715014,-0.12006284043698212,-0.32870020581654597,0.06809905632988944,-0.41024369447615494
0.042,-0.11638799410236889,-0.1443534944965775,-0.027829422170626856,0.13078270075678955,-0.04427591754580911,-0.08650313095415446,0.1307856215249207,0.1084276183505581,-0.10833451015524681,-0.3213097145995834,0.06800869786670205,-0.4088549654650294
0.044,-0.11012689954527718,-0.13986920057149974,-0.029420146301228814,0.12518420853700324,-0.04028001308065287,-0.0849058829671779,0.14223771848791117,0.1262686328330097,-0.09590937448459477,-0.3129124179670097,0.06795009719749688,-0.4051245994180083
0.046,-0.10108384038329311,-0.13131265926057925,-0.029811326878300716,0.11602994715875399,-0.03539333085062829,-0.08061747581258451,0.15885106739291208,0.14884834824521845,-0.08224551653909278,-0.3044779681262467,0.06797141707154149,-0.40072329217713265
0.048,-0.09091896100050229,-0.1202277386758316,-0.029052806492706165,0.10524952829353432,-0.030478419775356477,-0.07461826921939255,0.1778230766950317,0.17225725517361634,-0.067222352832773,-0.29759803832311055,0.0680135803588964,-0.39811362338985595
0.05,-0.0826459950428888,-0.11038741457066908,-0.02778603661245392,0.09667831997770907,-0.026861510169921214,-0.06933480656077674,0.19482305236870331,0.1928144527593131,-0.051843544406912016,-0.29226648132309097,0.0680220850950565,-0.3972315012771536
0.052,-0.0798351517076323,-0.10515187439120552,-0.025614578578236142,0.09368782725388163,-0.02662197389668469,-0.06618365154087821,0.2089817774104453,0.21084955091119112,-0.037088793105157156,-0.2860830768040292,0.06800313793197017,-0.39540835216223497
0.054,-0.08366542409714303,-0.10487771764837209,-0.02175724736985459,0.09620685772899419,-0.030701546147907148,-0.0645219997816412,0.22153319399078603,0.22902578781650076,-0.022899961364436384,-0.27711467037239035,0.06798944649649825,-0.3917160358257015
0.056,-0.09116792720340945,-0.10662335048044384,-0.01626985457798788,0.10061357121282744,-0.03744906753581446,-0.06266590668388218,0.23296355009524058,0.24865665884178131,-0.008594935590376546,-0.26632760718622245,0.06799324662598577,-0.3888755040301028
0.058,-0.09795004053658375,-0.10656931879082056,-0.009415143488999165,0.1031657305918041,-0.04443767576867559,-0.05912478373430715,0.24400262310547893,0.26893528661256016,0.006154245886743214,-0.256415809676144,0.06800253351162004,-0.3899142814107969
0.06,-0.1023163957899338,-0.10320677465923153,-0.0010593698157993264,0.10314658986822176,-0.05090009753810525,-0.053362239514170046,0.2562981219713303,0.28873834686653876,0.021060701747150204,-0.2491609451273973,0.06800489561759401,-0.3946642088729708
0.062,-0.10574605591322282,-0.098617570359151,0.007918383131293288,0.10266741442655614,-0.057110205801164875,-0.04672545462518055,0.269838444293286,0.3079599111778456,0.03579035633577413,-0.24427821609078929,0.0680009558187521,-0.3998192406094807
0.064,-0.11032270109170549,-0.09636248182970623,0.015294315844821259,0.10416453574618939,-0.06288085336072645,-0.04189687816486326,0.2823278732127326,0.3273811922453905,0.05047659199193995,-0.2400711770495453,0.0679977848987227,-0.4020454052645018
0.066,-0.1170951423630474,-0.09812603341921157,0.019967186482941792,0.108607316528233,-0.06826415928456962,-0.04032265503901563,0.2927787029809178,0.34820377206908293,0.06561207705678994,-0.23471169815646903,0.06799842033372275,-0.40112577026028096
0.068,-0.12593161949040435,-0.10263450318357521,0.023296341785351678,0.1153218031531558,-0.07420599216299242,-0.0408521862941699,0.3034367759584148,0.3711450710862972,0.0811517135990036,-0.22718044219527006,0.06800045429727593,-0.3995270421420914
0.07,-0.13516159096853134,-0.10693495583159217,0.02726276752838392,0.12219176295288886,-0.08101545952801885,-0.04105612614784365,0.3168510732100312,0.3949457903827191,0.09558167832318691,-0.2176715872883966,0.06800107905798054,-0.39918790196699105
0.072,-0.1419876346967469,-0.10886876270134013,0.0318895598086986,0.12670913654867125,-0.08706692286120707,-0.03971760291154514,0.3328026686630984,0.41705537196606945,0.10714336535014847,-0.2071992424616637,0.06800026749657924,-0.3999756447418638
0.074,-0.1443025034799194,-0.10940106957818739,0.034181566712354366,0.12801316056743323,-0.08947679931782158,-0.03863501142759214,0.3492818852322474,0.4369976495196252,0.1166264439481868,-0.19653933804498386,0.06799953890391909,-0.40124991313194364
0.076,-0.1421571163386923,-0.11141648357670456,0.030735787964220947,0.12740518482726768,-0.08645332479008727,-0.04095828812956591,0.3648289196330922,0.4574192874950453,0.12728561607688554,-0.1861192443019438,0.06799963377613598,-0.4035298422247949
0.078,-0.13807358093415978,-0.11539776256959546,0.022982332899126247,0.12670316067406293,-0.08014258988014347,-0.04651035129446785,0.3785448301428474,0.4807299867605979,0.14122264533441561,-0.17701626326950956,0.06800007670230537,-0.4077115615908733
0.08,-0.13547924721909446,-0.1182746215540867,0.017337093773654052,0.12657284673404737,-0.07577786298868248,-0.05076762118090741,0.3898691169151378,0.5061757607066494,0.15729584853288187,-0.17052566626948973,0.06800023649412357,-0.4135009410197669
0.082,-0.1356929475009034,-0.11709578920442044,0.018361850777476596,0.12625064611616318,-0.07647441899899805,-0.04979053866823914,0.40012018893613527,0.5309239357756186,0.1730665272438059,-0.16632862229658407,0.06800007110431054,-0.4197205174413816
0.084,-0.1371168642786953,-0.11225881440415389,0.024257011760982983,0.12477413999735446,-0.08043337150938916,-0.04436251097865221,0.41194450209441935,0.5529128546170504,0.18754913985025579,-0.1625249664295983,0.0679999049029561,-0.42531711706287467
0.086,-0.13773921257961166,-0.10713848379329595,0.02968428671581053,0.12255693918788071,-0.08373399749340664,-0.03882551111395175,0.42561121490257475,0.5722964636818734,0.2015313942534838,-0.15774094821697637,0.06799991577316299,-0.4292050008018317
0.088,-0.13740041142200032,-0.1047789307478656,0.03154343327967145,0.12114377386813749,-0.08458188879407186,-0.03655124831931678,0.4385141995638022,0.590886978662404,0.21619892379844355,-0.1521306569426511,0.06800001166532336,-0.43048907234847844
0.09,-0.13759392014515193,-0.10452840511538093,0.032142708430234604,0.12126475927727978,-0.08492237559568322,-0.036335902019547554,0.4498119763869702,0.6107075490936245,0.23242268914271155,-0.14612666367873375,0.06800005153654615,-0.4297016437725928
0.092,-0.1398445693126196,-0.10315098477014162,0.03632486934818775,0.12217375236589167,-0.0881053303252884,-0.03404919140284293,0.4627493312935562,0.6329017529708648,0.2504901225450359,-0.13915546195410075,0.06800001825063832,-0.4286253024551141
0.094,-0.1443224545116939,-0.09966627159195997,0.04508954406851297,0.12318393137830352,-0.09475469654733705,-0.028302750147344624,0.4805772371385001,0.6572640307489072,0.26916450356088834,-0.13031184646527105,0.06799998059280968,-0.42845854772664604
0.096,-0.1499532133623265,-0.09669464454747864,0.05432417958450583,0.12467960600300114,-0.10212067129236728,-0.022232344826881963,0.5021219150567756,0.682248339000965,0.2861297566008495,-0.11994541924978923,0.0682193769771487,-0.42915865127111713
0.098,-0.15582421608862856,-0.09643185158479736,0.06051678433432391,0.12713687038946223,-0.1079439607378978,-0.01876806405015989,0.5227990329586732,0.705276951637025,0.3003138200910652,-0.10993572100616103,0.0695325552671345,-0.430794001192101
0.1,-0.16153479371174448,-0.09787078780338494,0.06428324041741823,0.13003758967148016,-0.11256691069685976,-0.017213615675576992,0.5384969383660726,0.723201140787769,0.31213070124851444,-0.10230297070265239,0.07280675562641183,-0.43396387368416806
0.102,-0.16599930049258793,-0.09876828063888252,0.0672371680599993,0.1321852222262217,-0.11642379932171183,-0.015787591707345134,0.5477753835414526,0.7338359475456114,0.32144453779141885,-0.09748046830643106,0.07703280119073186,-0.43796551000522926
0.104,-0.16795592519242478,-0.09852860996953963,0.06915118285199161,0.1330388554169586,-0.11865403889216652,-0.014531680668167275,0.5522296078060498,0.7384751698429053,0.3276353750367234,-0.09383699357455576,0.079588199426001,-0.4406899460285781
0.106,-0.16846955521848817,-0.09851860869126008,0.06966749418939677,0.13385956987693418,-0.11952393552383876,-0.014399089657059909,0.5557602973128785,0.7420532217359838,0.33155274853331274,-0.0891509340558568,0.07933146437634606,-0.4418445828634513
0.108,-0.17042036210681838,-0.10046176534385948,0.06954338524458588,0.13665362524304553,-0.12089644090385746,-0.015710586282330984,0.5621298880023751,0.7489214569122244,0.33531670680301917,-0.08302718071646578,0.07787350272230865,-0.4437351505687414
0.11,-0.1743602894097443,-0.10484274124884528,0.06873558486963174,0.14136392075610943,-0.12287393156092606,-0.018433216513019265,0.5721525623248692,0.7585014014337949,0.34010074785099315,-0.07774709318428612,0.07724134797254788,-0.4473109647665131
0.112,-0.17758051081618767,-0.11026182194020887,0.06630337554621107,0.1455050558766485,-0.12328830564417495,-0.022236614926342924,0.583709579434,0.7669556300991348,0.3455896075178678,-0.07573194002898453,0.07770264588965325,-0.45016877480373635
0.114,-0.1784908742957427,-0.11381736205977322,0.06384186051738167,0.1470931664790657,-0.12201012046096951,-0.02526614177098668,0.5946951185612362,0.773069240995733,0.35181539869569345,-0.07612471343579746,0.07826682721756596,-0.44969631656799247
0.116,-0.1792084823420165,-0.11308106232292799,0.0656865480591511,0.14669212055232553,-0.12261386757433078,-0.02457431080715039,0.6047087547288087,0.7795204293659382,0.35967316179798065,-0.07530697088751458,0.07828843839593574,-0.4458769272606616
0.118,-0.18248990642601626,-0.10898581181962637,0.07332823631836788,0.14649443948151603,-0.12780988575670202,-0.019578915551666083,0.613552689491009,0.7877965791993271,0.36866623323285047,-0.07102792752527487,0.07799238128254783,-0.44044946586994704
0.12,-0.18835340752592694,-0.1055010658126829,0.08278145324355575,0.14810318371371253,-0.13575126184325592,-0.013476154736194896,0.6200632545578396,0.7952796954422093,0.3761120779263675,-0.06474308154911355,0.07783919793013437,-0.43487281496227603
0.122,-0.19520640440433168,-0.10521753453441164,0.0899570817379522,0.15135115777211372,-0.14306450617023636,-0.009265368404621548,0.623056788852135,0.7981468180917103,0.3795097575905048,-0.059702553120561254,0.07792740642096774,-0.42943315924276615
0.124,-0.20266857982930656,-0.10687145246602074,0.09569683999775508,0.15527454839583815,-0.14950884335024123,-0.00627872108479933,0.6220935780086347,0.7945882337229994,0.37827760352175754,-0.057762803789682605,0.07805306665303671,-0.42409673255235636
0.126,-0.21150896427057936,-0.10787781227144405,0.10333109206157454,0.15957818231383714,-0.1573771008275054,-0.0022256055567583554,0.617680351088406,0.7854848745591954,0.3735262934648843,-0.058250017318914875,0.07806495194205837,-0.41990900931225456
0.128,-0.22115046839720787,-0.1073807456870442,0.11332401293598175,0.1641432323020167,-0.16721782151276823,0.0031551543597411417,0.6112920161037796,0.7735703854456655,0.36712060155469517,-0.059431812139950566,0.0780020624200131,-0.41823007932710937
0.13,-0.22806801547938485,-0.10590595159787136,0.12175970031068914,0.16726856234994666,-0.17549360870778355,0.00767774946123643,0.6040782820050015,0.7611007003150593,0.36008070747909393,-0.06084917494744593,0.07796553998349372,-0.41827847040285704
0.132,-0.22782878779766538,-0.10349316045235267,0.12402674685964926,0.16606855862872055,-0.1772384065950363,0.009381975075180501,0.5960327929708245,0.7483324148685823,0.3521272386587245,-0.06341650813313303,0.07798241504680997,-0.4171200002566011
0.134,-0.22015052076389316,-0.09963396236456815,0.12024467928116127,0.15988114068063733,-0.17181391332594262,0.009086724227500282,0.587657121519441,0.7352684922017219,0.3437007904686198,-0.06692101961978357,0.07801040620491408,-0.4128360049551351
0.136,-0.2103498010863485,-0.09460633984157726,0.11555738811563769,0.1519719062225849,-0.16432919502974433,0.009427968833611007,0.5802861085452472,0.7228100313150145,0.33636511586390105,-0.069173214660213,0.07801456705835201,-0.4063908763692034
0.138,-0.20370977286606737,-0.08989446874489176,0.11379516126833793,0.14639510894463362,-0.15957888284896074,0.011255314487344556,0.5727899732414606,0.7098563040245033,0.32962747024976674,-0.06838835837590926,0.07800127909043002,-0.39959383362925394
0.14,-0.20033923098848955,-0.08717523730576654,0.11325011564742228,0.14418664016673718,-0.15702888692769573,0.012470943389557535,0.561076214902606,0.6917665970730703,0.32035393715629207,-0.06486081034725351,0.07799266137566811,-0.39249148453254157
0.142,-0.19703847752360112,-0.08688574567761095,0.11023399918985169,0.14341458516975625,-0.15349458839801175,0.01097605172642674,0.5436598047245771,0.6651715520484668,0.30745383311233276,-0.06002609808562624,0.0779957966433547,-0.3839426216746749
0.144,-0.19190804691939847,-0.0876144890807931,0.10440930085582986,0.1417043026984491,-0.14803044238823707,0.007557929857469236,0.5243266787644203,0.6324345515606891,0.2937957557665646,-0.055331359756141466,0.07800199710625297,-0.3735889187300073
0.146,-0.18555341664230746,-0.0869340466406491,0.09890708568194401,0.13781582501930184,-0.1423656617550076,0.005257953786898536,0.5060888634810597,0.5980535748096233,0.281208483634328,-0.05251804929120158,0.07800324779725355,-0.3617531462669874
0.148,-0.17958319453262983,-0.08349730218757423,0.09649766345715008,0.1321556647093947,-0.13833697360264935,0.006176842684785222,0.48601145147846664,0.5631193875455408,0.2673493138839185,-0.05329409606064013,0.07800046145832397,-0.34861075935895325
0.15,-0.17560306674957188,-0.07886278518125321,0.09701217053789601,0.12702307533439963,-0.13649163240718062,0.009168616545986543,0.45967553430320357,0.5267684623535452,0.25017885993073535,-0.057018138151349713,0.07799844801902876,-0.335062354448074
0.152,-0.17436675127060539,-0.07630870295381001,0.0980460937366366,0.1249503563407991,-0.13622974100360868,0.011025244796781668,0.42771547360123063,0.48992898837030946,0.23174862932688595,-0.06049700605653863,0.07799900686030671,-0.3227878945515426
0.154,-0.17451096197015087,-0.07750025502117094,0.09686255947078858,0.12591318079518088,-0.1359028554605636,0.00941630232944978,0.39400654029703397,0.45358050374065495,0.21439760758423862,-0.062064535555293794,0.07800037257429097,-0.31180368983229484
0.156,-0.17315622064853226,-0.08150058377181553,0.09158381810472876,0.1274827897117653,-0.13320322892720837,0.004088884158584268,0.35967826380614565,0.415712624433079,0.19632409652392352,-0.06351658660028046,0.07800071994137726,-0.3000320365115841
0.158,-0.16872631167414964,-0.08662366163588314,0.08216789316944212,0.12779771552496436,-0.12686130078143557,-0.0036960167740633493,0.3228606817037602,0.3736380403840898,0.17424855415245807,-0.06633420307360935,0.07800014056095819,-0.2867725301517222
0.16,-0.16223094679948452,-0.09153947357930471,0.07088255128256499,0.12690465503785064,-0.11798963062553734,-0.011909305696555007,0.2833923629045936,0.3283583072186126,0.1485096057129672,-0.06905422057385026,0.07799967425081701,-0.2741315129854898
0.162,-0.1550939720389232,-0.09431414246055152,0.061112549181588295,0.12487768380470486,-0.10892969703981688,-0.018118694189794126,0.24505426676889117,0.2847961205428027,0.12293030440199669,-0.07027197487245165,0.07799976769695569,-0.2634665708939576
0.164,-0.14734303042719946,-0.09205372779557823,0.05566003709827749,0.12030755772462595,-0.10155214465089854,-0.019769090110784388,0.21270180090050295,0.2478657556263173,0.10065333448488765,-0.0715229862693729,0.07800006680826624,-0.2527960321688121
0.166,-0.13913892468789257,-0.08347501452839928,0.05577094807722955,0.1122822216614119,-0.09717157920847698,-0.015522159960450524,0.1875733213060766,0.2182126345426022,0.08157116664476885,-0.07517591558028877,0.07800015868447482,-0.23947214227037342
0.168,-0.1316914813583184,-0.07144425997370556,0.0599241743648178,0.10255035601288406,-0.0958088622070915,-0.007245188259365664,0.16595084619222525,0.19156044729705973,0.06317388108828992,-0.08126713775134452,0.07800003933756827,-0.22380039345717387
0.17,-0.1246274502133185,-0.06133312330334623,0.06287048513369956,0.09363173677569152,-0.09417818371210446,-8.41965248971467e-05,0.1429268822103421,0.16256494387364825,0.04278915232471739,-0.08823676140040758,0.07799993219195954,-0.20882058923425803
0.172,-0.1151815237881713,-0.056763651082976076,0.05842843805918292,0.0861113244534245,-0.08724176451036682,0.0007752382541678952,0.1172021756168003,0.12944450924555775,0.019551223501674264,-0.09561396786731785,0.07799994614373765,-0.19789104034242877
0.174,-0.10236378872166967,-0.05718130090430257,0.045692518056235976,0.07942123239470134,-0.07408397409323828,-0.005386950587195385,0.09183130132156002,0.09503269325154003,-0.0046159069691756646,-0.1042000468203769,0.07800001127972789,-0.19286942807601914
0.176,-0.08904104113256053,-0.05885050285619181,0.03079749342840879,0.07335469050738973,-0.05977725014000945,-0.013911578566260699,0.07043226356616666,0.06345908290241146,-0.026521348336616873,-0.1143339029166445,0.07800003477843392,-0.19283397958346432
0.178,-0.07790099972427096,-0.05755635068352385,0.020844597824163286,0.0672612473600693,-0.04961768179621146,-0.018984493662047974,0.053816356786210634,0.036483166084430155,-0.04474101915460587,-0.12542940368551198,0.07800001045647448,-0.19407775094503363
0.18,-0.0685892149324876,-0.05126194187013812,0.01785869985693958,0.0598309986170563,-0.04416279669696936,-0.018186642010176314,0.040814103395215455,0.01353230343067776,-0.06030133009129301,-0.1363967767129616,0.0779999860151827,-0.192710674300907
0.182,-0.06029084988101803,-0.04182110972666014,0.01901351109616995,0.0512741191846516,-0.040940797221874735,-0.01341362520969005,0.030329299709123615,-0.006564357026756519,-0.07485455464297992,-0.1455848674603085,0.07799998761374337,-0.1878313815216887
0.184,-0.05404661582669683,-0.03379924254680022,0.020528704366200023,0.04415500918865508,-0.0382916274367814,-0.008594804248629453,0.021444922389929365,-0.02522521757569425,-0.08922884052144364,-0.1519315852649432,0.07800000171548628,-0.18160169169437881
0.186,-0.0516011436418922,-0.03084525443620382,0.020682060925539508,0.04125917014320978,-0.03647309852001577,-0.006512055726187397,0.013341000262632673,-0.04373614175510157,-0.10308422448512036,-0.1570724097533585,0.07800000757887926,-0.17625733328073304
0.188,-0.05343676337357005,-0.0332231043422783,0.020023585278715304,0.043228894693144095,-0.036398563125447383,-0.00734472326048046,0.0060595895876072985,-0.06171545577594628,-0.11539255469448982,-0.16409508686344107,0.078000002683907,-0.1719383720747108
0.19,-0.057567834671325424,-0.03785785367560437,0.019648826327655522,0.04764260841743515,-0.03791778975597353,-0.009401762555532909,0.00021698526639765228,-0.07692798985595288,-0.1256855072517591,-0.1732449248698575,0.07799999714600987,-0.1675191120884157
0.192,-0.06049378945127631,-0.040959712720265655,0.019605249576512013,0.05074649872907985,-0.03937200293608969,-0.010953145349120102,-0.00433039840493776,-0.08791732185142064,-0.13497822731838338,-0.18130323992898642,0.07799999717210737,-0.16276220651680626
0.194,-0.06048388152330325,-0.04197560259465924,0.018575902332726955,0.051277177160341164,-0.03903010409610843,-0.012184150804082245,-0.008644000262442837,-0.096137976285837,-0.145386148775265,-0.18605634672593122,0.07800000020673256,-0.15947890335524342
0.196,-0.058989147228864405,-0.04364286583184237,0.015340271071271866,0.051328015321301254,-0.03675482276195683,-0.0147589695585131,-0.013493411735825796,-0.10442463411879527,-0.15832950086996384,-0.18899539709147117,0.07800000164199374,-0.16002758959557004
0.198,-0.05821790822566864,-0.04720029076534418,0.010977995713132606,0.05268903667056093,-0.034141029761912176,-0.018671248983030336,-0.018660941606796683,-0.11414251782187265,-0.17252714373432543,-0.19283850067690392,0.07800000067148737,-0.16390619360769174
0.2,-0.058411678766699754,-0.05049811009929411,0.007897907594058316,0.05443877180950119,-0.03264909059560574,-0.021749085693016267,-0.023438180072172514,-0.12457495410075145,-0.18489197768894425,-0.1982950751402994,0.07799999942466489,-0.16739131902865895
0.202,-0.057713252858275714,-0.05216568176500065,0.005561687704608572,0.05494270848737749,-0.03125433076478354,-0.02360238367567727,-0.027190977568434405,-0.13412069664253368,-0.19399871117955958,-0.20413722384113514,0.07799999935874213,-0.1677909150008643
0.204,-0.05451048636175343,-0.053991702688001464,0.0005340663390621815,0.05426143708178697,-0.027500637725746062,-0.02674185614542897,-0.029387880885498964,-0.1414485322970063,-0.2006886729879992,-0.20930172714967554,0.07800000000767392,-0.16619120843789362
0.206,-0.049984681683276515,-0.05725838205826671,-0.007274103381845416,0.05362470267681516,-0.021777279393514974,-0.031885211398394786,-0.029860031190873725,-0.14636555022239553,-0.20524503236663577,-0.2139035428963795,0.07800000035361486,-0.16514735159575686
0.208,-0.04702785830878362,-0.059894187349594584,-0.012874860436645635,0.05345689353665076,-0.017745504470924132,-0.03573974701089161,-0.02927256436736376,-0.15000295539260097,-0.20705912598137355,-0.21839318864361945,0.078000000164718,-0.1657067357799574
0.21,-0.04604791263214712,-0.05898974099754793,-0.012945683194536595,0.052515124247123665,-0.017178916820767103,-0.03532913264153073,-0.028719336327134373,-0.1534285223167439,-0.20743741052433373,-0.22237559343928998,0.07799999988570248,-0.16774822846590026
0.212,-0.04436747659721557,-0.05441562610379973,-0.010045335054375791,0.049392036276245596,-0.01764031199955205,-0.03173287383782263,-0.028726802787962143,-0.15618741566572114,-0.20935672333404354,-0.22473273112218878,0.0779999998555148,-0.17118799833228554
0.214,-0.04079670125852305,-0.04927125910470323,-0.008471109897060559,0.04503623236957216,-0.01658597432517602,-0.028445116244694122,-0.029018207583945067,-0.1571693033907289,-0.2133431776335981,-0.22500672565721394,0.0779999999933608,-0.17509728874879554
0.216,-0.03793633982134812,-0.04706394952693762,-0.009127498701766145,0.042555804850004604,-0.014911563098489277,-0.02763013313239556,-0.029045246630332266,-0.15631486281278886,-0.21649480291872703,-0.223962878883905,0.07800000007567771,-0.1771917818051704
0.218,-0.03911871454056433,-0.048700653334236246,-0.009583767395551501,0.04423713171591587,-0.015471607592210009,-0.02861881503889917,-0.02820962224924996,-0.15414585652950677,-0.21665728980331028,-0.22219880335878206,0.07800000003977099,-0.17567923210086295
0.22,-0.0453538725791537,-0.0527068849025321,-0.007353946338438497,0.04990293078288428,-0.019931487904700618,-0.02951156130528438,-0.025819981809886015,-0.15075806770922406,-0.2150792794474678,-0.21939128581470968,0.07799999997769773,-0.1711061923105359
0.222,-0.055213573697661555,-0.0574704141186201,-0.002256288646446042,0.057726852207350986,-0.02753422901519262,-0.02943847870426429,-0.02162456366994762,-0.14693012282794046,-0.21416230800485203,-0.2159611401460551,0.07799999996764329,-0.16629268751843815
0.224,-0.06584384098575337,-0.06237329746932601,0.0034713167878003158,0.06562130523245598,-0.03568010590167399,-0.02926171122139493,-0.01620434644638121,-0.14462859956397078,-0.21455286980986804,-0.2139631657920277,0.0782193962036002,-0.16413310741779286
0.226,-0.07378830402103763,-0.06763603745462761,0.006152334806826707,0.07203299198264754,-0.04077471827320869,-0.03103001387779932,-0.01027988365905679,-0.14479189259781755,-0.2152384532944822,-0.21522442385851467,0.0795325538774424,-0.16489835912394862
0.228,-0.0760389305897492,-0.07329981963652436,0.002738721556342847,0.07581696256486754,-0.039761120682709906,-0.036228812202742766,-0.0044289459924584055,-0.14606734361430107,-0.2153565975863782,-0.21935443058616155,0.0828067444702959,-0.16638707747974876
0.23,-0.07206530730907594,-0.07799543559626197,-0.005952291145532277,0.07618178977419554,-0.03299400413891788,-0.04341857699122728,7.342055167529858e-05,-0.1466632169254329,-0.21504040936353802,-0.223747876151696,0.08703279662034721,-0.16675792064004832
0.232,-0.06488542684957214,-0.07963568179009886,-0.014903404454231267,0.07344700932073765,-0.024841690846973928,-0.04877476422379315,0.001752141380217451,-0.1462840682130692,-0.2150223979799704,-0.22571288993383667,0.08958820333108752,-0.16626474275558775
0.234,-0.05849581815297164,-0.07745988716272145,-0.019444571059363924,0.06906318533228316,-0.019680816468426312,-0.0497382153751514,0.0009040097276256386,-0.14577889594015025,-0.21627368635628527,-0.22500091485348372,0.08933146873579473,-0.16654162872006809
0.236,-0.05420521296916576,-0.07276855825289628,-0.019444660756560796,0.06445703523928398,-0.017896378240967445,-0.04725242803197626,-0.000410660550955582,-0.1457406454511996,-0.21937114592212734,-0.22363829577407868,0.08787350267352337,-0.1690363075169746
0.238,-0.0504925256223921,-0.06824653879950301,-0.01875966047010483,0.060500373717568875,-0.01645152239753401,-0.04475478327908825,-0.0006660993597857781,-0.14599655786038987,-0.2232086711234792,-0.22330635132225413,0.08724134557019256,-0.17383994469432112
0.24,-0.04624783569411505,-0.06629246592729296,-0.020719095021945785,0.05781506285239909,-0.013100609974040547,-0.04501116895521384,8.617391124780054e-06,-0.14583249297226789,-0.22535483137591644,-0.22366477807781707,0.08770264476878004,-0.17929341403227222
0.242,-0.0435557719486006,-0.06699925695070585,-0.023680791246780172,0.05704106501893226,-0.009989170256283156,-0.04701804452496069,0.0011856387493113314,-0.14381325203327744,-0.22443871488130818,-0.2229287479814145,0.08826682799319682,-0.18256180860112775
0.244,-0.04617949409991476,-0.0683485357209223,-0.022393052455886284,0.05872701600776673,-0.0118529438643252,-0.046971007702635355,0.0034813851954297015,-0.13835111743133802,-0.22106265343236672,-0.219895105146037,0.08828843937810615,-0.18161430773829096
0.246,-0.054389029776723476,-0.0686845815198815,-0.014882686145755851,0.062467018001084465,-0.01973383815179005,-0.04312501000684059,0.007723620333956025,-0.13001659164881196,-0.2164330171550551,-0.21580822971996844,0.08799238132840637,-0.1776728037465209
0.248,-0.06326205579172195,-0.06836045967548968,-0.005815899586548243,0.06654944250471638,-0.028677582139767142,-0.038235126895987424,0.013533158911615838,-0.1218670205046375,-0.21142855084937373,-0.21342040331986567,0.08783919741604565,-0.17472043851189678
0.25,-0.067491065417449,-0.06923154067278112,-0.002097003803769351,0.06937016275920888,-0.032620602166648645,-0.03681434865514911,0.01972931382844487,-0.11591931352459041,-0.20699752986325487,-0.21376395128808628,0.08792740615038477,-0.17577168065859108
0.252,-0.06586684771046766,-0.07258725011313245,-0.006709218217704244,0.07051964385648599,-0.029589282883358384,-0.040912298291622795,0.02530373068126919,-0.11141055982623439,-0.20432624649001424,-0.21517779089548295,0.08805306680434169,-0.18027653637100574
0.254,-0.060696641936586845,-0.07709199061828785,-0.016470983944458884,0.07008580828535295,-0.0222913894799276,-0.04816244620551715,0.02919380580778324,-0.10762432560106246,-0.2038942352262732,-0.21573390968950645,0.08806495216199334,-0.1849529136652502
0.256,-0.055181612601424644,-0.07995541052090241,-0.02514321193156015,0.06833944426411775,-0.015269955236252563,-0.0540091987561566,0.030710427064999695,-0.105394490501498,-0.20453311255151593,-0.21503774400115527,0.08800206244249542,-0.187070250031036
0.258,-0.05213934621228514,-0.08090226602352008,-0.029127080870278422,0.06677893568786974,-0.011646193938173026,-0.05637029739801407,0.031241242770523737,-0.1045053108227103,-0.20389048094166545,-0.21319439820852043,0.08796553987420885,-0.1874872321427468
0.26,-0.053203908892561456,-0.08261786307970215,-0.029469438522161794,0.0676656808337806,-0.011838976884831478,-0.05697795839324758,0.03343434327394696,-0.10279751908300072,-0.2005212783455751,-0.20992366335547835,0.08798241498234041,-0.18934790326061252
0.262,-0.05717700968800956,-0.0862234855091275,-0.028880699579695124,0.07109103982232691,-0.014061062105703523,-0.057983161126509974,0.03748859649310876,-0.09951474647147372,-0.19589815272890615,-0.2059872410729084,0.08801040623375919,-0.19331809702320896
0.264,-0.060421803048122384,-0.08930069856046982,-0.028762001066956498,0.07417619254648788,-0.015799855366784084,-0.05927427362200345,0.04063459078958629,-0.09659829080573727,-0.1929834178715178,-0.20334887412109173,0.08801456710731256,-0.1967127980241175
0.266,-0.06065654668188598,-0.08963064570598167,-0.029005477152816504,0.0745960857738792,-0.0158570823156313,-0.05971538143197094,0.04146916514472491,-0.09504103403593223,-0.19207422648233294,-0.2021997318062346,0.08800127909807479,-0.1982040670998757
0.268,-0.05911033173234571,-0.08817201751683021,-0.02914032616692391,0.07321260235672122,-0.015016417242882428,-0.05924007805204388,0.042311510228609635,-0.09306436464245837,-0.190404048091406,-0.20026482503720222,0.08799266135260073,-0.1998932546610815
0.27,-0.05818217495404093,-0.08722088579676407,-0.02905952996320369,0.0722616892826155,-0.01455930836945332,-0.05873610907086895,0.04597038629755892,-0.0896581718985289,-0.1867996809414919,-0.1966648394490385,0.08799579662816451,-0.20319052517701924
0.272,-0.05854816117086796,-0.08731081398338093,-0.02875177251273758,0.07242018957868468,-0.014891134236912388,-0.05852123537132227,0.05226203932702784,-0.08659613764083808,-0.18350093993825062,-0.19360028570594176,0.08800199711158571,-0.20591549160096803
0.274,-0.0592257239656428,-0.08666313191917326,-0.027563628829301773,0.07240747428582496,-0.015900163214996665,-0.0574851943582902,0.059005709462398095,-0.08495634121380259,-0.18197699325150551,-0.1925594241613324,0.0880032478080904,-0.20503693003057588
0.276,-0.05935285602705403,-0.08354180295806368,-0.024674600314063086,0.07093474044473892,-0.01758570669269157,-0.054342742790340196,0.06458242396084242,-0.08301479542770122,-0.1804961728453895,-0.1915962908373396,0.08800046146059004,-0.20042653478144196
0.278,-0.059045441216951745,-0.07902710795204128,-0.020902071051678572,0.06855038226101372,-0.0195304022981149,-0.05002904340551517,0.06817631179656806,-0.07967803815597399,-0.17765398472332655,-0.1881128649376485,0.08799844801419723,-0.1952507180900238
0.28,-0.05902682884952769,-0.07625044204375259,-0.01836595645128986,0.06716319965676237,-0.02089885094895604,-0.0472501702332657,0.06955022640940013,-0.07663311851324327,-0.17493593604776933,-0.18233523462055753,0.08799900685676224,-0.19271909145114963
0.282,-0.06027306836609046,-0.07655882536860373,-0.01725891327685854,0.06799137003535441,-0.021993149227570636,-0.04684372619135391,0.07017432556975227,-0.07496367179516421,-0.1737301195629994,-0.17645285417852274,0.0880003725752346,-0.19229580474191924
0.284,-0.06336843864015176,-0.07816213919562637,-0.015294178547223404,0.07049763420712951,-0.024288631624228098,-0.04672350084103863,0.07248979301289556,-0.0729982364611424,-0.17248314904732034,-0.17163219387852946,0.0880007199437623,-0.19065309333393882
0.286,-0.0672077157918203,-0.0788355365044532,-0.011649390740001212,0.07297010657632262,-0.02779082699960723,-0.045274370465780436,0.07655158898437511,-0.0696661043761811,-0.16882574378977247,-0.16726658555930743,0.08800014056158245,-0.18679806759416778
0.288,-0.06966300659720408,-0.07853402141968144,-0.008686182808634264,0.07418077639533191,-0.030395726944625227,-0.043628085181573746,0.07930532245628545,-0.06696552515388099,-0.16316908518728698,-0.16258932880325058,0.08799967424981361,-0.18356197367535054
0.29,-0.07069499692450487,-0.07923201923862938,-0.008431946672255611,0.07503316794956826,-0.031078378901628092,-0.04382341795692787,0.07782872071957418,-0.06738029009037497,-0.15902368188670532,-0.1581063415928684,0.08799976769613571,-0.1832920535361084
0.292,-0.0726679954939031,-0.08249278086288886,-0.009864910043876525,0.07757398100868693,-0.031421461224018135,-0.0461650048283326,0.07161035986006645,-0.07108638579788275,-0.15959861079560458,-0.15527186029981666,0.08800006680842215,-0.1848659902465562
0.294,-0.07635769341400021,-0.08704661813343045,-0.010762616690158516,0.08166249940578374,-0.0328346476622049,-0.04890266943567324,0.06207481284501221,-0.0764912159707269,-0.16394491323893085,-0.15481045121601972,0.08800015868499675,-0.18583944201605643
0.296,-0.07911844781077654,-0.08976589786608932,-0.01066117815357337,0.0844265266888281,-0.034235703147347515,-0.05022014847619033,0.05132219779772174,-0.08214081443612585,-0.1678602366499546,-0.1557452110396438,0.08800003933773246,-0.18547786148188322
0.298,-0.07804311024350621,-0.08940874604555205,-0.011332498752812583,0.08373983837875797,-0.03333869109399111,-0.05037484014814271,0.04091717692571037,-0.08774849737987102,-0.16942106979940824,-0.1564661397123823,0.08799993219175312,-0.18477524804636866
0.3,-0.07331886883255496,-0.08781345461005174,-0.014471393349660274,0.0805812801810523,-0.029412008020178834,-0.05114083172783138,0.031237737352037543,-0.09340204241475827,-0.17090864442452725,-0.15635250291823882,0.08799994614354945,-0.1846331646337723
0.302,-0.06819590670703865,-0.08717050290476491,-0.018981578609563857,0.07768284612797141,-0.024610616656670296,-0.05307297906653813,0.021867605545617022,-0.09798741682693296,-0.1740843699232013,-0.15591897418970876,0.08800001127975066,-0.18494722229354468
0.304,-0.0660807384103742,-0.08792097474317458,-0.02183426383507703,0.07704729603846587,-0.02212030546034879,-0.05492090515211591,0.01254725791177154,-0.09980589144290059,-0.17685915405135869,-0.15555250324275452,0.08800003477854751,-0.18497728234051636
0.306,-0.06774978815074979,-0.08983753241006891,-0.021960239207684185,0.07911813138140061,-0.022831069004254998,-0.056162904713324406,0.0041900123772086705,-0.09897615973212934,-0.17606828220337437,-0.15440310395559725,0.08800001045651629,-0.18373291117313434
0.308,-0.07174313259713622,-0.09311398795284358,-0.02103654413662096,0.08330472184488331,-0.02518613139933531,-0.05778593969493532,-0.001117783235967119,-0.09759396575168504,-0.17147201080250246,-0.15128675306985775,0.08799998601514067,-0.1806321799155518
0.31,-0.07660369083329772,-0.09701334007279157,-0.01998167352642652,0.08819672172204443,-0.028096991666633434,-0.05967072071473222,-0.0021937495671462736,-0.0972966193487038,-0.1662552020555398,-0.14704683786176198,0.08799998761370045,-0.1767893169975736
0.312,-0.08139782861336785,-0.09930178642155783,-0.017649613349504267,0.0918621727688213,-0.03180177448097324,-0.05980465395904491,-0.0004929628242283287,-0.09765921542160662,-0.16369640295776847,-0.14420133831063892,0.08800000171548872,-0.1743352379391185
0.314,-0.08447682444718074,-0.0983817576233862,-0.013934108750922707,0.09274810815515379,-0.03561424618235958,-0.0571629329701427,0.0016622250050407847,-0.09678777891078424,-0.16328253266229517,-0.14323957652442976,0.08800000757890386,-0.17330578356984144
0.316,-0.08385586887661083,-0.09465536248047392,-0.010946310155788836,0.09040244820675039,-0.03740159509849602,-0.05314838365052251,0.003964841947745134,-0.09341147707492031,-0.1616591414489465,-0.1417838105480438,0.08800000268391744,-0.17133333529231315
0.318,-0.08006668153520112,-0.08951506373186419,-0.009510173892464283,0.08595399387565428,-0.03669395118797577,-0.04932223249450659,0.007703925240457249,-0.08889698463550247,-0.15780819987708714,-0.13864829958698113,0.08799999714600146,-0.16764251633808053
0.32,-0.0767716343761034,-0.08400287450312434,-0.007183873415202708,0.08165109928485734,-0.03622759013353945,-0.04537594295783338,0.013155923801864517,-0.08614972949312023,-0.15425635751729785,-0.13555709832786197,0.08799999717209767,-0.1644421337361863
0.322,-0.07712564679130852,-0.07831665278523826,-0.0011347740324438682,0.07902484403360488,-0.038959647281569705,-0.04000865224869023,0.01895646206361987,-0.08575814025724618,-0.15203198521593955,-0.13312456680208778,0.08800000020673249,-0.16267197233023395
0.324,-0.08107824402104301,-0.07255067458874215,0.00850702698724358,0.07808256024369252,-0.045077269139157106,-0.03300385350359876,0.0238663233571021,-0.08491384390951999,-0.1482574430732376,-0.12872853514778115,0.088000001641999,-0.15933777593237053
0.326,-0.08662139716346101,-0.0679544558652097,0.01848381689834044,0.07851731651630015,-0.05240000912788935,-0.026147327654231438,0.028062926501194203,-0.08101353489238632,-0.1409153011381094,-0.12085767317065796,0.08800000067148994,-0.15133335540137513
0.328,-0.091765904141793,-0.0659946930926881,0.02529744902200032,0.0800447721344781,-0.05839904486296039,-0.02168278840121118,0.03260394578184259,-0.07480498962892512,-0.13257057317043974,-0.11216649440320066,0.08799999942466324,-0.140180590734907
0.33,-0.09442313885436705,-0.06567532690420397,0.02802883089522826,0.08089614888881934,-0.06131768920343635,-0.019722573975377973,0.038232215282398285,-0.06932010331190579,-0.1271977792655582,-0.10574621655574964,0.08799999935873992,-0.13147120741434218
0.332,-0.09198247005189768,-0.06409573734577881,0.027374384407009174,0.07818699805114604,-0.05987306041441653,-0.01876006088405599,0.044445674952007935,-0.06678925897543027,-0.12583302159094883,-0.10157463963377095,0.08800000000767375,-0.12980220896219172
0.334,-0.08338163404107025,-0.06056459753111196,0.02304692697079295,0.0714021965645663,-0.053340526556987525,-0.01878871914110799,0.0492822621276912,-0.06700416983354328,-0.12661202025505947,-0.09855145498382943,0.08800000035361596,-0.13408215782785618
0.336,-0.07110946489318444,-0.05756927351796131,0.014455330626765111,0.06357016746831264,-0.042820552466735155,-0.02141253012430078,0.05092056931787998,-0.06809800264352474,-0.12736807708517367,-0.09693511601330412,0.08821939637160327,-0.13847723811492843
0.338,-0.05897281886940007,-0.05660420148406259,0.0032521821711868626,0.05738717820651923,-0.031331996214120646,-0.026617824498983585,0.04987022242853355,-0.0685284756160811,-0.12733039801280968,-0.09709325963466367,0.08953255374705558,-0.13839872459042182
0.34,-0.04870369863093489,-0.05562283331501246,-0.006670429984674083,0.05222361154833329,-0.021893083195816943,-0.031481487978041796,0.048481153986229555,-0.06818999466017754,-0.12694915284953115,-0.09804653957758357,0.09280674431633282,-0.13402706792235894
0.342,-0.04033892642013166,-0.05196103081390032,-0.011893325028042457,0.04635725094327808,-0.015928633528122363,-0.032730856348941614,0.04830065190998443,-0.06780747798173446,-0.12680033517389505,-0.09849642135102521,0.09703279661796115,-0.12814736768018867
0.344,-0.03430976964565945,-0.04615745900155405,-0.01211490076738906,0.040303097104476944,-0.013158519670796355,-0.03006757978919463,0.04916148627085281,-0.06760988956185651,-0.12671575102617436,-0.09799868056973599,0.09958820341396904,-0.12263024528510558
0.346,-0.03200333397557781,-0.04194431269665687,-0.009931964916434433,0.03689969905599746,-0.012652385086129828,-0.026459729685908515,0.050880988938732816,-0.06663412441879395,-0.12554576092677439,-0.09630566636815155,0.09933146877668561,-0.11734010944996914
0.348,-0.03513047362466307,-0.04256705139219266,-0.007289955381244722,0.038776912593770835,-0.014563792546575593,-0.02475317496508451,0.05400374284468944,-0.06378522153764112,-0.12226580989185032,-0.0929978849701456,0.09787350264782471,-0.11176474438198457
0.35,-0.04396680679940427,-0.04697315305210624,-0.0029190016473410415,0.045486823725824674,-0.020265947168135828,-0.024375107885896325,0.05793710514448256,-0.05991617795189023,-0.11795899270574392,-0.08896184443224053,0.09724134553560239,-0.10704363445000246
0.352,-0.05547804041306348,-0.05067155135907905,0.0048895937809862134,0.05318218479038122,-0.029553113754671297,-0.022606165940374325,0.06021585370873902,-0.057729150420984435,-0.11536826726121908,-0.08651562237852808,0.09770264476628225,-0.10533728805324405
0.354,-0.06410938818880285,-0.050887773705334226,0.01349047216218267,0.0576789515989628,-0.03830242552416774,-0.01907822142449265,0.05877812105872004,-0.05913746079949082,-0.11565223220873178,-0.08672100983596068,0.09826682801088042,-0.10750306724081023
0.356,-0.06576061493541126,-0.04908478574370431,0.017096754753009872,0.05761920151136326,-0.04115836447169559,-0.01677924248140137,0.05414027760016619,-0.06344037979962355,-0.11714247297085001,-0.08809492065878924,0.09828843938791593,-0.11222891220062242
0.358,-0.06171447378509526,-0.04804380369651797,0.01395733987827475,0.05499076022141728,-0.03755011042664598,-0.01774978221385054,0.04925500126756013,-0.06783627489462056,-0.11777518053455555,-0.08871494382643383,0.0979923813234417,-0.11677298636679985
0.36,-0.0570457169991808,-0.04849597537627356,0.008539846640036555,0.05275837626695526,-0.03233129795945531,-0.0204105271304675,0.047096506509269755,-0.06970819872921039,-0.11751592632374872,-0.08851310660928909,0.09783919740832081,-0.11871836814183069
0.362,-0.05358311553423557,-0.04927629584076194,0.004151572884259374,0.051365794653897394,-0.028415319489458742,-0.02277777568922938,0.04790144338827882,-0.06895044378934494,-0.11825631279265036,-0.08928783793814926,0.09792740614940429,-0.11799523993028803
0.364,-0.04738604025114707,-0.049405490448998945,-0.002095789241593908,0.048357279682533075,-0.022541237153198918,-0.02574267593798777,0.04940852470865625,-0.06761675336716376,-0.1215142591492607,-0.09253085557587908,0.09805306680808898,-0.1166428987726734
0.366,-0.0355279707415033,-0.04904298567339525,-0.013469995923037652,0.04222896534842054,-0.011305014201493928,-0.030982671822201484,0.049766481794654815,-0.06732360512569,-0.12604361970139277,-0.09703434296012593,0.09806495216431833,-0.11631432470884862
0.368,-0.021971939335138094,-0.049018872367134536,-0.026961944068798895,0.03529060539846716,0.002259385878543182,-0.037617896480723806,0.04936682585495634,-0.06768477509040947,-0.12853334828767707,-0.09962955828493998,0.098002062441561,-0.11664369351586074
0.37,-0.014700220105074229,-0.050413383791673316,-0.03557591325529447,0.0321827406472382,0.0106121908154164,-0.04279532093215954,0.050189898180994,-0.0669288836053696,-0.12687154575399087,-0.09852674448019769,0.09796553987249372,-0.11577104117783935
0.372,-0.018889454413719798,-0.05385924717361377,-0.03467379577771264,0.036022400619602664,0.008268067901091768,-0.04425362046495764,0.05356389139309422,-0.06388425707773855,-0.12201166886441331,-0.0945457676270338,0.0979824149820311,-0.1124117168712615
0.374,-0.032494127315926144,-0.05812289765890716,-0.025224410367972218,0.04518691028860709,-0.0035811985908162916,-0.04156596711266998,0.05810355914749268,-0.05980297410192378,-0.11714261049714812,-0.0893836157317906,0.09801040623454742,-0.10790610691470587
0.376,-0.047733145380176006,-0.060602585461509796,-0.012605485375160905,0.054257433171260895,-0.01792919031218936,-0.03618659151847028,0.060951743483907965,-0.05742381300373699,-0.11489361542605607,-0.08399990115595744,0.09801456710785787,-0.10506618406309878
0.378,-0.05767559270971352,-0.0602891685411549,-0.002625280303631395,0.05909235327093617,-0.027803246057230408,-0.030823690947456805,0.06175142512102046,-0.05776844805356879,-0.11443810594618216,-0.07838696549448139,0.09800127909790513,-0.1042518627642189
0.38,-0.060850626883221626,-0.058845449647317784,0.001861461298804305,0.05985710067647459,-0.031073941545004768,-0.02788083464011784,0.06312837012330273,-0.05917807805168386,-0.11262583344898204,-0.07258588131708742,0.09799266135222212,-0.10286341684885443
0.382,-0.06003553212225145,-0.05825103024950299,0.001714657714873139,0.05908927248111387,-0.030140110698498493,-0.02778247096354338,0.06631467603178659,-0.05973159286075885,-0.10870740109895097,-0.06793290102767324,0.09799579662807627,-0.09967960673189646
0.384,-0.058331234032811506,-0.058503183665366124,-0.00013012097966427826,0.05844117862762129,-0.02838821167476348,-0.02893747912049926,0.06894659277793494,-0.05925587685588867,-0.10553354528703544,-0.06638203705031712,0.0980019971117502,-0.09685770182516486
0.386,-0.055983655460069316,-0.057738511048699315,-0.0016968744984116988,0.057203828069651415,-0.026802076339324698,-0.029569907334429785,0.06812225516106771,-0.0587276129712181,-0.10532795280261584,-0.06858484723382677,0.09800324780821715,-0.09650240285751852
0.388,-0.050825245552713054,-0.05447283964394106,-0.003642339231730287,0.0535461189800851,-0.023699390177380257,-0.029406679657604396,0.06385934918979788,-0.05873141293972637,-0.10689865119669911,-0.07324354159580383,0.09800046146056082,-0.09781551496724983
0.39,-0.0424505134988803,-0.04995304275704386,-0.007531510185472585,0.047590010865721614,-0.017920946576841307,-0.029602480593638254,0.059165380650895626,-0.0590201571302395,-0.10783545149735832,-0.07773534368220984,0.09799844801411411,-0.09870338944702824
0.392,-0.03410754165056174,-0.047252701815985274,-0.013161868395729907,0.04212624983558033,-0.011090529400809596,-0.03116618812142728,0.05712926695584477,-0.05935343878078402,-0.10767752778819706,-0.07969240554691706,0.0979990068567385,-0.09863747863260966
0.394,-0.029219965203910393,-0.04760032321593454,-0.01837254201003781,0.039395221270784604,-0.0060056164406391,-0.03349289125522062,0.05797107376272294,-0.06044275294870011,-0.10830055557114357,-0.07900338184903612,0.09800037257526864,-0.09921020331827964
0.396,-0.02808509469721947,-0.04918072708106471,-0.0210827878318709,0.03890995743004023,-0.003986452380326844,-0.03491204291767971,0.059434445749286365,-0.06327126712695542,-0.11144721491886501,-0.0776609562385613,0.09800071994379152,-0.10200634009971607
0.398,-0.02871795625233566,-0.049821768646429246,-0.02110194245616174,0.0390528798380038,-0.004259099902214356,-0.034734752838440616,0.05974366850128045,-0.06706872196322147,-0.11598746307314761,-0.07731850664855182,0.09800014056157785,-0.10606888819448272
0.4,-0.02950118238129357,-0.0494076032247023,-0.019912536317082338,0.03926111202865355,-0.005333426423650632,-0.033905339238152386,0.05912195887807582,-0.06953995152897674,-0.11876251104132612,-0.07796493094246032,0.09788997614635314,-0.1087940859927193
0.402,-0.030764470024161883,-0.049465269343433996,-0.018704740560899148,0.040478650220677176,-0.00693165757487946,-0.03356801704468268,0.05865710741951779,-0.06999819122011784,-0.11843940996006638,-0.07906383690825448,0.09723349076545283,-0.10972361905633765
0.404,-0.03386575065150476,-0.05120800537055645,-0.017340799925258006,0.04385759655128871,-0.009926688179673843,-0.03395301827325808,0.05877080693558948,-0.07008569850622817,-0.11682994909564526,-0.08062323857410389,0.09559669457801985,-0.1108962646308267
0.406,-0.03865319208956445,-0.054498461919311354,-0.015842424157252975,0.048912507881213006,-0.013767616726135228,-0.03514400091197631,0.059077439950182276,-0.07029016031812839,-0.11605194935077782,-0.08245926643718811,0.09359345847614554,-0.11276654360583835
0.408,-0.04273290605099635,-0.058554307668144054,-0.015798896676434315,0.0535745771338721,-0.015575396219805885,-0.03798671419204369,0.05924960163760178,-0.06881573456203738,-0.11592207036608818,-0.08342767640552494,0.09297221459926303,-0.11324024856797889
0.41,-0.04315709462227973,-0.06198303395106676,-0.01867396686385402,0.0555149679296171,-0.013071972729943574,-0.04243753184046684,0.05975771364738033,-0.06563876125896236,-0.1149001190052945,-0.08209418521228046,0.09473757005370122,-0.11193696192538195
0.412,-0.03829095873313634,-0.06172198486129731,-0.02299515222308298,0.052612958420607474,-0.00727135946972746,-0.04534579150981047,0.06161737957669854,-0.0640187067208258,-0.11279735535806491,-0.07819160508338291,0.0975795931207846,-0.1120008711494544
0.414,-0.02933538509820925,-0.05495863181475053,-0.02502621776886767,0.044204828751414696,-0.0015565831878706403,-0.042653228484564945,0.06485350852022968,-0.06580250706943115,-0.11119036305642598,-0.0735288696934794,0.099173440164918,-0.11606381966630602
0.416,-0.020714244663299936,-0.043404326122772924,-0.02247004340478841,0.03343996836284186,0.0009763935658127258,-0.03441645382256212,0.06739902457203915,-0.06884446764391265,-0.11126556518122753,-0.07048743721202028,0.0988144467622229,-0.12287042234287639
0.418,-0.017962749729843852,-0.03380375408972165,-0.016361003858626284,0.026884780070460454,-0.0011379616422443617,-0.025744143090849114,0.0670685994360136,-0.07102195317982508,-0.11286254535090724,-0.06936641779886543,0.09780334779418409,-0.12930568504376377
0.42,-0.023804542671909616,-0.03294109584117342,-0.009986436025872826,0.029540831237325097,-0.007387649824295921,-0.022261551534870375,0.0649842749542551,-0.07334222410591656,-0.11571939284034402,-0.06874409263433003,0.09756419759265406,-0.13385681226576063
0.422,-0.03513749081637002,-0.04154291974087923,-0.006866461547985284,0.039672514116940914,-0.014917304559681186,-0.025412614072328133,0.06510368354148867,-0.07720909518024016,-0.1200152591603964,-0.06808310496213178,0.09857783898261968,-0.13666637724638592
0.424,-0.045016854601856,-0.05373281807362289,-0.00869285127297001,0.050464958032767425,-0.019807367104552352,-0.032405503432222475,0.06929033503554693,-0.08125741407297851,-0.12534743238240328,-0.06832912582000798,0.10070533513393042,-0.1377653041874514
0.426,-0.04879124941031013,-0.0635653561040311,-0.014789827828452918,0.057122211783042574,-0.019663354083687717,-0.04025048617334217,0.07409514624103143,-0.08260802485236891,-0.1301970637379955,-0.07049123433009351,0.10281771659789275,-0.13690257293768146
0.428,-0.04724560388494499,-0.07028821424194426,-0.02338950855036111,0.06000785157164941,-0.014803515425499828,-0.04835957804808078,0.07395135287551502,-0.08070845948492195,-0.13289810983443925,-0.07503535437349552,0.10279526957829854,-0.13464708660214184
0.43,-0.04412140001886559,-0.07601713893657089,-0.03228132750946756,0.061525618311371426,-0.00798697345612351,-0.05650698315246051,0.06763975009636894,-0.07879154919962256,-0.13299995222234307,-0.08195666688534017,0.10008429197449194,-0.13287989599852854
0.432,-0.04171957468869371,-0.0808149238975401,-0.0391732284781485,0.06248722262250313,-0.00252693629786656,-0.06256886649537856,0.06018872046712921,-0.0799649858196845,-0.1313604243186024,-0.08942989969547513,0.09734587804442797,-0.13356949372983073
0.434,-0.03863787855676168,-0.08171458984572263,-0.04290996095210395,0.06124636114735576,0.0008733841874364793,-0.06415381418761099,0.05779287406800015,-0.08302711883681284,-0.12911331814591084,-0.09321669394417556,0.09774833174283469,-0.13674258297390524
0.436,-0.03266947171840456,-0.07623654806435291,-0.04341557995642303,0.055895576764219704,0.0037440042907194854,-0.061049888736579155,0.061746016256501265,-0.08460672626505075,-0.1271925725378187,-0.09054704345672815,0.10121664160461182,-0.1404012606135115
0.438,-0.026010440675297945,-0.06620917280607917,-0.04009328346506788,0.04778880373804321,0.005435492657360508,-0.054662818076291725,0.06779209414774703,-0.08382615740501972,-0.1263255254562438,-0.08409425781275898,0.10447251418245589,-0.1424505918308383
0.44,-0.02408323523076479,-0.056496400902395195,-0.03214672390692438,0.041371091353117596,0.0026768047178627047,-0.04626668211577394,0.07104760293852772,-0.08276918008495003,-0.12654723992047234,-0.07896199645535157,0.10497370030084233,-0.1421459276666014
0.442,-0.027995168299621974,-0.05068943289505013,-0.02214427215977578,0.03961965646164951,-0.004406404845543686,-0.037992194172551765,0.07018679623951603,-0.08397765949622982,-0.12720900954869052,-0.07717540252510886,0.10340764675790688,-0.14056754921616316
0.444,-0.03222129482074671,-0.05007442751280485,-0.0170841753062698,0.04148284262798593,-0.009423396610319707,-0.03426544191543616,0.06628258669066707,-0.08858526973354482,-0.12826625593078975,-0.07847881708418229,0.10170491451452983,-0.14027832063082712
0.446,-0.03131946080107856,-0.054069417078114496,-0.021886476579554216,0.04382449922203365,-0.006386662405065132,-0.038276593485614685,0.05995504298801265,-0.09548401398671037,-0.13121535299885062,-0.08358604319469533,0.10078678725092532,-0.14331039220491848
0.448,-0.02574998127931087,-0.05985096547306746,-0.033376169859588356,0.04448215462969215,0.002919810126289739,-0.04758151057228977,0.05088463716653294,-0.10209974784251699,-0.137591066533769,-0.09231238201768893,0.1004774492590312,-0.14898861615161305
0.45,-0.021000324845602207,-0.06469811927136791,-0.04345392444281473,0.04445988955721363,0.010583121895668032,-0.05617815337421549,0.038835090216213904,-0.10704433516074743,-0.14605566674091552,-0.10085960132212103,0.10014984780920363,-0.15454316499449589
0.452,-0.023493098937370453,-0.06857148012999263,-0.045399322367009234,0.047415271256806724,0.009427625152110283,-0.05954213419040645,0.024801894482579297,-0.11180894894062424,-0.15250733897924731,-0.10478540947818248,0.10014267751727242,-0.15817341873812957
0.454,-0.03578892453714823,-0.07208307097726213,-0.03685261687224123,0.05530014887834368,-0.002115387078196143,-0.05649507791989616,0.010868839470513106,-0.11899236478313165,-0.1545236329620648,-0.10380651254511626,0.10195378939379646,-0.16082736479246135
0.456,-0.05348721176499764,-0.07412112975011044,-0.021089607040009596,0.06518199959289027,-0.019069446978523006,-0.04892886725224248,-0.0012489795796162466,-0.12805820428805584,-0.15400694332675058,-0.10129888314080739,0.10541989058924765,-0.16364998167983724
0.458,-0.0675102338098492,-0.07329351836607922,-0.006072699549968245,0.07168281049643495,-0.032857425426370615,-0.0409407971759552,-0.010255032626407378,-0.1335550989854343,-0.1537062613018228,-0.09945897702218268,0.1075403328156582,-0.16469569785555357
0.46,-0.07081563505073406,-0.06963110613239301,0.0009463924670085715,0.07153341559102104,-0.03713917069513747,-0.036022075718388155,-0.01490689490276155,-0.13046940094050974,-0.15341213781926002,-0.09739521899228802,0.10596375688164372,-0.16157738110745962
0.462,-0.0640504274546974,-0.06397814770894522,-0.00023944300133021848,0.06548509920025794,-0.03285979646559728,-0.03388501325029841,-0.016182985954711456,-0.12132327498319526,-0.15152827914767278,-0.09414377265774972,0.10194729214385598,-0.15634829216968568
0.464,-0.05466101949839795,-0.05729949619410766,-0.003000563743155,0.057223834679162026,-0.02694887757935929,-0.03135002131052729,-0.017942009788054207,-0.11431928742120029,-0.14827700334090085,-0.09042243803455155,0.09864113974484302,-0.15347526383864205
0.466,-0.05016007743923788,-0.051194205732095904,-0.0012619946709466,0.05112363565438911,-0.0253852875345018,-0.026654543772805697,-0.02243666610670392,-0.11440451173902205,-0.14561532329136476,-0.08701935126040847,0.09794064884528549,-0.15389901538850917
0.468,-0.05250651138840139,-0.04770229562907204,0.004813148079657949,0.049814224059912836,-0.02872392975979527,-0.021495059108924033,-0.027204253158080824,-0.11927756168983919,-0.14491193302135932,-0.08459722550179477,0.09955627856975911,-0.1549040843852644
0.47,-0.05789914238694903,-0.04746812653244026,0.010553799954516715,0.052294614079829244,-0.033421967767847456,-0.01865095409154896,-0.028465944409790327,-0.12391750286350883,-0.14556343595647683,-0.0843154755959702,0.10177157245376779,-0.15491788314191296
0.472,-0.061143441777823236,-0.048848223400693946,0.012356204139768494,0.054945943692766654,-0.03579178801384369,-0.01876825587754527,-0.02528326568788133,-0.1258783125440877,-0.14576342986829297,-0.08600738661911983,0.10256426107084755,-0.15492538229689184
0.474,-0.0604993642978303,-0.0498001512899276,0.010664433795615534,0.05533170855644391,-0.03505849192983,-0.020263277826201385,-0.019647998404214443,-0.1251958137489772,-0.1444359407387569,-0.08789792245162775,0.10051447735173853,-0.1556669746660543
0.476,-0.057928732517706784,-0.050171528325876215,0.0077074233274788025,0.0541649813472517,-0.03290598839920121,-0.022031231284512478,-0.01478962361118181,-0.12211055228950193,-0.14235550755903134,-0.08944179400900959,0.09575846368384597,-0.1565081543457333
0.478,-0.055606497396254735,-0.05133700973146739,0.004264320741918369,0.05348327715993088,-0.03072346159141774,-0.02470494631980076,-0.01296756297948017,-0.11739912847494033,-0.1411565089724999,-0.09142510379344078,0.09029447072982369,-0.1572856633344305
0.48,-0.054373471740269165,-0.05417837998440364,0.0002196461097130996,0.054575989141607814,-0.028639567857301717,-0.02878299662108927,-0.013129009777685073,-0.1131380644342272,-0.14147335585370177,-0.09340226172515839,0.08539624448990725,-0.15927359081409578
0.482,-0.05497379986069809,-0.0585290137349877,-0.003540668104055986,0.05793701444004397,-0.02689130065642214,-0.033348350654547346,-0.011582062689507447,-0.11111731397273336,-0.14273802188893844,-0.09415343727815159,0.07948550071975129,-0.16356996151119885
0.484,-0.05801226323611997,-0.0636497111928552,-0.0056438820618480495,0.06312678962058689,-0.0264761767986701,-0.03712003534568743,-0.006491984445713963,-0.11124235408050376,-0.14430622874096366,-0.09413256222138543,0.0713632239661216,-0.16937352512008136
0.486,-0.06214888129412601,-0.06806356200582087,-0.005925685383221005,0.06797514608014707,-0.02773143144694659,-0.0394438485607333,-0.0009993341235061187,-0.11217616478733457,-0.14564192287737918,-0.09492854963991551,0.06328005849938337,-0.1743414502474556
0.488,-0.06439846833865953,-0.07023009382944058,-0.005855310343355499,0.06976722514874593,-0.029233244149069724,-0.04049812695336715,0.0004209808852712072,-0.11305317310255086,-0.1458707039924292,-0.09604535366744815,0.057804655193715096,-0.17623905768334933
0.49,-0.06299977953239634,-0.06959319235219552,-0.006719557568381172,0.06766539781586219,-0.029281679310028706,-0.04059863042638112,-0.0015163624522564095,-0.11356196480798951,-0.14436470918670963,-0.09410733594705183,0.054234842951135946,-0.17450935194357628
0.492,-0.05927198602703828,-0.06562749063923796,-0.00667950159653106,0.0629893731500899,-0.02848799350261036,-0.038248291928481,-0.0014795660193697314,-0.1123485998424479,-0.1415879116887335,-0.08704055156570818,0.0510205258631145,-0.1707439083008219
0.494,-0.056526948459926486,-0.057259395767022825,-0.0011781795088649238,0.05745946084597507,-0.02984997645742095,-0.03043145135741518,0.0030716215059956556,-0.10760305147262737,-0.13874027532838215,-0.07791964809443337,0.049385200750025705,-0.167318990822584
0.496,-0.05670863039633075,-0.045198826223398506,0.011120513121360927,0.05187804701738999,-0.03501205258200929,-0.017287136226026248,0.00897932099344839,-0.09994015290471117,-0.13686163167077434,-0.07209847578994029,0.05102981877332057,-0.16558135662550574
0.498,-0.05788461080240303,-0.033774742661842994,0.02380760762152904,0.0466129622162381,-0.04089025429022694,-0.005117071987399142,0.012588298140726144,-0.09221745605618559,-0.13633239002900446,-0.07131675633732566,0.0542137367940602,-0.16541493548555242
0.5,-0.05601051950253975,-0.027975683243176012,0.027759110321315963,0.04236805972758466,-0.04183130375628038,-0.0013036323327310832,0.014405295191422696,-0.08642860421664686,-0.13672224634763153,-0.0727970856979203,0.05565400624817798,-0.16590931161848266
0.502,-0.04940292546506726,-0.028186866121862934,0.021024532526729964,0.039305133195681484,-0.035599116279002266,-0.006061571960108753,0.017310144367249463,-0.0829684900008675,-0.13718123463998436,-0.07304404967195942,0.054643779031496816,-0.1662254705065003
0.504,-0.04073268722759751,-0.03021684694047905,0.010495174224937317,0.03664135477389407,-0.026086002624809,-0.012670322402689123,0.022263322893345143,-0.08158521739827143,-0.1370067167437149,-0.0707936821520712,0.052945562950585695,-0.16614582956302631
0.506,-0.03448079300998794,-0.031014672062560412,0.0035549635480041555,0.034346096977394824,-0.019456496995129496,-0.016035216843941543,0.027315046177510596,-0.0808111092785191,-0.13547908933244912,-0.06684483561783085,0.05256488053717532,-0.1659493998195349
0.508,-0.03311646188036679,-0.031518437161926226,0.0016589378033560255,0.03379813683364571,-0.018447931548235295,-0.016795074825080664,0.03007543150432583,-0.0784211865310674,-0.13207790564735972,-0.06254445213534367,0.05486481289640452,-0.16589872973886755
0.51,-0.035662960675315464,-0.0335788224439178,0.002067838869447141,0.035744241976979445,-0.02082854764647056,-0.017345333413962966,0.030123185079971707,-0.07441123827226964,-0.1279062925002441,-0.05918826933863723,0.059497184301041214,-0.16597974937862
0.512,-0.038961958028246646,-0.037068211683460556,0.0018528309806057923,0.0387769268759296,-0.022384927921224543,-0.018622161177522894,0.029025607460792524,-0.07172568999421261,-0.1254455172330708,-0.0581164134815487,0.06362922081586937,-0.16637454174208016
0.514,-0.040461034810707674,-0.04093235867266115,-0.00048234036748101485,0.04109001196891756,-0.020962666821243578,-0.020983813660041775,0.028458345944445126,-0.07300933174989217,-0.12593715755173898,-0.060419160629627156,0.06399147497545551,-0.16833147338160676
0.516,-0.040558375867107886,-0.04494284075650467,-0.004367542348386671,0.043067593862872136,-0.018191042338948894,-0.024646757682535558,0.02873677910707599,-0.07779110184021888,-0.1284447444346847,-0.06583067644371561,0.059638320392353374,-0.17309118689913822
0.518,-0.04192572671642342,-0.04910830594317046,-0.007168486527766317,0.046455200652713774,-0.017631210148116784,-0.02848101974373836,0.02916528043018788,-0.08282785213494633,-0.13100841711892497,-0.0713538373718538,0.05292241386857487,-0.17876070221768053
0.52,-0.04594240432755101,-0.052409856288206755,-0.006469937652125514,0.05096875537187204,-0.020947906755680014,-0.030346144857715238,0.029329423362132866,-0.08465116561066897,-0.1312895711770598,-0.07273831267320055,0.048302615481305315,-0.18086366664463358
0.522,-0.0499027433104854,-0.05287534520226229,-0.0029814733507469407,0.053206625660534114,-0.025533334029395473,-0.029265925881929566,0.029890321297389267,-0.08168143802245106,-0.12765276130350756,-0.06876935482386003,0.048637234088614034,-0.17750459666551405
0.524,-0.048891902043423106,-0.0489124903760421,-2.346936859242984e-05,0.04993721338762372,-0.026568204097365218,-0.0261915762661955,0.03216652059984968,-0.07448134566024349,-0.12078305990008531,-0.06243589724049187,0.052763324648248566,-0.17097808735993103
0.526,-0.04171035181007382,-0.04102424792702046,0.0006895682354904122,0.042086533457417495,-0.022635765868472643,-0.022355980094006984,0.036734157813154325,-0.06565066774667817,-0.11323922890442645,-0.05740967210658648,0.05782900072951271,-0.16399561133856708
0.528,-0.0334266479014887,-0.032144019969387976,0.001285854646895354,0.0340965698511361,-0.018074793783293828,-0.01802727800562738,0.04240262214058381,-0.05924547346723344,-0.10735893687526135,-0.05491564879836349,0.06233118941295834,-0.15783519661443676
0.53,-0.029827231963998058,-0.026020094125293845,0.0038067885256150183,0.029555995113173885,-0.017425566481793452,-0.013708232780400696,0.04666229462099303,-0.058225299170672526,-0.10425142756553794,-0.05406839882928894,0.0658620701699805,-0.15402724004494103
0.532,-0.031510657194759595,-0.02493515345223913,0.006573576039991053,0.02912157693165828,-0.01988618646559516,-0.01108967851535912,0.04751543906923396,-0.061602766228515064,-0.10406594061013548,-0.05383132648307147,0.06735846118946386,-0.15404503538995193
0.534,-0.035358128150278056,-0.028218515394050594,0.007138882621707128,0.03185156416239168,-0.022090318777484894,-0.011347220915531989,0.045476922488741994,-0.06470106467601092,-0.10583754877672524,-0.053836944078206765,0.06505943848410757,-0.1565323087669264
0.536,-0.0383851121041482,-0.0331268195133014,0.00525899583006087,0.03598460118083569,-0.02249457452184706,-0.013995404091465031,0.043265765860976246,-0.06378363836397385,-0.10779008319403802,-0.05396664366010055,0.058857008444504824,-0.15821038927981257
0.538,-0.03835864624280056,-0.037121120292941914,0.0012382603048317843,0.038632585918465585,-0.020533140316930872,-0.017967550037963784,0.04288251055313286,-0.06052843900600608,-0.1094029101697528,-0.05406346688245321,0.05214929708814739,-0.15857029608783246
0.54,-0.03403274515639893,-0.03869401568945755,-0.0046832431602325045,0.03728137108880303,-0.015793753516898715,-0.02205777667702389,0.0438237586395859,-0.05990213371860673,-0.11206434553715323,-0.05405154265266317,0.04946845415229719,-0.16029109294591984
0.542,-0.026498026303994608,-0.03765372999216556,-0.011287435973902265,0.03246574179646253,-0.009352902329534556,-0.025159293822494697,0.04450635093101139,-0.06357137202182002,-0.11641387356643801,-0.05410201582448382,0.051586359385651905,-0.16420214757522966
0.544,-0.019121899905502594,-0.036658078559077135,-0.017885718274605562,0.02809525817009056,-0.0030265984421224894,-0.028217668310512194,0.04411766292106409,-0.06788258598822353,-0.12061802980977444,-0.054734904892203985,0.05446564266894886,-0.1676769147003542
0.546,-0.016899204957758582,-0.0404413599166101,-0.024095935062862565,0.029134824707768875,0.0008466092718009345,-0.03363559263228695,0.04235431184655102,-0.06908365130868405,-0.12216356018971579,-0.05639242486127872,0.05356380787819176,-0.1690326271562039
0.548,-0.02374008695946238,-0.04921427691438005,-0.026056983651883275,0.03701303632672327,-0.0015984428904172096,-0.039658051073790015,0.039065871576013225,-0.0674314517659109,-0.12011739010607514,-0.058418482210391365,0.0489373803174509,-0.16918595507508694
0.55,-0.03446751213932922,-0.05328654045123498,-0.019215957641358933,0.04415250837438333,-0.010385857992584683,-0.038785447925717496,0.03612079752440404,-0.06391000010677453,-0.11482699438688285,-0.058600616266414496,0.04630135206194388,-0.1675397509822032
0.552,-0.03386394078576663,-0.0408821669744823,-0.007128059703056603,0.03765667714145772,-0.016236270305989526,-0.026389415775662922,0.03851151424133686,-0.05595418103003393,-0.10566450776330227,-0.05366981489361412,0.051623633184391185,-0.16090384564352742
0.554,-0.01397941411163188,-0.014027244540982375,4.101469059712202e-05,0.015005920635950675,-0.00981076241916288,-0.008447007644023723,0.05130054913036495,-0.0382497786342969,-0.08981595318935803,-0.040683201467185126,0.06436202329757651,-0.14867607168316066
0.556,0.011100444221002839,0.009892853892730447,-0.0011078958678813543,-0.008635896770171335,0.0038552431011242613,0.004139218705448372,0.07556885990682373,-0.0040677935239857915,-0.06357458984263094,-0.019520700286492856,0.07790765180203418,-0.13628727976219634
0.558,0.0191127490334389,0.016075705394103412,-0.0030302089459840185,-0.015829426458955614,0.009861882569482266,0.006960998876381521,0.10925861800544459,0.05544099511599657,-0.02325756876522245,0.007107249472135595,0.08693850802965328,-0.13174433197102356
0.56,0.007094276995809081,0.00681482022777183,-0.0003496847848760634,-0.006284862921888406,0.003531094091118727,0.003596777589232912,0.1531468099001635,0.14986028913436386,0.03787189716522908,0.039975964064380226,0.09469034785723227,-0.13789465322229613
0.562,-0.007784991756804912,-0.0027250484005126793,0.004901795986526513,0.005190828161060788,-0.006338303428641442,0.0010683345711040753,0.21340253198694772,0.2838303899545977,0.13085867871112028,0.08825646874029996,0.11263717637047505,-0.14761937093823135
0.564,-0.015256239840930684,0.001204227099481106,0.01614619456346253,0.007674454995526302,-0.016483194122604808,0.008306361641953867,0.2923394029288988,0.4455580806606403,0.25887352066158986,0.1612212131335149,0.14964623303144892,-0.14927007949374946
0.566,-0.022264836367779116,0.020221236885442213,0.04208425833582617,0.0031670163116338085,-0.033737359848227066,0.03025075221213818,0.3767659774790941,0.5972363803263508,0.4017982655664861,0.2543681947023932,0.2024591368117501,-0.13714716299103658
0.568,-0.03356692325934892,0.04494186534584562,0.07825600859161037,-0.0029023981156298217,-0.057283594258529476,0.06004977554218971,0.44554365648319355,0.6925558653810878,0.5260870757865257,0.35107619118545674,0.26186118485109383,-0.112619473554589
0.57,-0.040693751899352,0.0657598857176213,0.106469302718564,-0.010515789737345323,-0.074275874250118,0.0845734796829289,0.49134617011811993,0.7173019283785382,0.6139197693126215,0.4387645776949107,0.32472530742251066,-0.07763684017665508
0.572,-0.03403732525169234,0.08005890861228784,0.11421380971143716,-0.022112732535089052,-0.0749227306303776,0.0963361234211368,0.5210934641520333,0.6977699833370138,0.6703211484405571,0.5153977664527076,0.3918887711747187,-0.03511291958475399
0.574,-0.013042541218577803,0.09052647352499905,0.1035033759038896,-0.038318556728076304,-0.060074791626881396,0.09644597512533847,0.5326519562665921,0.6605486265816604,0.7037047364006546,0.5820700342520875,0.45975779584117216,0.008100317970756237
0.576,0.017993079480549387,0.1043159469826998,0.08597586061459288,-0.06064623815562922,-0.036429209992146855,0.09357098735650976,0.512799427715068,0.6065117907325724,0.7182751960109856,0.6431662431741159,0.528538281810552,0.05115004904821914
0.578,0.05819635811014619,0.13487083413004647,0.07632762322823176,-0.09584126215437729,-0.01099038373547402,0.10274586521737024,0.46079022796919406,0.5295679926295298,0.724562094133617,0.7147619680097306,0.6164099385816584,0.11144995763838943
0.58,0.11166963409399087,0.19324627377797665,0.08164425366816244,-0.1517454938036295,0.013931494337402935,0.1342202366260228,0.3867828521443473,0.4311724550826516,0.7372388543636333,0.8169858868673396,0.747707999944499,0.21317784777576063
0.582,0.18180122583535835,0.273447895570097,0.09210114342042507,-0.22696565998571805,0.043877419400386725,0.18007711901462342,0.28719770692811897,0.3082078316047356,0.7579203537429454,0.9521650136892282,0.9241486551949357,0.36032879139373314
0.584,0.2668087934451466,0.3571550424478105,0.09063203400593853,-0.3110538433136843,0.08660400372166048,0.22201658629357413,0.14975065939594967,0.1482640808285953,0.7703196401202812,1.1007616230538182,1.1228301563210057,0.5338083600181293
0.586,0.3600888222985199,0.43483537096859276,0.07444886644374726,-0.39600897207133107,0.14092151900862313,0.2534418514560316,-0.024876384214395572,-0.06355652709908959,0.753244487510865,1.242953708235448,1.3261749857152294,0.718395367077457
0.588,0.45214100179554295,0.5119832996952872,0.0592154422257889,-0.4804185524990291,0.19456476115559337,0.2845853911778131,-0.23534513343971294,-0.34567476900272515,0.6927561611963874,1.3756314749674128,1.5401812046491925,0.9192840496193528
0.59,0.5363614998814688,0.5963500664957484,0.05961176487209939,-0.5648707992156189,0.23676800785940658,0.32671273772524906,-0.5048487453847557,-0.7139532960425244,0.5850637726043605,1.5046675920997818,1.7786071782487933,1.1483180341436203
0.592,0.6158788235598583,0.6866876308404963,0.07086245728266828,-0.6498141143888585,0.27127239562351463,0.377481528598848,-0.8667927974693526,-1.1612796769256908,0.4339543995652815,1.6275808170786268,2.0395450036448577,1.4043586535632093
0.594,0.6981716605755621,0.7697782388904771,0.07171081167895389,-0.7323597225498214,0.31240237076243943,0.41993189215047266,-1.3171398193496857,-1.6490784766023208,0.24425264849607267,1.7271163326161867,2.3002113209923527,1.6698090311353904
0.596,0.7836888745100936,0.8283234751431084,0.044386412084201854,-0.8043409723204745,0.3691578246003849,0.435885633928374,-1.7849533001087965,-2.1165529647188897,0.0204246509252457,1.7801104531801373,2.5271775821194007,1.9201776866683715
0.598,0.8699704425823948,0.8613226583857332,-0.009157680274454929,-0.8641046330086078,0.43885104901758903,0.4252843280745213,-2.164450709338681,-2.495639441127846,-0.2188992051672367,1.7782821977235395,2.694374457133773,2.136700958192584
0.6,0.9624365971024927,0.8914708772461263,-0.07128413036911148,-0.9258107490636602,0.5151761421521036,0.4085373720867982,-2.3973929172490753,-2.7379764407870297,-0.4295919705156789,1.7462260401748362,2.802340307032298,2.3155042849637635
0.602,1.067367315437746,0.9390925124536454,-0.12811109242855306,-1.0026751775681044,0.5950380320661426,0.40332386873326137,-2.523102194024572,-2.8450649303575797,-0.5617198899015675,1.7314274621040213,2.8801257952163755,2.467560701374896
0.604,1.1784372103755878,0.9949650401882472,-0.18294962004086884,-1.086312264084147,0.677763724633007,0.40386109179250423,-2.626937130675943,-2.863673682711649,-0.5976479322210868,1.7646808463313717,2.9585646380283417,2.607227976290945
0.606,1.2792203816648724,1.0304903106319752,-0.2482462954721774,-1.1537361866016158,0.761320515881135,0.38976563099129136,-2.740711625560199,-2.843645248822309,-0.5713270087933658,1.8254814837606734,3.036157937765361,2.735340209050411
0.608,1.3517907050829243,1.0295297260974172,-0.3222002846648671,-1.1884054618184168,0.8351258106434042,0.3533835353172795,-2.81559157141317,-2.803782678385809,-0.5475716987579885,1.8507656468237077,3.073096605990205,2.830558603769787
0.61,1.3819665226947173,1.0025895643670526,-0.37980563021298175,-1.189465171309781,0.8791168770287325,0.31167622540227463,-2.792399304715895,-2.7353370573202094,-0.5702320081087145,1.789506866095583,3.0243548284559725,2.8625820719451496
0.612,1.3686904299163412,0.9723279706416489,-0.3969107390769592,-1.1679802680628857,0.8809357720603578,0.28774428359871773,-2.6725576947151666,-2.6306072394561886,-0.628863812719579,1.6474725708749567,2.879032565433712,2.8185739334777766
0.614,1.3224342721523263,0.9504872762036907,-0.3720942109972745,-1.134366535892844,0.8455217234822606,0.28865469146883677,-2.508070694062703,-2.5049085983136234,-0.6949423873164925,1.457530911615642,2.6555031462750707,2.709018240647085
0.616,1.240760357519209,0.9305013667711184,-0.3098395651419526,-1.0834811044413557,0.7737004739115477,0.30960286607368626,-2.3401195690360206,-2.39053428403885,-0.7871767112398254,1.2090315226553345,2.3562022920545207,2.5427914002601235
0.618,1.103741631650294,0.8975256053684156,-0.20558154959504824,-0.9982415722931142,0.6528006094996416,0.3454432381204868,-2.1689012100600924,-2.312470478510617,-0.9590897197783045,0.8513042324268106,1.9565047600069962,2.311288784495272
0.62,0.9161993330197965,0.8383993425149172,-0.0773646427131813,-0.8751598774186871,0.4945940396246994,0.3797492619402542,-1.981451485054753,-2.265165628474852,-1.20761903206165,0.38789224553579527,1.4606144510529777,2.0114095602575595
0.622,0.7330595706834802,0.7451666455284608,0.012331722409654512,-0.737556452272229,0.3585439647734257,0.3769812755343126,-1.7889699032104225,-2.208990739183914,-1.4425782931793427,-0.07986243511416086,0.9394854436523142,1.6713742546472221
0.624,0.6126945100567573,0.6206741269443408,0.008193251963339025,-0.6154172715043896,0.3013690964919209,0.3117854496709279,-1.6217097626300665,-2.1100249205385686,-1.5805024496977405,-0.44578063102883386,0.47386523241200224,1.3305408869074953
0.626,0.557081177866317,0.483594030736833,-0.07328332905977124,-0.5192523131202846,0.314881062689668,0.20270509879907558,-1.491505831359025,-1.9851362877212302,-1.6286133942516052,-0.7002327338804525,0.07891401059543815,1.0001974788207837
0.628,0.5187943051739742,0.36025802143938324,-0.15845408021713725,-0.4390259297216415,0.338255245798996,0.09962934094965467,-1.3766739820259435,-1.873143056809207,-1.639807026684062,-0.8933049399061255,-0.26962865009697495,0.6730205593592596
0.63,0.4569043788828386,0.2676789764994006,-0.18917072499861248,-0.36238347136743226,0.32253017223245484,0.03916711588818422,-1.2510224759192297,-1.7726019267725928,-1.6267117508303375,-1.0338541124259735,-0.5536597167961644,0.36830739525106454
0.632,0.3718540525506937,0.20657146316918537,-0.16503184373473986,-0.28905557124677567,0.2679014374363235,0.02097698569139071,-1.116067113829028,-1.654326661151008,-1.567322177417707,-1.087302135108421,-0.7192263378277067,0.13190252744000705
0.634,0.29224027394471225,0.1672487528175195,-0.12456679749054611,-0.2285796398571815,0.2074223544822742,0.020843189297984645,-0.9946114259405722,-1.5165619795288559,-1.466075152196861,-1.0557383690401678,-0.7633024471359098,-0.017229487244225676
0.636,0.240094893999052,0.1356258024126857,-0.10417080842968902,-0.18602302971610135,0.17026251202848844,0.014128227561655384,-0.8991511223363033,-1.3821522456954847,-1.3593490052967911,-0.9962261522454363,-0.7539763382951528,-0.11207474771189921
0.638,0.21116040172592493,0.0980408622962011,-0.11312558573863855,-0.1530253826538975,0.1597822772016168,-0.009929235813918373,-0.81764716662412,-1.2576166663746116,-1.2681288308130572,-0.9537402516446326,-0.7524000527877637,-0.19724610018567626
0.64,0.18391809271720394,0.050570544523381125,-0.13350715185449585,-0.11617232308746722,0.156896090067571,-0.04401481124805054,-0.7312557283313147,-1.1308007661308157,-1.1809362451692227,-0.921051173086095,-0.7594267838665573,-0.28263464826068474
0.642,0.14658358917047346,0.004373810376467657,-0.14229029809525323,-0.07448579770713776,0.14363530750506256,-0.07119503915649643,-0.6377034389580154,-1.0003214597667656,-1.0847360657952951,-0.8739713174638803,-0.7490929028674999,-0.3487008365750212
0.644,0.11251802708091863,-0.02540842260407168,-0.13790300753955076,-0.04265445728008891,0.12488208815452487,-0.08338033997856002,-0.5500382718764584,-0.8808244939209278,-0.98649592465884,-0.8108237506848326,-0.7156815006486802,-0.38239457735231525
0.646,0.09969168820639542,-0.03915858040385582,-0.13891608698252356,-0.029933024562589245,0.11883974942181973,-0.09012859332888778,-0.4757082680644136,-0.7788873652106544,-0.8964339361605924,-0.7431799828080439,-0.6708830981989815,-0.3913793503531644
0.648,0.09878707107267191,-0.05499596072340854,-0.15410354473096616,-0.022018923175143104,0.12572368449777757,-0.10503615078742075,-0.40726692465098446,-0.6838229454056681,-0.8088021165801763,-0.6727051681830549,-0.620613563344287,-0.3904014782692495
0.65,0.08013820176113073,-0.08638490145798067,-0.16695606194811932,0.0032995122796078,0.12229742653049827,-0.12707089223591017,-0.3358416324270532,-0.5874423207826688,-0.7125900427093828,-0.5954603160236555,-0.5652038953032976,-0.3902853913177478
0.652,0.033630235995070645,-0.12433326408067755,-0.15810691614040048,0.04608010535860051,0.09360846703118297,-0.14240526240128448,-0.2645245329803905,-0.4961413091490408,-0.6116502765474617,-0.5170627993067218,-0.5102658264447073,-0.397056211225079
0.654,-0.01596117406877835,-0.14922428535395227,-0.13292352082951414,0.08332774951459446,0.05545226869283099,-0.14348452679398238,-0.2035950667858415,-0.41776815001918527,-0.5221156973260768,-0.4494906660692591,-0.462630141447339,-0.40856988387254545
0.656,-0.03825653417257657,-0.15389758964253863,-0.11518947302263888,0.0966051121916805,0.035849102274005736,-0.1377533608098265,-0.15767616779050225,-0.34995105051902753,-0.4539251714110077,-0.3977184866164363,-0.4223306269154134,-0.4153507586086417
0.658,-0.030205399514854597,-0.1468195571270832,-0.11659856093386194,0.08949896870218384,0.04210089819826172,-0.13491763307402135,-0.12031592545730699,-0.2847643439778431,-0.4021409908895917,-0.3567323694419674,-0.38545099773585484,-0.41201130894663235
0.66,-0.014957562588360415,-0.1383037195127495,-0.12371605182658567,0.07860976166698685,0.05481676308224132,-0.1337035043165654,-0.0793781495940695,-0.2174894241344832,-0.3547623454774894,-0.319148787454002,-0.3493506745092942,-0.40175288980086243
0.662,-0.015765090697100533,-0.13295891638658797,-0.11730673727078968,0.07679827984319094,0.051678660002472704,-0.12707383860736454,-0.029449308812017086,-0.15156283949735647,-0.3064462114392496,-0.2827902509254999,-0.31427340951342453,-0.38830536434356844
0.664,-0.03693234880724793,-0.13246341281152457,-0.09501529082102288,0.0865329180573162,0.02917887757241166,-0.11469560664923001,0.02111582603900992,-0.09743359313347884,-0.2631755268594341,-0.2515969982594922,-0.28374108767145434,-0.37207344194641695
0.666,-0.06542136148752234,-0.1363969341429375,-0.07016787384549825,0.10175156925780267,0.001118021089268773,-0.10338364107445495,0.05968312422002821,-0.06156461102750038,-0.23174388678012728,-0.22909137734423426,-0.2609944275341099,-0.35370268453128273
0.668,-0.08409730156692775,-0.13914035498750713,-0.054510486458414234,0.11199755318354683,-0.017135792648032742,-0.09702904401131063,0.08308435917810895,-0.03458338991080103,-0.20834952670727996,-0.21110013216411358,-0.2434637729919606,-0.3344156750811725
0.67,-0.08541422018947652,-0.13173776300425755,-0.046268012266964156,0.10913770245950469,-0.02200701538528385,-0.09037496897176918,0.09661106719449465,-0.0010525831509167938,-0.18243901247722907,-0.18812026568636894,-0.22393485906060007,-0.31382022302265944
0.672,-0.0771653007532274,-0.11121995494079902,-0.03424318627312736,0.09495402363346135,-0.02311027094148649,-0.07509045221423287,0.10445155614567145,0.034675996988485454,-0.14967633930572266,-0.1566282864878807,-0.19822626595897824,-0.2920556754449089
0.674,-0.07412625743083599,-0.08774983379780528,-0.01374163692148389,0.08142301776150641,-0.030880128966521914,-0.05266763373668772,0.10759648836268713,0.05138147547837937,-0.11739833687425158,-0.1250985548084927,-0.17065066992395353,-0.2732715415814432
0.676,-0.08208714122478525,-0.07742585101804306,0.004699913936245536,0.0797211546670108,-0.04344448959986959,-0.03679717991390856,0.10774251090681913,0.04575461225852503,-0.09758124305412781,-0.10651044990971341,-0.15072832533872133,-0.26291768269141075
0.678,-0.09251016267487766,-0.08503284888668336,0.007557328893716795,0.08850038724400394,-0.049861982279299076,-0.03810994608544686,0.1083679937391846,0.0406846541753656,-0.09466477008323486,-0.10559668233336654,-0.1435213928345772,-0.2611836351011288
0.68,-0.09489488589391878,-0.09867369232840625,-0.003761609274497162,0.09666062575310057,-0.04545759079769132,-0.05067196361316934,0.11251918337240424,0.05403350018771523,-0.1001044547105949,-0.11440704484659403,-0.14497526062754146,-0.26293049998712464
0.682,-0.09006378705143507,-0.10471900955593494,-0.014690277303387816,0.09747458850347038,-0.037774203124650706,-0.05980292356882875,0.1210390240662194,0.07878492112376188,-0.1010369672212095,-0.12093389179814969,-0.14775902416756043,-0.26462191346980796
0.684,-0.0876248057421224,-0.1029689676755197,-0.015370158732091375,0.0954039283477208,-0.036650317656741406,-0.05981385197842158,0.1327824315605771,0.0968167759880499,-0.09394836338196494,-0.12080133131423441,-0.14809599098879597,-0.2667435687752761
0.686,-0.09394726408571813,-0.10273724791678156,-0.008783276552505836,0.09834867446867165,-0.044042790157653486,-0.056996942890522505,0.14527128642771464,0.10039378134522196,-0.08606434843971889,-0.11815919300130713,-0.14586822978490838,-0.26925433992521874
0.688,-0.10569373116310089,-0.10840910973876237,-0.002698006862449941,0.10705118557818694,-0.05418316829739543,-0.057651316775656825,0.15490153766379033,0.09646410844718488,-0.08417605089951372,-0.11721692553529381,-0.14198377586089267,-0.2702115606272245
0.69,-0.11360637755947436,-0.11513508503506699,-0.0015240760740359946,0.11472405917470097,-0.05943013381646219,-0.06095984138527175,0.15871715625885757,0.09468093469317772,-0.08688309174579119,-0.1176355103738665,-0.13720109148875492,-0.26944874727857976
0.692,-0.11117503831840325,-0.11617059001404414,-0.005002819225214776,0.11483543921923416,-0.056083651175448994,-0.06279330973928152,0.15691149645972483,0.0971530821954618,-0.08782540638388704,-0.11737483419001254,-0.1323550437252267,-0.26886922602898555
0.694,-0.09972586647953334,-0.1091084853944036,-0.009388616829273971,0.10631603408130498,-0.047030155053422174,-0.060649513450227115,0.1521479403039775,0.1009290848059867,-0.08258656373101102,-0.11543183159360274,-0.1287944201354085,-0.2684975045877165
0.696,-0.08649190632673055,-0.09718340079975009,-0.010690393077120197,0.0935906185617963,-0.03884136876293438,-0.055073303415280286,0.14646610760936893,0.10532130569257919,-0.071640523362205,-0.11161649207811221,-0.12735758600903518,-0.26569000380107305
0.698,-0.07929522475792976,-0.08709059915924426,-0.007791575138794169,0.08413904738592527,-0.03662082088346102,-0.048592031454414146,0.1406319503197457,0.11256581226620122,-0.059087851937684406,-0.10630053174116125,-0.12714736978694785,-0.25909855035966395
0.7,-0.08181780093427643,-0.08381927714272897,-0.002000262574081286,0.08358447438642898,-0.041424996554581206,-0.04359183221741811,0.13684536118600743,0.12306281933015412,-0.04968625704200927,-0.10044111097914435,-0.12646138063978116,-0.2513009887949126
0.702,-0.09106420105094516,-0.08705300099151636,0.004009706399559227,0.09079725884421062,-0.04985582364301522,-0.04143587912783814,0.1393038753876696,0.13344784076123942,-0.04561030692907021,-0.09570950398294023,-0.1244598986906535,-0.24615682423715962
0.704,-0.09946124315676937,-0.09241719101869007,0.007042676377300343,0.09874399356645361,-0.055957843003427446,-0.04227264913665738,0.14946401481594018,0.1398700285385014,-0.04521496836189138,-0.09510191179927913,-0.12154876698666386,-0.2447975820442258
0.706,-0.10145300487583674,-0.09581301601660537,0.005640146847651075,0.10134000472725192,-0.055880394379871606,-0.0449098117546098,0.16256490060706005,0.14188537500972687,-0.04577634842034507,-0.10070813372322743,-0.11894557019529717,-0.24604669942667007
0.708,-0.09757142745711589,-0.09675081520268773,0.0008214385036168996,0.09857180059178283,-0.05047561440726995,-0.04809842923032766,0.1716889477449851,0.14229910524480915,-0.04637254503694474,-0.10898782206475993,-0.11829678588898343,-0.24905173722052742
0.71,-0.09185797338062002,-0.09744813648906925,-0.005589854664633215,0.09467879682531599,-0.04329939434611219,-0.05167980801274725,0.17449214992339307,0.14361524428968703,-0.04638835844816182,-0.11215296703576856,-0.12026995767010047,-0.25283935366188787
0.712,-0.08775470207877092,-0.09983893578398989,-0.012106476899793472,0.09354211679322921,-0.03769739399732082,-0.05598876923523174,0.1741935008653655,0.1456781404141134,-0.04384430276185271,-0.1065146533681302,-0.1225800909144299,-0.25531767663909727
0.714,-0.08644250501098318,-0.10355732182388662,-0.017246445906871383,0.09582231296427784,-0.03529045848340995,-0.06043743785390661,0.1744495484074278,0.14709538165074273,-0.03830442201309487,-0.09649643367731266,-0.12184370016410895,-0.25529730881954515
0.716,-0.08662414024404766,-0.10562282824941613,-0.01934803068151463,0.09844767217488216,-0.03543382581352584,-0.0629779158691223,0.17520901111436732,0.1483722179132511,-0.03285616356406174,-0.08962956458598177,-0.11824746678533662,-0.2540071150781532
0.718,-0.0857706985430449,-0.10370888357324984,-0.018469987756036973,0.09767937407803193,-0.03572368488025794,-0.06245137065739477,0.1743964633052892,0.15230614511667181,-0.030040043199748467,-0.08908572990973784,-0.11553853258072593,-0.2533260074357197
0.72,-0.08244373936789792,-0.09984937993845341,-0.017857207944439988,0.09344231644677692,-0.033726477608424905,-0.06104577476684423,0.1721423508897688,0.16042777293994975,-0.02810283257015668,-0.09117334891475191,-0.11629124538932561,-0.25367064192191696
0.722,-0.0778628935623744,-0.0981026118122965,-0.020331231467828673,0.08924985575966445,-0.02954219465143211,-0.06174027682721097,0.1716104615078489,0.1706405307396691,-0.023469604286723927,-0.09007277833062036,-0.11937674089992513,-0.2540955210714005
0.724,-0.07611482542255157,-0.09947613495660569,-0.023179835035461952,0.08857247706618808,-0.027323537049736387,-0.06379648241398567,0.1755188238558411,0.17989240198013284,-0.01487093597343704,-0.0837756876743816,-0.12157728142440619,-0.2535100957131016
0.726,-0.08095593170485989,-0.10125353308504996,-0.020280591223182695,0.09200159995816437,-0.03181069893023335,-0.06324224464551598,0.1828455365949025,0.18726263741765722,-0.004380351834999765,-0.07482514988042778,-0.12063397802217876,-0.25172654434722025
0.728,-0.09018726381863656,-0.10032480649626128,-0.010486116281003984,0.0964184087089699,-0.04171832635312608,-0.05804080496545749,0.1900242357331744,0.1929899563808928,0.004015644419494409,-0.06763553709618814,-0.11688426766352976,-0.25010896403621413
0.73,-0.09686611055856038,-0.09667081553662903,-0.0001992261919191422,0.09789472367984023,-0.0502065339040371,-0.05108528540346321,0.19490687515043073,0.1969482880551673,0.007731318397234647,-0.0650282144683659,-0.11188144213234195,-0.2503115936155178
0.732,-0.09855440289263184,-0.09374328725640987,0.004747209920753914,0.09694950065179982,-0.053685002962102796,-0.04680004406469291,0.1980570648239601,0.19970619995732783,0.008778820098482036,-0.06546164803498056,-0.10662872511421459,-0.2514673061541944
0.734,-0.10045220537556057,-0.09422725902287804,0.006521360190300074,0.09798234305829566,-0.055989701497615056,-0.04556160889807768,0.20093222131862226,0.2031380605371191,0.01176761035330469,-0.06503838176254897,-0.10226355803078206,-0.2508784568846522
0.736,-0.10722318412625098,-0.09626661726702325,0.011416776155991796,0.1025616084592771,-0.06203813496732878,-0.043547034941999845,0.20491793526266913,0.20906572650460306,0.017603779744793567,-0.06270554259262655,-0.10025669890677077,-0.24842349067640368
0.738,-0.1166677608347434,-0.09663060161505777,0.020458528402891647,0.10756285003277417,-0.07076294450392716,-0.038645813326861116,0.21088114088382634,0.21850710588487143,0.02217537387707955,-0.06064696394369002,-0.1004443515896404,-0.24720316958541683
0.74,-0.12283081722637601,-0.09597909237279338,0.02715531397597332,0.10995606930775037,-0.0760653245843109,-0.034381572980629965,0.21676254398053765,0.23132856598071766,0.022493330035440108,-0.060100856342345646,-0.10109558649820947,-0.2495736001632637
0.742,-0.12158140814376703,-0.09768032846280038,0.024175334012423583,0.10952627327307116,-0.07291657066505004,-0.03643604166379685,0.21767705625960324,0.2446054142610216,0.020837462356149177,-0.06058649663228418,-0.10197312748393937,-0.25527724522743833
0.744,-0.11333891546267877,-0.10298199412430109,0.010643936350945068,0.10765850607089009,-0.061999576883133616,-0.046304675723034774,0.21233043023189999,0.25272633139934336,0.021583184843585804,-0.06281122097906673,-0.10519246256984045,-0.262771464472308
0.746,-0.10299296625974332,-0.10957084815469703,-0.006486524951451493,0.10588907511767208,-0.04942265617364895,-0.05915516909463899,0.20659736769145876,0.2525152548452377,0.026353366503575407,-0.06838330208988225,-0.11201827203848455,-0.27034207079352723
0.748,-0.09713158558902904,-0.11437624908572065,-0.017554655234950266,0.10569846966954695,-0.042224367688005124,-0.06769732971399235,0.20671176610299696,0.2486262366125381,0.03354315080507395,-0.07544255813844,-0.12024351515118706,-0.27626916290477777
0.75,-0.09999115411140276,-0.11693787854800627,-0.017476708777933055,0.10878089225553833,-0.04390073135772794,-0.06845246756807839,0.2119519769486421,0.2503162636916962,0.04093343982826258,-0.07785901242268929,-0.12570649107974793,-0.27932840766321243
0.752,-0.11024854642882967,-0.1191709938468409,-0.009245987491932058,0.11547198964852365,-0.05250151376109027,-0.06441769027853457,0.21723645606537378,0.2612965386317452,0.0469040859225777,-0.07220477833131032,-0.12624594325963406,-0.28013091005759705
0.754,-0.12143135061653394,-0.12203513465953111,-0.000555081100487362,0.12278513648235083,-0.06178671697071309,-0.06116314605556404,0.22026515709511144,0.27641006866337353,0.05056654721326432,-0.06314428704720924,-0.12402241620175505,-0.28134006468449746
0.756,-0.12715035736182903,-0.12376074672666725,0.003583404104443939,0.12642218617462947,-0.06616965920954788,-0.060714352810688765,0.2233413677490726,0.28991892938832087,0.053432373443300644,-0.057302014066448206,-0.12323755190273625,-0.28521046209849193
0.758,-0.12624206983234237,-0.12165846654726375,0.004657545223026527,0.12479521410742267,-0.06570811267127143,-0.06035921580809041,0.22927132114199097,0.30270186102371344,0.0591921211253809,-0.05404623595723628,-0.12531064920094967,-0.2912839036803705
0.76,-0.1223319790900362,-0.11550279842476181,0.006762125055632761,0.12001140246315568,-0.06462248167577886,-0.05723260142000564,0.237806339649268,0.318604704316429,0.06883469711736385,-0.047868913676884534,-0.1278086448419075,-0.2973120896451685
0.762,-0.11869062011159687,-0.1084795311901668,0.010160763824728844,0.1152461633711938,-0.06476033349384389,-0.05244670487103916,0.24648645281365808,0.3370066639799495,0.07832070867718872,-0.0383736824829404,-0.12820111304001164,-0.30164708371815396
0.764,-0.11486857951786456,-0.1037300762058852,0.011293430201367223,0.11151658418941633,-0.06361533189080683,-0.049357476392048696,0.2536250671649084,0.3525613092154472,0.08413034380408783,-0.0316025650644564,-0.12646981850110753,-0.3042814631644998
0.766,-0.11001251399081301,-0.10113201919789346,0.009401246910862929,0.10800377931988692,-0.06005955410436571,-0.048594080050019625,0.2598152292300569,0.36175326340198544,0.08943855535840098,-0.03057337420655324,-0.12401056758137347,-0.3066566891755852
0.768,-0.10676068987631757,-0.09906020094406877,0.008621997401516757,0.1050917826385329,-0.05764230319574803,-0.04758966365435205,0.26659005351176485,0.36707202195777616,0.10088375357188803,-0.030392360590168185,-0.12207374080638378,-0.3109053572295281
0.77,-0.10730137503799023,-0.09710894079882117,0.011316170379848842,0.10382270865872449,-0.05904321199732261,-0.04489150848835455,0.27417255648098726,0.37382288988721446,0.11838252191413826,-0.02574672891034614,-0.12121769867797706,-0.318318793222177
0.772,-0.10830191883100672,-0.09469641214415397,0.014569178890187048,0.10254696211495644,-0.06153263838212553,-0.041340791894255144,0.28178806517979155,0.38522281281266896,0.13375711391383513,-0.017973632463958344,-0.12073923969793618,-0.32773220359545546
0.774,-0.10514948902838438,-0.08981494041741359,0.015840650453041862,0.09823890408591596,-0.061389587121401475,-0.03727963077638854,0.2894681081722602,0.4014888208433565,0.14199305898166661,-0.011296616790350461,-0.118742163877291,-0.3356926608652556
0.776,-0.09914932973935732,-0.08241378427277748,0.016764976483562066,0.09151993854464631,-0.059243185601996526,-0.03250559242085107,0.29800834134059295,0.4208210315233248,0.1471560563179183,-0.007122367514857451,-0.11380626632989477,-0.339310798053669
0.778,-0.09604855754802914,-0.07628438296593225,0.019580028058966532,0.08706488287876783,-0.05861687159651234,-0.0282819337120383,0.30759194189674455,0.44044583645095464,0.15514775800968764,-0.004719322046038615,-0.10726580323455834,-0.3396077676279141
0.78,-0.09885176021662084,-0.07449638217191508,0.024246339930381913,0.08814227240651329,-0.06174836230984401,-0.025897303429991046,0.31651867972130987,0.45820379962588415,0.16633385686929908,-0.003332305647202061,-0.10358372511256704,-0.341451352908872
0.782,-0.10520007280991357,-0.07592092519538393,0.02931700555277021,0.09303455089984661,-0.06762034892308319,-0.024801778590054953,0.3220233855154532,0.4736778080683781,0.17716602993806088,-0.002141110220661064,-0.10628017487211641,-0.34930198586947053
0.784,-0.11057217631014456,-0.0786721099359589,0.03199677767426752,0.09777946896118964,-0.07223838323106536,-0.02511711638493084,0.32409495623360157,0.48795403515687447,0.18613402818564598,-0.0005718477115385098,-0.1131548471043424,-0.3631399512366077
0.786,-0.11200863542285033,-0.08319377347210861,0.02896165855197291,0.10036916093728543,-0.07173316841758112,-0.02895097973290313,0.32663382155772297,0.5021601164201932,0.19513124179805183,0.001336788341352677,-0.1185261376532618,-0.37820853151185935
0.788,-0.11062766159386814,-0.08937968276091925,0.021542508822737953,0.10166570362121093,-0.06755463436123545,-0.035638319601126664,0.33340653837016165,0.5171868530226066,0.206083115727385,0.003996863061249031,-0.1193787320736746,-0.3875453103256066
0.79,-0.11168283527416581,-0.0940401016888113,0.01804130831198999,0.10380703495342371,-0.06696101700325272,-0.03914946777192878,0.34535585303752037,0.5347693558107406,0.2196917378756087,0.008846775349844765,-0.1166446524036435,-0.3867843909313109
0.792,-0.1191428037724983,-0.09362638150197758,0.025778409721581345,0.10735451338709774,-0.07517816821351037,-0.03434922885261907,0.3615268184630154,0.5558844782313903,0.23576487983578973,0.01698659727039824,-0.11270661639622283,-0.3790103510104968
0.794,-0.130208204050019,-0.08774634515543424,0.04243041443949836,0.10993061589191991,-0.08881878953421803,-0.02309565648067269,0.37980943240324133,0.579048767874619,0.252322295393715,0.02715052250801011,-0.10890727824596247,-0.3721830171975879
0.796,-0.13859223202094478,-0.07913143772351922,0.05916594157416098,0.10937552904358977,-0.10016879598432461,-0.011304888874185508,0.39744250252610913,0.6028281944493642,0.26697647425207205,0.035884036439958245,-0.10395900879999959,-0.37046030748471714
0.798,-0.14198585508182757,-0.07137305881833611,0.07008402919947698,0.1071379145178923,-0.10586932826960735,-0.0028822350515221185,0.4127584257528766,0.6273612380719038,0.2798529037296258,0.04139548476753544,-0.09641957404618375,-0.3716105900017331
0.8,-0.1433651462691009,-0.066982998124593,0.07567270737310643,0.10653756150363843,-0.10862245123796853,0.0017460080319208647,0.42638983207435566,0.6520706722650752,0.29268644028845625,0.046180436870878215,-0.08912868282707628,-0.37274918651695194
0.802,-0.14561869997416274,-0.0662170368847958,0.07875906681434586,0.1084540704566559,-0.11161916310241692,0.00376611475238868,0.4400262721278639,0.6747997030896228,0.3055480464253708,0.05304167356674584,-0.08720476322067645,-0.37440215354762013
0.804,-0.14667065025862105,-0.06677586416861543,0.07953930251812674,0.10971452056823376,-0.11348975228672165,0.0043068436743949326,0.45400427189548714,0.6940279474466862,0.3161663339182833,0.059706358707524554,-0.09123228965253156,-0.3783112757590536
0.806,-0.14258138028165757,-0.06538654031897118,0.0770103907579442,0.10646786770227125,-0.11099781430592977,0.004624907654312197,0.46679443896722844,0.7105419568111143,0.3229293904739014,0.0612549186347302,-0.09602709783947008,-0.3840271673455265
0.808,-0.13529946193203538,-0.060506539252020305,0.07456260855626844,0.099313020832523,-0.10610095902013436,0.006966534561461887,0.47727933646517745,0.726312470923691,0.32884192107528265,0.0577035163321846,-0.09648248912226425,-0.3890100581330914
0.81,-0.13151029997288924,-0.053902108205109364,0.07737728434546316,0.09325679704446867,-0.10467182480350945,0.012181778877220467,0.4866522963320903,0.7424463877498785,0.3398939832584501,0.05475974130528688,-0.09305006295000924,-0.39133826997744736
0.812,-0.13396464892301807,-0.049893986647834766,0.08402845048753568,0.09257713956402125,-0.10823381394063909,0.01677110058147952,0.49663390263466745,0.759638807496344,0.3569150153211981,0.0561519265930023,-0.09115613502309906,-0.39188854562668674
0.814,-0.14035881891134463,-0.051748701626550334,0.08880866918281506,0.09761005293565367,-0.11371346623420159,0.01687025289558273,0.5064902167453307,0.7788336536253213,0.3730221152524937,0.05946978207821589,-0.09473432245559592,-0.3937789416374885
0.816,-0.14905335396452424,-0.05797772772942032,0.0913344432950479,0.10581845118248452,-0.12021531543295283,0.014476260628556364,0.514127249185478,0.7985050110163039,0.3820173355871814,0.06096520776007388,-0.10110724405690431,-0.39880663772404246
0.818,-0.16022802177427692,-0.06418222792368608,0.09600452070431602,0.11438126084696708,-0.12932525253421406,0.014666658451458047,0.5197032851569553,0.8139625268050523,0.38486514467936406,0.06123939620881253,-0.10399578103709348,-0.4047816578593287
0.82,-0.17271501758378247,-0.0683888429412167,0.10378316746245277,0.12191037949546775,-0.13992751202573622,0.01795727300858851,0.5258077748995048,0.8218440270282855,0.3862187696760115,0.06443814212715034,-0.10041288601902254,-0.40822336717011654
0.822,-0.18348200636588416,-0.07127953532550581,0.1114779199210526,0.12809198108857245,-0.14849160589163998,0.02078810352893264,0.534700393977905,0.8239244047597327,0.38906910373435266,0.07292275890386918,-0.09282174893693253,-0.4088507158089325
0.824,-0.19039956150031084,-0.07239304475038545,0.11764728684293724,0.1322649996678789,-0.15396127620064667,0.0222494065748213,0.5466129229120582,0.8265786561106456,0.3943514713360316,0.08417823302358891,-0.08554934410247786,-0.40887531758497697
0.826,-0.1937012661820675,-0.07069352985729851,0.12313515091865955,0.13361301571293718,-0.15789706938946832,0.02456904161430117,0.5590844122097293,0.8351884916588186,0.4022440626764523,0.0931424927789116,-0.08087368598981691,-0.40923016178690147
0.828,-0.19440996064412483,-0.06777607864740433,0.1268892254228078,0.13274453868340058,-0.1604145168536984,0.02758768004869114,0.5676379187320333,0.8473319684869448,0.4108836225433653,0.09624331917157493,-0.0789819387151225,-0.40959262476509534
0.83,-0.1929607921734258,-0.06649336803482545,0.1265305747302365,0.13147625056338288,-0.1599040035119855,0.028238973623374092,0.5695558833050265,0.8547574069106164,0.4157531341647136,0.09291329504594657,-0.07977479967617965,-0.4106797172404377
0.832,-0.18984712371860965,-0.06712534085880965,0.12261634055630105,0.13054070403696388,-0.1564226455839163,0.025829073017935893,0.5670393312502691,0.8537196568193949,0.41441241198987583,0.0850807323024108,-0.08285053026673657,-0.4130750737188955
0.834,-0.18587145372699182,-0.06708421379527266,0.11870228932856584,0.12866044872476443,-0.15224333284124025,0.023635447833912793,0.5648541001946155,0.8495594772495021,0.4106498756126237,0.07632703121277691,-0.08690022441878377,-0.41491627825421395
0.836,-0.18120363653603316,-0.06426326700321995,0.11695679930146033,0.12459812968711054,-0.14888894808551104,0.024201881423406596,0.5656308202677491,0.8497323594075202,0.41013565917558154,0.07083736841272242,-0.09011431834417558,-0.4137941736395715
0.838,-0.17582207588955823,-0.0596837035602808,0.1161924077591645,0.1193441100394111,-0.145958571605101,0.026146178634056157,0.5686417549286835,0.8556069416371406,0.4134281146841697,0.07122229543522507,-0.09096482828120378,-0.40994900909748117
0.84,-0.1713359610715727,-0.05573366723430217,0.11561914763713681,0.11529258107862073,-0.14367833376225536,0.027596219579305047,0.5720643404335218,0.8623416951252056,0.416362022967791,0.0759345918033067,-0.08935596971994476,-0.40529700288043885
0.842,-0.1710890405806576,-0.052831781671615154,0.11823584654961836,0.11405882318656951,-0.1448407659728265,0.030090138547433972,0.5753228281353342,0.8643227172384248,0.416031610905426,0.08061225261450652,-0.08656202334424261,-0.4000291529445673
0.844,-0.17766828456032863,-0.050059340322049166,0.1275895267427445,0.1160668137518862,-0.15257814072958678,0.03618677970494524,0.5789952060791423,0.8596159798640975,0.41413570761781837,0.08326714272387266,-0.08308912597385106,-0.39188573814820865
0.846,-0.1893469559066523,-0.04734959919682901,0.14199976642041406,0.12030406203522752,-0.16582669536581077,0.04505214476254197,0.5823016643355685,0.8505243353716518,0.4143384215797901,0.08578619244326502,-0.07841719522810843,-0.37916263549666485
0.848,-0.19895826024858232,-0.044671353887049535,0.15429865271536644,0.12331576862143538,-0.1776977421267145,0.05284298016778966,0.5816889632090576,0.8404186504046761,0.41684535297384795,0.08971300893936675,-0.07345271916147912,-0.36347346145773174
0.85,-0.19990320230449649,-0.041355176953248064,0.1585523206714432,0.12170777562658379,-0.18130153546627856,0.05672298591647046,0.5742434143446679,0.8304413354429313,0.41691959076153645,0.09311392527603982,-0.07019667220432485,-0.3482481070944612
0.852,-0.1945721630590789,-0.038388681627733894,0.15617912289240343,0.11727403013061719,-0.17789257010696105,0.05694118896969057,0.5628151406492051,0.8206834831221204,0.4100319428927895,0.09238433391787848,-0.06850775077370194,-0.33548203257169656
0.854,-0.19198535529010877,-0.03913709490207535,0.15286577413455166,0.11628345355334929,-0.17477341585557307,0.05481266224064395,0.5542056108932416,0.8122658128606977,0.39740616927185407,0.08621985528378838,-0.06638272579898251,-0.32575143369545423
0.856,-0.19603090109270052,-0.04525976031521387,0.15090272107477282,0.12178843522367608,-0.1751320982837627,0.050712679488671024,0.5507896134330831,0.8042999793084461,0.3846242101247816,0.07737424649461658,-0.06352942129110584,-0.3194874921225727
0.858,-0.20135735700483504,-0.052937327900491285,0.1487719294402872,0.12920002774213282,-0.17573244632889798,0.045744014761236636,0.5471893427248277,0.792022976226935,0.37488303832861913,0.07042596930187883,-0.06158530866414338,-0.31577704885243574
0.86,-0.20128244545912705,-0.055889131711349696,0.14597024402006809,0.13134357706672237,-0.1735436495659043,0.04283142626709885,0.5358335269642998,0.7711649616979651,0.36596403377380105,0.06850559496865916,-0.06046209200293792,-0.3121112471810831
0.862,-0.19506955151891275,-0.0524727656979211,0.14333212483007196,0.1263406944531941,-0.16905528181095783,0.04345532784933568,0.5138590077605305,0.7405934466160793,0.3548444856137684,0.07184614629654641,-0.056962799693047475,-0.30690070244763795
0.864,-0.18741859409538666,-0.046990237772540154,0.14128302068352686,0.11893138448793844,-0.1647273192308433,0.04585740753435873,0.4861636031273725,0.7017535377245976,0.3427392233561126,0.07797964937901487,-0.048029676661421605,-0.29924615936296783
0.866,-0.18329252610174449,-0.04298941342173374,0.14116288041830236,0.11439711449661834,-0.16326732082922452,0.04851134294277771,0.4622074854249025,0.6597057123325585,0.33320965029179234,0.08440856232375439,-0.034158085463911476,-0.2868182906166267
0.868,-0.18195439802404767,-0.038546637447471624,0.14399756394144683,0.1119856873744941,-0.16425234309437745,0.05206031936880895,0.4467217543723037,0.621939521574878,0.3264022037612801,0.09190018410420303,-0.018857558485097497,-0.2686420563072965
0.87,-0.17569629870829725,-0.030436374106434298,0.14539038656426667,0.10559989741669257,-0.1613880529635686,0.05588284412405783,0.4341432383234268,0.5929247877618237,0.31821557292725255,0.10256698515738362,-0.005132372667919585,-0.24795427244805882
0.872,-0.15817217283741916,-0.02042174813585137,0.13757198380573726,0.09200548628955282,-0.1482583698392315,0.056409983676120524,0.4156183875628526,0.570347115301894,0.30523411245209076,0.11486127268320952,0.007111386341645194,-0.22779069417301367
0.874,-0.13423987161316778,-0.013608418473101883,0.12047050636397713,0.076090930745355,-0.1281835496578239,0.05200636875076602,0.38987937517538235,0.5473755144222413,0.28784847908409067,0.12443075002292503,0.020020457604843007,-0.206897108349975
0.876,-0.11665514052130617,-0.011242655908583117,0.10542219827147285,0.06540910910196757,-0.11304609443394585,0.046927936752868646,0.3634634925134652,0.5189706539097122,0.26965720270461746,0.12950410353203962,0.03433783906940107,-0.1834890982978994
0.878,-0.11176212076461796,-0.009018737905536537,0.10281095105620193,0.061424913678235764,-0.10988778180207139,0.04693072266127282,0.3418024667400071,0.4856444402028075,0.25539877259787935,0.1316845263915474,0.047258637417795325,-0.16059632468424692
0.88,-0.11263811311248173,-0.0029135709464513265,0.10960914424451204,0.05880433371561472,-0.11288500272888016,0.05244390653656419,0.32358967191523846,0.45111349127137007,0.24637111588504662,0.13254964504119024,0.05463266557536564,-0.1450302501820169
0.882,-0.10899894696657628,0.0060323914934211995,0.11452043332700268,0.05276451008282543,-0.112077666559529,0.058842145279461376,0.3041786634855187,0.4178761675490827,0.2374754079504885,0.1323134853466713,0.056270583784870286,-0.14014584129243096
0.884,-0.1001863464157778,0.01319457880214334,0.11244268032885354,0.044885096229085784,-0.10607666975167641,0.06204866480902396,0.28238911869794314,0.385740984653528,0.22221331137654787,0.13041785002131337,0.05732068199798637,-0.14006500536617275
0.886,-0.09320831822925321,0.015433011662294325,0.10750422304925995,0.03992187582018701,-0.10077471130687371,0.061488545395718366,0.2608770646965338,0.3536059718099759,0.2005667190360851,0.12607686982757996,0.06239305712358946,-0.13412013037238532
0.888,-0.09085521236515566,0.014234298038493758,0.10412856693500498,0.03864319776275611,-0.09895877900318494,0.058795560059692435,0.2401747825916683,0.32141489168443865,0.1795497084165512,0.11953367141208818,0.0700567231571606,-0.11827319208051876
0.89,-0.08883145095784879,0.013263225544888018,0.10159716878145303,0.03762038064566168,-0.0973953325237021,0.055609859257508304,0.21716896508898523,0.28943684688607063,0.16464448122878808,0.11247097077131786,0.07475199938546542,-0.0994602870509791
0.892,-0.08331277428427289,0.013423793490297627,0.09670975292333513,0.03499294676157662,-0.09228369597651803,0.052091564871002444,0.190497598416407,0.256825604169941,0.15172332620818757,0.10580758257954768,0.07243826180989545,-0.08822105629410232
0.894,-0.07511560501655576,0.012250919608817426,0.08754723163607092,0.032272113685010206,-0.08310492401526849,0.046836090637390346,0.16343700058948674,0.2238125167779062,0.1312985074202959,0.09845858193524644,0.06413348365057372,-0.08868869240693128
0.896,-0.06720685617792421,0.007870023694802754,0.07520478727530391,0.03118281166195076,-0.07234605942948157,0.03899045428811472,0.14047250562929314,0.19450930442593137,0.10157341895652544,0.08962291823264792,0.05604182389244795,-0.09509137067553743
0.898,-0.06239171517937671,0.001561158623460848,0.06404674207334557,0.03195304602171448,-0.0641452317342867,0.03051576044513724,0.12318539673642252,0.17328407390144535,0.07269703413415231,0.08050640756932763,0.05482695713901923,-0.09763757130060759
0.9,-0.06224626662165307,-0.0036131799430787663,0.05888760561923021,0.03387972167537553,-0.061813372780794656,0.02516878762677776,0.1098187851689216,0.1583852806821303,0.0559506017823358,0.07270655777474656,0.060410508357160934,-0.09205778713571353
0.902,-0.06480504268743616,-0.005334779577660263,0.059878057449394305,0.03520913105766939,-0.06397902422538003,0.024789147750981573,0.09823562537562454,0.14341198021013107,0.051651701622155106,0.06672982784520225,0.06541457439594724,-0.08264567297389135
0.904,-0.06463922132370492,-0.003516981442595493,0.06140996827903231,0.03360469448841802,-0.06444307470740039,0.027160927326130565,0.08871696328981618,0.12550068999725514,0.050266900809122654,0.06276428329662677,0.063467147329203,-0.07677915047374399
0.906,-0.059083022154598965,-0.0007382580322476053,0.058342420541593165,0.029291386436521356,-0.05928017983733583,0.028128934821664512,0.08305817038636822,0.1082858370841696,0.04405298369615526,0.060822579564030255,0.05646288402191494,-0.07746888956300266
0.908,-0.05252641496903788,-0.0011382643031642345,0.051235955369716826,0.026582885231888103,-0.051892545184181744,0.025150674080693432,0.08128638163038693,0.09553500285029558,0.033559678345104864,0.05947127164315539,0.051659907185723275,-0.08065473706891317
0.91,-0.05060022656919192,-0.007132777399132899,0.04338847014395894,0.029233544848332325,-0.04738146346622177,0.01844201875989544,0.08000976438634042,0.08501009028894846,0.022444124287398115,0.056442394645470115,0.05197617711023031,-0.08008383076404131
0.912,-0.052768635998698625,-0.016075889311129975,0.036734844692320356,0.03509409701778653,-0.04580545260516134,0.01066972449218191,0.07461136836420038,0.07158766819041583,0.01099050381609242,0.050996611020068625,0.05222822522461146,-0.07448893124930725
0.914,-0.05376665330947816,-0.021577238408458318,0.03225250850238796,0.038141061396676335,-0.04417661413392891,0.005790086472844707,0.064010232739231,0.05521746868042067,-0.0026122860038575507,0.0443023153092606,0.0465719774363639,-0.06787778106703765
0.916,-0.049927646194222595,-0.019651283168018858,0.03028391178222789,0.03508908968172179,-0.04104241113794207,0.005884291844007844,0.05253818452952261,0.042076002892792515,-0.01725214018626682,0.03790891938447586,0.036503777995689,-0.06394162135891945
0.918,-0.04187288234269601,-0.012447015450596996,0.02939519140889343,0.02787247372495433,-0.03660734881311224,0.008986974863383505,0.04520672199140109,0.03588584939943267,-0.028977890247161693,0.03283570801546275,0.028589445065024168,-0.06356162506084474
0.92,-0.032554211559416846,-0.005131966670111971,0.027403475480029155,0.020450075797771968,-0.03118658603590168,0.011294332233394284,0.041498214048188375,0.031182900681168826,-0.03652514811501209,0.028888717155319002,0.026324053273265154,-0.06694655825209374
0.922,-0.02471025667183872,-0.00116215372354523,0.023555859230187777,0.015202305952629504,-0.025277417155122977,0.010708482423025563,0.03651341358679077,0.02006360000054668,-0.043353618201545305,0.0238746594312477,0.026676099928726115,-0.07452003745311031
0.924,-0.01943324865026938,-0.0017572991083715796,0.017689890411620852,0.012541584476269517,-0.01940138658099978,0.0068235571559692775,0.02840273289995018,0.0029408058419870655,-0.05291848003267148,0.014871314686277066,0.023935943628263057,-0.08438714770036507
0.926,-0.01583339478691235,-0.006905107122678491,0.008930713850745804,0.012294355312518537,-0.01334167055299683,-0.00038383298123572984,0.020679057097883254,-0.013045254952845937,-0.06416201243041278,0.0017323687402360786,0.015957576891907292,-0.09133067391243797
0.928,-0.01248783884785176,-0.014325786156586494,-0.0018443953762804657,0.01379699594152965,-0.0068652178912550245,-0.009196131790162841,0.016518918282562172,-0.023292475565060356,-0.07268384609358497,-0.011131835381334236,0.006236775607946395,-0.09132812411864949
0.93,-0.009362965603505972,-0.019736280318538597,-0.010377718379951975,0.015428914834377843,-0.0011125443619435778,-0.015780391556804108,0.015433461708807649,-0.0288483206973603,-0.07567555052693188,-0.017904675117423538,-0.00018337630263043445,-0.08614603999707958
0.932,-0.008188719352294037,-0.0200478644694004,-0.011835790076907503,0.015934085430386328,0.0011001688992214554,-0.0169231203712038,0.016276657605954845,-0.03280034226938224,-0.07497646628166073,-0.016511370234621257,-0.0016815086792049566,-0.08117782638582054
0.934,-0.01131698112977891,-0.01596127606053051,-0.004487960324146901,0.01616661568493417,-0.003147555715709311,-0.012199985151435121,0.01910160203632996,-0.0365985937559171,-0.07473117672966814,-0.010179223681329015,-0.00046323752191733424,-0.08011888291135397
0.936,-0.019603332571592164,-0.011967389534200547,0.008095376225597311,0.018558414230434913,-0.013401811007781823,-0.0047878155085773755,0.022906840724348426,-0.03943507890057472,-0.07671215514398975,-0.004547292325217755,0.000596682281067138,-0.0829774133667357
0.938,-0.030940130606133293,-0.012711328943405034,0.018977479113788453,0.024339392297966982,-0.024894588658461895,0.00030109570266982036,0.025050695313786255,-0.04032360142494951,-0.07960293801999177,-0.003469763153971955,0.0004800205697523141,-0.08690785205152728
0.94,-0.04148796094923055,-0.017755784850101344,0.024409297558612684,0.03137838591790549,-0.03310104029934439,0.001400749751545655,0.024640293643060467,-0.040076002256284916,-0.082293935261463,-0.006554988616536864,-0.00021191771475572991,-0.08797192389182977
0.942,-0.04826656243471578,-0.02221089343785117,0.0262857818796306,0.03589187062879074,-0.03729894649130135,0.0013900346702186463,0.02386225827591308,-0.04034311816077161,-0.08521867314978702,-0.010253549837318786,-0.0011810746274147571,-0.08449402656416989
0.944,-0.05058118914872043,-0.02358013579237604,0.02683025969004326,0.03674889580557088,-0.038524883922531,0.0019427399538747949,0.024371208329522248,-0.041466682580761485,-0.08845802624246057,-0.011470517661052585,-0.0031471149673905404,-0.07957430746265406
0.946,-0.04993671431207843,-0.024189063869145568,0.025538827143185745,0.036398736987194896,-0.03743384071260219,0.0011240347577528105,0.025298298372400302,-0.04248023827373365,-0.09052951817806666,-0.009877337030181045,-0.005918692682781897,-0.07812011761891131
0.948,-0.04862171128812325,-0.02561178195195081,0.022992564703499252,0.03679404076141582,-0.03545551638738837,-0.0013869514356391005,0.026340958219750042,-0.04208667934663403,-0.08929209713538537,-0.007208970821362069,-0.00703380671998614,-0.08093819344036168
