time,I,II,III,aVR,aVL,aVF,V1,V2,V3,V4,V5,V6
0.0,-0.0005265508965231401,0.0,0.0005265508965231401,0.0003290943103269626,-0.0005265508965231401,0.00021939620688464173,0.00278633182743495,0.0042782260342505134,0.0005265508965231401,-0.0008556452068501026,-0.00010969810344232086,0.00010969810344232086
0.002,-0.0035903707844943448,0.0,0.0035903707844943448,0.0021891326885878047,-0.0035903707844943448,0.0015325538613534173,0.01957313214263072,0.030104196503276275,0.0037878273706905222,-0.005867261955836006,-0.0008759750341190295,0.0008759750341190295
0.004,-0.011120621747619248,-0.00021939620688464173,0.01092316516142307,0.006663235967435705,-0.011010923644176926,0.0046970463573761945,0.06211908627271035,0.09548346705419909,0.012631557946968108,-0.017870328363073177,-0.0029502529542013243,0.003059951057643645
0.006,-0.02093785600373554,-0.0015325538613534173,0.019536617907829002,0.012568678464402492,-0.020171579073058832,0.008156821590481408,0.11917770628597574,0.1826762890880766,0.02649061302492275,-0.03194855957141341,-0.0056066128882407,0.006153493612032768
0.008,-0.027233099384330953,-0.004916442564260836,0.022666015500705086,0.017016072328720582,-0.024851666774610152,0.00830885607376283,0.15780300140920195,0.24118880465731377,0.04019478184266106,-0.03761764364939149,-0.006926611278538357,0.00790712775103652
0.01,-0.026888953642469522,-0.009799073555277144,0.017643801069017445,0.018598802761094036,-0.02250387109561618,0.003645421263528287,0.1603172740146302,0.24591071034746037,0.04828561497781581,-0.03213543468934579,-0.006467506943144163,0.006833739621860254
0.012,-0.022553964988762092,-0.01388187746525805,0.009255047254819617,0.018400300686248827,-0.017087282379563046,-0.002840369541728003,0.14310076395835733,0.22391158541515002,0.049843145003651085,-0.0240797628805711,-0.005534008655978492,0.004261503310583126
0.014,-0.018156634157971682,-0.015081590118537977,0.0034719757956742283,0.017446478535591028,-0.01291350500589264,-0.006734888781943792,0.13250654118931818,0.21424912188218073,0.04952426983834154,-0.02103496677628192,-0.004421785374000522,0.0031305694849723697
0.016,-0.014163963673998569,-0.013154534005421008,0.0011191737332678783,0.014909023673482687,-0.009592451113746436,-0.006803640706541898,0.13685649082057172,0.22660083483320734,0.05340104628722113,-0.021096186652208797,-0.0019662104053188903,0.005591866912894465
0.018,-0.008536670423655728,-0.009075914176227924,-0.0006281329229266445,0.009624803412475829,-0.004875997317099798,-0.0052838150096164065,0.14603867287693328,0.24486183084050106,0.06265368823342947,-0.0186110494608031,0.002078309530262165,0.01100613078406358
0.02,-0.00019633037763765163,-0.002829933758576531,-0.002733270067456873,0.0017338879032152636,0.0009745606255041054,-0.0035682697365327356,0.14924742905343544,0.2542867588255334,0.07283605714577361,-0.012359494464212811,0.006416589969063214,0.01597487668740799
0.022,0.008690191603587156,0.005888637296121657,-0.002808351695159815,-0.006927574425755226,0.005220257365315277,-0.00017251605636132443,0.14720648473947634,0.25643452669278155,0.08032360674226155,-0.005402817814788106,0.010440207785503015,0.018049850840098094
0.024,0.012968769638645156,0.014022917168904171,0.001102438588784481,-0.012619179282759553,0.004986754517132526,0.005454335727891203,0.14852569603932977,0.26218575003400285,0.08726600544442624,-0.00012471248840449019,0.01497053135621416,0.0187065277119457
0.026,0.008649135733971584,0.016735418848206143,0.0080911560109942,-0.01184338288131922,-0.0007857266188841037,0.010817504956972377,0.1584655431893036,0.276923614487265,0.09810096871423923,0.003949904637851381,0.02006109622440069,0.020762679837486083
0.028,-0.0022503067883519797,0.01387754740787387,0.015961441557238172,-0.00532250011863618,-0.010029711807120187,0.013954610859635376,0.1734582960543565,0.29559528647038735,0.11276679744017416,0.008553246444244145,0.02452540499339819,0.024653434782543854
0.03,-0.011753727228146504,0.01130018981324417,0.02257439728442289,0.0009967204312358248,-0.017852235927866226,0.015920291401349165,0.18568631736411417,0.3109226242799577,0.1264189379831548,0.014735512363118713,0.028061114180541448,0.029086782687133998
0.032,-0.012218626724464218,0.015076690377343766,0.026542540499683093,0.00017195335597634023,-0.020140250339654272,0.01913904951972115,0.19086373119642905,0.3211479334753036,0.13518639520374762,0.021797895009992213,0.03144831118190431,0.03280226245689369
0.034,-0.004142647685895154,0.025039773512764086,0.028514284720151183,-0.00859416924698902,-0.01781884009761813,0.024695562930987645,0.19062424086649304,0.32827760569200026,0.13978706137053762,0.02741201766539116,0.03494392809057626,0.03463453010540437
0.036,0.0038430851461043114,0.03373455810758948,0.02966788284369689,-0.017664976900527724,-0.015253321602466707,0.030161773450361723,0.1895032087647692,0.33438111712638313,0.14415567578625746,0.03029244629575036,0.03843009876313716,0.03489298016980511
0.038,0.00503968862132909,0.03299622478307095,0.028125542507471558,-0.018794068726068945,-0.01378830534148803,0.030209689377211035,0.19095557390433138,0.3409550253698552,0.15191651309292287,0.03236731382036716,0.04227896377580885,0.03621464823929091
0.04,0.0021648658529102045,0.023099069194249477,0.02113861419708858,-0.012541809838067365,-0.010708541975762839,0.022532355867739613,0.19503226686640107,0.3487640183637611,0.1638349032628477,0.03646087642966305,0.04665203662436645,0.04024280089794211
0.042,0.002104435588620292,0.014605296885245773,0.012517093955002823,-0.007470082050193302,-0.005760547084729574,0.013599349243899115,0.19969992921479948,0.3587359019284508,0.17772048950264935,0.04310092075416218,0.05095164407916569,0.04516641730744816
0.044,0.006901509771032458,0.01835495816339118,0.011353003747853092,-0.010830614927989667,-0.0032483210352317196,0.013612319757668127,0.2040836084430266,0.37198135878906713,0.19025849332946496,0.05078706543687988,0.05456942955493518,0.04835267929890539
0.046,0.013407350052090367,0.03295215887315961,0.019487699684400107,-0.02138094331965399,-0.0050841266467820615,0.023714722176616534,0.20918553028912434,0.3872200863412228,0.20009940094737658,0.0578847036646812,0.05766129060983073,0.04953569100802956
0.048,0.017430363727503555,0.04544294070911355,0.02803957596112259,-0.030433287824412205,-0.007951145312767817,0.03391104950307661,0.2161368159651598,0.40169717933361987,0.21002819276964,0.0640243999566755,0.061693950184341394,0.05102040263010264
0.05,0.01546027521525979,0.046342929892166804,0.03092656359982867,-0.030299665208112045,-0.01009074031772392,0.036544928973319755,0.22516199342180293,0.41553013447469356,0.2241935464216503,0.07059534576432097,0.06867158780962754,0.055899761178382246
0.052,0.008180279109463942,0.040741290694831137,0.03256726737688059,-0.02333046601170849,-0.013520950497935561,0.03553459726684068,0.23529384037197337,0.4307563388169923,0.24201641697670448,0.07919640711567526,0.07838414757732838,0.06468546427907897
0.054,0.0033281483627356657,0.04107924898614073,0.037730152281697134,-0.020382210837388053,-0.017447669427263716,0.03863006597293857,0.24359215772236023,0.44631893026156494,0.25731035424970594,0.08926043371618066,0.08754797165415214,0.07312731750382587
0.056,0.008472820506081686,0.05180500908725066,0.04331877539360506,-0.028283439258424206,-0.017298193042431,0.04661109423576937,0.24640670735383888,0.45827911027657237,0.2656242180866782,0.09833139868598695,0.0930211817286175,0.07593916549762422
0.058,0.021203786902076176,0.06573466403125244,0.04453590129042089,-0.042178094237269335,-0.012011310988814411,0.05429282991520585,0.24375907705080857,0.4652083005016849,0.2704663824269418,0.10495689982421522,0.0952326748482268,0.07344514450265678
0.06,0.03129220059003289,0.073507774999641,0.042247232508602156,-0.051735574728978356,-0.006593643943966249,0.0577311128164515,0.24135870904865248,0.47122679678624635,0.27956530015240333,0.11070372050257812,0.09813138296867109,0.07245414571501804
0.062,0.031389285192784465,0.07230292577229366,0.04106879593885124,-0.051581622762849715,-0.00649697281568637,0.05702431374130137,0.24569045956169558,0.4827737820783058,0.29605890400128093,0.11864950912467678,0.10552411958456653,0.07908980989648215
0.064,0.023297794885555376,0.06640090509299522,0.04357938863865665,-0.04482396683479954,-0.01210929348092525,0.05476597601550948,0.25651686772080634,0.501879888905142,0.3158233829957926,0.12952375590540055,0.11669717325855863,0.091335806114966
0.066,0.014918797552057456,0.06267617634403458,0.048635582254880655,-0.038906940004150764,-0.019056484155100264,0.05432001187927702,0.2668621753759888,0.5235023244739954,0.3331664464072187,0.14088768382458652,0.12670810678996508,0.10101258380583483
0.068,0.01193467911714982,0.06577505463440421,0.054824901663514475,-0.03891165507351144,-0.023596216131227726,0.05847295577318584,0.271823631701684,0.5407119640003851,0.3466028450111154,0.15080194857716003,0.1323967596531608,0.10357106620898078
0.07,0.014372207014999043,0.07553085727283178,0.061703888522574364,-0.044693610337829356,-0.02539645876454369,0.06696105058327309,0.27349303709568307,0.5511150694733296,0.3579626090631659,0.159578336136343,0.13583924900100255,0.1022962644719082
0.072,0.02195066094022286,0.0879109885661765,0.06587076608373463,-0.05422472291633337,-0.023272611573100347,0.07519045990306907,0.2754521566885951,0.557196889379585,0.3687459522402181,0.1677438927055187,0.1402178423029242,0.10231708645004277
0.074,0.035507335421001776,0.09873549834201943,0.06305063133007499,-0.06624754885199081,-0.014986754343918798,0.07885559660184858,0.2779400254074921,0.5633110885766149,0.380438501000094,0.17572446794104588,0.14633968892219845,0.10593343947784391
0.076,0.05064992260212024,0.10665125761812522,0.05644158522749364,-0.07810917748891842,-0.004201574255233716,0.0795472148654205,0.2802292470745112,0.5730903833987504,0.39529914847873915,0.1849635937444745,0.1545126261334218,0.11383267482242498
0.078,0.05959886665982501,0.11290847906062293,0.0542709592344987,-0.0860644498254458,0.0013880345641128526,0.08201363354915646,0.28189596942354644,0.5857281725842939,0.4126672689447594,0.19626499580021156,0.16455884952861766,0.12452557375815265
0.08,0.06092281494595693,0.1185371888163815,0.0583217184311049,-0.08938095060708366,0.0003246829379799875,0.08710962134892658,0.28174200622669404,0.5958355105880544,0.4279698513729495,0.2081150533138767,0.17409804818163552,0.13399298955716463
0.082,0.05991576316027014,0.12239752115508945,0.06254103344768572,-0.09044917627243007,-0.0019094588097608336,0.09110745453957815,0.2808165234953789,0.6015907574087135,0.43899029448777926,0.2186682066365246,0.18159347913758989,0.14093355610023856
0.084,0.06076771345681191,0.12369556038867908,0.06261788862457496,-0.09147873785076187,-0.0014727924303479859,0.09165940119685828,0.2834339003298821,0.6088082690208154,0.4492415679243469,0.22830530070487604,0.18898380880430887,0.14842821628010056
0.086,0.06367928985170616,0.1249774026244157,0.06084308118880265,-0.09349735064122057,0.00044186338126298724,0.09141657849836538,0.2907539990808778,0.6215915926330902,0.46274161182422696,0.23893591853520516,0.19820896409778693,0.1574259351175312
0.088,0.0676086084299718,0.1296203694034151,0.06129380712712206,-0.09714040463283467,0.0015502586874963555,0.09438813890332187,0.29805791721079733,0.6352021903237886,0.478992686707285,0.25146918462091516,0.20850057403291572,0.16458191710041062
0.09,0.07138256566002887,0.1376899765407326,0.06537625799437431,-0.10237150131349616,0.001073191793965736,0.10121823115519278,0.30110323332560057,0.6435824371893358,0.49461709468542875,0.26512291153274975,0.21878551106410252,0.16878702799614134
0.092,0.07306132105173842,0.14634076461007844,0.07256941942915097,-0.10783677845120461,-0.0012363255950131834,0.1096611167622802,0.30061471171387555,0.6473937737179052,0.5075792093420947,0.27863048115810385,0.22951269369411642,0.1738387601188055
0.094,0.07235392542865256,0.15305991369508157,0.08055125412536401,-0.11206472406587176,-0.004582216048561318,0.11700753832222674,0.29920534721560793,0.6501758803356111,0.5187826554368938,0.29094678682577185,0.24088901214982036,0.182493868219659
0.096,0.07250222075615445,0.15749198777779508,0.08522174869844522,-0.11515791327203631,-0.006354642460717915,0.12126974940271465,0.2976425265018493,0.6523906120664339,0.5305759099381472,0.30158664266634466,0.2515839708599178,0.19273717175913535
0.098,0.07613362152410305,0.16149897596344578,0.08556572095024499,-0.11851154979789151,-0.0054500497280179,0.12304524304638745,0.2954943702438843,0.6528868423537123,0.5441738426521464,0.3115751687365784,0.26061053590671995,0.20186805904748775
0.1,0.08134386129694383,0.16790232754272696,0.08653863563184948,-0.12328918731923635,-0.004532189367969477,0.12613099503474468,0.2931274020086886,0.6522936632216467,0.5580145748440102,0.3232420684307216,0.2692093272361664,0.21027921718304893
0.102,0.08474151675689078,0.17729607902012587,0.09246066660482516,-0.12913745235859275,-0.006054274369236707,0.13319429092130428,0.2912278317330036,0.6519249689309413,0.5686681243969507,0.3372285714426238,0.27901005369062615,0.21897995969224257
0.104,0.08667560713228202,0.1862739173453941,0.09968468467615142,-0.13462536817935944,-0.007939042252165941,0.14128322711099492,0.28901454226777723,0.6513483255516413,0.5742310876621255,0.3503394374072514,0.28897253876239737,0.22678481495801936
0.106,0.09072294449379475,0.19112192174388615,0.10076759834951866,-0.1393556691080262,-0.005995506569781792,0.14482184713629542,0.2845896870803402,0.6491246314552983,0.5769042541549602,0.3589682198656132,0.2964664677398529,0.2326302067851546
0.108,0.0976825635115185,0.1928388830496484,0.09562299577933447,-0.14416807510992605,-0.0005115651035845494,0.14338554911717502,0.27750226597333866,0.6445940041477058,0.5810198727214397,0.3640555858691101,0.30135906281090974,0.2381232608852112
0.11,0.10289166043098645,0.19614538159341352,0.0935078515134524,-0.14878909824733416,0.002231140414140919,0.14353178702060485,0.2701204873863066,0.6380480901355519,0.5883097457336978,0.3702090058613286,0.3068941510022883,0.24558076633356557
0.112,0.10164639579348585,0.20331947073056186,0.10162270312847795,-0.15136522294607271,-0.0028643047837840015,0.15088765511276692,0.2653023362513574,0.6302747798680218,0.5965166628872994,0.38081113857121157,0.316151258459993,0.25507967238286294
0.114,0.09580824220462912,0.21134294061975128,0.11535594047679304,-0.15154458985151015,-0.012404216240136968,0.16240149296278228,0.26240076643437665,0.6217762354477274,0.6029183326388587,0.39541443108100305,0.3288401883314254,0.2648801827113847
0.116,0.09266265837665914,0.21645302231471797,0.12360404505134245,-0.1523811118990976,-0.01746697960289035,0.16988848971430373,0.256964145828782,0.6118135395550501,0.6073306460563617,0.41060225802850925,0.3415541587269265,0.273656232070453
0.118,0.09681192358625697,0.21895014701097745,0.12186687064420777,-0.15685744153690148,-0.01384101818632798,0.1701788042785196,0.24565530384753723,0.5990831076481825,0.6104834848108552,0.42236249743269644,0.3507741947860043,0.28092761432388363
0.12,0.10541545553922539,0.2212091389531796,0.11540582098852169,-0.1634696572877509,-0.005793629289921691,0.16735452965235298,0.23071347031664846,0.5842048341858994,0.6119235351087209,0.42882618742522827,0.3566786866078636,0.286857917490582
0.122,0.11300135766284178,0.22346079442560737,0.11009138479499903,-0.16815180467470478,0.0008328397527671719,0.1654360681951502,0.21782204620558313,0.5703062310419575,0.6113575938441437,0.431616638064046,0.3633543009615276,0.2928110143461219
0.124,0.11846009015536187,0.22484417107707508,0.10618137142252368,-0.17035584804528653,0.005111115447589,0.16427967019235537,0.209401135644408,0.5589667077008185,0.6091003200902193,0.4339434228351598,0.3727264682964505,0.2997820988505448
0.126,0.12421495841382146,0.22672954202455092,0.10255148880803994,-0.17367630764153508,0.008923128412410556,0.16342092431858457,0.20208238916845817,0.5469447165848981,0.6044138986881318,0.4375123825103944,0.3806990008470497,0.30605524826326896
0.128,0.12999123025847212,0.23062944779743066,0.10087954837484778,-0.17921693547576148,0.011974416907924543,0.16437393580131204,0.19163864780109735,0.5301063632191769,0.5966051565749106,0.44186588752865874,0.3830995824367542,0.30903510652429655
0.13,0.13220889388713383,0.2341742930636317,0.1022351737743129,-0.18283544939461852,0.012604654497678638,0.167090600640185,0.17814975500471122,0.5094940779471907,0.5878551773928842,0.44630330090002057,0.3821601411021054,0.3091671640051027
0.132,0.1301417623762573,0.2334819205305935,0.10353523869888538,-0.18132784789141684,0.011984180829590015,0.168065977887854,0.16489697134195774,0.49034769713660525,0.5822005165426791,0.45153673698492963,0.3836430205396132,0.3099540714084049
0.134,0.12759874703818122,0.22855411039693285,0.10119111154485458,-0.17688623209040066,0.0129884470858315,0.1646380960237127,0.15354088165196225,0.47506941815347303,0.5799958204251364,0.45807139946025405,0.3898955355370989,0.31376604082592485
0.136,0.12716624463115056,0.22401378559877042,0.09718706435922722,-0.17394184660206402,0.0149682563898707,0.15992825815023437,0.14193196271488892,0.4595332520322044,0.5753238918081163,0.4633170140188904,0.3974728179598478,0.31863043170255384
0.138,0.1269201129269682,0.22426988945794904,0.0976125320883254,-0.1743341230405228,0.013910423312285465,0.1599180383779049,0.12719528985806527,0.43814328002955594,0.5626820302081825,0.4633705076444258,0.400651270141714,0.3201437635304376
0.14,0.1239576853560502,0.22792471648316504,0.10398966136703514,-0.17553184079342335,0.008552004804186648,0.1648475985664187,0.11049269055836965,0.411626027326749,0.5444711515640415,0.45811373767401764,0.39719620910314113,0.3168584195938835
0.142,0.11873797946245465,0.2288995148169636,0.11003511688464603,-0.17358488374989203,0.003083807585409881,0.16806774088453394,0.09691870856774916,0.38713114965776185,0.5274739509751954,0.45138907040786763,0.3907736758882238,0.31251504856936446
0.144,0.11431990639451464,0.22331664132803603,0.10891656314178355,-0.1678573938842583,0.002296674748363207,0.16431016982725694,0.08935501144236561,0.36984610615510705,0.5140885555875522,0.44568574025645624,0.3864013542489205,0.3112145682533927
0.146,0.11195324485432494,0.21282363829539724,0.10089786934428259,-0.16098563209888742,0.00568381208907494,0.15502429578795218,0.08416413614889397,0.3566915682647193,0.5008431721664829,0.4394812569051932,0.38389275674455586,0.3114638320755911
0.148,0.10982036764792867,0.20251950786961043,0.09275588944954748,-0.1554011405240765,0.008149168289048105,0.14595179090840024,0.07553384520856068,0.34013779124241017,0.48352725755515286,0.4302172687717801,0.37857133261647924,0.3077309451732305
0.15,0.10614297240599906,0.19696037495244098,0.09085183438473589,-0.15177751803833517,0.005987408348556274,0.14190984499348003,0.06291468506412967,0.3172452139433383,0.4613093698447597,0.4177180071014561,0.3680871126218563,0.29739097427892597
0.152,0.10093336064151448,0.19583526335013499,0.09500836595740504,-0.14897258021185375,0.0003776802824621663,0.14275119946042256,0.0513149094363368,0.2925853915575689,0.43734330056211895,0.4040505031857988,0.3550556687525781,0.28378988405726985
0.154,0.09493126702953221,0.1936428743348082,0.09902034110901227,-0.14454970582785123,-0.004671346500371059,0.14337762985884123,0.04439557808934118,0.27154360608211475,0.4158682109340881,0.3908289314776108,0.34302999022357017,0.27265476713105924
0.156,0.08978679925357269,0.18542440277514685,0.09606482775341466,-0.13723998938706555,-0.005166609142773878,0.1381079619114369,0.039568305702767446,0.25332436114161544,0.39669332254294876,0.37684285702027603,0.3323980737907927,0.2665246055139163
0.158,0.08884720369837197,0.17217903858337136,0.0835997719930968,-0.1293227371914357,0.001443879759628909,0.12562799610070166,0.03135351749649062,0.233051947461939,0.373869811150912,0.3588006019482473,0.3202700847175504,0.2621347310179017
0.16,0.09336598651086264,0.15998452246796158,0.06659626302998713,-0.12459160280522219,0.012792499185600072,0.1112381708926478,0.018536062375705167,0.2088286066119094,0.34346054676989385,0.3355560131273966,0.30355477620019605,0.25330332111546056
0.162,0.09768351446520489,0.15357968341572714,0.05572329287767727,-0.12299430025517608,0.020147356304819918,0.10305815888929643,0.006098257023744138,0.18460882004810483,0.31081913891982565,0.31101877747053924,0.2827044545103779,0.2379612910700339
0.164,0.09265415220390859,0.15019890630117622,0.057345912110832925,-0.11879531188391297,0.016042477785606336,0.10283021771914082,0.00020944724951556788,0.16688167144292088,0.2852387521123032,0.29077159520908585,0.26251281590964126,0.221441232496369
0.166,0.07539156963669792,0.14143643906765335,0.06578626590094494,-0.10607840637640632,0.002972657707733967,0.10272004595370327,0.0021191556043307575,0.15783620331800272,0.268286742332938,0.275868763303111,0.24784203897620505,0.21009062393679284
0.168,0.054145667156814355,0.12354980979022895,0.06917198013301301,-0.08670651298030865,-0.008729016815695583,0.09487933809029726,0.006701327819162855,0.1516370671062108,0.25221975320392437,0.2618897344465879,0.23796213288962445,0.20311038405492968
0.17,0.041397723096579665,0.10352550976965315,0.06220271287138314,-0.07040949377999,-0.011123029343068174,0.08122857213756035,0.006783800466597722,0.13994776149330967,0.22964795350475942,0.24377929664054437,0.2264652545366973,0.19362418701344308
0.172,0.04072290917382478,0.0908043527192967,0.05049906177901066,-0.06394768253451304,-0.005828810790688917,0.0697317699325214,-0.0004037546460626648,0.12082266524700859,0.20103404344652565,0.22053856856200382,0.2081558352051173,0.17698842202153722
0.174,0.04320843816218846,0.08576250466298585,0.04296103738034578,-0.06294552057599527,-0.001285540679242385,0.06407052029733729,-0.010988891983387804,0.09948644217118317,0.1721101195385018,0.1958579495572959,0.18507563310954847,0.15625665817116396
0.176,0.038927486735389726,0.08163196403652202,0.042882259986072084,-0.058699143494182704,-0.0036009323693898883,0.0616867028201403,-0.01937271944972589,0.08113636928425615,0.1461846447448601,0.17388389187710224,0.16384315422819776,0.1389206792087975
0.178,0.02848889620289455,0.07425032000246871,0.0459100709482712,-0.04965150160504004,-0.010430685244376429,0.05876681729627715,-0.024008834735475548,0.06637543894604833,0.12198000238588537,0.15468585766329387,0.14843411791967764,0.12881065340332945
0.18,0.020850861606584545,0.06420676602555724,0.04366028861819937,-0.04120203541063558,-0.013217048414336447,0.05234349470885598,-0.026663892227434184,0.05393049935852413,0.09880663256022591,0.13597163658211697,0.13772440251986096,0.12255323551278222
0.182,0.021772048578385685,0.052751363593797646,0.031272321534894114,-0.036684967757262314,-0.00637312868641907,0.040889560253196594,-0.02802744959303878,0.0441988576411181,0.07908223591314206,0.11775832931937048,0.1282164177508725,0.1144564661948579
0.184,0.026742454458157157,0.04100684069211264,0.014320859940873011,-0.033500641832507,0.004922225194241994,0.02720942330014818,-0.027061744167659923,0.0379116080198718,0.06412032417829869,0.10192446119116123,0.11710943084204822,0.10290037297015944
0.186,0.02592020559296857,0.03081451172227616,0.004767685996133966,-0.027409310504638438,0.009153186339863697,0.01747885849727277,-0.024312131235355198,0.033124707639988336,0.051106119988918744,0.08800969358905981,0.1035680864336915,0.090121341533968
0.188,0.01587209611004171,0.02181787645432093,0.0058690038331450966,-0.01712840174970019,0.0031148314464893895,0.01297170773643202,-0.02238841927019724,0.026612964405484794,0.036237400711669115,0.07313759768671635,0.08831520484614969,0.07833895381739181
0.19,0.0045549701448158696,0.010506540314175186,0.006101603062943812,-0.005305798115815554,-0.0025057924746199763,0.006594472591095003,-0.022215134375007148,0.01821520112889771,0.019112839147705698,0.056651479440041175,0.07291651908154335,0.06865009521033996
0.192,0.0010130529122358487,-0.0035243187509049565,-0.004147273575895714,0.0037567845434025,0.0016932652454711716,-0.006004690760132332,-0.022451626088767482,0.010304963358479082,0.002316170200496153,0.04124046767690036,0.0590595917845899,0.06104178786279999
0.194,0.002418104941601849,-0.014184123431727137,-0.01615951954448536,0.008430960860804894,0.008737979204136704,-0.016883638155578216,-0.023260587493345784,0.002732663634598681,-0.012445030609869656,0.02840880751414557,0.04724495419780512,0.05401451894930747
0.196,-0.0013880959810451663,-0.016680487552529284,-0.015061303270098858,0.011214778940648469,0.005639779163595185,-0.016396485011808137,-0.02670768964712394,-0.006927545790419015,-0.025922081884391743,0.01637864725207971,0.03659619550202787,0.04632759989823442
0.198,-0.012324918844169287,-0.014779180685597155,-0.002502582833380052,0.014889988039448547,-0.006591937209190097,-0.008215265622348474,-0.032696308367013156,-0.017849590859595265,-0.0392110137765147,0.0036271905164145797,0.02635811158227901,0.038555693141442346
0.2,-0.0215253757955394,-0.015332881606661776,0.006049205663401469,0.019013596724564076,-0.0150807674920492,-0.004161117412773392,-0.03758671817623606,-0.02573255673773468,-0.05134870289948908,-0.008528042342541559,0.016751254573394617,0.031819964165860366
0.202,-0.023032712048370648,-0.02019063847891804,0.002792408276388065,0.02234957807745872,-0.013904801044776849,-0.008742956099914618,-0.03792759515232984,-0.02814669226884068,-0.05936565110689589,-0.01793224774533852,0.008704188853762987,0.026879239156002866
0.204,-0.022306493950958982,-0.02749499842495577,-0.0051372708448221786,0.02651369553018786,-0.010097674971343949,-0.01683232299270469,-0.034014532922745935,-0.02673799696413496,-0.061419062707163824,-0.024141015733136154,0.003057446972414269,0.024039571657765952
0.206,-0.026124800785320555,-0.03546095849484156,-0.009262755837030144,0.032862176850461354,-0.010433801932913928,-0.02318892108999959,-0.02922461389679759,-0.025027035115730577,-0.06053484080466905,-0.028573477108956497,-0.0009614084524865905,0.021814719302722947
0.208,-0.030957228288937905,-0.04270755171528538,-0.011621998713873545,0.03845720696676785,-0.011347474499878078,-0.028420180381905684,-0.026435461576510295,-0.025550663749391963,-0.06294039114965627,-0.03337909870590599,-0.005747158541679448,0.017300839820361832
0.21,-0.02922047666905492,-0.04841536530794578,-0.018896831717179305,0.03981805407372302,-0.006397606953587549,-0.03532989167441374,-0.025760270548863082,-0.028325371189260883,-0.07094956489612317,-0.039873331390228785,-0.012529619930706195,0.009459694601608414
0.212,-0.021194845150104013,-0.05160642392776736,-0.03000136393635431,0.03740857339871082,0.0028883976177806695,-0.04227205952562256,-0.02628971767490667,-0.032266133429378195,-0.08040689542071139,-0.04732787614059126,-0.019758054208906552,0.0003960157174865799
0.214,-0.014196823209796466,-0.05085952461466212,-0.03637513464725461,0.034115067800470786,0.008919516340556531,-0.044205809957091384,-0.027976694334425817,-0.03733389584031059,-0.08657463345682863,-0.05373164132214648,-0.024593324820047117,-0.006815114394027153
0.216,-0.01395206242616819,-0.0479349622016432,-0.03386568477463145,0.03286258381156564,0.007500061353916733,-0.04096175004720334,-0.030325229512444422,-0.04343325950760783,-0.08933042044396883,-0.057856239755173094,-0.025307590816354825,-0.010169579006144798
0.218,-0.019559458531365828,-0.048544954444209705,-0.028803850072700234,0.03546215354221894,0.0022679239808240225,-0.03950055031645466,-0.03223191888242426,-0.04890911453425612,-0.09135304183847176,-0.060002528423882255,-0.023395242967473633,-0.00979145413559346
0.22,-0.02535666174957395,-0.055364200321874446,-0.029654452471284374,0.040886767942594084,-0.00015145050043229415,-0.04489328307232128,-0.033615501864315236,-0.0517807651566699,-0.09351018006442842,-0.0610039316334803,-0.02270231034190228,-0.008128666035469531
0.222,-0.02762707405276047,-0.06365962671520421,-0.03573390537296223,0.04596862056706669,0.0016651234158259769,-0.05287248787600172,-0.03439624804435133,-0.05122487938611651,-0.09426124210203778,-0.06152432920759632,-0.02504007353413259,-0.007674403157819578
0.224,-0.02861512717330459,-0.06730248212218723,-0.03865461427600113,0.0489935984840659,0.0028087196875603714,-0.05530074944862328,-0.03376423611723842,-0.04838799775380222,-0.09344513443425252,-0.06249201254638851,-0.02890002758253335,-0.008847140434008768
0.226,-0.032501671588766955,-0.06574220766397598,-0.033403508013570955,0.050792542480676224,-0.0010547907891918016,-0.050157678469069114,-0.0321817333525181,-0.04604537128176007,-0.09320739228869254,-0.0647570049371395,-0.032661339168494,-0.011089118587671644
0.228,-0.03939461082638248,-0.06278195273316411,-0.02361132495464265,0.05265435264012088,-0.00868347309139815,-0.0426691465192916,-0.03085876534167057,-0.04547901059357457,-0.09427986106857916,-0.06760831023732161,-0.035761102244813665,-0.013916371945586137
0.23,-0.04511919544980299,-0.06174925277001502,-0.01690607215963216,0.054827918131488206,-0.014857835760293106,-0.03909462282627557,-0.02957426299908805,-0.04510343674806808,-0.09530331222143902,-0.06928525982073748,-0.03769244247879806,-0.01662718255084597
0.232,-0.045135323545454555,-0.06300736397837801,-0.018098818221297046,0.0557918658556129,-0.014563271617211838,-0.041466022758783645,-0.02807733949865703,-0.04425014025215235,-0.09593283811155529,-0.06959243220309494,-0.03883386920283404,-0.01903078390947582
0.234,-0.03852760697897873,-0.06467450434650869,-0.026059904233749265,0.05342318983985025,-0.0070354235235274565,-0.04696406718022934,-0.02751095578344425,-0.04477204588524898,-0.09686561490416568,-0.07021971647106935,-0.04054615151182527,-0.021502309392495145
0.236,-0.029672918094766354,-0.06553102869805726,-0.035459606673869444,0.048719337508979964,0.0027923315532502263,-0.05165948919936053,-0.028372721635549884,-0.046886326936339984,-0.09744515955834816,-0.07199208709986615,-0.04255298174391986,-0.023430165330970268
0.238,-0.024175899001155195,-0.06597716438940823,-0.041552784665985845,0.04555573986940189,0.008820972530475339,-0.054135522525765235,-0.029542352624263385,-0.04783792397926203,-0.09645951959353306,-0.07375013449036896,-0.04279497965289455,-0.023691682942767106
0.24,-0.023137261981868537,-0.06642628372251735,-0.043574015823997184,0.04580218684764712,0.00975170517522026,-0.055358690413516924,-0.030227491566721998,-0.04646034195643817,-0.09502842946961729,-0.07464164689596174,-0.041306401506235234,-0.022877909882385295
0.242,-0.024671090665062366,-0.06755945552826521,-0.043488815917330156,0.04854803239450276,0.00809039681609529,-0.056698636097812366,-0.030581373977565354,-0.044815803572912434,-0.09569279850319667,-0.07552347985655164,-0.04118914593547865,-0.02275736092422607
0.244,-0.029161217492231252,-0.07096730899929748,-0.04217720511373423,0.053359069968097875,0.004674616320038118,-0.05831161796271523,-0.030064068562023125,-0.044126967859548456,-0.09838139912349117,-0.0771104294412381,-0.04394873218030927,-0.023806374611142142
0.246,-0.0378183282717475,-0.07631703673892569,-0.03843480968399555,0.059790450380703186,-0.001551277594430134,-0.05873654689811197,-0.027708648540339484,-0.04322888731295215,-0.10060492263117475,-0.07853278248206816,-0.04675108254407702,-0.02538157446711601
0.248,-0.047097521540578086,-0.07912316229694566,-0.0317987793350012,0.06452433628560794,-0.008985901698651709,-0.0562388827320813,-0.024539232199859238,-0.04177539880168478,-0.1017669311028066,-0.07897930714369454,-0.04672839101068784,-0.027823777987550966
0.25,-0.050459389315283744,-0.07489022890615975,-0.024349378858984135,0.06360428624488507,-0.013566852374482043,-0.050670819211200174,-0.023259268096218214,-0.04144808993182374,-0.10338464685735839,-0.07943684843457173,-0.04558790816392879,-0.032286908488486206
0.252,-0.04628187716297778,-0.06584807149379168,-0.019647678919435217,0.05785266485858956,-0.013542979435758364,-0.04465492679363531,-0.0247845713041671,-0.04334911512674789,-0.10505093169523082,-0.08093286525947167,-0.04679665274058214,-0.03797806895108592
0.254,-0.039480746445655655,-0.06049171702992037,-0.021094223764198575,0.0527138839111233,-0.010180115228792872,-0.04304601517086129,-0.02700426172294942,-0.046168484344276055,-0.10444988561498285,-0.08199363024637922,-0.049796396251279434,-0.041226247138038546
0.256,-0.03534769873192197,-0.06421682415895137,-0.028864829348383716,0.05213530692666429,-0.005270638815639725,-0.04841231381862668,-0.027537234869821018,-0.04755896218619182,-0.10157109630099091,-0.08051841201118863,-0.050510249283103194,-0.03925806254055161
0.258,-0.03513778323843541,-0.07210871307278624,-0.036923603082590024,0.05461273675004951,-0.0012988454372955913,-0.056056312568245475,-0.026157848181757447,-0.04660878703676391,-0.09869993669691994,-0.0772476030366866,-0.04691129387887038,-0.03391114479540846
0.26,-0.03726929964843355,-0.07468438585162607,-0.03739482743181641,0.05626086529855312,-0.001360206675147106,-0.05790779889400345,-0.02429509599685913,-0.044534520821566004,-0.09654196013289448,-0.07505192812932839,-0.04159745906801508,-0.02947681160669616
0.262,-0.04000249612876444,-0.07004348121034687,-0.030057115969704947,0.05619388314481589,-0.00552051702998233,-0.05271723976518525,-0.023340550276015552,-0.04322244953199027,-0.09429826451964504,-0.07606090943453782,-0.03927390681098263,-0.028160263902303345
0.264,-0.041908829312977174,-0.06531762177434901,-0.023427545914428007,0.056342107636571576,-0.009301256118560367,-0.047589940298868684,-0.02353717322732534,-0.04335003598122597,-0.09229601364561073,-0.08029954315580298,-0.04225905303464378,-0.02937096874832287
0.266,-0.042035471774066226,-0.06665682550061751,-0.024621508447912277,0.05758836358758992,-0.008617040756156104,-0.04859378767704317,-0.024100149044118006,-0.04396369220178204,-0.09121521514473915,-0.08562480080144519,-0.04790252599673159,-0.03169229035304315
0.268,-0.04068165852595245,-0.07289183672373403,-0.03220001886271179,0.05903928649373245,-0.004171330000130464,-0.05453525834185954,-0.024286121143748694,-0.04371825451311763,-0.09045356795310243,-0.08920605410908321,-0.05141522857886521,-0.033931237743844996
0.27,-0.038364704318410124,-0.07897326949197607,-0.04060362841219953,0.05964568383228263,0.0010669463105440749,-0.060771286783732656,-0.02399444844425676,-0.04228270836110955,-0.0895489726973316,-0.09003676840155565,-0.05128075460509451,-0.035428164644530635
0.272,-0.035732186758247866,-0.08229733739232145,-0.04656833674237465,0.05953580546220371,0.005059728962247565,-0.06499090394776373,-0.02335981373500539,-0.04043779158151106,-0.0891791141832404,-0.08918471731478754,-0.049769188262801724,-0.0361283579759937
0.274,-0.034769306284461225,-0.08361223248186772,-0.04884714211668441,0.06000665150277906,0.0061498003186121475,-0.06708863771540356,-0.02259122863953519,-0.03930785788647864,-0.08949894868648146,-0.08771739720986106,-0.04895479376171487,-0.036090814752481715
0.276,-0.03629917100374866,-0.08257438155300628,-0.04627548555476642,0.06090596144092472,0.0035564759749738724,-0.06590695257602174,-0.022434637089304165,-0.040019230237877214,-0.0898972738913602,-0.0860969232762591,-0.048806720680196765,-0.03572754342868285
0.278,-0.03785981013758354,-0.07702252716909738,-0.03913860804391735,0.059594550369490726,-0.0011342160113872826,-0.0599739739618793,-0.02369573726608851,-0.04291004073096026,-0.09058555397002138,-0.08499948417083843,-0.04837593800173768,-0.03619369164283682
0.28,-0.03714402944378293,-0.0680308977661126,-0.030754366273739422,0.05497285657753589,-0.005059129240220551,-0.05141226157217523,-0.025760667404370816,-0.046244096576310595,-0.09190790592710772,-0.08481401625808806,-0.047289359420650566,-0.03780887501126622
0.282,-0.035367988441078906,-0.061654821158425466,-0.025960030898365873,0.05069553983344132,-0.006423852610993389,-0.045808141114555445,-0.02658496410503811,-0.04720338108580179,-0.09265474720858397,-0.08478865308618087,-0.046325445901460025,-0.03892780375350098
0.284,-0.03550501180068402,-0.06332066985191533,-0.027393995045259734,0.05156522498263555,-0.0056773887616434465,-0.04703531149998051,-0.02498269383991973,-0.044939515025271895,-0.09134081889503134,-0.08413539753009017,-0.04660378743467136,-0.03834833211651449
0.286,-0.03836289450866676,-0.0715938542778393,-0.03297553230620793,0.05728349872801246,-0.0046370347208605864,-0.05336599123830506,-0.022379457681027524,-0.04176218244519113,-0.08866075428313866,-0.08376791103078711,-0.04821105050589659,-0.03791401085076868
0.288,-0.04122424720807622,-0.07883475903569907,-0.03761378555538978,0.062124019770308764,-0.004263289804939544,-0.0589932964232777,-0.021368226402959666,-0.04075900289680437,-0.08690039842762606,-0.08568591842501852,-0.050254469402966614,-0.040502349218984206
0.29,-0.03987924035249683,-0.07813253135332185,-0.03828942990774184,0.0606581299259982,-0.003195899566243915,-0.05926386184044576,-0.022460909077110767,-0.0421404401141449,-0.08687098795537489,-0.0899856570526567,-0.05189240519394812,-0.04555895164533106
0.292,-0.032558143927188254,-0.07025691144441315,-0.03758793616121707,0.05294421348198467,0.0010863950826654845,-0.05539714551613757,-0.02326517301395662,-0.04252614955034198,-0.08690745655760608,-0.09305268644840946,-0.05231489681171798,-0.04869780126557177
0.294,-0.023253201844859156,-0.06354161028094231,-0.04027861747423925,0.04503156183826785,0.008252659389085586,-0.05324670063317521,-0.02188688604853333,-0.039416743527172,-0.08602654264036179,-0.09101646677525042,-0.050982152926814,-0.04681101452851696
0.296,-0.019860420528081436,-0.06426965842489848,-0.04484733954046443,0.04361942113867629,0.012513297969764128,-0.05512382792157523,-0.019812056690604853,-0.035380121974361044,-0.0862644619788294,-0.08538291960768743,-0.04869401699947615,-0.04202040577694231
0.298,-0.026113475483815745,-0.06857771826745351,-0.04314386449378178,0.04881635833688458,0.007762258787884545,-0.05574212528889908,-0.019594949315231463,-0.03452468413694396,-0.08899977036388187,-0.08155632659747752,-0.04675423697876522,-0.038720320604132816
0.3,-0.035656582775959816,-0.06814878181184347,-0.03276608677569124,0.053644627169641884,-0.0032611828475704874,-0.050395622687122485,-0.021581817635383027,-0.03649390243310541,-0.09133790524633602,-0.08175410222252089,-0.04565020636057029,-0.03823546579086738
0.302,-0.03806271186791865,-0.06227585432850623,-0.023792808722767855,0.052271756384098776,-0.009585614836987801,-0.043647140701169686,-0.02420859062407466,-0.037728618924815306,-0.08996152941350244,-0.08332104979631506,-0.04528151353658277,-0.03848814083972795
0.304,-0.03139294209876979,-0.059401989731503194,-0.027322525555866315,0.04730546834580615,-0.004348724025070581,-0.044645669958113574,-0.025124784474954826,-0.036452505207135055,-0.08592271925110431,-0.08302939485180323,-0.04449600760720455,-0.0375679797221083
0.306,-0.02389578280169107,-0.06560235412823268,-0.04136497095165243,0.046008127792222235,0.007346344904953862,-0.05493696127281916,-0.02237298875186333,-0.03359645880696248,-0.08224005496398722,-0.0801186127343849,-0.041211637046233394,-0.03566323371727089
0.308,-0.022723803810061158,-0.07532139125008636,-0.052722439232185135,0.04998370626128844,0.014801917991762654,-0.06517034188344503,-0.01723529807751399,-0.03073779295860549,-0.07958978469988229,-0.07642941616535924,-0.03562731402199079,-0.034248397611700676
0.31,-0.026681722481132857,-0.07793654047603873,-0.05149507345726648,0.053452597198415414,0.01281254933634056,-0.06553925129198644,-0.014388700139144438,-0.028887646671348678,-0.07742851505771155,-0.07468618921000622,-0.031841807220372095,-0.034649294042011274
0.312,-0.031020927968082763,-0.07161304272495984,-0.040646860144581416,0.05246391069029172,0.004824093209382549,-0.057071378008191315,-0.016241603056995912,-0.0281549262490608,-0.07623238215767708,-0.07515764205194878,-0.03313225676771757,-0.03623016056378803
0.314,-0.03438028089812098,-0.06532047655350096,-0.030838643314540382,0.050723109056985266,-0.0026516073319763633,-0.04976339240861489,-0.01895131561486966,-0.02733639227932831,-0.07551120890612188,-0.07445959055644996,-0.03661809272007245,-0.035735781711738614
0.316,-0.038111155835771605,-0.0671430665469269,-0.02895363251621797,0.053618752755356165,-0.00589768137493225,-0.050719773600027315,-0.01750197462408439,-0.025037115125533953,-0.07286052933058138,-0.06983522622588278,-0.03638152385133645,-0.030928298498829304
0.318,-0.040726362860154734,-0.07452682142964266,-0.033818075556999685,0.05941892616636764,-0.00448748659509806,-0.057227104613456335,-0.013202822975074916,-0.022471804550055544,-0.06806657734098179,-0.06355044712119823,-0.031525969624525835,-0.024392880335738838
0.32,-0.03800695125944968,-0.07802136458999331,-0.04004344834004009,0.06069348966243247,0.0003441953739738053,-0.061487747902319256,-0.01173556734339014,-0.022914938647133804,-0.06509614258644911,-0.06031291048103635,-0.02714545514972631,-0.020627434429463007
0.322,-0.030277475469530475,-0.07295171792806561,-0.042557659270825686,0.05439879866962064,0.005522224006200073,-0.05922853806886525,-0.0146235379716417,-0.026931000792058277,-0.06697745451918855,-0.06142986855621438,-0.027532230478377346,-0.020597594195796116
0.324,-0.024297755618906874,-0.06439013563546515,-0.039744200035145394,0.04622193009260157,0.007179209877192307,-0.052875118229999726,-0.017977134511490165,-0.03124760813540432,-0.07147465377657797,-0.06441953101412952,-0.0319046499534844,-0.02234871512803904
0.326,-0.02465571497241726,-0.060036990688628736,-0.034940721252217574,0.043210073945168154,0.0046748005841353146,-0.04799341342154824,-0.019131657983685442,-0.03320504998333922,-0.07430673937265896,-0.06731875364970293,-0.03643607094071841,-0.024856520433034664
0.328,-0.027826156596346147,-0.06072444620142149,-0.03262356539734387,0.04514861335150262,0.0015243385429242026,-0.047000444489691,-0.01911139479452287,-0.032842311131067975,-0.07404983001028592,-0.06995916835900824,-0.03821189695803579,-0.027732746315734653
0.33,-0.02846158975502691,-0.06109329138166916,-0.03253717012886566,0.046449729502136376,0.00042953509731301413,-0.04697506737953522,-0.018925216710458333,-0.030707960827117065,-0.0717876500024899,-0.07108290783385088,-0.03703602128037905,-0.029113035747462847
0.332,-0.02770341607933396,-0.058113208615933436,-0.030231972826340832,0.04496983767003147,-0.0006491619569655137,-0.04418875366591213,-0.017989706948539113,-0.027414971645130324,-0.0682084153501616,-0.0680935629979559,-0.033990984697431025,-0.02719541032214315
0.334,-0.029451833876244175,-0.05393496653941547,-0.02411949614084194,0.04345564465878428,-0.004308446808139604,-0.03914215081759072,-0.017019200444327826,-0.025720322574373903,-0.06454673186806183,-0.061933109373970674,-0.030283115745142846,-0.023607247749639473
0.336,-0.030515600548046078,-0.05122341080548164,-0.020402035859814614,0.042232063588404235,-0.006416029083752753,-0.03659955358066637,-0.019440363226174175,-0.02945701705700057,-0.06492724541079785,-0.05883783320725431,-0.028445900003258116,-0.02305860192659485
0.338,-0.023477873631343512,-0.05000991580790271,-0.02650165482216848,0.0376379379779051,0.00011557168775019568,-0.04011798735191724,-0.027037471182753237,-0.0381380423404816,-0.07212174529155063,-0.06295055956363549,-0.030756571152385885,-0.027783162527707742
0.34,-0.01035072901471927,-0.04918873307567696,-0.03898404983639163,0.029838131038645407,0.012892185720176023,-0.0465048229238992,-0.03540252123643633,-0.045372734972671365,-0.08122037152468307,-0.06975920719186704,-0.03503157630187202,-0.03359220634733467
0.342,-0.003468777902743708,-0.04938343060469559,-0.04598649078854581,0.02575719619767705,0.020346334508381216,-0.04946726630885107,-0.037717950313307054,-0.045751937148557194,-0.08334183070982207,-0.07147924023127557,-0.03622287159935304,-0.0344195634420238
0.344,-0.00985723239564151,-0.052661619524091,-0.042641401202268094,0.030747524049983155,0.01642942229606804,-0.048300083872413614,-0.032643350278618866,-0.04057349673598582,-0.07619601946569592,-0.06643254263389708,-0.03275291184983021,-0.029558717306391473
0.346,-0.022547556767424752,-0.05899952084532941,-0.036080313496849106,0.04129077589325301,0.007413020073673421,-0.04784866412186276,-0.024950828087341097,-0.034450949675018945,-0.06643021969684813,-0.05918091403197703,-0.027704922358154256,-0.02381159621098928
0.348,-0.029833089416014726,-0.06507888348020636,-0.03491786121593871,0.04880054774281921,0.0029990594644244816,-0.05087960062519862,-0.019291801014734065,-0.02972007512881064,-0.06091345839536813,-0.05383287190234446,-0.024037029956389767,-0.021622375938843624
0.35,-0.02817742477210903,-0.06679071763928704,-0.03858279253430104,0.04855551609779474,0.004903348661360973,-0.05414583722865069,-0.01645064477461781,-0.026207522772917116,-0.05979023355162851,-0.05081851118646711,-0.021829761131902152,-0.02293815404237971
0.352,-0.02431230258573899,-0.0625592504874663,-0.03838965036958861,0.043595853936951416,0.005700699952752484,-0.05209751394951717,-0.015244583600163234,-0.023812945903377694,-0.059126590321854855,-0.048992314239060544,-0.020030214836067362,-0.024498368873445
0.354,-0.0262250870958762,-0.05552990033741162,-0.029278205515392047,0.04073322739623786,-0.0009420399300436668,-0.04393795623586597,-0.01554434755912467,-0.023339585339183382,-0.05710190076260302,-0.047824190724850245,-0.0181732625378377,-0.02370279419519861
0.356,-0.033134157172898956,-0.05124570231552692,-0.017879082873033435,0.042699729005284626,-0.010868683658389156,-0.03585096436267503,-0.018433535300864327,-0.02573104681565438,-0.05597609078014541,-0.04769016377820035,-0.016848186551301797,-0.021099186146558757
0.358,-0.03573294914906666,-0.05180607296213056,-0.015902876060104067,0.04485287995661284,-0.01314668843788603,-0.035037589750881164,-0.024065466748471202,-0.03092226689628395,-0.058378095362038654,-0.049361947990068156,-0.0178470190376447,-0.019850127371061375
0.36,-0.027340034195998956,-0.05450167214258711,-0.02721572442050365,0.04154008949978449,-0.0026535610689559903,-0.04251459609322159,-0.030419643369570894,-0.036933369628815244,-0.0630946558453282,-0.05250293536855565,-0.02199271371422796,-0.022115000852979124
0.362,-0.013358045370666732,-0.056677800773448465,-0.043585233380787056,0.034678140593886186,0.013178695142435741,-0.05260202551777367,-0.03434953449256102,-0.04094436278707202,-0.06661151996279069,-0.0550145480162855,-0.026753629764947887,-0.026001441364569694
0.364,-0.006366768185444849,-0.058785029246052285,-0.05293797043361195,0.03216287722366768,0.021560583564934326,-0.058604920567603,-0.03354084765801998,-0.041544960105505103,-0.06725987723848877,-0.05529749766770108,-0.028577877354144778,-0.027620544405431085
0.366,-0.011417817032757613,-0.061340438756051816,-0.0507618631676503,0.03717356813680382,0.017828862387994318,-0.05802300092905833,-0.028584397281013293,-0.039454439537721375,-0.06581894511696652,-0.05415655230837971,-0.026863662963830193,-0.025976860710532856
0.368,-0.020628288420890147,-0.06169545673541686,-0.042031105093190926,0.04317915632763245,0.008939422376916051,-0.05257645184516547,-0.02349877286551869,-0.03687204835382449,-0.0643879277507827,-0.05339684368155644,-0.023822528814788996,-0.024125944327181688
0.37,-0.024289216984440674,-0.05695609308619421,-0.03332229732692043,0.04243488094062598,0.0032172175081011246,-0.045219215827589275,-0.022307787443859285,-0.035997882433464815,-0.06508366135206593,-0.05329579565864816,-0.021510993373918565,-0.024999504650629435
0.372,-0.02358227162284317,-0.04975625811572629,-0.026282161865636183,0.03722333283278465,0.00033295290032275176,-0.038436720396628876,-0.024657149319499593,-0.036712433348843915,-0.06690269962770105,-0.05173692666261148,-0.019628352262966522,-0.02724253458251545
0.374,-0.02849158527853599,-0.04715433430733972,-0.0184379787997627,0.037729280074487836,-0.006333860017789034,-0.03365564488435489,-0.026050691665785507,-0.036105099933517966,-0.06499934915046487,-0.046077009882633975,-0.015462471877976287,-0.026332604089748208
0.376,-0.043218667793602256,-0.05153749035443536,-0.008125588827047338,0.04777955042689294,-0.01914722461157222,-0.030585734655519912,-0.022881564918752404,-0.031752807826347006,-0.05693739279466234,-0.03667560799866182,-0.00689057177758123,-0.019827268767183884
0.378,-0.05875677809655908,-0.056687838067388245,0.002170351432148927,0.058836823129262084,-0.03180410064329957,-0.028027371769387906,-0.017059048161515197,-0.02554784539403992,-0.04827541397715935,-0.02804624621599421,0.0034662288978384416,-0.010993356244077613
0.38,-0.06314561381091843,-0.05655565292775663,0.0068125840593520485,0.06125930303333868,-0.0359814143490406,-0.026442497483778197,-0.014672052866692226,-0.0234581885136045,-0.04710072403325531,-0.02536809569393194,0.00894353848621274,-0.006497460204566193
0.382,-0.05462231945628179,-0.05407923711746243,0.0009315277168558113,0.05587827375853012,-0.029139352269972166,-0.028945009051520528,-0.018963077646908483,-0.02978505235791204,-0.05390937573843061,-0.029538346408832416,0.005808048920438142,-0.009621793829521259
0.384,-0.04176414522147999,-0.05664184709019359,-0.014581828102634796,0.051048506975620925,-0.01583700194244602,-0.03762840372078518,-0.025850029072780736,-0.04076299077781164,-0.06161583021122519,-0.03598711362962336,-0.0020431037713328744,-0.016462736929045655
0.386,-0.03325109821876422,-0.06495340568588012,-0.03171214771585144,0.05134990107297719,-0.0033817770974788365,-0.04911103632959785,-0.028453585747269458,-0.047204437409238964,-0.0646203690480965,-0.039415087274541016,-0.0076386716717313586,-0.02062681802909689
0.388,-0.0289742287903148,-0.07121133882685599,-0.042496227813324135,0.052371423389814674,0.004781284582267737,-0.05679086816952067,-0.025489585706267602,-0.046015819829297054,-0.06438494899012495,-0.03986012231417505,-0.009272252268554031,-0.020991508584341814
0.39,-0.02151045328805084,-0.06866030532583917,-0.047409703677398864,0.04701717555899776,0.011718436373283613,-0.058099360413100466,-0.022958422559546384,-0.04458730633725132,-0.066374256920629,-0.042249016874243615,-0.012004849652287704,-0.022173505006367684
0.392,-0.0070411848030572325,-0.059440546782102,-0.05232567763023888,0.034976932929246064,0.021276692515624866,-0.05650593076308476,-0.026820791323358233,-0.05039391688951207,-0.07267420495864332,-0.04921190408016074,-0.020025525423388972,-0.027486585180102618
0.394,0.006721737189121627,-0.05129157409023106,-0.05745424296962703,0.024136753993704785,0.03013628191209327,-0.055450115398732805,-0.03559581457851799,-0.060864701491424256,-0.07904156405036934,-0.05668124736818058,-0.029335984220794874,-0.03428751792886789
0.396,0.00748925720732263,-0.04911742080934846,-0.05587017873791567,0.02256343156270817,0.029825152430496722,-0.05398754435048713,-0.041594814599854084,-0.06682530663259112,-0.08020633409430095,-0.0581722810784251,-0.03119727968587448,-0.03682603340343731
0.398,-0.006711220932892542,-0.05194433495311558,-0.04473415958240618,0.03037692693869023,0.017958725539907797,-0.050157601545872225,-0.03916469701818575,-0.06291574197677902,-0.07571792694509417,-0.05172548346187671,-0.022806680186242555,-0.032216310488385656
0.4,-0.02467843388044759,-0.055791804688125765,-0.030783061975534022,0.04053733150471925,0.0024261073596317864,-0.04484968227506191,-0.030788994025475618,-0.05278132576747536,-0.06931047220684108,-0.041781738669482565,-0.01107499158618517,-0.02363234114816065
0.402,-0.03477909507784292,-0.05753779823515103,-0.02225712246944239,0.04647257127019752,-0.007453746069832491,-0.04068982758102903,-0.02442369465077532,-0.04539394743306421,-0.06509696966957769,-0.03556324545817629,-0.005267158691272085,-0.017732211638960913
0.404,-0.035832167659989346,-0.0576529363556452,-0.021179986384856332,0.04758186683778834,-0.009364631280508903,-0.039772912077454446,-0.02545973974085804,-0.04660934791029009,-0.0651739115595728,-0.03720552445554366,-0.00841547437228204,-0.01840127060788694
0.406,-0.03379192612336036,-0.05905673427099492,-0.02480011049318969,0.04736016947467627,-0.006421199881090524,-0.04248573098276525,-0.0318653908559223,-0.05378130960201887,-0.06848652782708933,-0.04385545686704159,-0.0156788885786712,-0.02336921958889176
0.408,-0.03260179397269235,-0.06269078610019886,-0.029851112827984107,0.048080982063759534,-0.002129017019344988,-0.047075664374744045,-0.0367094982806905,-0.05942856410448297,-0.07180639117682884,-0.0484259693767921,-0.019832447440411766,-0.02722273700349683
0.41,-0.032792723614957484,-0.0665752597452084,-0.033563824074777975,0.04976794297137645,0.000515748997971526,-0.05097931386678087,-0.03581912222148122,-0.05984336318760467,-0.07337447390385995,-0.04722836141603317,-0.01869113425281969,-0.027328456218014555
0.412,-0.03433558837278794,-0.06815889118263596,-0.03348416634651454,0.05168305016862157,-0.0006974670199007511,-0.05222685004391854,-0.03240268227619018,-0.05761227288433071,-0.07411701685194697,-0.04303639356958099,-0.016131897504004074,-0.025765601683620326
0.414,-0.03514156758428334,-0.06534274805675794,-0.029681513302562794,0.051365253011858354,-0.004036481248032888,-0.0497995910475599,-0.03272008685337143,-0.05684704458889404,-0.07478535182943892,-0.04045915622798056,-0.015993263222990026,-0.025615328988854498
0.416,-0.03152280120733435,-0.057947873595453885,-0.02574121522565231,0.04602650109494715,-0.0045798831602275065,-0.044479108467168745,-0.038621136164174556,-0.059305138308371655,-0.07510455428117506,-0.04110620649626558,-0.01807659704768875,-0.02775465746002051
0.418,-0.024552458422331887,-0.04923705768260317,-0.02407836667262768,0.037686952964164334,-0.0013713261248091706,-0.03862868823729467,-0.045812210748959456,-0.06360244390754097,-0.07557636912467483,-0.04347680739433688,-0.019997736382330048,-0.030972541097268155
0.42,-0.021131175882147638,-0.04433157918769211,-0.022971862579048753,0.03314557397417712,0.00031635792594571926,-0.034819008320713524,-0.048411298994251215,-0.06608004058095886,-0.07680132372678973,-0.0455168490706564,-0.019970209227225137,-0.03252771823169257
0.422,-0.02538147188862707,-0.046881017306553835,-0.021632533682385966,0.0367611044393023,-0.002972375691123949,-0.03553942462564548,-0.044310499381789784,-0.0641173686041384,-0.07771591886619358,-0.04636580557737645,-0.01798609575273065,-0.029974875652269865
0.424,-0.03272572959458702,-0.05556615345369595,-0.023008030140358172,0.04529529929306964,-0.007142443762062165,-0.04133462772010693,-0.03679312139009749,-0.059372005134175905,-0.07703001359089971,-0.046140248597674745,-0.016106265819770545,-0.025083861335826844
0.426,-0.035761870152119714,-0.06368044767415135,-0.02781590588573855,0.05148956856265966,-0.006772051450359938,-0.04809449817905081,-0.031895704292959286,-0.056478594030090874,-0.07522972316065403,-0.04551349422241995,-0.01688504310376928,-0.023566432976604275
0.428,-0.033435499612613315,-0.06585652125648167,-0.03200719526216023,0.05207698982174324,-0.0027808872428580476,-0.05073473736022133,-0.033037442868850256,-0.057812095006186816,-0.07324934238620354,-0.04546291437795496,-0.020167262033535166,-0.028124799550900036
0.43,-0.03095180421149377,-0.06506808877849715,-0.03363651961442721,0.0506743589863476,0.0003323523643525688,-0.05038299026469858,-0.03728040700246472,-0.060707489871936825,-0.07074573199851555,-0.046303692874547185,-0.022575662859741868,-0.03450215034577486
0.432,-0.03216186395917564,-0.06853883981392281,-0.036140756076908406,0.05239943994560508,0.0012894140554755092,-0.05306086489730084,-0.038917452978283355,-0.06132019005701078,-0.06707539301223506,-0.04741266805816881,-0.02136225618041735,-0.03691168336370473
0.434,-0.035387202778024485,-0.07695348973244932,-0.04163222947525067,0.057293619229866234,0.002080548751366618,-0.060346957283252185,-0.036750839192217756,-0.05942688870182925,-0.06269156858789614,-0.04784386582759638,-0.01742388479821598,-0.03431377723694293
0.436,-0.03726849904477437,-0.08281368252242782,-0.045721626151899744,0.0608858451989126,0.003020453474419848,-0.06588139978680983,-0.03447899867292092,-0.05737597026296258,-0.059292208373647286,-0.04685397599126957,-0.013675860587484807,-0.02935108135677958
0.438,-0.038124677565970155,-0.08009121036972443,-0.04216521218390753,0.06026880127871043,0.0010507991745148824,-0.06292916554591446,-0.03430473529837368,-0.0565803257305176,-0.05894016470290892,-0.044805833922908864,-0.012021671639322913,-0.024631777810668193
0.44,-0.04074288992260043,-0.07137685266257564,-0.031033324862289713,0.057297368044466924,-0.005739468998807819,-0.052734062587227425,-0.03438690155311817,-0.05711441393966969,-0.06192815893696159,-0.043365747256098104,-0.012682166776947444,-0.022079133888695424
0.442,-0.04484539724473449,-0.0645058055489881,-0.020357397211277443,0.055724004356338265,-0.01329751932460443,-0.04374083708963963,-0.03281243668315187,-0.05852061268586391,-0.0656641365419835,-0.04385257653673881,-0.014907246570782936,-0.022777799143279064
0.444,-0.04605715119840369,-0.06406506232615208,-0.018692737444370725,0.056484858722469444,-0.014549727853331189,-0.04304654279246423,-0.030464289366844647,-0.05917561651638123,-0.06717641819323464,-0.04571646140933667,-0.01737436874113663,-0.025770099793718297
0.446,-0.04167041998627802,-0.0676530434158479,-0.02624447320313814,0.057179297727331414,-0.007964931250860242,-0.04943692556277121,-0.029599722362134633,-0.057187504003892,-0.0664906598282451,-0.047397227241523926,-0.01924192985883833,-0.029363510393612992
0.448,-0.03538735690873682,-0.07066885871352696,-0.03512166040131718,0.05639928254452203,-0.00014109760262109167,-0.05579032130592406,-0.031402465734360445,-0.05352987913563341,-0.06621741433936046,-0.04855057410694322,-0.021421664566669208,-0.03367192323465081
0.45,-0.03351012042335997,-0.07217741177921697,-0.03844639875515842,0.055938318903686536,0.0018740164545602478,-0.05754083719114228,-0.03460581644623763,-0.051613779429824855,-0.06758652033815707,-0.04990664823674198,-0.024987025333000453,-0.03897768687874655
0.452,-0.037092832792764804,-0.07342303694995825,-0.03627916492298884,0.057067925648386496,-0.0018197151262692773,-0.05596205829774338,-0.03679340708852502,-0.053011169767160006,-0.06881065692273833,-0.05111578845576396,-0.02849515557087801,-0.043267378358765325
0.454,-0.040634605182309734,-0.07295535848862474,-0.032270790996815034,0.05727259129112614,-0.005803154281146056,-0.05334120427830198,-0.03769245737315793,-0.05671475421479727,-0.0690003158940625,-0.05148572578436564,-0.029887965735719793,-0.04494231255546129
0.456,-0.03913306231003689,-0.06794945747269487,-0.02842315087933866,0.053657867238227595,-0.006477100623342821,-0.04937648821967673,-0.03944999410574982,-0.0616088954028075,-0.0706309450879955,-0.052184344005089756,-0.03020685372674338,-0.045233284739242666
0.458,-0.034519838287004334,-0.059958619547287255,-0.024664206642006956,0.04818180058006127,-0.005592755521121338,-0.04388862505268018,-0.04300956040406512,-0.06597147511742203,-0.07478398461509507,-0.054377623980854634,-0.03168404971178571,-0.045334016973562756
0.46,-0.032604959601166,-0.055451191965603434,-0.022120773240351548,0.04601326508551874,-0.006267768003639283,-0.04018665013016744,-0.045932851854209394,-0.06664816364156188,-0.07724070933570032,-0.056211252721150254,-0.033346416249598845,-0.044282951652545394
0.462,-0.03493546102227961,-0.06001722485578956,-0.024842678511964207,0.04947022693416217,-0.006885380588298502,-0.04347727092196399,-0.0448535163217784,-0.062345443293135586,-0.07371660020295903,-0.05469838505801768,-0.03212763449678318,-0.041149190469554515
0.464,-0.03741132883007842,-0.07196430575888571,-0.03474583819951485,0.05579975950984277,-0.0031739028201552178,-0.05434195055992304,-0.03971982979503076,-0.05621668851758058,-0.066644395600261,-0.05022136819309263,-0.027664844941672484,-0.037355264703727145
0.466,-0.03580161828394583,-0.08156111702495389,-0.04598375238623145,0.059497026958047046,0.004337915215550726,-0.0651243261008216,-0.034601255119215336,-0.05310269920763845,-0.0622974184877394,-0.04698795887760744,-0.023290631234066467,-0.03570632821412216
0.468,-0.030013565626763862,-0.08065809099162866,-0.05065721853138673,0.05695525624547759,0.01038481638938538,-0.06766656274205311,-0.03319716342795367,-0.054775153172425116,-0.06256766302817764,-0.047727397742338695,-0.022029463114504457,-0.03712231982907701
0.47,-0.024140640538950573,-0.07305387890991424,-0.04880027564727653,0.05078074233118394,0.011729287851700977,-0.06343928878205647,-0.03419998640326091,-0.05845124971643741,-0.063657293739714,-0.04918635864349796,-0.023169453274341528,-0.03932315625343773
0.472,-0.023009992761405907,-0.06974939009389657,-0.04667824080459251,0.047848167068870545,0.009647960404689494,-0.060671024370134365,-0.03360062180303152,-0.05987440422825929,-0.06221837613499781,-0.045953955887789354,-0.023216287955825858,-0.03931361569788792
0.474,-0.027560423472628968,-0.07503096665753656,-0.04750244027440211,0.05162449929308168,0.006843602035222971,-0.0633044023382297,-0.03101486836270641,-0.05763272245780512,-0.059260134787201754,-0.038213142570818336,-0.019687625553328876,-0.036203107345088026
0.476,-0.03380506649890828,-0.08225942545673132,-0.04850281618240003,0.05822419843565285,0.004722777121418224,-0.06712971048585023,-0.030194818000492066,-0.05433776745898494,-0.05773754226028558,-0.031984895734881655,-0.014173449081059124,-0.031737599760557136
0.478,-0.03743263655098454,-0.08269979875825104,-0.045272917488564726,0.061232392307799595,0.002723445900561079,-0.06567912322264072,-0.03363033880475114,-0.05398274972342594,-0.05890488792290218,-0.03187401968111115,-0.011066458440210458,-0.029037417431516607
0.48,-0.03849842723129122,-0.07534499429455095,-0.03682289753860529,0.059045996977601406,-0.0007606046991048039,-0.05774325916966138,-0.03963540242585438,-0.05816250566803674,-0.061883548753068736,-0.03664126540596036,-0.012370385255581949,-0.029988468033775667
0.482,-0.039555422938765024,-0.06709523197492631,-0.02752536920551468,0.05551068272357667,-0.005520027328498658,-0.048870484148592845,-0.044583881307907976,-0.06425160916075323,-0.06483213359376354,-0.041509767377881576,-0.015491757475943512,-0.03327250443891407
0.484,-0.04064669306831423,-0.06415095560717789,-0.023488341712111328,0.05385970356153843,-0.008372231764951131,-0.04514506246578029,-0.04664655807976724,-0.06792054464208941,-0.0658624229096187,-0.042775066102223515,-0.017328510358198664,-0.03609728400775778
0.486,-0.039235678273200805,-0.06535587796440284,-0.02599963775804708,0.052925549229987705,-0.006817755809249564,-0.046507375508976996,-0.046995525229180886,-0.06785924749627104,-0.06446153386279624,-0.04073554529244747,-0.018070359291378624,-0.0375064430667777
0.488,-0.03448064163268741,-0.06542206669845367,-0.0305939181057261,0.05032998535686195,-0.0024467537782794585,-0.04825729532612763,-0.047271850961510244,-0.06632918431176393,-0.06221896185102997,-0.03895322521878487,-0.01957439213893663,-0.03848336552508584
0.49,-0.029511058186657814,-0.06267224828063712,-0.03260228503235881,0.04698666698101937,0.0007214275644014309,-0.04767366037147159,-0.0474090570416334,-0.0654495803056816,-0.06127993052565261,-0.040062182086479624,-0.022049566033148917,-0.0399076424904905
0.492,-0.02946811715650892,-0.06070792846262757,-0.03067540005718515,0.04674883872479099,-0.0004051898462639643,-0.04612526592121355,-0.04668792743697774,-0.06507373546763907,-0.06202574245262766,-0.042565265733130325,-0.023580103683996965,-0.04161434046385734
0.494,-0.03720475790446229,-0.06341501274401962,-0.025945738997237656,0.052363163450959344,-0.006539348582102038,-0.045870054221510415,-0.04483798186880196,-0.06359092167167818,-0.06262495134403334,-0.042955531428377186,-0.022209766154509796,-0.04216157168766521
0.496,-0.04874979597430045,-0.07075662023669035,-0.022226875369111474,0.06163256806290267,-0.01424101457672611,-0.04823564985050647,-0.04231760368321706,-0.060328935077106724,-0.06194291882353094,-0.04062846903914187,-0.01847713556356698,-0.04007018277356194
0.498,-0.05296368186532407,-0.07887276857092984,-0.026421115673884138,0.06730414409021755,-0.014860914440638272,-0.05436025549576536,-0.04156442279793515,-0.05783600211462016,-0.062349069829432086,-0.03910832175235207,-0.0161378125267574,-0.037220746441984316
0.5,-0.04154848835062884,-0.082577015238013,-0.04138269289068935,0.06328094659702345,-0.002369998665520642,-0.06311655355178507,-0.045495884318825876,-0.059880181660609426,-0.06675466637741599,-0.042175068760903225,-0.019121737912214023,-0.038571832201106125
0.502,-0.022008537578111078,-0.07886185465684536,-0.056833651864847845,0.05222847276413783,0.014948446713371942,-0.06824057870072057,-0.05206934983021593,-0.06609650679928175,-0.07301111880986481,-0.049053883777555186,-0.026687505399313825,-0.045448419446925736
0.504,-0.01213180046595415,-0.07001674005583051,-0.0576910432791009,0.04351839573375063,0.02070318497763921,-0.06390068448715515,-0.054795739895292156,-0.07136880788982118,-0.07532231428762871,-0.0542761360402923,-0.03347449184209939,-0.05234975278323578
0.506,-0.01777722220404523,-0.061911024693759635,-0.044022356695627214,0.04188589436530375,0.011683272763587771,-0.05339224078421306,-0.05155785892042918,-0.07186923420138117,-0.07205907020295688,-0.05405045592776027,-0.0358980580502233,-0.05381674007208355
0.508,-0.0273834729586499,-0.05834703120782941,-0.03089167459187626,0.04346479900926689,0.0008196409551127976,-0.04581665425290073,-0.04670960058583387,-0.06849670511213508,-0.06744996894465204,-0.050822646257204535,-0.035338568115921974,-0.05057707644136055
0.51,-0.031421510869170916,-0.05965673216843047,-0.02798478982517564,0.04497695920652725,-0.002614272858439534,-0.045582507077359384,-0.042819852100266606,-0.06342255493911604,-0.06435892409592957,-0.048710708194123375,-0.033386221458826554,-0.046008627270520255
0.512,-0.03261458323659085,-0.06475077749418275,-0.031718320395936056,0.04821388880558532,-0.0018708651336692738,-0.050306404555562644,-0.038060117721258946,-0.05787413400107055,-0.06095394107448301,-0.04753745206510555,-0.028764154947531137,-0.041248276124839466
0.514,-0.0341686483628797,-0.070354378548236,-0.035890605009413504,0.05270835423039138,-0.0013627732306632052,-0.05557536507390697,-0.03260420098002323,-0.054074783291766855,-0.05634307743818062,-0.04464219111321754,-0.021731006072373334,-0.03648851018724192
0.516,-0.033097371726230715,-0.07216460780832416,-0.03907142810759382,0.05393611851581595,0.00027749141177595116,-0.058335718912723954,-0.030534169610872214,-0.0542862595375155,-0.05409002722988049,-0.04005894649135446,-0.016794526202283288,-0.03307149817740178
0.518,-0.02834499801733018,-0.07025165297195622,-0.04206377387340828,0.051211040340072886,0.004468521827733943,-0.05854584650515707,-0.033992064249033165,-0.05721328324753501,-0.05698195824224225,-0.03679125006112674,-0.017094980041978618,-0.031875107321845945
0.52,-0.02478011311647055,-0.06931432697897277,-0.044614552875477366,0.049360212509253584,0.008611439347589742,-0.05858187788327304,-0.039876746648681335,-0.05933416847717276,-0.06245270761813548,-0.03713262686905081,-0.019863227501183522,-0.031894796698478826
0.522,-0.027077595247485316,-0.07225240654443989,-0.045130681337171984,0.05186896381000061,0.008868653000929462,-0.05982430332241567,-0.04359649694273851,-0.05945380349578943,-0.06638576814352175,-0.04028608579596626,-0.021142724203113517,-0.03168612164277599
0.524,-0.033965654551822516,-0.07649936357455947,-0.042468902342457884,0.05675978553514378,0.004336169449000193,-0.06095678507730742,-0.043254903098709475,-0.058768289083521025,-0.06787279796133629,-0.04282369372778578,-0.02101721855418355,-0.030996243088615462
0.526,-0.039189914357364665,-0.07747425339917564,-0.03827708009497674,0.05917616188038305,-0.0013113248412325055,-0.06033587588136179,-0.03995504355453456,-0.05827529204895277,-0.06806442843744356,-0.04203839980164788,-0.021330114380970055,-0.030950915675854934
0.528,-0.03853088830483565,-0.07409066181458974,-0.03559152204678947,0.05706089388124965,-0.0034341367635994037,-0.05809036983273456,-0.03632243021400252,-0.05838830045756141,-0.06739805737571142,-0.03916910040535207,-0.022060337321051733,-0.032578784949045016
0.53,-0.035378984413611377,-0.06957522828583995,-0.0342373073176099,0.053730680588155236,-0.0025050192929802133,-0.05493939472582095,-0.03427081492221522,-0.05863773338461017,-0.06556903588509928,-0.037520985013756614,-0.021964553583083156,-0.03442257990265933
0.532,-0.037045878360379,-0.06728376477304265,-0.03036102963307821,0.05395860955237728,-0.004268985373878757,-0.05059810780631718,-0.03349489159388314,-0.05776100761935843,-0.06292081871689792,-0.03803164783914429,-0.020672051998136678,-0.033723561863833795
0.534,-0.04453228538655417,-0.06662939487504584,-0.02241019544671857,0.05749252723020532,-0.011455468596503302,-0.04476388199945106,-0.03346841625357438,-0.05672304156837947,-0.061172456206856844,-0.03903744080609056,-0.019145356821242982,-0.031207240927109206
0.536,-0.0476640988182994,-0.06442341637337233,-0.017201476017326085,0.057644061529001596,-0.01608985818959216,-0.04016205339931977,-0.036075614237074574,-0.05950645125206787,-0.06304376691967029,-0.04030150336682769,-0.01913614451084596,-0.03158494772660086
0.538,-0.0364163901874706,-0.06103951227145244,-0.025016659652865342,0.04974019177293767,-0.006984991134441882,-0.04239240786777052,-0.043274720037208836,-0.06739227605095008,-0.06982174738809906,-0.04409696068195121,-0.02199821232430712,-0.037461270535897415
0.54,-0.018154164771664066,-0.06145007653502267,-0.0436021506258138,0.04034285054653325,0.011630277689359996,-0.05242034266186727,-0.05216030600378122,-0.07478375578238071,-0.07802785652748914,-0.050209921092513723,-0.02646426722932872,-0.04475225882548129
0.542,-0.012607041696702515,-0.06743815321283332,-0.055106420314433704,0.04077446081745534,0.020203783109473183,-0.061912649643180426,-0.056112844406068646,-0.07510732793928675,-0.0815850703770475,-0.054016275644776124,-0.029216439905435137,-0.04674107866874542
0.544,-0.025516220278215353,-0.07373385731835291,-0.048428733195842275,0.05116001267797702,0.009955402026149841,-0.06267587911061086,-0.052529078451196996,-0.06919842897691272,-0.07927017527497812,-0.053150880982792095,-0.029633910627837663,-0.042593735752034116
0.546,-0.039820531238179774,-0.07547127911349492,-0.035801825183101564,0.05964851793008964,-0.0035927080940668567,-0.05795587899816028,-0.04627504344698404,-0.0637552329940505,-0.07596315565230907,-0.051642453497247935,-0.030856544901685736,-0.03873838406273728
0.548,-0.0395458648792984,-0.07481768902292793,-0.03551126207187445,0.058801472117191424,-0.0029612917090359814,-0.05726780939733942,-0.04334566865412607,-0.06288027433190435,-0.07527810275342822,-0.05380731176944251,-0.03433804077638634,-0.04053835667919973
0.55,-0.030524077819329837,-0.07589852807485797,-0.04573704748724931,0.05421721950269338,0.006919643779439117,-0.06196510853277053,-0.04372888058918906,-0.06453486036437837,-0.07552928181137204,-0.0578177369094645,-0.03714162751424922,-0.045860904391610766
0.552,-0.02801548133786231,-0.0774194645728613,-0.049675785469517154,0.05397146523222782,0.00929963787698382,-0.0640359469024385,-0.043450082428243386,-0.06513593723075954,-0.0739278503681878,-0.05877855448837095,-0.036422093591911085,-0.049004526733544114
0.554,-0.03337109036984422,-0.07531873929898653,-0.04196237884414466,0.05671069562501644,0.001901573099324163,-0.05933408647520377,-0.041886466056662186,-0.06508524825559861,-0.0710852004278721,-0.055936480029658946,-0.033209452885595125,-0.047995950914128636
0.556,-0.03533988776164758,-0.06940340267653024,-0.03392851088750724,0.0553252186995025,-0.002575134807315047,-0.05298692372210393,-0.04255633082789744,-0.06764821562845429,-0.06987006966368507,-0.05357998916329585,-0.030357632335902874,-0.04509545711228964
0.558,-0.030120261470376296,-0.06377711378674328,-0.03357688651009414,0.04895513668406625,0.0014727632467948868,-0.05017783406831452,-0.04653034825662785,-0.07300383282287924,-0.07133521224302689,-0.055204238128212325,-0.029467660707930814,-0.042327113080950336
0.56,-0.027061512460002567,-0.0625867154580102,-0.03555744479010138,0.04517148180962657,0.005054162621535766,-0.05006148501803374,-0.04966368813072284,-0.07670443090330287,-0.07359327298531713,-0.05892711080894943,-0.030348030421838323,-0.03998969169858095
0.562,-0.033216963268201165,-0.06606484942975431,-0.03292873340327048,0.04921765003132191,0.00014052451428477373,-0.050118018642242135,-0.04777466332831116,-0.07526019881050025,-0.07487804612665512,-0.059991097432107114,-0.031768177036425184,-0.03842213905728273
0.564,-0.04274036613029821,-0.06981343547535122,-0.02719336817094595,0.056368066454910125,-0.009062649395888788,-0.049744636303822205,-0.04167251523210585,-0.07059095776164738,-0.07571106344328388,-0.05739385248037007,-0.03290531183310228,-0.038175991971647
0.566,-0.04508944318042163,-0.0689681693057736,-0.024048050180309186,0.058045682957201465,-0.013010822472301259,-0.04896901314154491,-0.035972244469581346,-0.06760177992409687,-0.07718321916372373,-0.055227271560977134,-0.03414667941231785,-0.038941707156479696
0.568,-0.03793696763614739,-0.06372548409787172,-0.025843014219580535,0.052343712148968116,-0.008434327503803086,-0.04791333731118636,-0.0342775239105262,-0.06884305717354638,-0.0792910856087328,-0.05673431512689236,-0.035909904868998685,-0.040326803769611695
0.57,-0.028820066603805018,-0.05900506059827268,-0.02987031417172928,0.045277612162105116,-0.0008552523035151902,-0.047147545349952906,-0.03648534898317944,-0.07236264696275599,-0.08178428838733752,-0.06078513317993492,-0.03793641615442933,-0.04319267232522197
0.572,-0.025294567382061425,-0.05829465629164835,-0.032273058743375715,0.04277964748589124,0.0030241733298337643,-0.0470538385872389,-0.04019197674860018,-0.07451815629008955,-0.0841048816994552,-0.06454961355566721,-0.040011346357285454,-0.04804470202108021
0.574,-0.027036073596135864,-0.060565573181909575,-0.03266244495519896,0.04489071128654948,0.0027758640035696345,-0.047929911827905146,-0.04281096677067007,-0.0739737559095551,-0.08429444293247576,-0.06574406114918242,-0.04129654607911668,-0.05201762745166607
0.576,-0.0289140795481764,-0.06288075044745013,-0.03334359438865573,0.047545547923123634,0.0023349159925798676,-0.04968441609440493,-0.042759021040593655,-0.07208757355311408,-0.08132137096205055,-0.06353109083783134,-0.04004616654839185,-0.05074292902620192
0.578,-0.02831027522765462,-0.06314164213642524,-0.034575180622706356,0.04742294053909563,0.0032889169114044174,-0.05048734552237019,-0.040886104631937516,-0.07066626909042871,-0.07775350742669675,-0.060221202209226325,-0.03651332182311605,-0.044556784829966646
0.58,-0.027726083629853685,-0.061301310722650194,-0.03343052991731564,0.045511042884467924,0.0026807407912133045,-0.04826466573255878,-0.039825647100668216,-0.07069237494884069,-0.07675728376122626,-0.059203620068310286,-0.03366113095837544,-0.03919488686904569
0.582,-0.03053441740355898,-0.05885873241342252,-0.02805929838041007,0.045277393444201564,-0.0023472690327832136,-0.043678129978228675,-0.04066432731861689,-0.07211648005105696,-0.07909392371252355,-0.060478929827102075,-0.03357896661655749,-0.03905656302060669
0.584,-0.03511543068392123,-0.05637998555905539,-0.020973221070240605,0.04680975520377546,-0.009256265749214359,-0.03925454097788922,-0.04194478404206569,-0.07413595962317714,-0.08472125273594644,-0.06190461176874147,-0.03627082644615464,-0.043474115321027434
0.586,-0.03640585868576619,-0.05371556079090525,-0.017114648016169017,0.04697444253982685,-0.012171529067413067,-0.03689844666642989,-0.04218760296692715,-0.07598275984181328,-0.09235662356787337,-0.06300456012258795,-0.04102233042759598,-0.04952511000041591
0.588,-0.03293321609499503,-0.05296542908769849,-0.01981514892355184,0.045436210245220154,-0.008644168287776484,-0.038027112545445614,-0.041600705175051586,-0.07702527993627187,-0.09809362305944967,-0.06405835559275158,-0.0460706174323209,-0.05483945155632121
0.59,-0.02849931142694025,-0.056681106974037894,-0.027831806049496366,0.04512453391550426,-0.001923740581705689,-0.04306158620806794,-0.04139488458950292,-0.07698591847114225,-0.09944253605895964,-0.06442309458595849,-0.04908007032387892,-0.058038744475083816
0.592,-0.026984767392899917,-0.06215625821769741,-0.03477266917112317,0.04664488336811028,0.002493486524159866,-0.04842738567394152,-0.04271183800744715,-0.07698543834322708,-0.09808391034394516,-0.06412485403791843,-0.049213191595722884,-0.05862881867518168
0.594,-0.028267177051816663,-0.06270432335285316,-0.034056276242773756,0.046863811274000335,0.0015811848057584305,-0.04814340207027441,-0.04572575128874916,-0.07834051193626268,-0.09620452921744393,-0.06432520428516943,-0.046988583989416036,-0.05697644995159235
0.596,-0.029495747655528367,-0.05707572685068548,-0.02715070814805221,0.04400589618831272,-0.002215799247840303,-0.04201784454512756,-0.04882745392586508,-0.08000466349405659,-0.09421916454131328,-0.06528801284524441,-0.043566865765806095,-0.05439016558236941
0.598,-0.028536210843007736,-0.052667918619617345,-0.02363292583207474,0.04081354902536923,-0.0029723514343347733,-0.038114002794546846,-0.049583323353814185,-0.07979219850469356,-0.09247370057924961,-0.06589767792498279,-0.04114826151697091,-0.05228620296203857
0.6,-0.026020917984779467,-0.05621555237290322,-0.029773122234763368,0.04124087809527796,0.0017351313032610534,-0.04298396434983757,-0.047335955907977526,-0.07760778527267054,-0.09149116027285108,-0.06523664186785315,-0.04114729660829429,-0.05096682262788025
0.602,-0.02468233226972534,-0.06481355419838149,-0.03996393088654924,0.04541458439079089,0.007220554807275677,-0.05260051430020358,-0.04416664257240793,-0.0753867652221202,-0.09110092456867211,-0.06378945037176535,-0.042318795948546886,-0.05035835799212206
0.604,-0.02586854523597026,-0.06821091505032943,-0.042416805244481735,0.04830736496961662,0.007063633789884269,-0.05595431134024553,-0.04277482820672054,-0.07474471533320409,-0.09130812068439838,-0.06324771894295958,-0.043224008631610016,-0.05115789877690681
0.606,-0.027730971367413152,-0.0601338486326169,-0.032526894074556695,0.045057862017073985,0.0005749895470065474,-0.047313617251787045,-0.04390159193368122,-0.07580252081234638,-0.09256195126035632,-0.06460078638784043,-0.04452139889921286,-0.053659337389364375
0.608,-0.028469659315197095,-0.04788329879570988,-0.019439952360824752,0.03881282087241078,-0.0063817720863593805,-0.03460488299236434,-0.04594958342741488,-0.07729118451709698,-0.09408288766615487,-0.06609247913610589,-0.04633097417691585,-0.056330301837326305
0.61,-0.028840142033988284,-0.045852242416210616,-0.016937921443667164,0.03834731100429845,-0.00742517036117898,-0.0322050576065046,-0.046769184319376565,-0.0774826958398353,-0.09414373313803118,-0.06485040924744664,-0.046302140623994376,-0.05710712864167964
0.612,-0.029409470559094115,-0.05657020106329987,-0.026990073134123584,0.04529248343333204,-0.002131554666660933,-0.043001871926989566,-0.04602697889912637,-0.07656701085122383,-0.09306982223693455,-0.06131449407461595,-0.043718620901635134,-0.05614215249618967
0.614,-0.028582452737436644,-0.06629916572424303,-0.037398621249115,0.05067976918926103,0.0038874055003881563,-0.05382068902602119,-0.0453672164356007,-0.07724497091772027,-0.093170880012751,-0.059350169742948246,-0.041985603722515044,-0.05574619614441936
0.616,-0.026198150465167897,-0.06338881736739656,-0.03679385374823851,0.04772764957488628,0.004740590202344463,-0.05216054895825683,-0.045980411392167915,-0.08080940594823564,-0.09506242448220234,-0.06101748252347979,-0.04336417763680116,-0.05665627849190086
0.618,-0.025302059794439568,-0.052313532574349515,-0.026763165883718718,0.0407013932123972,-0.00017201784533728965,-0.04077358278063972,-0.04742080927379,-0.08494847188846502,-0.097081439312144,-0.06423961959444806,-0.0453259484602953,-0.0564125309204269
0.62,-0.026888981542957182,-0.04568255773427229,-0.01880864832777363,0.03740879254576804,-0.005215135175591955,-0.0324776474851528,-0.04851853701112312,-0.08712813695989254,-0.09793634651048586,-0.06604715638962799,-0.04465612930757337,-0.05316485315416681
0.622,-0.027559025501407867,-0.04938510361567147,-0.021984808929563025,0.03967490426663838,-0.004144164969537545,-0.035513113386524485,-0.04784113050384216,-0.08708494426272627,-0.09741027443615997,-0.06562270232496996,-0.04157516165931242,-0.04894149943179548
0.624,-0.024915925432670953,-0.058957867560319975,-0.034237957165676354,0.04388544781987023,0.0031882015560504738,-0.04679016761268796,-0.04461098830897037,-0.08547208661082023,-0.0955333170445601,-0.06448163222841657,-0.0385702058633468,-0.04697518293215373
0.626,-0.02069949369985282,-0.06594395785954929,-0.04553137548949988,0.04574184022601638,0.01126821961882209,-0.056607615613152085,-0.04071336888024353,-0.08292104658160489,-0.09278760803858076,-0.06478779835282228,-0.03716112301197142,-0.04749442447818058
0.628,-0.017787157038900377,-0.06541634236655619,-0.04801918742326431,0.04353597939291062,0.014653572092016977,-0.05781405666009655,-0.03965109376355909,-0.08066877446506673,-0.0905375393574891,-0.06674965597842863,-0.036947107729449466,-0.04864750075763921
0.63,-0.017134172088236466,-0.060296070429554316,-0.043544421383237414,0.03990513479095229,0.01288727476095152,-0.05257834039740634,-0.041897970733774825,-0.08012070034277724,-0.09011793522143678,-0.06792348889587728,-0.037172732659749325,-0.049719084294949326
0.632,-0.01826254024417003,-0.05856035618151959,-0.04062710624860586,0.03973772456100388,0.010168811011822203,-0.04991517101899925,-0.04366285113032561,-0.08107693477908458,-0.09125701445452077,-0.06618127778058418,-0.03757779295321118,-0.05013334401285438
0.634,-0.020311285540751726,-0.06274097041667427,-0.042722012848773694,0.043523554970429514,0.009592984933232853,-0.05355908339785986,-0.04243230060863753,-0.081948115182413,-0.09294870991626077,-0.06315500146794635,-0.03845547951318402,-0.04832782027687305
0.636,-0.020925980783835545,-0.06537133147170765,-0.04465201517683871,0.044963805159317846,0.010485846906478169,-0.05670937803354476,-0.04143064480809218,-0.08254335709113828,-0.0961961262230195,-0.06331534422852311,-0.041434268022605796,-0.045449764112919996
0.638,-0.018147356136923958,-0.0606032009342265,-0.04259552439190232,0.040048335662897366,0.011439651551876873,-0.05341814107365512,-0.04480464815025192,-0.08433194204061412,-0.10237835077142801,-0.06849111679353066,-0.047921840891117035,-0.04563284826280583
0.64,-0.014570119682260036,-0.0536678750149301,-0.0393341675020022,0.03403612799249835,0.01167947038643686,-0.0476332942750484,-0.05043285207364562,-0.087274491777482,-0.10890115234791198,-0.07457866068913348,-0.055549365831231205,-0.049749349683463825
0.642,-0.014344224742310521,-0.05159288516079109,-0.03761603146891272,0.033032791747090305,0.01048767776025169,-0.045284327691296186,-0.0526817639439817,-0.08912444097471629,-0.11148409441801581,-0.07600294572141901,-0.05956007969006493,-0.05381754618529204
0.644,-0.01681563272588176,-0.053227513725736426,-0.03668761438726805,0.035224389149840184,0.00857470915994803,-0.0459256732015739,-0.05026921632803084,-0.08805812859494407,-0.10992096522612382,-0.07224102249776508,-0.058269145806184704,-0.05429722382190763
0.646,-0.017834048335793856,-0.05469516490141746,-0.036875119040268356,0.036052222078090834,0.00850531174350583,-0.04723087928709498,-0.046283435977908224,-0.08417607837503564,-0.10729605041792654,-0.06714856607098747,-0.0539245621040464,-0.05124873878832668
0.648,-0.01640267151520049,-0.05626401123582705,-0.039723842950152105,0.03572683691812594,0.011030182158776887,-0.0495653800040376,-0.042792874031597955,-0.07949354436402498,-0.10580649169948574,-0.06386138336625308,-0.04926228444828925,-0.0472486147089127
0.65,-0.015927463161960143,-0.059139227049312466,-0.04313100440570395,0.037136067880024395,0.01298168081520056,-0.05257407235257531,-0.04003211288193786,-0.07708849370750928,-0.10574838380158398,-0.0630512360604407,-0.04606613426836697,-0.04506813019390566
0.652,-0.017956652645678223,-0.06135487371567146,-0.04343144410646873,0.03989368897306431,0.01206962483012574,-0.0537813818879838,-0.039135638676208805,-0.07846682647079103,-0.10633043777829669,-0.06381122839526641,-0.04519947756941824,-0.04562985911639585
0.654,-0.019429415587108423,-0.060321790459667846,-0.04093024469399745,0.040606616898332344,0.010232155368114088,-0.05225655263939836,-0.0416536563575047,-0.08209387220950974,-0.1069883214058321,-0.06473436710885279,-0.04568643376317179,-0.04787350489929927
0.656,-0.018759791955356146,-0.056848593458946974,-0.037968303689857895,0.038555347692644244,0.008904788969027641,-0.04950869654110469,-0.04614911350468722,-0.08529907467233612,-0.10817056974302329,-0.06509634872410178,-0.04492834763016629,-0.04976326301491371
0.658,-0.01948294548710455,-0.05489875405809157,-0.035061068102245845,0.03784198151225093,0.0062126892916252365,-0.047347426322672345,-0.04848644560650096,-0.08654977110500127,-0.1101160306808266,-0.06479098410858958,-0.04170054261076418,-0.049086792950706386
0.66,-0.024696025360606968,-0.05741425657944694,-0.03227667540823212,0.04219302737032515,0.001414049721762257,-0.04698502534398353,-0.04712389796363504,-0.08610114862492455,-0.11183831721555214,-0.06376438801714612,-0.03808077091601168,-0.045494885890706986
0.662,-0.0318003331812662,-0.062015674871164946,-0.029943700982138305,0.04896697571442614,-0.0032052830630208843,-0.047744448163330705,-0.0451713716711083,-0.0852917992144037,-0.11214063437708773,-0.06230620426920291,-0.036642540576811294,-0.042004523293774465
0.664,-0.03549818988529506,-0.0625142933936857,-0.02692358541026208,0.05136469821878426,-0.006081191851361965,-0.04632435110361386,-0.045664275996138315,-0.08498928484074714,-0.11127919781976862,-0.06117285731520198,-0.037483503030497876,-0.041946291449799986
0.666,-0.034039734661110106,-0.05647083419534137,-0.02223061951208435,0.046893114920703194,-0.00785090351792344,-0.040854177608173343,-0.047535188306534165,-0.08487404124694821,-0.11092755364026152,-0.061227281883494106,-0.03954208299871257,-0.044654917521509095
0.668,-0.030187678896936358,-0.0492907734845773,-0.01860670018657585,0.04041270821396009,-0.008404634359705244,-0.03540141889518608,-0.047554165413903844,-0.08469665452223785,-0.11235452105757489,-0.06291920192050765,-0.04253641051397326,-0.04697214098670082
0.67,-0.026776903379223293,-0.049039582508557084,-0.021651130024256723,0.03827531978256306,-0.005245725312993945,-0.03713199511277877,-0.04449754584964563,-0.08515063023090184,-0.11518204245879915,-0.06549650868451898,-0.04612003155582285,-0.04814929156627146
0.672,-0.024166766287297005,-0.05730721795099498,-0.03279748117357337,0.041549652561909116,0.002707023802034505,-0.047356131634197364,-0.040138788540565275,-0.08629916983934792,-0.11719991372895593,-0.06680412417806446,-0.04851768273150263,-0.049601969648216324
0.674,-0.022205949777175295,-0.06568578073486162,-0.04356690898274574,0.04520686141363301,0.010379013123858935,-0.05697274461342179,-0.03741890870059447,-0.08714901619175759,-0.11602801599951434,-0.06533992632095977,-0.047998658292329806,-0.05113866865388128
0.676,-0.021383243639545114,-0.06389024764576152,-0.04272151313520828,0.04382045038454295,0.010578140504648035,-0.05518156690395236,-0.03858962052367792,-0.08835614177708388,-0.11285077358068285,-0.06299329438305978,-0.04600778459811025,-0.051685240627310836
0.678,-0.020931889181705212,-0.05289050446216285,-0.03192729928445382,0.03801882214631261,0.004482413979633895,-0.04379877793762343,-0.043570926819804914,-0.09229045791035773,-0.11222036540917163,-0.06333204920944531,-0.046539359271177076,-0.052390452826343116
0.68,-0.019466134055708188,-0.04537003275610073,-0.025750963199903984,0.03401922296585112,0.0011657531091398665,-0.03659665116192392,-0.04937105570907277,-0.09861984227767853,-0.11635178703419057,-0.06649768511448251,-0.05065951174641811,-0.05508278873438674
0.682,-0.018968403442787326,-0.049465627927499846,-0.03062188133218382,0.036358684290121165,0.0034768392174892655,-0.04080430986233827,-0.05225697409070371,-0.10305523015066503,-0.1223753144113928,-0.06875528405556909,-0.054175232565112225,-0.05875102494110066
0.684,-0.02309133039855051,-0.05849260697466395,-0.03574777435793854,0.042816296412429226,0.0039506399370089484,-0.04787362438702006,-0.051215874802467136,-0.10243769920471167,-0.12602896978157718,-0.06783335720444979,-0.05360900536225338,-0.060630702701747745
0.686,-0.030206559157534636,-0.06246347748781675,-0.03231404594797737,0.047959471679815485,-0.001177160938909196,-0.048545974847481,-0.04875087242476107,-0.09874164646146259,-0.1260516826677963,-0.06588537377756531,-0.0514667311668016,-0.059988149225461126
0.688,-0.03382600624243228,-0.06141540119042127,-0.027153661551451058,0.04922824028818328,-0.005169092023574771,-0.04615784737046684,-0.04764285690326745,-0.09631677883205336,-0.12470591072035844,-0.06604613249179392,-0.0522396868822033,-0.05873816050302742
0.69,-0.0307566011381922,-0.06014344735141205,-0.028778829345850274,0.04711104946171888,-0.002464777806138716,-0.0470875819872724,-0.04774543616060192,-0.09666908668124607,-0.12502390314987397,-0.06851735772518736,-0.056169844269531276,-0.058722376932245586
0.692,-0.024847059850063333,-0.058403392560994014,-0.033015500771217204,0.0428909734577919,0.0026280831236590602,-0.04864397805448287,-0.04702443756996133,-0.09741010253681107,-0.12752495435136066,-0.07126804183776064,-0.05955172973151159,-0.05939853783573054
0.694,-0.022557559276378276,-0.05408940466023808,-0.0309814782308369,0.0391403767318737,0.002838987749496769,-0.04495368727892242,-0.044841647214763004,-0.0956187261847744,-0.12963709924644526,-0.0723885211621627,-0.059148215504296255,-0.058483127066666
0.696,-0.027181319929162506,-0.049667307674420104,-0.021955461562296667,0.03931162439851125,-0.003421960109252454,-0.03716510740170338,-0.04243109059171354,-0.09119238339461803,-0.12889712872431613,-0.07128997580683893,-0.055329790231230164,-0.054854326870570035
0.698,-0.037002055771296914,-0.048222639707714114,-0.010955907692891498,0.043836330939965334,-0.013110758937674022,-0.030155041324001507,-0.04078219041972993,-0.08693047894628339,-0.12560082100934547,-0.06946742555413518,-0.051741808897423525,-0.04998386721700892
0.7,-0.04641124214404052,-0.04764342921675755,-0.001284802807886517,0.048221055311259864,-0.022301803176800472,-0.024944273011762583,-0.04030418301140922,-0.0860517957405292,-0.12207932845939821,-0.06955458967306032,-0.051437474864151116,-0.04633714142271587
0.702,-0.04800504317611479,-0.04569528814807208,0.0022816773685705558,0.0476930281489225,-0.025097406854634595,-0.022387896935086957,-0.041948841737191406,-0.08956702598305039,-0.12143680215773206,-0.07254283095364085,-0.05376598543338456,-0.04531680527645673
0.704,-0.03664616996992737,-0.04608949677543983,-0.009041175181321349,0.04228589719427907,-0.01437708872501734,-0.028346844700803606,-0.04647140120351492,-0.09545408604022952,-0.12600551514537622,-0.07724627887518515,-0.0567067641136105,-0.04701039939223157
0.706,-0.01627367013795453,-0.05210155470710781,-0.0349873342532871,0.03581319491461811,0.008255186089630887,-0.04462277636635657,-0.05293938586891705,-0.10076802944627297,-0.13454031474629818,-0.08226605958131215,-0.06042718325243589,-0.05119970152634522
0.708,-0.0014794275656377178,-0.05924058563909195,-0.056887803145619815,0.03241527183801433,0.026529731299682276,-0.059854268889002034,-0.05864969920607404,-0.10378489213259304,-0.1416782673939498,-0.08594999746170948,-0.06510597218924694,-0.05670608005210808
0.71,-0.004344588939047339,-0.061111452698242225,-0.05619401841767807,0.03415754040090188,0.024957980666558525,-0.06096927116881875,-0.06019467102618444,-0.10334664545276714,-0.14186768263893798,-0.08573857728436891,-0.06740568082197965,-0.05976586837498682
0.712,-0.019745564530227428,-0.058259558084557114,-0.03816930560774031,0.0393619296976872,0.008504309249607996,-0.050286835894933525,-0.05619614791582363,-0.09908950295497561,-0.13481384396490328,-0.08108922898865763,-0.06381663569508472,-0.056972309590188265
0.714,-0.030964549141974832,-0.05583159795714944,-0.02450767258156552,0.043455433283340714,-0.003705873995694124,-0.0417428878072594,-0.05007398160951265,-0.09374689285354297,-0.12677515804323908,-0.07532861279668854,-0.05628667244094217,-0.05059517536701914
0.716,-0.02842384020015875,-0.05599412357243054,-0.027176814582031524,0.04285004182948985,-0.0010880621429303421,-0.043306512584113804,-0.04777314096201229,-0.09218366779996337,-0.12501188692447296,-0.07242925586601727,-0.05101752949255096,-0.04701312577750669
0.718,-0.017520036165426987,-0.0567408306015392,-0.0389940501030156,0.03829070908843297,0.010038540763575394,-0.05029477205548557,-0.051022528860830495,-0.09641234591369778,-0.13074066593051042,-0.07378020299599675,-0.05181049949709067,-0.04899477201484139
0.72,-0.009250584919501332,-0.05562136516064247,-0.04640162024508998,0.033545611888443794,0.017740336674316907,-0.05388588885082192,-0.054671156889768056,-0.10258973048730763,-0.13808666329860558,-0.0775400455824086,-0.055787298860935884,-0.05242657182539109
0.722,-0.008459173128034615,-0.052555945877098185,-0.04421008337755702,0.031473245025021114,0.01733507789686343,-0.051065085146745084,-0.05298354141260058,-0.1043906623893049,-0.1403175935586408,-0.08005510170081946,-0.0569264860561815,-0.051855301785054535
0.724,-0.01346439206758556,-0.05021059376638534,-0.03667020540320995,0.0329526666644898,0.011660206279605765,-0.045463206194471834,-0.046686656454258006,-0.09968079758639299,-0.13680312548735252,-0.07921230353157546,-0.05355737069769538,-0.04706778066087144
0.726,-0.021214240989849833,-0.05081001904443049,-0.029201902847093453,0.037179529875211795,0.0043920886228372355,-0.04112483088112799,-0.040954239295349255,-0.09296930044426471,-0.1324715371840545,-0.0758860166905013,-0.04942028244583342,-0.04243633726071206
0.728,-0.0276698999252736,-0.05241378105552918,-0.024138496652127684,0.04089546494386022,-0.0016406514928272529,-0.03870121819422026,-0.03910076666308189,-0.0910436006762023,-0.13151653150998074,-0.07246249359337562,-0.047973714875677725,-0.04184559965193816
0.73,-0.028083176577283205,-0.051406195488891006,-0.022739388758044866,0.04031146686507758,-0.00322572416020978,-0.037740509700803414,-0.04087225550749735,-0.09590386293139541,-0.13392894847886436,-0.07088807240477103,-0.04919375245812241,-0.045671799094151186
0.732,-0.021977746772004467,-0.04854146955976203,-0.026194422755064978,0.03569768617880445,0.0008802004880273265,-0.03916590846979163,-0.04442474518115238,-0.10238383173171511,-0.13696555070337274,-0.07073974873719946,-0.051032381428347005,-0.05083777956021731
0.734,-0.015273937180701616,-0.048433271119615984,-0.03306315745940261,0.03193491605608623,0.007405794186773327,-0.04329243032073798,-0.04802471671061878,-0.1043355987637508,-0.1380103132048751,-0.0698480428153855,-0.051518951851722596,-0.05353147914558017
0.736,-0.014670150848225807,-0.05242052365367509,-0.03783068176981315,0.03311667407899517,0.010581315913995623,-0.0470263286725852,-0.05014484727985484,-0.1012843499031533,-0.1360846944061017,-0.06742261037464155,-0.05024492124267173,-0.0527562404024881
0.738,-0.021584507277253386,-0.05635548344028314,-0.03485914633686589,0.0385733309497955,0.0065268400161966975,-0.0462200511949899,-0.04944396872729823,-0.0972217722190228,-0.13208960740826356,-0.0647736306420921,-0.04863539689890161,-0.05060394788043513
0.74,-0.03137885692026359,-0.05672471532778081,-0.025351846544671392,0.04448434970373333,-0.0029016191821067605,-0.04134951850076072,-0.0469367183397256,-0.09603741612646687,-0.12922214825618783,-0.0638506737893664,-0.04848500490840461,-0.04983551866882404
0.742,-0.03594579040165931,-0.05422824239495979,-0.01824004741751414,0.04647574920951311,-0.009560416389951667,-0.03756771686430821,-0.046814443700747416,-0.09914940157178245,-0.13165543079582545,-0.06643651098369746,-0.05091441784093968,-0.052279072679322226
0.744,-0.030389257091495973,-0.050400404934791074,-0.020009528008886012,0.042202589866036706,-0.006811008229725938,-0.03746567891574942,-0.05174127186587384,-0.10492506473235973,-0.13991570162606437,-0.0727393859148977,-0.055963683614109326,-0.05768191788949813
0.746,-0.01983346647602889,-0.04529972964843138,-0.0256310172825389,0.03434266250422503,0.0010913175854889746,-0.03721370284211628,-0.05859042950543699,-0.10984868685806641,-0.14861970012931797,-0.07963305638273675,-0.06131219085777902,-0.06299475962078901
0.748,-0.014390693796559802,-0.039859145047361655,-0.025945403574333756,0.028629590731082736,0.004300841171597819,-0.03306446888650174,-0.06205910631877849,-0.11154840447925966,-0.15190135748471084,-0.08278540646217185,-0.06334814191528584,-0.06482898696693942
0.75,-0.01698277617460553,-0.03761026658127748,-0.021358006151299985,0.028190797385799386,0.0012444666237996162,-0.02856034500421114,-0.06115643002082355,-0.11073929052660872,-0.15051243660451535,-0.08186390043505724,-0.06138584339267706,-0.06337922282079707
0.752,-0.022086275881089027,-0.041203682221314986,-0.019655474719955848,0.03187981186172432,-0.0014522828430060108,-0.029899308487714344,-0.05907394475991106,-0.10925296763615631,-0.14984614411446764,-0.08042638241085402,-0.05790514931987364,-0.06175374386992542
0.754,-0.024914947720979887,-0.04776968262992933,-0.02275167722509957,0.0365349015801288,-0.0008501723553183096,-0.03600330446797955,-0.05833789435447432,-0.10765385278592318,-0.1520325696167313,-0.07999117198846657,-0.05457310726564219,-0.061304102753314875
0.756,-0.025755455410140682,-0.050966849465450735,-0.024619470007080712,0.039003141645902815,-0.0007247669554510283,-0.0393222878140201,-0.05887377331711572,-0.10642137415476222,-0.15490998044066326,-0.07912678470849763,-0.05200023600826383,-0.06044540959847529
0.758,-0.02654822971678698,-0.04809317796937908,-0.021084426571422392,0.03809211229663971,-0.003937828713011704,-0.03586430189612263,-0.0589926911550124,-0.10629911718908232,-0.1563177379531591,-0.07784266923696448,-0.05125527363465789,-0.05759450151790804
0.76,-0.028030932950973624,-0.043053468158493285,-0.015031874203535921,0.0360645571151767,-0.008373352223637623,-0.029738142130857077,-0.056791720350178355,-0.1061492994678212,-0.15492825086246437,-0.07718105884964949,-0.05179714631670544,-0.05256270356265532
0.762,-0.02955549483060978,-0.04132235888126939,-0.012013367820227706,0.03598014600802307,-0.010431490753166123,-0.027359194039224415,-0.05222765065152657,-0.10426981303126219,-0.15043854588151143,-0.07638093786100117,-0.0514064173914258,-0.04635127894949522
0.764,-0.029639078639290946,-0.043023158200087834,-0.013504585358605688,0.03718788022059658,-0.009278743031908272,-0.02945459709927848,-0.047570334789823976,-0.10164828519270876,-0.14518123856601964,-0.07473494643289454,-0.05001558621062064,-0.041267991949049766
0.766,-0.027655892245262718,-0.04347679581694244,-0.01576965746235947,0.03659913111671236,-0.007054907171153514,-0.031013307203706927,-0.04481336750535987,-0.10053023502492658,-0.1424180201229627,-0.07311151186293098,-0.04961795993347787,-0.0393550932855034
0.768,-0.024824922760831872,-0.040151928708427924,-0.015357868573179223,0.03370901001345388,-0.005995509709537635,-0.02871763909500953,-0.04379865429288609,-0.1007221999513564,-0.1425926778951008,-0.07165812083076724,-0.05025134241513986,-0.03988985108958937
0.77,-0.02329784874900212,-0.0350548429841863,-0.01205402762413296,0.03090053284024378,-0.007239084171051241,-0.023968168355654268,-0.04296020768943754,-0.09976848388525711,-0.14292069529115534,-0.06960711996529755,-0.04967785877931816,-0.04029129673996826
0.772,-0.024888766312369075,-0.030055930498847572,-0.0054871229575109825,0.02948815665174416,-0.011881721664838741,-0.01813678380838301,-0.04076821848790611,-0.09639583796208538,-0.14069714567374078,-0.06736359937750276,-0.04695678195934559,-0.03937364152660736
0.774,-0.028738525155345796,-0.024697544597492488,0.0041934614480907805,0.02806074402741943,-0.018909530015607478,-0.011152908755287563,-0.03720262913423567,-0.09208612264666252,-0.13595722499690768,-0.06563184750404219,-0.0439006913039829,-0.03789201126884907
0.776,-0.030158293541638344,-0.020058646878820318,0.010735943858034998,0.025153088366211565,-0.022434649693350343,-0.006194210937771541,-0.034068004281073996,-0.08876906692210156,-0.1304788490535962,-0.06361829287983575,-0.042584721208361966,-0.03663200424365015
0.778,-0.025686581966254944,-0.019435521446017054,0.006638580374334473,0.021898320249037644,-0.017416609908827322,-0.008135750609991449,-0.032128899343529534,-0.08630887657573334,-0.12540261495207425,-0.060142523665323716,-0.04251592665662732,-0.035452944126266706
0.78,-0.01866812166938239,-0.022118201289922795,-0.0039039246170773307,0.02021923038505004,-0.008378336355885455,-0.014419772207879213,-0.029297328809103237,-0.0835105285656847,-0.12086461652227642,-0.05538373186515114,-0.04108981383295627,-0.03384565849406604
0.782,-0.0150392519592954,-0.021592372240780637,-0.0074595624782726275,0.019218037588664524,-0.0052338551691622085,-0.015431393290904932,-0.024375054180577053,-0.08033406493844507,-0.1171988992736475,-0.050748424989604156,-0.036919514133678784,-0.03187106287428579
0.784,-0.015161980098500649,-0.014376142820942637,0.0002837408932935755,0.01641524832220909,-0.009892653672516665,-0.007801434841452669,-0.019647683725401478,-0.07690764928543549,-0.1146480488620197,-0.04746102728280415,-0.03187116007783534,-0.03006155822713294
0.786,-0.014972864066757671,-0.006637415726948346,0.00849026136192516,0.012641523807891979,-0.014102379346025989,-0.00013809204726836406,-0.016587775225811337,-0.07172104501780914,-0.11160163963982837,-0.04519874724365785,-0.02864480030863761,-0.028381080411838372
0.788,-0.012788119622843512,-0.006211507964145128,0.006922725164873367,0.011218392219440125,-0.011472112147645859,-0.0010481731756376473,-0.012377223195557778,-0.06373797372757814,-0.10583686488556032,-0.04223731619086284,-0.027085729353320903,-0.02635416836685466
0.79,-0.010511241461154553,-0.01148448172181648,-0.0008813069695683467,0.012259355986955926,-0.0054024368677059835,-0.007624959460414576,-0.004105124936487615,-0.05498437905236969,-0.09810634988858626,-0.03764248657724143,-0.024884924315955532,-0.024201381310716884
0.792,-0.010618838819940647,-0.01588848189892147,-0.005410703027765202,0.013754584089385766,-0.0029467657573457534,-0.011973383429881076,0.006251887417843991,-0.04841595690895887,-0.09132914006487766,-0.03269580324197957,-0.021089054443744114,-0.022596456877388593
0.794,-0.01321748939354129,-0.018998149837239825,-0.0059202609221216985,0.016246186512036482,-0.004457873909797494,-0.013822909375999422,0.014238627980540347,-0.0444338648483928,-0.08677400182706127,-0.029063010660226776,-0.01719507014137897,-0.02159536634151231
0.796,-0.014266382712996453,-0.02352245493896867,-0.009367163605595002,0.01962784469418927,-0.0035905560434762833,-0.018064250094606802,0.017855925970873706,-0.04161141073344816,-0.08442121250878733,-0.027183861422518104,-0.01590271876310932,-0.02121747469254514
0.798,-0.009528919909018645,-0.026391666333413544,-0.017116474579153974,0.01966299944924587,0.00254962738698301,-0.023485646520029987,0.01764921088996752,-0.03995676492032186,-0.08515376321360787,-0.02754601822308068,-0.019068823826618866,-0.022403731640646102
0.8,-0.0008348419467523982,-0.02270995816185064,-0.022273550213965463,0.013789988475584537,0.009270285828271585,-0.02379564597237155,0.01441462983445737,-0.04115539604813626,-0.0889380943629065,-0.030911717811134005,-0.025301579678958436,-0.02559478118662859
0.802,0.005391913411114759,-0.01521695902748345,-0.020871116190931325,0.006514201583107309,0.011759817939230904,-0.01872386820505981,0.008764268108285005,-0.04541998282290709,-0.09246179616403359,-0.03613019140082113,-0.03044433109029733,-0.029176445924766717
0.804,0.005526740029071862,-0.012476824991364594,-0.017873439826140397,0.004840039392401689,0.011111512915921959,-0.015946150131964872,0.0021153653550430185,-0.049949188676368356,-0.09142530689163439,-0.03994776949284115,-0.031839938405207414,-0.031052342675411824
0.806,0.00252592991661005,-0.01924488211791531,-0.02129479775808993,0.010213092886019485,0.012166027640540315,-0.022013386919460837,-0.0030811930245173494,-0.05098380767388037,-0.08439944844151147,-0.03986625406989936,-0.030270293399288797,-0.03053140655419718
0.808,0.0016983830331453948,-0.03271060439135776,-0.03390717068068891,0.01785398458264787,0.01785006743275386,-0.036003830807633676,-0.0056365418117371195,-0.04711368343608673,-0.07359911367625184,-0.03617854210664618,-0.027246296464836034,-0.027697932559873156
0.81,0.003811634606014516,-0.04570235154746424,-0.04929846255328539,0.02274715036505459,0.025175416833235827,-0.05039517279033112,-0.00823019596070268,-0.04180500138947359,-0.06400374824567524,-0.0315825146793187,-0.023748726501218047,-0.023252851864139758
0.812,0.0043011077002800885,-0.05151589598150614,-0.055882965262560355,0.02406267233191932,0.02725569965909441,-0.056267026308466785,-0.015553211498828485,-0.04237168699435191,-0.06226617836903674,-0.02991902205742736,-0.02177585494264884,-0.019485812295379386
0.814,-0.0017568409471459129,-0.04953801801118912,-0.047803929803183334,0.025343003788907248,0.020052740616524928,-0.05098209890156032,-0.029283883619991992,-0.054000138784874765,-0.07274790575077017,-0.034235218922894425,-0.02368598247762618,-0.018780044491659608
0.816,-0.014787372494597495,-0.046294312701961125,-0.03121287953455126,0.030791046297778978,0.006338533452670315,-0.041058175304007793,-0.04597988740935508,-0.07457387165528359,-0.09240604927657997,-0.04453344440675995,-0.0298791101268731,-0.021003077449657032
0.818,-0.028824900213252843,-0.04718460211166242,-0.017872193450253215,0.03937253462869017,-0.006359176854256623,-0.0348396614702401,-0.06007578616111443,-0.09701179490378518,-0.11224115769897262,-0.057873063785670156,-0.038737862440435,-0.02442336981130753
0.82,-0.03453175546490067,-0.04907903281105876,-0.014264565849400794,0.0438036441573643,-0.01083805200454312,-0.0338697362473957,-0.0688951778788703,-0.11571891821475704,-0.12544203242818408,-0.07035792035687802,-0.04761885778310228,-0.02824764076376934
0.822,-0.02686884894926273,-0.044832552033192266,-0.018132259977634447,0.03773119950057569,-0.0052757140722353175,-0.033595435471833086,-0.07402041561147757,-0.12850661354320914,-0.1318836232447997,-0.07797574694563048,-0.05275278422186034,-0.03164217549463321
0.824,-0.0103445062951546,-0.03325491903755954,-0.023393864195614587,0.023136264842018913,0.005382523151626905,-0.0305193933799814,-0.07751733270417249,-0.1344478065841098,-0.13437187399398468,-0.07792957971739055,-0.05093103715547719,-0.03213155802317647
0.826,0.00514311521163162,-0.02054564403515802,-0.02605231896511738,0.00857757413448786,0.014272313561312552,-0.025656717596657486,-0.07907529668605448,-0.13355953914899962,-0.1337768868950098,-0.07139913535857635,-0.043471322197956457,-0.028346088124384175
0.828,0.01310140524361837,-0.012300713791508648,-0.02527089592311955,0.00043823685700313485,0.018117893904336026,-0.021050349767846244,-0.07737618570299208,-0.12737950958488,-0.12937939919422178,-0.06298533174418933,-0.035590603996960304,-0.02243173437548406
0.83,0.013851526604971335,-0.008295767475815207,-0.02160941092449808,-0.0018059886662857908,0.017466712691321787,-0.016567872063079282,-0.0722352285875019,-0.1183033919582627,-0.12218040598037266,-0.05649119340515966,-0.030317554378231783,-0.01751269655711994
0.832,0.011951195509700842,-0.006601581118348571,-0.018019802015476812,-0.001697379702524218,0.01537060164730866,-0.013100704776738177,-0.06536558341346439,-0.10958286777312469,-0.11564467788607193,-0.052782440726192086,-0.026423071163002826,-0.0149722596462434
0.834,0.012291578056742984,-0.00914529665494571,-0.0211304740764251,-0.0003276168945718774,0.016860654223993382,-0.015759669927029256,-0.05982921351422949,-0.10475490255724766,-0.11285559439336804,-0.051391353000348056,-0.02296180215556359,-0.014961982495579677
0.836,0.016273088669399742,-0.01834161526714847,-0.03453300606349017,0.00309368312481079,0.02461790617909986,-0.02761194673837271,-0.05807759409321688,-0.10478305163691291,-0.11395361999764524,-0.05233618144560851,-0.021989019221274046,-0.017127463945397214
0.838,0.02001432162326032,-0.029669675515333845,-0.04986398120676097,0.00752455684555915,0.0335386727362464,-0.04140230879862373,-0.06008027991992842,-0.10730199008122487,-0.11663548321705242,-0.055461569618758665,-0.02536858076274663,-0.020415335697401733
0.84,0.018090203597198942,-0.03497623999639384,-0.053455613600137085,0.010915311168277375,0.03478567695252653,-0.04579749548594354,-0.06335729047125158,-0.109877333369535,-0.11854443594463525,-0.05873902667643666,-0.031117438623193966,-0.023634002249130176
0.842,0.009861436503967638,-0.03371875196407977,-0.04389456123288299,0.013832613461207937,0.02684377165589781,-0.04026289236178939,-0.06427781937105513,-0.11084995700849054,-0.11847430391513245,-0.05896384397691091,-0.034640550467365396,-0.02586073506147191
0.844,-0.001289788151765997,-0.033985889545958846,-0.03272397621092442,0.019359342167094087,0.01614878525640022,-0.03489875441100934,-0.05980614725142546,-0.10725416187739771,-0.11578337699081087,-0.05510586183601744,-0.033449515695588544,-0.02603750513845575
0.846,-0.014570932635066421,-0.04130466363961093,-0.02658447551721406,0.029621260063158097,0.0059895397425570405,-0.03530182131661956,-0.05037156741850092,-0.09841119587556299,-0.11123865634570915,-0.05056702048087529,-0.030021257284013822,-0.024265502062402165
0.848,-0.030032394906985577,-0.0518931223539534,-0.021766741976334183,0.04228085923865185,-0.005246378175103474,-0.037573662509636084,-0.0413852674417735,-0.09101396736323054,-0.10895269428253272,-0.05081628577787582,-0.029770053281534124,-0.02365478848563196
0.85,-0.04167210758121807,-0.0588144655443598,-0.017175310218980045,0.05099822523660234,-0.014507673200668628,-0.0385604121578276,-0.03917967269977122,-0.09319423553424289,-0.11404298382502018,-0.05817193613867639,-0.03602322011816496,-0.027816963593977263
0.852,-0.04338458193393213,-0.06049789149114812,-0.017202021988477114,0.05226590167237944,-0.015801833971362145,-0.04009420107591266,-0.0445946574616492,-0.10447684913308579,-0.12673819894134228,-0.06955898784445798,-0.046652017637946686,-0.03602407572044153
0.854,-0.0399829879404806,-0.060451784119833145,-0.02063634784725964,0.05037396299941127,-0.011828882627351251,-0.04240433469929273,-0.05234704962955838,-0.1166013021618987,-0.14090232124043883,-0.07921916074965041,-0.055803448815415366,-0.04361853730847389
0.856,-0.04085338445541125,-0.061772513177382776,-0.02134842134266025,0.05154553139561436,-0.010984286245997317,-0.04321042080325382,-0.057253953879852125,-0.12283312430622347,-0.14982076609213238,-0.08368037489239366,-0.059485815019178205,-0.04772692406149432
0.858,-0.04403895815742143,-0.06441346290656227,-0.021102672861089057,0.05464447370640628,-0.012323744784969545,-0.04388697507096203,-0.0597371173027679,-0.12427107837085116,-0.15263822869902235,-0.08530276350053276,-0.059365748049129696,-0.05013007660193716
0.86,-0.037716585109433126,-0.06672139553162756,-0.029688565049228618,0.05271176724850427,-0.005102966388973962,-0.0492187607778817,-0.06405187581796914,-0.12724230366908595,-0.15411661485717829,-0.08960370899168055,-0.06049934156771925,-0.053966371617313935
0.862,-0.019464995579739647,-0.06880085990149304,-0.049580330254346466,0.044517624964855916,0.013870964915880146,-0.06024784106129484,-0.07158743028974564,-0.13478327934644327,-0.15868310973730562,-0.09764691304095803,-0.065658983908894,-0.05975191429554032
0.864,-0.003995021235952442,-0.07298558089819113,-0.06880106205878977,0.03893285300684262,0.031637505009807956,-0.07160542522481513,-0.07794446740687853,-0.14261038397024034,-0.1659486730925117,-0.10425606884471068,-0.07257724617400538,-0.06501634477601217
0.866,-0.005494525809059444,-0.0798653178993501,-0.07402436669380526,0.04384222736932714,0.033942876934989354,-0.0772307634607126,-0.07796495415265361,-0.14480503639699702,-0.1718711259846621,-0.10523485119472897,-0.07659529515756307,-0.0667301075151542
0.868,-0.019914995939182976,-0.08588786365924235,-0.06562331589766224,0.05526100553899599,0.022441622802215278,-0.0761349986629656,-0.07227951295704466,-0.14106688639858503,-0.1735791682091048,-0.10260811358303881,-0.0759025260300564,-0.0644257842383744
0.87,-0.031737822722486764,-0.08633637471855028,-0.054279411761894096,0.06199840836554978,0.010409454352057389,-0.07095625077556858,-0.06667908283934285,-0.13647828494833292,-0.17257857602145515,-0.10132304768926001,-0.0737481617027701,-0.06115245718819852
0.872,-0.031985745850148545,-0.07918038402449665,-0.047000869054435165,0.05774810871770455,0.0064923369366917056,-0.06345804717915621,-0.06553522962549703,-0.13566018022658324,-0.1726679160071853,-0.1036653183066385,-0.07478699113009789,-0.06086179432547638
0.874,-0.023621285286447254,-0.06628115168981187,-0.04265911961180073,0.04564622587755585,0.008863193238477956,-0.05426873668186614,-0.06828334551587885,-0.13879766479483574,-0.17565668559129824,-0.10836941909351239,-0.08023405731826867,-0.06493558341939877
0.876,-0.014719171716466313,-0.05384662361832559,-0.03924901125161947,0.03442335152658396,0.011998817250120718,-0.0464224989241022,-0.07199963282008569,-0.1426915654665281,-0.18044013964207903,-0.11305305516233288,-0.08749947861745878,-0.07111753181688553
0.878,-0.011391888352162956,-0.050005555206259586,-0.03880054341785921,0.03157173227911305,0.013571144470521919,-0.04519707581892164,-0.07419870679984467,-0.1441732790804762,-0.1843823375634448,-0.1152020738022666,-0.09272915537727906,-0.07509065807370352
0.88,-0.014314880319159968,-0.05645070678502557,-0.04243863332784621,0.0370998466437784,0.01405057275913425,-0.05118113653319068,-0.07312628608371152,-0.1423247372440948,-0.18408366169433252,-0.11256778025564713,-0.09266172786973889,-0.073676985684626
0.882,-0.020012742807283407,-0.06495593211411071,-0.04532382488805967,0.04436953607643875,0.012688871511032446,-0.05705396240718368,-0.06841271872866646,-0.13812253703467128,-0.1777374085153843,-0.10557229635414199,-0.08664405297119934,-0.0682628726661201
0.884,-0.026010336344017625,-0.06769028082449072,-0.0419284837392497,0.0485718786595808,0.00754583966648186,-0.05621131516022089,-0.06196727864376221,-0.1329733638422314,-0.16828059945939328,-0.09809715637582508,-0.07854423181349482,-0.06421135087697735
0.886,-0.03193850663226047,-0.0666119836910811,-0.03466721366351526,0.05081153256780433,0.00012039938857118507,-0.05158282123912018,-0.05728613225856212,-0.12887529260922606,-0.1619226015181828,-0.09414638198112539,-0.07458163718093559,-0.06490268973620295
0.888,-0.03575249447550816,-0.06773858430261899,-0.03185338332057471,0.05306248395484496,-0.0038462046097424334,-0.050858927216543726,-0.057075977550777604,-0.12845051116203599,-0.1629318936832386,-0.09459904641119532,-0.0772939128950132,-0.06807837009935137
0.89,-0.03466427841894819,-0.07106958928404188,-0.03631583430593305,0.05408675781680594,-0.00114693254992396,-0.055058482492022026,-0.06032688389577822,-0.1319058373634161,-0.1703477613085835,-0.09721316323962173,-0.08279020144632974,-0.06977418309795602
0.892,-0.030139556700087288,-0.07109403070106632,-0.04083814771871887,0.051848178425528024,0.003940701900117454,-0.05706626643957063,-0.06294059386233568,-0.13565316717387307,-0.17870556356866266,-0.09890294983630546,-0.08541462854975798,-0.06933807465247982
0.894,-0.027074617162653206,-0.06494981271712577,-0.037470842368535616,0.047119033605846086,0.004462999591369155,-0.051560163914688865,-0.062365602623702755,-0.1362139811662441,-0.18158657340652465,-0.09789387146579093,-0.08349666567542248,-0.06827359984332505
0.896,-0.028122199588617086,-0.05640149294817365,-0.027535477579982988,0.04316459224060744,-0.0012095233441139152,-0.04199101291546329,-0.059493051050140425,-0.13346599738527012,-0.17600557508761516,-0.09408490123396919,-0.07929266582895592,-0.06642363096981876
0.898,-0.03165195261188499,-0.0514200435109401,-0.019063383602165113,0.04226206883115256,-0.008428993611240321,-0.03592146922404502,-0.056245150059331075,-0.12951593520948484,-0.16518047599058508,-0.08882972979571148,-0.07569652171399287,-0.0626834564172179
0.9,-0.03451326975954711,-0.05175146694260812,-0.01699225702350806,0.04354737160075399,-0.01210687142606804,-0.0361888091621447,-0.05380854554996635,-0.1264935155685273,-0.15648708896513389,-0.08472851281367456,-0.07428907824666063,-0.05815241228683308
0.902,-0.03524782529179145,-0.05420010067379697,-0.019130544550679116,0.04477510405916243,-0.011660360115732652,-0.03908124076571786,-0.05247915107343435,-0.1252930959941379,-0.15509362669309132,-0.08402601831830918,-0.07502291669231417,-0.055719675469712605
0.904,-0.0350560661860918,-0.05502709151507796,-0.020192049795830704,0.04520954927723935,-0.010559416469427842,-0.039559708592008615,-0.05194196179004813,-0.12583933437528913,-0.16030264130766378,-0.08722331804757828,-0.07726994105438945,-0.05738333618117452
0.906,-0.035863964817809235,-0.05316528187447921,-0.017320430129179193,0.04554285542232622,-0.012017859700252808,-0.03601971474868429,-0.05220427965151803,-0.12843247667214244,-0.16753583682671694,-0.09341521374688151,-0.08099133543929644,-0.06266879307922814
0.908,-0.03751042358950623,-0.049952448804359804,-0.012333890914034399,0.04565978580243304,-0.015343388098242986,-0.031022816555558892,-0.05369383168373916,-0.1330257661547366,-0.17209014196202593,-0.1005866884668381,-0.08605057598191442,-0.06863033991918352
0.91,-0.03822243450908702,-0.046786064404458504,-0.008501276203540095,0.044289579480489304,-0.01750176513307467,-0.027657834195563395,-0.055915837124148264,-0.1374210272555713,-0.1727000736756196,-0.10607139061941602,-0.09092467207367748,-0.07186479849169287
0.912,-0.03735516666357005,-0.04315913696000689,-0.0058326606160401286,0.04083565306658406,-0.0175314718733691,-0.025275152892589556,-0.05754667361733445,-0.13897413841873368,-0.17194327578072668,-0.1082757827120514,-0.09331294405928046,-0.07138302930389194
0.914,-0.03481561210889411,-0.03934033657108135,-0.004572303292296682,0.036585843245815805,-0.015472140670969112,-0.023027275288656515,-0.0583197931044916,-0.13771667238420515,-0.1718371859955493,-0.10786124556371614,-0.09248582916286706,-0.06938322623696518
0.916,-0.02961709927173614,-0.039319465033955434,-0.009709451482518266,0.034016690728405075,-0.009506827442597603,-0.02509072855648555,-0.058628027303822924,-0.13574310882463347,-0.17129322550157802,-0.1068073284565054,-0.09015919474043015,-0.06852841905343213
0.918,-0.023281394189841334,-0.04489419724118676,-0.021590248375445237,0.03455279978809675,-0.0011653070835904154,-0.03333947239825772,-0.05759140871760775,-0.13463779593157554,-0.16912558890994256,-0.1064953308375441,-0.08812279160310905,-0.06849693265517658
0.92,-0.021553581637493834,-0.05028683024832307,-0.028718615240788697,0.03729686846107229,0.0014925637871322642,-0.03980344247120057,-0.05476679436290192,-0.13464228661438554,-0.16658222454892027,-0.10667338076725433,-0.08642583691832122,-0.06688248132912315
0.922,-0.02748838972777689,-0.05030563931359825,-0.02282256753583721,0.04078435980476491,-0.005468751797711506,-0.037492384529448586,-0.05203543263411438,-0.13445971001479856,-0.16488326030428635,-0.10582909655125215,-0.08453079425842552,-0.06332219633300423
0.924,-0.0354457759578926,-0.04918220719759927,-0.013746955929616686,0.04451627830933043,-0.013210993067412382,-0.03294954480425973,-0.05037440332052369,-0.1318596579007955,-0.16271391274823935,-0.10314834302928134,-0.08290109794544359,-0.06067883715461115
0.926,-0.03647575408801136,-0.05325021490199798,-0.01677658555052549,0.04708517323503737,-0.01038320617444898,-0.036825291557353326,-0.04790202565148012,-0.12661609080925357,-0.15939886147833565,-0.10120134113976643,-0.08387008132693523,-0.06266673761851298
0.928,-0.028842099564207774,-0.05892015249216369,-0.030073324303866368,0.045384984761056166,0.0011106356889674595,-0.04629211436841427,-0.042513067316054774,-0.12029994445736428,-0.15773728632691716,-0.10494470062272061,-0.09056248301005049,-0.07104938695028352
