time,I,II,III,aVR,aVL,aVF,V1,V2,V3,V4,V5,V6
0.0,0.0008556452068501026,-0.00043879241376928345,-0.001294437620619386,-0.00021939620688464173,0.0010750414137347445,-0.0008556452068501026,0.000636248999965461,-0.005989516447950719,0.0014918942068155637,-0.0034225808274004105,-0.0017112904137002052,-0.001930686620584847
0.002,0.005976960059278327,-0.0030651077227068346,-0.00904206778198516,-0.0015325538613534173,0.007509513920631745,-0.005976960059278327,0.00444440619792491,-0.041838720414948294,0.010421366257203237,-0.023907840237113308,-0.011953920118556654,-0.01348647397991007
0.004,0.01874630339719221,-0.00961348892163703,-0.028359792318829236,-0.004806744460818515,0.023553047858010726,-0.01874630339719221,0.013939558936373692,-0.1312241237803455,0.0326858623335659,-0.07498521358876883,-0.03749260679438442,-0.04229935125520293
0.006,0.0352279068359417,-0.018065593249200873,-0.05329350008514257,-0.009032796624600437,0.044260703460542145,-0.0352279068359417,0.02619511021134126,-0.24659534785159196,0.061423017047282966,-0.1409116273437668,-0.0704558136718834,-0.07948861029648382
0.008,0.04541338922621999,-0.02337386326277841,-0.06878725248899839,-0.011588203338291116,0.05708935104726497,-0.04552308732966231,0.03340833309484806,-0.3163579511353474,0.07879978270037959,-0.18055657587045676,-0.0903879860386707,-0.1018664912735195
0.01,0.045944678142204494,-0.024042235949047013,-0.06998691409125149,-0.011441166840356789,0.057889168423660334,-0.04660125696943888,0.031262564654949254,-0.309349096517765,0.07705398741101839,-0.17523835843451235,-0.08838545614793288,-0.0988409498507283
0.012,0.04504341532186353,-0.02407307535499072,-0.06913843029754271,-0.010749477704246058,0.05686155539700643,-0.04657081251815376,0.02255513766039367,-0.2695466228944679,0.06713981815686379,-0.14921989719316323,-0.07701332082699086,-0.08360747623258957
0.014,0.05147948348256262,-0.026612208098058827,-0.07822300734606834,-0.012498753211799041,0.06448720308649734,-0.052716534530334556,0.012111690655884765,-0.25228873400528673,0.06284114986212268,-0.1351321942355634,-0.07208249543008192,-0.07352809542121261
0.016,0.06410054223340723,-0.029834672543595463,-0.0942845734576377,-0.017147678374063717,0.07891914278437226,-0.06231829453260894,0.0021167956736245007,-0.2646847456229756,0.06619738063993841,-0.13946590037731138,-0.0755709310991782,-0.07170566824345931
0.018,0.07436400881649743,-0.030731977852805778,-0.10567184727181678,-0.021887004216023194,0.09006670396851468,-0.06808214790377637,-0.007582275549587688,-0.2789051057825865,0.07134698422593479,-0.1465757744724939,-0.07920528332525374,-0.07058918129863377
0.02,0.07598532015119557,-0.029463031159991326,-0.10618456642863781,-0.02343869628155406,0.09138198093151403,-0.06734920936676535,-0.01740758604836993,-0.2765483250166343,0.07476813223420031,-0.14302073435424859,-0.07697047988729203,-0.06529921083055559
0.022,0.07083886399301012,-0.02830197366655313,-0.10001844386188562,-0.021617029716691938,0.0856609304215802,-0.06357934771662366,-0.027243296613755814,-0.26466249328393077,0.07698098965292585,-0.13071454060511256,-0.07016676839988029,-0.058786178564928945
0.024,0.06563912337017039,-0.028520473227101224,-0.0951506807037335,-0.019074531487132246,0.08032478933984573,-0.061368543626237435,-0.03681174148863572,-0.2580710083359124,0.07871414197074181,-0.11965990655873586,-0.06319944987780943,-0.055861677172984535
0.026,0.06329032818644059,-0.02997093253047933,-0.09417793649425926,-0.01717396292777629,0.07820504280898403,-0.0619360035578041,-0.04574452822736,-0.259943891011964,0.08037038442183128,-0.11449022564849479,-0.05800228197850359,-0.05608813789881283
0.028,0.060257033822708445,-0.032645076314508206,-0.09345491587830829,-0.01410222085106702,0.07568134334032799,-0.0634477110635398,-0.05326675217938477,-0.2622832241004663,0.08304110140285545,-0.11193352022586722,-0.053597470593277546,-0.05502446216198441
0.03,0.053310315996215656,-0.03691879309592388,-0.09030638230899787,-0.008214961640214194,0.07000869416024927,-0.06448976284229002,-0.058752354304647904,-0.2586602374369279,0.08671581689473748,-0.10865360460842102,-0.04961539041684555,-0.051096424655338264
0.032,0.04508296309752782,-0.04244924980464141,-0.08732387856297302,-0.0012035933772692724,0.06417340335307695,-0.065892964217014,-0.06284064338319455,-0.2507340771375076,0.08952426892270678,-0.1056004555957184,-0.04726715350654392,-0.047284746596649205
0.034,0.04147756410550242,-0.048121326898079464,-0.08930956573815986,0.0033890902189360073,0.06358732970187547,-0.06960899887316672,-0.06749695153385145,-0.24356351175286622,0.09089652173685953,-0.104041942976586,-0.04631237818541115,-0.04556887096230572
0.036,0.04573612502623989,-0.053182983417756555,-0.09850848851890562,0.0036990712445305746,0.0707066854371427,-0.07675226315229096,-0.07464317636058351,-0.23906800062843186,0.09284910838945529,-0.10246380993934039,-0.044357095432907126,-0.04399938342403988
0.038,0.05528090054952341,-0.057739019760887494,-0.11250707586969506,0.0011821654817492067,0.08276113280995737,-0.08629753034143281,-0.08452306358706395,-0.23547794125532212,0.09633728591033917,-0.09960823262548534,-0.04065214417307182,-0.04088197820385843
0.04,0.06404061205211592,-0.06190748939532372,-0.12575491171509837,-0.0010868566002461156,0.0938997893125107,-0.09521547662651801,-0.0950893616058209,-0.23057092154842318,0.09953625654291022,-0.09660566351210997,-0.03743663886373818,-0.037629226672581374
0.042,0.06818219835708655,-0.06439133681973996,-0.1330609385932323,-0.0019511855658865865,0.09983493900929184,-0.09981191799191977,-0.10266612862585622,-0.2230472382161505,0.10178967425826904,-0.09334638259623626,-0.03568680158724397,-0.03504889387922267
0.044,0.06855151941228381,-0.06239527031281381,-0.13176657945031298,-0.003303466708742625,0.09990159637924854,-0.09738515200484722,-0.10423330719472729,-0.21220451571688384,0.10577052333002002,-0.08643122499359568,-0.0324685896421347,-0.03078539666020051
0.046,0.06788969315373872,-0.054322007393791366,-0.12267612452295856,-0.007239699130213689,0.09569522383378588,-0.08815591704698901,-0.10069553549301069,-0.19898531561610563,0.11319535866824953,-0.0741426282223129,-0.02466427857161947,-0.023342746964681856
0.048,0.06805058194525786,-0.04271557653895375,-0.11076106398640793,-0.013202248453726629,0.09010937253753133,-0.07637181147696477,-0.09695513977967543,-0.18632893890784982,0.12157671523677134,-0.06002248865998919,-0.013276015394589643,-0.014993244971395222
0.05,0.0703897585388127,-0.0335558724593706,-0.10396810199605472,-0.0186358483711018,0.08755705623899031,-0.06891201181258515,-0.097386957258023,-0.17632499599103943,0.12763576259211454,-0.04827410770358782,-0.002317226935785689,-0.007900243089594444
0.052,0.07623695130373527,-0.03164783172402087,-0.10822507389830827,-0.021757248731026253,0.09198780014263185,-0.07078067443455488,-0.10197387176756298,-0.16800523104557227,0.1314055444500739,-0.039083471541100714,0.005311068065580652,-0.0009294910832356995
0.054,0.0849063365504272,-0.035956299064017094,-0.12124138580145212,-0.023068141949707546,0.10241482146610502,-0.07995243003187444,-0.10701331291242315,-0.15911834465170646,0.13516546334406343,-0.03098299807112998,0.009892360124281234,0.007182306327434543
0.056,0.09269146241763146,-0.04037824387796851,-0.1331479251845927,-0.024226922699538175,0.11226157942320551,-0.08823611935413403,-0.10904190529703411,-0.14896797568566822,0.1402022247193694,-0.023907449486581217,0.013851047506468834,0.014977777162231577
0.058,0.09523692723032137,-0.03961477290909125,-0.13468884383369642,-0.025858180083259436,0.11459779196467251,-0.088467986285063,-0.10801258078993325,-0.13857489262454162,0.14632994653327966,-0.01715495481585371,0.019645068765444983,0.021036164019362046
0.06,0.090695361052932,-0.03292909579445467,-0.12349657468732603,-0.027193957057285025,0.10708798849190258,-0.07938357974059898,-0.10646480392185649,-0.12879664383669231,0.15361066360475875,-0.007911662147587956,0.028029260373717856,0.026899186875881043
0.062,0.08146359013551462,-0.02280814027627454,-0.10429627232215932,-0.027916858081095532,0.09308774946650122,-0.06472975181887924,-0.10621736840175426,-0.11936667363219322,0.16261839212879747,0.0049816130387011675,0.03723892962617748,0.035107916957493324
0.064,0.0729469448704407,-0.012246055640944768,-0.08527437057473458,-0.02916088016562976,0.07929175535641804,-0.049963097367651976,-0.10671697823468805,-0.1098311048766046,0.17292318729316886,0.01858369527061353,0.04449622869293844,0.04572162003841469
0.066,0.06984052395967043,-0.0036522713570408365,-0.07351864781139766,-0.03222441321403682,0.07169670175188274,-0.039549884427018615,-0.10600221739451142,-0.10073886037091768,0.18263618876838575,0.029789802843618908,0.0490257847667428,0.056095903702806114
0.068,0.07379556155968435,0.001193613187434061,-0.07257004277199809,-0.03714252950620268,0.07310037177275767,-0.0360809369232215,-0.10290169961026562,-0.0933467311132322,0.18995731133682092,0.0388550979293606,0.052601212741328375,0.0636158916243594
0.07,0.08342654236275676,0.001946662287814559,-0.08145053552940058,-0.042821016390929646,0.08238742643360134,-0.039612538457637576,-0.09877128470167712,-0.08811273074129522,0.19483282596104512,0.04705319313894826,0.056988266551207714,0.06812586609730756
0.072,0.09476249014987681,0.0004490358915965108,-0.09431683088465312,-0.04786138179206714,0.09455839493393868,-0.046775948814567425,-0.09628946070231237,-0.08377781177158322,0.19912099561545257,0.05437740034388428,0.06238636024697099,0.07200652785297498
0.074,0.10216984407148366,-0.0007240821768859555,-0.10291154620183633,-0.05062656447805955,0.1025772201233929,-0.052239949839994845,-0.09589799100889296,-0.07784618473495276,0.2056189289710317,0.06205374218712001,0.06899983900961194,0.07853153493864141
0.076,0.1012365454743356,-0.0005724680348341392,-0.10181558705002376,-0.049575831872780536,0.10153341916373664,-0.052390173260441375,-0.09491482088517351,-0.06800931682854564,0.21626479584679417,0.07374394108659614,0.07849690492973012,0.08955474053119851
0.078,0.09283690730666816,0.00011161352332199673,-0.09271881894415233,-0.04513491432455496,0.0927615298631547,-0.04790757853904732,-0.09094052144180832,-0.053943754637453066,0.22996072807385415,0.09088702799285633,0.09213525380158716,0.10348153980582181
0.08,0.08320856363935271,0.0005791252442996221,-0.08262275863738153,-0.040379855360804746,0.08290386031660804,-0.04250502643971863,-0.08454978337378947,-0.03781291103451114,0.2430752140581521,0.10980527610686922,0.10820208287985648,0.11650767685200421
0.082,0.07845374361817607,0.0016426819032696026,-0.0768114045605006,-0.038704598173758785,0.07763584417762409,-0.03877479282839329,-0.0778097739847572,-0.02244401222637698,0.25329473435090605,0.1263350420222916,0.12274155813481627,0.12690453661512888
0.084,0.0800871820734698,0.004663539170852955,-0.0754274519205083,-0.041213788534472336,0.0777653148797669,-0.03647957374692225,-0.07201254388147436,-0.009628725591017266,0.2616850000801842,0.14024970955358215,0.1326200060379581,0.136019986270257
0.086,0.08572434067277644,0.008904573002149776,-0.07682139995310384,-0.04615625358130488,0.08127490541818554,-0.035166423983172795,-0.06797361056699666,-0.00027803854543049004,0.27046543517297694,0.15302934521646894,0.13777547300123633,0.14462852474290275
0.088,0.09220541228719269,0.012021991526077028,-0.08018212175943841,-0.05091505622328297,0.08620134461624575,-0.03532631850812614,-0.06618735005123795,0.00576064055701906,0.28058969017235313,0.16475252097320392,0.14116928346449878,0.15156670497583402
0.09,0.09821166716475771,0.014540755894647742,-0.08366940002324941,-0.055403259111600274,0.09101443056394337,-0.03548377197176636,-0.0647138163243518,0.010965451995331362,0.292166124996577,0.17537644472551414,0.14692006342890432,0.1568106546235286
0.092,0.1048071251166354,0.020786287748476132,-0.08402082441002882,-0.062397598468091425,0.09463291925750046,-0.031898044375548905,-0.05896340001102731,0.019375613446118288,0.3052612765229159,0.18656118152628065,0.1575570150547882,0.1628723001712356
0.094,0.1134954573744775,0.03293314910787608,-0.08056312679968754,-0.07336627442033694,0.097329427960071,-0.023676480916120502,-0.04611080597546182,0.033004930643459975,0.31891581029378196,0.20013259791672727,0.17162392004119073,0.17181729277700525
0.096,0.12365938747467697,0.04726054273928391,-0.07639924278308174,-0.08575364105318284,0.10013955877749414,-0.014598171125956355,-0.028648097937006605,0.04978118813403604,0.33126875961348806,0.21586960324725568,0.184904583374009,0.18288089466220547
0.098,0.13153254199377884,0.05860563313043974,-0.07292665230009902,-0.09521673390208474,0.10196881985282866,-0.007541557461227514,-0.011809828221572328,0.06606678966114184,0.3424543395085312,0.23235743249861848,0.19545684121241017,0.19434576438840753
0.1,0.13208329255914172,0.06534353187166934,-0.06673942091491482,-0.0988405352964409,0.09898592133055943,-0.0009709638435914422,0.0011135846462576127,0.08045503353842351,0.35568574701565503,0.24935465808136778,0.20579450473582192,0.20626574671274536
0.102,0.12362807090351355,0.06848062533130786,-0.05512548367008017,-0.09640214023719303,0.08914644934873021,0.006969342608096345,0.009743250281567833,0.09414529076266548,0.3736280529409824,0.26777535051200696,0.21902279939319064,0.21982565474721033
0.104,0.11071508874143188,0.06914404194957018,-0.04143990580538799,-0.09045977975558182,0.0760894129258243,0.014592075767362494,0.01537217377057809,0.10858075536976006,0.3951045065432685,0.28772726895319944,0.235038374622032,0.2350586987254774
0.106,0.10118014877408879,0.06844356763155039,-0.032409257726102196,-0.08527294027199961,0.0667869116249969,0.018749746705440825,0.020549448510232604,0.12405043313401534,0.4169295580630271,0.30804913517531074,0.2516575548526759,0.250630015189896
0.108,0.09980477906298232,0.0676981162747775,-0.0316840078754449,-0.08405265364060738,0.06557078108665298,0.018498059153865872,0.02774109954534469,0.13974914684544268,0.4372358803218362,0.3277461330706208,0.2672450893794775,0.2654708418058663
0.11,0.10446017716168945,0.0676292370956249,-0.03657532346208791,-0.08635627514859678,0.07032484039832393,0.01589875353150284,0.036631262203496974,0.15400128083799308,0.4554741002030422,0.3469062577951721,0.28090638900015175,0.27973172467412133
0.112,0.10905221843641028,0.06819767611967854,-0.04088020662777116,-0.08910179677042411,0.07492730678101495,0.014102010423362295,0.04446644128571236,0.16570721082116224,0.4715223796712689,0.3662443615642282,0.2922919919663906,0.29433707010876475
0.114,0.11072076579953137,0.06971916221000694,-0.04114743726428708,-0.09080851879358563,0.07601755598025568,0.01482819349203103,0.04994196758622265,0.17673376092244927,0.48695085822239054,0.3865638568644856,0.3029865666971691,0.3103793187962823
0.116,0.11193097142380207,0.07290707447305841,-0.03908713535958386,-0.09297768174700066,0.0755738511534856,0.017461007865824208,0.054349625058126974,0.1908626805060991,0.5052495984533523,0.40864020347471847,0.31645857421293044,0.3283940411803383
0.118,0.11493362774237258,0.07697934936141457,-0.03790813907398542,-0.09643781087783333,0.07640791584910772,0.020036904882778706,0.05833232572475573,0.20889892372580998,0.5285407288740882,0.4327102796123523,0.33476969471146284,0.3471422906732238
0.12,0.11777786909433906,0.07983726415096815,-0.03790610937071339,-0.09921185397231846,0.07775662471384104,0.021427401163429068,0.06082267211330104,0.22752684464179804,0.5551431480125685,0.4582428996490302,0.35629314954120084,0.364390977793671
0.122,0.11711246346919714,0.08173096260177176,-0.035532592179368695,-0.09956196767159323,0.0760579377695311,0.02350885899108799,0.06244528911688542,0.2448362687070192,0.5820455522062727,0.48529470434395056,0.37813944301060304,0.38029532552713446
0.124,0.11253735646431731,0.08597699199459358,-0.027048712904681305,-0.09875917071931828,0.06917636372220906,0.029743074922427247,0.06645905200455965,0.26340200208328857,0.6086308577386763,0.5150894126481781,0.3997597596086275,0.3982805971409949
0.126,0.1072621664731307,0.09394034110195877,-0.014087173368714902,-0.0993260404534941,0.05975638883100745,0.040063011987827454,0.07422952101234553,0.2854157960777518,0.6363555547168512,0.547567518290604,0.4226305767933548,0.42107101308818096
0.128,0.10499313043881983,0.10260927347206338,-0.0030531802678122333,-0.10217773498441053,0.05308849100086823,0.04986311818907352,0.08286971363273403,0.3084142337395804,0.665864257152154,0.5801142556361845,0.4472584236619431,0.44723434011153784
0.13,0.10667180722225443,0.10946537014139338,0.00257626550034445,-0.1068601480723544,0.051284735485099424,0.05591854201375991,0.08936085307884124,0.32834721377293047,0.6959026256965445,0.610583934191935,0.47193973004999873,0.4727148496805164
0.132,0.11075370611652918,0.11599924142982926,0.005418194761156074,-0.11304581660390939,0.05201037639938504,0.05993710361129783,0.09386588525438902,0.3441840625976029,0.7241951527009038,0.6393819904875488,0.4943994837116951,0.49477284692077267
0.134,0.11565129819762227,0.12395467393038993,0.00850609744752949,-0.12010808246897399,0.052875418643695334,0.06454840759015784,0.09735517501492645,0.3579502959834029,0.7486386519727691,0.6672178307436514,0.5140585270509141,0.5138189631985229
0.136,0.12052449515276902,0.13190035638217085,0.011389293522678106,-0.12649039446475505,0.0538369208612042,0.06950679105909752,0.09944511351069267,0.372125120130214,0.7688149882481832,0.693308121749354,0.5325220463431575,0.5322069821290103
0.138,0.12411552733728849,0.13790077166367978,0.013684383891882024,-0.13076479213978143,0.05467675132921972,0.07394114049318942,0.1004293069496869,0.38821230544250895,0.7867248702935893,0.716753342146396,0.5519099877948672,0.5518906609544368
0.14,0.12436546744611669,0.1422294972845403,0.01780825032138434,-0.13250019581418848,0.053155660733319725,0.07883392434314043,0.102258764575195,0.40643786281176414,0.8050506786511252,0.7377884425587986,0.5725385316994993,0.5727009825660361
0.142,0.12030498636023661,0.14554305840127021,0.025265933023880735,-0.13190766349525504,0.047721876766330745,0.08473400808300337,0.10554780616716478,0.4252499629564475,0.8247530566260171,0.7573414410220596,0.5922385998692582,0.5923265973323598
0.144,0.11399969869856935,0.14701662503046273,0.03306052138975296,-0.12966802698889263,0.040675837276976046,0.08951971811936807,0.10787431967494407,0.44219649448821224,0.8447426988190777,0.7762842557921814,0.6088042127806383,0.6087575746002716
0.146,0.10973832914760667,0.1455467304173764,0.03581403672687536,-0.12720852616128525,0.037038294159366526,0.0901620712359929,0.10613660250963576,0.45629871892150586,0.8629424176318737,0.794776145690316,0.6229343406861072,0.6228640543130854
0.148,0.11056255659980226,0.1415554124741782,0.030971782510561666,-0.12604399776430722,0.039930857053136176,0.0858357552433292,0.09950743551578776,0.4680872865691912,0.8773867877450323,0.8120522983399276,0.6369896544943332,0.6369815401644819
0.15,0.11507849868284546,0.1373292867986386,0.02223765374180165,-0.1264021603330041,0.04682076959835802,0.0794531435870973,0.09039495548633024,0.47743216247372416,0.8877304765444245,0.8274184467429864,0.6511522356184634,0.6511867173663967
0.152,0.11894095281894701,0.13578730226717184,0.016851575013578157,-0.1275102847879793,0.05164510000864076,0.07595333112933726,0.08270082629458674,0.4833240756671711,0.895688389726295,0.8412833553278786,0.6632668502450825,0.6632877481548878
0.154,0.12038639262719208,0.13912768404272818,0.01875095394040345,-0.1297848396382132,0.05135085475779734,0.07854541041286672,0.07860233580141408,0.48515946199791826,0.9022631812199599,0.8542470112515752,0.6722369988039621,0.672228162983639
0.156,0.1218482762054135,0.1481999549756333,0.026353442106080403,-0.13502643258902564,0.04800401090609407,0.08702756499675927,0.07749842703191304,0.4832501185543912,0.9053425035530676,0.8650924819657372,0.678831126704552,0.6788155017303767
0.158,0.12507458718765568,0.1613720718278946,0.036314993515677824,-0.14317794899201033,0.04436824504644668,0.09875144813340017,0.07770947476306106,0.4794159787575232,0.9025254499374706,0.8711439670989548,0.683258061490601,0.683255420092031
0.16,0.12810683480089763,0.17430196889305205,0.04632337125578509,-0.1509237918594204,0.040730332180148855,0.11016285672959818,0.07827135607622605,0.4764502397173603,0.8951443262176662,0.8712821685683836,0.6847712716861833,0.6845591407298317
0.162,0.12861967278679148,0.1824647704059012,0.0541734641445072,-0.15481573274455437,0.03684771175015246,0.11798519301985942,0.07965888288858092,0.47487271052187413,0.8864463574159812,0.8668946302947076,0.6838574861189811,0.6823298440129176
0.164,0.12727231123031518,0.18378943248641819,0.05694185909572094,-0.1542261630229946,0.03432219951793309,0.11992886197449158,0.08283091341927976,0.47155745075548416,0.8769062080230409,0.8597661820560606,0.6825618534850659,0.6777534903294309
0.166,0.12627464052941065,0.17935271439650427,0.05333411613938114,-0.15101334020619497,0.035124263385460694,0.11589159716684021,0.08698030693467801,0.4636010912758217,0.8644993572090981,0.8514718773575108,0.6823419200667159,0.6733056698047625
0.168,0.12628174297499126,0.17268177167836954,0.04637343101250679,-0.14753271889566666,0.03844408169939367,0.10905431387940971,0.0894430085494775,0.45177802038927795,0.8482650344059636,0.8434650966926036,0.6824987138314949,0.6711291404131957
0.17,0.12561992384936954,0.16800741552106727,0.0422409798666383,-0.14510108532742239,0.040348976219207154,0.10461350301895987,0.08846751483865727,0.43796198453772034,0.8276614328348033,0.8340605529060551,0.6801817763348037,0.6703843801691545
0.172,0.12253703560396922,0.16812867968994308,0.045506651511539396,-0.14397553379873787,0.03734584828331251,0.1063055423297577,0.08461902501586298,0.42111645007270526,0.8001418822810606,0.8177339784328228,0.6723100030120996,0.6672443884024837
0.174,0.11804841100983877,0.1729030659036339,0.054769937090370875,-0.1442402924211384,0.030405794113400407,0.11341743632056764,0.0794507906763719,0.3990259573467796,0.7645273260551604,0.7919016922897297,0.6592016604399735,0.6589928289470588
0.176,0.11504382235287682,0.17924901284692515,0.06391238487835607,-0.1457983637083869,0.02414762354006983,0.121396059515375,0.07410169195771112,0.3724604506299839,0.7247751442640913,0.7612136030644774,0.6447214135906033,0.646606213109164
0.178,0.11402074839713819,0.1829891056080265,0.06839446668573683,-0.14733270918887756,0.021540348729933136,0.12581541963887463,0.06902506086538332,0.34395545345694684,0.6851519292538664,0.7304200224114037,0.6302791816431328,0.6313436140152011
0.18,0.11234578413229404,0.18183401036605945,0.06872224051795882,-0.1467374086156882,0.021313734532710238,0.1255677526345567,0.0642515473158586,0.31399135359340613,0.644425093160949,0.6972736308968249,0.6117838749434036,0.6113692529375129
0.182,0.10880116345160723,0.17754992866415586,0.06785586617115603,-0.14379040908194876,0.02096202780568064,0.12289220302342824,0.05966552852176211,0.28211357089311917,0.5996024088293791,0.6578111572626277,0.5860881511989834,0.5853373794707584
0.184,0.10573091362965623,0.1740183306996521,0.067305255973675,-0.14079199345570656,0.020095311610487443,0.12062983936365296,0.05475047819022993,0.24998673350151807,0.5521495873363367,0.6140625893975007,0.5563656873075525,0.5562290890370577
0.186,0.10537100244293902,0.17174802169941794,0.06547294438620838,-0.1389203640022625,0.020286045584841872,0.11844683971166109,0.04789958504528201,0.21986942427113546,0.5061770626404252,0.5707412560696742,0.5266979499644718,0.5270372059278098
0.188,0.10681151821080939,0.16622205225544748,0.05883693812253223,-0.13597922194370007,0.02326223556822897,0.11238685852680738,0.037309535251807226,0.19157314225677854,0.46296360319069174,0.5278823710118803,0.49571278066615587,0.4959480989044577
0.19,0.1077703505351741,0.15364012853829287,0.04565486236051603,-0.12956874036081908,0.0295501212549488,0.09962521873873012,0.02376664475626372,0.1632362000823651,0.4204538431463724,0.4819765406659039,0.46046903010140017,0.46039652383851665
0.192,0.1071674340519612,0.13602120070894985,0.028709093392350445,-0.12034029835786218,0.037730468914852607,0.08236971450995592,0.010794874201823797,0.13406577034503425,0.3768784050308098,0.43220122264674404,0.4226120835514567,0.4224492790196403
0.194,0.10455611548123468,0.11835061193345778,0.013509670785678723,-0.11027528814533819,0.044713416288878254,0.06557899452890108,0.0006864950814953036,0.10513954537187,0.3329879236298942,0.38166336680756485,0.385876766338882,0.38583862627286986
0.196,0.09904679571084808,0.10318440746449055,0.0038587036932647076,-0.09993415272222793,0.04759300173754194,0.05247445195190685,-0.007750114365047261,0.07805740840044474,0.29090365697335263,0.33390594146431163,0.35041562956430533,0.3504862453435982
0.198,0.09101133522972057,0.09034698582046252,-0.0007221922174566137,-0.08942051669878374,0.046234757229093607,0.04324767289134296,-0.01675539091998751,0.05326670950163606,0.2515440041443826,0.29058586198834746,0.3134476922286499,0.3135022244019922
0.2,0.08283288403349998,0.07944930996592184,-0.003243396531107969,-0.07985630501952162,0.04318364787683144,0.03661078380614712,-0.026939498492948553,0.029980149523168128,0.214080016330022,0.2514229259818328,0.2740132288779592,0.27400073731239877
0.202,0.07540144144120797,0.07058157935643833,-0.004593438509064445,-0.07178894033418354,0.039537054599620446,0.032067821670069115,-0.03772640984189442,0.008353310941897011,0.17876727448995028,0.21532226466726084,0.2350509825241009,0.2350152570635226
0.204,0.06628202956323068,0.06382794265018758,-0.0021426532370796285,-0.06398515038464392,0.033102962314809775,0.03055097947249941,-0.048420330408588216,-0.009194775871045974,0.14883274207014532,0.18191283379136636,0.20151388010550678,0.20150363316077666
0.206,0.05386789251073782,0.05890595957131844,0.005401271335728304,-0.055366245841629504,0.022846938931303656,0.032123526913235265,-0.05771200759863933,-0.02074604054513189,0.1268525397310213,0.15140139464377994,0.17650119946618986,0.1765158012864393
0.208,0.04089514792561687,0.05465391975812662,0.013994300845019556,-0.046706828787922074,0.012327642634185794,0.034050765900204706,-0.06419730507642185,-0.028193315492862445,0.11040520179289043,0.12318999052357887,0.15829129859333366,0.15830386518385473
0.21,0.03216935001513089,0.04901363835114217,0.016841327617083107,-0.03964694940556938,0.006961595054660196,0.032178251380641024,-0.06875452735073677,-0.035721378945447996,0.09451061625654815,0.09650716287320894,0.14174916898638004,0.14174720289849604
0.212,0.03058369152408276,0.04066384905278946,0.009956127001251862,-0.03516966046968106,0.009639408221734584,0.024244972820081537,-0.07460760337744647,-0.04553127534084644,0.07736905211469582,0.0720956580204153,0.12311861580666188,0.12311081880944645
0.214,0.03531986969384173,0.031075286837389506,-0.004309779137760755,-0.03329305561093994,0.018675604255078068,0.012332178173472043,-0.08384853960636801,-0.05654592885661163,0.06084955443381401,0.05115847931463649,0.10254792552984972,0.10254527419873463
0.216,0.04231389280519593,0.023806478199833805,-0.018474102347450328,-0.0332839099130079,0.02877876511479423,0.0018054305421200871,-0.09530927270810904,-0.0669673212517716,0.0461087380229614,0.03298499156270788,0.08219322338033454,0.08219621196376785
0.218,0.0465593709897297,0.021470391318972385,-0.025037602906170475,-0.033950168619335544,0.03429853863917712,-0.002411598159179295,-0.10667044075874013,-0.07678639590826555,0.031222031231750654,0.01563063966955871,0.06355164308717082,0.06355451749170929
0.22,0.04540046890321408,0.023846164169422972,-0.021547557680237295,-0.03430871166935111,0.03268039748712512,0.0009302223838564092,-0.11691491018004693,-0.08689021558732787,0.013791489928771874,-0.0014697965354689138,0.04692022473132768,0.04691996676462228
0.222,0.04074617874721964,0.028051646669592405,-0.012719196404376413,-0.03416780469317715,0.026555396233187367,0.008020646906761684,-0.12566436807887155,-0.09642675311719025,-0.005333653093234727,-0.017357522559254164,0.031929847420854904,0.031928155572194625
0.224,0.036998237943194665,0.030271604982570404,-0.006764033286257957,-0.03360993682348229,0.021693543606138996,0.012475705772588542,-0.13222346698612453,-0.10324061401603335,-0.022581925271733305,-0.03156909288871103,0.017785277586290598,0.017784610245140543
0.226,0.035680581575341326,0.02801117614581378,-0.007816604557381535,-0.03172606281732927,0.0210627560475432,0.010724144941774249,-0.13669760984090004,-0.10710720417898625,-0.0353903503203561,-0.04461374051572819,0.0037717659978586805,0.0037723705204380192
0.228,0.03421666055390102,0.021226681292666555,-0.013437390875268919,-0.02714507552015433,0.02261276108072648,0.0041280249143927535,-0.1404887253744125,-0.11035394207076667,-0.04374373211110062,-0.05661633280484788,-0.009497211667328151,-0.009496558730605032
0.23,0.03091975287750016,0.012333305254014748,-0.019334368304897643,-0.020650051448420453,0.023648254367113524,-0.0036439909810708914,-0.1448349255157772,-0.11496222451281096,-0.049040118628818824,-0.0670940037006955,-0.019799249858481537,-0.01979926788220519
0.232,0.028074406872543953,0.005045941239044508,-0.023711785158406308,-0.015608814372406495,0.024483825977859995,-0.00970016822205764,-0.1494852491127792,-0.1205855316244776,-0.05318799179745566,-0.07605980913960869,-0.02564613512273505,-0.025756198158088592
0.234,0.02889775708121097,0.0022287480143489994,-0.02690249515966491,-0.014983118934302077,0.02690944065321873,-0.012815622694280803,-0.15252149571183826,-0.12539201743557854,-0.05795437331901548,-0.08363223332537609,-0.028613003363786502,-0.02926974666652403
0.236,0.03354803693729184,0.004281199391569145,-0.029094272690396213,-0.018680712084458723,0.030988119937092825,-0.012934991085830867,-0.15183188208715484,-0.12786995667781312,-0.06360310885712626,-0.08871138121679759,-0.031906060289227975,-0.03343333689617482
0.238,0.03877290800351004,0.00867951043508642,-0.029881887456583,-0.023520943587702747,0.03451541156158607,-0.01113000424639609,-0.14801601220636476,-0.12798582526146446,-0.06826784733190834,-0.09009242178141211,-0.037013133061132554,-0.03825003675071213
0.24,0.04119638412638883,0.011623261485575333,-0.02955544123280077,-0.02592203511797013,0.03564273873499642,-0.009524152563287732,-0.14433836088569763,-0.12697066837456794,-0.06970272417019832,-0.08877326509194172,-0.042631908393086365,-0.040959354217802724
0.242,0.04104673470826176,0.011483984383768246,-0.029666377171540675,-0.025322751714937686,0.03540195410439129,-0.009906450715193426,-0.14201431419147745,-0.1256857803540788,-0.06748326211130279,-0.08735011008661545,-0.04595822192800402,-0.040442716176091936
0.244,0.041805344462918274,0.00991940759645945,-0.031945356568352026,-0.024394420790056947,0.03675873731193223,-0.012378128467403087,-0.13821268763575256,-0.12347663521593387,-0.06315245377977673,-0.08728674798865499,-0.044965589154416265,-0.038732890465673235
0.246,0.04595859612193807,0.009184947701051615,-0.03674601647911902,-0.025701270402809315,0.04127163190997574,-0.015668268138503774,-0.13089893838022637,-0.11932186278627759,-0.05917150324164708,-0.08800427669888289,-0.040852641632947224,-0.03810950001869409
0.248,0.05200560644967208,0.009434022817906142,-0.0425261114435964,-0.028787380001605405,0.0472899282896186,-0.018542199651168226,-0.12225533884586606,-0.11359652286960412,-0.05729537905890032,-0.08816593739810334,-0.03749750444742226,-0.03871383863096963
0.25,0.05513384813394662,0.008741870111881779,-0.046385320953878886,-0.030290523685903698,0.05081476986458751,-0.020512235200827802,-0.1146069817065998,-0.10779080475304276,-0.056618844427123206,-0.08664834455200206,-0.037287609262085776,-0.03934374261155858
0.252,0.05035752742955496,0.005511943093758969,-0.044867194116642875,-0.026734805556844075,0.04762560178328636,-0.020984390846346436,-0.10614815697890059,-0.10287114253417061,-0.05450370199048345,-0.08306986255826372,-0.038906938939749204,-0.03931926879406985
0.254,0.036699451975617595,0.0009697594208011237,-0.03574364066789164,-0.01797732271170293,0.03619780478496158,-0.018548387762232624,-0.09371919952597565,-0.09861158188549282,-0.050553384247804464,-0.07880982038634232,-0.03985666288204128,-0.03896525257295416
0.256,0.019042373342948955,-0.001980062248755362,-0.02101730597731984,-0.007688285829805139,0.020011288668763606,-0.012766400193913952,-0.07765121171679955,-0.09459026641261918,-0.047635917681891536,-0.07651369180148578,-0.0395707141496412,-0.039028826839872285
0.258,0.005141448914193049,-0.0029477263711180824,-0.008079114515461523,1.278361522677289e-05,0.006614375878842492,-0.006892360161570671,-0.06142516333238105,-0.09181081624317734,-0.04828394623474306,-0.07762664231890755,-0.03963344300750852,-0.040460536474359036
0.26,0.0005285123594960617,-0.004626117892075321,-0.005130684708728351,0.0034043336792983765,0.0028526452586946087,-0.006224574142331219,-0.048163881504292606,-0.09228482783542323,-0.052198144055645775,-0.0814493226397406,-0.041913448982304695,-0.04387632547000575
0.262,0.005062757798358711,-0.008202619119288487,-0.013116653735837452,0.0029463921749591825,0.009147927472506921,-0.011961976936874185,-0.03906635376733778,-0.09585885739641085,-0.057454398589185864,-0.08653034264738013,-0.04675324485903948,-0.04810532165398917
0.264,0.012984103277994073,-0.011286227436768187,-0.023814855338594978,0.0003546552149026502,0.018492628231964663,-0.018915003960112628,-0.03339173230756008,-0.09890220013235992,-0.062313721122247846,-0.09174228749493349,-0.05243990258300172,-0.05080426752266074
0.266,0.016376486560306106,-0.011635121081471814,-0.02726066691404721,-0.0015120190574661294,0.02186189973464925,-0.020727879156840486,-0.028222775877594867,-0.09733136049989292,-0.06538681751327745,-0.09610908633573308,-0.05595574893411178,-0.051822853349118736
0.268,0.010163812675292146,-0.01018205245137883,-0.01966550273704221,0.0003509271842465085,0.014831761370209973,-0.015664044485515425,-0.019631139762267297,-0.09016753399029762,-0.06528553917617631,-0.09864200140697046,-0.05506040004872233,-0.05366240137839907
0.27,-0.003975035332418219,-0.009223236682280905,-0.004995835926903256,0.006492808565208404,0.0003833970782877199,-0.007110653703959196,-0.005895584046279967,-0.08037633489811255,-0.06153372203085819,-0.09903523122735992,-0.05090326021279259,-0.057288085184944375
0.272,-0.01872478987305495,-0.009833011479952582,0.00885068130807189,0.014109571910002701,-0.013847047033957062,-0.000205667032526674,0.01072269161894049,-0.07252212320045548,-0.05598723152108949,-0.09853785733603684,-0.047691906284385216,-0.060395005324681145
0.274,-0.027245235472014802,-0.012447596933893988,0.014893350499370593,0.01993201132147373,-0.021259242564618263,0.001006121734867429,0.02594158366775154,-0.06934607253647773,-0.052752844310909486,-0.09986219026715702,-0.04897844031446236,-0.06132124027047441
0.276,-0.027655880336890867,-0.017954734406201912,0.009953563763721713,0.02302902100233578,-0.019576828806441786,-0.005181666475625265,0.03640348366690811,-0.07086121977987628,-0.05556020570620139,-0.10530073552430011,-0.055307103808770165,-0.061951772634632134
0.278,-0.02253370577741659,-0.02598736968702222,-0.0035538242520084503,0.02422719219430217,-0.010942080687103263,-0.01660845195853624,0.04094023443245407,-0.07561430072928588,-0.06391770616638326,-0.11398914016086559,-0.06498622175143491,-0.06512184709541843
0.28,-0.016133943238041105,-0.03352941334328618,-0.018134379995537714,0.024412258364748633,-0.0005586875367624769,-0.027529544932403883,0.04103290508768083,-0.08153908426174558,-0.07269243084776696,-0.1223227269693622,-0.07574924574574805,-0.07097561875953075
0.282,-0.01210968191409256,-0.03693476858096065,-0.025829923504677638,0.024150625786155393,0.005955784630671421,-0.03248412163130326,0.0407792909157391,-0.08645027204948713,-0.0765337849731821,-0.12816780916332687,-0.08588584016677277,-0.07732035383329018
0.284,-0.012448215684286407,-0.03502726064403782,-0.02337596047699779,0.024006531066862825,0.005438076736303627,-0.03000500580892767,0.04468878751461453,-0.08890689342805974,-0.07421518344565216,-0.1325277591314192,-0.09412504357445162,-0.08254674844330874
0.286,-0.016886505388088908,-0.030378677714542484,-0.014031071013144653,0.024641023556643483,-0.0010878307025642177,-0.02332084808177332,0.054031817471367115,-0.08898067027402881,-0.06914667457641296,-0.13629880579223116,-0.09903584221700987,-0.08694431769330326
0.288,-0.02299076090900212,-0.027236408505600967,-0.004636870139013571,0.026395352088667223,-0.009173931157665122,-0.017564614086603703,0.0658454807756817,-0.08795336968130303,-0.06602606555482501,-0.13840501230012964,-0.10019356867760276,-0.0916220390025871
0.29,-0.027822030242455248,-0.027417293852225785,0.00020790861135933092,0.028578513853960447,-0.014555208325231479,-0.015261461764206499,0.07606986788427239,-0.0866810274847189,-0.06644382612886016,-0.1381558746066236,-0.09993628390363118,-0.09716786036307797
0.292,-0.029915050550329992,-0.029110013185358774,0.0008392133327247651,0.029827888646646917,-0.016128443571601665,-0.015161998559450947,0.08296758696326238,-0.08448335687202026,-0.06823721932344431,-0.13689740113202195,-0.10162548087119729,-0.10299614549473318
0.294,-0.029777531780096036,-0.029882969967728452,1.9695441598355018e-05,0.02964819733994377,-0.015500731633637082,-0.015249582121385245,0.0875233732915231,-0.08032742000446873,-0.06892911059838269,-0.13634366905004394,-0.1055092060886117,-0.10734814717401028
0.296,-0.0289514535773727,-0.029582359991292433,-0.0005795171291431161,0.029019745839958883,-0.014603851510095241,-0.015195261052777126,0.0918547015966999,-0.07459548128032496,-0.06811811139267547,-0.13651631544403953,-0.10839571191920816,-0.10861989868560105
0.298,-0.02861176546457297,-0.030228891300799685,-0.0016576742769828315,0.029383774891746255,-0.013883643433692631,-0.016196490453349817,0.09784490167588007,-0.06878729701469341,-0.06626923295399781,-0.13569389778242488,-0.10771317650291105,-0.10688399016370731
0.3,-0.028850155506984693,-0.033465150956266516,-0.00466266417762479,0.03126773986666295,-0.012593653899220927,-0.01922944706092024,0.10612258449361454,-0.0638700469506529,-0.06333537324484242,-0.13244460781650616,-0.10389399096149941,-0.10338558503333871
0.302,-0.029135553417630453,-0.03803525574550406,-0.008900854263251504,0.03365777085743775,-0.010667971278608593,-0.023185571303905434,0.11517483806214335,-0.05961297391093945,-0.0599004821481173,-0.12796403244463128,-0.09886530016995132,-0.09906948831150598
0.304,-0.029363043756568872,-0.040775561851430386,-0.011387200308714929,0.03504470144271593,-0.009512082009501755,-0.025423378635472435,0.12241483849055451,-0.05526243377651879,-0.057659774140858495,-0.12516367270668366,-0.09401733588257438,-0.09438906827882101
0.306,-0.03052680224854372,-0.040419550648158116,-0.009880011116008017,0.035422274476283405,-0.010807325961346526,-0.02459423222757251,0.12702188782281,-0.050402129799948216,-0.05700424696764255,-0.12472821130377913,-0.09002806696236776,-0.09009377049308154
0.308,-0.03372584253802657,-0.0388133356739036,-0.005095201214720091,0.03625870193886617,-0.014794474587335316,-0.021922978145772196,0.1306656887557844,-0.04519797229167084,-0.05576350338367279,-0.12389193955613662,-0.08755929627442921,-0.087388090508419
0.31,-0.03799742588159235,-0.0381645492799494,-0.00017774972914354637,0.03810352158347849,-0.019408653435517464,-0.019679778245653055,0.13514201971855982,-0.04003003638630513,-0.051810279311330344,-0.12001940520004833,-0.08699646079644532,-0.0868789785694318
0.312,-0.0408348703637767,-0.03847940406145448,0.002354596153707633,0.03967382656412728,-0.022083603147985905,-0.01877845949041551,0.1403721892378478,-0.03516322564561606,-0.04600894781647217,-0.11381974729633168,-0.08767739477215725,-0.08771472685440909
0.314,-0.04189633935743293,-0.037774346940914034,0.004127374657283146,0.03983101789751974,-0.02336441063688641,-0.017426996197301262,0.14477630676271538,-0.031029101734789514,-0.04195568769389657,-0.10832394879525897,-0.08833148475992361,-0.08841341567616648
0.316,-0.04368079484746915,-0.03450293338771499,0.00918090688467648,0.039080692508202945,-0.026447051991495028,-0.013103103637155982,0.1469344637508392,-0.028467119945562305,-0.042653511642888726,-0.10578304218146584,-0.08832489870900168,-0.08834365339938022
0.318,-0.04725676718460228,-0.02994786055727924,0.017307424125866444,0.038599338792068616,-0.03187415352274723,-0.006738886287383016,0.1468846400621492,-0.02794610607451467,-0.04700823127053018,-0.10599910178383923,-0.08797926744072704,-0.0879435134345744
0.32,-0.05039194864817835,-0.027343501779550416,0.02304607684077191,0.038872400728167125,-0.03611451951702202,-0.002695889774164452,0.14621155564263452,-0.028703582483176303,-0.05042172523584933,-0.10690151792970091,-0.08770610116284154,-0.08767878890215926
0.322,-0.05147964733378696,-0.02847009953564271,0.02300922479134144,0.03997873018328154,-0.03694187371700561,-0.00359892587353015,0.1470969999443471,-0.029372241357533545,-0.04932154281875864,-0.10615240711340919,-0.0870477616829625,-0.08705422797086769
0.324,-0.05242660927196167,-0.03246742666174101,0.01998226132184224,0.04245727840266468,-0.03660283264972291,-0.0076392398909454935,0.15060934254819028,-0.029330357781238152,-0.044278562182303215,-0.10286493708375247,-0.08478449889361346,-0.08480249250881662
0.326,-0.05587675105696858,-0.03762440887401135,0.018406317931028676,0.04682476410716134,-0.038178237278597635,-0.011483044122250806,0.15517161153269965,-0.028959632805995186,-0.03902963429464251,-0.09867668194420808,-0.08027622965132407,-0.08028129554965628
0.328,-0.06123045551038867,-0.04255793898821152,0.019130973802851853,0.05217763366690594,-0.0413961800609018,-0.013707901389713438,0.15797917372754397,-0.028803404732492828,-0.03691638510387065,-0.09626710157248539,-0.074321914861745,-0.07451197164812554
0.33,-0.06441322563868351,-0.045541939093183686,0.0196207851331094,0.05568184482902427,-0.042857492362472646,-0.014778580881688548,0.1588699561753292,-0.02892851870007534,-0.03793877583927747,-0.09593926828205186,-0.06820159989642566,-0.0695745992422751
0.332,-0.061491292195367496,-0.044799607404563214,0.017369731043575948,0.05435880411888509,-0.03951558458733635,-0.015371174775574568,0.16058967636928148,-0.02907289461623393,-0.03952439700959756,-0.09494649477945989,-0.06274234743015476,-0.0670694468806338
0.334,-0.05301780524671714,-0.04100428501150671,0.012243626735932767,0.048510679365846486,-0.032046452977872064,-0.016048384892467134,0.16422775629853179,-0.029073689411655723,-0.039801316656878374,-0.09093299641860904,-0.058865894008034166,-0.06699934026752347
0.336,-0.044348160482818165,-0.03788223415114096,0.006294624935749718,0.04254117924013089,-0.024633778113767112,-0.01753293456468734,0.16709873215937582,-0.029214798210279252,-0.03910081935495882,-0.08452889089033205,-0.057512336669919846,-0.06774557814875695
0.338,-0.041340787079915925,-0.03881670689358105,0.00231501785003432,0.0412946613630076,-0.021540852018800405,-0.019919204571986954,0.16610407599033142,-0.030490156050600466,-0.03861608331923496,-0.07780391336655527,-0.05826034067332627,-0.06707784789703175
0.34,-0.04607937162806898,-0.04362161875039985,0.00246249076865625,0.046000874273663984,-0.024311334199888804,-0.022019841031416798,0.16135861484918834,-0.03378900859520137,-0.03876288119201008,-0.07202115199077606,-0.05935577082934588,-0.06391441135536248
0.342,-0.05551483319795513,-0.04884726261332407,0.0069233461310806085,0.05347173073777114,-0.03116316941348348,-0.022270742614987227,0.15618164289770436,-0.03804746309350373,-0.0390960191910026,-0.06798092103524608,-0.059553157947992416,-0.05974099069078435
0.344,-0.06385268729895802,-0.05085989620517722,0.013510155237351678,0.058888990028542386,-0.03840332086591121,-0.020139828420503696,0.15416195802607902,-0.040824283308349064,-0.03939441377781803,-0.06649329837048946,-0.05907666493574173,-0.057380515329542706
0.346,-0.06716281287485057,-0.048593784640675604,0.01929164698356627,0.059608756883709584,-0.04302550350134488,-0.01636238803826748,0.15640055408659007,-0.0418639875461457,-0.04056369569242062,-0.0671839200443293,-0.058739768848418125,-0.057781923982072374
0.348,-0.06538936912108502,-0.04370231854297697,0.022320263756579053,0.05629459947963988,-0.04393045791512455,-0.012433848043969393,0.16128329341338207,-0.043671125646707463,-0.043726120979706636,-0.06831924471590246,-0.05883476376923224,-0.05920789973366841
0.35,-0.060647756744351786,-0.039146334435570154,0.021724766576539618,0.05144968305030806,-0.04129065087630884,-0.010317111878275153,0.16585000952741927,-0.047269804431576586,-0.04797730335612567,-0.06857458792568696,-0.0590627505724372,-0.05973835500944375
0.352,-0.05530894000090458,-0.037502774427616514,0.017656074946388933,0.04768882010374762,-0.03623368190624768,-0.011473761130161263,0.1675033438809804,-0.05029375397595813,-0.0506056972821454,-0.06790978114622423,-0.05890051482940998,-0.059023423237889436
0.354,-0.05162258682125938,-0.03958248915587435,0.011844850243140725,0.046743735797992375,-0.031106307619611594,-0.015439722320043916,0.16542241636640673,-0.05060205195156497,-0.050370108100091834,-0.06636389362094891,-0.05749043961535866,-0.05718514408171948
0.356,-0.051592006529918244,-0.04418422189320273,0.0074075470402294305,0.04907667161002633,-0.028813478182441652,-0.01988169528901073,0.16081477646146947,-0.049162149945767904,-0.04888241153832895,-0.06349377270006404,-0.05413881758196676,-0.053927064196599324
0.358,-0.055680525315618165,-0.04870342398709713,0.007222962414386882,0.05353792033455768,-0.03099441745184437,-0.02213115013412509,0.15629342003474575,-0.04823177688708227,-0.04822451442384995,-0.05992421614079105,-0.049928663780601054,-0.049993916184326054
0.36,-0.061816504890493715,-0.050487397831954405,0.011844451054625327,0.05763470085420657,-0.03667009886942934,-0.020743449398961097,0.15407284950718375,-0.048760193506700134,-0.04890913975828785,-0.057694339131966955,-0.04742309769556834,-0.04778899841213952
0.362,-0.06685143408043963,-0.048494793809484286,0.019083704585497383,0.059058708460895115,-0.04305669756715472,-0.01603852669141049,0.15324390577784255,-0.0507273530774468,-0.05080240470162186,-0.05783140741176151,-0.04769496033008308,-0.04926183266789849
0.364,-0.06902393301744114,-0.043858048945765435,0.02580232307885178,0.0573773312386833,-0.04771421426306591,-0.009795332957590646,0.1499308952026323,-0.054149090770989755,-0.05410366821591619,-0.05906054843541989,-0.0491329535468537,-0.053876150863508075
0.366,-0.06881337368536579,-0.039274591038815844,0.029761241684917377,0.05445974157029841,-0.049763537638801175,-0.004747016744587064,0.1415816445380003,-0.05809022303277302,-0.058027580916225556,-0.05964111862217766,-0.049747315251659575,-0.05873104042934893
0.368,-0.06771168908202164,-0.03747903341193806,0.030080381802149874,0.05281889455180266,-0.049437301259025235,-0.0033369497426878622,0.12998475510811355,-0.060429049102159606,-0.06042391841761816,-0.05927680409217002,-0.04928841575305911,-0.060668465028947814
0.37,-0.06619271140004179,-0.03950116994995449,0.02649573428542393,0.053171956082849824,-0.0467377780630458,-0.006385237899631067,0.11922330132076765,-0.06022416625981478,-0.06025590017929783,-0.05878698131438428,-0.048735090100283575,-0.058566153666125505
0.372,-0.06352818998821241,-0.0441583424051523,0.01934859444836493,0.05419349206609034,-0.0414505893187421,-0.012743502426554575,0.11180298537821103,-0.05890909173990682,-0.058927048983426183,-0.058748348963168724,-0.048717355292658165,-0.0537933338788515
0.374,-0.06002969281004411,-0.048735441006310956,0.011387604360202395,0.0545276487692498,-0.03527758033685055,-0.01927691195531498,0.10723529140965468,-0.058316890821163564,-0.05830815013726551,-0.058995847842794595,-0.04900933977318899,-0.04920474848876407
0.376,-0.05772332357052215,-0.050626511388439904,0.007153273798975876,0.054148027854952215,-0.03182468033873002,-0.02233583986249617,0.10337821419380368,-0.05849990881895612,-0.05870533034404676,-0.0589157322372089,-0.04904876428484834,-0.04704219937725936
0.378,-0.05778734353242891,-0.049147950310332415,0.008615955203376616,0.05367580915163015,-0.032907102451690706,-0.02076004339569409,0.09849502395845769,-0.05770100580034354,-0.05923165460910173,-0.05753420591365438,-0.04819456176449879,-0.04647511171465127
0.38,-0.05902390223879221,-0.04536775872695514,0.013592349187956189,0.05305124568496447,-0.03671527935986431,-0.01632501776053852,0.0926488704508738,-0.0544567127934961,-0.059270173611128595,-0.05415141182942456,-0.045667880470349476,-0.0445624363735965
0.382,-0.05964778257500575,-0.04050506128478935,0.018982248009859416,0.05151672917932739,-0.04035154019272974,-0.011164687067960123,0.0878355233125391,-0.0499658072863471,-0.05900285164069064,-0.04991079460557516,-0.041140565529984206,-0.040656935985013215
0.384,-0.059080603567792045,-0.03526450239575828,0.02335479448258837,0.048721311499698196,-0.0424941314225365,-0.006232914307093336,0.08576291641565176,-0.04704820341170862,-0.058634770424661975,-0.047407690058109506,-0.03551823108443198,-0.037324643879923854
0.386,-0.05726185933666345,-0.030073143231570468,0.026320559321441516,0.044964557195169313,-0.043034395220529875,-0.0019331745533924128,0.08467432375469666,-0.0460679194339034,-0.05739628848685658,-0.04769735272193908,-0.030654375593412286,-0.03582795114781363
0.388,-0.0539324903047458,-0.025185671360660116,0.027736982570859173,0.04060433682724251,-0.04203513085121799,0.001432484344389685,0.08040619181485655,-0.044365924223488916,-0.05423883929575579,-0.04914250461273667,-0.02810412946155987,-0.03410172764240559
0.39,-0.049954641482935644,-0.02060783411057764,0.0286851014919262,0.036197983644869036,-0.0405520793976164,0.004356547132666673,0.07190510245077941,-0.04078504099013367,-0.05002779745903567,-0.049750571748527095,-0.027972370002991718,-0.030789581272086097
0.392,-0.047328486325107166,-0.016197665681074058,0.031044670955456575,0.03253115071206017,-0.04040453147898919,0.007873629218857746,0.06336011136169623,-0.037492825556247555,-0.0471964649152445,-0.04928475898124895,-0.028911225823516355,-0.028077720319749592
0.394,-0.04620778414610173,-0.01219764408885465,0.03424887160627323,0.029607120883789518,-0.04117172231587832,0.011563382331980643,0.059803074950060424,-0.035838318750888595,-0.04610485185452364,-0.04873156627878882,-0.0294566713233416,-0.028970678660841326
0.396,-0.04427979739868653,-0.009534091159632056,0.03491165566443596,0.02673324426410321,-0.039970053378295387,0.013236091221323831,0.06223631240312761,-0.03401491232919498,-0.044302668080821034,-0.04871766770967797,-0.029257613354006676,-0.03358080524120687
0.398,-0.04066759668828194,-0.008896797339054074,0.03173072391221873,0.024127644832260008,-0.03605122675814714,0.011923904312921303,0.06711946179101498,-0.03074246750177149,-0.040734683220835656,-0.04901141203285054,-0.028878950039441614,-0.038748636808177805
0.4,-0.03792252624359344,-0.009536612842793694,0.02827917542175558,0.023038784373040883,-0.0328883725851633,0.009850133972649392,0.06994072746466543,-0.027773501439888743,-0.0375032947193088,-0.04904958361633478,-0.02860712495583001,-0.04094750071282397
0.402,-0.038963174628847276,-0.009495381379843841,0.029438256046768668,0.024005862143079933,-0.03446313610766454,0.010435419094793525,0.06940186102093118,-0.026621681637455527,-0.03587080013145,-0.04819382224160559,-0.027593800570816562,-0.039293957965737515
0.404,-0.043661900768158325,-0.007081315255653329,0.03662418644359902,0.025847470712426157,-0.04112373401290354,0.015122750561739933,0.06769949867071821,-0.025652349359860976,-0.03402471339590833,-0.04566708010538554,-0.02476746991822444,-0.03526235285445137
0.406,-0.04879145579077793,-0.0021787175006134692,0.04664954936733827,0.026469097708611045,-0.0491925478047467,0.02226454609450615,0.06712148446382614,-0.022382346327619214,-0.030729423075918662,-0.04114058680672386,-0.020929704577551826,-0.03039699671894893
0.408,-0.05070429906816299,0.0036861747883551467,0.05438428612402381,0.024656502716204478,-0.05398576862082054,0.02857930126377485,0.06763328291258068,-0.01699063391720966,-0.028091016382599476,-0.03562837612863595,-0.0187452989168589,-0.02561064464067457
0.41,-0.04772666670343696,0.008463660590242063,0.05616730865174369,0.020882319301575747,-0.052884430914777604,0.0313240865340457,0.0674981815560728,-0.012498361742659999,-0.029009858645417837,-0.03153055249970781,-0.02013779238473514,-0.022199335006857914
0.412,-0.04045200764817997,0.010840944495706165,0.05128533987566702,0.016342303143210814,-0.04612549783410116,0.029575292260673618,0.06518102867883471,-0.01215412215947234,-0.03359226322279733,-0.03138332924530251,-0.02443172556758384,-0.02204905305444967
0.414,-0.03138143729458179,0.01093711846352853,0.042305540634369594,0.012053276619414093,-0.03663182651016485,0.0249032214335873,0.060639509735765415,-0.016543458988292358,-0.03873272823111861,-0.035767934968565375,-0.028831960207344992,-0.025953545148689423
0.416,-0.024252035914613303,0.009856136147892929,0.03398527210232071,0.009046172203057421,-0.02882366837898961,0.02046714345790902,0.055234046134817305,-0.022794925965329352,-0.0410433471560588,-0.04228167107648108,-0.030710860615657178,-0.03198046847417635
0.418,-0.022395884679988286,0.008053831846307966,0.03012144675158083,0.008795435353447713,-0.026075690123394096,0.018200630784180914,0.050713744843319426,-0.02663122236124485,-0.0401719983957343,-0.04696039866953757,-0.029954069877752048,-0.036117031885313115
0.42,-0.026974562953172146,0.004963428471061,0.03151038722693005,0.012453948624761705,-0.029139990251342916,0.0177204006875964,0.04829207124067065,-0.025677658079064032,-0.03855024584362488,-0.04689130069139665,-0.0286170327320114,-0.035371593270105216
0.422,-0.035743778133625496,0.0010780276887214363,0.03656434167623636,0.018748032620886763,-0.03608887293318694,0.018240219655611463,0.04804015598316925,-0.021587277962105238,-0.038173757444747394,-0.04210043570437941,-0.02832175972459806,-0.030965741141905843
0.424,-0.04386966470008835,-0.001412832224275678,0.042484315250691615,0.02390160947452786,-0.04316130844081834,0.019684432111734415,0.04884387522598109,-0.018642103437455305,-0.0390659238786214,-0.03561826897221147,-0.02899089585948912,-0.027554792768473755
0.426,-0.047184074902070064,-0.0013085628177642444,0.04602322260023822,0.02502544896133095,-0.04662910163390058,0.021495258955012787,0.04938710765265739,-0.0197889291535663,-0.0409049354183815,-0.03166820325972212,-0.0301846703360237,-0.028682163177327948
0.428,-0.04495581886530227,4.198947806995372e-05,0.04506095085353087,0.022697438652231748,-0.04503288192549981,0.0222114559114426,0.04926062578229393,-0.02433051443617551,-0.044067093319546835,-0.03273694796495864,-0.03249048373417325,-0.03373592974515707
0.43,-0.04021299427510707,0.0007059272624368473,0.040871712187643044,0.01985196603704946,-0.04054173696716515,0.02120966472767983,0.048918222984870086,-0.028969257832156477,-0.047954168839175734,-0.037199916434871576,-0.03672834316692267,-0.0389751395584921
0.432,-0.03697908754078989,0.0005376991378934188,0.03745989270855722,0.018589397569324994,-0.03720586932608284,0.019806766825751637,0.049041114800894466,-0.030828800417768948,-0.050408815071683016,-0.04090376151779643,-0.042113558130519965,-0.041297350969783445
0.434,-0.035957239053969234,0.0013044933055135187,0.03725993309587378,0.017965354091654534,-0.03660222383956902,0.019842759550681665,0.05049243077749953,-0.02993508678992067,-0.05028874805408002,-0.04230238097504994,-0.04581357782816165,-0.04158847452497356
0.436,-0.03435837380527044,0.004525384444907828,0.03891379647846451,0.015558139632137463,-0.03664040627959689,0.021675752575127945,0.05388462234453409,-0.02854384004952767,-0.04895098063135558,-0.043828450795045375,-0.04517056802137688,-0.043282909072322
0.438,-0.030836827448951432,0.009022639907902752,0.039874794813581395,0.011402303206537952,-0.03536134666041642,0.023901791245212717,0.05809175152573826,-0.02829729208657297,-0.04830165524294825,-0.04711096529430597,-0.04103344701959866,-0.04723464387483763
0.44,-0.02762860842303504,0.011736652685198735,0.039356208581483164,0.008421934497783702,-0.0334927037693802,0.024819712085936585,0.06066160578085886,-0.028712012805151545,-0.04868916800135892,-0.05013502949560411,-0.03769396410732878,-0.05048858845814706
0.442,-0.026500714981216058,0.01140786274575821,0.037873956443326966,0.008328473222150504,-0.032173489397094364,0.02389368868486387,0.06101517061749217,-0.02795624155190357,-0.04922747902991281,-0.0506132874121427,-0.03871092163846751,-0.050714233838405204
0.444,-0.02567387737601833,0.009828992500804674,0.03534849715781122,0.00924525465004076,-0.03045496402864407,0.021756742427372012,0.061661379398925444,-0.024882454258073602,-0.049276999297727,-0.04925387469747295,-0.043673821657460726,-0.04910941404930022
0.446,-0.022458760523769043,0.009178406656649127,0.031184818421659932,0.008316300642822762,-0.026724573868972343,0.019254722939586563,0.06514994822442985,-0.02078718248841077,-0.04900839067168506,-0.04826931891252571,-0.04892991554771143,-0.04814537810208021
0.448,-0.017212851723011905,0.009477478190009603,0.02594396541418889,0.005440185130919058,-0.02153205245539767,0.016790270316318898,0.07136666673404432,-0.0184172544989512,-0.048853087438610464,-0.04850865854697009,-0.05109028112890905,-0.048528310840905024
0.45,-0.013847774762674295,0.00876586447013315,0.02193375643969418,0.0038419617769751588,-0.01797443247378376,0.01446269714957247,0.07891950565241031,-0.0187739334922703,-0.04892530408799468,-0.04915897350266349,-0.05008648230593317,-0.049235984483781574
0.452,-0.016474338683889873,0.00549993267231267,0.021741577322083934,0.006800184086619003,-0.019247954342340428,0.012732754306204597,0.08726970183640594,-0.020184277349865477,-0.04904448263052899,-0.0493427793163277,-0.048484029247396365,-0.04936883227320056
0.454,-0.02482926465855043,0.0009510563637464406,0.025951388727556833,0.013564753223085257,-0.02545002310235386,0.012596810673556906,0.09575798287222197,-0.02073156042389509,-0.04906199903667725,-0.04907718471635702,-0.04818892413139149,-0.049047601654653335
0.456,-0.03369966060483242,-0.0018727303620910542,0.03203729303205944,0.019673718275276187,-0.03288219428679053,0.014371653823009936,0.10242470345684938,-0.0204499348335966,-0.04922473265999556,-0.04915720115340743,-0.04919707542747201,-0.04912885362572325
0.458,-0.03758585049370932,-0.002282083227369021,0.03534365731263855,0.02181963801261625,-0.03672767585125454,0.01614454331607595,0.10539975895309281,-0.021105305785610203,-0.05050126917188877,-0.05114158292226652,-0.05164009300406261,-0.05114418708083171
0.46,-0.035235888824733455,-0.0030931057207499867,0.03219316625981039,0.020887791047384613,-0.034506197084534874,0.014631082440214807,0.1042751095025987,-0.02405857070424828,-0.05378888950145573,-0.05663293398156668,-0.05684802067196845,-0.0566496478031091
0.462,-0.03012802973409494,-0.006967833152728098,0.023581664960599723,0.02006988993145856,-0.02804825199829092,0.008694011860517768,0.09999939656527214,-0.02815106990841877,-0.05804134100971903,-0.06500043815988306,-0.06483137039776479,-0.06500700041333196
0.464,-0.027005846407271075,-0.012962922581733455,0.01497352566108194,0.021187483164377584,-0.022142558836804986,0.0012937478232121508,0.09473091550307029,-0.030387981720652674,-0.06060202843818709,-0.07293042113954663,-0.07273253750469387,-0.07292443449416056
0.466,-0.027444354247934778,-0.017151448822098524,0.011496933399803446,0.02299421539075539,-0.020203867640481557,-0.002842800424184002,0.09191652369661067,-0.02888175105234843,-0.0603334094658229,-0.07754688170410287,-0.077544681474054,-0.07754044097874303
0.468,-0.029248511289898776,-0.016412883925863143,0.013975473991374448,0.023059031237826676,-0.02173037581099208,-0.0013787262851343836,0.09477722485198348,-0.024504892440083706,-0.058866884984603664,-0.07877290939721948,-0.07887983497380616,-0.07877310000761088
0.47,-0.029934216596829915,-0.011965037864008016,0.01893508397795452,0.021085799246399126,-0.023972433417273332,0.003411811246729746,0.10293239236919534,-0.02012711080549491,-0.0582371254996331,-0.07833888594641907,-0.07839114832151445,-0.07834249184706849
0.472,-0.02900468935833796,-0.008419599441204942,0.021473392143616092,0.01909450702571738,-0.024573613973433873,0.00652203674287441,0.11180066708644434,-0.018391938565897298,-0.05890169704648467,-0.07793298158369678,-0.07800928885775335,-0.07804429804228853
0.474,-0.026388692442537005,-0.009013077517698018,0.018197690180953206,0.018254604958084335,-0.022053904828739836,0.0043277214710597195,0.11700527248599306,-0.019798169053333575,-0.06064919164917228,-0.07866371565474783,-0.07927582509499895,-0.07931909967290607
0.476,-0.021055877473979565,-0.013194624048937844,0.008395322385882819,0.017520039667325862,-0.015382191173356397,-0.0032586625491673937,0.11805340378660047,-0.023187531537453537,-0.06361510268491101,-0.08128220553288747,-0.08280658442801525,-0.08280814884875015
0.478,-0.013107157150990078,-0.018595619170888627,-0.005492201880198436,0.015967944270366574,-0.005229032857404808,-0.013396078823845033,0.11722781904322731,-0.0275574108432016,-0.06712050893867245,-0.08590802878043635,-0.08716790620799258,-0.0871450374104524
0.48,-0.005400258462102564,-0.023709423118905542,-0.018800662356841278,0.01467757998395085,0.005216666239750283,-0.022621215532386163,0.11683957968730616,-0.03232086730566905,-0.06915789491318841,-0.09141975672057225,-0.08965005926989458,-0.08963828217518158
0.482,-0.0013758604711429283,-0.028727823779402868,-0.027927041137315183,0.015582377054470601,0.012497599861794505,-0.029427162802338966,0.11828429023631909,-0.03606447589991391,-0.06827197916371827,-0.0954655761856033,-0.08928695114919893,-0.08929380582605517
0.484,-0.0024081883459543298,-0.03416049743789882,-0.03200155580961184,0.019287315423247596,0.015012277379598565,-0.03408681620447107,0.12190298646653858,-0.03644165511464161,-0.06481380305682634,-0.0955887980380795,-0.08781872660557996,-0.08782842781432285
0.486,-0.007384419615274078,-0.03887894808477979,-0.031407419763371365,0.024245527459442376,0.01283327695966876,-0.036306080416965085,0.1262091928507223,-0.032388362344502215,-0.06006725842259604,-0.09122099234223903,-0.08723960409425038,-0.08724049716405208
0.488,-0.013566186355103099,-0.04076578811757134,-0.027170270773401242,0.02797302711386199,0.007480492103800586,-0.035234388345805376,0.12883655161177895,-0.0261192084480593,-0.055376680173812864,-0.08483796189536001,-0.08751232228210988,-0.08750745468412767
0.49,-0.01776450715176379,-0.03918977060326798,-0.021870133808414877,0.02879177623151563,0.001975362574652295,-0.03162904053852807,0.12978127005333667,-0.022027102794911418,-0.05251722370700003,-0.08070695605353662,-0.08674909950528281,-0.08674628710467298
0.492,-0.01764362238620298,-0.035319825512530545,-0.018658654373177118,0.026385480073724533,-0.0004822571061166926,-0.027781198487773953,0.13162517089656256,-0.022973272806142257,-0.05326896457159867,-0.08163581602962114,-0.08347290417195559,-0.08347421717718564
0.494,-0.013088834386482095,-0.03047692638818538,-0.018582236444241215,0.021624801741897192,0.001208312045468237,-0.0251593849876486,0.13529312366121632,-0.027349426928764173,-0.05700658428778926,-0.08613060022459493,-0.07894729472125955,-0.07894945667711795
0.496,-0.006418576941321846,-0.025614845813309785,-0.020160718153695776,0.016163621031724543,0.0053564453591317925,-0.02362642976309264,0.13822028530831038,-0.030819394608110277,-0.06039550457194231,-0.08981616004869648,-0.07635961973139938,-0.07635993586237465
0.498,-0.0003277641890730542,-0.022157375156973656,-0.02229781696608364,0.011697593807996051,0.009790927525438649,-0.023242201583555784,0.1377306437379882,-0.03158221225746031,-0.06141817731237338,-0.0906941716824761,-0.0774781073916729,-0.07747707856341829
0.5,0.004387227260995689,-0.02202693660104339,-0.02642507177115389,0.009319637432638389,0.014385672904797545,-0.02548582611589912,0.13386520682726405,-0.032249264161028454,-0.06198959823478752,-0.09129015284324181,-0.08146245572145171,-0.08146179177667852
0.502,0.008683964292573069,-0.025966001026311962,-0.03447763215413023,0.009059774960269332,0.020369445060475125,-0.03156598330744205,0.12842513388919985,-0.035880640338578566,-0.06509176966839236,-0.09469953462879581,-0.08661766437830504,-0.08661790869748091
0.504,0.013477393082984825,-0.03243729387905414,-0.04582139291804036,0.009947482087934516,0.02810814041774061,-0.0404105054376833,0.12306504603819077,-0.042168035630190066,-0.0710530704543631,-0.10063988532339109,-0.09186458488385087,-0.09186506391421455
0.506,0.018636466433041277,-0.039183944722394684,-0.05785934256834553,0.011030231254327613,0.036829561527537746,-0.0496690278314411,0.11882324055685244,-0.04854909710885947,-0.07797829424056857,-0.10663795215637474,-0.09680065020292589,-0.09680074568339499
0.508,0.023547237215024285,-0.04497609774477537,-0.06859002843649988,0.011894728899451715,0.045529782348270376,-0.057758727759456514,0.11643080474262694,-0.053539387980667284,-0.08409215678365528,-0.11142450839971786,-0.10140694433221506,-0.10140672852087859
0.51,0.028080164805382484,-0.04902605729156566,-0.07711725884442837,0.011927482232937043,0.053119320215404706,-0.06386774816872763,0.1160364640725022,-0.057675908309978076,-0.0881891005620482,-0.11571081570684277,-0.10592858850152317,-0.10592843331229006
0.512,0.032344551042074496,-0.0506238842780831,-0.08293783196248818,0.010556998981466096,0.05845316777672074,-0.06741380761006366,0.11676380842688448,-0.06188051575826931,-0.08952648674242786,-0.12058831717083006,-0.11057086440005873,-0.11057090804645887
0.514,0.035045540311290986,-0.05069254014259345,-0.08569562732145566,0.009069276601226044,0.06044219317359756,-0.06855861586041465,0.11735133627906388,-0.06591733498425678,-0.08873327895126074,-0.12641861515155128,-0.11486188565048468,-0.11486199118877889
0.516,0.03317208742137212,-0.05193421723369006,-0.08498186818938751,0.010600009569591794,0.05806433868421036,-0.06834704869445972,0.11728773710738995,-0.0685610372772602,-0.0876305416589793,-0.13255404535248622,-0.11761474053154858,-0.11761476712356038
0.518,0.025068042336770152,-0.0560656269949966,-0.08082070619683224,0.01687313156528491,0.051369711925899224,-0.06791547316735881,0.11695081108656571,-0.06909179354683799,-0.08744659113414333,-0.13723564421401008,-0.11814939182913287,-0.11814934693622643
0.52,0.01338484528055964,-0.06158611693678769,-0.07455150215676798,0.025529343656156105,0.042501369928657724,-0.06761572848183588,0.11682246457148968,-0.06828873450720238,-0.08771085976828481,-0.13883888721291404,-0.11751716625153696,-0.11751713029634511
0.522,0.003852759397143272,-0.06447960248746784,-0.06807043584375246,0.031345499545308415,0.03472731438208398,-0.0664746304228245,0.11694242533366976,-0.0676006055678249,-0.0867305992897392,-0.13785611046959811,-0.1181093951270347,-0.11810940245197143
0.524,0.0012126300804011336,-0.061329178393139526,-0.06256271671794643,0.030334710551341636,0.03055184137343329,-0.06298879863258122,0.11706912984585707,-0.0676612790943484,-0.08335598371251503,-0.1365188366908836,-0.12145146779623411,-0.12145149091661164
0.526,0.005795728253635047,-0.05290429926213527,-0.05884703288343486,0.023355188114619164,0.030641287944178912,-0.05741391745078496,0.11706430141407399,-0.06805170550064461,-0.07890168362625727,-0.13632636899244702,-0.12608902514803502,-0.12608903219420495
0.528,0.01347889076885871,-0.04405333612630155,-0.0575986203977531,0.015307614956602936,0.03368986303483451,-0.05227035578853647,0.11721236908907928,-0.06820670179757084,-0.07629195630819291,-0.13671443903791844,-0.12858655123219542,-0.12858654198050307
0.53,0.019346206471091584,-0.03901055652285827,-0.058311491257090155,0.01038341875054792,0.03729345078905196,-0.04956513952927588,0.1184941192935523,-0.06807009847115077,-0.07664708832142253,-0.13579791064302127,-0.126871835940987,-0.12687182767661276
0.532,0.02135717987710058,-0.03803391012856455,-0.059333347392554844,0.009116666915240493,0.039493139791658506,-0.0489227503904331,0.1217922273060052,-0.06792090507729269,-0.07818163606172177,-0.13238617407311565,-0.12198301115212318,-0.12198301225346957
0.534,0.020712178178707907,-0.03880574413487109,-0.059514660294385874,0.009660993738696163,0.03982055113927495,-0.0489689843979588,0.12604683766341726,-0.06792409805306983,-0.07879668142178851,-0.1278793688731133,-0.11712889134305154,-0.11712889637917659
0.536,0.019780121037919214,-0.03934836234725087,-0.059158286048119096,0.010234749722630734,0.03927477427585763,-0.0491039374467924,0.1287125299270135,-0.06800692605756795,-0.07828542667633052,-0.12526482233007555,-0.11490271518804916,-0.11490271699254792
0.538,0.02024962541690397,-0.03921491581033082,-0.05948055442534164,0.010127626299788457,0.03955995913789214,-0.04973497205292449,0.1292067683166861,-0.06804471841048965,-0.07770672300834476,-0.12564630570580956,-0.11444992745902388,-0.11444992557262049
0.54,0.022749035023325453,-0.03890497066956258,-0.06164540926710107,0.009210489980797685,0.042050193768640984,-0.05149080459746051,0.1301445441737103,-0.06801757407735182,-0.0777054373926979,-0.1271960699718669,-0.11262650817153548,-0.11262650628572887
0.542,0.027121539449278947,-0.03884237432432444,-0.06595107574426602,0.007351352205885325,0.046855823855094694,-0.054291574529244206,0.13401155288025,-0.06798398978084357,-0.07801912779273779,-0.12780400292020364,-0.10870127158781784,-0.10870127171650765
0.544,0.03212572289621061,-0.03919874873332307,-0.07132303070256062,0.0049972344593387525,0.05241190753093351,-0.05730388073344695,0.14003235227769084,-0.06809246072843535,-0.07827933961505094,-0.1273907449892427,-0.105639947979011,-0.10563994906960894
0.546,0.03479826481624893,-0.040609030755144625,-0.07539167278386298,0.004152212034076482,0.055776237784297224,-0.05971191644153125,0.1451690679955342,-0.06887647895622197,-0.07894651001736548,-0.1275766104984803,-0.10620569905896175,-0.10620569950966205
0.548,0.03189079321158679,-0.04385429142146187,-0.0755956325475535,0.007188563910871327,0.054166502726529626,-0.06103238375801629,0.14729818988771154,-0.07128899482909218,-0.08122047342088774,-0.1299842670676202,-0.11018064289562614,-0.11018064251574056
0.55,0.023730293804785463,-0.04801364349765853,-0.0712835719085249,0.01358103556556978,0.047653562133506605,-0.06086066632543011,0.1468490372193164,-0.07580007875188892,-0.08572914322858034,-0.13479600863526356,-0.115631493574472,-0.1156314931470602
0.552,0.015294831522166435,-0.05033369867936529,-0.06487565157069045,0.01925038064980283,0.04002982121876767,-0.059045297029862095,0.14547250034374232,-0.08158665209353679,-0.09167792410486701,-0.14071768266992615,-0.12115637541336505,-0.12115637541652219
0.554,0.012249831218679823,-0.04879260994331119,-0.06036382173157979,0.02007115617422118,0.03617206751598035,-0.056252193644975,0.14322749780087676,-0.08725169071899401,-0.097795402935939,-0.14650117940825114,-0.12667937866774387,-0.12667937890250047
0.556,0.016661335807843826,-0.0440829121024732,-0.06051571219616442,0.015287559916316662,0.038592802648889035,-0.054006923711341887,0.1382738871482438,-0.09217027849460285,-0.10325631479222376,-0.1517562189914792,-0.13236053663890013,-0.13236053674930984
0.558,0.025757309998884294,-0.039219706136288696,-0.06514938061906965,0.00799788393336633,0.04578621795713198,-0.053847246477518186,0.13029462409800083,-0.0966618188492039,-0.10713510315506551,-0.15582444487670344,-0.13700531130445695,-0.13700531122908255
0.56,0.03448093294562048,-0.03711095454395918,-0.07180060039942576,0.0023804210492552966,0.0537274897158956,-0.05607224397707802,0.12192979553590941,-0.10129440247314174,-0.10848886909710907,-0.15753050623029122,-0.13883708942812398,-0.13883708933186786
0.562,0.040312913460097535,-0.037927604713486,-0.07825697284623373,-0.00034447671033981813,0.059774293756345985,-0.05937843508631597,0.11499568001127312,-0.10655041432135075,-0.10773969081644721,-0.15692319083732417,-0.1379812961134366,-0.13798129610859294
0.564,0.04450254049634163,-0.03941313557306447,-0.08381298976399143,-0.0021378913225904776,0.06419516882734926,-0.06205181197622905,0.10815733556146173,-0.11230966580717391,-0.10664358617727411,-0.15571609880107853,-0.13657939369149172,-0.13657939374170733
0.566,0.04821234067317379,-0.039754407304968,-0.08790844698644365,-0.004310695039105014,0.06759102775837669,-0.06330561171392138,0.10028662487203248,-0.11704198186316439,-0.10644651776755178,-0.15538425282476684,-0.13628685589504047,-0.1362868559216695
0.568,0.050051144867503096,-0.038919749807925196,-0.08899854769832345,-0.005764019005151782,0.068846378534501,-0.0630974144919712,0.09318335514979482,-0.11875949951963805,-0.10672607449122233,-0.1557446341736409,-0.13677220228023523,-0.13666250416210857
0.57,0.04778304834592329,-0.036929966512818116,-0.0847578866102253,-0.005204197792728559,0.06579534353294177,-0.06058456028268185,0.0895801167183029,-0.11709748305716901,-0.10588120327321669,-0.15538506620383855,-0.13645125677232964,-0.13579467792354913
0.572,0.04084164482096527,-0.03235748585615961,-0.0732054894394997,-0.0033595887624975297,0.056970333224585244,-0.053599389912457704,0.09058844286103662,-0.11327942519808165,-0.10283918849752748,-0.15294572125053751,-0.13394037487731625,-0.13241297767874805
0.574,0.03153194421765137,-0.023961269040096496,-0.05547178866203395,-0.002537092733514587,0.04374645947462308,-0.04120753697256347,0.09522876716864805,-0.10850812016156942,-0.09880759543669042,-0.14831241441659831,-0.1291309874909515,-0.12789393645384972
0.576,0.023801599271042063,-0.013435638064752923,-0.037201600849027225,-0.004047248467045952,0.030659073050969765,-0.026617146115462228,0.1013091231815454,-0.10334465045410188,-0.09623123214038141,-0.14264899103190046,-0.12314581068606918,-0.1251474546000919
0.578,0.019989775245446637,-0.005846867608100638,-0.025688536031273662,-0.0061409472602026415,0.02245163408098028,-0.016314226910779158,0.10722112568948931,-0.09790271985327112,-0.09524616850682396,-0.1369526574723914,-0.11705400043970235,-0.12475871710753979
0.58,0.019375529092538285,-0.006300580775446138,-0.02522730775240404,-0.005517247873762751,0.02108243839388845,-0.015563977387104282,0.11260459915820265,-0.09240163912727384,-0.09336160145943406,-0.1314928121751437,-0.11134848070065224,-0.12391536090698724
0.582,0.019903996636033407,-0.014573199216426073,-0.03372910598863025,-0.0013239054998341318,0.024917947509924748,-0.023591530685822946,0.11682658926555575,-0.08803090480141032,-0.08968854021501954,-0.12712972818413099,-0.10700097905711968,-0.12001394469281321
0.584,0.020414342045660085,-0.024265531749895347,-0.04401917105258904,0.0035433018542553882,0.030161966230636397,-0.033704730587975094,0.118501403240128,-0.08609512191162223,-0.08655838823208746,-0.12531762371754165,-0.10532446721043967,-0.1140237537180518
0.586,0.02148918155725988,-0.02887558572243,-0.05026301247501695,0.005370293346207679,0.03411150555652949,-0.03948291265215608,0.1170924906058822,-0.08554921411635585,-0.08552596360932242,-0.12602169090896376,-0.10609238307566787,-0.10985213160154708
0.588,0.02447473492437465,-0.026819988170561575,-0.05179453596709194,0.002641380411403532,0.03674149694558406,-0.03938370266718538,0.11321994661204145,-0.08356408032713122,-0.08458110546511866,-0.1272275152357241,-0.10736764643340756,-0.11059609735581055
0.59,0.029572801411624515,-0.020041762132228406,-0.05024837045321067,-0.0036962894398164282,0.03871637830819072,-0.03504181490275604,0.10717524583053574,-0.07962175148102003,-0.08098111822967016,-0.1269049001899392,-0.10764765069360424,-0.11503729813600799
0.592,0.03534401068438185,-0.011005902800029926,-0.046623081599611156,-0.011459285154733332,0.03985513659232373,-0.028526614791555903,0.09882265184311588,-0.07652855973014037,-0.07508056853870677,-0.12484976311513568,-0.10700602217374504,-0.11868631315523623
0.594,0.03982604628343736,-0.0026794016957025716,-0.04237629020567265,-0.01797846578615626,0.040128873922008104,-0.02258737799638947,0.08912516395860606,-0.07648220807046173,-0.07018325263347087,-0.12295767327768578,-0.10605079349679139,-0.11885981454054757
0.596,0.04147859223969792,0.001345443542662906,-0.03992802991792038,-0.020721825996474257,0.03991444744009012,-0.020272036591172136,0.08029845505618624,-0.07868871149812252,-0.06914838807372489,-0.1233924755577023,-0.10516100929994125,-0.11695367873429258
0.598,0.040219315620333214,-0.00014650737429072573,-0.04033020802710788,-0.01918233387628876,0.03924785056171267,-0.021958343431024305,0.07419013591586276,-0.08100636929238299,-0.07144658005256216,-0.12568682362344147,-0.10484017338754335,-0.11506316369996085
0.6,0.03840702590289614,-0.0034666692021704127,-0.04196522908699481,-0.01636992819499294,0.038581874281425704,-0.02429926371372073,0.07113862069550095,-0.08111559777160444,-0.07346405753909789,-0.12635968398308906,-0.10500822378583272,-0.11248637844570225
0.602,0.03849170497695694,-0.003127902673118403,-0.041682667526034445,-0.01631051026402904,0.03847438761591406,-0.023317602897373432,0.07044746268146947,-0.07649804024704052,-0.07142708536435241,-0.1224010409846891,-0.10403476072309058,-0.10723441565637389
0.604,0.03917179834660338,0.0015934372537856653,-0.037558942217829766,-0.0191517801391079,0.03768943345179158,-0.018499287072396665,0.07168894964161611,-0.06678720762550686,-0.06467335073386316,-0.11462512586095876,-0.1005724625969881,-0.09999352966423827
0.606,0.03812087529348412,0.005611890403496809,-0.032465453657179524,-0.021431818208606568,0.03562837695170341,-0.013972487947591055,0.07474110305316131,-0.05614989176705926,-0.056675329516147815,-0.10611123669329683,-0.09611528588564053,-0.09442419905288285
0.608,0.038288530885709465,0.0053469638808771,-0.03293137281894148,-0.022171052647363996,0.03614215878653629,-0.014439574324575183,0.07862709315345975,-0.04995486170252596,-0.05098577370543511,-0.09790245406768182,-0.09338049794556606,-0.09279807491235707
0.61,0.04442711786830701,0.003141018757439743,-0.041304965790633426,-0.023923718705338357,0.04296405504481981,-0.019798032563962245,0.08165130889913073,-0.049019950773451546,-0.04677150004009866,-0.08973474008039949,-0.09206565603342388,-0.0926435135226934
0.612,0.0532323134546922,0.002476369226857381,-0.050792451640517135,-0.026833470642110297,0.05176618376017074,-0.024956305035437075,0.08253839092345343,-0.049842792974145324,-0.042287240311603545,-0.08446896567551589,-0.08923308811849172,-0.08981669124147197
0.614,0.05513221286087035,0.004241734263922055,-0.05101845685574771,-0.027860386373718703,0.052788345481846695,-0.024133579976379316,0.08109490640153785,-0.049475752125559644,-0.04014888397921394,-0.08582144800276172,-0.08427027067418437,-0.08423900736115006
0.616,0.04704077135947182,0.007276967617871216,-0.04008167961325135,-0.025869405162980686,0.04306189727289895,-0.017063728101561704,0.07837286326712851,-0.047533131080863836,-0.04296854719929803,-0.09189575374083964,-0.07980032006314254,-0.07936043175148215
0.618,0.036648355506583054,0.006910373779375382,-0.030179789895662248,-0.021761010991491574,0.03216910102069694,-0.01271821428987442,0.07550134676896836,-0.0453412380614858,-0.047488419659175135,-0.09720970249600157,-0.07804330058897918,-0.07724650467964157
0.62,0.031808991885957934,-0.002498823725522841,-0.034698572792980116,-0.01513753950225547,0.03127911282943138,-0.020633610630745657,0.07239692093835244,-0.045487710055478185,-0.04978623225552328,-0.10028857130217383,-0.07981566241606751,-0.0782915175544814
0.622,0.030961239032550016,-0.018122852317233127,-0.049389193575854834,-0.005947612790243388,0.03844444489769798,-0.03646722966967969,0.06905928989302071,-0.04980858412861192,-0.051887093785125175,-0.10401419813346303,-0.08555427363563049,-0.08357156840139612
0.624,0.028453491903379955,-0.028740813347289607,-0.05747058842688853,0.002158192209743979,0.04237799620556418,-0.04565178011987035,0.0668738046019283,-0.056359918454574706,-0.057516078923785324,-0.10980960297053019,-0.0944006317128823,-0.09312351935536363
0.626,0.024466758397378725,-0.02908364778337027,-0.05376258799854167,0.005075354345705617,0.03926546133869579,-0.0432701389953089,0.06684047809604242,-0.06064077176828019,-0.06538275707685676,-0.11538921371938952,-0.10351417306657192,-0.10346201883037418
0.628,0.02309600900406569,-0.026576886231810135,-0.0498239593627161,0.004013428955431615,0.03599011708946694,-0.03947131069445661,0.06784951682724621,-0.06010721926148093,-0.07100182037760784,-0.11760678823337005,-0.11015751883699194,-0.11019577835521782
0.63,0.023930812746878583,-0.02977679312371643,-0.05394644503325835,0.004066127254829042,0.037165369476214107,-0.04299667637148323,0.0678193932051651,-0.05603899084329582,-0.07279722917857938,-0.11577894431736876,-0.11402868556666364,-0.11283970824118686
0.632,0.02174564391855177,-0.03768029965590604,-0.059788261998153396,0.008224163300216922,0.038308485449086736,-0.050052455699356325,0.06612195269381622,-0.05218607808267627,-0.07328660557174485,-0.11238450057610587,-0.11625746481725159,-0.11470937038769068
0.634,0.014057585056676737,-0.04396569466805802,-0.05829527554613546,0.015027237214262225,0.03379512650478025,-0.05280111289864435,0.06484769477836368,-0.05273060378278496,-0.07513538642515935,-0.11079261986306464,-0.11688533966575376,-0.11762102366997575
0.636,0.005420339454572142,-0.04540693157776027,-0.050842245566989054,0.020375498931521022,0.0257269424317678,-0.050285984973850464,0.06687617480267544,-0.05864852419215023,-0.07806417106928927,-0.11229809743892066,-0.11520602379817525,-0.1190585768042654
0.638,0.0024790172888063027,-0.04262966654982185,-0.04497369101002453,0.020718470647638224,0.020932767697930937,-0.0463473118405369,0.07210747377353598,-0.06411362578923346,-0.07900486554546272,-0.1146872290995508,-0.11169032346025318,-0.11594985313464783
0.64,0.005493613004494081,-0.036652890430317935,-0.04206640948301385,0.016149923015072114,0.02100186134039963,-0.041700836719492484,0.07739596584870867,-0.06070819119195377,-0.0746881239483844,-0.11367143884787326,-0.10781577869284976,-0.10936211963987276
0.642,0.007834056930581392,-0.02924707575903534,-0.03711330716096245,0.011025857656240675,0.0207227886178886,-0.03460459624451625,0.08083196065933015,-0.04815770814851049,-0.06573316603940825,-0.1077733350502088,-0.10497317691656496,-0.10384762433748296
0.644,0.005712930356587611,-0.02485281705773487,-0.030646632431968825,0.009821270149839904,0.017816604556005217,-0.028293522226777626,0.08359109159819539,-0.03628930697036115,-0.05766182890234079,-0.10116572664227204,-0.10423245935063008,-0.10295293801593396
0.646,0.0044932524803057315,-0.026102022835123088,-0.03073756854436585,0.011442660707039634,0.017777864365533195,-0.02913581692340018,0.08675181199631657,-0.03344694033407891,-0.05557141159114518,-0.0988802776100181,-0.1058040140729335,-0.10624550701641614
0.648,0.010741789158583339,-0.028287096240491947,-0.03932953077132755,0.010222292213421516,0.02470054220171349,-0.03561937331446009,0.08896500753035057,-0.037576079089038206,-0.05941181386154165,-0.1010339382060039,-0.10890247966297964,-0.11057326076323311
0.65,0.02109951340581841,-0.02529796623076607,-0.04680130883093347,0.00442204793620842,0.03290363416191621,-0.03847647926326846,0.08848218214274392,-0.0412937267791736,-0.06602189124291902,-0.10467967815768095,-0.1127148511256494,-0.11357935282341072
0.652,0.02553758180423205,-0.019686399401239067,-0.04550708556286713,-6.01862472323693e-05,0.03397922410323521,-0.03427923996828596,0.08559759480665706,-0.04167365602446838,-0.07240376166527611,-0.10870212494057194,-0.11630530417672039,-0.11528167246806868
0.654,0.02123059498722133,-0.019259772824927156,-0.04063087573355086,0.0019326893827909808,0.029126218910586678,-0.030469337121372106,0.08200516992293808,-0.04215781576788738,-0.07596425600575016,-0.11341780027531267,-0.11846083939038102,-0.11664387159464297
0.656,0.016309261661239034,-0.0257946171184583,-0.042419921987145934,0.00716158471860307,0.027670864298241164,-0.03459607536664237,0.0790127794490266,-0.04685216538906259,-0.0755583647255468,-0.11726498712763517,-0.11933136198011056,-0.1181426785086094
0.658,0.017736171820851458,-0.033997168645565595,-0.052392639407100046,0.009601372196370627,0.03372585522005615,-0.044674843806375625,0.07797841348836483,-0.05495468460737551,-0.07313608278265199,-0.11741704597722681,-0.1201852212030517,-0.11987187254769383
0.66,0.022223152920281253,-0.03954134239099379,-0.062331161042034997,0.00943246920174078,0.04109393262933018,-0.05290461188692593,0.08119204930104813,-0.060637673687654214,-0.07177556589942376,-0.11370036490429204,-0.12065540971393104,-0.12147427922978767
0.662,0.022324360098107104,-0.04314514425126255,-0.06529801469235638,0.01157816518343918,0.042534302701542404,-0.05569210472100512,0.08940328640430242,-0.05857501093384506,-0.07220351911762861,-0.10980064196433559,-0.11921764460111689,-0.12181601721100474
0.664,0.01515516542763477,-0.04777162736779483,-0.062032233998268474,0.01862859438190095,0.037381716666694105,-0.056120139119816295,0.09941278756290438,-0.04987063985396722,-0.07255099975561646,-0.10926182984071572,-0.11639380881657413,-0.1201217701336142
0.666,0.003061890212174359,-0.054424629631497155,-0.056701901939732804,0.028473907387801013,0.02897848729988613,-0.057578477567558004,0.10655091418314638,-0.041710644723918014,-0.07111869198961536,-0.11133852872477959,-0.11477903171708671,-0.11757605980213855
0.668,-0.008568611514056497,-0.060721635152849514,-0.05223896053434633,0.03657187135233716,0.02104636626759848,-0.059532398700494545,0.10883408117318367,-0.040151549560231675,-0.06856132758752728,-0.11237887168668899,-0.11588829170655388,-0.11669102837295642
0.67,-0.01479948121413096,-0.06365168798090155,-0.04968796430711127,0.039969757835111336,0.016384415678697164,-0.05998564616898979,0.10786887109381052,-0.04382134693673684,-0.06695920764111367,-0.11057774481070731,-0.11817642967774614,-0.11861088215540616
0.672,-0.01668996371107634,-0.06360011429450846,-0.04779535666695634,0.04064782333661826,0.014225176483006951,-0.058637878772398254,0.10654171751364651,-0.04663762744923479,-0.06750329371744199,-0.10827913551329127,-0.1192439683015961,-0.1219991614527283
0.674,-0.018895956553034457,-0.06373573162162073,-0.045359470522083646,0.04242424036158609,0.011926076740606958,-0.05722477588079571,0.10637536589802464,-0.045716343649301244,-0.07042017062681322,-0.10968847420294447,-0.11996018504519225,-0.12558400237480213
0.676,-0.020040398338613312,-0.06598427884910182,-0.04622749629316599,0.04447653542863804,0.011824470771649158,-0.05887443773781199,0.10695758260201503,-0.04345550355463759,-0.07570449239015517,-0.1163669291565673,-0.12355005415339199,-0.1299189641407852
0.678,-0.013813287197749591,-0.07007476353493028,-0.05652622799297889,0.04309874393260283,0.019942422777327856,-0.06615366157255619,0.10720381717065834,-0.04278761114907195,-0.08172111659464729,-0.12539637340063256,-0.12996098330891362,-0.13452736607619425
0.68,-1.3357093163447362e-05,-0.07485875827055233,-0.07505156513344824,0.03841720529525745,0.0362249881823158,-0.077581300926596,0.10651304333950992,-0.043484163525505756,-0.08497781673378346,-0.13251837800920166,-0.13535707644917125,-0.13664442487995743
0.682,0.013642115267934801,-0.07841668343689719,-0.09208782465673382,0.033774644302778406,0.05223381594757055,-0.0873583547189316,0.10538230578086644,-0.0429845839584299,-0.08328306284391881,-0.13610210641038892,-0.13807568023751363,-0.13588612166812655
0.684,0.02011553439883755,-0.0788148590011976,-0.0988348350873746,0.03093461000323026,0.0593096657337267,-0.09031913839545849,0.1056275989721043,-0.03960293863167403,-0.07801767273819833,-0.13721471108724168,-0.1402180699544528,-0.13606169483896113
0.686,0.01889719991227567,-0.07617396575226558,-0.09502409885970033,0.029708563694859275,0.056188499771294614,-0.08668144527961284,0.10898642115726814,-0.0348813693630851,-0.07293496027523132,-0.13730227401970568,-0.14273956868838458,-0.13949966583151335
0.688,0.014897421829732457,-0.07319537286535607,-0.08824045451004166,0.02964839567207303,0.049482165200270815,-0.08181557250966301,0.11488101448627788,-0.032476444217548486,-0.07111821085275688,-0.1373067882006019,-0.14407726257724834,-0.14377556804138453
0.69,0.012513415905248723,-0.0731930224585594,-0.08607933940280695,0.03069767395891239,0.046393198324416046,-0.0811882413836544,0.12048295724063798,-0.0348878431539647,-0.07279777147228178,-0.13832494585372443,-0.14427200821701602,-0.14591361295154462
0.692,0.010170912152207655,-0.077151156783618,-0.08775786053051847,0.03377383753969462,0.04620350703403314,-0.08467157135752869,0.12327511587646736,-0.041333215541199154,-0.0760310970996105,-0.14124884649063885,-0.1458146534226168,-0.1460340069774649
0.694,0.004020737788745074,-0.08239471523962665,-0.0866526033039612,0.03926471834858457,0.04302097749725088,-0.08716277909519204,0.12313583874697484,-0.04763573694008673,-0.07914029911109989,-0.14511741538526735,-0.14938023178715698,-0.14569335694787247
0.696,-0.003890083914433751,-0.08510413829235373,-0.08117239698980924,0.044710330898902216,0.03640554055996215,-0.08549546986496608,0.12226516989465805,-0.04904386211889997,-0.08182328509624724,-0.14726545795972093,-0.15213594748180267,-0.14527887189447727
0.698,-0.007784686715913007,-0.08438272453680401,-0.07645462410488303,0.047116293489877094,0.03186466666263249,-0.0818000211770384,0.1238205116498422,-0.04462381300940344,-0.08368773091414002,-0.14584128566379895,-0.15117849080669046,-0.1441816297020312
0.7,-0.00693838431962128,-0.08261918283913698,-0.07562743785755123,0.0467429279504926,0.031711986052708495,-0.07958283172863878,0.1297392628795738,-0.03790056166429289,-0.08322425125629082,-0.14144296193641503,-0.1467851585700116,-0.14250563650101608
0.702,-0.006027227780864828,-0.08187316455642213,-0.07591741354425191,0.0461086960492364,0.03237526544781351,-0.0792375308672649,0.13824271541531713,-0.03319279756999332,-0.08014348728819833,-0.13640585416920667,-0.14209985116503251,-0.14136307926775524
0.704,-0.0086227597099953,-0.08134738296419533,-0.07290860757741396,0.04678191447352416,0.029797053997229102,-0.07786758322344511,0.14473478952111093,-0.03232101064892302,-0.07691942149411499,-0.1328962561153741,-0.1401383655874842,-0.14140000728178867
0.706,-0.013810080443769026,-0.07933971178822467,-0.06585556131442895,0.04837071697042355,0.02412987106816284,-0.07353725438250093,0.1467097258818922,-0.034285402037747645,-0.07561887378467236,-0.1315322967332945,-0.14101107211631983,-0.14201884611738114
0.708,-0.017715308727366878,-0.0765665429796962,-0.05926647604764353,0.04943324985065918,0.019655198977870512,-0.06903056143663629,0.14576813699021215,-0.03715535632952345,-0.0753721317128272,-0.13169415418751843,-0.14244855941874957,-0.14232515787854805
0.71,-0.017715814099811364,-0.07510067589292195,-0.05778047604788758,0.04882054425150785,0.01958391452682874,-0.06818151624807875,0.143998229613796,-0.039826430156235416,-0.0749386677031478,-0.13288486531683344,-0.14272858686445467,-0.14214671966161027
0.712,-0.015486933643950108,-0.07475375200704343,-0.05970955591650088,0.04672666313452541,0.021559001238981804,-0.0696825680042266,0.14142157800698835,-0.0424408101258051,-0.0755603613821137,-0.1354401385254509,-0.1421070580683152,-0.14209217324044296
0.714,-0.015129257017899649,-0.07344950571461416,-0.058936284992092455,0.044953183606737813,0.02066954225846314,-0.06884832170120604,0.1381215884028916,-0.046148388912581544,-0.0797892346463807,-0.13960572220699088,-0.1416582215382326,-0.14305199455347878
0.716,-0.01854649134671782,-0.07026893958058168,-0.05231579876865422,0.04523700593796393,0.015423596445385043,-0.06383654122992766,0.13603256949216402,-0.05161066279197629,-0.08769354487257844,-0.14408370711882745,-0.14177947055145695,-0.1449421123769201
0.718,-0.023331496927645447,-0.06544101755607608,-0.04224793061085128,0.04629546274797085,0.008462742513381782,-0.05638516904142003,0.13716836330547288,-0.05643129794616597,-0.09395283777901145,-0.14639301444760286,-0.1420809699223773,-0.1458719834854552
0.72,-0.02515709253268571,-0.05880186456559167,-0.03319910953627288,0.04440869190342682,0.0031869400307455516,-0.04837900782186237,0.14139766573980317,-0.05670457389100894,-0.09200796470243945,-0.14520751639776358,-0.14215880127513084,-0.1446422777451874
0.722,-0.022270693568578408,-0.051705525122865595,-0.028785333441793168,0.03884020167802776,0.0017647171223228815,-0.041773571502019775,0.1464028816159201,-0.053436520857520944,-0.08373466002730337,-0.14185769700199458,-0.14211937313986736,-0.14389395799806617
0.724,-0.018126330529540845,-0.048665148749719445,-0.03008597884679256,0.034451292547586,0.003933461715920196,-0.0396337278051839,0.14949529062871508,-0.05333159711523059,-0.07906405481649642,-0.1391655940923067,-0.14254147228350836,-0.14738821809227737
0.726,-0.018601377476555866,-0.052402747682586945,-0.033433828290673706,0.03613230386037353,0.0059123817132217225,-0.04240451227475653,0.15000786819048725,-0.0599911621164712,-0.08291592029365669,-0.13902315946651583,-0.1437835211465547,-0.15407431478185016
0.728,-0.02482500339388651,-0.058962869705581074,-0.033446447850997936,0.04221728683843638,0.004063349160645137,-0.04580162917104087,0.15018450799356475,-0.06818085687492631,-0.08922756681928164,-0.1405874845957356,-0.1449048871722319,-0.1582363865848648
0.73,-0.031209464771662056,-0.061984460716362696,-0.029685689230140533,0.046574982702871165,-0.00028490825553358795,-0.04593883880167635,0.15306844899798103,-0.06954229577586497,-0.08991113725737844,-0.14037979865679737,-0.1436521921330073,-0.15524899029985012
0.732,-0.033126133004056806,-0.059726745704037236,-0.025531220073130505,0.04623690700439047,-0.0037969868506037793,-0.043122153648385904,0.15948813187617691,-0.06148497635970025,-0.08415833107516982,-0.13567700169195326,-0.13811636896779936,-0.14495365055088638
0.734,-0.0328573913608881,-0.05488923307732979,-0.021456551607532518,0.04377472415655502,-0.006872830644707771,-0.038889906190529025,0.16765850101211507,-0.049486906603474386,-0.07747834161170737,-0.1283250309689085,-0.12869674425358738,-0.13105364638211775
0.736,-0.03524868701026931,-0.05016889120248632,-0.01491500602404505,0.042813734541365826,-0.012125911946941662,-0.03343964143392348,0.17483576107535287,-0.04224028500632626,-0.07467853109589703,-0.12288196643174745,-0.11896818615853857,-0.11915058377308804
0.738,-0.040709953407483915,-0.04701027904117932,-0.006533646877242364,0.044266635167051566,-0.018930604838012097,-0.027944450304010833,0.17830663632048943,-0.044402048157791855,-0.0759781827931831,-0.12147616450665341,-0.11426511071192846,-0.11420069810927871
0.74,-0.04527250217379948,-0.04680122770378124,-0.0016480263377453349,0.04686643921562896,-0.023231531461143286,-0.025858950298501715,0.17633494496101118,-0.05293623666276372,-0.07914868273985613,-0.1230716767421618,-0.11727382053989864,-0.11753328838477439
0.742,-0.04608319014493105,-0.04989562157460826,-0.0037526597839149336,0.049008779633855575,-0.022789191742827737,-0.02891461963978545,0.1704260618474397,-0.06042562699280989,-0.08213881619354811,-0.12566143701993562,-0.12412880573837365,-0.1248811646704435
0.744,-0.04417019180097699,-0.053275668711761315,-0.00901464464143986,0.04933799454189252,-0.02009104123151753,-0.03340073235970774,0.16562341772079792,-0.06198701472107952,-0.08284530550557301,-0.1267482249149907,-0.127330863596756,-0.12889786503422404
0.746,-0.04136201075087497,-0.05117707405373519,-0.009803869767000862,0.04621421665956246,-0.01898125857736311,-0.032724113964601786,0.16590793687726535,-0.058329674256398636,-0.07915536488472445,-0.12403386521210456,-0.12352101047744049,-0.125538775228612
0.748,-0.03694684687185291,-0.04044087378737586,-0.0035377275003307847,0.03834656844726371,-0.019723593954207138,-0.024322123387144276,0.16982795477325002,-0.052980716873195444,-0.0712610863409266,-0.11781740065301262,-0.11616732715141467,-0.11743905875558573
0.75,-0.02972667483376601,-0.025625428889991236,0.00407439128833803,0.02752139587959594,-0.01905519096131859,-0.013136008805440403,0.1727409719844437,-0.04894481859394332,-0.06321294005987604,-0.111852755128658,-0.11083711832458064,-0.11075959551416747
0.752,-0.021968220308597852,-0.015372793194449013,0.006606425000432393,0.01877806363380457,-0.01545559251353481,-0.006169987577685304,0.17237098598595152,-0.047358596997608846,-0.059964473417026,-0.11012130009041855,-0.10989882401778421,-0.10897842460782918
0.754,-0.01851369720516094,-0.013628019176997345,0.004905561677755443,0.01626119688835679,-0.012347154552806414,-0.005236433838639234,0.1700499008015328,-0.04676717838050547,-0.06273738507818297,-0.11246522195369356,-0.11156416359322699,-0.10970107842739425
0.756,-0.022419313892348063,-0.017777959538557937,0.004622904841799756,0.02048876313443733,-0.014542739522355444,-0.007156492085269315,0.16782880841885753,-0.04452933783868071,-0.06855362659142344,-0.11492661469254932,-0.11294371030970127,-0.10834536161598966
0.758,-0.03267461220046677,-0.0231274943968867,0.009384679780814623,0.02903251405359681,-0.023032510462228643,-0.007866511647847248,0.1670392893500586,-0.04048187841517018,-0.07321906110151535,-0.11499333500964443,-0.11337689521375133,-0.10462342860122173
0.76,-0.043929236497635735,-0.026520720748267328,0.016921551713034232,0.0374019474113016,-0.03286104207706011,-0.006084430076806574,0.16847912383104854,-0.037478526604707095,-0.07426156952810077,-0.11424142298265264,-0.11424491601190202,-0.1028977438047685
0.762,-0.04670553997598109,-0.027213927962528396,0.01861227914256922,0.03955973989447087,-0.034333883983555635,-0.005413413250187283,0.17115940252969386,-0.03689819038285134,-0.07201140651361872,-0.11412842277554366,-0.11589322969989277,-0.10595296935799435
0.764,-0.03383032258525785,-0.02497164445945403,0.007879443842159084,0.03126988076989964,-0.021404095473181183,-0.009499935746890023,0.17262104733938408,-0.0346385825109431,-0.06625842027455424,-0.11114918901368408,-0.11584915378834905,-0.11081278523538915
0.766,-0.01280706879111564,-0.020722106661673352,-0.008435192545306718,0.01751775564384606,-0.0025388453779255603,-0.015825556642568895,0.17285991975148274,-0.023575504233212093,-0.0531871061393569,-0.09936543107589643,-0.11130008044845727,-0.11189696767539334
0.768,-0.0033612154080746,-0.02217979104873547,-0.018555205265830155,0.013356422241683307,0.00640886271418824,-0.022172130266283722,0.17363543894687203,-0.002762860922904762,-0.03255962160721969,-0.07994618619993722,-0.10466345784428223,-0.10901433917661679
0.77,-0.015075478063464643,-0.04012280346097653,-0.02426018144217268,0.029063343757414973,0.002560074319044714,-0.03421036455977365,0.17225597335416026,0.017027561335751836,-0.016202223702218542,-0.06565565958091998,-0.10433841904884356,-0.10981798107587143
0.772,-0.039665810587591256,-0.07061918341783842,-0.030207182880382547,0.05716927108053225,-0.0068316677566742515,-0.05200955249950982,0.16461660429156874,0.022570548439764443,-0.019773810292958174,-0.06889619427337224,-0.1133763817026687,-0.1179593932953911
0.774,-0.06673866547408984,-0.08872413238650481,-0.021626903263452495,0.07928895221350202,-0.024127351508750818,-0.056020906027795636,0.1547731372711393,0.010813204828090828,-0.048196511504677485,-0.08649313715519603,-0.1175336185401438,-0.1199164913293962
0.776,-0.0845033900043892,-0.06943595498334798,0.015072740552322019,0.07804887376435747,-0.05087861399128335,-0.027547046985951264,0.14746542712310026,-0.015697242602130696,-0.09597446855212603,-0.10235855969967916,-0.0915153662462639,-0.0909305371622669
0.778,-0.0694957663204758,-0.011164138952008972,0.058213367604532794,0.04177588319773506,-0.06470052959711009,0.023026658828649554,0.13183547431798948,-0.05946021479334161,-0.15267329245371983,-0.09742091733499456,-0.014515378017192035,-0.010547405168481818
0.78,-0.011106384382670604,0.06650988024835099,0.07755902359532106,-0.025903894315570365,-0.044829649243710405,0.07124511310319306,0.09142433601384972,-0.11987453120431066,-0.1978834667437409,-0.04838901003621344,0.12760926233019854,0.13464510616928801
0.782,0.05620152111757349,0.14342120591144308,0.08722710656236553,-0.09869869834576779,-0.015569603043463047,0.1148235326919532,0.029513944042342727,-0.18181329590703313,-0.204813840750181,0.06903176920371626,0.3457040022217768,0.35316074178751
0.784,0.08543551923708424,0.2124765468560718,0.12695214498320798,-0.14888006913965834,-0.02087177811742909,0.169982056606781,-0.03472429729874775,-0.23156014110457093,-0.1683600354352126,0.25813701024492863,0.6373303084700465,0.6402542542465063
0.786,0.08173548546254802,0.2758359912199038,0.19377739408070882,-0.17867799434064943,-0.05699943676240924,0.2354797958979981,-0.09240633319028141,-0.28071842601236496,-0.12350679694702031,0.4879569870724552,0.9780628126066427,0.9738816819106563
0.788,0.09319558754246099,0.3338021817102762,0.2401632847282685,-0.21229891964478176,-0.07550941853321272,0.28710941982554455,-0.14946398093250135,-0.3571273031791485,-0.1216153425304752,0.7110680911673373,1.3324095546983679,1.324821428373509
0.79,0.13660682622326384,0.3826216127273496,0.2457471363547668,-0.2576235960178507,-0.05679708618120742,0.3129921272263236,-0.2086883043692969,-0.4741265580021656,-0.19489652068380864,0.8843313420061919,1.6638976964566687,1.6585690693665383
0.792,0.17601518766775923,0.4210792823169259,0.2450952769974443,-0.2967872288048129,-0.03600535075840661,0.3306535574636707,-0.2622480407714823,-0.6240033464821026,-0.35317922466954915,0.963867891895495,1.9221357955813452,1.9200052430642276
0.794,0.1790538853634375,0.45004808013279435,0.27114921213797205,-0.3133265657093079,-0.046919333535790135,0.3579676180122954,-0.3007976526162561,-0.7983526286949291,-0.600264423208766,0.8955239019928176,2.0272706667695553,2.025732699535653
0.796,0.15168924546888532,0.46210384941948013,0.31047921178424,-0.305615337907484,-0.08077852228364463,0.38465865319688763,-0.31829125514081047,-0.9914633789623754,-0.929205561736004,0.6308632797167526,1.8860478905782143,1.8844674259856895
0.798,0.11048795832825083,0.43876481460137606,0.32822635974332837,-0.2728774765431109,-0.11134848470354282,0.38298438540684343,-0.30659575741946854,-1.1761189020907203,-1.2999311815301908,0.16034199032534524,1.442621445390547,1.4432329337902816
0.8,0.059508958741339726,0.36634309334363946,0.30677487174805335,-0.2110975502952946,-0.1265510003697491,0.3361620496731185,-0.25914325119993914,-1.3022111199209825,-1.6400267584962167,-0.45814422795708787,0.7390857101220374,0.7436401881470021
0.802,0.002230499481572909,0.2558708996521584,0.2536392635533331,-0.12764108048455755,-0.12786985933053518,0.2537171406239911,-0.18810809758279887,-1.3413885606674187,-1.8784506258375684,-1.0895859496502054,-0.05452970638780339,-0.04737148031197678
0.804,-0.05191477338711039,0.1424217848695569,0.19436820572967858,-0.044099909742397116,-0.12385069966863177,0.16687950923369238,-0.12617827037544033,-1.318294504798564,-1.980544073832084,-1.5616680222685535,-0.6956659217421473,-0.6898013454584639
0.806,-0.09375968874958995,0.05928416894546066,0.15305959214982473,0.018789657716888616,-0.12293279548233778,0.10435686065539881,-0.09999053699331108,-1.2784486685671914,-1.9581342222639921,-1.7657436269993623,-1.0175675661429289,-1.0165377188022493
0.808,-0.11243969131459165,0.010611594927638924,0.12304154990585855,0.053293359767012154,-0.11712030027506856,0.06445107334697908,-0.10532869486112503,-1.234490752439319,-1.8497444252302635,-1.733230140717808,-1.04882753603918,-1.0531226610848874
0.81,-0.10059195685567648,-0.028614518986336192,0.07196420747471087,0.06744623538842133,-0.08662521526704223,0.018806165113073564,-0.1116940422899901,-1.1577684392269176,-1.68502768131626,-1.5850463883841648,-0.9588954616010017,-0.9658122764509824
0.812,-0.0714933880482683,-0.08107553473108647,-0.009561213326361642,0.07872582714903283,-0.03270470726411882,-0.04791181969548052,-0.08988773367701132,-1.0188023157836863,-1.4702409178204225,-1.4100153258401529,-0.8834259416915174,-0.8895228061659859
0.814,-0.052072142472201766,-0.13579365448343786,-0.08358345767049472,0.09564590508920238,0.013297747391857725,-0.11133520714007814,-0.03677230561438833,-0.8260932018362841,-1.2137530444023406,-1.223233311144156,-0.8358632324212149,-0.83914622730977
0.816,-0.05149275301041887,-0.15697959872666398,-0.1051337194935127,0.10578011533332322,0.025005538079318074,-0.1320603595120778,0.02608297326817673,-0.6218323248844407,-0.9508033502195442,-1.022193921901073,-0.7727650873558833,-0.7725748664836197
0.818,-0.0524633245579275,-0.12748705015894915,-0.07447168242257836,0.09193027306401981,0.010632316370171816,-0.1022812845464156,0.07552890070243788,-0.4463456121121597,-0.7249828492510989,-0.8286167338935755,-0.6809283014513667,-0.6772042058523464
0.82,-0.03685664719500448,-0.0729009572461671,-0.03544236363233638,0.057029502408676325,-0.0001760303206823536,-0.05605293817822145,0.10164273865966861,-0.3152903389262919,-0.5540058582166689,-0.6685785928716037,-0.5822869239238792,-0.5761803452697191
0.822,-0.00917482504435369,-0.03637969303129326,-0.026677006172653627,0.024358458284626038,0.009024430848213472,-0.033115984025529815,0.10440607537856922,-0.2235542645719485,-0.42611341762174554,-0.544888236864824,-0.49401180424773805,-0.4883996242024046
0.824,0.007157260888981873,-0.03728220170691466,-0.04400087222256992,0.015831100271899073,0.02493375052469553,-0.041036074342024276,0.09153861728289013,-0.1553878901807284,-0.32147170454649315,-0.44163028643890745,-0.41406390263449894,-0.4115644890592482
0.826,-0.003729119470646318,-0.05816161862608317,-0.05409789088986852,0.03173726578063727,0.02367473510704485,-0.05556580862272282,0.07967048813041724,-0.09496528346483298,-0.2307645862002168,-0.3466816098337626,-0.33772849300148067,-0.33867400290660854
0.828,-0.025733617748489767,-0.06783583615824158,-0.04194669713550044,0.048482818850950626,0.0062477293984414175,-0.054359333600725916,0.08341960751898865,-0.04094095627478415,-0.1588743290596981,-0.2648573827918597,-0.27084657997563033,-0.27443601841445087
0.83,-0.025265334907396263,-0.05608942557986004,-0.030857216899150584,0.043030189822372326,0.001338119295700017,-0.043649104453994295,0.10125617184866365,-0.006580530673362768,-0.11256248885012109,-0.20880047974161023,-0.2237067848064824,-0.2292908916273062
0.832,0.00181936612222752,-0.04350502131568323,-0.045422013548402265,0.02302921291444871,0.022882674083214958,-0.04534967588717634,0.11896708337105673,0.0010739676645811775,-0.08657133035855685,-0.17940297680067968,-0.1977992803931434,-0.20422523868318168
0.834,0.020372684849950022,-0.05244004448916094,-0.07287077208419432,0.017734922741087428,0.04590098288632397,-0.06391009273802749,0.12540057167448782,-0.006762797140228027,-0.06694151670279071,-0.1611299930857345,-0.1829646710128939,-0.1888415311177042
0.836,0.006532432489943001,-0.0759092769937251,-0.08253984345903996,0.03590807018309264,0.04284372780583208,-0.08065097624729405,0.12157866810953105,-0.012913451097562246,-0.04478760869479655,-0.13809151352025872,-0.16844717155772515,-0.17282051215056243
0.838,-0.018211591322947137,-0.08798239347240652,-0.0700626516842829,0.053683083856268764,0.02323618373888907,-0.08077353200951004,0.1171079644855097,-0.00907272868716707,-0.021145798805855362,-0.1095865089248112,-0.15367661087796355,-0.1553497270299829
0.84,-0.019993196220880957,-0.0791965771347319,-0.059626721946651605,0.04953506243671357,0.01695671858723513,-0.07167184921274719,0.11999468611055823,0.0028043757310328957,-0.0019447831253103717,-0.08713852491442439,-0.14463466183295492,-0.1430729463532272
0.842,0.002176553130995504,-0.06561780891795009,-0.0680695333458058,0.03146346430434228,0.032641601488828345,-0.06942159619078749,0.13011501085338253,0.01560072934131559,0.007093023504067868,-0.07967688963873897,-0.14278648650291648,-0.14017858860292579
0.844,0.020883385883646747,-0.06382818953230177,-0.0846948806761328,0.02171638765851882,0.050526128507463686,-0.0765477215724742,0.14174992719276938,0.022232477743775635,0.00320457872320866,-0.08484771047370172,-0.14342669296814303,-0.14271409517496558
0.846,0.01809634742661053,-0.07138673110789841,-0.08930893658438847,0.027873273650310386,0.051363974805250685,-0.08165123598458192,0.15019317775468238,0.02050745428391557,-0.011518787957734087,-0.09366136670147095,-0.14274538573273451,-0.1436234387028984
0.848,0.0036427791412327153,-0.07512719992176144,-0.07854555431249122,0.03765972202551762,0.03889648997290973,-0.0769219947194894,0.1546698008072915,0.014041766144711696,-0.02950123274155184,-0.09978281513217065,-0.14082937950383398,-0.1404544624836929
0.85,-0.0023736783107595814,-0.06909942837776784,-0.0662909018733706,0.03722129672470148,0.03056241578532062,-0.06701170996787803,0.15634526723063938,0.00788192638101674,-0.040130535482018725,-0.10213126076630868,-0.1387492557947732,-0.13587627445581374
0.852,0.006245849001199449,-0.059302503334574,-0.06472762517360096,0.026787769569445893,0.035176377939994216,-0.06125151811115958,0.15571930386607916,0.004545873832454011,-0.03594242111764068,-0.10101084021614565,-0.136455176860001,-0.13273307951352867
0.854,0.020799810486734963,-0.05412968199850815,-0.07392825767569683,0.016410821908343018,0.047408399763138376,-0.06357093405527436,0.1525061056706783,0.00425804216566175,-0.017933607621399356,-0.09542139580221584,-0.13347891223292432,-0.13093272564277084
0.856,0.03181089916075363,-0.055146074539294494,-0.08629558207546624,0.012416444818571813,0.05832081247981457,-0.07074322910383109,0.14767138750308537,0.007056507141982377,0.005415891719231704,-0.0846615776451109,-0.13031719031702904,-0.1285098346544529
0.858,0.0351973528651683,-0.05866068568880907,-0.09388818318516305,0.01392434663546233,0.06280114333135065,-0.0771168729007599,0.14478152992163137,0.013256662915708643,0.024342138071917065,-0.07076027924454409,-0.12821694123214228,-0.12417276481269238
0.86,0.030214080025775265,-0.06224078801323623,-0.09302562631277815,0.018551936352970744,0.05972054279092778,-0.07959224191010901,0.14757364726280114,0.02154782941719406,0.03364496362314868,-0.057766278560528905,-0.12699186610069713,-0.11846049461419864
0.862,0.01997856038212283,-0.0657480202963144,-0.08632552693319592,0.02455849835526829,0.0518076944128065,-0.07882115529135218,0.15611891489854224,0.02848466909551957,0.03342100214983199,-0.04891893411915097,-0.12439050006354174,-0.11268623639972071
0.864,0.012690813712600165,-0.06734273977485546,-0.08025146787746773,0.027977058552969367,0.045363060828930116,-0.07659612461546109,0.16743527195641927,0.03152046816039994,0.026076490278468024,-0.045326966243908036,-0.11868741437682431,-0.10707417891222244
0.866,0.015713477413032827,-0.0631896050774015,-0.07876617086629605,0.024109401777049465,0.04561430592992563,-0.07304801158789391,0.1793978709556644,0.030938163888400153,0.015216549627077521,-0.04661004451035833,-0.11074052180957941,-0.1005888799997432
0.868,0.02628786767826203,-0.054043429035780924,-0.08015247711859692,0.014931204383116535,0.05100947440820409,-0.06814596772859419,0.1915698366450348,0.028248962096977588,0.005934216644264511,-0.05132624941221825,-0.10296434687505118,-0.09308285979753732
0.87,0.03303870661788084,-0.048004258973706825,-0.08102414165535705,0.009679275132544678,0.05498428350334409,-0.0648184516580909,0.20293625479409863,0.02481853498326109,0.002374403649868159,-0.05658644485029081,-0.09683509006038904,-0.08679194852011636
0.872,0.02849089546146641,-0.05187304160086045,-0.08044915804054993,0.014619726643357516,0.05316435681714631,-0.06638811843717046,0.21065679645544555,0.021379048887746725,0.004963328503095251,-0.058630134280562976,-0.09237066478136115,-0.0846618316633577
0.874,0.015618005684344452,-0.06366805880615452,-0.07933695252886891,0.026899864887498078,0.046522363290767484,-0.07208597134460443,0.21080493265523853,0.017099746667222644,0.0113494115612881,-0.0554050722026794,-0.09035138493922423,-0.08732467745400088
0.876,0.002796296528438616,-0.07674093399504553,-0.07951544281536069,0.03938893449482962,0.03983679894493729,-0.07898904662184768,0.20199807893850164,0.011360364991787527,0.019152361490448418,-0.048358941871697765,-0.09201578054616605,-0.09188944890185473
0.878,-0.002673211493901849,-0.08590274843544626,-0.08321345538952404,0.046183777126646224,0.03874311560864288,-0.08555103110094552,0.1900962329979407,0.00735901111264378,0.027178650150350578,-0.04022952596391774,-0.09503962108512037,-0.09380521212184138
0.88,0.002467319914860654,-0.08757447316880501,-0.09016683898551746,0.04375561115898531,0.045257757981810594,-0.09002605050235601,0.1856144179080187,0.009692545982792606,0.034564086270676524,-0.03207271335367036,-0.0938513385578832,-0.090357940534119
0.882,0.015120855205274645,-0.07947530626464179,-0.09494131472248768,0.03266709517469221,0.05427736263928501,-0.08847281709067595,0.19285752563944486,0.016960218500692164,0.03964966988808209,-0.024433886525829465,-0.08603340279377696,-0.08259008500132461
0.884,0.026027962030752173,-0.06352988202172494,-0.08999233457284236,0.019118694877824135,0.05662736332281444,-0.07794426546936623,0.2044710066231497,0.021441081227533514,0.04084889627487656,-0.01971430780619173,-0.07586253662060094,-0.07416814304054424
0.886,0.02679234674378428,-0.047253129411703766,-0.07429701605575176,0.011043778792136954,0.04824670962993257,-0.06182302785604608,0.2102175148296738,0.01797604314470816,0.038051957914116655,-0.020614741458624814,-0.0698257707706758,-0.06854044655207969
0.888,0.017098595415524682,-0.03958273588875278,-0.056647261739844246,0.012234099813908028,0.034525067877074614,-0.04924423965784219,0.20839068369284514,0.009300966233187428,0.03218121248318261,-0.02661668014261292,-0.06950205125476629,-0.06673579819611816
0.89,0.0026473405238152388,-0.04386317172190762,-0.04636288883733638,0.021212555170415558,0.02311154828168356,-0.04662072753547988,0.20440632337517609,0.0012377775136855514,0.025240224074432677,-0.03311055825580549,-0.07058395358737947,-0.06735077622189246
0.892,-0.010692845714687182,-0.05465109609383251,-0.04392068364545115,0.03297545977618188,0.016345862644008377,-0.05112215430977983,0.20087885703917344,-0.0035241978760992,0.021754990830909617,-0.0343409531034709,-0.06837180417393196,-0.0681692136085915
0.894,-0.01807860734661901,-0.06243318278682338,-0.0445347897987485,0.04086644188467847,0.013379611986059,-0.0550357402495461,0.1954402585698101,-0.005364241102292903,0.027063796488666327,-0.02788452770791434,-0.06162081517673392,-0.0674642955582768
0.896,-0.016313295545821307,-0.0615892734228511,-0.04565911343276487,0.04030030374326606,0.014198553154633142,-0.05427250491194534,0.18807658272649946,-0.004949171267956971,0.041877501001915486,-0.015923733604370594,-0.051585488749354695,-0.06415355004696975
0.898,-0.0074180299700737536,-0.05382307958339897,-0.04682796980880769,0.032656000055735164,0.018017939479827362,-0.05017226557631336,0.18366298922779667,-0.002692483818772245,0.05965800457823836,-0.002458571104381855,-0.04082109328529413,-0.057965957939406704
0.9,0.0012754339936445445,-0.0462155847389536,-0.04771645477757708,0.0247750073435897,0.021887340142719567,-0.046650887103400325,0.18481904406508792,0.0007193664376096401,0.07123276533663339,0.008959170675745974,-0.0328325899229669,-0.04960305978585384
0.902,0.004593811428153138,-0.04486217016984637,-0.04941575897507175,0.022305895396420507,0.02419586072999338,-0.047153159629587,0.18821748435592378,0.004717806078010441,0.07263200811523177,0.015790648891842184,-0.02924294309936482,-0.039922387719521016
0.904,0.006723212064595685,-0.04684561831777689,-0.05343249429318139,0.022003851376536834,0.027673526403469744,-0.05071910507007463,0.190128575088249,0.008333923439894081,0.06734117775334285,0.016883958108367205,-0.027601810730038086,-0.03037630434632811
0.906,0.01675544143107718,-0.04230634973506885,-0.05901102726435424,0.014449831995722326,0.036162474035036335,-0.052062390598970186,0.18999518514663827,0.00896540309321022,0.06090457105098444,0.012821820126922987,-0.025393440630081327,-0.024306969504199697
0.908,0.03562332085737648,-0.02869988589336775,-0.06434818194189121,-0.0024069014779119686,0.04866559895587552,-0.04880712174099776,0.18839147676889728,0.004843671409914797,0.056097527416729215,0.006753329631784212,-0.02408589960910873,-0.023865329497099356
0.91,0.05212655878757368,-0.016047116937107034,-0.06809235885997676,-0.017953268075054218,0.05867558205246788,-0.0445864113042291,0.18632752120435697,-0.0005966523699793191,0.05378288210800444,0.003753514125432791,-0.02508389628610133,-0.025800835704076142
0.912,0.054545470930697275,-0.012647199885823733,-0.06686391860612324,-0.02161128440172276,0.05928168316362691,-0.04142236034981259,0.1850814316190278,-0.0005203903197006467,0.05552924285166811,0.0073752124966616275,-0.024567055478884693,-0.024090549140063134
0.914,0.04376476813097222,-0.013949153802161114,-0.05726354506618412,-0.015642481192859384,0.049559223320764866,-0.03600211018549863,0.18418337929581852,0.007596867208878011,0.06356829267369446,0.01757901117000523,-0.01730088493466575,-0.016090290272765376
0.916,0.03331345224547009,-0.011583668271950712,-0.044629044418207274,-0.011052827244084053,0.03810095644970519,-0.027991386704366683,0.18191679249773618,0.01871085015942624,0.07756168949375386,0.03169358702775525,-0.004678540515357358,-0.004568126916450385
0.918,0.0351304651662749,-0.00586235794419507,-0.041027645784835635,-0.013995320470312041,0.03633112634746941,-0.0238189117329819,0.17809401185872645,0.02618399232195494,0.09251645151407856,0.04555581551365789,0.005615092518661942,0.0053597230216289255
0.92,0.04559306706384538,-0.003705877044297213,-0.04945594488657332,-0.01959453275101997,0.044777381116464496,-0.027583811132364817,0.17391152930441953,0.028532976574380656,0.10263118642933229,0.055205915301657346,0.009363350340057959,0.011056349328144569
0.922,0.050442786471185386,-0.008688544653496274,-0.05919490567456491,-0.019202941302804886,0.052142061847957395,-0.03502268750712695,0.16998086839035276,0.02871741886070695,0.1066250939984187,0.0597210270965753,0.010727004706846302,0.014180834486069846
0.924,0.04348379112792368,-0.016836882448982234,-0.06026860159424473,-0.01176288765449514,0.050447059387274146,-0.039329419393025866,0.16664222755111052,0.029758986770542825,0.10721698475364247,0.06163564931450812,0.014893610351667641,0.017647708974675717
0.926,0.032357608091499276,-0.020886447463650364,-0.05316266384251531,-0.00460135851636081,0.042741825909440485,-0.037630248369732715,0.16486696662033193,0.03289189966214774,0.1069500546278301,0.06410427127571976,0.02077182840981847,0.021683319061132186
0.928,0.025173100416042985,-0.01761562437744182,-0.04265704150727058,-0.003084490012108597,0.03443059557036461,-0.03087950247780061,0.16483354421826873,0.037052781868393427,0.10625895956012055,0.06835210220601322,0.02402670505922039,0.023627411687607527
0.93,0.021299766444993287,-0.010605757110015,-0.03163216220535248,-0.004918630811635359,0.026552640522847,-0.022044946318543965,0.1644227019490239,0.03938757491893876,0.10485900125799819,0.07331024615778871,0.023777630078598472,0.021989054740441324
0.932,0.0180475916645704,-0.005185586386848955,-0.022957428163329303,-0.0062588079031811175,0.01987842070453059,-0.015001420442904265,0.1607515072893527,0.03950063403008211,0.10435776216252293,0.0770446328335579,0.023721495963905402,0.019997627693357122
0.934,0.017546340833271175,-0.0029651557143771014,-0.02057328869498843,-0.007455164723902157,0.01805194751977828,-0.012670451659815746,0.15340288600418572,0.041768651966755534,0.1088140517225382,0.0790392239719171,0.027389986436750665,0.02271493797060709
0.936,0.021941419555867998,-0.0027693574250125725,-0.025145764486656747,-0.009770895564343941,0.022629646557796822,-0.015011765779343132,0.1453937545972358,0.04974330237703117,0.12145337055522584,0.08210803006451167,0.03409004272819363,0.030718542210170303
0.938,0.027608466824162504,-0.0033870816583979066,-0.03139604141616381,-0.011623175538419964,0.028789791312556882,-0.018760750661277976,0.14054305683572738,0.06136631545646236,0.14038175161028987,0.09158832590618812,0.04119877219933899,0.03989068937714569
