time,I,II,III,aVR,aVL,aVF,V1,V2,V3,V4,V5,V6
0.0,0.0008556452068501026,-0.001930686620584847,-0.00278633182743495,0.0005265508965231401,0.0018209885171425262,-0.0023475394136656664,0.0014918942068155637,0.0067354635513585,0.0037516751377273737,0.0010750414137347445,-0.00021939620688464173,-0.000636248999965461
0.002,0.005757563852393685,-0.01348647397991007,-0.019244037832303756,0.0037878273706905222,0.01250080084234872,-0.016288628213039242,0.010421366257203237,0.04737849785387687,0.026206671029143435,0.007509513920631745,-0.0018397085509919155,-0.0045541043013672304
0.004,0.017542843846165758,-0.04197025694487597,-0.05951310079104172,0.011995308947002646,0.03847312326688257,-0.050578130317327545,0.03279556043700822,0.150502134739124,0.08283157927996207,0.023772444064895367,-0.0066451651770748,-0.014398681177411905
0.006,0.03261029506371099,-0.07708008140101139,-0.10969037646472238,0.021936508723555518,0.0708220463505995,-0.09341513390138939,0.06218929397795968,0.289290473574713,0.15934402089236166,0.045793257321895556,-0.013506965360409252,-0.026540665518609598
0.008,0.04293413046561294,-0.09399979575505732,-0.13693392622067027,0.02548894597561065,0.08911548069327534,-0.11624152196861852,0.08109345682734652,0.3858745214611686,0.21525070222661244,0.06167669930119883,-0.0167383994369091,-0.03211546539618223
0.01,0.04624663482039301,-0.0837643577175374,-0.13003293215861889,0.019467736329180644,0.0870942402589047,-0.10865306304928785,0.08102350499952653,0.40148900382183317,0.23062852849252638,0.0657185054972343,-0.012286269698787527,-0.028500963860564856
0.012,0.04863051353816325,-0.0647906635911848,-0.11355249289479494,0.00985930883862626,0.08052927923112407,-0.09153497566114882,0.07195340335351119,0.3783763618615771,0.22593487651022084,0.06583214696306684,-0.0034651220545460926,-0.02280035832600328
0.014,0.055465507639662036,-0.05704353964486347,-0.11283646634447206,0.003346480786214561,0.08440065881373095,-0.08740105134275299,0.06814065155186384,0.3760173117902112,0.2307732433130017,0.07312001685592015,0.003620049262391914,-0.021113771841690186
0.016,0.06467816639757251,-0.06023179144620691,-0.1253545026808461,0.00016678472988043843,0.09542738780110936,-0.09509916310845223,0.07262603352728197,0.4064216882950064,0.2529640875160374,0.08832993499543065,0.007830312820960115,-0.021456614181540934
0.018,0.07105939937729744,-0.06370888360429898,-0.1351551394184124,-0.002259416551878595,0.10250074714931567,-0.10141650477815894,0.07923021917406528,0.4450058611742176,0.28124368787883225,0.10417634928941136,0.013440602697145065,-0.018408090773446954
0.02,0.07425476190264728,-0.06371095119973011,-0.13826745870218626,-0.004692985062895254,0.1041159318917617,-0.10242693517824475,0.08397534839837575,0.4747306514715999,0.3053978554000343,0.11846737710612237,0.02424452607174268,-0.009658524957175252
0.022,0.0799389891464954,-0.06178926339096144,-0.1420050611471563,-0.00863176023371097,0.10816957830671897,-0.10274918918343012,0.08855222391635227,0.5000008913800033,0.32620476975062074,0.1363353069058742,0.03922833935789605,0.0028684793378229217
0.024,0.09250275484958674,-0.05684634985887765,-0.14954142966961667,-0.017052866521352593,0.11905244292988854,-0.10370889791114397,0.09459749544170631,0.529897871157981,0.3495344259434909,0.15976347817005856,0.055013353554140415,0.01569244531391861
0.026,0.10886106957258648,-0.04810044292394284,-0.15698196895655236,-0.02902223778308255,0.13232790535825045,-0.10310630797126187,0.1006471944083748,0.5649480047490214,0.3780700093483069,0.18370494859651557,0.07019145394176435,0.025858097164545818
0.028,0.12310367387428711,-0.03975357724102359,-0.16274593321046593,-0.0395979483796736,0.14296814103103153,-0.10231947489310472,0.10554647657786208,0.5998600359340195,0.4094337643639604,0.20355343256201605,0.08429870361070675,0.03178517406195277
0.03,0.13397751408514816,-0.036507385725480755,-0.1703144690940185,-0.04631714116785919,0.1517556444833732,-0.1052198205623646,0.11064088775588549,0.6306597041162267,0.43867384374621743,0.21985626499457248,0.09519056070898503,0.03423823424913545
0.032,0.14337833184584398,-0.03641418820542685,-0.1796129408718577,-0.05141738248601412,0.16005054196119534,-0.11008764413846374,0.11699417810724888,0.6569059785461874,0.46236898486069355,0.23559180855311243,0.10203511659979762,0.035808040065350925
0.034,0.1514720987327306,-0.031580744234880935,-0.1829987567424853,-0.058344185959676234,0.16483712044348223,-0.10863014703864546,0.123179597332507,0.6800999078704345,0.48200440603077993,0.25275523192495003,0.10933130492589917,0.03942955874347416
0.036,0.15682401592008632,-0.017291461803967186,-0.1742935242809273,-0.0682298465110886,0.16304747878799575,-0.09588813357845266,0.12743102714525065,0.7018010244505265,0.5021827639078128,0.27094698350722635,0.1229773620720998,0.04801565215609238
0.038,0.15965114772777883,0.0030394525789265345,-0.15687586954070148,-0.08000500589422094,0.15666681510458788,-0.07631940077764245,0.12984356624536914,0.7224056785841819,0.5243170657788266,0.2888244852259648,0.14242863490576285,0.062015656215160225
0.04,0.16355400631387657,0.02463066881959451,-0.13902933078534532,-0.09357725623493368,0.150845178775984,-0.05685676343318398,0.13102803106050245,0.7406458497199621,0.5443507908651386,0.3066019571326145,0.1608634455776367,0.0766869960862493
0.042,0.17327006421553165,0.04631639202064859,-0.1268516835792589,-0.1101082331585283,0.14986357976445963,-0.04064395915639974,0.1309818958507864,0.7551852076764013,0.5584855192347186,0.32459968603280104,0.1737283284499932,0.08735251657902043
0.044,0.1892846836601434,0.06418940924235055,-0.1248635268305594,-0.12701941894950747,0.15597346540938503,-0.03129724321737824,0.13042181008375986,0.7672768864368179,0.5685157897748746,0.3407395849652243,0.18317626416072993,0.09594549369790366
0.046,0.2044253866068357,0.06876723829021647,-0.13532331690087776,-0.13612748180004736,0.16762038581325325,-0.03449501837595702,0.1305909892688275,0.7793794051455992,0.5786971310470361,0.3525166888565344,0.19296919388689393,0.10591341190321794
0.048,0.21047862788008947,0.05692370842623095,-0.1531830815748116,-0.13274415211280902,0.17915632142838783,-0.04944804422455064,0.13107110620185067,0.7902616391307066,0.5893334613781749,0.360054016889848,0.20313967221318976,0.11462156914024198
0.05,0.21014045778252358,0.04112388209395252,-0.16878956579116516,-0.12506046861982265,0.18728906630865086,-0.0652044151355975,0.13019421655824523,0.7950698609587873,0.5963773856647588,0.36481289211777773,0.21096634102578576,0.11730810326479477
0.052,0.21344447295114552,0.03731328311668897,-0.17614293459063518,-0.12557148781392047,0.19358211277149587,-0.07056311613764413,0.12778305949618887,0.7917180783244884,0.5968151749593812,0.36687558559851235,0.21461368819416454,0.11514904211683383
0.054,0.22150729788959145,0.046738486261580045,-0.17489240632057323,-0.13450012534607864,0.1976168852499434,-0.06467443371391943,0.12532464413119487,0.7836347669535556,0.5929069837654665,0.36627767826542806,0.21528791314565351,0.11451372356433565
0.056,0.2260399639639862,0.05664556579632341,-0.1694545983008722,-0.14107801947151255,0.19677478672301627,-0.05668888320133281,0.12376316992748729,0.7751331207828988,0.589757021315316,0.36503258449887754,0.215829950931958,0.11891498264906908
0.058,0.2230272159931895,0.05628227221212103,-0.166731422258688,-0.13856133484642336,0.19292706597878273,-0.05594198679054906,0.12324156550620105,0.7676776808379564,0.588648811479998,0.3655087376621326,0.21765556779089656,0.12524898868479403
0.06,0.2150318128822761,0.04882511855511235,-0.16626639295221488,-0.13045893333728006,0.18849343329706839,-0.060201662674078574,0.12421477645728742,0.7610879677147282,0.5860736239792163,0.3687583022877951,0.22117338509004503,0.12983950619079895
0.062,0.20371783404529833,0.046959611359392285,-0.15692762339901287,-0.12395787466226868,0.1791610125524123,-0.056722494249233334,0.12664089012533986,0.7549339623563865,0.5797789982550043,0.3736281839757457,0.22720578379362727,0.13421927859117816
0.064,0.1896961523750257,0.05589931475168814,-0.13378539275544743,-0.12164577993006045,0.16143933630415808,-0.040442327855011916,0.1283570984198847,0.7474691644553635,0.5706092996613348,0.3754679566381038,0.23432564437339176,0.14075403253502278
0.066,0.17607757254922055,0.06618682512650935,-0.1094106515485595,-0.1201796522526531,0.14189854317414763,-0.023087540715220935,0.1261272890322949,0.7354084763600452,0.5585915357580985,0.3697776037873994,0.23761595264045415,0.14676720281341898
0.068,0.16641305349360289,0.06837975613162799,-0.09732289811548353,-0.11649514157249288,0.12963819080125769,-0.016198231942036987,0.1196815160190402,0.7175689262303515,0.5439781149783739,0.35866116458375497,0.2339099046709802,0.1483712892316082
0.07,0.16276571838869822,0.06660043429205269,-0.09577863249381105,-0.11348212533256391,0.12634022396749356,-0.01617753152683942,0.11349280728016638,0.6971980182351216,0.5305342660936034,0.3485190431267294,0.22599257576426837,0.1463829488693784
0.072,0.16455587710146072,0.06896244546310959,-0.09570002837886829,-0.11514490652463732,0.12761234010887593,-0.014421386650048157,0.1123180785678445,0.6777651782520737,0.5208035913293189,0.3414087191238232,0.2190573281308343,0.14384959086966445
0.074,0.16442218354915575,0.07394585329886968,-0.09073667609788014,-0.11766302713744967,0.12571516699534563,-0.009381936893721219,0.11584188144566662,0.6589321311587711,0.5113601495085657,0.33394642590294205,0.21470637514754287,0.1411426372660353
0.076,0.15306364274185263,0.0761573868153573,-0.07698314985660076,-0.11360728029468209,0.113370661176639,-0.0021036480675641796,0.11941654393867548,0.6384896417007916,0.4970980270921008,0.3236627647975018,0.20995596429127453,0.13686053660532635
0.078,0.13254695863897303,0.07507918511254061,-0.057366165862990974,-0.10304853207592558,0.09335355941126056,0.006508566877760979,0.11966859048121917,0.6152273353029251,0.4763191821053863,0.3111759461067775,0.20165988032653442,0.13126875594262283
0.08,0.11544419561872059,0.07043431908276847,-0.044919258405724555,-0.09208302247341228,0.07892634780381652,0.010536065562362844,0.11774838262781942,0.5895803911685554,0.4515926052739395,0.29726807679762773,0.19099132228320703,0.12661947064091428
0.082,0.10952407045733578,0.06032371110839262,-0.04921198965687955,-0.08402859802475379,0.07880469280646717,0.003891430050294208,0.11603855075724746,0.5638274691403954,0.4282166462558134,0.28207955239040655,0.18153405633186231,0.12434675787000761
0.084,0.11060918685522964,0.04791610138423703,-0.06274792130944748,-0.07812478542184415,0.08690039926014818,-0.009048921591910734,0.11431802886454616,0.5402003810507361,0.4088927460713543,0.26636182258131214,0.173955264482804,0.12338443036759048
0.086,0.11059728237844478,0.04037663209692354,-0.07021856591376051,-0.07355447852917134,0.09106907196975268,-0.01728059455962133,0.11169336598084047,0.5169384714355342,0.39011856202173234,0.2514068927159302,0.1670692855217953,0.12243931212409248
0.088,0.10660799225641704,0.039785914124799766,-0.06667034684932195,-0.07039740495750813,0.08697841970244485,-0.01636561245766446,0.1086052103098374,0.48895533399854846,0.36694038888525843,0.2370062659386006,0.1608473097324079,0.12116535188702734
0.09,0.09962441395776199,0.0410688573828977,-0.05820755820379702,-0.0673761741904999,0.07826889169689819,-0.011114740506217755,0.10455056015843998,0.4539406631437861,0.3385032781186369,0.21958839772250166,0.15275592590045994,0.11692922861961612
0.092,0.08932794193394449,0.03875960048222589,-0.05014704700103471,-0.06177597233913427,0.06812733496995606,-0.007442003002603559,0.097894038202631,0.41483157787934477,0.3071074537775056,0.19548653495316223,0.13731201125288375,0.10528732508920387
0.094,0.07502174150370697,0.030987954823685715,-0.04379010147670399,-0.05173039048318875,0.05742362645228733,-0.007791960658135098,0.08887817157139664,0.3754006516385583,0.2754109426185673,0.1669609799127948,0.1137705783384117,0.08646412196619645
0.096,0.058956681403001907,0.017937983955004417,-0.04104931806705944,-0.0376642717062607,0.04818574240507784,-0.012841046184118028,0.07951994634827686,0.3367940254331164,0.24544355765826162,0.14103450635663714,0.08853468734524493,0.06699850963605014
0.098,0.04505882575898537,0.0017555735207246256,-0.04344494211360461,-0.022531369129314527,0.042781338480489074,-0.021785457378416532,0.07115318238251678,0.29942494157779204,0.21761057606710557,0.12162303693982257,0.06886412373828502,0.0531348381123605
0.1,0.034430847599188984,-0.01311961445944825,-0.047587076827479285,-0.00957939852403385,0.03974827883475047,-0.03110231834785865,0.06418754303646512,0.2645012103662342,0.1904599612270673,0.10593346860094476,0.05715442008817898,0.04571357900206441
0.102,0.0252135367999116,-0.022232765295178283,-0.047246931441202046,-0.00015307370369397819,0.03483424364422931,-0.03585578276888591,0.05861521319860888,0.23229657949683138,0.16281260734385636,0.08892137358654059,0.049830682135085944,0.041998971281138976
0.104,0.017032423915744256,-0.024006441155096717,-0.04052626271078885,0.005174141462155885,0.02693767771569865,-0.03379424021123403,0.05322640685091233,0.20165020179799728,0.1348377757672942,0.06880891923629104,0.0401823651627915,0.03799307125768528
0.106,0.010707817565077217,-0.023168431015733723,-0.03312527356314019,0.007773249293151463,0.019625425642664063,-0.029686299722767557,0.04665002776759468,0.1717827502249675,0.10696016746433797,0.047540929374026285,0.024018875134450505,0.02920708026218196
0.108,0.004992459300228545,-0.029093347636930746,-0.03345839260199428,0.012784401133485165,0.016733099180070002,-0.03269444202523845,0.0402374269303183,0.14382280470579675,0.08111840538102405,0.02809214457646594,0.004988735153723934,0.016005956374456225
0.11,-0.001013943131153364,-0.04462630218219444,-0.04352807670431861,0.022928985032918372,0.018706794621487142,-0.04548161063053165,0.036478655024316374,0.11994388979651815,0.06129284318355114,0.01197835593572474,-0.008175223311950764,0.005948498012546396
0.112,-0.005307893899964814,-0.06041268968664215,-0.055594806990238596,0.03306037714745947,0.022562524534547535,-0.059529594926913,0.0344923420703869,0.09950576293947166,0.04769686028806719,-0.002189215106884833,-0.013331297710444735,0.0036217620274175636
0.114,-0.006383728694019417,-0.06673132265764875,-0.06096719080464769,0.03715268553203153,0.02503331913427711,-0.06569554755180923,0.031646010984002756,0.0781423403678778,0.03434046718222117,-0.016232329349552314,-0.01827697211832066,0.00377359764400495
0.116,-0.0063130614840268525,-0.06642719102794384,-0.060385859103041964,0.037233189931558816,0.02570194899991371,-0.06550228683312262,0.028229138664953732,0.053670455909824895,0.01705520059110245,-0.02836406858383038,-0.02863117917568368,-5.787861247920047e-05
0.118,-0.009542349695066748,-0.06985435873003099,-0.060211857602053505,0.040645965838284545,0.02486319612162996,-0.06683549535951808,0.025676718382309536,0.029250394567361927,-0.0019154342276887447,-0.03633548487803419,-0.040771628272276136,-0.00794749912561352
0.12,-0.019710025565006308,-0.08101450285163105,-0.06123483446654481,0.051300652706571706,0.02011633368994977,-0.07217609328479407,0.02227710049723496,0.007982437560535505,-0.02015227185983725,-0.04384519335340327,-0.05025753285303676,-0.018148521465986115
0.122,-0.03559006394392679,-0.09426208524160068,-0.05896195606240576,0.06584462404618303,0.010118011424078891,-0.07694224183015394,0.015011742113203644,-0.010631310626139442,-0.03855230049035063,-0.057517821480256436,-0.059078542310345886,-0.03125458709942659
0.124,-0.05015014172112949,-0.10246143151820199,-0.05282226583157675,0.0770784969277216,-0.0005275271195133021,-0.07748233072481965,0.0044919496890385175,-0.027062605339159575,-0.056876639113952764,-0.07728161296054357,-0.07090334637816355,-0.04615703954977328
0.126,-0.05753677594861576,-0.1051867346671721,-0.04799000813613578,0.08189044420962105,-0.0059531059677968064,-0.07616356185632976,-0.004671093630736478,-0.039877119609027144,-0.07210557067693275,-0.09502627052904289,-0.0839654464888456,-0.05767894378962777
0.128,-0.05896808638254901,-0.10709434766158152,-0.04821397651149095,0.08365326005375036,-0.0060317700298574235,-0.07724641993234152,-0.007777699917150828,-0.048186236353222826,-0.08147222771622904,-0.10414161240673145,-0.09217657975515435,-0.06178458177541103
0.13,-0.05726924120756631,-0.10838218956472441,-0.05125201995585873,0.08398641371932468,-0.003990269561220103,-0.07966576121784127,-0.004003652043184282,-0.05286647027977566,-0.08440141098943654,-0.10621164814127625,-0.09277733051024262,-0.06045108610108107
0.132,-0.05166649917075261,-0.10380586125467323,-0.05248821157469189,0.07942297281919669,-0.0010626781710291542,-0.07839492488571559,0.0016041414684177305,-0.057108181234190876,-0.0843700220119981,-0.1072586315805106,-0.09093758174423994,-0.05972692765539954
0.134,-0.04306700246734372,-0.09328149397064023,-0.050534328572272184,0.07004803508594976,0.002480629367378262,-0.07272496142569615,0.0012892717530709565,-0.06624787815191066,-0.08855528441739918,-0.11186365941635676,-0.09500069127926597,-0.06394460030819792
0.136,-0.03758442738124711,-0.08483227790069871,-0.04729301744617285,0.06282837206886208,0.004405777933336905,-0.06742013652173878,-0.007279483147881696,-0.08257288683805875,-0.1008699675405785,-0.12151094188355675,-0.10739263849661677,-0.07237363842656842
0.138,-0.04024270904781714,-0.08497612871946104,-0.044586759205931595,0.06350293067581973,0.0021098232426970294,-0.06619921962147156,-0.017543212731610826,-0.09998695620342,-0.11659413894488718,-0.1335007003808414,-0.12121357768268737,-0.08030379577256296
0.14,-0.04844424735063861,-0.09298444651416239,-0.04443806325844842,0.07093957840841782,-0.0027158808918013944,-0.06978568488249633,-0.021440250457704438,-0.10881349530722875,-0.12723330692869247,-0.14067717123303256,-0.12640976525351783,-0.08248155752547531
0.142,-0.054466451554651144,-0.10429343002868029,-0.049854992077473424,0.07987039604597451,-0.0039743891412688005,-0.07812104842905436,-0.018716599173787204,-0.10742664762283569,-0.1299426929135542,-0.138202300741904,-0.12082779174259589,-0.07814841416687664
0.144,-0.05362377256759978,-0.11421814703512745,-0.06066336028790528,0.08545711942526206,0.001692929173526256,-0.08912639974134152,-0.016109904517963906,-0.10454299107152895,-0.13051504202034064,-0.13181627855102593,-0.11416576940105733,-0.0734936242690739
0.146,-0.047239083656431057,-0.12057420274328294,-0.07335316272989775,0.08607846155715572,0.011632165447596392,-0.09923818474816307,-0.018629659090603788,-0.10800142866505097,-0.13587813259744244,-0.1328832731544063,-0.11748771475719862,-0.07590227039440386
0.148,-0.03816756332146929,-0.1257863619258358,-0.08758992081309595,0.08388145035651372,0.02317085685515417,-0.10853208784434415,-0.024804116524357715,-0.11664817056059476,-0.1452536673249628,-0.14445843118326265,-0.13046218930565276,-0.08624723792080298
0.15,-0.028708303531081638,-0.1324458373282849,-0.10371389660625588,0.08192223974100399,0.035275653230873845,-0.11877721403279975,-0.029550765534915126,-0.12486668407794331,-0.1520510082153653,-0.1578691122383996,-0.14285527525925795,-0.09863848570543889
0.152,-0.024052022542023252,-0.13705701336453394,-0.11300944120208373,0.08163155211181614,0.0418822936935015,-0.1251433729347535,-0.02909634944400239,-0.12925664356270633,-0.1525128446285228,-0.16276966198537254,-0.14645479535382125,-0.10590242483329947
0.154,-0.029688872825330753,-0.1335723225268892,-0.10389846793341823,0.08294662238397178,0.03475522579774915,-0.11918089898453606,-0.023688798549656116,-0.12981875692170433,-0.14852523685977723,-0.15695504475722583,-0.14208409744509515,-0.10455952332838181
0.156,-0.04333411528371226,-0.12189929838824631,-0.0785699279654939,0.0846779417152878,0.01572190348310032,-0.10125971689231834,-0.016139605218823582,-0.12791169559395002,-0.14326771484345194,-0.14630111238830873,-0.1353517624637263,-0.0957461602136716
0.158,-0.058118907198941964,-0.10887965332357694,-0.05075481762973459,0.08639059142313546,-0.005066171382978262,-0.08131168141700056,-0.007848752854219316,-0.12362263442748038,-0.13787905391266284,-0.13717232214020628,-0.12817544317077645,-0.08289476870776348
0.16,-0.07063143579507077,-0.1006985004243194,-0.030039704166526775,0.08888496247911283,-0.02111567857098533,-0.06721773382982575,0.0008556784959344179,-0.11690691743236281,-0.13299284360413927,-0.13174406363293265,-0.11871278096714946,-0.07040996366967452
0.162,-0.07842056417824393,-0.09694577119855767,-0.01841647689460447,0.09063310302975958,-0.030631643989529965,-0.059568804144263625,0.006662796328452711,-0.1118519376016621,-0.13061466393235488,-0.13044481039879077,-0.10934460556992992,-0.0630617639662102
0.164,-0.07946334347464873,-0.09470101314852039,-0.015066772810513539,0.0896426073773559,-0.03331413989017979,-0.05646513749358889,0.004994510460724109,-0.1146052101016637,-0.1329354184643548,-0.13401736621821397,-0.10749699377349044,-0.06299181555694446
0.166,-0.07833410332359925,-0.09495697027109985,-0.016660204402277275,0.0891611898634484,-0.03274711266979445,-0.05696554512760793,-0.0036175835686197938,-0.1255644802641616,-0.14046831787779726,-0.14165914976468735,-0.1161438684936812,-0.06779136643456783
0.168,-0.08194002509523589,-0.10002102002834215,-0.018596212318127477,0.09368888013133127,-0.034115995406538875,-0.05998687199443241,-0.013694634663678706,-0.138350561148857,-0.15100825736732412,-0.15097379864596472,-0.12927773276487214,-0.07384483687152457
0.17,-0.09019788291377698,-0.10805866829538285,-0.01869468537191367,0.1017997721395682,-0.03828253522862626,-0.06350472850018786,-0.02147509042401294,-0.14698217559075463,-0.1602096998942798,-0.1599873800594289,-0.13917490102097246,-0.08017256511731408
0.172,-0.098965778735837,-0.1151703962513335,-0.016885828866239405,0.10938497912329562,-0.04347496956890949,-0.06568752075219163,-0.027011638130186786,-0.15063632707848262,-0.1651258145647055,-0.1660680402625235,-0.14396499571672552,-0.0868989348245039
0.174,-0.1061615984008952,-0.120948173534159,-0.014992256408886639,0.11557846738833374,-0.04800789891826406,-0.06746370873291356,-0.02995092235939915,-0.15188734614997776,-0.16657355651177308,-0.16582978737345042,-0.14632001542572948,-0.09235006137385779
0.176,-0.1094646877133249,-0.1283160889901941,-0.018655996748374478,0.12073667137448173,-0.047662193769951594,-0.0732509130278147,-0.02823145971287715,-0.15247596952897988,-0.16622921314494102,-0.16012219742408948,-0.1479945775888907,-0.0942032945258753
0.178,-0.10558908053613747,-0.1374550066551225,-0.031671320258080025,0.12285489273016785,-0.038563794500572394,-0.08505953335258419,-0.02163990812448023,-0.15111757183568336,-0.16382979105072562,-0.1546468482469619,-0.1478985083637787,-0.09180671696744379
0.18,-0.09571316921178726,-0.14213319789376475,-0.04656334379192166,0.1194974430495876,-0.025430381705404057,-0.09584238334519209,-0.01314914058710374,-0.14630868312939205,-0.1592846549482198,-0.15271763030149516,-0.14479707879446826,-0.08698589662947964
0.182,-0.08668947752209345,-0.13541025606931323,-0.049158276606855705,0.11154521341529572,-0.0195645112737734,-0.09448524694698586,-0.006653406907954644,-0.14060938912368,-0.154929724217369,-0.15272232095127553,-0.14060644607072686,-0.0840754010583504
0.184,-0.085127744576465,-0.12051290373777364,-0.03586685690586732,0.10411282935643962,-0.026220493646100396,-0.08033337921475664,-0.004904846786889612,-0.13844250670199734,-0.15397313533012005,-0.15367055788062448,-0.13954222887813722,-0.08715742163043089
0.186,-0.09089392222256376,-0.1119394429383004,-0.021388291601219335,0.10316894254397607,-0.037298704361229555,-0.06830375081287493,-0.007818308372948583,-0.1398502107110235,-0.15709481509584877,-0.15692237537919948,-0.14294173036490465,-0.09507336699362777
0.188,-0.09676118502623775,-0.12079900966188017,-0.024167069358318766,0.1099828638327116,-0.03920005222720942,-0.07379825710255025,-0.011629387535792974,-0.14067750565748824,-0.16055611984144755,-0.16166129338207172,-0.1470396214212871,-0.10153786259901436
0.19,-0.0967766514983059,-0.14150056624268137,-0.0446784826044279,0.11989079503702699,-0.028599819246633344,-0.09422246195894873,-0.012169060260852821,-0.13876698880250826,-0.1597832381140621,-0.1646049759891594,-0.1483350117179563,-0.10233868477440647
0.192,-0.09324619363874291,-0.1569135665191106,-0.06358055473266247,0.12643916976162972,-0.016706133403247607,-0.1111498585763117,-0.00990714908463919,-0.1362509177567418,-0.15559789941551497,-0.16491905764761225,-0.14829962254740411,-0.09960305459510098
0.194,-0.09160209263201671,-0.15601676396256897,-0.06441256732496531,0.1258964309835649,-0.014800327385220698,-0.11121751032224914,-0.009159324740641538,-0.13555166714464284,-0.15298675903510453,-0.16460982162469584,-0.1498640075232402,-0.09714378775792509
0.196,-0.09229045744429408,-0.14482403147248354,-0.052719626876794906,0.12017955972121219,-0.02056443135180061,-0.10027676344797894,-0.01132048776634851,-0.1358405130448507,-0.15351251272530764,-0.16409790647932815,-0.15196192721411741,-0.09541917623384874
0.198,-0.09239259363316228,-0.13820294306702244,-0.04629777869612334,0.11581259377478403,-0.023717208390608962,-0.09398154810690304,-0.01229995137536743,-0.13451990958124102,-0.15354550486640936,-0.16165788220172386,-0.15041950255849001,-0.09293548654765245
0.2,-0.09136089543295764,-0.14274887647449278,-0.05213418878437346,0.11745772734166737,-0.02022876670502417,-0.09891402772662243,-0.009044724960145847,-0.1310605424421236,-0.15023200917358387,-0.15754669527009582,-0.14385955254933064,-0.08924900499777731
0.202,-0.09076352348722773,-0.15214800922610996,-0.0620672330816566,0.1229022973079433,-0.01470970142241143,-0.10838388422438094,-0.0044596744618884375,-0.12701473461725757,-0.14529699606208116,-0.15483460196058021,-0.13635295584102766,-0.0851982567167878
0.204,-0.09132151437900908,-0.15664546572571203,-0.06565699727535738,0.12615553809088742,-0.012895619479212724,-0.1124639472886024,-0.0022544814994801036,-0.12211725586699079,-0.1420503665239499,-0.15442104339790533,-0.1323394392853789,-0.0818074923808479
0.206,-0.09316978400171423,-0.15187653302288187,-0.05873786561640094,0.12423792749146172,-0.017262921996044303,-0.10656294290822894,-0.001778505510322768,-0.11499904852347816,-0.14117272408796508,-0.15278682043799266,-0.131622496361842,-0.07959820863125162
0.208,-0.0953198539611101,-0.13992553712924743,-0.044498329340474756,0.11833125661519138,-0.025792278661841785,-0.09334250111596398,-0.0010711884560396963,-0.1081606218868365,-0.14028625513122397,-0.1476920166033484,-0.1322852341354938,-0.07888204576615439
0.21,-0.09404393731759136,-0.1255301609143068,-0.03130162676417295,0.11000281735134129,-0.03212038052396764,-0.0797309853519327,8.967473267516629e-05,-0.10566653972746759,-0.13691358832746697,-0.1424720565942744,-0.13504032844340058,-0.08019451861246932
0.212,-0.0871697064953405,-0.11328843601653522,-0.02593631914291809,0.10089106134071005,-0.03134959204529295,-0.07130164138717131,0.0014126696183479302,-0.10643260176794904,-0.13189688473953706,-0.14103805286204743,-0.1409458724695845,-0.08374716339266325
0.214,-0.07884784092695682,-0.10793972391445149,-0.029028794690535164,0.09491984712946325,-0.02543984149069711,-0.07000276317904999,0.0029279285467675776,-0.10562607178185815,-0.12820160029075547,-0.14162270723991652,-0.14711470480606506,-0.08853298396916652
0.216,-0.07511757722038385,-0.11227872001133153,-0.037217584673638386,0.09567803254767844,-0.019916880253599105,-0.0753797875168779,0.005153265467057377,-0.10083990438239622,-0.12592800253940212,-0.13936207840961834,-0.1488414546769197,-0.09210581229524092
0.218,-0.07716614453825991,-0.12168009149743286,-0.04457983493225743,0.10122453103590057,-0.01844740417692231,-0.08312183131238435,0.00856404099295254,-0.09400497046725977,-0.12286096639968569,-0.13414268850494393,-0.14607940280138088,-0.0919647674227038
0.22,-0.08199742324446145,-0.12683743924238408,-0.04484379484320527,0.10577002930045068,-0.021568091236840798,-0.08623453797953225,0.011744831208864671,-0.08876403223595321,-0.11960929706473315,-0.1310671710708133,-0.14332450898159352,-0.08773102249092611
0.222,-0.08691171146833569,-0.1264105167891586,-0.03948706862195695,0.10765407849640675,-0.02638751663851044,-0.08430572792516439,0.01259269001462162,-0.08589450283817963,-0.11831954268242324,-0.13174827957709195,-0.14194363643089764,-0.08129421082442095
0.224,-0.09121096784675226,-0.12921288730527275,-0.03811484442865996,0.1111340655206444,-0.02827424301711511,-0.0856141174205686,0.012076150523136268,-0.08210407841172011,-0.11759603004198514,-0.13146186143140165,-0.13867563186849868,-0.07560558282517674
0.226,-0.09524199950923219,-0.13974873675206653,-0.04486554202535111,0.11883471161697728,-0.026307938091264867,-0.09420839362791816,0.013152107206720543,-0.07556655839805224,-0.11456543778302918,-0.12768888574524687,-0.13351746856945867,-0.07425031297151079
0.228,-0.09838629271105322,-0.1506079596875208,-0.052790116296731665,0.12669716389617705,-0.023921960485034307,-0.10325050110609935,0.015714993319618217,-0.06979987490131502,-0.11035735877385326,-0.12501585030627135,-0.13171020307820616,-0.0792890949261193
0.23,-0.0979601118616125,-0.15280618873735258,-0.05543083341330168,0.1282409415600071,-0.022485615680223846,-0.10555458903667304,0.016693121375853843,-0.06840229197291879,-0.10813394233541802,-0.127700203336837,-0.13501927011459025,-0.08689592842210325
0.232,-0.09276081240785622,-0.14615467043829652,-0.05378372645375222,0.12197233558521835,-0.0205480980720308,-0.1018214649733382,0.01586310021860383,-0.06899048870426663,-0.1070713332575124,-0.13185918932880225,-0.13762673519286237,-0.08853308731687232
0.234,-0.0860158347429839,-0.13689587132360329,-0.05098542705546604,0.11258599444082437,-0.01856596523121507,-0.0963898066153547,0.01737083067749206,-0.06651304502936134,-0.10357963165916022,-0.13031307713551502,-0.13406929419336977,-0.0809322274840458
0.236,-0.07970809999768076,-0.12995250764944663,-0.050157292979775926,0.10453421945586958,-0.016235289400840177,-0.09254899915934112,0.023389913493617957,-0.06058667899766564,-0.098028097708286,-0.12328874077910594,-0.12703270467822386,-0.07212785294828271
0.238,-0.06982041374303144,-0.12452132816238579,-0.05460447086665732,0.09667656735133864,-0.009329639318334854,-0.09125089001924488,0.030194268506166827,-0.055173938903990236,-0.0948700574043993,-0.11772543061458988,-0.12319571051649518,-0.07159797385373973
0.24,-0.052230724353684366,-0.11502289031237808,-0.06278593969963155,0.08442915941575549,0.0037795128649867745,-0.08944376693339245,0.03367552474817861,-0.051721561873842685,-0.09505311142221286,-0.11608039590261372,-0.12277570878854226,-0.07639765340580637
0.242,-0.029618704245318747,-0.09781609763652298,-0.06826613796406665,0.06613791057945963,0.018022955236397225,-0.08287128918730806,0.034931496038616644,-0.04765618580055961,-0.0940171889235574,-0.11365241018933547,-0.11952649416168998,-0.07513360295010287
0.244,-0.0124754769297621,-0.07793063629970072,-0.0656122661436248,0.04803256790578912,0.025144902334496087,-0.07165688296557932,0.03727865872950887,-0.04160307674413878,-0.0893017824233182,-0.10787798893071895,-0.11195678635166294,-0.06509755392120198
0.246,-0.01672927253004252,-0.0654773851443091,-0.04906269749667568,0.042828147638426906,0.014650687352431555,-0.05776628594043602,0.042183959906539364,-0.03443297564108553,-0.08332508671108206,-0.10138500156456402,-0.10532435917805562,-0.05518235219297939
0.248,-0.05237763586067495,-0.06378171141697268,-0.011806607619443946,0.058467422665929726,-0.021779602958913156,-0.038935354768972724,0.05050100128893273,-0.02576224668502244,-0.07663562332745441,-0.09496613472585637,-0.10106969815078355,-0.05088935653975302
0.25,-0.10505088150524039,-0.06537763217469825,0.039420297311065826,0.08536407588519332,-0.07380545460312204,-0.014159998352197686,0.062184873120089704,-0.015803547208832792,-0.06702974134717471,-0.08684195065961176,-0.09539310918146772,-0.04769594208219464
0.252,-0.13913208793728749,-0.06295465328390362,0.07619340895873725,0.10180681050022371,-0.10917300847973624,0.006067999674515953,0.07295046542471542,-0.009110608713890756,-0.05679782664386227,-0.07847692872735917,-0.08856558266650442,-0.041261767985657914
0.254,-0.13318605664873504,-0.05899173018722812,0.07435602311054504,0.09711299356939793,-0.10486812007681269,0.007509931425431587,0.07673910088554685,-0.009834379854558766,-0.05221069956691035,-0.0730541630768832,-0.08508016160977469,-0.034532251035476025
0.256,-0.10348658197381133,-0.05887928984291776,0.0448261710854391,0.08175698488505101,-0.07493714411577987,-0.007762319428640013,0.0728430849810311,-0.015417322899598584,-0.055410069474069075,-0.0705066757930083,-0.0862805468558905,-0.03264096492654727
0.258,-0.08270296857758103,-0.060310408317633526,0.02280961032561194,0.07168676141908473,-0.053782548403984366,-0.020257856806470697,0.06673312084564545,-0.019953394524083484,-0.06259202893726107,-0.0691212947548201,-0.08989982209276846,-0.036797192769836735
0.26,-0.08468921976629268,-0.05617638364962194,0.029207251030056388,0.07087926441417018,-0.05863554417071193,-0.014941090565669815,0.06391828953426479,-0.020665318292277024,-0.0685742391562006,-0.06821248595804913,-0.09296178865656209,-0.04366569279677806
0.262,-0.0953597211170743,-0.044826339571777264,0.051207326894435384,0.07104455120806574,-0.07552555629632281,0.0023377388617482134,0.0658382880241913,-0.017634130673751365,-0.06954408077240977,-0.06678638789456015,-0.09191214315471381,-0.047318039209015464
0.264,-0.09390040579872352,-0.03338477978066626,0.06077368348033662,0.06460144916742333,-0.07958531333477008,0.013046072668300289,0.0708901374765976,-0.010399111532182696,-0.06383820988309684,-0.06299126955699297,-0.08464595744444423,-0.04302822549337026
0.266,-0.0791977691335649,-0.029344467995281797,0.04969758627681501,0.05477730230672856,-0.06617799614290151,0.009141963542692989,0.07661740561370796,0.0012061370228666614,-0.05322591649759409,-0.05591721246098854,-0.07357655572479148,-0.03182029063824691
0.268,-0.06848338853190922,-0.02963446289287059,0.03863207359438002,0.04921816901664141,-0.054761650703747805,0.00300481790994176,0.08041104302414424,0.013156920073013962,-0.04263170265527483,-0.04724086434208469,-0.06399450053216336,-0.020383345673652277
0.27,-0.07110914376262165,-0.023299713372319057,0.04775806918135708,0.04732458956595443,-0.060615326867478815,0.01049555793961828,0.07964194034043873,0.017945752326731804,-0.036904098342441266,-0.04119138373369945,-0.05962721451776407,-0.015081183133663724
0.272,-0.07684570198964714,-0.005849480546645661,0.07098777955878292,0.041542242389725544,-0.0754604810656208,0.030782927853618896,0.07333022441402487,0.012106926241120301,-0.03735490779321862,-0.041045687635722305,-0.05985829664630299,-0.01586606380809381
0.274,-0.07347024922116589,0.015164596672241936,0.08850328215315843,0.02943014446211337,-0.08269728313304106,0.05019572849249165,0.06416067396106893,0.00016243892612751657,-0.0416058956346541,-0.04495276795738995,-0.060491213212140627,-0.01662916776726912
0.276,-0.0644037510697754,0.030594317900310603,0.09487916548945349,0.01730804369805327,-0.08127367724228468,0.06130457866563307,0.05570351575596761,-0.012486346550526922,-0.04714065424479231,-0.04771135600417772,-0.058146465336224445,-0.012312685371910898
0.278,-0.06121945895306199,0.040560318126249655,0.10192238487967456,0.010904496846476713,-0.08326453015713481,0.06982533436608256,0.046420709014090365,-0.02658976549372275,-0.05419203030715389,-0.047252719674,-0.053602333518374845,-0.004350494900620621
0.28,-0.06548171945022424,0.05092862795545308,0.11681364254278524,0.008085604919298411,-0.09287033272782023,0.08238554973712625,0.03105431959104941,-0.04447592015253121,-0.06374986662261636,-0.04666892947553426,-0.04984473937450041,0.0019955406280092094
0.282,-0.06783258672920693,0.0619529063472221,0.13023197855547697,0.003973486097488902,-0.10041577919628984,0.09463999688158929,0.009580160903143961,-0.06241122631859819,-0.07411447175577204,-0.04901310856073934,-0.048606640469155075,0.003554543311962026
0.284,-0.06255648621313716,0.06607741222354378,0.12885761460851808,-0.0007900122273904488,-0.09667462694874883,0.09610047070063822,-0.010860307239400674,-0.07351195880140173,-0.08252931514691822,-0.053645528194156404,-0.05019441482679438,0.0012790018562961736
0.286,-0.05345669119474934,0.057540789663873486,0.1108120299799536,-0.001334626522249587,-0.0829710725863026,0.08294458927285915,-0.02471996498955024,-0.07707593780885717,-0.08907353153485714,-0.05896483993655647,-0.054514629052382156,-0.0021824140074786624
0.288,-0.045090743229653216,0.04128914775261305,0.08591111614178588,0.0028462446193165663,-0.06653501807869285,0.06266946489736937,-0.03328101118603991,-0.07924314344141532,-0.0949556144844614,-0.06471906258326378,-0.06029461524917724,-0.005474700399293068
0.29,-0.036809908329360284,0.030651610503978865,0.06711186995176503,0.005006052807581786,-0.05361108811084259,0.04846277421076685,-0.03993584182239429,-0.08402434889935298,-0.0985594798092991,-0.07068036915674775,-0.06470720064173513,-0.008632432363692362
0.292,-0.026654915840407734,0.0353481116679446,0.0620015957675599,-0.0014912922296332273,-0.04682395643546568,0.048773200491121785,-0.04529774247736467,-0.08861531225846221,-0.09732402647094267,-0.0756763515939631,-0.06501458946997737,-0.010591740342612574
0.294,-0.01442517129297138,0.05165536890169747,0.06626165582167912,-0.015614498190998308,-0.04307057130745923,0.05901696618083355,-0.04892752225316593,-0.08839070372202437,-0.09169196706841455,-0.07801342206228339,-0.06024604599148716,-0.00838541766885408
0.296,-0.0008972238648718863,0.06469932853310287,0.06571327696173045,-0.029311642368157427,-0.035092240398901,0.06434988835671167,-0.05267795703885911,-0.08348009501126676,-0.08466951544485418,-0.07642835785683502,-0.052080869937912506,-0.0010278885114642989
0.298,0.01129829135612112,0.06110634098200662,0.04988941515452018,-0.034082802483935526,-0.01964268502531917,0.05364003218128185,-0.05876437512663898,-0.0787008698273638,-0.07913225870524924,-0.07085141428531076,-0.04409447743253509,0.007798524151023713
0.3,0.016879710358529774,0.04095607231762863,0.024328453630173438,-0.027390596452893913,-0.003340348669295732,0.030884744771250215,-0.06530329732014077,-0.07724341377746612,-0.07610365826013739,-0.062378225247865855,-0.038642311313670435,0.013984988161368476
0.302,0.01218045557604614,0.01809520283353609,0.0063282456504459425,-0.014460475279514941,0.0028322606092672314,0.011459346170933167,-0.06769279358283618,-0.0769955520849309,-0.0746557814898024,-0.05348874477091816,-0.03502593879055782,0.01691251956188251
0.304,0.0012919207165853295,0.007755785544542438,0.006755994581902678,-0.0044388936357160486,-0.004053221291852882,0.007055690135183914,-0.06462363626019461,-0.07500266979303885,-0.07376912001676443,-0.04793567497937242,-0.032017534277495666,0.01704769708344543
0.306,-0.005991635601848289,0.012701979946100742,0.018690379949073174,-0.0030977049150788675,-0.014591263399517194,0.015211950445813225,-0.05976038195883754,-0.07297388492893227,-0.07400090383299389,-0.04891027073398437,-0.03148382491521479,0.013079338459306448
0.308,-0.005192284927423867,0.0220209120302694,0.027036229653498698,-0.007688776563069308,-0.01804917719011909,0.023866896810741556,-0.05635738409474732,-0.07435413698943938,-0.07579494910170605,-0.05645274052899173,-0.03706542981338214,0.0036566506907111346
0.31,-0.0027761094816965556,0.023389503228031423,0.025976374476083964,-0.009582596114553964,-0.014927112272864683,0.024434185106573032,-0.052325747744141074,-0.07736983141855894,-0.07734061226592268,-0.06596092898002183,-0.04794552276234246,-0.008658289902323297
0.312,-0.007349968329952221,0.013836385222952899,0.02103346681662076,-0.002710815677131624,-0.013584743444968182,0.017441492611440287,-0.04412302943969084,-0.07711564678311683,-0.07739796922445794,-0.07107203519199323,-0.057705725517887135,-0.017936264379650558
0.314,-0.017689521036781453,-0.0008642511719743778,0.016816133462953922,0.010325266085129481,-0.016641568577000925,0.007252705073853829,-0.033673263248004216,-0.07444531413351922,-0.07847149745649029,-0.07066683138285225,-0.06241940133584321,-0.02212248041423878
0.316,-0.024854448055191818,-0.01307920043864542,0.012102992251022028,0.02109846227875224,-0.018611285824130727,-0.002551506500922446,-0.025874634041747665,-0.07557360985113039,-0.0832524713074846,-0.07076895938627811,-0.06519487917475703,-0.02634231611667637
0.318,-0.025407566647316533,-0.019451252093970334,0.006664974267761401,0.024903701882072825,-0.01676245856926507,-0.009125277069479843,-0.020671199477809626,-0.08161040676222825,-0.09010125911846005,-0.07654511954300515,-0.069693266918312,-0.03444954718922073
0.32,-0.025374009802876966,-0.02324136302149877,0.0029618596853225533,0.025703924815876626,-0.01521716093087909,-0.012366840293060406,-0.013276329181946173,-0.08516125370121325,-0.09459395852857318,-0.08459097779371437,-0.0741243988039176,-0.04201487743129692
0.322,-0.030663108650388494,-0.031422655990950676,-0.0003092542558044992,0.030952436169886893,-0.01677868914739396,-0.017377936418052794,-0.002641343189395195,-0.08087821356182748,-0.09449636313295652,-0.08747451854843148,-0.07542620953622821,-0.043808817938803195
0.324,-0.04002633114396582,-0.047483817353631566,-0.007781527018592998,0.04317964358203115,-0.018374861584574766,-0.029060464685752442,0.004617756966299694,-0.07513555333457801,-0.09368745542912313,-0.08566137406244269,-0.07585076892176691,-0.04309130369591702
0.326,-0.0480567474839201,-0.0664374376583996,-0.019310060110664506,0.05725404745938333,-0.016521816709992466,-0.0443315270721274,0.0016956564218633045,-0.07918844564857158,-0.09980581821013906,-0.08836103963043336,-0.08050081733910192,-0.04720412746629077
0.328,-0.051098351880168605,-0.07972064286546693,-0.02946177283204266,0.06613257100770066,-0.012030929205054799,-0.05555299487274739,-0.009404991717058836,-0.0939232143920098,-0.11474055046206472,-0.10075041127004752,-0.0906539172429441,-0.058151564608299344
0.33,-0.049633208094441474,-0.08482338203217622,-0.03540981977261014,0.06839563285100657,-0.007642269580725428,-0.06053593346263021,-0.019850217384001567,-0.10816745428363356,-0.13004796385701295,-0.11707733047269486,-0.10332918014626304,-0.07123323890015755
0.332,-0.046471241786450845,-0.08660381426333401,-0.039849440893809415,0.06809133802461621,-0.004073223289658479,-0.06367319488652182,-0.02334190002503021,-0.11275166687073299,-0.13608886448284765,-0.12819034263220985,-0.11405738105524864,-0.07997748910575855
0.334,-0.04308615656751032,-0.08999546247295233,-0.04653140598124532,0.06822730870609404,0.00041040412384594897,-0.06895949640812726,-0.020821574662098,-0.11052714691943466,-0.13342156107890873,-0.13119490175259146,-0.11865678219406453,-0.08168049923185072
0.336,-0.03927383921173698,-0.09472517357020532,-0.055137320873906236,0.06804533797594722,0.006518888676878236,-0.07558281554126234,-0.017333573128920865,-0.11063412141529627,-0.13118593053865002,-0.1303784040853845,-0.11686908087879808,-0.07971377514801613
0.338,-0.037460419107208424,-0.09734006301085542,-0.05959450896921442,0.06724509287120777,0.009990587298615567,-0.07893018944206648,-0.016751868213917623,-0.11655047789560577,-0.13589152654690273,-0.13102124002188414,-0.11380782368326657,-0.07959100819739519
0.34,-0.04223087099563514,-0.09634885647055737,-0.053921082409646305,0.06839112456890506,0.005117822143412493,-0.07544383518004896,-0.01923076893316623,-0.12326118191097166,-0.14490532724790428,-0.13420462422190085,-0.11413721502541826,-0.08209619088205414
0.342,-0.05315968928943491,-0.09429606749713686,-0.0411156020740367,0.07328235554580047,-0.0067351755622601615,-0.06779360949360497,-0.022089255536703288,-0.125219905684375,-0.15067967584173889,-0.13739766080210056,-0.11691032642166692,-0.08229771475100783
0.344,-0.06423297450921168,-0.09529717069288189,-0.03115596556576674,0.08064745852729534,-0.017804778121983875,-0.06328009846784727,-0.02273602324876392,-0.12319264086937874,-0.14984711562053726,-0.13836516506134924,-0.11838976189408476,-0.07706574448372185
0.346,-0.07100010380013512,-0.10084356796789738,-0.02990620468893546,0.08794906995288013,-0.02274735373969654,-0.06595488561484722,-0.02091449286467297,-0.12221115128292945,-0.1462279972402827,-0.13724850140466288,-0.11693613352016606,-0.07058942306301334
0.348,-0.07406624837852316,-0.10830021760757137,-0.03421706938121493,0.0934321755689731,-0.02270084553858056,-0.07264940751391696,-0.017973800719038993,-0.12472180775161756,-0.1440965384370295,-0.13488635600729248,-0.11341793085746894,-0.06877218810100362
0.35,-0.07666391995635864,-0.11433830133162397,-0.03763217715136982,0.09722012967761008,-0.021864991677270313,-0.07790214658551728,-0.015186670471032209,-0.12722604369893878,-0.14224543921043506,-0.13117798779950296,-0.10954973802048228,-0.07127299087726582
0.352,-0.07993814329813484,-0.11961998395021081,-0.03967051843323473,0.10085140749562173,-0.021219130870221613,-0.08160543744767887,-0.01401228046242436,-0.12503248120639224,-0.13838245375953848,-0.12723713174984982,-0.10737268465536318,-0.07380791075011008
0.354,-0.08097227033049649,-0.12771374567339244,-0.04673701001069427,0.10509206497299857,-0.017026829706865115,-0.08884948991353464,-0.01573996780234766,-0.11962377307858174,-0.13542173200236957,-0.12684608709200682,-0.10836208043368362,-0.07558429757622276
0.356,-0.07734766420285669,-0.13770618891788836,-0.06024173239425014,0.10831586551784143,-0.008194871467222174,-0.10008058885582939,-0.01932937024823097,-0.11754680697686876,-0.13783168072894522,-0.1320776849651174,-0.11187307476482056,-0.07925219567466574
0.358,-0.07257327131655572,-0.14200086004011966,-0.06909758947450279,0.10827460188907484,-0.002079733247144289,-0.10611151938449878,-0.02201578675986301,-0.12153485547960141,-0.14463098945070424,-0.13899944016586108,-0.11556375223445105,-0.08499849575105203
0.36,-0.07376724735733085,-0.13636687696066135,-0.06216787297410552,0.10626215439337086,-0.0073103956870115595,-0.09939430075750622,-0.022482394258085882,-0.1267663748746498,-0.15044223520602218,-0.14107975904940287,-0.11756846927278239,-0.08938605299045657
0.362,-0.082502696918246,-0.1275474076903874,-0.04478620688929272,0.10634113243374692,-0.021367753287410973,-0.08628761459586445,-0.021704951124310413,-0.12748236636843246,-0.1515093610813462,-0.13643458150704837,-0.11782978178603823,-0.0900195806143641
0.364,-0.09114991259540017,-0.12390861143859658,-0.03280988976124017,0.1087323525555581,-0.03198783911280177,-0.07899375177112992,-0.021581666501031133,-0.1243651179497223,-0.1491395010975733,-0.12983568618433988,-0.11773022367342297,-0.08820338312413577
0.366,-0.09178534095069825,-0.1231014559834671,-0.03157461353939509,0.10841007767602491,-0.03237275608328292,-0.0783820936740862,-0.023214418709789787,-0.12258965009005066,-0.1479179675494974,-0.12729236461763502,-0.11832994987558218,-0.0862363829698057
0.368,-0.08454609968947026,-0.11695195970872355,-0.03266481508813007,0.10173937825416082,-0.027146595607922992,-0.07569690741774987,-0.02532335753119257,-0.1240547511554202,-0.14965494740309326,-0.12959380202719242,-0.1188278094869856,-0.08424323259436745
0.37,-0.07500904388405992,-0.10537582897847429,-0.030413852596839056,0.09154611722230006,-0.022729768030049162,-0.06869974750126648,-0.02530685039641617,-0.12545386343294837,-0.1506877209548062,-0.13232855938750412,-0.11770210395847337,-0.08138792317406564
0.372,-0.06886326340858119,-0.0976479124232736,-0.028560414841216446,0.08497650089363419,-0.020706922738715473,-0.064627708230948,-0.022643950655519163,-0.12408699968113393,-0.1478427310950793,-0.1321514458085223,-0.11536651341884419,-0.07897732779073838
0.374,-0.06877666872179265,-0.10040572637134457,-0.0313464088123943,0.08637621497074141,-0.020085473116613992,-0.06846226906447055,-0.019571133480201428,-0.1214477892159244,-0.1437388745056167,-0.13085005620564163,-0.11417632866905279,-0.0797981672285806
0.376,-0.07213269826734968,-0.11071226586115318,-0.03846786761875357,0.09290550865834109,-0.019027477317652527,-0.07761181293037935,-0.01781726640679235,-0.11976823309919675,-0.14232890891872235,-0.1312802409354585,-0.1151237045154958,-0.08391562890432304
0.378,-0.07357949241531456,-0.12218383529782641,-0.04857089155134884,0.09890900636228035,-0.0149279099768567,-0.0879908299710729,-0.01656452431382214,-0.11837092057772247,-0.1426667077514753,-0.13130858010605953,-0.11578642452531371,-0.08697569424140097
0.38,-0.0719500051534113,-0.1320674441339733,-0.05989011492414572,0.10280338145225727,-0.00779501860205463,-0.09776644472094127,-0.015049816319201213,-0.11569351238968423,-0.14122817688057454,-0.12629673155442808,-0.11343906831606194,-0.0846691457196385
0.382,-0.07214706372379495,-0.13872044183990997,-0.06614830898335608,0.10640002890759563,-0.003738507764055728,-0.10331571095320286,-0.015157239962965863,-0.11327736123066226,-0.13802288050540396,-0.11769057811191938,-0.11007520815763916,-0.07913364189442655
0.384,-0.07729428450224718,-0.1377614476462004,-0.06015632231434694,0.10896747602781319,-0.009075976433581738,-0.09911841563308534,-0.019047289802866692,-0.11520544092344226,-0.13696728959393412,-0.11393027499143753,-0.1113779718109725,-0.07819518344307454
0.386,-0.08207966070665831,-0.12806055565412067,-0.04595932198644677,0.10701863465239621,-0.01948385624352606,-0.08712697240158128,-0.02582026650914691,-0.12272870034222391,-0.1406553486320089,-0.12007222594701455,-0.1190264243256551,-0.08553513149023098
0.388,-0.07889646068247998,-0.1183821832288858,-0.03951814538256996,0.1007702298188288,-0.022075125562848772,-0.08000280854794982,-0.03208254827651348,-0.13090323819493524,-0.14621716879276664,-0.13019967062792137,-0.12700515095444756,-0.09435653473897897
0.39,-0.06808978663112812,-0.11981733984548401,-0.05148570931669708,0.09580907707226369,-0.010540994146152866,-0.08803947130199312,-0.034666790877553255,-0.13327284197977382,-0.14770893810613894,-0.13430277554539388,-0.12837888083184956,-0.09524968612589302
0.392,-0.05798111775563402,-0.13248739744540053,-0.07401650564250786,0.09668801712260326,0.006766536410964951,-0.10625165015296531,-0.03305881665363144,-0.12954413097262624,-0.14357923686361773,-0.13029953557142976,-0.12319892120814739,-0.08800346529207434
0.394,-0.056511933952081976,-0.14539980501499675,-0.08843283139291093,0.1023011851668529,0.015294099137310916,-0.11929126628739854,-0.030339060980974483,-0.12535769917980386,-0.13914810767843055,-0.12455964086978766,-0.11681028396170876,-0.08093001443072395
0.396,-0.06465149729720387,-0.14895057161985745,-0.08398905734169107,0.10825495448918093,0.008506859546156813,-0.1176389610826735,-0.03070071002353838,-0.1246263479515986,-0.1389349708410562,-0.12256327938999512,-0.11309588868096766,-0.08035452141018637
0.398,-0.07579408840141885,-0.14384291333218532,-0.06780512332261585,0.11114309095469539,-0.006046242041716008,-0.10636931890809143,-0.03506165583498607,-0.12441810448925998,-0.1394766238377523,-0.1233099994048671,-0.1123867402616502,-0.08497337894397967
0.4,-0.07895173056113407,-0.13780794274000424,-0.05870615177192477,0.10930634391526109,-0.012187650068585337,-0.09910049404836539,-0.04024773889403579,-0.11556539685524897,-0.13200497218395116,-0.12110419633593747,-0.11309917080611231,-0.09001053110679745
0.402,-0.06475263175226166,-0.13770462835377567,-0.07303257609282826,0.10198221325520408,0.003067364596533401,-0.10660315495224676,-0.04232459213307579,-0.08498332131727082,-0.1078270243008222,-0.10960042661240448,-0.11186558211380145,-0.09328364129907925
0.404,-0.03257537323437092,-0.14639119833332823,-0.11410817767528203,0.090489621720761,0.04032533797642071,-0.13137747694839733,-0.03841149186445445,-0.018426761459666364,-0.05842213044996387,-0.08379033891519148,-0.10346331325159176,-0.09457879926636703
0.406,0.009779341766545475,-0.16179573175465567,-0.1718819234379504,0.07737056340485757,0.08973890008074124,-0.16779410707200315,-0.02585082628640449,0.0939447880716347,0.024422707769614648,-0.03957810757729233,-0.08377548535046202,-0.09115373051402206
0.408,0.05502395189337157,-0.17253274155689347,-0.22783879803369633,0.06036196045879845,0.13927180489703067,-0.20133955709146767,-0.002356118942428184,0.25081750951110976,0.14314443920284853,0.024770282386649526,-0.053149192259406786,-0.07915663841960972
0.41,0.10160215903602218,-0.15686414835463733,-0.25889878510375736,0.029410376229311475,0.17790466655606116,-0.20949299643419927,0.033918773559978514,0.4411439752790869,0.2908845938944484,0.10620613628889942,-0.01451569805295709,-0.05857819141312279
0.412,0.1506959815700505,-0.09565102133890574,-0.2468925234954269,-0.025759927373034286,0.19711510684232972,-0.17337584896569924,0.0859717816683265,0.6558850717187527,0.4570623838000342,0.20043193463449707,0.03248757675383007,-0.03139789914154233
0.414,0.20144265795923047,0.010342562966683417,-0.19142625504483074,-0.1044314768965704,0.19531528002106055,-0.0929885647598184,0.15786110886813948,0.8920730999515148,0.6350940741673332,0.3084716893650997,0.09341366620449673,0.0041334809182505036
0.416,0.24788117424204123,0.14080785746648472,-0.10704650186970087,-0.1931976428113735,0.17636339864483064,0.014313471580786063,0.2503870163397743,1.1343965647474024,0.8192987854216236,0.4344144084178574,0.17362789642958476,0.05316038555071806
0.418,0.2801067074347541,0.2742346671780062,-0.005803553269071234,-0.27604082647107414,0.1416708595219849,0.13162293472796888,0.3526766525338331,1.3320915777863325,0.9906500008347923,0.5728595453147597,0.271211285297021,0.11847938773498437
0.42,0.291817786502405,0.4023550587645149,0.11028900120462348,-0.3457689614119884,0.08947573169594684,0.2538047358143694,0.4382794550209257,1.40728704261367,1.1118682665789843,0.7035172955977939,0.37752202328376755,0.19892955799438677
0.422,0.2862538684413111,0.5275720587826257,0.24082794322899853,-0.40553703597268265,0.02177089605869544,0.3821296750529994,0.47983178785038166,1.3010268623400632,1.1472837224353625,0.8058982422187622,0.48671544446742937,0.2949374570102569
0.424,0.2698768481965086,0.6541119008104993,0.38388194648119817,-0.4607295361580475,-0.05731459836377039,0.5177211860417005,0.470921041131748,1.012079356476939,1.0863463839028802,0.8760121433568804,0.600436452954487,0.4100302727251901
0.426,0.24267736394701117,0.7879444019245572,0.5451616702934582,-0.5139441524664679,-0.15123007123269042,0.665874914684006,0.4259247077666985,0.5864223046139149,0.9426476593549814,0.9221836099150843,0.720080421644774,0.5439118664224499
0.428,0.20219030274381242,0.93777262659008,0.7354419383534261,-0.5681084253150919,-0.26724727858915814,0.8359959855745084,0.35951841473753005,0.08188523054200254,0.7406428553028831,0.9521396847430931,0.8413807621890542,0.69054809817708
0.43,0.15405086834636111,1.1052174406671205,0.9508047998499928,-0.627397800389976,-0.4002710146829917,1.0271418353131285,0.27187879207497967,-0.444305178499253,0.5139396014302946,0.9744071659742071,0.9614763461340553,0.844311532043181
0.432,0.10905903838024565,1.2778485990351593,1.1683434364536893,-0.6916731491618325,-0.5323115436899535,1.2218137156843447,0.153092336988924,-0.9354170856412208,0.3019922809950526,1.004108036324577,1.0835073055889086,1.0008414826113896
0.434,0.07030513622505338,1.4345598421343717,1.3638576619098826,-0.7515129290293104,-0.6491013181312875,1.3973990057830763,0.0037346201743179005,-1.3487451528123395,0.13142545207530779,1.0529032114694479,1.2059085658658357,1.1503089414750896
0.436,0.030376289762319618,1.5423400085382748,1.5115525105606626,-0.7855057546026369,-0.7420390457597651,1.5247979851875797,-0.1474968954410634,-1.660702344127615,0.00683189830823532,1.1135032479482212,1.3074486721187244,1.2697311722435933
0.438,-0.020221228238727205,1.5434365701950743,1.5631545234756234,-0.759897422076238,-0.7928218947167008,1.5512740117535841,-0.2557501770219559,-1.8577628911022446,-0.08153998128865728,1.1564012331766236,1.3449845270599379,1.3190187479145035
0.44,-0.08466291540549645,1.3844421682546604,1.4685507325538578,-0.6476014992654019,-0.7783492138870652,1.4248783934229134,-0.30667712589037405,-1.9526199796114765,-0.164287418638851,1.1354030655761804,1.2743491628456753,1.258193747520488
0.442,-0.15410410858915405,1.088638468548352,1.2422156800711939,-0.4652791622235646,-0.7007609754499533,1.1642147640542047,-0.3555905567749077,-2.0101562059825486,-0.3061775197202883,0.9976220643109349,1.0853210571019882,1.0871656810014692
0.444,-0.21270143261007074,0.7611520455002813,0.9733699294494295,-0.27271170643542214,-0.5959380290598636,0.8663994760430208,-0.48937762568717197,-2.110887869612962,-0.5747827239748211,0.7029651682594674,0.8086252518199717,0.8549233639380434
0.446,-0.25393178566547714,0.486956496902412,0.7404329910561607,-0.11514553019008739,-0.49977286912610447,0.6128778526327243,-0.7212419060631226,-2.2623843530214502,-0.9647479414865476,0.2563072239437236,0.4832158288088257,0.6127058485397759
0.448,-0.28328716717458163,0.2579308290285783,0.5408513387151432,0.013785976275024169,-0.414253798108036,0.39794010866016394,-0.9495808472358542,-2.3723969557136995,-1.362198595203634,-0.26354144696866527,0.14042869390729673,0.378527095943175
0.45,-0.3028219628363403,0.024368485448943412,0.3270283644035321,0.13964004845897496,-0.3170083259138153,0.1732024894359589,-1.0542823029309256,-2.336903633411846,-1.6167605511371095,-0.7207249733397331,-0.17569409773803954,0.15787780643002375
0.452,-0.3059838970268593,-0.2177500181873663,0.08828121658188398,0.2616653397711059,-0.1993997434734038,-0.06778031454357172,-1.0136753249454298,-2.1435665041257295,-1.6589462835829862,-0.9984582900860168,-0.4099505000396258,-0.03120657217200455
0.454,-0.28968330939451403,-0.4188574463012572,-0.12906614358306145,0.35418172894027145,-0.08279189993172395,-0.2765037283797672,-0.9014052900144138,-1.8701764451344074,-1.534840349365872,-1.0710250183098051,-0.5352348397549088,-0.16957222934747068
0.456,-0.2613595604201691,-0.5350754769555487,-0.2736825991145154,0.3988172405810124,0.003674922368050556,-0.40581564550578786,-0.7926329334072488,-1.5973344313014803,-1.3378227851631264,-1.0005421790239664,-0.569913860187763,-0.25341519342274116
0.458,-0.23141806676367657,-0.5674718061959337,-0.3361158425205186,0.40044961701697596,0.05022210662694994,-0.45241747055569054,-0.7068050070924551,-1.3511118396447914,-1.1339090764976625,-0.8712694428093324,-0.548783375412041,-0.2887539941766439
0.46,-0.20422358592902076,-0.5457281735795354,-0.3416952272131687,0.37558302232236557,0.06728880785333134,-0.44408143735098526,-0.6296868523782552,-1.1248873034612301,-0.947766149191696,-0.7362359796711307,-0.49530136155490695,-0.28338621835020794
0.462,-0.17853543313856243,-0.49584635254842463,-0.31776597600116685,0.33709388762602566,0.06874966707566947,-0.40720998143853043,-0.551555297965218,-0.9189301947034673,-0.7850715632497851,-0.6144790623895153,-0.4256032466388014,-0.2514815374165528
0.464,-0.1532236663668434,-0.432239213311703,-0.27972160551571806,0.2925844880006686,0.06235440827813747,-0.3566766051819312,-0.4709537594148367,-0.7390691876835895,-0.6457842514711567,-0.5103429623201597,-0.3576397303443295,-0.21429244149118545
0.466,-0.13004970699132012,-0.36657628614951465,-0.23706489209434692,0.2491053516946357,0.052175073736506615,-0.30306963096301215,-0.38370392899729827,-0.5798301726086335,-0.5247479310917151,-0.42332064580323997,-0.3043811982493565,-0.18711905892167
0.468,-0.11126544831874657,-0.3088484555448311,-0.19751532839073674,0.21198411474852014,0.041750634795230425,-0.2547670493701158,-0.28767517187045866,-0.4329662565987244,-0.41571290268384425,-0.3500819403139601,-0.2658467624088443,-0.16989337946504987
0.47,-0.09703714141907573,-0.2630271755928776,-0.1655357061255836,0.1821952937986979,0.03329087410482777,-0.21551340098539656,-0.19291768027960585,-0.3033806724337075,-0.31734896942236757,-0.28681405377749464,-0.23401820073067345,-0.15481087561632859
0.472,-0.08687371090730434,-0.2292816167524903,-0.14224853051036337,0.15953124894621987,0.02674580368689596,-0.18636056375817797,-0.11603413851898521,-0.20345778882908,-0.23391220692949563,-0.23150767493696844,-0.20338398441975852,-0.1385924269571051
0.474,-0.08070312610322229,-0.20599977351562412,-0.12559178002560234,0.14415470738955763,0.02095998305237606,-0.1664869497328348,-0.0659196765373278,-0.13866165066492303,-0.17187997356509124,-0.18554843086514985,-0.17465094698307065,-0.12350543834852938
0.476,-0.07758165015233943,-0.18867087905391525,-0.11126359408670053,0.13411987999642924,0.015130435950162016,-0.15153401144709355,-0.03974773346937964,-0.10429721807182808,-0.13477532996852654,-0.15316821298019448,-0.1515652717855568,-0.11176899978205294
0.478,-0.07609372171586755,-0.17352037292805592,-0.09707981356831208,0.12643268735229835,0.00925639659653924,-0.1371922485468412,-0.02969857921306868,-0.08940821335987806,-0.11913596513400466,-0.13598567733002542,-0.1372083320835696,-0.10412423135882798
0.48,-0.07484883916560636,-0.15963772778504895,-0.08420650459523657,0.11886232413735026,0.004054157021118289,-0.12280451464180193,-0.028947996683485796,-0.08123317093257804,-0.11607508204882333,-0.12841665061658838,-0.1312589124007037,-0.10062205239059802
0.482,-0.07178201625224895,-0.1449490259296656,-0.07283206581506799,0.1092481036893322,4.009377003176448e-06,-0.1084086495422296,-0.03313651692336745,-0.07139532063442466,-0.11707961849306912,-0.12330516086536861,-0.13023647216026824,-0.10025974332308356
0.484,-0.06682299746754233,-0.12850719102285463,-0.061771257334569646,0.09829645953997634,-0.0036786601294624744,-0.09426004124816961,-0.03930902879962837,-0.05890516358170848,-0.11757823002120724,-0.12013040788754088,-0.13152117735872543,-0.10193326679836963
0.486,-0.06393640206018826,-0.11659347803039441,-0.05299425695090984,0.09163537400654748,-0.007528106132872673,-0.08450123010449852,-0.04381886085785345,-0.04595139814563359,-0.11514500442268781,-0.1216980641162812,-0.13477270825350463,-0.10527417050470664
0.488,-0.06441945094410632,-0.11636653321451848,-0.05219177273641542,0.09244864406955906,-0.008480204999805521,-0.08462791863001339,-0.043291436254296024,-0.03397628961453945,-0.1072195246308439,-0.1264335305606534,-0.13937503469043377,-0.10986390797273464
0.49,-0.062080578634672264,-0.12655501088497156,-0.06438566122597403,0.09626972232185589,-0.0007770430798238564,-0.09593249674521331,-0.03757006583347783,-0.02317924284012977,-0.09285313703049954,-0.12882921656722385,-0.14293179475098475,-0.11461037197002923
0.492,-0.05372678329533181,-0.14286957960866184,-0.08882415932718231,0.09986257147199713,0.016160514713974266,-0.11610639314800848,-0.02773570828771983,-0.011940951980098043,-0.07479087426414886,-0.123990734603731,-0.14173993169649027,-0.11681765831482592
0.494,-0.04789585099544624,-0.1643349468772101,-0.11626962049742653,0.10761161101009667,0.03315495392181183,-0.1406492433085584,-0.013767199615811692,0.0008306236876491158,-0.05801842556969437,-0.11105030091667424,-0.13348685441524616,-0.11304849712101843
0.496,-0.052630797156962485,-0.18551353713914254,-0.13307805397081313,0.12086941166836884,0.039515569170403095,-0.16042094367174087,0.0012960521765442573,0.011928781274529825,-0.04659653776036818,-0.09454300472569624,-0.12081094723369162,-0.10371961154439698
0.498,-0.06165807542909572,-0.1928393592779818,-0.13151605033670583,0.12935528115759382,0.034339290006842736,-0.16449317090119897,0.009763361025782943,0.01697211708595817,-0.042365948152223325,-0.08078966539247233,-0.11009131534614448,-0.09451625136837717
0.5,-0.06250696955038494,-0.1788750577660351,-0.11649861842004766,0.12270410026228001,0.0260812942914963,-0.15078205545967785,0.007234689025061307,0.016563744852271942,-0.04503758213198125,-0.07262620714293631,-0.10525924058702227,-0.0898131816711406
0.502,-0.05329369366075287,-0.1539789785627661,-0.1005785988898578,0.10538657645244161,0.022296458407409278,-0.13010723329015647,-0.0007704674738823727,0.016328871338850446,-0.05068356296099128,-0.06883594555652986,-0.10409183035689809,-0.0869445044516503
0.504,-0.04365188752316648,-0.13630575945848394,-0.0925273532495128,0.09186577937771838,0.022996683913564776,-0.1161583558436153,-0.0036954117163327006,0.02259737175863127,-0.05210390666390686,-0.06670633739980852,-0.10185995937548073,-0.08087129889029201
0.506,-0.04068072764929844,-0.1331290098212995,-0.09244293341292284,0.08908248716128696,0.024499926499365925,-0.11364227000311043,0.003638348677655464,0.03806263831895525,-0.044574136897694544,-0.06394306669558869,-0.09712752798646236,-0.07206480013397663
0.508,-0.03975110464385263,-0.1362641584392409,-0.09657903523286639,0.0899436749988362,0.02678085045114964,-0.11723242575616422,0.016700868081335165,0.05839704437797194,-0.030587706645444385,-0.060388479779029586,-0.0924972210554606,-0.06576058799790575
0.51,-0.031138891866907173,-0.13419217738847777,-0.10308795611407436,0.08400789637329965,0.03388887117370068,-0.11964570806569898,0.026548975437034942,0.0740210125108443,-0.0175087211346373,-0.058337720542871604,-0.09155913100944056,-0.06593489078500957
0.512,-0.014141912933165005,-0.12505666509120475,-0.11089545410473438,0.07072995902739285,0.046349759662642036,-0.11865354245167256,0.0290134249393895,0.07861842149777977,-0.010521850694737942,-0.058576029494259496,-0.09532768610190091,-0.07233850010638472
0.514,-0.0013656512162576644,-0.11603773280368382,-0.11464396470001788,0.06007782801805287,0.055499223967789245,-0.11554099027747691,0.02800235863495458,0.07510607504462288,-0.007874627608447038,-0.057545800330080006,-0.09987316314302952,-0.08090240995581131
0.516,-0.005713841571581923,-0.11255928357521446,-0.10684253133613093,0.06064080581544184,0.050413317474250305,-0.11010585224364712,0.028708943101877566,0.07100855477108083,-0.005086591605032093,-0.05255742291355236,-0.0995742340592937,-0.08618680544354358
0.518,-0.025683985507995416,-0.11355405696856702,-0.0878840182554964,0.07072865589790191,0.03099799306904199,-0.1020146578951798,0.02896824215370855,0.06936567890117888,-0.004282303230750235,-0.04749946674555546,-0.0946718652650689,-0.08587618094210862
0.52,-0.04776791409668229,-0.1160875835849782,-0.06832791878345669,0.08237221603278211,0.00917747783541865,-0.09443069183878956,0.020961285133025597,0.06686393125387657,-0.013161317559517643,-0.048790904761640504,-0.09222711779302153,-0.08357123647711498
0.522,-0.059219471762692044,-0.11793881814525935,-0.058715676206223026,0.08887104718422353,-0.002312270718088539,-0.091076044154359,0.002591739962629454,0.06121595775128081,-0.03159482416707935,-0.05756691870072928,-0.09721726087034072,-0.08440988041473611
0.524,-0.05575579611384924,-0.11719715649887018,-0.06143510579881375,0.0875406820401463,0.0010250061289163634,-0.09209470066675216,-0.01647626797021414,0.05795614953094199,-0.046587215768449874,-0.0680647912019201,-0.10546974849666747,-0.08763778699880233
0.526,-0.04285706711782227,-0.11472475053361463,-0.07188863843927255,0.08076140370572252,0.013999807422215757,-0.09556788213245973,-0.022881113229200865,0.06643504136730655,-0.044790406057779925,-0.07196410638927511,-0.10779004975447251,-0.08744996298832798
0.528,-0.03073481226247215,-0.11422358466476615,-0.08360109149303559,0.07429397439101718,0.02700633098013963,-0.10019636750378814,-0.012219471331229496,0.08813026826943812,-0.025221116494710396,-0.06570144602402091,-0.100322772477233,-0.08151689892209121
0.53,-0.0250622047776389,-0.11764829026806986,-0.09278413179975312,0.07210178854473186,0.03444374773096273,-0.10567567097247749,0.00711582215573235,0.11232788050114748,0.0007540857522252665,-0.05507656067998135,-0.08936246296025727,-0.07533627611461759
0.532,-0.02538252760101319,-0.12373041317924251,-0.09844239378938459,0.0747195285625687,0.03625088251628443,-0.11168517524332165,0.022002098211627522,0.12616437810995765,0.01852676653595342,-0.04917030565037262,-0.08444421293403497,-0.07635748514488212
0.534,-0.031224704306736593,-0.1300810322490747,-0.0986878792265304,0.08140334040902081,0.03256606295848244,-0.11600970238738788,0.02673489484515201,0.127124229746846,0.02241050286275772,-0.04933938922139712,-0.0869146593070572,-0.08356102043360938
0.536,-0.042283650431993634,-0.13407006736135962,-0.09150491161330962,0.08995242341248734,0.023352075019203063,-0.11527015491148669,0.026514877374154214,0.12371227935324902,0.020429901149339715,-0.0482948034788757,-0.08867586150334152,-0.08661746706425336
0.538,-0.05379107953524797,-0.13421833037524605,-0.08030774398209312,0.09620855719885907,0.012614175954068604,-0.10968150794697384,0.02828526051946103,0.12505838677592637,0.022954527573376442,-0.04000583041339895,-0.08296123406935937,-0.079131066237035
0.54,-0.05915030854431789,-0.1325151600946475,-0.0734478857261245,0.09754262850373366,0.006723665589965499,-0.10464318966669528,0.03127169130368599,0.13197204825215883,0.029272576892082226,-0.027095490182754305,-0.0720566603266674,-0.06753857048552374
0.542,-0.056522161223740375,-0.1314866362295617,-0.07507370082412594,0.09480558144803725,0.008049325007094738,-0.10422507909012747,0.030072195338020826,0.13971460425300347,0.03191090017196113,-0.017657747623381237,-0.06338829202464731,-0.06193355847435655
0.544,-0.04817842496008572,-0.1287456662510083,-0.08059916472006226,0.08864375217578783,0.01398842516191893,-0.10557245631630104,0.024220676726086215,0.14722515110887507,0.03003579277791807,-0.016530376173455076,-0.06199372088613138,-0.06411030120465451
0.546,-0.035424514830531675,-0.12029581050997666,-0.08492633453355569,0.07791400693529317,0.02251923568618541,-0.10399901019360328,0.018932230903886158,0.1577958266957197,0.030718785656625808,-0.02110259180658642,-0.06769730516442239,-0.06985651424138294
0.548,-0.01809316414522485,-0.10859693102998859,-0.09066823119657721,0.06351901113551778,0.0351604172568535,-0.10103331044294706,0.017459674215604574,0.1713406572750328,0.03913592255290614,-0.025278652345305852,-0.07686196359086851,-0.0769350157932369
0.55,0.0016988527593201656,-0.10203111525732803,-0.10383954642398088,0.050504902320119886,0.05290756631342289,-0.10344467183011469,0.018165557611414654,0.18285195461625925,0.05316759799020148,-0.025759967564112255,-0.08546640126474105,-0.08502240464251008
0.552,0.017917614116273867,-0.10606731596347597,-0.12384198504420553,0.04469862656582511,0.07148474111044241,-0.11476961357059082,0.01899856980361501,0.18916677575031488,0.06719664195811399,-0.02305336769035065,-0.09035212808898221,-0.09174243439559823
0.554,0.023396854952098277,-0.11548160244759158,-0.13860092181189038,0.04712533402011295,0.08124779000675318,-0.1273413492376233,0.020840146683941834,0.19312608847410487,0.07849606888204164,-0.017061111460288908,-0.08816398412209767,-0.09295955718274544
0.556,0.013818756431666787,-0.11710423784573071,-0.13079147254724507,0.053026265714257996,0.07207097936997925,-0.12511669552486862,0.025840359172168113,0.20084942818115464,0.0889074997589357,-0.00503132975870979,-0.07594096629313869,-0.08540966700300837
0.558,-0.007794908784275224,-0.10464987005230209,-0.0969300909717459,0.057515128081618475,0.04423432677154174,-0.10203073682319867,0.033698183419290095,0.21565754216841712,0.10021313079648039,0.013666542365140297,-0.0554345984101445,-0.06912826970114655
0.56,-0.02802463322614237,-0.08765991044021586,-0.05974728361869237,0.0590540121014583,0.015692711131485574,-0.07465412565557593,0.04005024827245673,0.23388628934281158,0.10999182012825418,0.03278306318244017,-0.0355293088515168,-0.05005064135611696
0.562,-0.031452865083309856,-0.07938285845432057,-0.04794561867227406,0.05682716299036688,0.007953407484476496,-0.06507018301990942,0.0405907485611941,0.24901492457207208,0.11538091514498802,0.04334598960688144,-0.026086860074164702,-0.03787925013708581
0.564,-0.017286160046524016,-0.08038564715302732,-0.06304632703678398,0.050181185791308924,0.021832954367166493,-0.0741081022686181,0.03721878855241464,0.26123479344651473,0.11961778932500791,0.043834011819863086,-0.02775808308562684,-0.036746045471532644
0.566,-0.00015661098026795422,-0.08142074062667938,-0.08122997430478242,0.04144381434564022,0.038607661392679876,-0.0839817471764432,0.036323298596915514,0.2776285533236385,0.13004648124051427,0.04282769906471381,-0.031077091193890568,-0.04030089560869088
0.568,0.009288539788919541,-0.07814970740249919,-0.08745079506950285,0.0345084825303272,0.04629351948347602,-0.08451591914378236,0.04094869783450037,0.301312381799163,0.15004345416652354,0.04901239252017424,-0.02743345951591603,-0.039948047597516086
0.57,0.014363344423663629,-0.07503482697686414,-0.08942278317356829,0.030809422957332074,0.05047447630100643,-0.08276918673474336,0.04890447034843439,0.3275932818393297,0.1766233010417193,0.06264381167722861,-0.0173652083494593,-0.03422799068745302
0.572,0.019558122242691912,-0.07547800055123971,-0.0950191033647548,0.02939171613811181,0.05667717185807464,-0.08553365316078064,0.05786860466201226,0.35244143439842696,0.20503621020120189,0.08036887916143196,-0.005532991995387007,-0.026129285544646875
0.574,0.022165700078173114,-0.0749477852154854,-0.09694915576251008,0.02819052037611812,0.059407865474821145,-0.08686553299125303,0.06760337043685269,0.37665580836183965,0.2323885288448082,0.10187499036288195,0.007271201655243528,-0.016374358346352015
0.576,0.02358801658231183,-0.06746128991686337,-0.09058259785448018,0.02324304927675716,0.05687625087407459,-0.08069413588377092,0.07617087688743783,0.39968703866919536,0.2559370693009965,0.12515900304764097,0.02093909413580155,-0.005717501084999901
0.578,0.03387218959015931,-0.053973211657446445,-0.08709761105681818,0.010788797518885994,0.0597741492980284,-0.0727196443811645,0.0782242502190981,0.41746042075144807,0.27117235524948874,0.14230134452012339,0.030125405975571094,0.0006323893633340933
0.58,0.05497680110597712,-0.039018434447978236,-0.0933225079647438,-0.00732437790327244,0.07287924368236899,-0.0686683663883257,0.07089687006393758,0.42937186399967936,0.2769494951155354,0.14858184788976703,0.030927893623768014,-0.001126481905539645
0.582,0.07298561739009854,-0.024190566714272402,-0.09694768574247763,-0.023612957064863653,0.08329388479051304,-0.06313993171515392,0.05981579965700657,0.44244084481642043,0.2812909943171246,0.1510021583719961,0.0295933212566998,-0.005919207337913546
0.584,0.07751046448266906,-0.010215307169022489,-0.08789493869410804,-0.0328582796729022,0.08066739631951574,-0.05125003906843757,0.05543520004621329,0.46615630328411795,0.29556416064996927,0.16087197629528185,0.03568232403143255,-0.004917431195015006
0.586,0.07637220904341226,-0.0006864872857931206,-0.07726586159745416,-0.037040223983749516,0.07460236867124727,-0.04030884259316232,0.06256747308122697,0.5032453968157089,0.32307513615283834,0.18073886162467204,0.0501252605554921,0.003947323187606675
0.588,0.08158318450687396,-0.0015665459346458472,-0.08318913041608277,-0.039100252262168136,0.08047532499521351,-0.04295179482289343,0.07612185078603406,0.546136067637661,0.3580905454719334,0.20372585278097272,0.06676678803752041,0.015387263409529369
0.59,0.09296597753643916,-0.01876358137547507,-0.11175951332289424,-0.036170623742390495,0.1010915077798152,-0.06600819267656488,0.0891187475514887,0.5854404509581829,0.39465816071879406,0.22444314215837244,0.08224949821303222,0.025069493386952465
0.592,0.1038520016920978,-0.0498007593632149,-0.153900023547605,-0.02621333321269646,0.12823194085269304,-0.10347880880266298,0.10081605412445041,0.6192287444245057,0.4313500645618047,0.2449606254493536,0.09858276293727686,0.03416600401871157
0.594,0.11270462234714475,-0.07639531971376287,-0.18941820162243372,-0.01760607560211446,0.1508647965196013,-0.13485880431833527,0.1126357692836298,0.6488556420394042,0.46716134318967756,0.2687666319180781,0.11739162546924445,0.04537308940792077
0.596,0.12187178433188699,-0.07747478809831962,-0.19931919373170173,-0.022005871941501196,0.1603194017484932,-0.1396433926954664,0.12120265127997983,0.672104054263806,0.4972033898577542,0.2942381406549628,0.13616031738689563,0.05800234016151771
0.598,0.13127204387355645,-0.05252703841750985,-0.18335735734121417,-0.03923304335607475,0.15607392812862603,-0.11848011575611768,0.12133847105701051,0.6872405833787015,0.5153577811473967,0.3168226669907865,0.15107396130158227,0.0692296603707894
0.6,0.1393204753793435,-0.02206522618985652,-0.16096323586364977,-0.058008149608415036,0.14752400226234264,-0.0923005757737635,0.1133608980620621,0.6977180378844445,0.5212667603291652,0.33401385525728955,0.1617607321910826,0.07896824825502113
0.602,0.1469197721121081,-0.004414885403623432,-0.151283453469171,-0.07015194204399824,0.14577356738120714,-0.07953485441621248,0.10398548560579464,0.7086946899621928,0.523679539316669,0.3466962790709584,0.17177769703962728,0.09044923923992744
0.604,0.15553488983215627,1.0476600013322975e-05,-0.15574328306879356,-0.07670446941658386,0.1526812605370331,-0.08005950918072205,0.10076260514989277,0.72350105445878,0.5337923928366847,0.358113128288792,0.18432049982511683,0.10477193294862472
0.606,0.16241089991826096,0.0023966518378730323,-0.16027504224997915,-0.08154973648400839,0.15925718641489653,-0.08060512058924005,0.10634922061770222,0.7434109597649609,0.5541649492771903,0.37163183594782884,0.19893101173333663,0.11825869759300428
0.608,0.16237297294582131,0.010712193456784891,-0.15194620104594328,-0.08557169647766338,0.15572555213363715,-0.07113144096505197,0.11697556763472193,0.7655684646572891,0.5773755418547362,0.38736683112900644,0.21208009500355227,0.1273318297880375
0.61,0.15591013837496426,0.02325461250434005,-0.1329876763011723,-0.08816183627881714,0.14312399296938313,-0.05458439731403116,0.12555205779282252,0.7816032125200576,0.5948616475659846,0.4010181750532638,0.2192240628802075,0.13230960243860962
0.612,0.15125387820305397,0.03428676274711092,-0.11720198455819009,-0.09082001429075819,0.13260874559867183,-0.04115231518764752,0.12738169952979803,0.7838594765307562,0.6035894256236656,0.40850793239426914,0.21913773320206723,0.1351759216366993
0.614,0.15480085050497017,0.041951401243894605,-0.11284115609271772,-0.0961744027925223,0.1320414245494506,-0.03551193506359892,0.124061114574326,0.7740195605916977,0.6060359023984863,0.4116645326450262,0.21766743787045825,0.1377334834075333
0.616,0.16423246730340194,0.04893909816961353,-0.11504630984318547,-0.10484495481847313,0.13811048479268437,-0.033532839712907686,0.12131240371886418,0.7613660355452869,0.6061950245769477,0.4159630841868237,0.22237309314537457,0.14225838528420537
0.618,0.1745850937162019,0.05812307398694721,-0.11606430101403375,-0.11575955933423843,0.14391595843550117,-0.03002072272330885,0.12280794850450827,0.7526637922278056,0.6049130092256072,0.42339493328217753,0.2341246301007555,0.15080617130627708
0.62,0.1843270141710733,0.06959326496039824,-0.11433749734971317,-0.12739785714976293,0.1473858278240039,-0.024214430838009025,0.12688503562485642,0.7474938429521198,0.5997176683801104,0.4309117589452052,0.24808065289650164,0.16322638210370388
0.622,0.19296499964611288,0.08094397617971974,-0.11181632088251511,-0.13740526570872347,0.14974422945046806,-0.017785261483605663,0.12855421567243622,0.7417297121293701,0.5891529950851235,0.43425211973911604,0.25895006627023676,0.17585441073012642
0.624,0.19807385027683813,0.08916898887595594,-0.10894082218305587,-0.1430846894089296,0.15090901347739913,-0.011845606211288447,0.12378345857296653,0.7321514325640732,0.5748925729593851,0.4307873926784729,0.2627022885857481,0.1827597424383385
0.626,0.19519898195692764,0.09245123502747452,-0.10287086414938527,-0.14231594499365735,0.14723264061107813,-0.006100760101333052,0.1133502748542601,0.7189271569929917,0.5599425323676211,0.4203232427412041,0.2579783682891076,0.1803974475590611
0.628,0.18120559878600695,0.09077948885022495,-0.09047288103942308,-0.13433526143816082,0.13461998947894355,-9.02003234358134e-05,0.10309799675599296,0.7043914265342042,0.5470462333834784,0.40503990727076733,0.24742592569527258,0.17120985204861627
0.63,0.16091926848070143,0.08479981051333574,-0.07607783111555895,-0.12161002044396893,0.1171140487477189,0.0035285457882557355,0.09856285907888793,0.6888595460276572,0.5372864205900508,0.3881247551899174,0.23533574378832456,0.16116655799943524
0.632,0.146087691542785,0.07533519186945872,-0.07070719961422255,-0.1097092544797345,0.10667538491299171,0.0001300545672546541,0.09958743264075806,0.6701308248264461,0.5280208211428928,0.37210260214439855,0.22455899169736998,0.15383124910866963
0.634,0.14312873640495088,0.06477156154475959,-0.07835786703478999,-0.10283431391055138,0.10911851118046134,-0.009906651710067884,0.10204883592922145,0.6478712497330085,0.5149539033176436,0.3588150720464211,0.2165004869772244,0.1486773093561906
0.636,0.1468285110257874,0.05600767673961453,-0.09084573640518538,-0.1002111975787779,0.11749527694445686,-0.020518493339863875,0.10298766238969771,0.6244172363769132,0.4972098185501774,0.34926307044570676,0.21144506291750081,0.14491700706466915
0.638,0.1485161044026519,0.049493150105950824,-0.0990344691419898,-0.09808663948762757,0.12234747654535866,-0.027345594345725973,0.10087411787902392,0.6000233521202024,0.47634026160442305,0.34152989701484743,0.20755556606791561,0.14309359169491145
0.64,0.14476867373857602,0.044453539443807956,-0.10030706354067626,-0.09410935563292251,0.12065850876697078,-0.030071462876632163,0.09363914266157905,0.5717530901123606,0.45174988295270907,0.33034491327677457,0.20189964025465662,0.14248520278057375
0.642,0.1368994307068214,0.042438714351593465,-0.09445058422756862,-0.08915566615210824,0.11351817212855017,-0.028034295896394612,0.0816266376575575,0.5397057577613463,0.42281056594642213,0.31151678476157557,0.1936482831319604,0.14155810633277932
0.644,0.12574048871934795,0.045674157093679765,-0.08006589630016593,-0.084820755892409,0.10100270219907316,-0.019217288352123787,0.0710065531245096,0.5108203753806578,0.39401499236419496,0.2876746780125937,0.1852994341157452,0.14124359756487379
0.646,0.10942832414793542,0.0510384110478375,-0.058395233590769466,-0.07910717077022442,0.08267952957287746,-0.00546784797979016,0.06872558653403128,0.49131521262713107,0.37200767636119075,0.2667723877112349,0.17956917110744772,0.14277106754229146
0.648,0.0885857835550292,0.0502707023796984,-0.03831785979017464,-0.06819532879267104,0.06288851345535286,0.004675107371517678,0.07372769313577099,0.47638589453030494,0.3571998198652021,0.2519126218439569,0.1744263053331616,0.14218704544480718
0.65,0.07045146141432976,0.03965219571490361,-0.030797689412798146,-0.053611480732110736,0.050260244308375425,0.003638854148338931,0.07769934414476769,0.4540402790362096,0.34251645859887964,0.23625295576413943,0.16315513979237137,0.13255153307849407
0.652,0.062047912347036896,0.02625209504820445,-0.035815487687887705,-0.04260184024356508,0.04816301894668444,-0.005208563070528045,0.07484308959086847,0.419080317618252,0.3204088147220727,0.21221483849570782,0.14152792312417142,0.1123715019715941
0.654,0.06223255150559298,0.021326306234351777,-0.04101539773707495,-0.040483762181346875,0.0501430017878423,-0.010207928642051263,0.06682685724563464,0.3768221093781739,0.2888343370537858,0.18214688546944277,0.11364679688771101,0.08813287322353654
0.656,0.0637505962061272,0.02756221884839673,-0.03638561218268831,-0.044742277421138614,0.04796001473663957,-0.005038753791438871,0.0583843250861212,0.3343265529609309,0.251875506515768,0.15560906884796466,0.08879909134336125,0.06841423860847845
0.658,0.060002809831596476,0.03375218008547669,-0.026346478448156015,-0.04607361050794555,0.04096052819610428,0.0028532956541018973,0.05210536617528203,0.2945752153654987,0.2159855592732387,0.13832543512260495,0.07324966957310956,0.05730114562909973
0.66,0.050235778994045875,0.025983345499478425,-0.024085067914443852,-0.037226737697895175,0.035619458897806204,0.0003576110022876643,0.047785389397253755,0.2588029632557114,0.1852508496542882,0.12709217420397279,0.06674246796097297,0.05351934370170809
0.662,0.04089375048199894,0.005672313330485439,-0.034939717662619656,-0.02247579683088857,0.03729275695645514,-0.014595891312003716,0.0437522835395368,0.22847650453060195,0.15941782641658594,0.1140680105119164,0.0646923624135129,0.053928480756229774
0.664,0.03916892382527787,-0.00962976472947218,-0.04867848830382358,-0.01407284626991799,0.043568437546272085,-0.028759550442443767,0.0382391375227639,0.20303673996995036,0.13493526838547795,0.09386939272445591,0.06018437253236357,0.05467454649069532
0.666,0.043029840645134494,-0.006879393956451233,-0.04999205445410708,-0.01718881382902746,0.04584708506888733,-0.02851013927669898,0.03139015627493848,0.17934741330588927,0.10904154197621392,0.06791719687163088,0.047700286360599774,0.05094333765977511
0.668,0.04188916432803815,0.006890114877857843,-0.0351085512967176,-0.02321503729780572,0.037766904218141065,-0.01525291982020937,0.02600979024145429,0.1550405380264249,0.08407862832907358,0.04270254579706896,0.029014638862083643,0.04087247358630255
0.67,0.029040004742819498,0.013291455379231383,-0.015758781979446308,-0.020155647355697148,0.02186645618937661,-0.003177693294422224,0.024770308078505,0.1303403330041376,0.06453555677828066,0.0226294462889522,0.010905987467212322,0.02798191961714336
0.672,0.008449678792732146,0.0010673911311737862,-0.007327918579909031,-0.004446562987641218,0.007029736198344037,-0.005232778712446047,0.026819665711571794,0.10604837779780076,0.04953214130329848,0.006116813833803936,-0.0038356070995313523,0.01632805664924652
0.674,-0.012062068470703994,-0.026520441290670018,-0.014426582872151858,0.0189781066555436,-0.0006745746236459492,-0.022638853963773048,0.028885936560595037,0.08179061377805526,0.033684931289186516,-0.009076395721937932,-0.01702941335788659,0.0065811302094073675
0.676,-0.028730760663840973,-0.056622051730901915,-0.027905628557839013,0.04237758174935032,-0.0030733397552363435,-0.04477371088293419,0.028661041631445883,0.05692984805045924,0.01491102622038253,-0.020779730693413098,-0.02893877234002145,-0.0020267648943611055
0.678,-0.04082412857566161,-0.07709077371504228,-0.0362908208776018,0.05916496592319181,-0.004732238647531552,-0.059298717990584233,0.024334328243185946,0.03139479490126303,-0.005508924051471437,-0.027827609947170755,-0.03882597255514329,-0.010649568086464408
0.68,-0.046675833632122674,-0.08439058858118714,-0.037718490234581466,0.06626834421157698,-0.005866251219807097,-0.06302236949951767,0.013716287297812478,0.0054168849342686185,-0.028563695400128375,-0.036301410612360974,-0.04883832565676155,-0.02138649606775928
0.682,-0.045802308502855146,-0.0827421189522487,-0.03692840828343512,0.06537553129718822,-0.0048376695686865225,-0.061051245056695194,-0.0018211152463366164,-0.019475923804707133,-0.05515515141961892,-0.053311586511391194,-0.0612612798385105,-0.034717873731566276
0.684,-0.04350003271244922,-0.07899136874991357,-0.035483852168267646,0.0623849731368997,-0.004387551982651046,-0.05850096614921036,-0.0154341971096182,-0.03913418526636931,-0.08024314256529304,-0.07644520733865329,-0.0742943733775626,-0.047341312027134985
0.686,-0.046148320352190374,-0.07844320904379323,-0.032297535812750404,0.06287568827836436,-0.008078616151500323,-0.05730087979944827,-0.020389937232240064,-0.04939722976992051,-0.0957666535915694,-0.09483999417858625,-0.0835361073867806,-0.05423003322565068
0.688,-0.05102562320149989,-0.08088642674197292,-0.02986615175021194,0.06576484974654859,-0.012526670943337346,-0.057787558765344485,-0.01611934481000793,-0.051309983931418786,-0.09849855637150193,-0.10073095813331188,-0.08657820559949744,-0.052559171029381506
0.69,-0.04978338287356739,-0.08209547008155746,-0.03231319717591552,0.06573149124718507,-0.011074157321877304,-0.05950136764470249,-0.007885029971365972,-0.05095328487114217,-0.09284999133325969,-0.09697075627550092,-0.08543979842738589,-0.04497791577253807
0.692,-0.04341147698847514,-0.08164253073543544,-0.038206725695023716,0.06337505142429047,-0.004801176148653024,-0.061610691618512695,-0.0015450224810769266,-0.053519886061237615,-0.08703512095028439,-0.09234350038281876,-0.08361727371079324,-0.038130114252136305
0.694,-0.04297843151461659,-0.08446985390534335,-0.04135836005926878,0.06584342597468656,-0.002325214192061475,-0.06406795251059637,0.0005953720505419774,-0.0608230612242811,-0.08716479514299322,-0.09237655407900158,-0.08256672891348175,-0.03618028468682284
0.696,-0.05324962394661954,-0.09359043300039882,-0.04001385916217018,0.07596810468215341,-0.007503504617382085,-0.06810105985120558,-0.0008190282056139018,-0.07296360423573374,-0.09459330606428679,-0.09709918582801655,-0.0834004437993365,-0.038262058303594894
0.698,-0.06591093440780676,-0.10546560181046295,-0.03913323942707715,0.08780007687114348,-0.01456014871658132,-0.07412939371766267,-0.004360318527862735,-0.08762052365637736,-0.10732897265737001,-0.1042563391497482,-0.08733442099722649,-0.04203584280554146
0.7,-0.07187272165499914,-0.1129730378349719,-0.04082314216580999,0.0942143951754669,-0.017598863438369156,-0.07885039201584315,-0.008451267395202501,-0.09979227390545711,-0.12183282917824487,-0.11136266008477298,-0.09215721270957265,-0.04562398685184184
0.702,-0.07197233874794812,-0.11168098227269445,-0.03960250506673615,0.0940489022662105,-0.018339483990477388,-0.07731670726631472,-0.012247602649781992,-0.10611449263779471,-0.13386114057276927,-0.11698102870015582,-0.09402304671714477,-0.047305890190342585
0.704,-0.07242308725900838,-0.1038287017942311,-0.031201648328646095,0.09100322468221685,-0.02152378296513731,-0.06916728422554604,-0.016482065092138145,-0.10784779923291261,-0.14057709090741477,-0.12200559068184812,-0.09378691282722906,-0.047441333555068736
0.706,-0.07487877554903971,-0.09607125783648679,-0.020679915121404036,0.08845308983685324,-0.026823307622557236,-0.060298033821402613,-0.02188989738538184,-0.10891250289512311,-0.14337234628382067,-0.12862199560951854,-0.09646353780032044,-0.04931853022343233
0.708,-0.07517115030502355,-0.09386537460811539,-0.017934076557079737,0.08703407996959432,-0.028533074188679255,-0.05778760585669452,-0.027020593728105537,-0.11235847444781012,-0.14638465656597413,-0.1371943875430473,-0.10438662688306632,-0.05486200556231781
0.71,-0.07165251906917319,-0.09931494400801832,-0.02688173646084372,0.08736236222957382,-0.02336489265238001,-0.06442705487748644,-0.02850845246143678,-0.11745373964153691,-0.15026750856208024,-0.14445572857660702,-0.11460800247623831,-0.06092485908786454
0.712,-0.06923937273737471,-0.11094672930515996,-0.04117274405929886,0.09140296111368128,-0.015676612627211692,-0.07671174269425982,-0.02387495224802259,-0.12028584538550655,-0.15040010097077808,-0.14554271361441765,-0.12208177403378165,-0.06255848122343403
0.714,-0.07101089443057453,-0.12228791593418721,-0.0511398830259198,0.09783704859984092,-0.01159604525965541,-0.08710127771645504,-0.015340183280284869,-0.11956630654034284,-0.14469438608335233,-0.1394329317877745,-0.12345940295110633,-0.0593208468943734
0.716,-0.07286458750156753,-0.12604385383943506,-0.053319936270469964,0.10124358308688147,-0.011399678370289714,-0.09040099890425159,-0.009972624899726555,-0.11956166422391572,-0.13937217919265762,-0.13217509699055796,-0.11964968781098695,-0.05593612136113508
0.718,-0.07220858946234564,-0.12243180499072569,-0.05036704472516592,0.09973323332023312,-0.012803406395395324,-0.08773377876042911,-0.012633397033043116,-0.12431281927020789,-0.14208055803224795,-0.1310999494097642,-0.11496873608830165,-0.056322153957700606
0.72,-0.07330281625370227,-0.11759724695442711,-0.044296809853557016,0.0974067696750272,-0.01666920660046947,-0.08275063583736887,-0.020020348513946518,-0.1325441068973776,-0.1527151286623268,-0.13648612669916854,-0.11256675892344539,-0.05942436872008648
0.722,-0.07836405628725199,-0.11458837843273202,-0.03615017039391337,0.09714395135709153,-0.02304438141437063,-0.07729574573452833,-0.025175955462120522,-0.14008691747523416,-0.1642694509285204,-0.14325066926497398,-0.11212072083854109,-0.061614511331355155
0.724,-0.08206524878232259,-0.11267190793953641,-0.030569665911052066,0.09747104198643343,-0.026847388745963298,-0.07329948815707009,-0.02557796397125747,-0.14363471676538034,-0.1698333660662309,-0.14773567208613378,-0.11221210280729796,-0.0608893285997984
0.726,-0.0796543344405109,-0.11261881117229165,-0.032986754019309304,0.09713730321201047,-0.023834642427229703,-0.07406979365076495,-0.023889839076933008,-0.14265629114528702,-0.1683596691532586,-0.14922174049779072,-0.11272473223800901,-0.05861095257103872
0.728,-0.07330684976979222,-0.11508347193213746,-0.04180730491469732,0.0964325336067037,-0.016798357327535922,-0.07955027661326917,-0.023233158181205128,-0.14015827148062465,-0.1648015976835406,-0.1496153891258994,-0.1146088813391004,-0.058214148821798095
0.73,-0.06723045091515496,-0.11644506634722547,-0.04923907002931425,0.09432763520194569,-0.011190101139046373,-0.08430343286002097,-0.0242465317271896,-0.13982318025305743,-0.16415470611465535,-0.15332729484099936,-0.11876644439026807,-0.06165946469798437
0.732,-0.06229937784408889,-0.1126051997916754,-0.05042161948331938,0.08948075891122993,-0.008280969006178888,-0.08367189508163182,-0.025443162405117847,-0.14233523261557882,-0.16680218148533243,-0.16201865838797358,-0.1250504278923603,-0.06773721262489937
0.734,-0.058341376336671594,-0.10426372071755971,-0.04624098510907085,0.08321047206536977,-0.00708733804290107,-0.07790642869855026,-0.024937584167028605,-0.146185217287425,-0.16944107801546193,-0.16952810627565565,-0.13093689912543252,-0.073621655064307
0.736,-0.05834226535373576,-0.0948797731911915,-0.03696438774522815,0.07884164948891308,-0.010287588313551676,-0.06848184642444047,-0.022381278790936845,-0.14986351016658744,-0.1686047234043923,-0.1678958083423485,-0.132019961177376,-0.07594748309298698
0.738,-0.06583288154172863,-0.08677451264818002,-0.021204002962945993,0.07855788854548991,-0.02159268126328495,-0.05598195519239932,-0.019709839764878327,-0.15236365298738222,-0.165146537861589,-0.1581944271467591,-0.12637965438384283,-0.0726044658801008
0.74,-0.07777976744211529,-0.08097762346211847,-0.003173112421058638,0.08106418147315549,-0.03720293292160868,-0.043499760845251804,-0.019403695710054538,-0.1538535826079997,-0.16515835630325595,-0.1503371240798162,-0.11809898917518906,-0.0664882119914752
0.742,-0.08560324179696836,-0.07813585504273882,0.007616467091920428,0.08287424672026007,-0.047298934031775375,-0.03663656379884608,-0.02150966577451468,-0.1545884617230397,-0.17222931793589177,-0.1517722568864896,-0.11373174140504719,-0.06370113191535846
0.744,-0.08483396524239203,-0.0780308795544312,0.006868377278709737,0.0820836023270407,-0.04722808533046755,-0.0375469285508581,-0.023392491011459095,-0.15270683780576969,-0.1809334572790303,-0.1598790581977719,-0.1156982301276304,-0.06619528294799681
0.746,-0.07936258960926618,-0.08118123497752969,-0.0018655757554304586,0.08090934079197855,-0.040622910172782,-0.044177333381088604,-0.022556856034733626,-0.14652718211072563,-0.18278398901999926,-0.1663584955845535,-0.12108398001153219,-0.07019162014696353
0.748,-0.07551234118957881,-0.09382529230626002,-0.01834894501891277,0.08554712541002757,-0.030442960424719872,-0.0589500332216427,-0.017426550307987104,-0.1370418819671662,-0.17476366184298453,-0.16564014417118694,-0.12474227867252932,-0.07093673591612001
0.75,-0.07469817390733503,-0.12295214259762295,-0.048125100969736184,0.10010628946261754,-0.014572082908470082,-0.08820745433000907,-0.007115252469296559,-0.12579156529413268,-0.15995702389585748,-0.15786444173961892,-0.12293758298348378,-0.06643865461190296
0.752,-0.07320413310401366,-0.1588545614882328,-0.08531465330142292,0.11770755258378345,0.005539609787921444,-0.1245586053729571,0.005599637496093564,-0.11499415009391441,-0.14534835584108477,-0.14771598959223953,-0.11754489810902725,-0.059247306966478834
0.754,-0.06854339238192907,-0.17645401906373256,-0.10758159314290265,0.1243213311376303,0.019572144563422038,-0.14421448701696132,0.01432030114663244,-0.1092408035016317,-0.13788889589090378,-0.14120107330240816,-0.11449661358526929,-0.05432940520857367
0.756,-0.0640317648326068,-0.1646122248310457,-0.1005299877795768,0.1158314752115781,0.018317139398085686,-0.13394659593356714,0.015379624637549383,-0.11138331422348444,-0.13861899866936891,-0.14058484872777197,-0.11548206417835626,-0.05350460209387868
0.758,-0.06469209078820153,-0.13977940264583064,-0.07522107172086404,0.10318798376830912,0.004708938638207134,-0.10763808575067384,0.010877228436907253,-0.11848277355732413,-0.1433040747665022,-0.14306012212907218,-0.11670236156539593,-0.055013733807739384
0.76,-0.06940895451832726,-0.12306882480268332,-0.05363987176560564,0.0969083624079331,-0.009158861177396645,-0.08769954863962547,0.005177613204780902,-0.12454594843143439,-0.14806627856158877,-0.14525890893353585,-0.11568830198890179,-0.057337382883566004
0.762,-0.07230335993288964,-0.11818751905872892,-0.045659727996623246,0.09612318966810109,-0.014877478455191278,-0.08145929303546284,0.0013354003613690463,-0.12517146049541403,-0.1510296046069304,-0.146725036074431,-0.11328200661294183,-0.059203815422491875
0.764,-0.07179248174339109,-0.1171179746908348,-0.04513353520686503,0.09575537960301012,-0.014950868012558436,-0.08153816561261376,-0.00030439745978918555,-0.11980006820554809,-0.15194398762763967,-0.14851559370079304,-0.11123887039153026,-0.05915799695277218
0.766,-0.07095838223085571,-0.11402682351607224,-0.04296500016687665,0.09396626616770759,-0.01572677857571829,-0.07985855826191308,-0.001184420841168501,-0.11174608619914146,-0.15203238744968317,-0.15082363806197654,-0.11138183828229602,-0.05843278557329679
0.768,-0.07000678797122777,-0.10776546030963853,-0.03754131018354844,0.09007144661076949,-0.01776748690471289,-0.07447663780979953,-0.0015755960928435348,-0.10552954559687809,-0.15137075383773962,-0.1532397550482605,-0.11479346255432167,-0.06078763360439268
0.77,-0.06766026981967742,-0.09991821606146903,-0.03189761254297322,0.08444991470859481,-0.01890057386750329,-0.06746953238379866,0.000577976287696421,-0.10209953502174064,-0.14752899874812578,-0.15557177960993035,-0.12055403185150637,-0.06756429352018399
0.772,-0.06716094888537817,-0.09432316903252902,-0.026997697970768873,0.08114512808349858,-0.02101847667707843,-0.06165587107093911,0.007487218217098915,-0.0975492557826005,-0.13919802606683546,-0.1567743354290282,-0.1253568763372247,-0.07509480736862537
0.774,-0.06944130996344632,-0.09307028259637896,-0.023940589597604322,0.08198749744299877,-0.02426257133019082,-0.059104478850125326,0.018269131214966986,-0.08935416873120818,-0.1294293321003908,-0.15498114728078374,-0.12510032271066354,-0.0783094149079233
0.776,-0.06579160229619037,-0.09324648928621937,-0.028047267103188004,0.08085418433180988,-0.02078948696558641,-0.06089216013915729,0.028185691647564105,-0.08136572292435837,-0.12277762619290683,-0.1496300234894933,-0.1189467349509126,-0.0758333389760995
0.778,-0.051343849068876325,-0.09242470934744552,-0.04155451918398527,0.07350435877346474,-0.006454709173149848,-0.06681363510749146,0.0327345463998536,-0.07851469470861597,-0.12043653780821059,-0.1420580876902247,-0.11120571952980797,-0.07090994974658366
0.78,-0.03784275187415013,-0.09256794996997297,-0.054990978572287304,0.06670113824778132,0.007754364963507791,-0.07358236531767685,0.032056315181911196,-0.07957933504138417,-0.12029012062354678,-0.134510610386966,-0.10683080696685403,-0.06798598451618018
0.782,-0.03784003302811297,-0.09301746381140866,-0.055389811098957,0.06689380328217681,0.008354709826008394,-0.07469189643047548,0.029800367045076923,-0.07876482247196434,-0.11997029392831839,-0.129082916726834,-0.10598670601368697,-0.0680999606900691
0.784,-0.046163899052546746,-0.08998589816313973,-0.044024730258422816,0.06992972951923619,-0.0017501043249446378,-0.06840160889261782,0.02802729563102087,-0.07310933149374926,-0.11886446478721,-0.1270009356841659,-0.10600889135708427,-0.06903024762565581
0.786,-0.0511338366328485,-0.0881138758596253,-0.03716131120712646,0.07174298401662002,-0.008246200925101416,-0.064526214012668,0.024947094949361693,-0.06613811900745994,-0.11865387241540254,-0.12908798164765437,-0.10705069314913433,-0.07087107915319603
0.788,-0.05353992716016273,-0.09783880011675002,-0.044557295840378354,0.07713501885297322,-0.0061022285850219965,-0.07304860322769914,0.019515128812047113,-0.06266617758170519,-0.12048660271793682,-0.13531703117436647,-0.11109046747991903,-0.07604168932295398
0.79,-0.06095817321976951,-0.11800698695643315,-0.057404020055172277,0.08958943924231581,-0.003448818832574087,-0.08921477332903195,0.015184856229097045,-0.06219642693565313,-0.12199448492951394,-0.14308529943392953,-0.11764180811535012,-0.08318982671438378
0.792,-0.07084640518508632,-0.13428018687660093,-0.0636916999868643,0.10199948523991802,-0.005398991884520676,-0.10011748104635061,0.014772828953213458,-0.06126374648902539,-0.1206364172137921,-0.14839251709181767,-0.12459030127402052,-0.08850533182315584
0.794,-0.07361676701264909,-0.13504384199792827,-0.06143920652744527,0.10445335510376476,-0.008336277082014298,-0.09923014623478141,0.015908116874422732,-0.059426110873459635,-0.11745188980734377,-0.14921713197266628,-0.13001238007264657,-0.09200774871855424
0.796,-0.0703367663699499,-0.12049551778647435,-0.050030082141399625,0.09658327343053616,-0.012786150333021884,-0.0865209238927576,0.016082776502594216,-0.0583425204224131,-0.11436765119763875,-0.14664510873128137,-0.13210799202742146,-0.09578088959632164
0.798,-0.07269533648388199,-0.09827291828575695,-0.025523999119841892,0.08672869350875774,-0.026084940377857628,-0.06357354646265757,0.01709962172445531,-0.05751049830322165,-0.11189337781375863,-0.14311685249221706,-0.13034589881287778,-0.09839242220007101
0.8,-0.0836653573964402,-0.07644478383265221,0.007058350558323815,0.08068400593227333,-0.047261532590728246,-0.036258288950101907,0.020648827764947596,-0.05472098819629538,-0.11010214891185287,-0.1396575981682716,-0.12522262663308267,-0.09703698234128592
0.802,-0.09156931155700533,-0.05975709312792372,0.031428954082653365,0.0763464632789729,-0.06306321729440689,-0.014957463647866025,0.024518408413943284,-0.048696425523525315,-0.10759020704386167,-0.13492975454446593,-0.11723931465052917,-0.0931675801711936
0.804,-0.0861637060518391,-0.048418905340177586,0.03729006762178647,0.06902091840715459,-0.06354234498949317,-0.005779276513399309,0.026336089690652768,-0.039265618614072316,-0.10171292724513281,-0.1278770436822578,-0.10901214791750027,-0.0907773992912759
0.806,-0.07060718542062325,-0.039604814832344834,0.030640973007625576,0.057677732046175906,-0.05252732273785647,-0.004945986660463327,0.027374067947624776,-0.02738329205327244,-0.09265089640336538,-0.12006115367949362,-0.1043095162579528,-0.0898832427595636
0.808,-0.055163964146688484,-0.031086725747499627,0.023793210097308348,0.04538971993574026,-0.04082992337166591,-0.0045617765692158845,0.031051496886501197,-0.01636042455961469,-0.08349036849843422,-0.11368757797153997,-0.10219133693446049,-0.08606587411387924
0.81,-0.046527270598998374,-0.024359268533276128,0.021885781220926548,0.03686629434225024,-0.035187874270333645,-0.001973092996373429,0.03941724409722504,-0.010774607427373298,-0.07592439035999322,-0.10916073560818378,-0.0981664979085208,-0.07794968826552273
0.812,-0.046222425733193025,-0.023473527112186483,0.02252238699586042,0.03596194044640386,-0.035901837222752725,-0.0008034644137522339,0.05156159342706322,-0.012175668942046377,-0.06949011463785186,-0.10556865267837504,-0.0919803175804379,-0.07080435020763325
0.814,-0.05247003717858226,-0.028380805367458975,0.023934563300826116,0.041667144528035015,-0.04045580211289082,-0.002780685329156047,0.06493399437879105,-0.016741644734133906,-0.06405895118682123,-0.10147373529045133,-0.08711256791941437,-0.0687296476222946
0.816,-0.05921176688183102,-0.03158113073733517,0.027397894541839905,0.04655326007408664,-0.04521862949919507,-0.0033653291882849287,0.0767973147663832,-0.018919281674629775,-0.06066292759043371,-0.09607882342188159,-0.08380882736308241,-0.06842129711850341
0.818,-0.05912231813806142,-0.02552627875087907,0.03323860017507678,0.043309502555198644,-0.04679646069765783,0.002101706673836859,0.08442315208733975,-0.01710799330769853,-0.060111886464233044,-0.09116176620791655,-0.07918092193561559,-0.06516495360271349
0.82,-0.0508700352208658,-0.011780406097902076,0.03879469668669067,0.032429905558161776,-0.044671210761369894,0.01169071736135176,0.08657644598675741,-0.014199535761648126,-0.061495579218911765,-0.08923993931497537,-0.07177321762669925,-0.0594155420041253
0.822,-0.03894067169931041,0.0008905587413260473,0.03968180126549828,0.02029827984292411,-0.039881416844480225,0.018674181686814006,0.08472485266211499,-0.012789046262500749,-0.0630755301340181,-0.08960953013652317,-0.06277897332108417,-0.05410055597633457
0.824,-0.02691811455438158,0.007104672971341653,0.03382940609289786,0.011064531581203524,-0.03240467585002968,0.019227504866174545,0.0812652101724955,-0.012134526958635998,-0.06437551300915649,-0.08907305045806602,-0.055925376688029015,-0.05014387915738482
0.826,-0.017246393268047295,0.00910970388133493,0.025992902964141557,0.004946768916075056,-0.02426171374324408,0.01663275155458801,0.07889976971656483,-0.00999082692688921,-0.06500448257872574,-0.08529508611582805,-0.05523946793736478,-0.047276732326521145
0.828,-0.013867253779907033,0.01000513917442685,0.02345448358855993,0.002751339498359314,-0.02062848383017674,0.015998842957956984,0.08137302230150077,-0.004873309133190707,-0.062307519096537645,-0.07833723120645582,-0.05965327300324091,-0.046195647742775944
0.83,-0.01656661165690313,0.009204388810752768,0.025410159369818254,0.004994269339425634,-0.02215962267755098,0.016898122345621425,0.08981176834620402,0.003366122173403902,-0.05365357905223378,-0.07094151338080912,-0.06282904617184247,-0.04713938069987254
0.832,-0.017898240009043005,0.006870437366026077,0.02448020755360622,0.007649082458830938,-0.022555896924082424,0.01574877416211706,0.0993364586328791,0.012647518335250255,-0.04073898409485803,-0.06609447785717541,-0.05994919092501567,-0.04731926968452296
0.834,-0.012902853202086778,0.008176363904466898,0.020891481530535792,0.004736965207938039,-0.018963776767662498,0.014843391912525683,0.10356965762753916,0.018696249377802957,-0.02933281956011737,-0.06328475499202263,-0.05144500146804664,-0.042353168538812436
0.836,-0.007006299379346432,0.020103620502736355,0.026977179942581638,-0.005160995049216317,-0.018991796952108037,0.023598871334193503,0.10032692659085267,0.01770766575637535,-0.025001535679126753,-0.060148222288376275,-0.0409163918341042,-0.0317258036908464
0.838,-0.00963802276307639,0.04380085218152232,0.05321740565845137,-0.01722785611536429,-0.03257372784769507,0.048001899457125206,0.09128136225525064,0.00898529863264281,-0.029867951494697547,-0.057019575182221484,-0.03236200633294121,-0.020887231799292888
0.84,-0.021959251798981654,0.07186709750347987,0.09358317082700263,-0.02570020500480394,-0.05855577241240756,0.0817376772077105,0.07917756520921002,-0.005365981792502382,-0.04215283785153911,-0.05611997314132234,-0.02785604940009571,-0.014679980638205997
0.842,-0.034655617191964985,0.09500977339033916,0.12971749179055936,-0.030045662853292788,-0.08363057304226972,0.11144582503490005,0.06503216040314747,-0.022602910067738558,-0.05741411403522481,-0.058006456638525744,-0.026420000153555386,-0.011201095828006918
0.844,-0.038647515112718064,0.10973355509988375,0.14879375783836338,-0.03405910128831621,-0.0958956312131196,0.12901226812180203,0.04753070474690698,-0.039443540761508876,-0.07029015575182447,-0.06129759659747764,-0.025517246878189372,-0.005797725553074624
0.846,-0.03352092416005013,0.1180334567927576,0.1519491425225445,-0.04010348302601867,-0.09481096704567064,0.1352690611008381,0.02773892364479599,-0.05138433207531996,-0.07644018042791212,-0.06407232180010408,-0.023230872717491732,0.002256275214571675
0.848,-0.023869122895203924,0.1212301049740743,0.1451748478549467,-0.04673146900480477,-0.08581052225655107,0.13320715605455846,0.011186983598876247,-0.056497540240398776,-0.0757527814124789,-0.06593064650663473,-0.02028084088534101,0.009216504700566737
0.85,-0.012381111372500767,0.11733769613780352,0.12966949135998684,-0.05117161712712578,-0.07157622975324893,0.12291336166279446,0.0014986428820919458,-0.05838892797292352,-0.07346822776626354,-0.06905115770944201,-0.02034806614283503,0.01055051853418841
0.852,4.771494771339658e-05,0.10607689713220891,0.10623357309399109,-0.052346407078210797,-0.053516926819047864,0.10559530149684572,-0.003471272109795447,-0.06128009479452735,-0.07453904361342764,-0.07411512073274977,-0.025362104634684746,0.005662416428180986
0.854,0.010561291639203371,0.09330456873604405,0.08320207270300262,-0.05153082935822465,-0.03704169948015215,0.08826644020352725,-0.006945256128016235,-0.06553808797290889,-0.07811172554619351,-0.07774107894341975,-0.031315891714657366,-0.0005729707088781974
0.856,0.016189192346475357,0.08739721308577156,0.07156966197890728,-0.05152944502616573,-0.02861856790589228,0.07966264644942299,-0.009936134146291884,-0.07015478586485954,-0.080620085162593,-0.07826823989512473,-0.03271530602510171,-0.0028920712949615165
0.858,0.018617885278171802,0.09188805664635832,0.07339664722649399,-0.054968103975701295,-0.028497585740830347,0.08229348201310147,-0.014369017423848895,-0.0751414884449536,-0.08158869248564285,-0.07930042476142092,-0.029315013786669123,-0.001172957918743587
0.86,0.02283758122280764,0.10233216209545874,0.07964039519529326,-0.062020793085813736,-0.029869179150617473,0.0902434558350764,-0.02440189829984451,-0.08074349187380343,-0.08372730104271436,-0.0838584632956872,-0.025051025815515125,0.0010384037082483996
0.862,0.03169950976277169,0.1093445010887178,0.07799785639849592,-0.06969568146211101,-0.024666056631335306,0.09328562767930657,-0.04097591526345737,-0.08669904331950579,-0.08931471134911939,-0.09005420651350544,-0.022867667157769184,0.001614343691132251
0.864,0.04254524559552168,0.10446946725600281,0.062363134547018036,-0.0728939416835374,-0.010680242080361285,0.08362718286198714,-0.05753391514870813,-0.09109614289441695,-0.0971732407377614,-0.09407578294530486,-0.023269145094355296,0.0012091516551179223
0.866,0.04846065185863601,0.08720146079727009,0.03913926904506916,-0.06786405857470583,0.004934550625989931,0.06351839647377407,-0.06505270789542361,-0.08988680055491875,-0.10153837380787407,-0.09288896072055462,-0.024976118368239566,0.0014346670694826455
0.868,0.04613885043787107,0.06808649163782611,0.02238539992678518,-0.05771316939343863,0.012572014512405829,0.0453141579625386,-0.06079669862814586,-0.08055288319823632,-0.09605950277064454,-0.08498482984494415,-0.025069383960464316,0.0035833005341716776
0.87,0.042220715046812206,0.05959589200872957,0.018011197027377884,-0.0516235122178608,0.012333362620651277,0.03848212986438734,-0.049363459214996894,-0.06650318387461557,-0.08182853693709866,-0.07303798329670713,-0.02180835808225707,0.007149988437976602
0.872,0.04564021453809628,0.06368459523940742,0.018946256972931036,-0.055073352209812104,0.012817277349427825,0.040535598955800396,-0.035902568555316657,-0.05504653483277482,-0.06765535936961473,-0.06341106338596836,-0.017317529271105445,0.009588134783299288
0.874,0.05523217944074289,0.07223844598964096,0.01806348920713534,-0.06362127335335493,0.017838924236226163,0.04408615863799526,-0.022177412902116167,-0.050507702099176634,-0.05998934552935758,-0.059918868531821864,-0.014712473153026843,0.009427288971952587
0.876,0.06115152149889348,0.07491813344941128,0.014680074674685854,-0.06731535163151528,0.022976357836650807,0.04377706053066847,-0.010004781868572368,-0.051801021911184505,-0.058436511410592855,-0.06188323735596116,-0.01559707057494568,0.007048836426142685
0.878,0.055885019722310664,0.062870428407102,0.007401840511330295,-0.058163826220855065,0.024434874053581922,0.03414445504999455,-0.004086454019457701,-0.05682949630555834,-0.062281232350599194,-0.06877614679109974,-0.021780704705522336,0.0012850466438402404
0.88,0.03954676700632083,0.033176045777701495,-0.006534602805268286,-0.03499447035651363,0.022993900774078358,0.012067179853087223,-0.007644021363936446,-0.06526159582437553,-0.07307781710557427,-0.08085432309096306,-0.03405924629033664,-0.009830381626247393
0.882,0.017659776538572713,-0.003877340439256078,-0.02194633829219149,-0.005686970096231158,0.018953050098465055,-0.01461835789228668,-0.016743395528983285,-0.07503307960439262,-0.08848919612056631,-0.0948479451580906,-0.04815398221487299,-0.023941482676313044
0.884,-0.0022077551384362217,-0.028260523856022454,-0.026334831763251174,0.01619286550703656,0.010368425333876738,-0.02953180815875197,-0.022933791423056547,-0.08083021966411577,-0.1012918224856212,-0.10496167161404142,-0.05737001515545988,-0.035566932261835014
0.886,-0.013808245686775467,-0.028257268350281407,-0.014559384406417705,0.021908012732055834,-0.0017270210970218444,-0.024033687015461835,-0.02173811792613371,-0.08015656767361103,-0.10734167768276397,-0.10949989412557384,-0.060740249806572506,-0.04299367385238319
0.888,-0.01682414486045173,-0.01324573210829157,0.003543341439692694,0.016266996455304855,-0.01204464274489057,-0.007318272638690455,-0.015807837350347683,-0.07718062336838433,-0.109252363580692,-0.1125200695411984,-0.06450182178211278,-0.049260713186221154
0.89,-0.01743593113752859,-0.003940148760097903,0.013591127743556744,0.012683784430784637,-0.01680387304985041,0.0030351158585633655,-0.01048691309373519,-0.0776886617990984,-0.11166970812621926,-0.11819360207520277,-0.07451771316003267,-0.057394474946366895
0.892,-0.02135134259187658,-0.011066733681707264,0.010638152066519515,0.01881142839609433,-0.01685529476410623,-0.001622549924895134,-0.008194549062401057,-0.08334233254741766,-0.11643796229062167,-0.12610507237973995,-0.08914582018286912,-0.06773328920202382
0.894,-0.027257940197263648,-0.02831775481299213,-0.0004796761483964229,0.030377662082812864,-0.014022303235996084,-0.016319867546869492,-0.00707641567967365,-0.09179661458296196,-0.12173445011274667,-0.1329910059239288,-0.1003629658558213,-0.07753999488731578
0.896,-0.0291649723187946,-0.04412769880834849,-0.014366811963213447,0.03862415358588955,-0.007950028957219612,-0.031960026239057186,-0.005371023768853948,-0.10007693691727913,-0.12507391832985054,-0.13748903781383806,-0.10219521901515075,-0.08262570618883204
0.898,-0.025541970311198522,-0.052777296736155124,-0.02684618869893484,0.04014072848117866,-5.457018063020227e-05,-0.0424017504791257,-0.005076768852927507,-0.10703330293125998,-0.12732450190289885,-0.14072478221466359,-0.09708697299046895,-0.08221275280137129
0.9,-0.023175343583457495,-0.055467027920293344,-0.03219297696327005,0.03932593187802838,0.0035163884420730714,-0.045135866825729926,-0.008733580736749607,-0.1128553295600651,-0.13176061506436032,-0.14357145962684162,-0.09289240951304663,-0.08079101947849636
0.902,-0.027370090510020647,-0.057804172570387384,-0.03052411788438458,0.042196779685977834,0.0003672918814566474,-0.044272606614761394,-0.014805328900968164,-0.11697070458734934,-0.13897328086241087,-0.1463709874190743,-0.09401797674717849,-0.08231927579308379
0.904,-0.03088058771663403,-0.06529966484143415,-0.034513281642323666,0.04803184930047549,0.00034077458810337206,-0.050328986222970315,-0.019133016430368965,-0.11809588566894288,-0.14560889644903593,-0.14948855045700205,-0.09702932147426406,-0.08556056617039226
0.906,-0.020418104251293773,-0.07702737406068255,-0.05663475990407008,0.04930057398268666,0.016347646600901704,-0.06874918050746441,-0.019700389691371806,-0.11654675088377235,-0.1484015475154409,-0.15248971184395924,-0.09701259007512215,-0.08815820932133056
0.908,0.005069161383594333,-0.08463959108621942,-0.08979320116468809,0.04081952158263847,0.045890716457832575,-0.08991524788268071,-0.017213074681046946,-0.11365131122410665,-0.14635181350591306,-0.15428745081495562,-0.09510458201712925,-0.09038931405902632
0.91,0.02946374339440255,-0.08029201478876109,-0.11005881632233869,0.026461901079178226,0.06911634808654747,-0.09685660851368282,-0.01195704141094729,-0.10881752305979235,-0.13945335832032849,-0.1538420814304119,-0.09489014089447755,-0.09156315047887861
0.912,0.03567564087851684,-0.06551797738042663,-0.10162977524316673,0.015599453445782351,0.06883399763215624,-0.08346199957137061,-0.003960811699032195,-0.10191892126687893,-0.12969961983425607,-0.15107093611557937,-0.09612066144325146,-0.08901355491889314
0.914,0.022164752866987682,-0.050751354641106666,-0.07321322355479402,0.014758658894189614,0.0477614945503004,-0.06099229000188025,0.004184671421377996,-0.09779816430495786,-0.1224884983393317,-0.14807326066462437,-0.09657728911143303,-0.08342298452453474
0.916,0.00012211276953401698,-0.04709831128361056,-0.04730611487520015,0.024416128217586645,0.02272141998633354,-0.046641004104856686,0.008123937626461433,-0.10207417594528691,-0.12249785761437779,-0.14758984016789833,-0.09578241961318078,-0.07955709474602106
0.918,-0.02175960969051897,-0.05901505999765584,-0.037296009670481106,0.04203695502626695,0.0055932895319412805,-0.048454716279899175,0.0055090725665959414,-0.11276910410526678,-0.12869893819527664,-0.14947069805923643,-0.09459350258210748,-0.08010189816297433
0.92,-0.0422771070221945,-0.08073365325403685,-0.03848278179341761,0.0631111137291242,-0.00440017334685497,-0.06041654618043628,-0.00198694232444107,-0.12153224731517899,-0.13607001026380688,-0.1508298985965709,-0.09355320385650384,-0.08264988981840664
0.922,-0.05854976260570099,-0.09923635381110014,-0.040590175884632936,0.07961102810035298,-0.01069390293378168,-0.07085882954958567,-0.010288454549476697,-0.12375855253949511,-0.1416094034693134,-0.15078182290748368,-0.09323229567295473,-0.08447502096957303
0.924,-0.06424705199694371,-0.10574615117121813,-0.04140998008730198,0.08512947495801775,-0.012112096307761975,-0.07470115603011791,-0.01592522365831232,-0.12234488691411242,-0.14604219260000806,-0.15191262214404405,-0.09496748476808285,-0.08744082175209857
0.926,-0.0599539677539309,-0.10412868832660553,-0.04438485259520766,0.08263355515719353,-0.008522403001270492,-0.07575739794382769,-0.017052919530334273,-0.12026096538918785,-0.1494996285550474,-0.15502972484426247,-0.09892691361331746,-0.09475347330123017
0.928,-0.052717000076665785,-0.10424518647466995,-0.05202364887783948,0.07990834954299915,-0.0022877047473503507,-0.07992803147906935,-0.013761836119299682,-0.11640954266566259,-0.14973875306799544,-0.15739986400111042,-0.10276216483685058,-0.10377683961501155
0.93,-0.04411567219161121,-0.10949019013652633,-0.0658540505667251,0.07832418107629271,0.00785829675493525,-0.08950067310511906,-0.009334173543942658,-0.11098725558831139,-0.14644891102186763,-0.15803476373060132,-0.10447658622131058,-0.1068471310038933
0.932,-0.031913426135367295,-0.1154669312696092,-0.08387483748210225,0.07451494051854145,0.022910848360075807,-0.10133233483521713,-0.008517889632135612,-0.10822384197306809,-0.14344111317711283,-0.1592951233677714,-0.10494887802348361,-0.1015826807115651
0.934,-0.02116334365744175,-0.11786263547543219,-0.09693537467612424,0.06983588346529258,0.03525277590613503,-0.10873755184442607,-0.012118135230796329,-0.11148374875110022,-0.1441193670060248,-0.1629139955990381,-0.10570534885628442,-0.09558567251293529
0.936,-0.020347851742668115,-0.11639801080669882,-0.09621210615994666,0.06881729065511138,0.03547351455529183,-0.10753917321702568,-0.015676870958739264,-0.11876824306674495,-0.14691885040043454,-0.16746325685283117,-0.1058326189575759,-0.09629759043537182
0.938,-0.02885014651104764,-0.11303285753665078,-0.08423267451435443,0.07150475586062488,0.025204719927057213,-0.10048499766745343,-0.01548794218499529,-0.123908371419241,-0.14763068768346366,-0.16886458889352793,-0.10328185669337472,-0.10089471238849894
0.94,-0.036093384204896196,-0.10929166409059445,-0.07326038904889233,0.07297467448882992,0.016216148279529382,-0.09416104138246702,-0.013377660310256303,-0.12239739080186329,-0.14583606057969925,-0.1645572251150012,-0.09849030217991497,-0.10149811376420362
0.942,-0.032709096280377166,-0.1049144754772876,-0.07247726099610322,0.06879604621213614,0.017668668263572815,-0.09211089060396783,-0.013544845048787172,-0.11634920969413938,-0.1459923415897036,-0.1584530621023195,-0.09477550484353996,-0.0961725648541467
