time,I,II,III,aVR,aVL,aVF,V1,V2,V3,V4,V5,V6
0.0,0.0008556452068501026,0.0008556452068501026,0.0,-0.0008556452068501026,0.00043879241376928345,0.00043879241376928345,-0.001294437620619386,0.001294437620619386,0.0010750414137347445,0.009214640689154951,0.011342783895935977,-0.025691295826191545
0.002,0.005976960059278327,0.005976960059278327,0.0,-0.005976960059278327,0.0030651077227068346,0.0030651077227068346,-0.00904206778198516,0.00904206778198516,0.007509513920631745,0.06436726217684352,0.07923303463197166,-0.17946205716448516
0.004,0.01874630339719221,0.01874630339719221,0.0,-0.01874630339719221,0.00961348892163703,0.00961348892163703,-0.028359792318829236,0.028359792318829236,0.023553047858010726,0.20188326735437762,0.24850868862431721,-0.5628697763618481
0.006,0.0352279068359417,0.0352279068359417,0.0,-0.0352279068359417,0.018065593249200873,0.018065593249200873,-0.05329350008514257,0.05329350008514257,0.044260703460542145,0.3793774582332183,0.46699558549184256,-1.057740484740711
0.008,0.04519399301933535,0.04519399301933535,0.0,-0.04519399301933535,0.02317640667658223,0.02317640667658223,-0.06837039969591757,0.06856785628211375,0.057001592564511115,0.4867045402082269,0.5991101125896507,-1.3569786109138897
0.01,0.04419272807396644,0.04419272807396644,0.0,-0.04419272807396644,0.022662937473828935,0.022662937473828935,-0.06685566554779536,0.06823496402301342,0.05705675067223432,0.4759216869504079,0.5858369336984782,-1.3269149890926846
0.012,0.03850666041349543,0.03850666041349543,0.0,-0.03850666041349543,0.01974700534025406,0.01974700534025406,-0.05825366575374947,0.06257973576848612,0.05318690754444096,0.4146871121453353,0.5104600880455675,-1.1561871626718752
0.014,0.03604124771504096,0.03604124771504096,0.0,-0.03604124771504096,0.01848269113591844,0.01848269113591844,-0.0545239388509594,0.06265345581309978,0.05431538990760061,0.3881365138542871,0.47777756586349157,-1.0821615660080244
0.016,0.03762091839442562,0.0380597108081949,0.00043879241376928345,-0.03784031460131026,0.019076195228806506,0.019712444228771966,-0.05702620793355909,0.06767498714490572,0.059328619295364274,0.4075110803218026,0.5018461307934845,-1.1359603063093797
0.018,0.03850807531833297,0.0415731830410398,0.0030651077227068346,-0.040040629179686385,0.01823482519755264,0.022679231395477548,-0.059041731307915714,0.07077260703249215,0.0630182243866103,0.4312067757812379,0.5323275611920676,-1.200713004328717
0.02,0.035318169115091634,0.04493165803672867,0.00961348892163703,-0.04012491357591016,0.01336676206564923,0.027306321002022925,-0.05589504787196862,0.06958794473590148,0.06461292563921234,0.4321144538944171,0.536719060326089,-1.1999695067543297
0.022,0.02993749055340973,0.048003083802610605,0.018065593249200873,-0.038970287178010175,0.006435567718489172,0.03263067792983044,-0.04992225320879956,0.06727226084456331,0.06633353103580468,0.41968001576318653,0.5256389112664276,-1.161075056848474
0.024,0.02658720999605795,0.04996107325883636,0.02337386326277841,-0.038263171817102926,0.0020766936167275216,0.03601157760809872,-0.04624366520641834,0.0670030412510888,0.06856349131698303,0.4134437480382218,0.5204941059277882,-1.1403843574334223
0.026,0.026006116774911173,0.05004835272395819,0.024042235949047013,-0.037950607056367,0.0013250553343229356,0.036485145463405026,-0.0457076736898239,0.06934439534475745,0.07064199385693556,0.41833035679722724,0.52611092058036,-1.149788493014231
0.028,0.025007387853437577,0.04908046320842831,0.02407307535499072,-0.036803588307892,0.0004891351433762081,0.036332409577972374,-0.044632847016740994,0.0733794340490997,0.07324136358536526,0.4265548758118272,0.5344238009335546,-1.1630145501446434
0.03,0.02188245090203178,0.04849465900009061,0.026612208098058827,-0.03473691511983118,-0.002764910652369318,0.037584186431613084,-0.04110907556374168,0.0774091575758272,0.07666065455767504,0.43085750776970916,0.5386321689723528,-1.1612350356500505
0.032,0.018963774233881098,0.0487106882947227,0.029724974440153144,-0.03321394185601042,-0.006028347504503522,0.039272231127792046,-0.03783101840543582,0.07967504562899909,0.07916988701392925,0.43051600558306474,0.5385071744806758,-1.1511094842248848
0.034,0.019123175298913546,0.04913243350373563,0.029877942439375218,-0.03330956924392934,-0.005924655946805969,0.03920409637866499,-0.038074363559533995,0.08059537339086031,0.07933016546578325,0.42875099657493043,0.5376926832561887,-1.1464995693977216
0.036,0.02255549946811094,0.04921985780965583,0.02633693928159839,-0.034760944026830526,-0.0020619845085296587,0.036792326095752656,-0.042013653611906926,0.08262425565111306,0.07809999832899506,0.4281475816623779,0.5395102042805939,-1.149766202653203
0.038,0.027623457887470525,0.0490329656396552,0.02098690253580648,-0.036932981861832255,0.003586640484998851,0.033348143867447506,-0.047623415460806576,0.08639399591806834,0.07735043147076587,0.428754272832274,0.5444142193756668,-1.1539089776433336
0.04,0.032806562819181206,0.04900570723757981,0.015943603747029526,-0.039488164576806636,0.008938144360909422,0.030567557185078437,-0.05280485668384237,0.0893786502392572,0.07785075991872077,0.42934419880075075,0.5502944363308477,-1.1539148343541064
0.042,0.03708389684315779,0.0498083696670163,0.012750146283996167,-0.0421787464879747,0.012457950625146978,0.029728183157579753,-0.05566036525210553,0.08957482929684737,0.07970585484612233,0.42929386731317787,0.5547366904320645,-1.1504496771738122
0.044,0.03958435244770153,0.05228185372356744,0.012843297882544654,-0.04477556919724989,0.013017198470783647,0.03175233018125429,-0.054721437021198006,0.08810281751287372,0.08308939957345185,0.4289513722486636,0.5567162634622966,-1.146021237680201
0.046,0.04001863709269429,0.056691049202632814,0.016735627820155315,-0.047231339524067856,0.010636368599182353,0.03658805537149381,-0.05090233014845601,0.08721829261229691,0.08707344461003036,0.42881660157797574,0.5567241324490131,-1.142416893176846
0.048,0.03947406122114145,0.06181186928785081,0.022291678146548616,-0.04965727242290096,0.00736780442721475,0.04228946146261169,-0.04787619684145939,0.08756673554014843,0.08934391180267466,0.42893915636127333,0.5562510373398726,-1.1410077145209163
0.05,0.0401604926051131,0.06507523476829896,0.02485832384066339,-0.05203451099571621,0.006789638267031509,0.04524864352208553,-0.048869461668818455,0.08821454740132503,0.08836907909771644,0.4290710734755266,0.5574308337158682,-1.1426811980429847
0.052,0.04349915396804281,0.0644123100150412,0.02091099490863366,-0.05391148575606344,0.011203126185326555,0.04271016421855895,-0.05365011147645806,0.08833762401789161,0.0846263182038524,0.4290671414687451,0.5623973982067191,-1.1469571037184734
0.054,0.04808378930270886,0.060758949809994654,0.01270476631236014,-0.054687866252513775,0.01830426903525249,0.036382401395296804,-0.05883208267969247,0.08804439373885739,0.07950810966137142,0.42899327354189515,0.5716631361983269,-1.151540850338685
0.056,0.05066771198744555,0.057865898035716075,0.007213504439487567,-0.054411107333880326,0.02254235874910228,0.031867192559720654,-0.06105649253216404,0.08783719771321369,0.07445419538260953,0.42896014418214273,0.5833756984773896,-1.153643140086734
0.058,0.049517653282539244,0.05880173469789487,0.009275260541855665,-0.05387057522321334,0.020657863124613183,0.03321262144631954,-0.06012373209998695,0.08789806724580479,0.0713915397649247,0.42898463404668563,0.5955735977594052,-1.152262029283678
0.06,0.045520847518326246,0.06321475112329557,0.01768133753955246,-0.05361588270653966,0.01406805116177301,0.03954863740388573,-0.0585202604741766,0.08804014476978808,0.07216199753899627,0.42901441112220773,0.6082005946118514,-1.1484131866052039
0.062,0.04037680199288166,0.06790711470507824,0.02752912417645735,-0.0531707423266831,0.006358761015054603,0.04681241570496983,-0.05818590195800252,0.0880747909220218,0.07601367776077526,0.4290152691968624,0.6213097729186969,-1.143464516185973
0.064,0.03544905143557154,0.06986230851810254,0.03441954605450476,-0.05182355571117981,0.0004408236572846668,0.05138249976771612,-0.058868704988819645,0.08779441758777785,0.0793666950701529,0.42899942888871384,0.6328824058748475,-1.138110649149425
0.066,0.032460726948623175,0.06898499249425799,0.036527917802460765,-0.050339716104785125,-0.0020362436106495523,0.052375611704238594,-0.059376334986933794,0.08643322983569432,0.0797201507978508,0.4289913944259393,0.6397806513309121,-1.1323956596237559
0.068,0.03319784526144612,0.06754938508361852,0.034349852311344874,-0.050588340195022674,-0.0005422007978231222,0.05113050152762971,-0.059250128660726396,0.08316937399320071,0.07817106459157647,0.4289962011710788,0.6403128876942024,-1.1265296090163863
0.07,0.03699304283053034,0.06727270535327827,0.03027686339760066,-0.052791755323711956,0.003374317006070481,0.04941760938472211,-0.05891433253105194,0.0789744689843096,0.07717646895380531,0.42900288173523093,0.636376057812114,-1.1219012894179865
0.072,0.040337276429561274,0.06811409619879648,0.027776403681885126,-0.05495035550914552,0.006269968855078498,0.04868048990216399,-0.05902028378244029,0.07642829979809918,0.0772928582341941,0.4288059929990002,0.6325397180727446,-1.1201782529538429
0.074,0.04071736013251295,0.06987445706966652,0.029158425738082784,-0.055835505827312226,0.005765871938661271,0.050069589850302416,-0.06034147801045087,0.07667244902709022,0.07667912043297072,0.42762077660568676,0.6313948141742414,-1.1210770010900282
0.076,0.03918578608163293,0.07302636816700374,0.033841443859917934,-0.05650944909426699,0.002671451196568311,0.05383792051767724,-0.0634046795755548,0.07811936251755205,0.07355899637255173,0.42467208332886397,0.6309644679003442,-1.1224400784481712
0.078,0.03818502364171772,0.0769513252051675,0.038765988035890306,-0.05800033002512718,-0.0002834191582689891,0.05828373625521312,-0.06718769295820796,0.07875310844142665,0.06902646814590743,0.42086956000016457,0.6279840792297977,-1.1226906307095088
0.08,0.038508306753160505,0.07921026109398908,0.04070133429248514,-0.059378649386289874,-0.001092759522643655,0.060471444961807064,-0.06941426952152284,0.07829859979618806,0.06604328425275813,0.41857118386562275,0.6220056568709941,-1.121899263068047
0.082,0.0392051201687623,0.07776769608830897,0.03856245084989727,-0.059032355541060816,0.00031927073466078606,0.0587131090824381,-0.06915935551155879,0.07773679305456686,0.06517525432527196,0.4188024526281741,0.6150080179905825,-1.1202955436141468
0.084,0.039364764570988864,0.0731383573020375,0.03377387136579991,-0.05676295045735013,0.0027924126439185038,0.05397052973410341,-0.06787578827427282,0.07771261104443324,0.06383932843104267,0.42011390818217853,0.6088694692770621,-1.1174668660025515
0.086,0.03906237519394714,0.06825977484046832,0.02919760099116048,-0.05414148698895394,0.004932064831768666,0.04920940505005563,-0.06733352548832251,0.07800614432068552,0.06070990845879711,0.42068239526967827,0.6048001591074319,-1.1139486644233212
0.088,0.03905035886190466,0.06631923042774503,0.02726881568158322,-0.05314729794699972,0.005892273475631612,0.04727696032983222,-0.06796522509888503,0.07794012890624205,0.05766592431243809,0.4201577004793053,0.6037087347915555,-1.1119181571032868
0.09,0.040417842103629135,0.06843298135455075,0.02801500267907406,-0.054775414198794184,0.00620231292997638,0.04872636419366823,-0.06977021962764553,0.0765402343858938,0.055966504513885074,0.4188839890110523,0.6058126845057952,-1.1132099554811774
0.092,0.04384419378439127,0.07321296783983366,0.02936873931858982,-0.05855795012597806,0.007237334241154305,0.05180129598494238,-0.0730578163715205,0.07314097873541481,0.05399210080863412,0.41646123014698844,0.6101739661556875,-1.1173718739840741
0.094,0.04811327433420774,0.07779873359502099,0.029685517199031477,-0.06255574319926993,0.00921320339844221,0.05424581804991281,-0.07702322159883619,0.06890252247363171,0.05066445565738748,0.41221113417680333,0.6145778186707013,-1.1217640023370699
0.096,0.050386807615435146,0.07951723244701203,0.029130471462753774,-0.064311100253105,0.01062806004516136,0.05481991716043929,-0.07944683413139694,0.06640943266622162,0.047638588112787476,0.4064450936086723,0.6164357662746779,-1.1239304613025456
0.098,0.04876359468015152,0.07745703210698857,0.02869342808220471,-0.06262684525183906,0.010035400154204531,0.053571335560212256,-0.07926921930234361,0.06670269931762104,0.04597317647346915,0.40015312167820577,0.6145390086528952,-1.1245238069565278
0.1,0.04404006459295551,0.07282373096659124,0.028783636462407034,-0.05842571779461258,0.007628424368035264,0.05130397081019401,-0.0779209064982506,0.06814410740280173,0.04399966470276726,0.39423253022314464,0.6099071007420552,-1.1264414257956497
0.102,0.039215073802843434,0.0682788064739883,0.02906372348348746,-0.05422827394242974,0.00507560269641439,0.04917352744613018,-0.07729794875446867,0.06874841955614451,0.04066162301132534,0.38989152462722926,0.6052737634789723,-1.1303426944325439
0.104,0.03713212537005681,0.06608292224375513,0.028950808808424815,-0.05228588470138806,0.004101478711555772,0.0479958499038773,-0.07770380994975079,0.06828285629977726,0.037633535535970326,0.3883354667278602,0.6030130640234233,-1.13345410397323
0.106,0.03794024528253419,0.06559692446327348,0.027656689895337233,-0.05229759693882612,0.005218373579668569,0.04697275846292885,-0.07823649545317148,0.06773183195805815,0.035972829390313196,0.38915736735312595,0.6024235448254218,-1.133639330646271
0.108,0.03940761999746764,0.06401784218322348,0.024610220790576183,-0.0519300836059826,0.0076391031536602325,0.04433247385552915,-0.0782733155231395,0.06771883295075279,0.034002383068324885,0.39039268272629274,0.6005537115454669,-1.132092589066095
0.11,0.03974487448143594,0.06056530505186918,0.02082042405681312,-0.05012840615938354,0.00991391408285549,0.04028959597326307,-0.07800171061775639,0.06801182362826366,0.030663087479858037,0.3906241457905441,0.5966809103803384,-1.131178195278287
0.112,0.03891820637598126,0.05791653763623819,0.01899832891037727,-0.04833575058119657,0.010528366316950038,0.03782103982810438,-0.07785190700526105,0.06815884242094616,0.02785212310262629,0.38989337365153076,0.593779648481716,-1.1315531425485976
0.114,0.03713188815524646,0.05887792078679987,0.021746035063756546,-0.048049094779545574,0.008182839426817242,0.03983231313619854,-0.07792838571233521,0.06806936282530812,0.027504192238034426,0.3883290122261632,0.5948877190121563,-1.1322299304744572
0.116,0.03395915558190926,0.0632154145536403,0.02925626141586861,-0.04885731823663623,0.0026047762666659806,0.046229004533947175,-0.07804659877347749,0.06794645958822229,0.028809001200789285,0.38548606588741735,0.5997038185643261,-1.1323523905510464
0.118,0.030038273482102754,0.06787022277143877,0.03783194912948003,-0.04943637842220475,-0.0038863966109830826,0.05333003204881392,-0.07806132810797176,0.06793658486250861,0.029696474896714526,0.38193957063095213,0.6048526443290915,-1.1320430532051504
0.12,0.027375793776100076,0.06973723836262305,0.042383382797032604,-0.049068690871060444,-0.007663879963364099,0.056748857402208336,-0.07800386115213646,0.06780147359702646,0.029243221232710323,0.3794864828262231,0.6068203461922547,-1.1316091030297086
0.122,0.02632751136681096,0.0681440953570955,0.041947899169389895,-0.047369437232417634,-0.008268345141794751,0.05564159581467193,-0.07796837676740578,0.0666547969928734,0.02745620786042028,0.37829598631245276,0.6045722830168612,-1.1303620900343627
0.124,0.02473061487730581,0.06443773967601196,0.040034544348151326,-0.04388018156386188,-0.008744959013335845,0.05261807539196719,-0.07798278844004632,0.06369079912343158,0.02435616818155515,0.37624613682750774,0.5997133896640607,-1.1272365120402779
0.126,0.02157491342670633,0.05995724342171204,0.03880493576517552,-0.03915716870579604,-0.010413903956531656,0.04956561803090551,-0.0780090364588025,0.059859933863053,0.02080826098156314,0.3726062244684148,0.5951632296321334,-1.1230453488204266
0.128,0.019077629155397523,0.05530974610279979,0.0364876576161617,-0.035208088291164376,-0.010713053643144257,0.04592239238400723,-0.07801370902318168,0.05755637228388162,0.01871406426203895,0.36969178300110056,0.5931756956319874,-1.1206449108251746
0.13,0.019949566820239597,0.051117479614864354,0.03114223903102358,-0.033985233173600124,-0.007018952037985679,0.04100775914702011,-0.07800161674822899,0.05780063103878862,0.018904095227549024,0.36945817726378577,0.5931876545739689,-1.1221649924049624
0.132,0.024161737341697916,0.04844246499098639,0.024134930899083064,-0.035718595504708586,-0.0002857265582824367,0.03600534671540829,-0.07799329090932781,0.05912112112140718,0.020084496663230166,0.3708743824665909,0.5922463531149921,-1.1269085162670163
0.134,0.02880549629072693,0.0478918843816217,0.019023172477728903,-0.03856465458341315,0.005558224194644412,0.033004969428440514,-0.0779959130753788,0.059686834646562416,0.020612889478637646,0.3717528265444143,0.5883576526015154,-1.1317993375396984
0.136,0.030845314934971124,0.04847180817720708,0.017672623287079376,-0.0400330462284649,0.007517343304782149,0.03251444591582117,-0.07778231296248418,0.05946303938817584,0.02003085566278871,0.37143193637479416,0.5825454682822918,-1.133902818846806
0.138,0.030032678340215415,0.047862595109152424,0.017886335098051792,-0.03903061709158254,0.0067118778256312316,0.032318936132867446,-0.07647049286180273,0.06013597253237208,0.0182571502829853,0.3708005848450523,0.5774757381796927,-1.133068581332949
0.14,0.028581217724428197,0.04454102645129864,0.015961969800341768,-0.03640905783926126,0.006658292615136215,0.029751545237496003,-0.07319377808737414,0.06306606686176484,0.014957395267952162,0.3706703275255676,0.57500971537168,-1.1315775261928402
0.142,0.028261765618002862,0.03992265264562939,0.011631281187957952,-0.03397567088566335,0.008669999084487984,0.025305936943236684,-0.0689657903051188,0.06713791482959885,0.010969107807823595,0.37095114517235184,0.5750349505020845,-1.1312432136384472
0.144,0.028872088829681404,0.03720373726178578,0.008316330059777076,-0.03306403600791566,0.010789702018443058,0.022274034964238396,-0.0666302327420889,0.0693776073382555,0.008321804453942667,0.3709369356291691,0.5757758364952231,-1.131864813723418
0.146,0.029337083913709216,0.03759386995586682,0.008265606943559222,-0.033540949818611714,0.011119800122550963,0.022420862171006563,-0.06820139766083451,0.06788397473583643,0.007196697645193805,0.369568722836204,0.5749296348871534,-1.1323432127348103
0.148,0.029229666831844907,0.039204128915550106,0.009987028152140847,-0.03423863676229456,0.010154903185890775,0.024083759423740806,-0.07293391503861467,0.06351161613955773,0.005278148312951382,0.36615632853157554,0.5714071570432425,-1.132236437650994
0.15,0.028925956272098746,0.039836340095396466,0.010911572345252307,-0.03435040368110131,0.00947742861875477,0.02487314431758203,-0.07779160207832753,0.0591291088950762,0.0016728591843682074,0.36189430746898216,0.566822146370637,-1.1319258691274285
0.152,0.028642063934819603,0.03929208040596962,0.010665667111633019,-0.03392958150836354,0.009444723988331492,0.02448492426010947,-0.07966586709098003,0.05730146519949467,-0.0012934563502812414,0.35939713201903895,0.5642287902553944,-1.1316164123691133
0.154,0.027584505493977708,0.03868827008647453,0.011253367725396887,-0.033063872288855746,0.008589662478134825,0.024474149322908704,-0.0775318634271787,0.058073062223973404,-0.0015706205701568406,0.35970130699763747,0.5646606839752838,-1.1304295302043519
0.156,0.02474420677781071,0.03869299810379271,0.0144311532890987,-0.0314946995489048,0.005434269075659505,0.02606036515933648,-0.07277837323338826,0.05938920004581822,-0.0001472995130863174,0.36115015510861675,0.5662223698965145,-1.1272647352354637
0.158,0.020923793556857508,0.039023256863208865,0.01900554209496411,-0.02952748991317641,0.0010157262255327286,0.028511765499752796,-0.06821631554512092,0.05966641070580087,0.0007581635581715907,0.3617520680915824,0.5668085908183431,-1.123022025888912
0.16,0.01875518372302409,0.038959005409695296,0.02134111848425469,-0.028282362577431008,-0.001367338326363252,0.02967167703336819,-0.06627528498623982,0.059109750465781784,0.00022689730223322892,0.3610619024580967,0.5660494751628519,-1.1206183685257576
0.162,0.02014572752248007,0.03753991182307885,0.0183727469852883,-0.02834681031944669,0.0008892149870898503,0.027610867168225414,-0.06700789194854856,0.0586934367689894,-0.001728029457251527,0.35919654299397874,0.5641597737951932,-1.1221650422658065
0.164,0.024430115510406754,0.03413052328964677,0.010206221826284886,-0.029027518726962666,0.00735834448883959,0.02214983661774851,-0.06836181833227314,0.05879482169318646,-0.005142368996316262,0.3559116320927689,0.5609008574814573,-1.126923024843584
0.166,0.028826860275563974,0.02989770444097371,0.0010920125886781599,-0.02935542058008701,0.014360869990567097,0.015897815511376506,-0.06868609234013676,0.059069084831803766,-0.009086643230375438,0.3519803016127579,0.5569952215177109,-1.131806240416917
0.168,0.030709303857900477,0.027412837104371472,-0.0034844025617629367,-0.02915675837837344,0.017693125683001135,0.012622452573228428,-0.06835391873007057,0.05934220349868456,-0.011211611215831693,0.34957149697235446,0.5543870462823001,-1.1338981983682324
0.17,0.02995610971130025,0.027706954777347467,-0.002355493939124054,-0.028883491888356788,0.016707872651476906,0.013308773937064646,-0.06922760280961905,0.060410685981456366,-0.009694501381432236,0.34973760827959804,0.5533563796912485,-1.1330626072778962
0.172,0.028618856644561496,0.02914428216065645,0.0005666405517232207,-0.028859445349693227,0.014503718083290823,0.015343081520612093,-0.07258894436212567,0.0632620820405071,-0.005102658514325257,0.3510723522297463,0.5517382626425377,-1.1315771941599901
0.174,0.028321517710664806,0.029746180725836655,0.0014995652466224154,-0.028996333970660523,0.013873273296496269,0.016047192864363975,-0.0770949494131057,0.06708183444948385,-0.00028266627414287853,0.3516951064347965,0.5485628122242459,-1.1312463152226102
0.176,0.028880086792687706,0.02928169154233319,0.0004153158988004237,-0.02907483056873088,0.01472638231158701,0.015318709427778217,-0.07973650246047648,0.0694415291512726,0.0018697502147427547,0.35109909535889544,0.5456508226493868,-1.1318664764079807
0.178,0.029308296717058622,0.028732497388078496,-0.0006096049414785007,-0.029037715536364608,0.015476398231124663,0.014587999816945165,-0.07936833038301955,0.06923014438072038,0.0010975367398520844,0.34938816881275936,0.5440395639802088,-1.132342314317226
0.18,0.02921155236375734,0.028719786431901668,-0.0005152684525039117,-0.02897718428022643,0.015374956601166922,0.014631073283783949,-0.07781019219230004,0.06789472364686197,-0.0003905973348979749,0.34640230973500863,0.5420352382632891,-1.1322351011518093
0.182,0.028933013761525773,0.02901191592240907,8.610130599966104e-05,-0.0289685255174293,0.014919461505307399,0.015048303098129795,-0.07719100046851618,0.0673039387219308,-0.0007573621638432358,0.3428674196043221,0.5386451899677869,-1.131925721029636
0.184,0.0288527770180422,0.029158366168787756,0.0003218290222700101,-0.028997418370444197,0.014757277226889262,0.015224060430770642,-0.07771314963640787,0.06772136322449446,-0.0003722532206802602,0.3407171386648279,0.5357155428072006,-1.1320558634020315
0.186,0.028966284535880443,0.029069084974123076,0.00010662315529746919,-0.029015942907258053,0.014928098273560718,0.015080584511529199,-0.0782993195151984,0.06824212586128779,-0.0011974673843017194,0.3408732801390417,0.5346246290422044,-1.1334950333400573
0.188,0.029064227262960114,0.028946586773184433,-0.00012467576075870962,-0.0290090237868048,0.015098096550533565,0.014916233812545733,-0.07829822580411237,0.06826655379014958,-0.004564545017552117,0.342068100464622,0.5335424821697232,-1.136878053604181
0.19,0.02904906723100573,0.028936797242882936,-0.00011771539331621504,-0.02899560978501987,0.015086077216785428,0.014916028136992247,-0.07797932437492952,0.06799538598656027,-0.009099740662915946,0.3426218743756085,0.5299088371408692,-1.1410873218866036
0.192,0.028988384685085963,0.02921835842680762,0.0002312122734701182,-0.029102676622478993,0.014877879836319318,0.01520306363496435,-0.07782762005432523,0.06785255161941016,-0.011752106282189277,0.3420440950955184,0.5237599685932864,-1.143575330086557
0.194,0.02896767536379893,0.030566548731005692,0.001602436575007152,-0.029765318942389873,0.014180816266549937,0.016427801192314774,-0.0779290016783053,0.06793213947864038,-0.0113731689005324,0.34025857086758726,0.5170706998883092,-1.1432955647337923
0.196,0.02899089922951189,0.033823548064487764,0.004833674867190873,-0.03140674643090121,0.01257813641851081,0.019346176901111664,-0.07806014695659828,0.06804804121273834,-0.009803987959277286,0.3369508487452457,0.5114420561034868,-1.1418633787387429
0.198,0.02901329337614091,0.03802227104584135,0.009007523222759146,-0.03351853281093199,0.010503641840572502,0.023112651899494987,-0.0780674633119038,0.06805996973730799,-0.009185396496888626,0.3329652055856322,0.5077936821658939,-1.1412561035809494
0.2,0.0289016180120244,0.040574005661103536,0.011671132999380107,-0.034683581738675355,0.009115863611209455,0.025410354578376062,-0.0778896999964062,0.06822182160049628,-0.009494462461550002,0.3307623055439488,0.5066414785976141,-1.1416055207316025
0.202,0.028231873737124925,0.04044012933169368,0.012208450033365372,-0.034007598145852753,0.00845674648887465,0.025308134642345388,-0.07708692181086252,0.06950098606141973,-0.008770162544552625,0.3323525095418415,0.5073613767760841,-1.1413888052052168
0.204,0.02650181047237557,0.039756730141348305,0.013255697235636514,-0.03229936062821451,0.0067724330757800615,0.024882264578228865,-0.07461550077352846,0.07279034285063489,-0.00549271694895778,0.3375051333380338,0.5083335670959442,-1.139001252028531
0.206,0.02375851958863486,0.041415025081146084,0.01765677079097262,-0.03139865740302055,0.0025789463979353313,0.027258060775347863,-0.06960317296438402,0.07704218969820431,-0.0009452641807561023,0.34376946746424647,0.5084874259492737,-1.1341062499236283
0.208,0.020629345443990546,0.0454009863970729,0.02479328295846701,-0.03180784187160893,-0.0031080308315696676,0.032832781846586986,-0.06261234830517877,0.07971133879861605,0.0017618611328314845,0.34815172925252785,0.5078379911117438,-1.1278368087661828
0.21,0.018174400409634327,0.04826099993163179,0.030195688729810502,-0.03196795907964424,-0.006976005287431279,0.0376399030069676,-0.05600801683589474,0.08009903804268735,0.001512085973280243,0.3493650083544396,0.5062338777998678,-1.1222410013492257
0.212,0.01803741173840125,0.04758337786445078,0.02972015515867882,-0.03123243596931762,-0.0062505370625562315,0.037582542552995125,-0.052443795034096116,0.08037985723002233,0.000578897467388605,0.3482459710516718,0.5031609727336704,-1.1194493849290903
0.214,0.021366176614584537,0.046246326580701234,0.024822249437360472,-0.031797431564755764,-0.0018734271713438866,0.03440044843557125,-0.05244595578999503,0.08252010771181709,0.0016866446443498109,0.34646809857941346,0.4997927882672035,-1.1199360687248312
0.216,0.027000117487735186,0.04931897372200681,0.021693123605784365,-0.03581910799506966,0.0020301676123428082,0.03412099987003832,-0.053649351166314606,0.08612131072105837,0.005205572231044741,0.34563886117614595,0.4989207446103571,-1.1214165910953031
0.218,0.03168835739987043,0.05783079755545059,0.025111141563302276,-0.042334823342535056,0.001930951187047175,0.04015857957409885,-0.052465872341455694,0.09007226628321743,0.010122006824096664,0.34713229308125687,0.5012029544578827,-1.1210844803220468
0.22,0.03273110498308077,0.06841098265766406,0.03488154347028729,-0.04854091323838917,-0.002705070303256231,0.050805401859982835,-0.04704985323189606,0.09443950810003725,0.015907731117113487,0.35160498368617793,0.503871610891009,-1.1188731844787398
0.222,0.03088834183140532,0.07735971402093883,0.046324087590054464,-0.05284292189973852,-0.009108511809724065,0.061475412035005644,-0.03945096319088036,0.09923286420239101,0.021666630502255098,0.3577132535990741,0.504391163828179,-1.1169557386920899
0.224,0.03048635620689551,0.08330321275469048,0.053097708629098204,-0.0559668420006175,-0.012423148821076835,0.06767805864765365,-0.034123920734775645,0.10273991157994274,0.025114199428230632,0.36199987855462284,0.5031352739397265,-1.1160768427769878
0.226,0.03501125586586522,0.08732869758177239,0.05253675887813392,-0.059755405856176294,-0.009872939695032588,0.06837363557279634,-0.03410842913980525,0.1030355547655856,0.024302239737016198,0.36149866702895084,0.5016108885664197,-1.1140834316174955
0.228,0.042377096833021335,0.09137257687862949,0.04898023627060101,-0.0647826953588534,-0.004556194986243054,0.06731989054518822,-0.039127718036257975,0.10053266420026674,0.019895176823142405,0.3567353079180777,0.5001647199636156,-1.1091855000354334
0.23,0.04693503073569329,0.09614854502566823,0.04923243978405752,-0.06947809627978355,-0.0025317082746551594,0.06923811652736793,-0.04588556405623436,0.0977723195735805,0.015235622217690453,0.3519120080497121,0.49861439583160627,-1.1032972523419118
0.232,0.04613471178875743,0.10054441678042936,0.054824147295227145,-0.07210692609249292,-0.005968779592631588,0.07459624695975055,-0.049802279742799174,0.09682948508910635,0.013865382801839918,0.35108722145763993,0.4972837911861803,-1.1000354240200736
0.234,0.04236811959086684,0.10305201393897599,0.061485510354435204,-0.07244881340736105,-0.011677888015328004,0.07989676447376756,-0.0484128602964595,0.09762827489980444,0.01646663302376565,0.3535644440938709,0.49587238990437277,-1.1006556799182234
0.236,0.03933234901937814,0.10388960963841239,0.0652840798791302,-0.07163321622316089,-0.015491328416609908,0.08263244635142465,-0.04319807553995517,0.09898739746551354,0.02058040174776815,0.3549203957871334,0.49312816080063515,-1.1037874010344813
0.238,0.0392763002794506,0.10521912924495883,0.06616781381195871,-0.07170516139821086,-0.01584028423435425,0.0837662895649057,-0.03759870271806226,0.1003406480210587,0.023465585446339702,0.35302058734727876,0.48924669594360837,-1.1072537642015425
0.24,0.04195949549215623,0.10855106542786885,0.06639123212419223,-0.0741085374145199,-0.014271273425985184,0.08544838689776978,-0.03450865295708066,0.10182977598901063,0.02461376618772794,0.35049352154070407,0.48658282418465637,-1.1089232364726955
0.242,0.04466258979050857,0.11282768595037793,0.06794496566561356,-0.07761884717945376,-0.01359196618328258,0.088394549278195,-0.035100697303400465,0.10394065240535379,0.02586561783960449,0.3511898612879976,0.4866002684494579,-1.1074191806774647
0.244,0.04454758460740333,0.11600071653652415,0.07144648800362306,-0.07940792063574198,-0.015191160351365694,0.09204699143872717,-0.03808127071068209,0.10723283561275848,0.02949786141752979,0.3562225823286631,0.48800119876240544,-1.1031155242738937
0.246,0.04116509619197044,0.11753743012571596,0.07648593597177282,-0.0783345086334854,-0.01858156313534699,0.09583249373485138,-0.04101807206612854,0.11105520362256101,0.035427543546550914,0.36304437683073754,0.4887359472290166,-1.0984407361594093
0.248,0.036715129463705316,0.1186844990649414,0.08202753031889265,-0.07607594323591044,-0.022496633014207894,0.09929516794187428,-0.04327349020799685,0.11337762603245051,0.04064452962471586,0.36736807222283685,0.4882450672789175,-1.0960913398713823
0.25,0.03476131135077633,0.12031293159823225,0.08551794332121243,-0.07522393451064881,-0.024715492609172864,0.10122008496902334,-0.04629756879962896,0.11290987469049067,0.041835944257926395,0.3664943774355895,0.486896982841103,-1.096084327832068
0.252,0.03744191979464204,0.12119925593340125,0.08370966365149957,-0.07666805820763653,-0.022897205944484484,0.0999567647874778,-0.05205934921878022,0.10956672942410248,0.037658591993779064,0.3613129456523862,0.48452959135838225,-1.095814032535045
0.254,0.04294501679652935,0.12046572151919745,0.07751629557181255,-0.07939426129796523,-0.018101997058998395,0.09634754464550402,-0.06261015599988429,0.1028496947771992,0.02939172126196014,0.3552847819515052,0.48095055898233247,-1.093472549323438
0.256,0.04754281863934243,0.12093453042711508,0.0734155960479113,-0.08288756054045755,-0.014928010326023115,0.09494954156375508,-0.07819664624743929,0.09272862588712373,0.020763814047633417,0.35167508919935236,0.4769678731762285,-1.0899889863933425
0.258,0.04978157158347486,0.12645367403718952,0.07668591023897346,-0.08759284834218962,-0.016245473805038952,0.09973670185710697,-0.094299792326041,0.08216027294734182,0.01588312517599257,0.35191343792235474,0.4734550824319657,-1.087500003309055
0.26,0.05052274828436152,0.13600809976967834,0.08547891360579775,-0.092562446224441,-0.02034736502251447,0.10919004740698261,-0.10424972884341721,0.07577650439518584,0.016101982608819496,0.3555461837634881,0.4704339183216503,-1.0870168410579861
0.262,0.05092586752250429,0.1437207965046442,0.09278431989355561,-0.09569491449334354,-0.02337961692033345,0.11698049531332515,-0.10624743558302926,0.07515101868738305,0.019069892893381638,0.3600851942836571,0.4680650034980963,-1.0877663119139853
0.264,0.05253094224858222,0.145404097945314,0.09284966219774676,-0.09680620755177828,-0.022412692817671297,0.11794134258220715,-0.10488899820895188,0.0770596389639061,0.020871124887746,0.36168664123306565,0.4668625938071633,-1.088593945876668
0.266,0.056880709885243616,0.14285425526544096,0.08582533734963324,-0.09782273966013037,-0.01703549933549145,0.11308944642328632,-0.10501946401708331,0.07748559997936491,0.018530389714779598,0.3576576001931453,0.4658468077778404,-1.089937016814239
0.268,0.06332215412133309,0.14068245818577266,0.07688288844115251,-0.0998790058868402,-0.009679505448421707,0.10774049934248879,-0.10686655104776648,0.07584705796969962,0.011149320429745837,0.3487636290252533,0.4622166811039784,-1.0935120787718728
0.27,0.06864947499839069,0.14092629225342937,0.07137233971190275,-0.1020395440012631,-0.004173371689956273,0.10560007488530562,-0.10792463576956061,0.07400428450315567,0.0011493414782268,0.33936190840117425,0.45467677964829173,-1.0991389794622355
0.272,0.07003182252175742,0.1420864545058267,0.07091540068487036,-0.10282140801400577,-0.0028788146592481577,0.10625801309986266,-0.10664637840824193,0.07318111392622906,-0.005548850734378387,0.33444324495154704,0.4462190214268549,-1.1029534552438567
0.274,0.06732958823199384,0.14190696563982172,0.07359701686579995,-0.10172099511883652,-0.005149014072349523,0.10736462619234985,-0.1028463323317663,0.07372508795034544,-0.003665129734877519,0.3354751438697091,0.44164323829720936,-1.1004989049432892
0.276,0.06218893733535347,0.13981021847204167,0.07711566403984903,-0.09906684277022065,-0.008921897458900535,0.1075272603922616,-0.09682208376930028,0.07607347367538413,0.005813091706514117,0.33966786885922473,0.44263079680129036,-1.091879123920874
0.278,0.05680787139586901,0.1372187233454741,0.08039075873368952,-0.09574347343146061,-0.012541914515538793,0.10704172216891797,-0.08982770482598781,0.07991996741699035,0.01570750261107839,0.3433745221229999,0.4465768354611138,-1.0828252722717489
0.28,0.05403598523486467,0.13596311473676206,0.0820935317868622,-0.09366636228782735,-0.014271169508410432,0.10662552938230192,-0.08419757507732836,0.08334943109857444,0.01988976580435416,0.34520933608929405,0.4494682058755181,-1.0794538935514242
0.282,0.05601582022625722,0.1359240953177645,0.0799048451604421,-0.09455424651296002,-0.012104656354528738,0.10577987011645408,-0.08169913136377088,0.08447842367506952,0.018958795161432843,0.3457568027680572,0.4486110576543748,-1.0827024758119272
0.284,0.06110257468958805,0.13381518537883283,0.07249682274423067,-0.09656023836572035,-0.0059997388844421524,0.10219687540321945,-0.08198661374917951,0.08359195531093402,0.01664924633476166,0.3453773382388348,0.4435715338765752,-1.0890325052348044
0.286,0.06409475545127717,0.12543341924386991,0.061299910052309045,-0.09435701452707156,0.0008884861703791848,0.09346131471840717,-0.08312771730964602,0.08254288283247628,0.013599256714350333,0.34347604674689847,0.4362030715116747,-1.0950037740601468
0.288,0.0617853630416454,0.11129382641343369,0.050011407796827945,-0.08561328451758944,0.005022521629393378,0.08070754109224125,-0.08377330258265916,0.08247077822852458,0.008180888587392068,0.3398275377720095,0.42929321028754786,-1.0996514705254337
0.29,0.056752207822133485,0.0984688575978579,0.04258569117951918,-0.07538654287979174,0.0058025344779378965,0.06964875003156436,-0.08472052440798261,0.08288230396072595,0.0004632316345667561,0.33504518989458887,0.4236727916542819,-1.1036436419384816
0.292,0.05325066287795037,0.09264843815057575,0.0401242819624188,-0.07006215546757139,0.005100731075116259,0.06482946923783921,-0.08759987920848186,0.08240576466831111,-0.008149894992565132,0.3289655457568505,0.41708281444002077,-1.1081794317227134
0.294,0.05134049855981518,0.08982391729456189,0.038790477911504286,-0.06859297668262614,0.004878958763635949,0.06290459207980492,-0.09172460750151078,0.07985906085321454,-0.017153970011815525,0.3201770687200404,0.4073763153359486,-1.114681082063502
0.296,0.048142626619074716,0.08038978255817178,0.03220937363320405,-0.06395130366427973,0.006557722733161885,0.0550910166986582,-0.09362089541604839,0.07533624714558593,-0.02652400724343053,0.30829582620267504,0.39563511093012266,-1.1239062434638454
0.298,0.042434445275553935,0.06000578559791176,0.017337074171122322,-0.05158433349508845,0.010990622559054085,0.03686236969166449,-0.09051235835867685,0.0709352753737016,-0.03511337568759228,0.29539094586251585,0.38362148720354067,-1.1352435316066176
0.3,0.03436301438343509,0.033732334206810106,-0.0009964489500145102,-0.03329718135328067,0.016247781508798544,0.01367236510591329,-0.08359600125247368,0.06930921263385312,-0.04111876566337961,0.2841226935228787,0.37050592304467267,-1.1471621030449954
0.302,0.023775944380592873,0.011464189533965505,-0.012703960624725797,-0.015122883558305794,0.017227675618685857,-0.0033675103551270326,-0.07737248846525091,0.0704135124228266,-0.0443274482685188,0.27556474554909066,0.3558779508807299,-1.1574271486203638
0.304,0.012312495324719378,-0.0006129694130606396,-0.013148261090709618,-0.0028473347317960387,0.01174492273300533,-0.008706025061113806,-0.07518437524206241,0.07120070257202675,-0.04654212260719311,0.2695370767657295,0.3429152260550391,-1.1637505510937376
0.306,0.003761441758382224,-0.005597642293157708,-0.009334302007977684,0.0026671354679295425,0.005058819780049083,-0.008320371372689364,-0.07546749443554848,0.06972368250311604,-0.04937411804213907,0.2654785416307212,0.3346004185640283,-1.1658463391233482
0.308,0.00019251093774733162,-0.010913006401711837,-0.010955698939138874,0.005420920033611448,0.004005355512602543,-0.0114280469636582,-0.07401273024384704,0.067511084677251,-0.053068073965505884,0.26240800175682033,0.3295466068293733,-1.1658165195058834
0.31,0.000453719959269414,-0.018280279132913437,-0.01852547506621485,0.008544572663151062,0.008846368668599449,-0.01902497533915598,-0.069878172076363,0.06682271579225704,-0.05736864205622955,0.25974624398074486,0.324439389955771,-1.1659502735425114
0.312,0.0024768069094797136,-0.02284268187869356,-0.02490090705245435,0.01100825721886555,0.014215331225598909,-0.024929997513272947,-0.06640655307530817,0.06745600370738328,-0.06196440006956692,0.2579127355200125,0.31824592665989043,-1.1673207957312
0.314,0.0046456796669545,-0.02092147563539506,-0.02486637573810226,0.010544227192315238,0.015614063629885626,-0.024653773296195093,-0.06617474361018152,0.06716904747221757,-0.06607467917597701,0.25660079317977497,0.31199360578385604,-1.169464657461263
0.316,0.0057623743552433805,-0.014154579958155328,-0.019240810385740745,0.00700511230099939,0.01257888365092105,-0.019132054873627874,-0.06789466216418441,0.06469717039448851,-0.06857735317732296,0.2541669342696776,0.30662974124471565,-1.1704306720662163
0.318,0.005462923747626582,-0.0070706187313759414,-0.01227790783920782,0.002521205190148185,0.00755645010013762,-0.012338824253689743,-0.06891703365788651,0.06165255518745111,-0.06901589797839985,0.2504053818931347,0.30291858316496295,-1.169260527557741
0.32,0.004147890843339562,-0.003320124229675279,-0.007626086161438526,3.471159996962593e-05,0.003367667238038303,-0.007712272097300674,-0.06849924830647312,0.060519801297727945,-0.0680486120344519,0.24774891991269987,0.3018012956796517,-1.1679539491362108
0.322,0.0022599236284314736,-0.003406014338847719,-0.005882593029587,0.001102121917457564,0.001108600883785667,-0.005890133757254317,-0.06774312607933683,0.06180370699872698,-0.06624293576868191,0.24841827000955669,0.30365724688766316,-1.168285526266973
0.324,0.0003679231101837545,-0.005027022192960498,-0.0054229869771381944,0.0042184293712727895,0.0001679568017792755,-0.0053797154168005075,-0.06760615594150862,0.06445188698706424,-0.06336870626466538,0.25222244052728077,0.30764061241293883,-1.1688008261026133
0.326,-0.0006684132628906519,-0.00591252939651804,-0.005142630289635772,0.006295911815573646,-9.192322397838383e-05,-0.005117952026421796,-0.06795185240505629,0.06721961051347262,-0.059926267460751415,0.25751354397675974,0.3116531313026269,-1.1676345282708231
0.328,-0.0005433335840905038,-0.006125228389687738,-0.005517844847663931,0.006056096484240249,0.0005431142970361002,-0.005529687494930316,-0.06819168946958602,0.06885498809515994,-0.057760961080852186,0.26251764326992005,0.3132071580381967,-1.1655855038966305
0.33,5.3221052634546784e-05,-0.007143931912044809,-0.007221405157444673,0.00485398723688185,0.0023594198919239294,-0.007240521175812438,-0.068117779121654,0.06883613681220743,-0.05786174364817728,0.2651967821022432,0.31081257425203446,-1.1643013697333802
0.332,0.000307874178221597,-0.00920042194747707,-0.009554680787455253,0.004371313707522815,0.004606336040041564,-0.009557343887766186,-0.06795165985578538,0.06812405647230031,-0.05903889275034876,0.2636049890775767,0.3049965569245488,-1.1639788756299358
0.334,0.0001200539099599956,-0.010894857871360243,-0.011023849060142444,0.004887600101947326,0.005863606975194415,-0.011014688383580627,-0.06780294870137375,0.06834327045349727,-0.059614340912482945,0.2584021549208897,0.29872553328213264,-1.1642554674737218
0.336,-0.0001080982456396297,-0.011599817798853714,-0.01147070095373022,0.006000467679064867,0.005652189281557588,-0.01146487241044034,-0.06721838126597106,0.07041119984534631,-0.05905645026377704,0.2539162470915241,0.29562196687646547,-1.1651090587353161
0.338,-0.00011651324295800364,-0.012534677608432784,-0.012403254269800669,0.007635645898956292,0.005002535773287978,-0.012405469663795961,-0.06563696973975754,0.07417466231507866,-0.05726857262772657,0.2540575200819204,0.29640046054970676,-1.1660049316393089
0.34,3.2265607198066177e-06,-0.014852288653038111,-0.014859862713253603,0.00949963046317365,0.0053732322957069974,-0.014864101705441826,-0.06342348457410794,0.07877513781621326,-0.05394887795699143,0.25774957843791846,0.29838664437004336,-1.1657458450241387
0.342,6.500318027067123e-05,-0.01797811744862482,-0.018053332794799298,0.010659469509833843,0.007271997094409629,-0.01805414855675441,-0.06158406415480503,0.08282298419388229,-0.04995880547832534,0.26062564656570286,0.2990180649273462,-1.1638165453340077
0.344,2.9260279422147354e-05,-0.020309659091190573,-0.02034142442608619,0.010610612571156308,0.009665541843638848,-0.020339500751082235,-0.060480032427573084,0.0852033595078216,-0.04765062644848497,0.26046834892410564,0.29806172629058725,-1.1615446374396488
0.346,-2.1491315325724226e-05,-0.02091083209680346,-0.020884964370104807,0.009983888884204227,0.010936399288981956,-0.020883600336195435,-0.06005874501928079,0.08630554322386155,-0.04850102084875196,0.258872721997056,0.2960534099124451,-1.1615433329314786
0.348,-2.6227659194664008e-05,-0.020390649064653453,-0.020360963982762256,0.009782961207890262,0.010652428157894089,-0.020361362240789084,-0.06067516799710332,0.08726530206064975,-0.051600735214018555,0.2580463522409714,0.2928438629953769,-1.1651323016668915
0.35,-7.98231400668712e-07,-0.020310871790295976,-0.020310810427485112,0.010616993709929435,0.009852863631001768,-0.020311745042936837,-0.06223563744282511,0.08820762328622883,-0.054986657797734234,0.2578986167538233,0.2890259434728936,-1.170197619230368
0.352,-0.0002054647675844816,-0.0216247217759025,-0.021443435391042244,0.012617495585336933,0.009368496654765964,-0.021553362579364146,-0.06335348301415471,0.0887373671954061,-0.0572705126275798,0.2568942273607044,0.28684957738353284,-1.1730207900106815
0.354,-0.0014157659995083826,-0.023633023722223926,-0.02237118033509049,0.015303681013480624,0.008458582314984793,-0.023115117027070718,-0.06230829360547168,0.08971373691140622,-0.0574102357560792,0.25491749723433027,0.28827326307713325,-1.172340550375011
0.356,-0.004044683837410593,-0.024717170708542457,-0.021130318655100743,0.017436751642345677,0.006125214296136269,-0.023402058745976458,-0.058744891559889705,0.09262364591984334,-0.05465148210108459,0.2539647105866136,0.29273885976857117,-1.1697330434323479
0.358,-0.006635307362795885,-0.023989214476848986,-0.018103135927572216,0.017710207801859924,0.003513772125205023,-0.02229218268891959,-0.05454243501124251,0.09684470602599084,-0.05014408495725683,0.2554475905839309,0.2969453516000767,-1.1662003846630975
0.36,-0.006852917897066428,-0.022055288111687388,-0.015880628956653122,0.016069009052161527,0.0031256841515743335,-0.02114263220468925,-0.052571535440340066,0.0994862453953389,-0.046801606100936984,0.2577313359424564,0.29727087994346163,-1.1613167085986964
0.362,-0.003782449687648157,-0.020630284236245928,-0.017078189767841822,0.01363666018537475,0.006104156281647707,-0.021612469460427514,-0.054066521994513214,0.09908779492539135,-0.04629354200111664,0.2579389863658035,0.2930631127888307,-1.1565219097754929
0.364,0.0016944327722414427,-0.021278887294163006,-0.022802021511721837,0.01131099755768462,0.011640837182030971,-0.024814110685805427,-0.05676812202915791,0.09886716056344583,-0.046737204569504906,0.25613734417488215,0.2871121520989007,-1.1556901670703374
0.366,0.006139935191501386,-0.024319071080138928,-0.03024980956097733,0.01050640849340011,0.016723119484456685,-0.029738687582190004,-0.05459013260797549,0.1060502261475454,-0.0429205399698457,0.2558320293739329,0.2831898423337978,-1.1599033429513552
0.368,0.003537637966772939,-0.02973986419332793,-0.03323829507462184,0.014515182775859578,0.016406426060738742,-0.03352506302715466,-0.03983403495942128,0.12849789400642786,-0.02889173548725408,0.26063912198395506,0.28295743455525174,-1.1653801473893024
0.37,-0.008296991298374449,-0.03827776590241131,-0.029973960552136126,0.024964536346937457,0.009109232536578304,-0.03569420093892902,-0.007669602422517472,0.17217511299081734,-0.000261402424091714,0.27241709718739243,0.2846107034027107,-1.170077298034419
0.372,-0.02218216077803586,-0.04910160921215764,-0.026782030360250036,0.03741997432680619,0.0007350873956543968,-0.039096817145930156,0.04175631527316016,0.2395206261039146,0.04646613080353666,0.29136065911374287,0.28545507028669903,-1.177949158863697
0.374,-0.028738176497300705,-0.056616332558553605,-0.02775556819639344,0.04430984305782096,-0.0025485960854880886,-0.04306571437545685,0.10576478790334828,0.32764335524105687,0.11336476991883397,0.31620174169888515,0.2850659076577472,-1.1923131981598263
0.376,-0.027225331785763498,-0.05294130436917606,-0.025816136115113825,0.041673782873467284,-0.0034273529139530637,-0.040186222399915365,0.18028345817094002,0.4290801426449017,0.1963491839239771,0.3456154814582123,0.2848096717005572,-1.2088296979850817
0.378,-0.023538168746784945,-0.03608117141893529,-0.012686362310153486,0.03145519459575059,-0.008240208601178217,-0.025604775156849703,0.2554156115854931,0.5346582706783053,0.28418283985563747,0.3804718841642565,0.2877745802966225,-1.218764344245162
0.38,-0.01881527087842993,-0.012579442088746957,0.006443676770272038,0.01725301514572218,-0.014872222369736137,-0.005150806304978003,0.3138364382703683,0.6360431502414079,0.3685892382277658,0.4258503499685556,0.30186524510842305,-1.2150240781045294
0.382,-0.003782789602652236,0.013996771932622165,0.018402286029401266,-0.00374731202274141,-0.012839593789224113,0.013682979369142966,0.3413730732085827,0.7293584331423835,0.4559616681810309,0.49216553739805147,0.34017423843573125,-1.1906746661559038
0.384,0.03304026528172628,0.055392418930911846,0.023049548900097538,-0.042883085212284934,0.0030595907539258988,0.03737967637286498,0.3390889665383992,0.8108889106975558,0.5596699450122163,0.5899627260750662,0.4149739670338773,-1.1362448460284054
0.386,0.08966114214133362,0.13000420337395513,0.04076023001540757,-0.10820039425327387,0.022168251234652214,0.08461654802381845,0.3162607503323744,0.853519014383851,0.6705378702198138,0.716623943234125,0.5292541058037231,-1.0452525880957477
0.388,0.14865856307951392,0.2416110311133423,0.09303186856924074,-0.19313756363405288,0.025906394881972532,0.16682682426290246,0.26752491493485725,0.7936542674698482,0.7426060415450249,0.8501318245230196,0.6738355359934189,-0.9194451179950583
0.39,0.1973219730930448,0.3763617419938037,0.17904594231715354,-0.28487535962651367,0.008112796167192161,0.27673912132637435,0.16712426852146475,0.5794175141087179,0.7316230775726803,0.9667681030462826,0.8372414552992904,-0.7626815212527552
0.392,0.24416276992130762,0.5191799097351407,0.27525595951124215,-0.3801497957863588,-0.01619768628755512,0.39608109163071387,0.0008418388718509483,0.25074542159624497,0.6537719893511235,1.0695145476469403,1.020112407294333,-0.57415090503234
0.394,0.3082826457492601,0.6627835746252531,0.35496372575527774,-0.4844222919981227,-0.02453066825665974,0.5081164938507329,-0.20087239493344233,-0.06618992999424997,0.5802473234939515,1.187126669465508,1.231305512257628,-0.3551484891081079
0.396,0.3945189521398824,0.8039596420174698,0.409881774584774,-0.5983683322523476,-0.009647480224837622,0.6063301317894475,-0.3876023887574348,-0.28495669904400245,0.5551688936998325,1.3343394133148256,1.465385999529884,-0.11879286799942988
0.398,0.4832294254539125,0.9426544114467084,0.45974271690802465,-0.7124446591424617,0.009555518943861247,0.7000949904659108,-0.550352653544549,-0.4525776512577814,0.5440014001481294,1.486223842708531,1.6956421909147268,0.11462755114463224
0.4,0.5472936564711895,1.0845119216432932,0.5374735056509019,-0.8159130156755414,0.002953640189017622,0.8091406446310013,-0.7237839025291567,-0.6693702633327931,0.4912515816700517,1.6088716508402776,1.8975331120468626,0.33059395303877737
0.402,0.5790908578049758,1.2329643067951797,0.6540468795796611,-0.9062259375406495,-0.03921515935081073,0.9414687173497962,-0.9169064132853612,-0.9399160803774369,0.40497624164773505,1.7025462113127772,2.068651135529811,0.5239826722197477
0.404,0.5944823596771378,1.3712762411394406,0.7768170783216386,-0.982627880023099,-0.09271085722112406,1.0727061735801533,-1.0815090627867532,-1.1633175844424564,0.3470647002124358,1.7939709757390965,2.2173745780805265,0.6903372194683155
0.406,0.6075979486050652,1.4584880568772176,0.8508123312667677,-1.0319933334030995,-0.1230242379342006,1.1542088446475756,-1.1667780716795901,-1.2577446492734043,0.35506162298979416,1.8948009296821688,2.3406435671998285,0.8175616168935264
0.408,0.6093252093948353,1.4562301544713754,0.8468479304840687,-1.0313451222747505,-0.1204601415419401,1.1511359657006315,-1.1702195326769038,-1.2357486568574962,0.4068158719261287,1.981843447082909,2.4175039491211723,0.8875445798473314
0.41,0.5752140449903043,1.3627626326012607,0.7875607107313723,-0.9678875789750508,-0.1084611464286962,1.0739934236711535,-1.1202594507905264,-1.1605689566183761,0.4482948263767381,2.004723415761676,2.4131133159708478,0.8809254691768734
0.412,0.49113431320356665,1.2150154732681318,0.7238960144126735,-0.8524505601398229,-0.11884615938123083,0.9679396909502744,-1.043234246096444,-1.0830737293368977,0.42118972766627494,1.9005193014839235,2.286526536643968,0.7804895100432401
0.414,0.37094677694197914,1.0599183767656364,0.6888516112986036,-0.7149561130256707,-0.16081061875453306,0.8733695978361711,-0.9637342593817927,-1.0343366646735754,0.2719273747367925,1.6203370110785533,2.012370432724891,0.5817677332181834
0.416,0.24961355851777461,0.926851906860346,0.676874464661742,-0.5875997658500913,-0.21482467814807535,0.8012803546878687,-0.9047190564300884,-1.0368384189902504,-0.022020393313543156,1.1694741222834004,1.6085248411487933,0.3053183357604911
0.418,0.15414896654769872,0.8150889011917443,0.6603509569207169,-0.4834466886700347,-0.2545017644874843,0.7370158950721468,-0.8616712205285556,-1.086523328029843,-0.41096432408918626,0.6305662419816894,1.1414666597840288,-0.00793474741788486
0.42,0.0821939525484749,0.700509559515733,0.6176249143663661,-0.38927094196686984,-0.26980647867819857,0.6581447305168602,-0.7962004670578483,-1.1336965436148012,-0.7729676964738726,0.1380595004963642,0.7008990058764117,-0.3161969728178752
0.422,0.015344442011754434,0.566058139045606,0.5501285986636558,-0.2879594828509166,-0.2694568640825235,0.5570824530483485,-0.6814664029283365,-1.1134330807860497,-0.9838200138955348,-0.19122203925161047,0.36041358530860146,-0.5916853001447502
0.424,-0.052106873168404705,0.4275763197828197,0.4794592173722942,-0.18525653660102834,-0.2669675025605102,0.45254322602853747,-0.5454283271865735,-1.006001245788515,-1.0046537547334584,-0.3233998102779998,0.14709228539221397,-0.8211085878128581
0.426,-0.10782718535248723,0.31936770203621506,0.4273385170556781,-0.10433050876384373,-0.2680848718548743,0.3727635355369454,-0.44784275401968643,-0.8560848045055454,-0.9018993465172878,-0.31396838904478597,0.04087629378867542,-0.9977337352994508
0.428,-0.1401460164417436,0.25854323474550034,0.39887104146189606,-0.05862815284542885,-0.27017672449153496,0.3287135002098729,-0.415590104068748,-0.7261022067331644,-0.7794333399544755,-0.2525207090537188,0.0020902175197424857,-1.1177667344047233
0.43,-0.1527878734317388,0.23390965604374514,0.38672944571016277,-0.03995690765877956,-0.271057387160444,0.3104938038667781,-0.4142781603878582,-0.6369800262257267,-0.6928677378926874,-0.19887979168142952,-0.0018769656126328698,-1.1854141273964356
0.432,-0.16103690741447663,0.22484042092176648,0.38593717758106244,-0.030640026330947895,-0.2752875479045609,0.3049407893769077,-0.3871299682647402,-0.5601033561780085,-0.6280238865091882,-0.1616418623373646,0.010212862008637632,-1.2151524814817114
0.434,-0.1760823614838775,0.22032482382145988,0.39670621756766256,-0.020412597569447858,-0.2882491947518092,0.3069192776978033,-0.31518175167760326,-0.46316949297745175,-0.5511906324904374,-0.12399710007304786,0.02832829150157014,-1.224290279305077
0.436,-0.19431469166634519,0.2193287524447244,0.41422457824646314,-0.010878767410376274,-0.30551202345328277,0.314197252807782,-0.23301812696015056,-0.35270778303933165,-0.4616543453993733,-0.07937490233630691,0.04583759737141792,-1.2261141492056153
0.438,-0.20275702435021778,0.22032877368517018,0.42382760702536965,-0.0074314127924639045,-0.3135431112292331,0.31941781533334723,-0.18827433709077318,-0.2625970884429754,-0.38644855308085924,-0.03765516404432238,0.05857013747915247,-1.2280418691581905
0.44,-0.19254423304621857,0.21624604999102678,0.4093936028714588,-0.010653855771163484,-0.3008773299869544,0.3111033652179662,-0.1939885111994693,-0.20713287903401087,-0.338441079234909,-0.004465479750902092,0.06873584703988592,-1.2294807858297347
0.442,-0.16493703060839876,0.19963635127259002,0.3647690331985251,-0.01607050925014486,-0.26555858456649994,0.28161986088252305,-0.2213781831352835,-0.16398453821681389,-0.3013287995004672,0.029122022133879346,0.0845135004533244,-1.2248765797442331
0.444,-0.12846187321721148,0.17079907612056244,0.29911349634207035,-0.019527684583393823,-0.2154841909642873,0.2346911475887457,-0.23263067218445202,-0.10834957870143733,-0.25766993969582924,0.07008648085746158,0.10847503144813313,-1.214208406737184
0.446,-0.09412703090561238,0.13922109750617498,0.23316948419883968,-0.020474408689278085,-0.16546107940170815,0.18539211351957555,-0.21597293578302568,-0.045553700334831415,-0.213532931894967,0.10889472981746773,0.13079400577926717,-1.2049446771646934
0.448,-0.0691808489195515,0.1153405258238438,0.18450582828753914,-0.02083316412982846,-0.12815157195791205,0.14856873687173858,-0.18814964742233664,0.0028841630167504625,-0.18487490506109022,0.13198219684329937,0.14190946016761025,-1.2008883347308976
0.45,-0.051804724857964,0.100847584825578,0.15273904063223515,-0.022460626014156437,-0.10341362746907887,0.1254270237616813,-0.16772704132467178,0.0322963850177401,-0.17157178268612833,0.14090083875304038,0.1461823027988522,-1.1963078488146293
0.452,-0.035436269293817685,0.08861871047081146,0.12410515266207355,-0.024876222917664344,-0.08127132162808294,0.10516972467475648,-0.15461859078705328,0.059062178093436425,-0.15734429392091145,0.14927828100537247,0.15522659813590445,-1.1835366684685973
0.454,-0.019247163092211746,0.07040352388062765,0.08962785218155549,-0.023988605158155565,-0.05618034455743892,0.0787472541933417,-0.13680389238746943,0.09806883712474358,-0.12913169182449483,0.16650803910629,0.17335932711979213,-1.1621407595458262
0.456,-0.009862927884576683,0.04177932962863696,0.051604122087663316,-0.014121074098337842,-0.03234766055546027,0.04547063223622225,-0.10776820041692609,0.14768549279757162,-0.08798949121330799,0.19189102595617455,0.1954367823417774,-1.1401377579537861
0.458,-0.012059743162999233,0.0038197987858060276,0.01587377197267546,0.006157329184708015,-0.015468391130007255,0.009291608234326731,-0.07126268667153424,0.19599857660262754,-0.04458656827187951,0.21982829299702045,0.21430424543431806,-1.1274735302773577
0.46,-0.021255305104176225,-0.034563084268729206,-0.01328974919720201,0.029627380049554067,-0.005561683530640236,-0.0236681820370241,-0.03437238869214724,0.23401551081584543,-0.009623230071237887,0.24467577885931271,0.22610929555625506,-1.1273523844176987
0.462,-0.027592248725253246,-0.06005529170159802,-0.032429349231988244,0.044896828421131955,0.0006826766864993202,-0.046065663660011746,-0.002710001593036919,0.25972246980138547,0.012021185338688217,0.26275060024302316,0.23037090356637935,-1.1340675518141274
0.464,-0.026700400884319953,-0.06604331397825967,-0.03921582135314567,0.047014932089819494,0.0042823673030572,-0.05372149090506756,0.019018911322075633,0.27357636339340174,0.021004903562816812,0.272426877534242,0.22800352683864916,-1.1397596627534785
0.466,-0.022633875971778555,-0.0571724697991701,-0.0342196056810231,0.04060804643531252,0.0036386697588795475,-0.04821134742599644,0.027334457667919577,0.2759957234297702,0.02020699404691131,0.2731138477237775,0.22124918684344264,-1.1413679249958886
0.468,-0.019871359953936497,-0.04169924161758072,-0.021406998063462798,0.032021567515774965,-0.0011936983268067776,-0.03425123357220662,0.023437122957021144,0.26979977687065654,0.013333017761078276,0.26648999792585176,0.21479145871358676,-1.1398746002585636
0.47,-0.018277322460772814,-0.02532859838842311,-0.0067919567010137315,0.023591119088123193,-0.0071528412868647395,-0.017486721904918737,0.01402540903700633,0.26119017786720317,0.0056143661897907916,0.25799055995323883,0.2134436290906317,-1.135984660490119
0.472,-0.01700905743733871,-0.013440276150071862,0.0035239125198618737,0.016829284988541866,-0.011091017660014817,-0.004924635548619289,0.005971417203574893,0.25609947554462387,0.002104277695665568,0.25315616999467894,0.2174443334388935,-1.1297431279754018
0.474,-0.016796143356691766,-0.011537653108729317,0.004958687030573686,0.014786072059386871,-0.011471501416879503,-0.00305926130431884,0.001746798589182001,0.2567637272707407,0.0041353760857690365,0.2530683089411146,0.22222253678673254,-1.1224115544154922
0.476,-0.01715971979123698,-0.0198485092237171,-0.0032125964270374894,0.01821165206448378,-0.008028461247285524,-0.01254832709930956,0.001440592533370888,0.26250790156831855,0.009719383264448728,0.2557862103331293,0.22436226247808558,-1.1161076632444409
0.478,-0.016394105319076636,-0.032427588271108636,-0.0167378540911738,0.023888976173819187,-0.0017783003002362434,-0.027039847820834077,0.005666710391787703,0.2720359653978083,0.01705585092560114,0.26029466727244965,0.22572185020110244,-1.1125172153408105
0.48,-0.014229446352052023,-0.04382220470225745,-0.030213700539583416,0.028647048864904,0.005748420437567063,-0.039695088188265226,0.01365208865947101,0.28401528360967226,0.02530986706196784,0.2666663952960362,0.22934767952427304,-1.112387422899044
0.482,-0.01189501871323005,-0.05275767721448155,-0.04108972924416246,0.032023356969174646,0.013342567430547696,-0.04847567422376594,0.02161441695790545,0.2959558623609598,0.03301695708206417,0.27372798367753304,0.23402112664209687,-1.1150525279494625
0.484,-0.01092549263042713,-0.05887771923794114,-0.04781048747542642,0.03478785022181292,0.018704388694372034,-0.05369213681339784,0.02659353115560816,0.30360295446432173,0.03821005052402043,0.27888144058052,0.2361821725425484,-1.1185716873388452
0.486,-0.012374033338408483,-0.060400783692840465,-0.04783346291192524,0.03700531675581136,0.018514863981708443,-0.05432465206835179,0.029538677769796195,0.3040208990791925,0.04010065911606732,0.28080677328349707,0.23492440092862593,-1.1209503897526742
0.488,-0.014843462977361728,-0.05618452843939825,-0.04131528467092974,0.037249763866150615,0.01297060235094786,-0.04949363763171763,0.03171471878141663,0.2994969834542615,0.039707192559780925,0.2810723051577749,0.23190144223740938,-1.1208707222451109
0.49,-0.013971363789336185,-0.047658546620733835,-0.03377700330488991,0.033335042219748916,0.00801714459551549,-0.041569680426260386,0.0311100091383462,0.2952975318861893,0.03883063541859806,0.28172408600703125,0.22831001821920002,-1.1178921796104608
0.492,-0.006960421497728622,-0.03843602762319419,-0.0315328511205026,0.025219843317312977,0.009575457072282797,-0.035487627633593435,0.025668459210316182,0.2938045277089411,0.038590092408989335,0.28235823923441816,0.2248477026774153,-1.1131574750781192
0.494,0.0029235293066593856,-0.03274126918792516,-0.035643661341154764,0.016944090284271077,0.01674831291355549,-0.03467532807360716,0.01815219230614798,0.29383730960301896,0.03901271877610884,0.28152707197580895,0.22263548382132048,-1.1089433732232747
0.496,0.008733631071559314,-0.033193507017952505,-0.04188595464385397,0.013971408236721113,0.023192695126511925,-0.03837761852339588,0.014944928044015711,0.2949546363581399,0.04004795501869279,0.28033452047291985,0.22166482793761433,-1.1064439422205048
0.498,0.006539370459060013,-0.03904511178050451,-0.0455763293620865,0.01818136392974602,0.024305677098887833,-0.04337750243362239,0.01952909222394046,0.29915362511677457,0.04241166894041146,0.2820093144336873,0.22046420774333447,-1.1049405432469335
0.5,-0.0008644192607655845,-0.04639034809576926,-0.04554448371274954,0.025846964447996276,0.021339633270262837,-0.047275216829087294,0.028593245986284117,0.30781912498138186,0.0467648335335715,0.28781531777586244,0.21883862109890925,-1.1035512295650405
0.502,-0.00677224594101487,-0.05071737571581076,-0.04395843501096633,0.03095482107716563,0.018692223947125886,-0.04923457030009175,0.036105538095021955,0.31882259799233287,0.05239343854068861,0.29573437842282496,0.21843547095285648,-1.1027667482870502
0.504,-0.006984909415879381,-0.05019353837199399,-0.04320485939954391,0.030583822475344934,0.018678803199142287,-0.04899011004111957,0.039224579932021976,0.32733149651373056,0.05735518517235423,0.30249276426822724,0.2200302567457972,-1.1040932750264394
0.506,-0.002895276132135332,-0.04655902137751982,-0.04365468494443106,0.026629121361496026,0.020134428222971963,-0.04684564119552165,0.03848677734057,0.32984621240053186,0.0600364088421107,0.30501935257008284,0.22258570446912218,-1.1085089552363758
0.508,0.0015027075293476298,-0.042763667590736985,-0.04426410486077753,0.022726713036275437,0.021339963452306068,-0.044253768759803525,0.0356814930589151,0.3281407961001791,0.06077032937884622,0.3019341663605797,0.22498806942547073,-1.1145836626215144
0.51,0.003990116840961571,-0.040317346266361485,-0.04431132307059764,0.020681974195887395,0.02224353603361335,-0.04297147434049227,0.03323036062290214,0.32770910983472107,0.06175848330363911,0.2954655754770712,0.22726439070198248,-1.1183888610612152
0.512,0.0049018839546682855,-0.03909909755568528,-0.044004064115482355,0.020051165541174636,0.023371487102331886,-0.04334310716141547,0.03278056124132312,0.33170502474104185,0.06464941164818533,0.2907869564877315,0.2302549771403249,-1.1168945137570347
0.514,0.005168574877606579,-0.03866435101471707,-0.04383229182813418,0.019909808958062297,0.024345537027891474,-0.04419229492006528,0.033757704598243045,0.3385110368723808,0.06866125382431411,0.29206698693064315,0.2343893950336259,-1.111503222138233
0.516,0.005281018369883239,-0.03874849325228988,-0.044027526511837244,0.019786647359667568,0.024635779912989163,-0.04443565206087449,0.03451507027063556,0.34455811868196967,0.07197221699802366,0.29838949458609393,0.23860531786159087,-1.1068454556458511
0.518,0.0056961813934011335,-0.03901329343071705,-0.0447088726530619,0.019303789865199695,0.024760903353711537,-0.04410539102521753,0.03459622458440068,0.3476550195725217,0.0742078791795089,0.3044213948516342,0.2415273878232151,-1.1056968328631207
0.52,0.006573938715179873,-0.03902247162190085,-0.045597206028775934,0.018282248536911305,0.025323390438048484,-0.04370561918807179,0.035435527769143646,0.34886287923616266,0.07672977937469815,0.30646576816795396,0.2441145136256833,-1.106020365902483
0.522,0.006948877415512002,-0.03829226437227191,-0.045241850472348535,0.017268160445988844,0.025223844065189262,-0.042978959320961074,0.03855636824062475,0.35171146156852184,0.08075542641674291,0.3063895037163542,0.24886038788818454,-1.1041563991855616
0.524,0.005407736644064735,-0.036554910467836335,-0.04196255139082555,0.017089324979922136,0.022520765846505534,-0.04086172280368322,0.04296618723900815,0.3583308431827883,0.08554939061637412,0.30794006033564947,0.2555634512566492,-1.1003725141343415
0.526,0.001734056667159646,-0.03454193831408988,-0.036275562513905554,0.01808484365704467,0.01730882765940915,-0.037283949156399654,0.04580252339132044,0.36698652789009434,0.08898061957617416,0.3113781460277576,0.26068195117204657,-1.0986596010533776
0.528,-0.0026365728520014713,-0.03397026892109566,-0.031333541736234045,0.020053213370331547,0.012512222977239798,-0.03448353728248955,0.046293693633566294,0.3746774126074223,0.09019974881229133,0.31425172434779036,0.26209285936359356,-1.1006555867465706
0.53,-0.005638148029745348,-0.035654942999411035,-0.030016957259357338,0.02228396081723494,0.011088752277799456,-0.0347957948208403,0.04702725493658704,0.3805781117950954,0.09080894340871802,0.3155722076704469,0.2618841957222575,-1.1028199258904916
0.532,-0.0061316397899461444,-0.03782728650237734,-0.03169580845391825,0.023506650579804785,0.012643037747588978,-0.03711432078679774,0.05010646394401655,0.38525068230360043,0.09290298343244634,0.31643666214913446,0.2632359366808927,-1.100442895548437
0.534,-0.004334218737829116,-0.03776197493037432,-0.03342774488386947,0.022638307788355374,0.014344252154657981,-0.03794785277519072,0.053776322331856814,0.38882482856398937,0.09747846582475853,0.3178449599329043,0.26679723553666623,-1.092524039514792
0.536,-0.0004941284496231483,-0.03528656429787823,-0.03479234218051128,0.01979824255264601,0.015638077945736066,-0.036573812596971456,0.0542156113354057,0.3916221245495134,0.10491273211120089,0.31982688631612266,0.2708943368677956,-1.0828045754277003
0.538,0.0054723999686229815,-0.03300817815165543,-0.03848053955084148,0.01600781218874401,0.01903245777424435,-0.03633470608615688,0.05010396017947051,0.3943276132607892,0.11446082679763511,0.3217248038277033,0.27356026077298135,-1.076950868413604
0.54,0.012166630841208783,-0.03281646141041578,-0.044983124945420644,0.012310797793210076,0.025095835540680313,-0.039589301897430415,0.04451472278409824,0.3973911533799629,0.12321691075261823,0.32289554117977004,0.2741663667606617,-1.0776580764667203
0.542,0.01653406332709719,-0.03381200215927359,-0.05034610215095953,0.009726894995138242,0.03028685349683225,-0.043967351152240076,0.0419304993574332,0.4015606730643793,0.1284217309186486,0.3239167088355993,0.27402783835846223,-1.0820314579450854
0.544,0.01698469272451602,-0.03382531737348565,-0.050810009769250694,0.00896453106863418,0.031429601138448636,-0.045291117441631806,0.04421849587708159,0.4074092938548085,0.13046020487959223,0.32606675567693494,0.2751224264546016,-1.0848203801458922
0.546,0.01525153683220564,-0.031923270778060286,-0.04717478744451552,0.009580992487728753,0.029589874459572715,-0.04261315242177232,0.05003458978393729,0.41397510897988227,0.13156052727643866,0.32909992491489065,0.27796529551136484,-1.083597289771779
0.548,0.014225101392790597,-0.029319471250659142,-0.04354456319058989,0.010191109946320926,0.0281437675192046,-0.03891535744154979,0.05640469091660233,0.41964783437991643,0.13312101501217832,0.33126781274966044,0.28125508305151004,-1.079685519838748
0.55,0.014994659273301746,-0.027950015030495517,-0.042944680793513816,0.009704192010275786,0.02877234224417824,-0.03728299574155469,0.06031957546065969,0.4241841979319447,0.13595699332349678,0.33150948621858495,0.28348957237808287,-1.0755373181207897
0.552,0.01619169843590497,-0.02830153051751281,-0.044493237211907885,0.008375583874886076,0.030130327576805303,-0.037594701130770465,0.06079277259937343,0.4291219954453521,0.1413282447503853,0.33069049447011545,0.28455961691748016,-1.0725515822900678
0.554,0.015874417261360626,-0.029187125379624947,-0.04506154304410316,0.007699265219827229,0.029966426741093177,-0.03782695194311457,0.05983537039637438,0.4365821919707783,0.14962791671420073,0.33146722132511347,0.2857216157696695,-1.0705502537482776
0.556,0.014349168726645021,-0.0294563274644773,-0.04380549187682276,0.008516524520751155,0.02842655257294312,-0.0375024645957764,0.060178706011129915,0.44701183140724304,0.1583363424220513,0.3362076131012743,0.28799959683858756,-1.0685711071685828
0.558,0.013959454976347877,-0.029117859506804584,-0.04307731220241601,0.009528106473755581,0.027946186338619717,-0.03765559299541922,0.062146332511315135,0.45769958930683785,0.16357372941199633,0.34366452892196714,0.2908503895962925,-1.0659686399405683
0.56,0.015142933550245333,-0.02870015279604576,-0.04384308761130029,0.009171072494336092,0.02900660755255748,-0.03793977498201273,0.06381111413731089,0.4652848127797693,0.16506707372984147,0.3491808654534567,0.2925639878500672,-1.0625400498304047
0.562,0.015051049584632182,-0.028079223272617308,-0.04313027470613824,0.008210120369998943,0.02842207327378132,-0.036387214418495996,0.06386746055584525,0.47032334991906954,0.16742891057993262,0.350077534296968,0.29223918996849535,-1.058158524870555
0.564,0.011629432428019873,-0.026626488163900414,-0.03825592078470582,0.008451821723581575,0.023725619090885636,-0.03248457418432723,0.06301298881617415,0.47698839321249176,0.17438713055337524,0.3497947090837447,0.2912213515505326,-1.0529715739859913
0.566,0.007075725298284935,-0.024582056194210437,-0.0316577805755986,0.009713704517925725,0.017458394117429492,-0.028704509247083992,0.06265421897253677,0.4872004198698296,0.18364333020043394,0.35372827628473313,0.2914540573057087,-1.04788879035319
0.568,0.006078627081219496,-0.02323660172254455,-0.029315228260596363,0.009962709447258383,0.015288251973776201,-0.02804109338547624,0.06354019991515415,0.4977658107537021,0.18986448299837702,0.3614484314090167,0.29282949382148854,-1.0446163295624904
0.57,0.011172274930354546,-0.023207449923364494,-0.034379725094644355,0.007858983906668069,0.020170400369963332,-0.03072388846911124,0.0655419049498612,0.5049389183719236,0.19183617967220679,0.367578894868977,0.2936202841580997,-1.0442377029593992
0.572,0.020060394735012272,-0.023414821510747197,-0.04347521665725787,0.003799519228987613,0.029356932315949408,-0.03417595271921126,0.0677054124642855,0.5090378166186048,0.19425756613469852,0.3701854827788575,0.29260120914060234,-1.0452859052828
0.574,0.028218296698203058,-0.022351335348944987,-0.05056963211222365,-0.001045161397310738,0.03773774476169754,-0.03607193751370122,0.06861140827268634,0.5132814381414169,0.20196834618486026,0.37261689151730387,0.2898949788371679,-1.0447449730093215
0.576,0.033577440377195476,-0.019790706978159184,-0.053368147161874054,-0.0055438464920739925,0.04270427100746593,-0.0363041838648801,0.06727819393302953,0.5209750471125394,0.21451275154173066,0.37688099516439,0.287388853721464,-1.0413768662347775
0.578,0.037060838727187836,-0.01683576251152361,-0.05389660111078121,-0.008893923563004611,0.04472204132021607,-0.0358243421006821,0.06427951279329187,0.5338628681171291,0.22760981298401395,0.3810798671120325,0.2881858056380424,-1.0369109182158258
0.58,0.04010612917210394,-0.014798842431296364,-0.054883032027192226,-0.011232567231901778,0.045681088340419486,-0.03561406618541032,0.062206775806269064,0.5502066729096619,0.23827054029162884,0.38419656834821214,0.293318483356823,-1.0338152843026776
0.582,0.04372066618277578,-0.014449691802577231,-0.058039042310966925,-0.013494254427206117,0.048055396783620814,-0.03710839415988831,0.06359025901333441,0.5654994484826049,0.24725512132513053,0.388643832939018,0.3001020728812047,-1.0319103211151617
0.584,0.047900936684445894,-0.016097911481695783,-0.06367142912541682,-0.015500745723827695,0.05296401856628627,-0.04122847281038849,0.06785863064021917,0.5774893941628791,0.257464437324127,0.39717772741881757,0.30574431772622823,-1.0276539741972885
0.586,0.05044653207755537,-0.019549193773475745,-0.06957312059414023,-0.015308573041585595,0.05788452241585545,-0.04655000806316607,0.07207750158238671,0.588462067506415,0.2705737666307192,0.40982941274995127,0.3104032271657484,-1.0184346382420262
0.588,0.048884045997731045,-0.02328977123932107,-0.07191827653584225,-0.012281005495085862,0.05878600647579482,-0.04991220245507595,0.0745640359336158,0.6008293495515117,0.28486761381405085,0.42371888583978545,0.3155074961896548,-1.0068226074346116
0.59,0.04435786277556035,-0.024596192515647614,-0.06897972875920073,-0.009267271871599439,0.05520939805780207,-0.04891752910796361,0.07580358545208175,0.6135416132562981,0.29679817303764766,0.4352713279540903,0.32173971227213727,-0.9977358414643392
0.592,0.0413210625481561,-0.02160984468785385,-0.06307670386272554,-0.00985192161480219,0.05109253556623268,-0.043645264772002854,0.07588421592074528,0.6247591520672156,0.30544410994459,0.4435896676999156,0.3294024460977055,-0.992373214089831
0.594,0.04341091059530526,-0.015403620001903567,-0.05887774631270959,-0.014628575108311222,0.050792618054001766,-0.037211032950663026,0.07365083694965786,0.6351336731394802,0.31451085557087793,0.4511296074514479,0.33865400060972456,-0.9879313318306177
0.596,0.05115934625442255,-0.009582071461337058,-0.0606952877871882,-0.021226730441475793,0.05615121604863291,-0.034649310587773915,0.06953746107055819,0.6465168349967731,0.3280656862532478,0.46043092832699706,0.3488919499617386,-0.9819556661817018
0.598,0.06232393138968949,-0.006899760646598417,-0.06916727370686446,-0.02722315644654708,0.06569622981083119,-0.0384771870323235,0.06670320392540614,0.6593560061061481,0.34474965285381737,0.47168883772336984,0.3588771682766739,-0.9747251747384347
0.6,0.07235780334709288,-0.0064489210872775635,-0.07880456329729935,-0.03174347454407808,0.0744624177119135,-0.04480716175184831,0.06804574798356625,0.6732159028410262,0.3593966535562413,0.4837402459782246,0.3673524117342079,-0.9685777806221246
0.602,0.07684139781009201,-0.005268771975733994,-0.0821397755952843,-0.034576639315709486,0.07739763120756386,-0.04687290405474551,0.07353113195913835,0.6889292337759163,0.3706833786653022,0.49570586468173783,0.37377539199407467,-0.9651855276012691
0.604,0.07614816046767094,-0.001891942433997151,-0.0780554212942732,-0.03600733916139342,0.07492930161161196,-0.04267994479354066,0.08025659583835265,0.7076708558938806,0.3826520641182661,0.5076946701513255,0.37939149464064426,-0.962798239001035
0.606,0.07546705097583545,0.002640983727560299,-0.07281724637304579,-0.0375673250688954,0.07246370131110356,-0.036663178496650205,0.08452282624490437,0.7275938975592173,0.3975027537734223,0.5204692092939758,0.3864348584114516,-0.9581617710818348
0.608,0.07851732032601386,0.006448882692034793,-0.07205587156697864,-0.04067444932988471,0.07391180962284524,-0.03385860046663033,0.08488289699144856,0.7442666768689481,0.4121541289208579,0.5338741159414574,0.39515211653768784,-0.9509312835998042
0.61,0.08394625027033988,0.008720232561921696,-0.0752248291728663,-0.04480917567543816,0.0784234513885849,-0.0346277968593125,0.08319648875014368,0.7559163567089016,0.4239777617740544,0.546526137028424,0.4037868192808375,-0.9427931579581668
0.612,0.08904157271584175,0.009845847227332477,-0.07920201446143665,-0.04863659527191354,0.08355594812955879,-0.03617199966452762,0.08214661588485168,0.765944544197405,0.43499890080812914,0.5577714336022102,0.4123153517713075,-0.9333626635657564
0.614,0.09361965854630923,0.010406524054387257,-0.08323872636978964,-0.05183776470599504,0.08853557638152011,-0.03714070117507771,0.0822756784686593,0.7784403451884676,0.44801027031064805,0.5685203087200136,0.42307574977115364,-0.920914991429982
0.616,0.09897806688039999,0.011333444219716028,-0.08777425091495161,-0.055035394182919826,0.09348660473328103,-0.038010132994296876,0.08168475505156056,0.7939290389598703,0.46241911878046943,0.5802586107835991,0.43712149816934737,-0.9064459497118417
0.618,0.10624505607482636,0.01455878873370169,-0.09198894765487466,-0.05952339744093593,0.09852366273097596,-0.03851265155118193,0.07834935551844756,0.8109559062532803,0.47613716517397,0.5940775978670263,0.4525689299607805,-0.8935928227190809
0.62,0.11633966915666241,0.021010028230146156,-0.0956205142901171,-0.06662583933641729,0.10478644682209254,-0.03815297248604275,0.07240724815959819,0.8275730418578985,0.48874960757032815,0.6093780771374708,0.46661047575933895,-0.8845187001564904
0.622,0.1287481265322479,0.02760561769772938,-0.10105001962638809,-0.07544160560788496,0.11372190000155227,-0.03865179455158408,0.06581630140766676,0.8410679959278673,0.5012769918077531,0.62345860396783,0.47828550725187013,-0.8778583511039352
0.624,0.1400770582631975,0.029739178110845643,-0.1097372078643356,-0.08257499118071328,0.12380273019913848,-0.042125039060786636,0.06037694272242831,0.850946359871032,0.5147045844415317,0.6342443201851876,0.4895065043431624,-0.87038211720234
0.626,0.14612591474913783,0.02786985071330783,-0.11739567840475876,-0.08591047066545514,0.1301086418626471,-0.046521975151849526,0.05632309721349296,0.8604230121602802,0.5288770824416107,0.6433238579234893,0.5028003578844678,-0.8599119827506312
0.628,0.14678168373261602,0.02746309381507377,-0.1185304033427134,-0.08722086526583411,0.13019520163022721,-0.04727154460641175,0.052192041084124154,0.8715972438991327,0.5418044071886193,0.6546566317535361,0.5182753559568947,-0.8472905699978851
0.63,0.147259305577293,0.030911404591802662,-0.11586155655493274,-0.08942347015153528,0.12884474984553435,-0.0444620790866813,0.046377369592516086,0.8824641382567717,0.5515664964652752,0.6698255078748195,0.5338648988706366,-0.8353628669697788
0.632,0.15260887453324454,0.03403951620764074,-0.11845940378190725,-0.09275555990116431,0.13312439659673983,-0.043817951923286406,0.03861107311819349,0.8903800029706345,0.5590826299862814,0.6857466586517824,0.5477193876751028,-0.8257014368224861
0.634,0.16269602187868065,0.0329606833622774,-0.12986304114608432,-0.0958647582056909,0.14402607384154759,-0.04894045999599,0.029710371876121282,0.8954696504269205,0.5666950849700892,0.6982483507695305,0.5594603687976513,-0.8171118566858283
0.636,0.17372638867306736,0.03020781167519195,-0.14364150930290293,-0.09905902243736002,0.1561730846357152,-0.056347974480865384,0.021185610813702217,0.8999854030549638,0.5747018034770123,0.7068732862035358,0.5700851866178139,-0.8073840988760419
0.638,0.1822775639792979,0.030682993066462442,-0.1515940406014438,-0.10352674837391658,0.16426623047210373,-0.06026589885525426,0.014665257833127434,0.9054036716790547,0.5815518280932249,0.71437143180087,0.5811196412816763,-0.7957387375689394
0.64,0.1872184058293012,0.035080942444501384,-0.15207330708383723,-0.1088550847444335,0.16729154006740826,-0.05926069369563155,0.010281378340399954,0.9102960785668786,0.5862079475146423,0.7221858688739766,0.5932636300813795,-0.7834603893751918
0.642,0.1899216178944313,0.040456526858256694,-0.14943445397014904,-0.11372996995693646,0.16778522589310416,-0.05619153012923558,0.006431635943716436,0.9118760663265452,0.5886506862106564,0.7287642890436647,0.605666715910593,-0.772353164965143
0.644,0.192904676044885,0.04414170565182572,-0.1487828293531902,-0.11760254030252668,0.16908966180797474,-0.054455497215618584,0.0016157991784407119,0.9098783310730719,0.5894624378869799,0.7327646851713567,0.616296435728232,-0.7628528229571596
0.646,0.1972558718995506,0.04557921797741374,-0.15170271373640262,-0.12068220293831335,0.17260384103666113,-0.05532247287328424,-0.004504058968754678,0.9074686674299173,0.589756995963691,0.7356543166739024,0.6234980099570415,-0.7541679270711878
0.648,0.202191491627117,0.046952804051858206,-0.15521837476848943,-0.12380987642385649,0.17693567952282027,-0.05661804473937652,-0.01150307738982466,0.9078475950376169,0.5906595634285158,0.7398515485164441,0.6281964092431422,-0.746100471961751
0.65,0.20712559022705102,0.05151180692409307,-0.15544710827304908,-0.12819776552484072,0.18002001084791538,-0.05451546883091586,-0.018419245214704796,0.910552826190589,0.5925412958910103,0.7459148697379188,0.6336138983294142,-0.739427769488291
0.652,0.21196132586198874,0.05904105121926638,-0.1524323089121861,-0.13369028827136145,0.181265482194957,-0.04849418718035574,-0.02412982618343948,0.9116097325912899,0.594467054934182,0.7522773020661333,0.6416016964947132,-0.7340287083385668
0.654,0.21546210669727958,0.06486772430643632,-0.14971688207642794,-0.1378229994395577,0.1813351701458686,-0.042909217090959885,-0.028609692610944537,0.9079950504325897,0.5943086513333765,0.7566198244111706,0.6502673028726818,-0.7280341338984662
0.656,0.2159379994640425,0.06523053613966123,-0.14970771028423052,-0.13825756211828163,0.1811380804249591,-0.04210403046102241,-0.03337470446405099,0.9007380877172054,0.5903841213021673,0.7577081227527229,0.6560574385821606,-0.7195729493039058
0.658,0.21393430036976985,0.061629302291725314,-0.1516312664002266,-0.1358918434414969,0.1814141729397008,-0.045549125415420486,-0.03980878286976185,0.8925245830619514,0.583596421746433,0.7565803656369805,0.6572865155952542,-0.7089470912389694
0.66,0.21236712319927054,0.05875434324913493,-0.15337260730208158,-0.13417319573132228,0.1822401553925672,-0.048764161984133414,-0.04717957735236812,0.8848813511433451,0.5771852077785994,0.755360344861714,0.6553799158981344,-0.6990023656309162
0.662,0.21317190693766525,0.05924723365681464,-0.15369889327508715,-0.13499276792551212,0.1828030374177765,-0.048489857739074695,-0.053094039167389036,0.8782419306854997,0.5735001884066766,0.7547174056719633,0.6533389904420979,-0.6927195667003544
0.664,0.21525195235909822,0.060969148303920924,-0.15369638887539439,-0.13655824727876567,0.18279233926284352,-0.04666565012458279,-0.05625139155119719,0.8714704459017825,0.5714017552802624,0.7532284607025627,0.6531135693274371,-0.6900414094140436
0.666,0.2167985340588311,0.05994367406222895,-0.15613867330891412,-0.13646768761077605,0.18359488954152936,-0.04817941664364811,-0.058092464724825287,0.8619023444375734,0.5676457586939084,0.7495306960114317,0.6547291597728867,-0.6884610913846155
0.668,0.21785632845181013,0.05583901598996331,-0.16168295629208745,-0.13533496813286555,0.18641165190910336,-0.05420414618080225,-0.06100268517601012,0.8489458967271349,0.5605058697553061,0.7444692665257499,0.6577330014054701,-0.686863815524015
0.67,0.218966571657884,0.0524937646599498,-0.16661470376570167,-0.13524022334111835,0.18968643080586683,-0.0600027603440168,-0.0655748321945357,0.8358763096656381,0.5510606131852192,0.7401742255413772,0.662067940950323,-0.6861612586399183
0.672,0.21885727026774776,0.052963894877788194,-0.1661447440527744,-0.1359404871524866,0.19013661686579406,-0.0603045580053538,-0.0709636558038369,0.8250282367806895,0.5414143535866949,0.737187544149654,0.667024030193658,-0.6858730125456797
0.674,0.21584428973697586,0.05632940674912346,-0.1595682050721887,-0.1353255251384303,0.18652512709879535,-0.055009557049969945,-0.07670329437185633,0.8140754081881287,0.5330389583190639,0.7339043360890849,0.6703097032292025,-0.683717307739471
0.676,0.21100708808734936,0.05943695489694961,-0.15146180186673183,-0.13302894722137362,0.1814051074380794,-0.0487823442107686,-0.0819751487087278,0.8004772625398597,0.5259293609270989,0.7288413690738407,0.6695312960590253,-0.6796780036136761
0.678,0.2075952512190785,0.060277165560599116,-0.14723699451182531,-0.13119448427973324,0.17838057485097092,-0.045807138825839484,-0.08516119174905078,0.7856900160585883,0.5175437805734626,0.7215995512490474,0.6645082678219163,-0.6773072567966947
0.68,0.20747566433593503,0.059398807573922574,-0.148096710482759,-0.13163605104189413,0.17858315945258557,-0.04615807963517867,-0.08681105751988286,0.771097095243848,0.5040621435712379,0.7116084347583502,0.6563453746140269,-0.6795223076849861
0.682,0.20958405861693866,0.05854689438779416,-0.15109074644925283,-0.13359506997343792,0.180485689095723,-0.04747766156612073,-0.09008440143694106,0.7541477720045199,0.4854141296038283,0.6982182930816745,0.6457166735516844,-0.6849930417280296
0.684,0.2108538738373566,0.05857995256080386,-0.1523106353020039,-0.13452523617122136,0.18141324957668717,-0.0479192259475779,-0.09570348978020002,0.7325462829803926,0.46720370395339966,0.6822804816188562,0.6345749508631895,-0.6901485166765224
0.686,0.20824611832808484,0.05924185878033758,-0.1491134167251607,-0.13278564271731627,0.17874697628499203,-0.046368438712319014,-0.10023794697571765,0.7080652602434192,0.4538934818381566,0.6658856259432089,0.6255293084174752,-0.694133814957718
0.688,0.20097319231823782,0.06062710405938169,-0.140632927693029,-0.12920739515862584,0.1711560355553568,-0.04166645267359172,-0.10166725242060073,0.6830156845906221,0.4429491006489665,0.6509281174136898,0.6171904624383618,-0.6998171062392774
0.69,0.19078743349978242,0.06352926901863318,-0.1275526419961978,-0.12565746902656916,0.1593356994334142,-0.03332799524884775,-0.1024599483392984,0.6580186835317546,0.43014006411832734,0.6388180604400656,0.605704379868111,-0.7088682671043092
0.692,0.1801270631275579,0.06780534299215063,-0.11226153561197749,-0.12269691038332577,0.1456323864191576,-0.02302415327998556,-0.10487809842769194,0.6354186132119267,0.4164241682028923,0.6297399646293078,0.591706814943685,-0.7182166130019964
0.694,0.1702354911787032,0.07162895197137,-0.09816210605440341,-0.11953521145754022,0.13267836784825193,-0.013977433735649905,-0.10684157670665055,0.6185777768709811,0.4054090114249501,0.6214318478376045,0.5797379817382355,-0.724044169168192
0.696,0.1607157104223662,0.07284318429157423,-0.08744470450124507,-0.11536977915608267,0.1219371816221438,-0.008322638225305556,-0.1047329702843095,0.6058963778548008,0.3979313452779909,0.6108995967760474,0.5708552395465848,-0.7273002101666081
0.698,0.15057236295982904,0.07056407410850704,-0.07981322186867423,-0.10960584877694768,0.1131236677174091,-0.005711531833076879,-0.09842417817020006,0.5906440070067499,0.39114882454432687,0.5976388919164807,0.5610867970685651,-0.7321980334598963
0.7,0.13985727058925998,0.06608628619540777,-0.073482677379975,-0.10222386892444424,0.10494454103523744,-0.004249270287211369,-0.09168860453019403,0.5684633252600272,0.38033810227132914,0.5832997681236829,0.547392773549291,-0.7406522585654884
0.702,0.13022620206870403,0.062252731817165105,-0.06723624434281983,-0.09488427168761512,0.09700961570404448,-0.0024106630470137873,-0.08799601989422984,0.5419662653709916,0.36262473548203433,0.5683060848285285,0.5315221382614799,-0.7507421519622092
0.704,0.12282403837882261,0.060766683037176195,-0.0611620498554293,-0.08953147943235468,0.09019201507517939,-0.0002245749845993585,-0.0873319944588281,0.5159362294421777,0.34073195382678617,0.5508351610830965,0.5170842025300791,-0.7602996198950366
0.706,0.11602009014968766,0.06058547153973572,-0.05515393517043916,-0.08565824720553025,0.0842932638237233,0.0016839720477293595,-0.08703258347101478,0.4914139506340029,0.32088063459276106,0.530478988053805,0.5049258155607176,-0.7699771905685243
0.708,0.10751794500651364,0.059967500500399507,-0.04819794747859548,-0.08146431318550766,0.0775333048921098,0.0038776765546698825,-0.08433160560539353,0.46769811833198843,0.3063915725407675,0.5111302132113424,0.493094052248019,-0.7813145905333378
0.71,0.09782325405585017,0.058678454428441607,-0.040096097085519464,-0.0768066843671253,0.06928806289512715,0.007469999222980334,-0.0787489671209405,0.44549238799802876,0.295204733894674,0.49690327147293756,0.4800935203713595,-0.7935158698653997
0.712,0.0888222625206403,0.056877399317362146,-0.032387985561895795,-0.0722679763306562,0.060980662783830034,0.01169200281378045,-0.07305269016984421,0.42473451540052837,0.2835543072336721,0.48655340767207933,0.4657936761395459,-0.8046371475927399
0.714,0.0806395520090308,0.05381909961564257,-0.026733573952383682,-0.06713248794977193,0.05385556378076538,0.014110663252347617,-0.07054254014007391,0.40395023221177884,0.27022641566663247,0.47547654490340147,0.45014373712724154,-0.8140361295923141
0.716,0.07247590127948665,0.04938580701256516,-0.023084752153815925,-0.06072753745471798,0.047597882412520866,0.013876883110998179,-0.07087894629704442,0.3834254429786685,0.2564218206948028,0.46187366918733974,0.4336156217757487,-0.8219092920500055
0.718,0.06431051700739333,0.04535211640620417,-0.01932988610927898,-0.053966203934861616,0.04086774605026063,0.013293641100230286,-0.07050852133198962,0.36538171254089014,0.24307591944186988,0.4477588496217986,0.41806813634263573,-0.8287376727197888
0.72,0.05624076686710044,0.04393119042824098,-0.012718400714779601,-0.04849915815503023,0.03261613517109118,0.015536481986884246,-0.06777097877941393,0.3504288814526046,0.22995520954567283,0.4341555466743689,0.405158435036505,-0.8357062852645288
0.722,0.048300847865861245,0.045395271871371684,-0.002981154473768101,-0.04524090752159639,0.023725936857626303,0.02098655249204689,-0.0651210090492782,0.3359397000445103,0.2170674941647669,0.41899206356667956,0.3946543242377106,-0.8440785024906006
0.724,0.040862881756272895,0.04701186979448858,0.0063514503677676295,-0.042983061248444795,0.016519545505769288,0.026172369000110687,-0.06485739745184047,0.31879556144708576,0.20580550479329518,0.40182409608586145,0.38509311385868095,-0.8542993658890871
0.726,0.03361102658624566,0.045382960265229255,0.01203812906370289,-0.038878600686170044,0.011397692330339193,0.027671162618890275,-0.06530997979268284,0.2989786587188352,0.19717774614403402,0.3869495820126811,0.37532566230247844,-0.8654570772223146
0.728,0.025522805125156978,0.04079754735331369,0.015571321665651835,-0.03202768309001492,0.005839215228204429,0.026693483286292254,-0.063204684880817,0.27919662181458393,0.18941310544197845,0.3784956072694907,0.36574217657896696,-0.8750677813619313
0.73,0.016719522377519096,0.037104883274215704,0.020719769556848455,-0.025104617253200016,-0.0019797152874390057,0.02733900926871299,-0.05777988915978503,0.2617552689342406,0.17985819035451692,0.37472396483461645,0.3579179550414467,-0.8808270516608672
0.732,0.008153433079338444,0.03626176821551991,0.02833819940916381,-0.020511866636707853,-0.011033597115669137,0.030877962457940843,-0.051478010327570996,0.24710457302968888,0.16853838059990509,0.36979033912462156,0.35188553541332573,-0.8834829402344896
0.734,-0.0002376050196044485,0.03580933262050447,0.036056979226823924,-0.016892438536357936,-0.01939666031890701,0.03443514285796207,-0.04782000150828341,0.23414819321657926,0.15763301849102615,0.3598850320465272,0.3450227055852826,-0.8865675397916831
0.736,-0.008012704895155334,0.033055341258621015,0.04095331757879371,-0.011999909952804434,-0.02531745448940866,0.03497838085863044,-0.048737314339412315,0.2210358840944914,0.14864529305151353,0.34612706966061524,0.33504695730627093,-0.8922520140903136
0.738,-0.01277631072945479,0.029169996444194348,0.04187845916520836,-0.006989191078470741,-0.02745362082098664,0.03289522332673957,-0.05288384460955161,0.20671891099976822,0.14152595595221024,0.33273692547006317,0.32298235197515635,-0.898853621831079
0.74,-0.013713160417108202,0.027242782242858546,0.04098291230450396,-0.004556331350053906,-0.026960851846806945,0.031301810908840016,-0.05639932518764272,0.1921544108452468,0.13570353504082427,0.3233676475075709,0.31242201628041444,-0.9037457659617409
0.742,-0.013678726591464024,0.027797210626896822,0.041525731507852645,-0.0045119340707520175,-0.027061535068842093,0.032053570194113576,-0.05651518804354985,0.17931124139233087,0.13122108978299227,0.3181011305205304,0.3059991949934007,-0.9068725510783344
0.744,-0.01577766644958304,0.028032956029440663,0.04382007492842337,-0.003868834377030143,-0.02934997961024574,0.03352087755836755,-0.05433557303766431,0.16852467492831164,0.12864763262413334,0.3139146283350901,0.30270516904352696,-0.9095340686127652
0.746,-0.02054178304772091,0.025407044740228805,0.04592631928687714,-0.0005367004910668409,-0.03298855958519351,0.03341782506818699,-0.05287302920494502,0.1579931018777645,0.12749174029845062,0.30835378496496346,0.29913333777957346,-0.9119772620166184
0.748,-0.02619969048267717,0.021000202651143704,0.04718398577225802,0.00411736043274399,-0.036656844601852374,0.03233146185594341,-0.053255239017251065,0.14717877988867617,0.1253905415821696,0.3019680858629367,0.2934292140430963,-0.9141767383190077
0.75,-0.030044620874184472,0.01843318771771246,0.04850441464076662,0.006716343656974865,-0.03935045230582826,0.03259467304047185,-0.054438202258874906,0.1382809055040413,0.12059333218790261,0.297321197183668,0.28712119323682017,-0.9166750134705363
0.752,-0.03067605919275075,0.019950770080594732,0.05079098776338143,0.00563214141158138,-0.04079138518671875,0.03525329012310459,-0.055897409954306906,0.1322038836235186,0.11495931979569855,0.2961218281274315,0.2824126820358036,-0.9192137398205626
0.754,-0.02934356009874286,0.024512483286285334,0.05433937922233929,0.0023708081875064603,-0.041833247171995366,0.03952848396554513,-0.058443443161939654,0.1266184096222096,0.11205106246762184,0.2972621275276375,0.27911061072642473,-0.9206363798540886
0.756,-0.028435607469757342,0.028862747081874425,0.05819695627334889,-0.00024979659114902897,-0.043337143239464006,0.043457408798566764,-0.06190371567993816,0.12029086761037557,0.11238109830182938,0.2978570758336713,0.2758566401495427,-0.9207528401360153
0.758,-0.02926739371548768,0.02996759347081402,0.0603901210078367,-0.0003112779725960359,-0.04519993429388734,0.044699451765133326,-0.06447701267782505,0.11549195188706493,0.1131034803739773,0.2959976928552115,0.2726216275724009,-0.9205391581994156
0.76,-0.031526458341007445,0.027485034491648557,0.06014543167763068,0.0020572602986239376,-0.047050190354813046,0.042578674174790436,-0.06577199051688556,0.11391679557833956,0.11195521428913581,0.2919137921320253,0.2695855918441039,-0.9209495607297268
0.762,-0.03395346086899814,0.024056720216966653,0.05897798179280688,0.004995436134802363,-0.048747348359945555,0.03936483712160307,-0.06780623132934938,0.11328107419710032,0.10930097409252969,0.28682832476407016,0.26551042462714497,-0.922793855993322
0.764,-0.03575882722993792,0.02254251705097016,0.059072932864084174,0.00691170525467728,-0.05038866719068035,0.03835475096906896,-0.07138169917686034,0.1101448249763591,0.1069165931686984,0.28162227042583055,0.2599063260844705,-0.9263258988379992
0.766,-0.03769944828146294,0.023356223358617853,0.061544296214294525,0.008037609734138976,-0.052633016234667394,0.040673068586439785,-0.07427387529445575,0.10412667868150785,0.10608331645345176,0.27689940321921286,0.25487028370405795,-0.9303876333236023
0.768,-0.04085302741077223,0.025035250412663166,0.06601083266464468,0.009358708768304604,-0.055998761425223434,0.04459456524833285,-0.07442231248120514,0.09750647669065869,0.10658489665996838,0.27391912297323784,0.2526881481431963,-0.9334794798622968
0.77,-0.044717583290172634,0.026126062760078575,0.0706918517138802,0.011101362992319667,-0.05959227485157484,0.047679717925763206,-0.07237339452163982,0.09250416430984032,0.10725150308583382,0.2739801683756611,0.2531475254749227,-0.9354898380808437
0.772,-0.047785903249836816,0.025461348352958376,0.07296060853166239,0.01310334493740884,-0.061656086286249405,0.04842092351794241,-0.06985586862404534,0.0901737979539247,0.10733308262219905,0.27596849023651604,0.254246899125674,-0.9375219853992156
0.774,-0.04927539418226971,0.022508185469250604,0.07132159678163591,0.015321478404513993,-0.06145690200382282,0.0465151991413947,-0.06804975977051977,0.08985970104047135,0.10691415521068943,0.27643716060175566,0.2543170008094902,-0.940543307895211
0.776,-0.04946782711838002,0.018975817998011135,0.06774009008814527,0.017193522634203293,-0.060202548406117086,0.043600789949919345,-0.06739781785045061,0.08978721783482527,0.10606584332440455,0.27328975018002816,0.252472104823313,-0.9442140129113956
0.778,-0.049107981545883916,0.01790236085328171,0.06621378955617865,0.017582304305207498,-0.059684144553260855,0.042572619474688544,-0.06766139769026457,0.08971253667839293,0.10450403717080789,0.26793690327850367,0.24819266674111656,-0.9463626024994246
0.78,-0.04884393276804632,0.019690586907389868,0.06780380548934359,0.016247871977502465,-0.06004123930719835,0.044052590296220814,-0.06811498059563353,0.09088787566957383,0.10253088136020401,0.26360417965599187,0.24239178385933777,-0.9442235270267716
0.782,-0.04909692067456323,0.02123460505723677,0.06957119137963315,0.014812321206471635,-0.060107667212059346,0.04538692493699593,-0.06811605790174499,0.0929769436109662,0.10160798640230494,0.2625123513806882,0.2379413957660775,-0.9373989321853312
0.784,-0.05064443590553842,0.019620856839439343,0.06933478593272302,0.015651744457313058,-0.0599597269221214,0.044288096474943646,-0.06728087251004822,0.09408581421825536,0.1036421335854325,0.26473284137068137,0.23688040348823877,-0.9293742929550338
0.786,-0.05449577640918479,0.015015864013670763,0.06856311669248101,0.019862216559088142,-0.06126904894789548,0.04135253834948565,-0.06549851412302175,0.09360556035238186,0.10923785359686441,0.268844204234477,0.23772452948507186,-0.9247859340623548
0.788,-0.06008784082671863,0.010241698475496965,0.0697285712856871,0.025863061328746287,-0.0647676222883149,0.038882298158167225,-0.06341163816139343,0.09272810992931557,0.11590663361916392,0.2727068923260751,0.23736974400869296,-0.9249370726003938
0.79,-0.06482737137165825,0.008369597544209108,0.07311368530669964,0.03011891317657006,-0.06896351654642183,0.03886059789642169,-0.06222495443769416,0.09232126364235264,0.11943021013262727,0.27431710425277156,0.2349011987356719,-0.9272982442341773
0.792,-0.06648925535761029,0.010469484329616278,0.0771464576162938,0.0300953515060199,-0.0718373446556587,0.04178363844057079,-0.06238251836840402,0.09150232400101643,0.11811372030285147,0.27312029254740045,0.2315628654112486,-0.9296169993648219
0.794,-0.06490996042771735,0.015204864136267367,0.08011202857132371,0.026361370113147188,-0.07244550098972494,0.04623843666644945,-0.06307586970522366,0.08939240165917102,0.11437523089668902,0.27024855095024086,0.22813099183882907,-0.9322743313076568
0.796,-0.061452536190800836,0.01977528981274851,0.08071517316590007,0.021755187686610666,-0.07083481255235591,0.049550186814500276,-0.063359029239555,0.08804590942757613,0.11210823231058208,0.2671780272841514,0.22490176028176387,-0.9356722834431664
0.798,-0.05789717802799756,0.021620023144740274,0.07851937929868173,0.019012250372336247,-0.06780303133706596,0.049578960134520865,-0.06335149657119421,0.09057712779597614,0.11312880431923511,0.2643767546334707,0.2228579350610948,-0.9381646032379258
0.8,-0.05537400402752535,0.020232712288899724,0.07441976985966695,0.018854709013092504,-0.06470159701837025,0.04624235177367431,-0.06429260184845803,0.09562831918501254,0.11563224926543225,0.2616739141742068,0.2223480694599191,-0.9383261626112092
0.802,-0.054023981266703346,0.017235349561697665,0.07016382122057421,0.019918118257908145,-0.06273395884233524,0.041549952008913114,-0.06690680353570788,0.09784545706140511,0.11662996015591295,0.2598709083847844,0.22214250159143434,-0.9371017463688657
0.804,-0.05359538676814564,0.014794018890833325,0.06743525348453723,0.020529575135619628,-0.062281586239707316,0.03822344092980199,-0.0696365509019544,0.09478875319522981,0.1161083504365285,0.26041394792857775,0.22152836379602492,-0.9363530892350865
0.806,-0.053869240258246374,0.014069418091824298,0.06700986445982947,0.0203763836459604,-0.06287265816396928,0.03771192832565548,-0.07014803023989478,0.0896272906706809,0.11720618208927817,0.26301247110044423,0.22155605992304184,-0.9365217538610108
0.808,-0.05482380174058563,0.014640187006702594,0.06847340650620501,0.020466238676917818,-0.06399449845352148,0.03944452991571977,-0.06856985902809368,0.08663526758877446,0.12209579241855027,0.2656036086451356,0.22303518721930105,-0.9364055835750952
0.81,-0.056550707875304085,0.015282580271029737,0.07079944882865864,0.02169779861439471,-0.06563026209162742,0.04194564711093621,-0.06718169643607329,0.08679459905244336,0.12896092834425912,0.2669932272029666,0.22523275242364305,-0.9349882631402507
0.812,-0.05855789735269479,0.015317376231508077,0.07285409792568145,0.023586184561796352,-0.06750298838110999,0.043939057738013515,-0.067274415067123,0.08812627674350579,0.13365091468774978,0.26763994263272023,0.22721901635251338,-0.9332909804408663
0.814,-0.05973590694070104,0.014999639081368912,0.07374387498402435,0.024744930075843063,-0.06866636527561905,0.04470479024337562,-0.06788432943850294,0.08877629668093774,0.13433497018017646,0.26819073678324884,0.2289138865443196,-0.9334752869662315
0.816,-0.05970355931771675,0.014938959164578105,0.07367996781464568,0.02459953352098606,-0.06872225033459242,0.044505359363862636,-0.06705258745953586,0.08900444215430463,0.13376953426113888,0.26901800971324136,0.23097996488773168,-0.9356545939332597
0.818,-0.05955754796788505,0.015685549947524673,0.07439921068887252,0.023921524527904275,-0.06874719017779748,0.044623286169571855,-0.06383688071527223,0.09015628902338284,0.1358441173585602,0.2705183058519352,0.2342086124710882,-0.9370132251966043
0.82,-0.06057422170640449,0.01734816843682755,0.07739596668985634,0.02364669987780721,-0.07007404473264996,0.046023402946511964,-0.059713491078373655,0.09238063232778983,0.1405408843647744,0.27244449089561196,0.23814026737272168,-0.9348280511778239
0.822,-0.06269430830832119,0.019017537288717575,0.08163211636309733,0.023872471163055606,-0.07269657530082793,0.048025994842342906,-0.057406837075890366,0.09435907960567753,0.14466188933890337,0.27349805938991295,0.2411476883866444,-0.9294117732848128
0.824,-0.06528942152291523,0.019773677882879464,0.08537668517620421,0.024129828273261107,-0.07619895349194428,0.04980903356292316,-0.057809056345094624,0.0946790000788929,0.14721452789123068,0.27227665846711036,0.24252564201302076,-0.9237452875519259
0.826,-0.0683624950009306,0.02054867577827275,0.08952841383552751,0.024043335133081205,-0.08089742459582401,0.05253269130308811,-0.05920670994750944,0.09270445082364545,0.15036565535749832,0.2687470905001318,0.24268647316340264,-0.9207106847614329
0.828,-0.07121314154804705,0.023019057397181956,0.09512363915841876,0.02337883381311244,-0.08572462523260055,0.05728061437589479,-0.05972311312404767,0.08933194509436101,0.154710843650034,0.26513283469778554,0.24182547740994323,-0.920636631470502
0.83,-0.07161020175892238,0.02679831478526444,0.09946805151804625,0.021892270760217065,-0.08731106047805957,0.06211407346677937,-0.05954336159025716,0.08687328611540163,0.15757960938053162,0.2641344105830285,0.24040465182903534,-0.9214683159700962
0.832,-0.06828316617609945,0.029864339798239697,0.09909651268117668,0.01947939036360953,-0.08387356561749275,0.06409483411838976,-0.06086842179817886,0.08673946423478474,0.15693543638759916,0.2652568928813457,0.23934719792559528,-0.921756375758691
0.834,-0.06288420227382077,0.03172722909453655,0.09514504887504308,0.016221122091323495,-0.07812977381240481,0.0634396594356453,-0.065469312485741,0.08792208176139021,0.15431573261236056,0.26533014637900026,0.23869573396028787,-0.9225721565725524
0.836,-0.058481667785171616,0.034074847666871716,0.092606965119648,0.012577280453639997,-0.0746307363972671,0.0633104974712981,-0.07167271304598058,0.08862040831489876,0.1530226312019753,0.26349564143611515,0.23808371816935392,-0.9249265911367506
0.838,-0.056677989017433573,0.03756009135184304,0.09404898000483919,0.009740037421232976,-0.0748877602318629,0.06519970567303698,-0.07537802339999189,0.08823072245499901,0.1543293516391269,0.26242783207599396,0.2380741998588333,-0.9269088261956687
0.84,-0.056818388685741586,0.04022642027060681,0.09692195869805037,0.008937120291844096,-0.07661969177695858,0.06711913014979758,-0.07492319728750944,0.08706229483304326,0.1564067560119566,0.26450251570459365,0.23949796510208968,-0.925874353095386
0.842,-0.058123477283958336,0.040413381538275645,0.09857082836301992,0.010275027415328134,-0.0780916995116141,0.0675229775605177,-0.07276682827251459,0.08533035932014,0.1570751867229227,0.2695151206985287,0.24248932826284111,-0.922101401273481
0.844,-0.06119837618821184,0.03910755569433923,0.10038638263299725,0.012854076951332002,-0.08069239779381161,0.06799523405198632,-0.07187883487833224,0.083449865048782,0.15632982857685626,0.27529748510151597,0.2463012419146181,-0.9182590760872599
0.846,-0.06634359721689193,0.038527379656429904,0.10489129117385822,0.01548257901646374,-0.08593291691580503,0.07068165350542918,-0.0728054978044566,0.08233487521729765,0.15558725146018934,0.2788779468721341,0.24911440065921464,-0.916347234450631
0.848,-0.07099333511576562,0.040139466657870736,0.11107718236351193,0.016573902410645366,-0.09168538364691799,0.07513634151921508,-0.07493948269687156,0.0824142206068299,0.15562347662013903,0.27811767631284895,0.24873260935011715,-0.9163364221808677
0.85,-0.07059945670233655,0.04410129540463765,0.1145204508713019,0.01428263650569576,-0.09322032680098849,0.0787141474393426,-0.07822518911895955,0.08292136232964382,0.1560434479502021,0.2734976704877724,0.2446888270283503,-0.9169134141708212
0.852,-0.06372394900096924,0.04910061963846003,0.11234933224081495,0.008415178212509443,-0.0886889323819247,0.07954941025870413,-0.08212060576217407,0.08255405255117787,0.15622546466611012,0.26839859174567604,0.23957906001321425,-0.9164802582216134
0.854,-0.0548623088078215,0.05281554836650152,0.1067919098746067,0.0020618171664628466,-0.0819851134662068,0.07831595638517887,-0.08533540857779402,0.08051529727947254,0.15619366783612096,0.2666984161677259,0.23674864150759178,-0.913682061796433
0.856,-0.05035044491688581,0.053171706964604465,0.10236863716700403,-0.00022913135619943308,-0.0784887853874861,0.07665605956995196,-0.08816551406084254,0.07684476105772241,0.1566834390003501,0.2692063831325676,0.23613131028352233,-0.9084778024905231
0.858,-0.05243518588792696,0.0497686539786073,0.10106376983669796,0.0032365961585907846,-0.07960600540608383,0.07509990059493409,-0.09227810214170387,0.07227368229400606,0.15831801499453133,0.27296519392634105,0.23455650741184525,-0.9032105666094352
0.86,-0.057645403342918226,0.045018296410449764,0.10167014837853629,0.009028848288047413,-0.08248147131740495,0.07355698089535075,-0.09716273450197672,0.06829942938419425,0.16052083345181106,0.27463287533318076,0.23084096330667103,-0.9008775997792449
0.862,-0.0603521943005845,0.04288416797854411,0.10231304410561033,0.011664547433703945,-0.08346039193777609,0.07250888847569657,-0.09973786388870863,0.06643272347153766,0.16162340075269963,0.2736283440473597,0.22743770332575178,-0.9017844463037372
0.864,-0.058165210301204445,0.04497253408981378,0.10219319350598234,0.00915562055887455,-0.08127249753232331,0.0724384450321663,-0.09806095113833087,0.06622709045293823,0.16015401809685897,0.2711814966772832,0.22581469731127943,-0.903461920064163
0.866,-0.05323987988228153,0.04875253074402993,0.10112034029362452,0.004188374969998228,-0.07724590071426743,0.07283819652281186,-0.09371730268857194,0.06523790877033828,0.15611338593863894,0.2679192786855593,0.22373929758448508,-0.9038571963108852
0.868,-0.04848364419882317,0.05065699657197503,0.09859105994043536,6.654224112967629e-05,-0.07295716475625995,0.07261094232573642,-0.0904717213895776,0.062158025549911254,0.15145886765112881,0.2640335815510727,0.21928379480485105,-0.9030537472473142
0.87,-0.04542230336697948,0.04995265185206708,0.0952556424083952,-0.0020000200214384404,-0.06964665954481829,0.071630847890763,-0.09062469796550807,0.05874387594062228,0.14860638701626847,0.2604826469149818,0.21464964659190666,-0.9019593737298425
0.872,-0.04584720413895305,0.04860821836772494,0.0944771621682109,-0.0016327506627220947,-0.06969864900592121,0.07147571204079725,-0.09280245113310935,0.05745033631908089,0.14806561681337657,0.2584737744160034,0.21356527783827733,-0.9010914651202363
0.874,-0.05056519147318269,0.04830856601353627,0.098534306462296,0.001208844492026413,-0.07437255063012127,0.07324126561626672,-0.09411898535590464,0.058111203710844564,0.14839649623843737,0.25823778245790874,0.2164880829433465,-0.9008568856828015
0.876,-0.05617489390082127,0.04888132673800039,0.10413532333803048,0.0047906685862150085,-0.08016386126582074,0.0753315787187032,-0.09377606443738312,0.05793725558684106,0.14798272760444528,0.2588751727605866,0.22020247035767157,-0.9011419091584992
0.878,-0.05821675677956647,0.04909842031829811,0.10609565159783214,0.00664572905931787,-0.08220678905904556,0.07549889122777814,-0.09349238745562043,0.05466368683295005,0.14621155954794038,0.25930785799204115,0.22150078276271917,-0.9007702893117108
0.88,-0.056616459249554274,0.047683310760645956,0.10328961616301573,0.006567665583017001,-0.07990380625106558,0.07332915491124302,-0.09491209498677379,0.049116075458882864,0.14370877660275627,0.2592056124957891,0.21981188925617615,-0.8991327923052977
0.882,-0.05393095378686177,0.0441230464158456,0.09757745511637979,0.006304804127456437,-0.07549877511597886,0.0692464962117476,-0.09742989672668761,0.04383044565290493,0.14155815806388075,0.25871396773314703,0.21611650532821425,-0.8974591581388706
0.884,-0.05097747434700196,0.0398159996354574,0.09080339740076408,0.006472373965404158,-0.07041805879639858,0.06409542068425504,-0.09902000835861399,0.03960568950105878,0.13959638186462198,0.25721608823474934,0.21084106387554657,-0.8972268552611901
0.886,-0.047706570329982975,0.03737791923750621,0.08527132589117097,0.006148949629274862,-0.0659076431023128,0.06010015936963932,-0.0988207094889151,0.03518888744515073,0.13637222057642975,0.2533961021805758,0.2042085559713512,-0.8983687865443738
0.888,-0.04542626011010827,0.037734858277776846,0.08324998913991026,0.005156305364608144,-0.06378169602077519,0.059165489561424714,-0.09788756000685703,0.03063671033052561,0.13233924926888993,0.2476262287320884,0.19818485408991066,-0.8992514134358477
0.89,-0.045701647152291955,0.03906696196800982,0.08474159558632434,0.004695975720012999,-0.06479958065143672,0.06057457172538784,-0.09751264378147308,0.028577571404056933,0.13084854585141673,0.24294194150180676,0.19585550163706156,-0.8979898898306776
0.892,-0.04931227217862356,0.03898014041984931,0.08835466160484741,0.006269220831047279,-0.06883938941269514,0.06231696839764575,-0.0978265723114611,0.030124221823508292,0.13302329048529066,0.24175289336571207,0.1976282085340485,-0.8946900269439619
0.894,-0.056219581481454665,0.03675106517545663,0.09331330324076237,0.010664449143632633,-0.07572966953513226,0.06356414049722132,-0.09818054257833268,0.03200901187721117,0.13495719812061063,0.24266344008214166,0.19988421992941421,-0.8918912904194192
0.896,-0.06389119649452803,0.033551005669396665,0.0980520314852729,0.016573171709468818,-0.08300289672515397,0.06424797827248771,-0.09826799414215323,0.030594590222219317,0.13359363174084804,0.24241016717948421,0.19886904823501156,-0.8916648438910647
0.898,-0.067707716671148,0.03129410322433043,0.09975779050356941,0.020408191498834476,-0.08608968450530913,0.06386220897718758,-0.0986006960142879,0.026407380118939887,0.13121755635667548,0.24006353431830516,0.19435378534323064,-0.8935910122419488
0.9,-0.0660263124775536,0.031240435733842567,0.09813527652579826,0.019621685845281473,-0.08405323998255237,0.06257168810529128,-0.09981857410613851,0.022546654615345163,0.1304734956876183,0.23733221967118626,0.18879928174594152,-0.8959680282973338
0.902,-0.06256057661942688,0.03294437992758021,0.09648094824384981,0.01604640921001142,-0.0813496212481858,0.0619306748680057,-0.10157013818890165,0.020436253676539725,0.12958181555026807,0.235199953053802,0.1847090180278828,-0.8973887123261516
0.904,-0.061921458347521614,0.034463332134183115,0.09732115652368116,0.014163891372758919,-0.08189844392589728,0.06302495448443962,-0.10267156818281026,0.018483331063543492,0.12605041866824454,0.2322578851465379,0.18261691937414543,-0.8979794162210769
0.906,-0.06477633332036116,0.033946225895397475,0.09943578093805848,0.016202187034523315,-0.0846823078834645,0.06482790144819435,-0.10257336970851837,0.014390953047939177,0.1209871504194962,0.22690850893657075,0.1800311523373199,-0.9001832845459941
0.908,-0.06819958861351362,0.03086312269142739,0.0996033659937923,0.020328928586579868,-0.08599773683892634,0.06488169107694317,-0.10194907706661034,0.008448423633421041,0.1168450159601101,0.22011670769284172,0.17368030515613686,-0.9059253364373592
0.91,-0.06946027934202502,0.0260929280539072,0.09611514849904446,0.02349745322274419,-0.08397546546458849,0.0616838306000161,-0.10158636950230256,0.003711389323620704,0.11389783386002966,0.2144126973695919,0.1641494257373447,-0.9127152015764041
0.912,-0.06861344311180924,0.02152270894611842,0.09067488585205002,0.024544445583099105,-0.08015016999968164,0.05663487268958805,-0.10125750909415773,0.0021268276812365992,0.11071155653523904,0.21059324403327095,0.15609375470186157,-0.9159317268731174
0.914,-0.06754935072849672,0.0190126492312123,0.08681736751038846,0.024275805522400298,-0.07734865958550935,0.052961454664607534,-0.10008153675526583,0.0021089901362974857,0.10651273329369584,0.20768939465034122,0.15272507083988704,-0.9146882833505938
0.916,-0.06768365059568877,0.018825849422086236,0.08642345594687247,0.024087043772377817,-0.07708823793139645,0.05240143214271413,-0.09774516493468985,0.0012121750794643741,0.10235182442309163,0.20583201965010328,0.15249020377907524,-0.9123404997392872
0.918,-0.06930106405233359,0.019377230876039705,0.08851852911005571,0.02513902042965627,-0.07919916358671182,0.053832377815880655,-0.09506845420561381,-0.0010133400980169112,0.09952605530024539,0.20591172227426366,0.15209859159810118,-0.9119881663520664
0.92,-0.07155815385412356,0.019477273633086004,0.09113854252021665,0.027271876295272716,-0.08249826965239777,0.05544218604397679,-0.09364817610132518,-0.0040818027270621005,0.09675015970484226,0.2058307962025969,0.15024334689284058,-0.914153177670182
0.922,-0.07236764226923638,0.0200718504803596,0.09299215306658358,0.028317692778840994,-0.0849579444012746,0.05686694014929999,-0.09462829261259709,-0.00804272773761817,0.09142161936549328,0.20128648120688516,0.1472345273207938,-0.917871477194674
0.924,-0.0704681887959396,0.022191873963703104,0.09362533930383622,0.02659849659319855,-0.084981656369578,0.0583737906067071,-0.09717675570217572,-0.012460109319002852,0.08435863920959681,0.19226550522204391,0.1431710012638702,-0.9215122393862428
0.926,-0.06751476290965898,0.024554597645109706,0.09321902245034855,0.02362569317276137,-0.08320791474651092,0.05936640770423012,-0.09900432934425682,-0.01565871749762893,0.07972094913186947,0.18445039798539636,0.137801307721987,-0.9231175258659368
0.928,-0.0657666347573428,0.025240330074650534,0.09210205140957378,0.02189137492754982,-0.0813862684602472,0.058825848760704035,-0.09893937165337831,-0.01638100576929969,0.07991853486318365,0.18225344144588607,0.1316675896854507,-0.92164358338478
0.93,-0.06524433757653096,0.024369179030673437,0.09058766996231836,0.021531287417320973,-0.08021402056936879,0.056781212476080256,-0.09795525042425278,-0.01549806277938366,0.08344916135295784,0.18408215143733464,0.12676654931660544,-0.9182195656740225
0.932,-0.06551131117926279,0.02352689271327757,0.08997678077249081,0.02148098627430072,-0.08017275610880437,0.054976557765898826,-0.09748266761549955,-0.015262531407694149,0.08676586698686435,0.18540724313835538,0.12504727958435594,-0.9159900749522064
0.934,-0.06777939239684899,0.02337404671585101,0.09211585770311369,0.02208132171943814,-0.08252249769550972,0.05532612683211769,-0.09755645715178665,-0.016960537351550113,0.0871079305298547,0.1841702140825691,0.12619776049727288,-0.9172106957931846
0.936,-0.07289471274906542,0.02277992783446253,0.09652497970043826,0.024628827596596275,-0.08724031421212701,0.05725783068150116,-0.09663999141590193,-0.019574582977560484,0.08517578812815998,0.1826333272358303,0.12828197552845386,-0.9197946648679608
0.938,-0.07926835632724157,0.02069644254176431,0.10035147419491255,0.029188127663972434,-0.09199811444537014,0.05843247896651364,-0.09339723421194154,-0.021060444419324892,0.08448824820561664,0.18414337319965218,0.13023336939587243,-0.9193163439890656
0.94,-0.08458888924582587,0.018259597749596564,0.10246046287809053,0.03393423031067461,-0.09505319854125993,0.058569832446870355,-0.08897055969931442,-0.020760785982649646,0.0871411129178843,0.18841012433451323,0.13246199880825973,-0.915144645191708
0.942,-0.08842313898261166,0.0173363816407481,0.10468425626263801,0.03706212301695217,-0.09742645559910833,0.05967445545583579,-0.08652160946635896,-0.019837063689198867,0.09165201040034072,0.19149218278377986,0.13539011911940396,-0.9114379856983837
0.944,-0.09135248977374047,0.017861731339974575,0.10791819258623966,0.03832358982863386,-0.100323879206216,0.0621885188584891,-0.08823470278522828,-0.01960908792360034,0.09467290180046334,0.19021464468697288,0.13773710466369862,-0.9116313646032609
0.946,-0.09245808258036875,0.01867156854589682,0.11001439695283007,0.03787600113854551,-0.1021206751484722,0.06408268989393893,-0.09358019989089948,-0.02047131066853412,0.09378765587476295,0.1847849531440758,0.1367687164492023,-0.9148894298836048
0.948,-0.09077884621289674,0.019397131712978452,0.10926921262949399,0.03595145975964882,-0.10091052124205971,0.06401324421010886,-0.09975989853738898,-0.022223338514078057,0.08976820418131105,0.17779250670832555,0.13180170934442972,-0.9183636995439417
0.95,-0.08815485465369964,0.02004033352463295,0.10732212161570187,0.03413567919089832,-0.09820015812852069,0.06286249977610314,-0.1037214045181564,-0.02476668165678084,0.0858296327762805,0.17222098915999995,0.12626306838099402,-0.9208090618188958
0.952,-0.08647181019705132,0.020321292771171548,0.10594654557923083,0.03372343463348055,-0.09614157957935514,0.06171257575137533,-0.10520910065576633,-0.02854730889993206,0.08391979615947591,0.16977682735610142,0.12361468470860075,-0.9233123724942872
0.954,-0.08377799460478687,0.020167966110622444,0.1033700710954538,0.033199262262885144,-0.09326589032597542,0.06006502600200057,-0.1069114123701059,-0.033752816558210566,0.0833560716957325,0.17002378132028467,0.12285884686157052,-0.9271222917990731
0.956,-0.07745044646365057,0.019810549865860717,0.09713726221639589,0.030397643272793592,-0.08715681935541245,0.05695200153384373,-0.11023771710249448,-0.03884991082860122,0.08291747806085877,0.1711012159864068,0.1207909211226153,-0.9313373800467964
0.958,-0.06929311977654447,0.019301883807614762,0.08879368203161443,0.026084236975829872,-0.07945913271843114,0.052868323284765,-0.11293900886422997,-0.04175567228740175,0.08181139422415648,0.1712992212343687,0.11683198206556544,-0.9335020755600102
0.96,-0.06401128705912126,0.018955827211574447,0.08327678730978712,0.023068963612383246,-0.0749583661177919,0.05016977621330582,-0.11202069709845439,-0.04259092774175767,0.0789048479337998,0.16965244057812642,0.11312981497536756,-0.9324223025514619
