time,I,II,III,aVR,aVL,aVF,V1,V2,V3,V4,V5,V6
0.0,0.0005265508965231401,0.0016015923102578845,0.0010750414137347445,-0.0010750414137347445,-0.0003290943103269626,0.001294437620619386,0.006318610758277681,0.00846869358574717,0.004497622241135155,0.0035322789308427317,0.007810504965093244,0.004914475034215974
0.002,0.0037878273706905222,0.011297341291322266,0.007509513920631745,-0.007619212024074066,-0.0021891326885878047,0.009129826264739016,0.04413755120697841,0.059156579048241904,0.03141735415774505,0.024674117167790017,0.05455891746418165,0.03432920649431655
0.004,0.012302463636641146,0.03585551149465187,0.023553047858010726,-0.024319324788687435,-0.006443839760551064,0.028972813863370604,0.1383245423681309,0.18543063808415236,0.09853826144677956,0.0773885858191781,0.17112010280513915,0.10767107592233476
0.006,0.0240820841294503,0.06834278758999245,0.044260703460542145,-0.046664075690951386,-0.011145822706491396,0.05521619786946998,0.25937826585781587,0.34789967277890016,0.18517233080430892,0.14542802565606702,0.3214578617323332,0.20233464439104978
0.008,0.032130629738002715,0.08889088647494073,0.05678219635762648,-0.061079198463042036,-0.012975604798578776,0.0718957598630039,0.33122718580893257,0.44468188042074314,0.23744847033152552,0.18667977184992926,0.411773761912487,0.259575754777721
0.01,0.03150063005907989,0.08698126958726776,0.05563389491432322,-0.05967604651523072,-0.012079076470345177,0.07087792533857044,0.3209539262767175,0.4313457410712448,0.2314191340726276,0.18320292359499968,0.40110661290718813,0.25382489970688416
0.012,0.02416009572790641,0.07293555939956602,0.04925613811774146,-0.048472876060584466,-0.012401927280573133,0.06095131394694172,0.2753931260694269,0.37062605504038154,0.19912745747307586,0.1613667652194545,0.3477465736748987,0.22116645981084554
0.014,0.01570711647149696,0.06336577735656536,0.04854000092683999,-0.038673477659611676,-0.016567757207568475,0.05547324281371141,0.25345554934261644,0.3427836848608449,0.18165183856633552,0.15341176005988602,0.32560117278061185,0.20700614072228654
0.016,0.010120684063418539,0.0641908705738526,0.05507575145812783,-0.035621847883915515,-0.02282307096337806,0.05844895502352302,0.2634226411163359,0.3604005056623305,0.1854240686335863,0.162553563182962,0.3444842139473033,0.2171417862520986
0.018,0.008878346289234743,0.0707665288018761,0.06254065494025093,-0.037928667714821965,-0.02725896959457922,0.06506842809352363,0.27720076519800013,0.38475411928691106,0.19209036731291101,0.17183248345365423,0.3678889808100085,0.22870734671155113
0.02,0.012173398443858521,0.07768533358453981,0.06559600574523393,-0.042810946395529945,-0.02765003819099022,0.07041084636223016,0.27624908921567065,0.3874367596912845,0.19021941777990736,0.1703999772828474,0.37212024791770665,0.22690124899296246
0.022,0.017961331428758096,0.08316272968101027,0.06496671247521899,-0.0484501614903334,-0.025212067272977378,0.07370554840763464,0.26668262090748773,0.37459352182171674,0.18535911092245327,0.1630255941350896,0.3648470008408195,0.218103197008635
0.024,0.021817634481547683,0.08657626995512796,0.06459575307684551,-0.05267578900543251,-0.023165332499006965,0.07588873980471189,0.26116423855633636,0.36547620690666227,0.18612865591714695,0.15963360593185963,0.36113149391065974,0.21426564120870065
0.026,0.02045143291045712,0.08633760623743805,0.06592550585944734,-0.05272375775633349,-0.023799777128111887,0.07641249547142995,0.26226880200071956,0.3675277067970995,0.1908568868032261,0.16232005700060512,0.36292167652978063,0.21643712371630738
0.028,0.014463291413466346,0.08156658845763039,0.06720800642521196,-0.047575443241550455,-0.027128159336220623,0.07402029674624384,0.26441855863424035,0.37431960271822806,0.19108730363052395,0.16513649479735948,0.3629834616864722,0.21727123203308168
0.03,0.007376470718513339,0.07525313757204381,0.0679056405093433,-0.04033543337836056,-0.031578154638719956,0.07026448149095203,0.263942960246633,0.37738815499403633,0.1841256491192933,0.1636915352429543,0.35797918996436406,0.2138079490606799
0.032,0.0024817143878822882,0.07293951641392701,0.07041503896811803,-0.03618219345375551,-0.03558004743708357,0.06965808419416068,0.26395872151419186,0.3748006712838183,0.1762929593622093,0.15997934219951476,0.35258486646112547,0.210947116678272
0.034,-8.102335571610254e-05,0.07678503189250048,0.07682995192542512,-0.036754965624053525,-0.0393437988286921,0.07483185675084761,0.2710944974214203,0.37166589673575934,0.17451004478191542,0.1582607086855353,0.3542297880763873,0.21340349841965217
0.036,-0.0028890102241337376,0.08343872346046935,0.08631186261161437,-0.038700791426838965,-0.044658100948459664,0.0834875748149098,0.28779214944555476,0.3739639509686558,0.17872833787313128,0.15988980617136778,0.36543648336391915,0.21963882469274293
0.038,-0.00781924031906726,0.08894393651053094,0.09667637615949584,-0.038653986102051154,-0.052473869275828824,0.09174139840006726,0.307690391168877,0.3796622487027604,0.18171309857021525,0.16225590155744593,0.37982186308364785,0.22452251693651282
0.04,-0.01430783106802776,0.09339992191654975,0.10754105493994871,-0.03731436292048037,-0.06198271793025856,0.09895366575868927,0.3208939156236677,0.37789373688522554,0.17474777719623577,0.1614167833062058,0.3881007559963153,0.22602609886883596
0.042,-0.020594468159201348,0.0997899937032542,0.12043377839909875,-0.03766859359084795,-0.07198049011672847,0.1077830800883614,0.3240234103753446,0.35923768920810784,0.15487030510005803,0.15579540508884732,0.38819999885763645,0.228760663501581
0.044,-0.025492127353332856,0.11118543512788787,0.13729510813365106,-0.04172703404671879,-0.08239244259181513,0.1217267814051982,0.32178428397167425,0.32344838797440767,0.12607970994418502,0.1473994717499634,0.3852242137531349,0.23943956575005174
0.046,-0.029477094418257757,0.12889354739674846,0.15940271460198646,-0.04938812048999541,-0.09453401997335868,0.14263383826501408,0.3193883411436416,0.2769789146183615,0.09478702433540293,0.14039027138023155,0.3835701133270983,0.25817931791098436
0.048,-0.03366612290634677,0.14921501772190618,0.18368431238586608,-0.057964801432141444,-0.10824669185747053,0.16648666642187168,0.31807661934951637,0.22884291086332872,0.06866465678999699,0.1401349281269524,0.3854127498874769,0.2776759461297611
0.05,-0.03671517468937143,0.16547698227595298,0.20234132969166188,-0.06452724613096888,-0.11953439115779654,0.1847568170251992,0.31708782100555827,0.18795222981244217,0.055039538564572194,0.15132093056044005,0.3959771120329904,0.2934234564271993
0.052,-0.03497275490935032,0.17720800471802198,0.2118762298213636,-0.07052894963535321,-0.1246563211763211,0.19480100069622802,0.3144457630291082,0.15424523393984865,0.04771620128098708,0.17143799941456012,0.4221436905250126,0.3113508718262237
0.054,-0.02723900087935561,0.1906571156138119,0.2175436229605466,-0.08021640824802381,-0.12464098893732757,0.20292736219768565,0.3059798001021553,0.1079886085110497,0.015062357601366481,0.18711735590664944,0.46305089235626046,0.34171542520831755
0.056,-0.01658792439083802,0.2078971817269887,0.22421686987402625,-0.09370292793046626,-0.12239197755571649,0.21371586022212705,0.286060060229816,0.0139929090796625,-0.08845073849403563,0.1824201331066614,0.5083463907683375,0.38842679297906724
0.058,-0.005770663758033738,0.22296771025276696,0.22858245839154398,-0.10657113888471997,-0.11780045778676417,0.223135891380584,0.24757761023132638,-0.1559799361610482,-0.2915186599352313,0.15009268424846314,0.5493666946328556,0.44827702692420907
0.06,0.008113434546822897,0.2315314179094055,0.22355655990211995,-0.11791044122971224,-0.1073614301013157,0.22521526475751322,0.18392437866813918,-0.39773575108280157,-0.5783386361813946,0.0959363784437879,0.5896458294691895,0.5185382047855569
0.062,0.03311728893964025,0.24011271676106094,0.20752308342221562,-0.13507952618589106,-0.08726658902107717,0.22179750929164244,0.09610412380892737,-0.6693247921043602,-0.8881427826586177,0.03860607178491061,0.6439022474532323,0.6026066278608829
0.064,0.07493759459977122,0.2620131494475833,0.18775521770246476,-0.1673088323780719,-0.05767926595452307,0.22297353372262316,-0.006567751089482983,-0.9188440487775335,-1.1557967370066606,5.133784165300932e-05,0.7277919882392716,0.7085688258350822
0.066,0.13006037557093872,0.30314904585879454,0.17355368887773917,-0.2153731615828053,-0.023836367795495247,0.23666274702789422,-0.11723360930705862,-1.1213301397248876,-1.3611117620561866,-0.012631274361129255,0.8467697281792307,0.8418360043562093
0.068,0.18900823819714918,0.3549221153630734,0.16600658295004084,-0.2703872198034515,0.009247088455879288,0.259297980133072,-0.23780218090626826,-1.2883176918482355,-1.5296289208438392,-0.00953807359126795,0.9943605582433994,0.9989430794671126
0.07,0.24628192012809227,0.40489670214795503,0.15850264540416437,-0.32373659784757514,0.0417433988697747,0.28115044413885876,-0.37157650716697616,-1.4514981033862242,-1.6892986546732909,0.0021689070665765766,1.161811179866669,1.169292869416641
0.072,0.30383608206791723,0.44963493793435644,0.14581783377057272,-0.374810744264552,0.07716079297794592,0.2976279466408179,-0.5127982953543176,-1.6372456651051925,-1.8403374875320668,0.030669473177049465,1.3431666509044478,1.3399616551517843
0.074,0.36462637151520993,0.4863072471190031,0.1220199550132375,-0.42390138009651107,0.12010759148237557,0.30416345456861793,-0.643221523073493,-1.8342339247127104,-1.9562577082185073,0.0888374298413548,1.5262608917640677,1.493983182506074
0.076,0.4267517563203288,0.49427134482361756,0.06800621408589247,-0.45972979740731795,0.17878913974147262,0.2807380266865721,-0.738166952158583,-1.981261253992703,-1.997726761005608,0.17899323645254614,1.6857624198490642,1.6049291011627662
0.078,0.4843949127556195,0.44137672352530466,-0.042738376947225085,-0.46252510441000255,0.2627335488728292,0.19822129089471566,-0.782197338403944,-2.0142846179287535,-1.9404263140784266,0.2857336699718851,1.7907699069506684,1.6407786190090428
0.08,0.5318393356664598,0.3147352923925946,-0.21715266470199726,-0.4222503237572438,0.3725367823977616,0.047402447591605744,-0.7815811764274571,-1.9327238316498085,-1.8047279778573229,0.37724221641232975,1.8176552156363641,1.5809366028753757
0.082,0.5681643425301742,0.13611849462416034,-0.43219377983667057,-0.3498841855983536,0.4972461846487656,-0.14888779466269197,-0.7544326585588065,-1.7932233870182912,-1.6397767841295368,0.4231466112043619,1.7589145542091156,1.4298197817538152
0.084,0.5972554509349056,-0.05807995036215104,-0.655266282946058,-0.2669212241789136,0.6233082317616425,-0.35687793707695326,-0.7084988003066796,-1.6349495751795784,-1.4665763792702144,0.42258729153208574,1.6269378701395911,1.2099785868555433
0.086,0.6187221410457331,-0.2450992352604255,-0.8634342217340778,-0.18485010739366958,0.7389390295126984,-0.5549043652603294,-0.6375007622155322,-1.4451231387027692,-1.2620379962163326,0.4065100763576598,1.4503781555559268,0.9473172127900251
0.088,0.625099609233997,-0.4182924756008232,-1.0429071241743206,-0.10204538622393405,0.8329577480289528,-0.7326850059659812,-0.5387936031775824,-1.209596137719629,-1.015575812565255,0.4007905442567696,1.263737214862501,0.6717417010774542
0.09,0.6155593777850802,-0.5700206988723733,-1.185326963434776,-0.02102535388848184,0.9001217792369849,-0.8806435197026372,-0.42527296776363666,-0.9622929408584456,-0.7736308279525167,0.39482961435379627,1.0949823358291757,0.4227529480404153
0.092,0.6016000241632886,-0.6867772811425072,-1.288459955060652,0.04495206440634896,0.9445859966666718,-0.9897235259751006,-0.3171240267368773,-0.7605012732824531,-0.6015786646925958,0.3572568724709185,0.9538881846952024,0.23329848638263767
0.094,0.5894678133312291,-0.7608630073586515,-1.3506233411674384,0.08783848633218144,0.9688330895923084,-1.0560571349707408,-0.22703527490580871,-0.6337677363444089,-0.5204158324772886,0.2730443443592894,0.8280005671580656,0.10555726564248456
0.096,0.5679112717131897,-0.7944986379094181,-1.3627668630253478,0.11457887009992672,0.9632831956810908,-1.0781440762225623,-0.15610691555182926,-0.5780471515777992,-0.5062874764395028,0.1506535614759005,0.6938703591164663,0.01615863710190435
0.098,0.5214692325439646,-0.7934307682813714,-1.3151311502064793,0.13660978781659275,0.9155963891670572,-1.054757232387546,-0.09900676378022577,-0.579572560645543,-0.535766366616945,-9.473057588226322e-05,0.5347320606944332,-0.05637402026728497
0.1,0.4469026273564044,-0.7681561943907854,-1.214930240727211,0.16102881788820272,0.8279229551607463,-0.9936706850438461,-0.04813235389234142,-0.619492066976782,-0.601701769092171,-0.17688956088944313,0.3493442104944704,-0.12047540419023552
0.102,0.3528761325330387,-0.7373131704666174,-1.0897463721338918,0.1927150770653006,0.718739659866704,-0.9164321600907277,0.002687972024408424,-0.6654205682398939,-0.6885347590055111,-0.3678854350734052,0.1508839488909167,-0.1795942773934413
0.104,0.25338408553847097,-0.7158672021798564,-0.9688832977703038,0.2320669218061831,0.6097418804166855,-0.8447104920058084,0.05085827582342892,-0.6821138506722744,-0.7581504079892553,-0.5409678665720308,-0.0381588756806511,-0.2361475008588706
0.106,0.16539489223020185,-0.6993354725822181,-0.8647058303115733,0.26789349040551713,0.5147447163104049,-0.7832898096234526,0.08309995513342079,-0.6525106019295099,-0.770385701817801,-0.6583398821224608,-0.19105784762653646,-0.28612397820736324
0.108,0.10376050753394028,-0.6660278878622625,-0.769946415946527,0.28155835189490314,0.43639374139802595,-0.7188410185251848,0.0889209474352644,-0.5773638495630606,-0.7099551709660575,-0.6967469194140495,-0.28013035199943637,-0.31501287024330177
0.11,0.0711070869587166,-0.5968209543677719,-0.6679254916798436,0.262874885326287,0.36775900577058573,-0.6336681598844134,0.07674865571919683,-0.45987440678814306,-0.5914754530239957,-0.6569269621992507,-0.2875709374592236,-0.3070783646496481
0.112,0.05482052761015393,-0.49491174696741164,-0.5494926151888605,0.22066621530232666,0.299454364553409,-0.5240070028514074,0.06991992905198813,-0.30782701723084843,-0.4455039239211444,-0.5638997822189171,-0.22537280811237562,-0.2643890334083315
0.114,0.03789046248350201,-0.3864054588010819,-0.42412189657774046,0.17599729663598124,0.22864508196900038,-0.40713691651399264,0.08509099956110637,-0.1446566044707476,-0.299471908054689,-0.4526241896370437,-0.1334298304715846,-0.20740151409893653
0.116,0.013245056393567742,-0.29713219836920673,-0.3105081068565524,0.14395602302109728,0.16028887036573417,-0.3055346402009711,0.11923257203085938,0.00561897223067696,-0.16267782149417837,-0.34229460378133086,-0.043231966183361184,-0.14932918509049706
0.118,-0.013024509344691463,-0.22933771936741243,-0.21649914543540927,0.12243630269997977,0.1001923369915352,-0.22448734030438228,0.15780954653223556,0.1418874594717174,-0.027052133404355447,-0.22914212902018413,0.045820909995250306,-0.0826930066207221
0.12,-0.029900789590905072,-0.16694060733989363,-0.13685751494694143,0.09907989453328989,0.05151035789520476,-0.15346481591573452,0.1909947336305455,0.2730619844088328,0.111889682524071,-0.10890988068049655,0.14428387826302586,0.0006624017531519375
0.122,-0.0308324868522965,-0.10176455418401481,-0.0704411115289647,0.0673040732030378,0.017880425151183155,-0.08791957342565025,0.21988673960202487,0.38838017824875676,0.23674450606158848,0.0035305562232548766,0.2428071059205119,0.08843302433948108
0.124,-0.01982250394227185,-0.0460888652793091,-0.02601547687061089,0.034726218270001885,0.0016282282876233889,-0.03808145730593433,0.24802843028043103,0.4624380759528061,0.31904544801617124,0.08276936280838171,0.3169546136061739,0.1546329582212974
0.126,-0.011373956583026095,-0.018191197653089623,-0.00715598251620308,0.01683752234116718,-0.0033746225781577507,-0.01440681217921265,0.271764288497641,0.4859128839073109,0.3473471928642898,0.11458866094583992,0.35222972209566655,0.18217206921900128
0.128,-0.018145880212424685,-0.020560889667025444,-0.0030451755990145014,0.021036404043236825,-0.00872125605021865,-0.012957711629542812,0.28451780415349337,0.47617359492579686,0.33756723364719576,0.10697063738037701,0.35562627764836835,0.17655210552350648
0.13,-0.03644794486030123,-0.0354467080946545,0.0006449108825229351,0.037138515202129956,-0.019117426945788794,-0.018437726800959623,0.2869401921957614,0.45986840806055945,0.3166710525638737,0.08333924316061335,0.34612311647158467,0.15876044035838974
0.132,-0.05158309327211706,-0.04270231918169635,0.008968190088933839,0.0482292595006041,-0.030034446944507222,-0.018402485225982937,0.28577573788194394,0.45307553015970387,0.30177702587913247,0.06397572250264032,0.33773174226636304,0.14439045806345743
0.134,-0.05614111278161853,-0.038415471384799595,0.017955795127163197,0.048563048276989124,-0.03674750995870013,-0.012347632364083944,0.28586242315524196,0.45718362755494585,0.2951788815868597,0.05345824612127587,0.332336962642023,0.13341730055281603
0.136,-0.053322738771572994,-0.031750753315464335,0.02164219915214354,0.0437538258505127,-0.0379423839549042,-0.007330639694119218,0.28862253391467724,0.4679402416413643,0.2943207176203887,0.04775263299833875,0.32748259326875134,0.12243300874349389
0.138,-0.04736345669371016,-0.029327082353327292,0.017947709024518154,0.03892876090177318,-0.03362035343082259,-0.007534969193008332,0.29375374207297383,0.4830288100232055,0.29986942288117296,0.0472137171540952,0.3254766714062885,0.11721064832423908
0.14,-0.04131779772034572,-0.030366375942080467,0.01087087046779576,0.03574143668593464,-0.026733427088543076,-0.01100659347864393,0.29826456643720844,0.5009878976844353,0.31283206645950123,0.056205065931103616,0.33135700439528837,0.12553598733540797
0.142,-0.03877384760033166,-0.032501903810571886,0.0062814485696788165,0.03563921093790948,-0.022700495189107578,-0.01449839554241488,0.29963339150524443,0.5180115328531367,0.32997877716200225,0.07442817792823188,0.345961538957128,0.14494145404041395
0.144,-0.03988792885405823,-0.034227752300301714,0.005708517382171093,0.038084521390626874,-0.023026387022594075,-0.01666234400838887,0.3018859313073556,0.5287772795709361,0.34593685477044006,0.09404939672617935,0.36472844243077224,0.1653459126227294
0.146,-0.04022224380475644,-0.033347505285964064,0.0068926394363134115,0.03885697744169916,-0.024230482508498713,-0.016546411638906675,0.3115450257007391,0.530712107528229,0.35757151744211296,0.10511707874107151,0.38131037311700927,0.17955064392906403
0.148,-0.03755299643944977,-0.028541794398389216,0.008993391527654254,0.03519354619588846,-0.02447768109126835,-0.012876925513817182,0.32759816077433734,0.5270825259062376,0.36433554908796056,0.10316866645306164,0.3909210013253764,0.18631034057245813
0.15,-0.03524247975884342,-0.02126550601446548,0.013958704717007006,0.02957982174174626,-0.02612956414033945,-0.005363562876848781,0.34210597802165016,0.5238718670005453,0.365698862279769,0.09151958119272606,0.3922394072120247,0.1870637585310253
0.152,-0.03641956435752604,-0.01333173149462541,0.023088826127669153,0.025337909188677593,-0.030993516365047984,0.00485512424044032,0.34931054568755054,0.5237661108226795,0.3608682039446325,0.07656019398111846,0.38734761967394393,0.1832136060753673
0.154,-0.039322064672147994,-0.0055954556675316194,0.03373705231767464,0.0226064544106964,-0.03697294272173463,0.015020835958228488,0.34962878548639514,0.5252924691723458,0.35156347248452885,0.06242937716992049,0.3796829116141891,0.17492449149219683
0.156,-0.04055317261843464,-0.0003405268217897249,0.040217091720087264,0.020867033832796797,-0.04039763600569295,0.020873078338221395,0.3469653474152597,0.526084231227403,0.3429247061016549,0.04991942494727658,0.3721344124010532,0.1620884757214847
0.158,-0.039840567726795006,-0.0006274808290465555,0.039209511365548504,0.0210861478871857,-0.039976481186631836,0.01978404463898948,0.3453607393975511,0.5252143066350154,0.33999662370953926,0.038620335759967546,0.36630548049703926,0.14713248117079714
0.16,-0.04000101377988674,-0.005813330037893272,0.034183549674249615,0.023687298492177808,-0.03812417053635361,0.014461982315980336,0.3473947150550506,0.5244804968654619,0.34401754674604706,0.030169402525443895,0.36276806464514044,0.1356580496218872
0.162,-0.04310359074277026,-0.011029455473664105,0.032074111878004505,0.02715649082725852,-0.03840970827159521,0.010866477082977537,0.353269167367687,0.5275918171718225,0.35266373778540777,0.028756945082219012,0.36229109794328884,0.13286112674052952
0.164,-0.047270377488504545,-0.012275177242992352,0.03499744512892533,0.029363937278893196,-0.041225537794341835,0.011549810435515761,0.3601569805413205,0.5360990467656587,0.3625861087570247,0.03597150459706961,0.3659607453037024,0.13850221638231255
0.166,-0.04829025080778905,-0.009896604647231001,0.03839473120267176,0.029033782912874943,-0.04331111006105644,0.013635964485945062,0.3644607599748485,0.5470875870449784,0.37129715161555593,0.04614521719969706,0.3731644673012701,0.14597527473341282
0.168,-0.04454530620816922,-0.00668484815619408,0.037859751241634126,0.026274095683771523,-0.042167482290432545,0.0138871542003002,0.3661034092947679,0.5558403816363671,0.3776853388836206,0.0500683862278692,0.38102255959489917,0.14776187360869603
0.17,-0.038934930958008984,-0.004699472838454873,0.034234528375499514,0.02283716412799923,-0.038947931999622425,0.012706813415329185,0.36841390591692186,0.5595483915016148,0.3811567093673893,0.04369429485769827,0.3864719095621146,0.14173167764843222
0.172,-0.035813003923076764,-0.004323804379107862,0.031489141170273384,0.02125582752831883,-0.03672713261605233,0.012427504649118229,0.3734547294304174,0.5592196058702593,0.380825650677412,0.03187922287903817,0.3876555755531394,0.13200054595754784
0.174,-0.036796924424035406,-0.005034362576991587,0.031763041347607435,0.02247888414491756,-0.03714200575310787,0.01361340180182227,0.3801131050266285,0.5591641266341908,0.3769752145315734,0.022874103069630104,0.3841461193639757,0.12403925948112297
0.176,-0.039944462017529075,-0.006760496344991222,0.033184226564153874,0.025098678422724025,-0.03894933558593464,0.013935254037325734,0.38669184386429817,0.563194283438592,0.3732455692304956,0.019541791386810586,0.3773161679330066,0.11908063269792618
0.178,-0.042669611709583624,-0.00978327306161402,0.03288620158945277,0.02730401536457355,-0.04003251146782401,0.01125875797958996,0.3922384338270166,0.5708375190088865,0.3747214842431728,0.017376503459868936,0.37012668813846056,0.11547800145441647
0.18,-0.0440505211404736,-0.012252209133275982,0.03179810416590385,0.027996048115656987,-0.04036881177471013,0.007884512223203698,0.39563876274769916,0.5785375961436592,0.3826743394964062,0.011533568693442861,0.36596429225258326,0.1148048249846292
0.182,-0.04470639722374635,-0.010679396899210438,0.034026975844178325,0.026818233032817995,-0.041917939239622885,0.008932770731470245,0.39720116505372666,0.584299687980773,0.3935414022876151,0.0036261121953830924,0.3667388070623291,0.12012958713947078
0.184,-0.04656484838405173,-0.006480664137956027,0.040084285976776234,0.025997154797513782,-0.04553304517882703,0.014389112571762161,0.40029457324969636,0.5896999075664576,0.4035886662561659,-0.0008856641966550225,0.3715817786269073,0.12839237298087078
0.186,-0.051862773991782754,-0.0078034805261598126,0.044059355417270026,0.03033599759765629,-0.049371531932108456,0.016645049808109262,0.4080552663747662,0.5975038861262603,0.41191526148418783,-0.0004527348276424578,0.3780044751084004,0.13176202728725206
0.188,-0.060230408527758364,-0.018929628546216205,0.0413007540562378,0.04126611964796214,-0.05152283003623911,0.01035504404642373,0.41988866503858624,0.6081919668509683,0.4189975874806009,0.0014988760585795736,0.38369820463426374,0.12682337546157607
0.19,-0.0680353675242038,-0.032230832709208485,0.03580448862319171,0.05280971229938342,-0.05277822300111118,0.0009301703857280426,0.43283900648984447,0.6188867594292852,0.4250184359553339,0.0023993907203946154,0.38698573602205716,0.11734134763138078
0.192,-0.07172831869102124,-0.03688783906989526,0.03484047170543358,0.057246587924450094,-0.05466422879357252,-0.0022611769850928018,0.44431664422527856,0.6261908175847177,0.4297866943146852,0.0022949556557498073,0.3871804908442734,0.10820519687150473
0.194,-0.07043110799289819,-0.03172793017277379,0.0386812596264119,0.053230402329953186,-0.05618397270946059,0.0020307935948086033,0.4524625157562249,0.630025024644369,0.43339758532642597,0.000214991018764634,0.38472393151797885,0.10076268198611674
0.196,-0.06561728351741997,-0.024489827403559455,0.04097421528220042,0.046052121862372376,-0.05503686582130954,0.00688973367358048,0.455916985778239,0.6334514243595067,0.43756464202082207,-0.005436332747756614,0.380739060387054,0.09442341199342819
0.198,-0.059828955385242064,-0.021534449790598084,0.0378357660280648,0.0412504760022401,-0.05095567446695842,0.006912402584710721,0.4546257453926717,0.6389059142091777,0.4452866218182635,-0.01282735988227094,0.37711403876773,0.08938333840603162
0.2,-0.05524725950328201,-0.02221284506978254,0.03228437994980826,0.039730110644530775,-0.04613947023989472,0.0036709071036305006,0.4500319333987492,0.6464285272973631,0.4574489146879356,-0.017911299585527472,0.37539216817646676,0.08623264611339844
0.202,-0.052392044090197855,-0.022162863291663285,0.029551032622565608,0.03887601992274638,-0.04291265058210174,0.002148223652819638,0.4446886629017702,0.6557396049885842,0.47096352580693046,-0.019212045752356712,0.3746451063605709,0.08455650696829528
0.204,-0.04993334462862122,-0.019521853826769537,0.030181628068038154,0.03665748140929785,-0.041236110759029415,0.003979764552644885,0.44222875931302014,0.667365787479116,0.48201713390742096,-0.01779348915924251,0.37295513168592637,0.0833304903599465
0.206,-0.04636788698958094,-0.016599797568103404,0.029939562875689888,0.03352329716074007,-0.03900293811355485,0.005847731812236658,0.4451712635926578,0.6809560406539495,0.49043613274132625,-0.014251007035516492,0.37072303138821056,0.08181967395932586
0.208,-0.04250588125407528,-0.01616455534359606,0.026528397781260787,0.03139328833632517,-0.035593686234262005,0.004689652967243175,0.45076274483170997,0.694732846530306,0.4987028067849364,-0.009639564476722264,0.3698120181685594,0.07930600289639715
0.21,-0.04148862412774475,-0.018561451612539175,0.022791000676276887,0.03211592308067036,-0.03351746361522429,0.0014728535048546734,0.45212086789323397,0.7064904736776911,0.5067981903680916,-0.007252047397726312,0.3704988223836957,0.07512553485280071
0.212,-0.045304889557431845,-0.022595364501656275,0.022126301746156735,0.03612231163206213,-0.03506631404604865,-0.0012746755061235867,0.44651177402953707,0.7144264764319475,0.5117526277085586,-0.009181381713472407,0.3713798004722254,0.06960934515187556
0.214,-0.05200389940137167,-0.02646898970551187,0.02459499112062248,0.04128000484557276,-0.03928171062989482,-0.0022515460913949134,0.43927392118919756,0.7189073570555617,0.5131077397783779,-0.012881227160228093,0.3712367282436313,0.06391787651448318
0.216,-0.0571879273630359,-0.02740857229216289,0.02880123557169055,0.04359925266315453,-0.04367253232761463,-0.0006441743175997674,0.4373215903687323,0.7230145249584209,0.5145544216966652,-0.014417585524513369,0.3695920144637309,0.05848969383463794
0.218,-0.05797426495257053,-0.023413919666983,0.033952796921585156,0.04076944879485342,-0.046988228044768376,0.003916408906485966,0.44249504320146704,0.7291096197432212,0.519058519240383,-0.013177483571714653,0.3667190583670922,0.05260106527688039
0.22,-0.05541432642518624,-0.016676199671007114,0.038660553177318945,0.03519379218604543,-0.04905782389151529,0.009369256276278689,0.4520313654808235,0.7360460927287519,0.5257497524108244,-0.011099003248292164,0.36402811441421196,0.04584494050769079
0.222,-0.05298856772730176,-0.012259915210290382,0.04094195119347402,0.031726612202453326,-0.04977151805942199,0.012315805217177858,0.46230039211754287,0.7410850260655809,0.5322600145245798,-0.009365739732164655,0.36246788617075876,0.038722797893607316
0.224,-0.05278468738683738,-0.011900442248803924,0.04103337312381534,0.03211803137110351,-0.04951908096606805,0.01235877394354505,0.4716285745444983,0.743306040766287,0.5373731567913388,-0.007757425112437103,0.360867193992845,0.03150270729356384
0.226,-0.05403774954944515,-0.012053050203626113,0.04195046742865679,0.03362792829690437,-0.04971397889267944,0.012882723481362322,0.4804885992736961,0.744939619740466,0.5412216615442897,-0.005567302872740413,0.3585348251080543,0.024480936117332486
0.228,-0.055375684314153024,-0.0092475675499311,0.04603334859370884,0.03332466607467952,-0.051880346565064066,0.016683218944612888,0.4893528357653742,0.7494701184144485,0.5453667907884707,-0.0019999461156955506,0.3573497897560105,0.019235568681408317
0.23,-0.056930181324106724,-0.0046362276783960925,0.052288884250137925,0.031700198658615286,-0.055953285853450226,0.022630013698742794,0.49735986287804285,0.7576557734310518,0.5521861954308871,0.0029058760126780773,0.3583073082662545,0.016966552840532407
0.232,-0.059832351997864616,-0.00243506171428457,0.057588822050790044,0.03166358264693052,-0.060052404659654036,0.026906081336861554,0.5036164176293765,0.7667963990857853,0.562332810639102,0.007365900953404607,0.35922526831749546,0.015895890906740366
0.234,-0.06462496329346892,-0.0057362815142038975,0.05940224437420625,0.03556164042178173,-0.06247319555007816,0.026299910278148254,0.5083678641820252,0.7747783704163487,0.573700072077931,0.009342548183732001,0.3585418858355428,0.012871130911514005
0.236,-0.0700584881195364,-0.01370151663809813,0.05723315572981778,0.0428103802295982,-0.06299134443937597,0.020764701915647086,0.5117973770788141,0.782211029610166,0.5834673804141163,0.009347885054123577,0.35799847353407854,0.007269835081543764
0.238,-0.07335400617378617,-0.021826926141843644,0.052534199699553294,0.049391191854873395,-0.06205842696995647,0.013753620853287402,0.513185603710972,0.7901383013915968,0.590385995580497,0.01048910598638994,0.35935070097343186,0.001404344525072599
0.24,-0.07305373481938668,-0.02529952605658892,0.04855301917136115,0.051075951304608666,-0.06080905721107968,0.009947852673042915,0.5119833347053155,0.7985752326944805,0.5957489032202575,0.014915324789249519,0.36129579067204093,-0.0030669741140805225
0.242,-0.07125743143416627,-0.022616308654330633,0.049213686937516536,0.04781654614952413,-0.06156078002799704,0.011902178076164619,0.508339515805438,0.8075084832080158,0.6024046496131559,0.020740231017734867,0.36122333630825393,-0.007747074329873381
0.244,-0.0711613112136993,-0.016797456209630263,0.055018017876501554,0.04375763498833971,-0.06532135987102879,0.01771549982572975,0.503166779767667,0.8173097969286777,0.6112474364907378,0.023728757867531043,0.3579899452050634,-0.015276286412632706
0.246,-0.07316266343384667,-0.012757155092101895,0.06126944970854818,0.04271407654269397,-0.06958894117882776,0.02265181105214922,0.49906372037415403,0.8281673257020105,0.6195867511422994,0.02225504972657456,0.3521786785086185,-0.025199577317732338
0.248,-0.07471443583638877,-0.012255999251394041,0.06329907418745748,0.044156448050271024,-0.07085762312802474,0.024160223574393458,0.49926054178161894,0.8398216106325204,0.625194535748193,0.018874076079031746,0.34531371066926025,-0.03406824539260391
0.25,-0.07335660498885495,-0.012689099880154042,0.06133521858426379,0.04431005811769891,-0.06821001323305981,0.02370276029237956,0.5037081029264142,0.8512989187041984,0.6297237111460523,0.017096067457763518,0.34000571535412877,-0.03964087280391717
0.252,-0.06962572387882349,-0.011562540804221016,0.058762332645405826,0.04142259606646394,-0.06395951432860474,0.023504793675595388,0.5079444389113715,0.8607170198846322,0.6363047114943235,0.019007404728830536,0.339793853230745,-0.042923345108403115
0.254,-0.06646315249761013,-0.009781916367820982,0.05761417712900342,0.038068188897634074,-0.061223144290177105,0.023745058558467973,0.5078224527216499,0.8666796289274793,0.6458606715526362,0.024914070320216013,0.3465729190995182,-0.04566196713843696
0.256,-0.06529651904138727,-0.009740847080591952,0.05656068368079132,0.03735251630437414,-0.0605411677433264,0.023008177776109695,0.5043493689882795,0.8707028484826183,0.6558799809741711,0.03216503749003517,0.35726153856021453,-0.0483953103822199
0.258,-0.06496656046073826,-0.012152076138835885,0.05358423938171758,0.0393461041155124,-0.060125369928915505,0.020503712996868626,0.5021905932117521,0.8765103079826809,0.6624976213003403,0.036320290189201763,0.36502303670115044,-0.05213200841837415
0.26,-0.06484543598464827,-0.015545844672079876,0.04985224058570589,0.04202139106027996,-0.0593264897229745,0.017437218151152654,0.5039650777751559,0.8856242479290866,0.6651025156140332,0.03691663062030814,0.36624856881390605,-0.05884438118149511
0.262,-0.06567410991628904,-0.018005458927813092,0.048326453397921805,0.04365741049769512,-0.05924423574991995,0.015553774514644273,0.5074128571746451,0.8955411073502123,0.6672009595011099,0.03880525429502613,0.3642585146108948,-0.06853154969476134
0.264,-0.06791348124005082,-0.018610493347504423,0.05015761774671601,0.044243992295002234,-0.060944442225572576,0.015581882043482036,0.5080841202663633,0.9027761909763938,0.6705861123143537,0.044022857611356325,0.36277165795591165,-0.07852441644478035
0.266,-0.07146175105583061,-0.016427980651883577,0.055725562968180306,0.044471460915153506,-0.0651502021435725,0.018832773262192785,0.5042997916400191,0.9055818993910815,0.6712743660166864,0.04706511838749771,0.3599041724521512,-0.0868279300226251
0.268,-0.07455506733698725,-0.009242353347931172,0.06547315385912643,0.04263856752796268,-0.07111342331425623,0.027407578886520265,0.49916291852568023,0.9041842688547151,0.6650830784012352,0.04262022170638597,0.3539793218361689,-0.09347247207869044
0.27,-0.07327375113528682,0.0033926907019178492,0.07630442023985273,0.03574953324247975,-0.0750861639966392,0.039787344419102706,0.496695576195916,0.9004443164100556,0.6551161705562529,0.03327298068506216,0.3497169000435935,-0.09819332877355046
0.272,-0.0662906743057105,0.016331208130338507,0.08193757905091666,0.025390513831007683,-0.07361909913392826,0.04947385588349713,0.4967818127816361,0.8969759778229287,0.6480788412205063,0.02569534624516114,0.35229650381112915,-0.09989688545318878
0.274,-0.05841224140808421,0.02180312639503338,0.07933988119165739,0.01831341160162762,-0.06809793937497129,0.05076970635300295,0.49606770865935457,0.895662415147239,0.6448005873499201,0.02325071639799229,0.36018336270360435,-0.09895410263716158
0.276,-0.055444264339970226,0.016508049915371106,0.07105768056110809,0.019302072581710156,-0.06270221275852422,0.043649538477064445,0.4927709742572054,0.8965974789623892,0.6408810346525606,0.024919049392535912,0.3679321943090775,-0.09754497526043875
0.278,-0.05747411175602186,0.004152204745837617,0.06102403519026676,0.026346445973080942,-0.0590787238676451,0.03234983645758552,0.48860291879296924,0.898187117271789,0.6352398884566843,0.02799222537052635,0.3720328933704178,-0.09728288752365338
0.28,-0.06017024191094784,-0.00871722815261484,0.051332913645405605,0.033955249935278875,-0.05587588007093241,0.02124104764192837,0.4865156901702451,0.8987884401330747,0.6312785058577947,0.029978002005392627,0.37266566767480686,-0.0975673785063442
0.282,-0.061048977447937164,-0.018016501256684282,0.04322269734997653,0.03913265246277025,-0.052677060163417125,0.012589916189764743,0.48754418428918933,0.8977745426579893,0.629336035234444,0.029970259113860896,0.3729556607414614,-0.09603702285422752
0.284,-0.06174070631082141,-0.02315785302321434,0.03874413693919308,0.04275691387969597,-0.05169417432478016,0.007375279911903543,0.48977710288785004,0.8937235037983996,0.6231586033676194,0.029332225181900214,0.3767278903285008,-0.09100589599746675
0.286,-0.06443338425509669,-0.02501993561632377,0.03939759246266173,0.046305898333869014,-0.05456899906144732,0.006251594894110917,0.49004695488897815,0.8834356702474215,0.6063001775037018,0.03080094927847291,0.3847552783500299,-0.08448086846561176
0.288,-0.06845013023283968,-0.024807369014359437,0.043550131930644206,0.04926233132623374,-0.05932496868317881,0.008316963968570746,0.48674619758285775,0.865306882050955,0.5801930317443327,0.035642194593356005,0.39346709462427737,-0.08100893635602392
0.29,-0.07106064848275576,-0.023882140967534757,0.047164433220131585,0.05017811282738227,-0.06213855581582301,0.010706976653054704,0.4805772431870399,0.8416687536949208,0.5535547923062312,0.04009711562871847,0.39950535039848745,-0.0817330710286927
0.292,-0.07016793791461956,-0.02288164563989745,0.04745041710067775,0.048679446982589615,-0.061024402787174706,0.011318048179512085,0.47242506989590405,0.8168314653413938,0.5339389775137903,0.036899969216242764,0.4050973905100327,-0.08198390522648565
0.294,-0.06581247316605199,-0.0212492747420077,0.04492580852817794,0.04545400939417436,-0.05693827283384525,0.010785881341449552,0.46220906288469327,0.7955408045616752,0.5217833138914219,0.02310334810236252,0.4157994701162798,-0.07701370202340314
0.296,-0.059801447360353005,-0.01887625024422672,0.04134673009346937,0.041496862663919616,-0.051823467453053676,0.010237880300391307,0.44975339395306996,0.781007920147501,0.5126850962835866,0.004168854426778933,0.432665213813115,-0.06809840888890752
0.298,-0.0536909075856093,-0.01729315182894024,0.036633605258751416,0.037787694835819126,-0.046146142880626066,0.008674069728275231,0.4353845665087497,0.7702890723628562,0.5018927212265364,-0.011064940883279802,0.4498826919012428,-0.060730841105195076
0.3,-0.04758182621530904,-0.01709752091553468,0.030449817299181982,0.034416249499423804,-0.03972209864911306,0.005555395122991823,0.42072446914230244,0.754919743185452,0.4855873661831558,-0.01714605052340727,0.461002751348452,-0.058129280914360315
0.302,-0.041627964910573495,-0.015286459845321492,0.0262022428084958,0.0301186109166721,-0.03464427390209654,0.004517907547673837,0.4087155119436174,0.7299247490877854,0.4619597780034748,-0.014559083889048202,0.4652769683153712,-0.05864496999822654
0.304,-0.037116952981025485,-0.008828636287421641,0.028233031234192643,0.02416674814964505,-0.03378730943718161,0.009274442499650211,0.4009538729074036,0.6996175971173229,0.4325481541502275,-0.00901501736804704,0.4668479105577921,-0.05898536092147193
0.306,-0.03485671731769356,-0.001319163366920049,0.033583905588210276,0.01891989947603141,-0.03565039355514338,0.015689449060975552,0.39590148829051564,0.6718979483808911,0.4002256185682964,-0.008257299971770785,0.4688021761688487,-0.05833455640624904
0.308,-0.034125986329817254,-0.0017069999028524784,0.03247118299905538,0.018657640744575384,-0.034727294997537766,0.0139057570619773,0.3909220789439927,0.6488078781927137,0.36637011219070276,-0.017197942250340686,0.46947796055777624,-0.05875455033995571
0.31,-0.03390880244732746,-0.013907621156589696,0.020001204950918106,0.024632885563445606,-0.02843466330680543,0.00027168329425379407,0.3851579483643182,0.6258911628044387,0.331807601842221,-0.03549038859206279,0.46518484138219107,-0.061821615948426396
0.312,-0.03355071792495386,-0.031026517547087237,0.0024739378942567765,0.032762557812240474,-0.020051783860658062,-0.01749518858173561,0.3799218831187908,0.6003379424259974,0.29885939304275877,-0.05966987959901825,0.4562081461388383,-0.06634515107534805
0.314,-0.03157234685914942,-0.04208032949891067,-0.010652837524873173,0.037102066514132115,-0.013287761306874164,-0.028776786192710676,0.3767324802235492,0.5751705737774248,0.27020401731003973,-0.08569899060903172,0.4480952380683052,-0.07066470681275085
0.316,-0.02566536450701721,-0.042510329124900194,-0.01716341306092851,0.034752165913377736,-0.007323250378479106,-0.03076889401468919,0.3755544969847264,0.5541998437794331,0.24646227872562343,-0.10900228368255747,0.44454267276248993,-0.07559572659650131
0.318,-0.015725567555293203,-0.03776046391900117,-0.02244583497946821,0.028051734485238428,0.0008348693733655643,-0.030075862738749563,0.3749645063166425,0.5375164836776236,0.22626048292735718,-0.12560844324639966,0.44146201460433254,-0.08281508051702706
0.32,-0.005911035964576513,-0.03714124518784888,-0.031485072710836844,0.022713385959357967,0.01109179574206534,-0.03457562245941587,0.37382795891837906,0.5234332416530182,0.20811949612977967,-0.13584692935334833,0.4320224135507991,-0.09135117604576923
0.322,-0.0019014573180148764,-0.04401666980638743,-0.042095581390861676,0.023118652205662945,0.018959188387103813,-0.044336347569750946,0.3730134022342672,0.5113478434309148,0.19116389626738123,-0.14489940955411026,0.41529873957860286,-0.09826617757387143
0.324,-0.005619024245316403,-0.05356297982836835,-0.047823354003062535,0.02907081935247189,0.020165104646945257,-0.05271995056746425,0.3740622882240958,0.5011875705545811,0.17513870876516646,-0.15729123703369383,0.3969246115568043,-0.10245722039784169
0.326,-0.01251753020308426,-0.060077529020949115,-0.047648296005745015,0.036487786301791274,0.016683155773172868,-0.05592385526215691,0.375392544300275,0.49177321068537955,0.1613962543655303,-0.17150439829569253,0.38267884687657083,-0.10580421824735628
0.328,-0.015870336262592058,-0.06338185039793133,-0.048013770066372925,0.04119699162001449,0.015166212460136849,-0.05714132966222194,0.37307345227999383,0.4817721071064849,0.15213981012468925,-0.1820868058025962,0.3728836916951731,-0.11110294779846408
0.33,-0.01510490053253067,-0.06759842271243059,-0.053299669596522915,0.04333161785615787,0.017997915362343804,-0.061045558297026126,0.36613648148380123,0.4717853332578812,0.14675749285618303,-0.18750553273840834,0.36320283431174305,-0.12032974407362107
0.332,-0.016583374616476774,-0.07577268380363712,-0.059870898908165326,0.04720394360830178,0.020326133824589053,-0.06796212643409946,0.3572528566566547,0.46267822220405774,0.14018954964824076,-0.19300765023120667,0.35057996837195166,-0.13350316031035755
0.334,-0.024731165645809943,-0.0866992831062647,-0.06219109225833268,0.05559721898635942,0.017592838957547527,-0.07458435603366068,0.348409103144466,0.4521833567026601,0.12663820616305105,-0.2035667960413261,0.33671551674550426,-0.1474474478288326
0.336,-0.036433139666561386,-0.09687359018596282,-0.06038464742509544,0.06618533918617664,0.011530178010369723,-0.07872279234161322,0.33957659006874447,0.4367792131563943,0.10575163251442142,-0.21758828866612973,0.32518566623756234,-0.15784387684859905
0.338,-0.04475963068282301,-0.10403051034912825,-0.05939752720005953,0.07425376527158807,0.0076012164176934545,-0.0816749565641982,0.33120434465947374,0.4172556162243376,0.08515775525302523,-0.23074963184170688,0.3173165923179317,-0.16464319370497413
0.34,-0.045201139625584,-0.10782547983549862,-0.06304232893036094,0.07692289519912729,0.009448065559598016,-0.08578787114536059,0.32509992620615147,0.399772747960096,0.07438751566871313,-0.24203876082045062,0.3115730655080157,-0.17268269370322797
0.342,-0.0391849034358228,-0.10915850520751136,-0.0703331495629458,0.07509425846383731,0.015714502389414128,-0.09130677212627082,0.32231752100621014,0.3902218095564984,0.07491171639237625,-0.2525268567073057,0.30536571961532444,-0.18493476856828747
0.344,-0.03307975201451879,-0.10993755585848682,-0.07688460281298262,0.0726182390270453,0.02119017591151753,-0.0963466092297853,0.3217422278471981,0.38818001755601295,0.07914214875698714,-0.2616335071117738,0.29722376512636217,-0.1987921227351835
0.346,-0.03240957841247795,-0.11183769886475763,-0.0792511662950429,0.07309053411947611,0.021981796590103467,-0.09908832897433012,0.3211510650113673,0.3877497069906694,0.07959591258468644,-0.2675080190809392,0.2877387564431724,-0.21109948396452083
0.348,-0.03640231340633027,-0.11488022119798165,-0.07837132714815244,0.07670030210811075,0.01960084164092513,-0.09979675972789044,0.3187732476601911,0.3841663547153629,0.07522617623732793,-0.26945752719870975,0.27879120346255065,-0.22251142124953605
0.35,-0.03930409965308253,-0.11797836369666848,-0.07871666739857419,0.08017085010144329,0.018801255396396,-0.10074054369180967,0.31408439593975906,0.3777299444859217,0.0689936303492005,-0.26879539815276793,0.27252303772517183,-0.23429957451994443
0.352,-0.03774937790895592,-0.12059549611107685,-0.08292439608195695,0.08073161596034285,0.0214381441690222,-0.10362603296819303,0.30816161951018495,0.371232677480212,0.0629795246456919,-0.2678173738934847,0.2698395847562918,-0.24495510879424362
0.354,-0.035159317917957594,-0.12354350311774093,-0.08839881451514538,0.08009621342304525,0.02439534281791647,-0.10776973010545629,0.30394828033781807,0.3657901039625366,0.057153940219342406,-0.2683594492615111,0.2688309311802795,-0.2526343817747528
0.356,-0.03676562491443694,-0.12807067076795775,-0.09126946722882129,0.08250170129932495,0.024464544223301354,-0.11164107486205606,0.3049980458334477,0.36071236940364876,0.05162382482268413,-0.27119482265927897,0.26628366664860753,-0.257943616825553
0.358,-0.04218637157449209,-0.1337621442117317,-0.09155079835142589,0.0886531334465748,0.02273371062010387,-0.11474182451986845,0.3115229534800713,0.35632211850528356,0.04797416795331173,-0.2760305356150059,0.26113405707360143,-0.2624708765414701
0.36,-0.04637477469783168,-0.1378188306333595,-0.09145152443417476,0.09418723773966817,0.02204262093151588,-0.11663415497373883,0.3190010171708087,0.35417185524680805,0.047145822777252405,-0.2816356996623416,0.2547586326861702,-0.26674805507346167
0.362,-0.046991324953610546,-0.13739512146811778,-0.09042098600426991,0.0949849825976913,0.022029000350542238,-0.11555936091149728,0.323433123458443,0.35402102394066753,0.04712042816461031,-0.2863256940673182,0.24811377569046808,-0.27116216033675844
0.364,-0.04716172815089901,-0.13267165047099053,-0.0855140572207061,0.0920449305788787,0.019500497715241986,-0.1102028049642441,0.3258363190124985,0.3530401642027003,0.04484719099450409,-0.288802672411841,0.24101123769513988,-0.27708922155917143
0.366,-0.05050537491176106,-0.12722179526717256,-0.07670901560490871,0.08985255473298112,0.013328505759005163,-0.10267183513737962,0.3294643749129288,0.3490782084391122,0.04046146625277879,-0.2891038122298193,0.2346154577726978,-0.28497355139230796
0.368,-0.055881031597886766,-0.12447523543861534,-0.06858841072990424,0.09053722378226291,0.006689986530772154,-0.09724441731463913,0.33483466100783454,0.34296996713752487,0.03729807313735299,-0.2887802053533762,0.2313392002964326,-0.2927486819744205
0.37,-0.05796606807376092,-0.123369602382044,-0.06540480813910322,0.09086825667861403,0.0039915631513274714,-0.09543705972667438,0.33886815895064304,0.3366935611489566,0.03723825565441238,-0.2891056478074108,0.23083621778817381,-0.2982868070687168
0.372,-0.05277432606651192,-0.11933275889499653,-0.06654026305123675,0.08617700772573872,0.006681274011131973,-0.0944214596197467,0.3383583201664121,0.3310852445536902,0.038269455956749965,-0.28897709291939344,0.22958088496437362,-0.3020095029691619
0.374,-0.04250869064138338,-0.1104384425186257,-0.06779954162203955,0.07666123678963202,0.012026724740110586,-0.09092086743080795,0.33409077546950366,0.32636222005911525,0.037596225619307866,-0.28609922843347857,0.2260050173308474,-0.3056597946131693
0.376,-0.03385589190566842,-0.1002668796217356,-0.06606009979690282,0.06760254357601392,0.01550692968713153,-0.08509966505955144,0.33061672681517157,0.3232953556282461,0.035659295919199134,-0.2805920423210316,0.22250752393629158,-0.30973780959509634
0.378,-0.03117559179697545,-0.09423543096481041,-0.06250458443731367,0.06368877149910962,0.015214177539296736,-0.08043607009927473,0.33164231897667723,0.32311571398364064,0.03532433525393945,-0.27612361919138384,0.22076133971546671,-0.3135247288822215
0.38,-0.0329373813376213,-0.09519798235202083,-0.061677838753418285,0.0653932826530046,0.013930572451028899,-0.08079844089840728,0.33677109443968306,0.3264085182138363,0.037492437784210415,-0.27631910738937443,0.21867607791155402,-0.31728347672685225
0.382,-0.03502315017514646,-0.10201732648002391,-0.06659806672899646,0.07003476055369803,0.015377046761329576,-0.08700701816083131,0.3425850211915612,0.3317376567188177,0.03984152397997444,-0.2800413096700823,0.2142824784768114,-0.3225697248839346
0.384,-0.036050877815194046,-0.11077768337988328,-0.07461734645410537,0.07474925371701713,0.01892893849668444,-0.0953949532255577,0.34613760467313764,0.33608448101319105,0.04001335395019299,-0.2824815920890117,0.20946399105025398,-0.32975421366278207
0.386,-0.03876562039037607,-0.11850104685960955,-0.07984594268694475,0.07946414675678952,0.02026677826008085,-0.1012779857041572,0.34745003499528654,0.3370935498495654,0.037651104814699715,-0.2819908209146828,0.20693984583302522,-0.3371503678526026
0.388,-0.04595590113209462,-0.1261607204103133,-0.08045743654263152,0.08656325162648679,0.017288452594277432,-0.10450295778935714,0.34850696423910477,0.33433886322260503,0.03362501997040515,-0.2821422917436826,0.20579499643050564,-0.3430577011890077
0.39,-0.05560614029725747,-0.13606407111779817,-0.08092348801907716,0.09632468871131841,0.013151040876888344,-0.10900368517431852,0.350239046952029,0.32902357247831715,0.029594204273680206,-0.2853849876204478,0.20287620165759593,-0.34708732242213375
0.392,-0.062054408360073726,-0.14661470495225898,-0.0852622080853682,0.1048988103974476,0.012222816871333031,-0.11631549238991438,0.3514450883340523,0.3233640606866759,0.027760442276362127,-0.2893300064307979,0.19702798667885568,-0.3495076603074068
0.394,-0.06160767550771178,-0.15241776873571483,-0.091461498117248,0.10797756953632663,0.015043364993613717,-0.1226536675394662,0.3503715302457419,0.3200812208581187,0.029465610108170767,-0.29151617697067217,0.18950413556529155,-0.35025525812357006
0.396,-0.05510511573124117,-0.1498037635511659,-0.09494160915634055,0.10435826681846523,0.019119578867839687,-0.12344427799147427,0.34662145158362173,0.32106084987338324,0.03398914072483125,-0.2932528450506504,0.18193039847604842,-0.3490698455769456
0.398,-0.04635436474568833,-0.140908759871115,-0.09440364080739648,0.09637160362294435,0.022431510972361117,-0.11865666017980704,0.34173415364344945,0.32513211907535366,0.03867392224930162,-0.29619440874886305,0.17611723922698475,-0.3467402006774541
0.4,-0.039861244781750134,-0.1318118549061786,-0.09174435153808437,0.08842398116614338,0.02410016228942507,-0.1122232905371036,0.3379569881999391,0.32825843656238163,0.04079894915065052,-0.2989411557184666,0.17361054267654188,-0.34522553651577503
0.402,-0.03873966166270122,-0.12692503925064633,-0.08815832081429652,0.08422566471881573,0.023331085207141715,-0.1072681369418141,0.33638436358417184,0.3271761616656178,0.04008740475605508,-0.2994747359563908,0.17313228446678727,-0.3460364770836139
0.404,-0.04283053919509013,-0.12613308433818177,-0.08339883387991971,0.08452186928431421,0.019919700177629694,-0.10404215446048026,0.33648125788292954,0.322298330556524,0.03864319528778537,-0.2982936300239396,0.17076126716237777,-0.34941556173541566
0.406,-0.04842876695534079,-0.12711769191620995,-0.0787499555738671,0.08722719133409683,0.01576491362506499,-0.10220885254805047,0.33693055261460386,0.3172281185800929,0.03826430689870051,-0.2973640189514559,0.164643789360276,-0.35501638633727145
0.408,-0.05124782971131295,-0.12886938293606232,-0.07759869441759776,0.08976312100357832,0.014109152513541204,-0.10272964379408134,0.33648764532966097,0.31549487592154674,0.03894875023496388,-0.2975322145437761,0.15744315761668468,-0.3620876730936843
0.41,-0.050534868857132785,-0.13185556996225561,-0.08127662944752027,0.09132556299152482,0.01599023110645739,-0.10623471033307919,0.3347961198878002,0.31688593373542795,0.04019537182873651,-0.2981185381945727,0.15256241712690766,-0.3685288904405433
0.412,-0.049331040057505375,-0.13504122936338844,-0.08570159642089441,0.09245744802786279,0.018221498291172224,-0.1103114340506946,0.3331573551703668,0.3179671433686324,0.04240876978266765,-0.29831060544528126,0.15035662742707304,-0.3709933130494138
0.414,-0.05055879328358992,-0.13528195757805006,-0.08474308516429886,0.09328200572817875,0.016616689065126315,-0.1106473492174703,0.3334087481759553,0.3168586502214617,0.045859918103076734,-0.2980838824653825,0.149600958933899,-0.3678702094973235
0.416,-0.053841173505025645,-0.1316317296108002,-0.07780475393481828,0.09345410331529212,0.011422882127056945,-0.10617767952684103,0.33509191835125707,0.31516710228490646,0.049151664545681505,-0.297870804061264,0.14996002411634002,-0.3618549203909012
0.418,-0.05618382840686277,-0.1281707189156849,-0.07198280184912746,0.09322256618020816,0.007844253939078559,-0.10165048570455104,0.3355069792554216,0.31515255173434265,0.05041668633997411,-0.29778287137710246,0.1515365483226922,-0.35709113735780235
0.42,-0.0554569115099183,-0.1296235549850721,-0.07415694364438281,0.09358566736673263,0.009955324777236896,-0.10279436378131196,0.33354975835698353,0.3174594098593673,0.049668542580886016,-0.29725290204853455,0.1539549115615836,-0.3544338532113263
0.422,-0.05302890653836601,-0.13510866987685727,-0.0820773617468312,0.095253482480917,0.015362799665185318,-0.10913500718746995,0.3313821597866916,0.32098361702652173,0.0486125125845478,-0.29566440455447307,0.15664584566562564,-0.35231169677051377
0.424,-0.0517887882978251,-0.13926673024252195,-0.08748208818280709,0.09743120038694966,0.018447966494175044,-0.11457788954502932,0.33134789008762183,0.32358618592907223,0.04824286101112546,-0.29372490287741615,0.1589289187968009,-0.3506141806319283
0.426,-0.051549498191180106,-0.13903673229530955,-0.08749052512092365,0.09801102557113134,0.018144619764036907,-0.11540687553460777,0.3326416712207748,0.3231535580372653,0.04741746875585916,-0.29379968694421926,0.15923330786222856,-0.3508821761578816
0.428,-0.04905777119845028,-0.1361310188259886,-0.08707255688531824,0.09552719904772428,0.018520335401492158,-0.11374323870502802,0.3322376402259375,0.31835785715110093,0.044459622810471035,-0.29783910703749183,0.15524629285260028,-0.35386666334490624
0.43,-0.04332729001464685,-0.13329836170921547,-0.08996894577659452,0.09087156420088587,0.021775154209502195,-0.11259793690134838,0.32903009381906945,0.3097571702427621,0.04034057269471557,-0.30478773358016775,0.14625633515039035,-0.35840015701862116
0.432,-0.03771216780231521,-0.13120222321173164,-0.09348941691144262,0.0864001835423189,0.0254237462141745,-0.111888941194922,0.32520656485851007,0.3001610141651394,0.03887276652167736,-0.3109987547371454,0.1345932855269874,-0.36264238148726047
0.434,-0.034945140932312595,-0.12930941320087144,-0.09434318782985147,0.08333477463159149,0.027357161706675195,-0.11075451210609535,0.32283642914940547,0.2923695940804751,0.04224750903206777,-0.31374708064835743,0.12361613732434815,-0.3663637280241799
0.436,-0.03355332617086337,-0.12805351820722752,-0.09436963319574684,0.08139753878090508,0.02900562771974721,-0.11051775659128973,0.3211799775452329,0.28740359160834505,0.04737570828769387,-0.31382766856622213,0.11544907874031968,-0.37072261496104636
0.438,-0.03167064907928327,-0.12857046099819194,-0.09657228771484337,0.08068750170036133,0.03144459022413627,-0.11275966447710942,0.3179883033407962,0.28534003814973874,0.04888994075798169,-0.3141100284664492,0.11092027553156603,-0.3751949264065266
0.44,-0.03013506102755295,-0.1302114722666524,-0.0996533427285783,0.08124443439432542,0.03316895147755756,-0.11603353668467224,0.312638849825092,0.28577341609278395,0.04560180557438019,-0.31574670596071425,0.10972010210483,-0.3770321449807889
0.442,-0.02871404679866806,-0.13047806605906515,-0.10148637505328613,0.08103931583890611,0.034491665310879965,-0.1176512252879907,0.30786257206298734,0.28770760322702355,0.04170903340921939,-0.3170993649324181,0.11013546421069466,-0.3755638972030069
0.444,-0.025792127126485116,-0.12814428734218639,-0.10226863206669476,0.07833646688165877,0.03722213676995991,-0.11684887476522983,0.3071805658697111,0.2898456584756839,0.041238207875115604,-0.3171887818200713,0.10921225314894668,-0.37569755717426806
0.446,-0.025542735613299537,-0.12384387824212909,-0.09827294838173382,0.07603562301855303,0.036405322106511595,-0.11231466478918371,0.3101971744337053,0.28975143911384427,0.043732796727674925,-0.317987536421631,0.10442326356883644,-0.3830277111342064
0.448,-0.03572901345317417,-0.11796629357694709,-0.08233661274316584,0.0786649122275035,0.023196024509878347,-0.10123581469010681,0.31223990167115295,0.2844348317917745,0.04607636098904366,-0.32089620834629684,0.09755556016720225,-0.39389662891047733
0.45,-0.054915215246951005,-0.11130350052626296,-0.056836538586044386,0.08544295266119743,-0.0002512052812332729,-0.08552832620176068,0.30899907193912446,0.27310263881484526,0.044765837614005266,-0.3242033215847859,0.09439976390850248,-0.3962770570409121
0.452,-0.07209843833696206,-0.10502641738870497,-0.03355339944095445,0.09072536768735619,-0.021186925456441123,-0.07140749822940588,0.30083546738907646,0.25635294827642735,0.03558267441048287,-0.3273565536387829,0.09689362378433809,-0.3835984470921702
0.454,-0.07901433750250865,-0.09572236022195295,-0.01697218444164892,0.0887277164495893,-0.03249780613715359,-0.05862779312404731,0.29233511331115525,0.23300300792928086,0.016169116474129254,-0.33277650398450476,0.10051213477090414,-0.36153293341529036
0.456,-0.07546019576866093,-0.0760208882258575,-0.0002640401810152953,0.07623677958743971,-0.03798463693182445,-0.03954125673541819,0.28620811869898743,0.20060140240841387,-0.010113020349325664,-0.33984896107751417,0.10276266999172795,-0.3395583622887875
0.458,-0.06707954655553404,-0.04625715299517518,0.021310659431814587,0.05666057534401146,-0.04390856594250736,-0.012452453528530746,0.27878926871290605,0.15939870250763516,-0.035508128606404066,-0.34200596607776523,0.10773938248729478,-0.32208984107084104
0.46,-0.06152780383492509,-0.019234793988535104,0.04266702673077071,0.040464697729907115,-0.05219395742121401,0.012557365170959098,0.26570854635167435,0.11588465125770066,-0.051829589389309996,-0.33255237951761435,0.11932520910121246,-0.3084382325214968
0.462,-0.06117361977824838,-0.005665695553359573,0.0558889233930955,0.03411189888341812,-0.05972396053217286,0.025576585949756717,0.24911830187856274,0.07763867482405507,-0.057138031107031355,-0.31200352370135276,0.13588965518774163,-0.29478309845639883
0.464,-0.059868167006211254,0.001421469146942048,0.06176065517303632,0.030538274578263823,-0.06274581934017473,0.030830282633502615,0.23228133233977502,0.03730133090608025,-0.06883057362964605,-0.29010099525244515,0.15501548307127022,-0.27398638290682853
0.466,-0.0512890045491782,0.01963486076207826,0.07124214189190954,0.01748549071131274,-0.0627498038756085,0.04346798715994255,0.21037099029718323,-0.03338989698901155,-0.12814945288209906,-0.2806160861839644,0.17964629715394426,-0.23824557757675052
0.468,-0.03747229110052474,0.05365683701485099,0.09111709608915029,-0.006153290017146853,-0.0645863621225278,0.06992332992098031,0.17440446501352652,-0.16473148871364063,-0.28018823427751277,-0.2944900444613448,0.21555682396241913,-0.1840702148336517
0.47,-0.025476703683583166,0.08633433028013074,0.11163306576980715,-0.028231362620646832,-0.06828581708010907,0.09672394822255223,0.12109361340477914,-0.36683325527729554,-0.5440020340105062,-0.3389323407374269,0.26297468465849805,-0.11301533860067758
0.472,-0.017159717113419706,0.09943686087693748,0.11650783816785311,-0.0389880533449409,-0.06726013022158651,0.10606932349046212,0.0525803805172112,-0.6247054101984744,-0.8944329560051855,-0.4153151696645192,0.3154527738456515,-0.028691678073400475
0.474,-0.0036760832718357927,0.09804254021761243,0.10176977593861027,-0.04533022328221994,-0.05430694050076367,0.09825076446667462,-0.029772935603547684,-0.9031819047137766,-1.265692613550473,-0.5090599714372006,0.3722865926161711,0.06634396906793624
0.476,0.02793953440976617,0.10544073144723747,0.07757418131306382,-0.06509978773574646,-0.02709378317625486,0.09018675507637007,-0.12589529669514737,-1.1588017704192275,-1.5859363703139453,-0.591753810114221,0.44687670303416266,0.17306528502259502
0.478,0.08097089402060609,0.136831512302493,0.05584614002419244,-0.10753206138657247,0.010139188168734495,0.09547962785313405,-0.23408661311787093,-1.365839351181614,-1.824693797828123,-0.6451278790807707,0.552943672471446,0.2954061609956262
0.48,0.14564448698905705,0.18751707392957492,0.041727110173754044,-0.16535741122480177,0.04970161707701069,0.11411454767128072,-0.35108559857440497,-1.5376260432886413,-2.003164882814265,-0.671853086487513,0.68909999470878,0.4372044050634457
0.482,0.2111408869153902,0.24370524250194026,0.03234692732342182,-0.22619684634431908,0.08766180873501678,0.1376859475579887,-0.4725602325724838,-1.7111468413892426,-2.154936065808457,-0.6754854610445074,0.846370282414486,0.59887665418105
0.484,0.27451118808100927,0.29129729675762367,0.016700412747385776,-0.2819219666970341,0.12803454219491775,0.15369091691985068,-0.5901499534808121,-1.9018340854013562,-2.283364947865017,-0.6468084622004974,1.0168969921073763,0.7680575124906451
0.486,0.33642934256197804,0.31066233719302583,-0.025583777643655173,-0.3232911526744459,0.1807382831457263,0.14201285392610116,-0.6885179903126365,-2.0743254905776887,-2.355274497664164,-0.5781486310847264,1.1819532251394007,0.9081586778613668
0.488,0.3960581160198437,0.27402255233164624,-0.12175180753517498,-0.33523921122717376,0.2582301444162613,0.07515175722814264,-0.7492281417258237,-2.163776251392014,-2.3306765842379895,-0.4789002896361577,1.3055746020773709,0.9695653184663086
0.49,0.45180372957939957,0.16183061224455883,-0.2898605994155349,-0.306367930493275,0.3689541126924857,-0.06520561334680383,-0.7622501794898459,-2.134153440049165,-2.2052620363334112,-0.37485485971748195,1.3555855501750858,0.9250708808443181
0.492,0.5003497978811179,-0.014202939039113554,-0.514640337398434,-0.2413480759348879,0.5046737657661995,-0.26521576359497673,-0.7344497188668864,-2.012949829979586,-2.023117123331756,-0.2984328421861528,1.324719023917,0.7871583147284731
0.494,0.5345468645876025,-0.21404594138983382,-0.7487003989241515,-0.15793017524377062,0.6387206746986126,-0.4817489553923707,-0.681717928481048,-1.855021505674753,-1.8312553187083058,-0.2687170981206123,1.2263658771823462,0.5852174112765525
0.496,0.5485949893335135,-0.4019695202556228,-0.9505712215678395,-0.07148799621701737,0.7472370147649139,-0.6770904888566672,-0.6107868157702114,-1.6788229783710142,-1.6283211518742535,-0.2713723348625112,1.0825745478474451,0.34095361505090654
0.498,0.5448880518453895,-0.5672083412340344,-1.1120413840945507,0.012409899426738851,0.8269284406526386,-0.8415250260180375,-0.5169443415593642,-1.4662386984765963,-1.389258873769835,-0.2738448540656946,0.9211735637514347,0.07699690681118226
0.5,0.5306231338357901,-0.7100223348463053,-1.2406152943729858,0.09122397262953545,0.8847383811532792,-0.9776584511597866,-0.4025702434779376,-1.2245192546249044,-1.1339504157038955,-0.27048126816658086,0.7685834094052809,-0.1663230205107865
0.502,0.5101959059249652,-0.8230433017715404,-1.333254666112221,0.15861217381186393,0.9209042746962088,-1.0796008806033857,-0.28470261717970363,-1.0080066764848847,-0.9273509906257489,-0.2933923298609406,0.6330097889604002,-0.3473324371059197
0.504,0.4853576760624953,-0.8921301182664694,-1.3775116237899683,0.2056367114477063,0.9301088149183254,-1.134883489186207,-0.1780329446374121,-0.8628037337872689,-0.8090056194183848,-0.36976605926593215,0.49749336617628676,-0.45955736236686934
0.506,0.45635356436530194,-0.9073386338878998,-1.3637170960436933,0.22713534173695668,0.908060032513281,-1.135129883140075,-0.08336777315937186,-0.784793197469612,-0.7627264195959258,-0.49084284473928025,0.3350855499430026,-0.5363759125598266
0.508,0.4155363511154283,-0.8734844812640287,-1.2891405637575957,0.22991401508819978,0.8497902787267875,-1.081883737510653,0.0016038959665030418,-0.7490872273461878,-0.7581036897329445,-0.6313523567438615,0.13418962001604148,-0.6128092682822956
0.51,0.3474153598257624,-0.8130801981910606,-1.160815830258868,0.23324090369806016,0.7512436550818716,-0.9889832774963856,0.07236205442619274,-0.745665416449544,-0.7823751280079052,-0.7756755278489051,-0.09001874833043744,-0.6943794475902672
0.512,0.24682258147537023,-0.7533320491977863,-1.0005801434472743,0.253425285554763,0.6211923044401867,-0.8796101316114605,0.12241063324040607,-0.7646437478449598,-0.8217091988657943,-0.9131869905426746,-0.30869156667837294,-0.7688372185117315
0.514,0.1344577388665366,-0.70741484115333,-0.8421334093629992,0.28683862456727877,0.48696273046514554,-0.776824642673661,0.14876870058343605,-0.7743005820561422,-0.8415315284498384,-1.0237337112651501,-0.49568579193249823,-0.8307206347977103
0.516,0.0442420886703236,-0.6702826303976462,-0.7145219246315261,0.3136098989486935,0.3791699488768115,-0.6934669240304921,0.1521766936205976,-0.737659199263799,-0.8047688478956256,-1.0795848557532892,-0.6263681641309952,-0.878501558799414
0.518,-0.005171955010515245,-0.6298267448981079,-0.6246159320145375,0.3178484988043095,0.3094301270713682,-0.6280005207394597,0.13865183935352712,-0.640839161781184,-0.7018372050068885,-1.0631928182066634,-0.6786227538003536,-0.9006639917001145
0.52,-0.021775630995409842,-0.5785193727197202,-0.5568968920490478,0.3002066237883228,0.26612516869904623,-0.5689903595377205,0.12027127635404133,-0.49692193985753513,-0.5546290456581492,-0.9844031090834129,-0.6532650085684331,-0.8842932362370781
0.522,-0.026850636672442127,-0.5159601243038049,-0.48938264865694986,0.2719495659886289,0.22902198149726968,-0.5044094670057708,0.11110072826640392,-0.33157936832748797,-0.39427311493680006,-0.8737421692987222,-0.5805970050033084,-0.8327819316724867
0.524,-0.035838983673770065,-0.44426085135043664,-0.40863980839232394,0.2415892306160081,0.18444090802355917,-0.42816212842547063,0.11959369210269503,-0.16810955834669225,-0.23855323725139038,-0.7536782252406415,-0.4918305490904667,-0.7631280579875037
0.526,-0.050576713664892664,-0.3660941141874729,-0.31563928217923176,0.21028916711507706,0.13106562343657138,-0.3423565609932194,0.14197388153761978,-0.019600219749939547,-0.09058494220859839,-0.6266053250403838,-0.3965417912820078,-0.6895251894848452
0.528,-0.06456371382492851,-0.2892300748365602,-0.22464034814250602,0.17840811250767488,0.07825594358342249,-0.25826121781693784,0.16570865444505822,0.10711877757444975,0.04478597439361662,-0.49449544568332165,-0.29626180028371313,-0.6165852879981146
0.53,-0.07158631724554033,-0.2261236114020411,-0.15422913465000782,0.14984285539908102,0.03887812003075782,-0.19154577607183496,0.1827805717748915,0.2026633637393955,0.151477196623022,-0.3750833689353513,-0.20314998959444858,-0.5463842986660115
0.532,-0.07020706687716845,-0.18290940141174966,-0.11212087490306981,0.12751640320212287,0.018551259609813638,-0.1492395484129827,0.19613205173504958,0.25760190256769666,0.21349663301583924,-0.29026352035987474,-0.13430119380860986,-0.48695394115407364
0.534,-0.06387950048519914,-0.1537744330881022,-0.0892718680738434,0.11002674388373253,0.010950783413020398,-0.12352713452127358,0.21076084888626775,0.27485309343585024,0.2321817511484267,-0.24682008053023835,-0.09700987781721081,-0.45076889324234526
0.536,-0.05787705260894923,-0.13095123356460717,-0.0726703830550911,0.0957216287243164,0.0062041579764893,-0.10348083659128629,0.22340279898165596,0.27182301661398184,0.22621770666896723,-0.2348009383325321,-0.08605628633138344,-0.4441963410657025
0.538,-0.05620089955549793,-0.11422254140886216,-0.057930154917994685,0.08650854016320286,3.1342019410528644e-05,-0.08706712208121681,0.22621601743094283,0.26676798074794084,0.21509072706555107,-0.2402442278050135,-0.09029528460339667,-0.45963466204421893
0.54,-0.05974026174294139,-0.10637395856752603,-0.046735292393153015,0.08446092259702738,-0.00691479040997231,-0.07732522443803105,0.21838192350405644,0.2682149921508078,0.20817068796376015,-0.2530435180870884,-0.09880616493117238,-0.4794670010069351
0.542,-0.06314102295859211,-0.10579434893958801,-0.04274922815071009,0.08606754800431841,-0.010303857764808789,-0.07549537630546053,0.2082600868474108,0.27788607440153357,0.2078033320704546,-0.2644110503635607,-0.1036280545620737,-0.4891753563936636
0.544,-0.05685037133341466,-0.10795410598219768,-0.051101813953385686,0.08396800761115966,-0.0032269645417379233,-0.08140954087001395,0.20402913213633916,0.29445699177523804,0.21332184271592464,-0.26620670350794146,-0.10077107622078717,-0.4870097275301494
0.546,-0.039260704616791986,-0.11020410930577451,-0.07089299188609416,0.0757992720358697,0.014539299378085593,-0.09277758422039789,0.2060815281499844,0.31158031035899303,0.22024601351638112,-0.2569418292547305,-0.09132460458477512,-0.4803062615706555
0.548,-0.02259439686804928,-0.1126428029726535,-0.09002533177989858,0.06790687178528286,0.03145724317443122,-0.10323711244799649,0.20833845004564272,0.32118673222791455,0.22316171806402213,-0.24284184024822386,-0.08027873148617462,-0.47470009005430014
0.55,-0.02011688504265663,-0.11662685927332404,-0.09652607438674744,0.06816955611860408,0.03594222791711372,-0.10748380389223447,0.2048942664895399,0.3225891596710638,0.22281261710948067,-0.22934020745927416,-0.07149970030531157,-0.4701723788001134
0.552,-0.0312485583927973,-0.12318814265394029,-0.0919597354571065,0.07726866881363963,0.029157226751338076,-0.10758765657831905,0.19705136081874075,0.32224080187361615,0.2256139765522512,-0.21549807806925683,-0.06407592137292988,-0.46509140515451797
0.554,-0.04391437672295302,-0.1306582108676479,-0.08674467803075882,0.08809180449841984,0.021099725997045852,-0.10892141024342503,0.19382232322645065,0.3236234411206944,0.23431089089876764,-0.1992015530646133,-0.05493044248412696,-0.4592096778398695
0.556,-0.04866447922582428,-0.13401945188421677,-0.08534439753812213,0.09253694877684977,0.017736022223379264,-0.11109154831620165,0.20143704405954144,0.3241142726520947,0.2441589943494934,-0.18354659485310443,-0.044515988412976076,-0.45332132068119096
0.558,-0.04671513720660164,-0.1292363175064782,-0.08251567444268385,0.08867718185692135,0.016486878674991094,-0.10810648236846739,0.21407006862762018,0.3219721505187263,0.2493772781531363,-0.17441314621719853,-0.03796270728161751,-0.44889418399850034
0.56,-0.04489367513645351,-0.11774733764007496,-0.07285680331826355,0.0811951548205225,0.012603464474864063,-0.09702154030522246,0.2203330813985579,0.31953338793342034,0.24874107056966688,-0.1739725892099766,-0.039937641455851665,-0.4475204829289351
0.562,-0.045988734411088104,-0.10515495905590631,-0.059170728640661224,0.07523666466913793,0.006244203346143224,-0.08267694461655502,0.21609775707023596,0.3190291343670349,0.2449147441592361,-0.17948839261870395,-0.04978215883492478,-0.44987494648765275
0.564,-0.046496355326005295,-0.09694974521672695,-0.05045382696333037,0.07193635122498405,0.002463693809783823,-0.07368017188610515,0.20653241118703694,0.32004065563590955,0.24190587664935712,-0.18710996597931875,-0.061895718784415195,-0.45581114812666235
0.566,-0.042754117063514126,-0.0956132770900201,-0.052856910885405235,0.06988158290977216,0.00526544451059202,-0.0747706757908294,0.19904224816466326,0.320829823161482,0.24272035248702453,-0.19474361698395212,-0.06989687783946194,-0.4646376272465706
0.568,-0.03599481157737302,-0.09965442205746929,-0.06365829768975988,0.06835045131076364,0.013090990951539008,-0.08311532239279872,0.19714146198203605,0.3200163046332757,0.24773698736216607,-0.20152746832607635,-0.07146854502365489,-0.4742704184921266
0.57,-0.030838987058973942,-0.10501262135937382,-0.07417423466050367,0.06814582045225782,0.02045701567451452,-0.09156025272108066,0.19896979154581532,0.3178783047030945,0.25517940528776173,-0.20518853105302248,-0.07001800815572844,-0.4809122120806198
0.572,-0.030741736886199175,-0.10814643293432674,-0.07740569923181029,0.06992845569270302,0.02273182481373088,-0.09466016736451019,0.2000859238914564,0.3160925110587626,0.2625114444988866,-0.20161116196406137,-0.06990106773781371,-0.4810499048601661
0.574,-0.03512259881602236,-0.1081601989249005,-0.07305969127246183,0.0725808719271926,0.01937228839192588,-0.09205315841125912,0.19775020287366563,0.31547588096557544,0.2675928162756757,-0.1895779291887197,-0.07041642434059255,-0.4750017836427584
0.576,-0.0401160004118446,-0.10650839931012955,-0.0665232395876627,0.07407483905368187,0.013748079136676089,-0.08760629190790532,0.19289147335760057,0.31533219554839464,0.2697827565704023,-0.17493075945201886,-0.06795778682186406,-0.4676728136681274
0.578,-0.04199714678612541,-0.10552808158798893,-0.06385804423905146,0.07387745944835733,0.010331843457953013,-0.08600670942619705,0.1883035357225832,0.3152199775015672,0.26971221673341833,-0.16708180048768637,-0.0634119489266845,-0.46376821818701036
0.58,-0.04019438731416569,-0.10698503897445277,-0.0672133682440631,0.07360087693736475,0.011413776919627262,-0.08904023800908684,0.18520503401535296,0.3151855293856174,0.2677328090491381,-0.17074026854967234,-0.06251021836013552,-0.46357432725204795
0.582,-0.03747878389001846,-0.11041635300080883,-0.07319333194571039,0.07491998219624961,0.015129844313489722,-0.09383911918440856,0.18227252676778652,0.3145956004939026,0.2636919050017232,-0.18157622117037048,-0.06822140976078536,-0.46513775509329475
0.584,-0.036889396940462345,-0.11317076252947048,-0.07625573747056073,0.07737360212380416,0.017334316899439726,-0.09589912805529491,0.17785081089100077,0.3132456602418033,0.25824323849708164,-0.19046344722526962,-0.07700141767098963,-0.4678602575058002
0.586,-0.0383232637301498,-0.11341584095174277,-0.07494668103275469,0.07887730772999324,0.016512277141961608,-0.09444557351890728,0.17143943488036625,0.313036069345181,0.25313760316190115,-0.19166626994698704,-0.083818089315615,-0.47186378915941507
0.588,-0.03893397122615397,-0.11190825470018585,-0.07291099545390269,0.07795916792680836,0.01527124519814346,-0.09272545110320378,0.16301533732461945,0.31622249524868234,0.24998682232546876,-0.18644005256893048,-0.08764055829130579,-0.47503331521083575
0.59,-0.0364380348544312,-0.10958884143661281,-0.0731750166867856,0.07454541082202469,0.016396755493749728,-0.09263302014616202,0.15350790976568568,0.32251054476014784,0.24951798867326272,-0.179646987155899,-0.09047755013313906,-0.4730491047613358
0.592,-0.031340149304519026,-0.10583438022708852,-0.07441938240086615,0.06952485977686408,0.019378264722036558,-0.09216417184689656,0.1464857970019876,0.3293953984836104,0.2516992880098238,-0.17402195039482013,-0.09377349217299881,-0.4647715056337892
0.594,-0.026733394147768357,-0.10184052266382822,-0.07478188315381071,0.06543365268418024,0.02184395686743585,-0.09030320012167144,0.14634343592956667,0.33447604121725255,0.2551297901560813,-0.1690051993363404,-0.09770898121256978,-0.45595724326965587
0.596,-0.026142754855741,-0.10248125409158929,-0.07588626751596991,0.06607909979487382,0.02283299635562602,-0.09062297036096792,0.15396236274274303,0.3370441317039638,0.2570457926749131,-0.1647675226330138,-0.1017576711605681,-0.4539305125849516
0.598,-0.030555765621140762,-0.10963172553612761,-0.0788050841117782,0.07220026336079323,0.02263853670374724,-0.09530256445023733,0.1661976301541031,0.33848851831014376,0.2561231795771447,-0.16312301549086636,-0.10434154186757992,-0.4597694170083358
0.6,-0.037199796439585375,-0.11659082296667014,-0.07940358453940924,0.07875792191537886,0.020691557425926682,-0.09926325214128214,0.17946013856983223,0.3403246656201164,0.2544258425113413,-0.16358184334126216,-0.10393329122276695,-0.4684990789963425
0.602,-0.04143037689951673,-0.11480795059032964,-0.07340463130917203,0.07955484139830318,0.016559136356116253,-0.09597188653286373,0.19215922011965667,0.34178070597307764,0.2546935696683968,-0.1635052267088386,-0.10103774824447712,-0.475357407455341
0.604,-0.04040856235707845,-0.10431322922133246,-0.06364165536621708,0.07356826034257646,0.012141854244411249,-0.08643272421624919,0.20342344923147757,0.3416254060469418,0.2573739478652256,-0.16276210927094667,-0.09807784515004331,-0.47939627592988193
0.606,-0.03581576628052314,-0.09344127247215854,-0.05715047782137366,0.0654629206648516,0.00990953939805465,-0.07787377718762875,0.21094155472070925,0.34161947382880054,0.2621844798592477,-0.16340414264565314,-0.09749408120135208,-0.48222796647453925
0.608,-0.032353519495918893,-0.08946104788477918,-0.05679191329290485,0.06097985336748897,0.009861519158763349,-0.07531575057344125,0.21257307790884478,0.34466263019272614,0.26997106978586816,-0.1648807056303298,-0.09939340664868654,-0.4852433155491086
0.61,-0.03295362885706812,-0.09259008617345917,-0.05966165763803107,0.06245736673350087,0.010280149569198663,-0.077745663301228,0.21038766183830732,0.35009848181986974,0.28041755024323795,-0.16401085800513737,-0.10146779348369635,-0.488108316657464
0.612,-0.0364004026470934,-0.09857970992692275,-0.06235751114875779,0.06801590841541551,0.010321428142880255,-0.08155426154992818,0.2101742191518016,0.35482601991917384,0.29039570208128135,-0.15963226565512703,-0.10258860675831609,-0.49003347107067313
0.614,-0.03947054266767514,-0.10405834760240326,-0.06466675597053609,0.07389798531425518,0.010682754180306434,-0.08499025330295783,0.21541429886161984,0.3585244410778482,0.29756019578136406,-0.15382555634508552,-0.10463216558265817,-0.4920105708910705
0.616,-0.04047187931113748,-0.1081143703799184,-0.06760815022682246,0.07745243147136098,0.011908400470156026,-0.08820694909075946,0.22379343845611543,0.3639338204777912,0.30383129961455224,-0.1485842250395806,-0.10945085655072848,-0.49595900276873867
0.618,-0.04090132304794814,-0.10999140517295349,-0.06917349047178188,0.07847567545588612,0.012184563863542709,-0.08986103710225121,0.23030666400125366,0.37229384246069164,0.31217728696669667,-0.14431505301499986,-0.11635973791751533,-0.50112582252972
0.62,-0.0433530473084265,-0.10828008080338293,-0.06540467184937052,0.07824221121901138,0.008660354467144003,-0.08709582154842138,0.23179461997376666,0.3808351877138774,0.32111630494497784,-0.14125231836560312,-0.12311199917628332,-0.5036119592219119
0.622,-0.04762894887805539,-0.10372910508443836,-0.0570180115782879,0.07779770557329688,0.002171510498786741,-0.08048283903571561,0.22891207562085705,0.38525521441636384,0.32638739995438404,-0.1392080443355129,-0.12753630111000286,-0.5013700300938788
0.624,-0.05053096205100393,-0.09971174282826646,-0.050205441653793544,0.07710505540043551,-0.002351315929390575,-0.0748957286431004,0.22495040151799078,0.385147413581073,0.3277657111011363,-0.13676251104129283,-0.12890271278568535,-0.49774902898358747
0.626,-0.049807990378815115,-0.09835192178578987,-0.049207556261599034,0.07559455757304943,-0.0016477141076225482,-0.07384676698773181,0.22226347940452396,0.3862399027622776,0.3300754540705628,-0.13338195233114752,-0.12904218637479367,-0.49811148852298376
0.628,-0.046556840094649346,-0.09904834710723243,-0.052691326648756386,0.07365922034790269,0.002544660954834173,-0.07668344459296249,0.22082031092294266,0.394745910576273,0.3371919791747874,-0.13050906892580785,-0.13053097472336875,-0.503982129476782
0.63,-0.04363398531743164,-0.10109028856158356,-0.05754748778864055,0.073002454423652,0.00656998948987002,-0.08134904716246062,0.22049245912674645,0.409722103781003,0.3482547703511206,-0.12835353585450035,-0.1332906203355919,-0.5114731107548177
0.632,-0.04303729684991139,-0.10450990303660183,-0.06176202308036055,0.07471573639283823,0.008471411639433204,-0.08617716325239229,0.22250237756066138,0.42361173398634366,0.3603511648349792,-0.12435008102406273,-0.13549902034742856,-0.5159580150908019
0.634,-0.04514001967950034,-0.1076040908387828,-0.06289480894843555,0.07744313118226052,0.007366970461578708,-0.08852776199631021,0.2282283032999641,0.4304401149468651,0.3724515906682838,-0.1167186604878174,-0.13665960393438598,-0.5177702172252736
0.636,-0.04932063343069581,-0.10646115363343135,-0.05754491617239673,0.07840640379015314,0.0021234933921579478,-0.08478723275210938,0.23729154807249128,0.43211481660648826,0.3850767823081919,-0.10706156530969145,-0.13633538986576846,-0.5207248170593022
0.638,-0.054192376926719535,-0.09914553462155919,-0.045277413731666626,0.07631563562842565,-0.00656951545028452,-0.07415774914459314,0.24646651136684725,0.436177983247401,0.39770336069340445,-0.09848272616664638,-0.13270647343418487,-0.5256895676934952
0.64,-0.05804887072269512,-0.08895222625279796,-0.031161761763242354,0.07274728562893078,-0.015009262108472237,-0.06116908475105161,0.25173727224918313,0.4470096620535786,0.40896154334090945,-0.09251872214924788,-0.1262798930868544,-0.5295258719246444
0.642,-0.06045373309702742,-0.08188514551053738,-0.021613506215364325,0.07091687765846275,-0.020010141274428166,-0.052463123019314474,0.2530554434568489,0.4609222017314226,0.41908400122431894,-0.08779067218984563,-0.12193585904964258,-0.5296809498789303
0.644,-0.06314159628359023,-0.08121864304732505,-0.018089995502994026,0.07313029806517125,-0.022468596702834874,-0.050785174256536385,0.2553334793470808,0.47199297989911665,0.4301520846552621,-0.0814792477386424,-0.12343873594186752,-0.5266109198206608
0.646,-0.06817328597087045,-0.08419660237924585,-0.01581739141290088,0.07815235293068885,-0.02610407076366529,-0.0518884429148829,0.262897843477379,0.48001563605588315,0.4432615603864612,-0.07250374408680962,-0.12805407708250197,-0.5226433092263602
0.648,-0.07468890509425812,-0.08436701855994538,-0.009398182112970157,0.08137899105552321,-0.032771795700059954,-0.04873069611321407,0.2747413332334043,0.4893421891263424,0.4569774551143728,-0.06207378280387689,-0.12991390029853675,-0.5200966694512114
0.65,-0.07853721275279343,-0.07787960607071821,0.0008987963889356828,0.07906247484809675,-0.03991029143317686,-0.039452565728539675,0.286419326277537,0.5019965324294922,0.4702836597500322,-0.050878752027627226,-0.1267071707032318,-0.5200717046760154
0.652,-0.07603260447080626,-0.06654278247874312,0.0098629045355828,0.0715815927617171,-0.04326182927093648,-0.02885436914422025,0.2943198960401002,0.5154161200164725,0.48495577014210095,-0.03884876364297568,-0.12034163537955953,-0.5224342414099695
0.654,-0.067527137852062,-0.0552742854394211,0.012909486090442263,0.06224330671961355,-0.040934456810183144,-0.022377844372887944,0.29765181134965113,0.5265891275355513,0.5016101305935006,-0.028124919712419497,-0.11357537414017523,-0.5257447583906301
0.656,-0.057556134008082675,-0.048222030537911006,0.010033195370768296,0.05472032531517661,-0.034912031661191986,-0.021099689648750246,0.2987372714113547,0.5355148120380954,0.5162494626830442,-0.021860318757260782,-0.10822537764770829,-0.5275928878495816
0.658,-0.05271785364283948,-0.04727373588435531,0.005855308535664251,0.05215992219226779,-0.03039486695772025,-0.022390404766200016,0.3007533449629159,0.5428844420278015,0.5247228122846725,-0.01931925417012839,-0.10460911356899424,-0.5272962205418472
0.66,-0.05743890642601663,-0.0523663068064958,0.005275159621333494,0.056267149788335746,-0.032043639720632656,-0.023917085561699726,0.30364941878169993,0.54703199162685,0.5276958936892754,-0.015596309320358645,-0.10157086413160842,-0.5270978220447436
0.662,-0.06860631997612705,-0.06010855481059343,0.008827316133793093,0.06436515650893627,-0.03888907194963508,-0.024951287855750175,0.3042388233929061,0.5471769665274353,0.5290859313687947,-0.007005450243160752,-0.09796990311417379,-0.5282220704959404
0.664,-0.07711742139981662,-0.06339753772214685,0.01426497846687063,0.06942469599549952,-0.045668870741964934,-0.023866629310320853,0.30058882389271296,0.5472142906131345,0.5320269481313565,0.004470752970819721,-0.09386917498478387,-0.5288014622208241
0.666,-0.07773343443707371,-0.057581664331509776,0.02064969366603972,0.06697217602409214,-0.0496062345833855,-0.018580719399278255,0.2939467231172514,0.5515258933727744,0.536794899315855,0.013246134693422291,-0.09011188933968586,-0.5284740416605519
0.668,-0.07334838186009532,-0.046323683036015875,0.027203611665327098,0.0598583624546119,-0.05159759078593958,-0.010614240248257216,0.2870456992538434,0.5592552723586056,0.5417609765230128,0.01680985154996166,-0.08766351749367973,-0.5302342217290105
0.67,-0.0685752316680623,-0.03721552835996488,0.031227336452233207,0.05348601918852055,-0.0519314456421646,-0.004543361364377194,0.28241909921436803,0.5663154912987289,0.5459880069808654,0.018258067807033988,-0.08703364850107662,-0.5349071276025558
0.672,-0.0643789200922912,-0.033497954343062374,0.03060210219543808,0.049644651212671455,-0.049520310282314184,-0.002895865343783706,0.2808913449845269,0.5708087937034766,0.5499191939041674,0.021607204264169153,-0.0874319149282753,-0.5384966488406935
0.674,-0.059495974691736404,-0.03383219145475096,0.025318433842670074,0.04736478726860273,-0.043936535716245985,-0.005230641307312868,0.27996998908414916,0.5733910471962514,0.5535332776227286,0.027318414217858557,-0.08654689832661303,-0.536779693532847
0.676,-0.05358208682431699,-0.036984632116716376,0.016243927038413132,0.046392584928392794,-0.03612743267701199,-0.010885094006320565,0.27561533633887103,0.5734767054233467,0.554839530786282,0.033676207766177385,-0.08187287259859964,-0.5299073897207801
0.678,-0.048079231971986006,-0.04184745329912626,0.0060190479431918055,0.04668930521160265,-0.02853651646623414,-0.01840968576950461,0.2673511534548562,0.5687059149697056,0.5510572302630298,0.04066388736259883,-0.07338920948676723,-0.522513948821593
0.68,-0.04488019929477679,-0.04565418775552888,-0.0007651737297407877,0.04696406324320753,-0.02403389584491741,-0.02429593833069401,0.25926163678517605,0.5590145120298942,0.5422385540948935,0.049592493608387585,-0.065020011671112,-0.5199245618658377
0.682,-0.045078339362561816,-0.046685927066117044,-0.0014930729994166395,0.04689008090583755,-0.02368863175234925,-0.025990905755275677,0.2540119302325582,0.5480940114922855,0.5335404501298392,0.05816136427923296,-0.061796693263590524,-0.5234657825775111
0.684,-0.04851076646738149,-0.04662443120682186,0.0019438050025298826,0.0483921171652315,-0.026154195635269176,-0.024672371707121155,0.24875444388734164,0.5401213533782306,0.5314656823013145,0.05985698087103075,-0.06424424518153542,-0.5294490818002071
0.686,-0.05309326899222642,-0.04784115088785541,0.00522029605427054,0.05220034070871036,-0.028813658453548763,-0.02353111738845743,0.2393222878133389,0.5374936193109627,0.5369823429485641,0.051320064741902496,-0.06679365387751048,-0.5328466916250205
0.688,-0.05540393226958425,-0.05077559522601339,0.004581882637051948,0.05586021321337835,-0.029007485036709867,-0.024982620016428342,0.2255894095325998,0.5404602880279363,0.5450872524886516,0.037488924354604936,-0.06376909734416071,-0.5317209581142027
0.69,-0.05284063091135892,-0.054580463484259226,-0.0017231025669508073,0.0564590805763254,-0.024916049025920893,-0.02963514104556072,0.21081920730530024,0.5461828571373765,0.5510577564539619,0.027721267783395374,-0.055347335194131375,-0.5276560765775312
0.692,-0.04495823513647253,-0.05727671154780143,-0.012164447595225832,0.052923654274781406,-0.016728407988571045,-0.035602122978143295,0.19873208013235913,0.5495579712046265,0.5535276516321932,0.0288123758517733,-0.045405709394491796,-0.5226921373482647
0.694,-0.0338789211903341,-0.05547064867407858,-0.021272558114759085,0.0458056702948673,-0.00762566527860657,-0.03872047986616176,0.1918436768085816,0.5471233635218202,0.5520932024751892,0.040838040658246214,-0.03606849997505857,-0.518052543198179
0.696,-0.023299770169715118,-0.04739616965532245,-0.02381094723723691,0.03663957283987029,-0.001547347831333972,-0.0361793817750148,0.18951352800288424,0.5398885576422814,0.545771333872028,0.057409885347512936,-0.02675011056999548,-0.5146263585714791
0.698,-0.015336402169708087,-0.036475609243235244,-0.02122133771694875,0.027553941823338125,0.0013330250375963278,-0.030468737573487382,0.18701339613224036,0.5311151132309883,0.5342125832278417,0.07116750164326843,-0.01626314638353796,-0.5116573012165313
0.7,-0.009422779189658862,-0.02922333688729851,-0.020250547978164352,0.020899489236589,0.004305223611050524,-0.02736194060633344,0.1788628861715528,0.5212659278296193,0.5187844420747896,0.07958151912565034,-0.004180224008870791,-0.5065036637189915
0.702,-0.005115625959021496,-0.0289463957083755,-0.02422733060043189,0.018206822024443584,0.008599932842513185,-0.02947841774251001,0.16468094809283207,0.5077459018128988,0.5025136840719965,0.08358921919269331,0.008611714078903744,-0.4979682787791944
0.704,-0.0030913507429166953,-0.03261355271739093,-0.02955652898943698,0.018584990399435997,0.011793212583575885,-0.033687928198121025,0.14985203201803615,0.4903454815213912,0.48831509036411913,0.08253587573530394,0.021214207420218418,-0.48785675197240363
0.706,-0.0023465373800684065,-0.03415946688801831,-0.03162207380582858,0.01873088167615005,0.012531415126903464,-0.03518039931709726,0.1379490551439664,0.4719590183686973,0.4751333874739832,0.07434740150017494,0.034764372128096674,-0.47761706672361814
0.708,0.00025487089652938386,-0.030822757515542372,-0.030960260448562173,0.016019157799263863,0.013243572603096887,-0.03288240950432532,0.1256610983447339,0.45245308648586446,0.45703214531141106,0.059845557019596665,0.049432776174256544,-0.4660600521324499
0.71,0.005753611713921571,-0.026408173088649498,-0.03220625159510123,0.011930162698478871,0.01675863946608756,-0.03063050104356755,0.10861444921147898,0.4280371866759029,0.4297754104267606,0.04379985284395385,0.060087256674422954,-0.4521068726348274
0.712,0.010833795073319054,-0.027359191074726483,-0.038278011506875174,0.010723438206187118,0.02257874204307177,-0.03319541254289997,0.08832247528985426,0.3983687804356623,0.3971250921472564,0.03044464068128605,0.060476361928344345,-0.43736063303766476
0.714,0.011648954377993242,-0.03534421688657144,-0.04700990195353144,0.014321704376875766,0.02775209780211675,-0.041187591779870185,0.06992916858149471,0.3688174922089871,0.36641510689516915,0.01859747265996242,0.05061826460828231,-0.4251020247264525
0.716,0.008470914675984743,-0.04535657046788393,-0.053789245830035144,0.02020091140293443,0.03022402018253028,-0.05035479872369553,0.056011003319791544,0.34361261746887484,0.33969310572765044,0.002964422550173563,0.036275316460111874,-0.41822599437519165
0.718,0.005377981091717011,-0.05122822302570054,-0.056578817816173625,0.024092923859961275,0.030672246026217195,-0.05578156721860948,0.04504301850578354,0.32020259494384934,0.31375783830835785,-0.019009281181524798,0.022976043831306654,-0.417357346041751
0.72,0.006005398718495046,-0.05139949033469585,-0.057390717467153504,0.023680661548040754,0.0315240566212395,-0.05629493912271705,0.035068668871231896,0.2938710061802122,0.2869474556320686,-0.043167846078085464,0.012099855649481121,-0.42049204609092006
0.722,0.010458672398630155,-0.049060939763807765,-0.05938500477492119,0.020113477748434274,0.034566332857223867,-0.05496606836954772,0.027665513566688744,0.2665163987130245,0.26144038908483863,-0.06306147635712936,0.0013590028058095725,-0.4257091504550708
0.724,0.016035829079102625,-0.047945095648180704,-0.0635049181277555,0.01646472597216662,0.039323840487280555,-0.05550911678750354,0.02641909539485591,0.24537908642657097,0.23944413251120786,-0.0770572946845727,-0.011282587286901393,-0.43280467093423225
0.726,0.01939022967476319,-0.04930743987805844,-0.06778644378496258,0.015269217018896067,0.04311110243904571,-0.05857242856708724,0.03092572368754427,0.23238842519407613,0.2199593557797858,-0.08896287075035542,-0.024588747439032995,-0.44066263715177784
0.728,0.018002478154739016,-0.05283266466915259,-0.0696919196193608,0.017672425129945765,0.0430760568314368,-0.062198049342898666,0.03602141040598511,0.22068364598122586,0.20011795124989296,-0.10279903246109842,-0.035938666459160565,-0.4456757912572292
0.73,0.011415168346752559,-0.05864965087424673,-0.0690862345913705,0.023806828895833826,0.03899793277444498,-0.06534453800578417,0.03874746507716291,0.20354461807269825,0.1787907334478007,-0.11949515522000592,-0.04508494093500454,-0.4449183227969839
0.732,0.001956049884104017,-0.06705719341564423,-0.06851065290619776,0.032789593726342436,0.03378845867581307,-0.06931318293086919,0.041668062146266074,0.18204622670745835,0.15781912440474716,-0.13758736533968224,-0.05422833254650217,-0.43951162366216723
0.734,-0.006402767948788797,-0.07690786682006055,-0.07048548220172252,0.042281451720393444,0.030929573072068065,-0.0752626427622069,0.047293904184873586,0.16164460089086025,0.1401103648656195,-0.15461139798355364,-0.06472856721263771,-0.4338712283760762
0.736,-0.011378263954905479,-0.08578210746154463,-0.07456882167400875,0.0495609918202659,0.030910880397358252,-0.08183680125463612,0.053602047189135846,0.14450602622010714,0.12719944033629518,-0.16855438613264861,-0.07548136517516804,-0.4318302058790983
0.738,-0.014391352066389636,-0.09183071253474746,-0.07741305061978186,0.0539257990484999,0.03066880161351986,-0.08637773600174842,0.05664772099542198,0.12838302178240443,0.11800183128970185,-0.17931892038376487,-0.08529571857413716,-0.4338025776488094
0.74,-0.017399763253879427,-0.09513476698698856,-0.07738822806028894,0.0568150655704024,0.028560723829027863,-0.08829530353276785,0.05483665003362311,0.11154441094820024,0.109762921009213,-0.18845109500012974,-0.09485601796031946,-0.4377924192544174
0.742,-0.01918758162368834,-0.09789003486168253,-0.0783588898890642,0.05946375441972192,0.02806821656753164,-0.0905380009676901,0.05028535554851647,0.09511058402511749,0.10043515904578218,-0.19757549306980832,-0.1046097574635138,-0.4418841252826428
0.744,-0.017847020891960767,-0.10246863278390171,-0.08483340779594262,0.06177969949576377,0.03258378190057969,-0.09613951645663127,0.0467870286148692,0.0806701312794086,0.08951241415895456,-0.20736241422957571,-0.11332916039304021,-0.44536903620416646
0.746,-0.01487865500670135,-0.10807248405244271,-0.094156390232423,0.06318258922293868,0.03916023834077867,-0.10329524611976872,0.04658568158390694,0.06909245293729017,0.07730029710071308,-0.21727826599791786,-0.12049900034850315,-0.448969508368631
0.748,-0.013452143533907179,-0.11088787151859884,-0.09876354937915659,0.06341186365150134,0.042029985631984616,-0.1067143192680686,0.04925862366417349,0.061844856341416746,0.0654559996405913,-0.22563387345453345,-0.1269345583829487,-0.4536835546777605
0.75,-0.014254516999319395,-0.10871725453916117,-0.09562992679174799,0.06255342181229082,0.03978997286519671,-0.1041515652697265,0.052319342464103184,0.06006198673224926,0.05746589844399181,-0.23037106026433116,-0.13208619141721203,-0.4583913686210777
0.752,-0.015237238229578925,-0.10332990972871013,-0.08886454273955871,0.06070171745595832,0.03583418946856856,-0.0984894288731148,0.052662840928217186,0.06189353622847188,0.05565366286745912,-0.23095418178339977,-0.13423173066273397,-0.4603666674350837
0.754,-0.014090899829376023,-0.09747060068792007,-0.0837630086030956,0.057697330312992325,0.03399794332448928,-0.09336198044295851,0.04906174157820378,0.06321017652537439,0.058000416790752275,-0.22934909119596902,-0.13388436118192157,-0.4594079866885975
0.756,-0.01024554370725275,-0.0922352179945225,-0.08206149583152757,0.053566208205114374,0.03547908943285741,-0.08990147388796732,0.04331964556411534,0.061174510721268074,0.060169655327529624,-0.2282127715252954,-0.13390536178367768,-0.45897212922148334
0.758,-0.005543736325812652,-0.08823186416820816,-0.08259097526151012,0.0494127030867865,0.03857669718799783,-0.08788767444910572,0.03868765980285126,0.05607794246854344,0.06007630891048196,-0.2285587440061772,-0.1356900756119329,-0.4614146777071906
0.76,-0.002686548106104294,-0.08673103592016392,-0.08395425350141353,0.046952573642077784,0.04087878199562444,-0.08734448440035207,0.03700418793325347,0.049922964875712905,0.058780264958852364,-0.22992313215231514,-0.13777164701349215,-0.4645864788334691
0.762,-0.0028835659236763553,-0.08859641867404416,-0.08571238732564998,0.047071074383048424,0.04152048830890256,-0.08837841709961043,0.036725584185747576,0.04398218164450886,0.05738307198283232,-0.2317735256671435,-0.13890147154088076,-0.46485469095802084
0.764,-0.0055551230637913545,-0.09294953877366305,-0.0874406296362742,0.049501270107939616,0.04081264448153703,-0.09046233077965499,0.03470470910817846,0.03833579882686287,0.05471410064816901,-0.23360694508783522,-0.14031633958156642,-0.4612562891759289
0.766,-0.00912624506881957,-0.09687385223188838,-0.08777034236307564,0.05289057446568788,0.03884535018764533,-0.09203227855711846,0.030590658651954195,0.03332267129186306,0.04913959256537013,-0.2346358272747165,-0.14384899005417393,-0.4554366598991246
0.768,-0.011919817300985435,-0.097124346889579,-0.0851906824471801,0.05501355985683077,0.03542920543410596,-0.09121905037406876,0.02743535609545772,0.030129117495765044,0.04222923473688643,-0.23432157638995416,-0.1490293039111063,-0.44914584743410635
0.77,-0.013489127382412069,-0.09314219659271115,-0.07963417504969784,0.05448336231526395,0.030917702352384852,-0.08759837722426643,0.027344656445802296,0.03005461960996094,0.038751881339975536,-0.23243100436820344,-0.15289299197335282,-0.4433910036015011
0.772,-0.014496835765586991,-0.08783386273062677,-0.07333553643490834,0.05238565168618692,0.026931090167920526,-0.08301538572672133,0.029069794983430545,0.033470329659367526,0.04160848801531472,-0.2288070358682389,-0.15296320093908997,-0.4396978353012555
0.774,-0.01533209974960323,-0.08498433258652971,-0.0696618075107282,0.05130589076055523,0.025519487351634645,-0.08024401614025874,0.030621935496450276,0.03880104913241624,0.047813616585068455,-0.2242294894131241,-0.1504556187777687,-0.439729421122651
0.776,-0.016365387907163555,-0.08582396172082943,-0.06946395502995373,0.05254034874802809,0.02631834871340927,-0.08002748420268373,0.03183762922835923,0.04319087622605727,0.05171435609670555,-0.22037044185275076,-0.1487853910398123,-0.44253535938371946
0.778,-0.01890070514388893,-0.08836935600992361,-0.06944405770780329,0.0551556440373131,0.025867186443221807,-0.08003870450884162,0.033371672402322514,0.04493333611993128,0.05180496748696256,-0.2176383830596309,-0.14857946390618312,-0.4443016573405126
0.78,-0.02358276394594299,-0.09049131502590808,-0.06675109271888978,0.05789814244455989,0.022078285736154092,-0.07856159323090935,0.03531286551424341,0.044602702042456074,0.0518694201818874,-0.21468478766077773,-0.1472051342980372,-0.4421316311547388
0.782,-0.028019380360592587,-0.09178165576075287,-0.06328104172464273,0.06016260894350457,0.017778936231981957,-0.07726802829071709,0.03791309338577483,0.043831652772975224,0.05543660358881095,-0.21113049934123512,-0.14371118860975465,-0.43700866472862104
0.784,-0.028705350823879875,-0.09151549603427131,-0.061930831646234114,0.06091320650354495,0.01673408726305645,-0.07753881824580813,0.04158281931094248,0.04385856584350751,0.06185089398481762,-0.20861992558307108,-0.14058778812301267,-0.4318341979920449
0.786,-0.025699881434573676,-0.08769082813737868,-0.06098665484175089,0.05880422500331832,0.01774082701863638,-0.07664806580538153,0.04490508980362394,0.04546095451543924,0.06848565758308144,-0.20784904913560465,-0.13963995012391867,-0.4267723834306194
0.788,-0.022744190983899914,-0.07964608581935709,-0.05624892459709755,0.053940011505390115,0.016311381714065713,-0.07100269884023164,0.04486245943923563,0.0489660621404125,0.07398799931581129,-0.2067035738636077,-0.13945130932571034,-0.41907243655693244
0.79,-0.022583323235330226,-0.06997810802535073,-0.04728784203345807,0.04843995999499422,0.01110192127011784,-0.06149330385574695,0.04065143581621043,0.05314559681936559,0.07786093379170138,-0.20286533883505145,-0.1382576815332442,-0.4084885985315306
0.792,-0.024466781246652348,-0.062464883865362975,-0.03810129887176672,0.04458121902147997,0.0051849024387419715,-0.05251535518251743,0.0354740855129174,0.05533535282549459,0.07963518369666933,-0.19706862049787915,-0.136768136910047,-0.3994034912115161
0.794,-0.025788834581193312,-0.058280756798672236,-0.032327811462213356,0.04252433583559087,0.0018871189612260256,-0.04668229073418662,0.033470972642855486,0.05372154958068229,0.08038868695176607,-0.19295451440179326,-0.13689895928202198,-0.3962259280126421
0.796,-0.024612259396401028,-0.05529975464883832,-0.030225855764460144,0.0404534963087053,0.0018993587280898535,-0.04313310528920475,0.03616109604100045,0.04904817195488359,0.08255664565050036,-0.19362042989865497,-0.13912456306176077,-0.3992008176224357
0.798,-0.021451671645830644,-0.05133729639674262,-0.029525284736204565,0.0371782488370298,0.0033998871375726437,-0.04009890147469785,0.04186255727965092,0.04435160556523409,0.0864698920128763,-0.19799303688952885,-0.1417324564470958,-0.40489050403885496
0.8,-0.018993044991704296,-0.047273749305027354,-0.02825525875811339,0.03400428933818038,0.003972041195951696,-0.037447697453767664,0.047247517979278404,0.042906786410002076,0.08975609435179284,-0.2014325038733607,-0.14233736000813274,-0.4092372191196302
0.802,-0.019309442479373932,-0.04624774162070539,-0.0269735542421882,0.03334191201838481,0.0029403948033301444,-0.0369663081100544,0.0494114759778225,0.045442671415540675,0.09182185489322857,-0.20033498152291987,-0.14012526688445362,-0.4098183103168503
0.804,-0.021729924952616796,-0.04948317636833961,-0.02739392440990677,0.03570911759924193,0.0014691370611109116,-0.039766185499216275,0.04763223792211834,0.04968063492062744,0.09555646923041908,-0.1952791007373553,-0.13647272278701522,-0.40570786499773953
0.806,-0.023633740527042063,-0.05415270778702138,-0.02971681376249362,0.038898105841077384,0.001078526659247213,-0.04391225499285436,0.04349358984763778,0.05283384520888496,0.10225212056534709,-0.1900225585198648,-0.13335142588856977,-0.3973455298470061
0.808,-0.02327105030301631,-0.05682025162527983,-0.0327701066397645,0.040453208406172204,0.00266842969967105,-0.0464423585169605,0.03840044289171259,0.053339904992723945,0.10812475119856153,-0.18771525490137173,-0.13184345381955112,-0.38742935592589345
0.81,-0.022239112182595434,-0.057426225557985516,-0.03479431887609514,0.0406002507450394,0.005045677961126998,-0.04666127720323751,0.0314990229501067,0.05046150772679937,0.10850927812824386,-0.18745188587392156,-0.13223881751717606,-0.3793719028742572
0.812,-0.02412983235780728,-0.057955386504717835,-0.033554695098651846,0.04183764939413436,0.004743749433622329,-0.04569823756662976,0.021809816227588607,0.04472699741838126,0.10349925949490532,-0.18543506103939528,-0.13414968312961745,-0.37426335552325496
0.814,-0.029657047266230138,-0.05898312771968365,-0.02865540355862077,0.0453806414439476,0.00013953521118645156,-0.044535811508914905,0.011532298722445666,0.03913974135364621,0.09778040444991695,-0.1802687160408084,-0.13591919306662656,-0.3712984214924739
0.816,-0.03478980842535528,-0.059470646954427185,-0.02352946467918419,0.04901253523748452,-0.0053403201523155724,-0.04373953081916686,0.0046357481965644525,0.03742801035849731,0.09580580606608165,-0.17504383461933207,-0.13531918050252453,-0.3698209581171031
0.818,-0.034866901762489376,-0.058349388467413665,-0.02225126002802712,0.049071548110750526,-0.006838353433201537,-0.04338995421807315,0.0022046746494722323,0.04017023705627719,0.09830706135030612,-0.17285650635387134,-0.13159781319681693,-0.36874648365053964
0.82,-0.029334944135802156,-0.05481123011791381,-0.024602466468558386,0.04408328549676615,-0.003709095681007048,-0.04227469589639654,0.001140688278071124,0.04397284955111743,0.10302088537236109,-0.1728080250103033,-0.12624862110784313,-0.3661545522000491
0.822,-0.022127488123489115,-0.04843816920076282,-0.026055981082538513,0.03618491391108052,0.00021162590302828876,-0.03838705375989061,-0.002242905605677825,0.044944315597646035,0.10724005188329998,-0.17221663116561403,-0.12189131677339499,-0.36160580598064235
0.824,-0.018047749590034204,-0.040521120122734545,-0.022915577794792988,0.029299199121612298,0.0010059134254752223,-0.03161184747497127,-0.008668492375133402,0.04239789877724101,0.11001247865520417,-0.1704810826534424,-0.12057853308415582,-0.35738911104732435
0.826,-0.018849093178330265,-0.03505704237365246,-0.017072913235928418,0.026667982694929447,-0.0017031160873926037,-0.025797991031919272,-0.015960074783474054,0.03910055324560812,0.11243803556171045,-0.16951250160946882,-0.12274618470955452,-0.3565460839284746
0.828,-0.023000615050902673,-0.03683734713880882,-0.014462620130979894,0.029930090495734474,-0.005202523679046878,-0.02616308938295389,-0.021613820197359114,0.03831492816378709,0.11490781238472869,-0.17164603205368048,-0.12722369011543966,-0.3599859138883999
0.83,-0.028654736892681276,-0.04634922937474578,-0.017570413460732934,0.03825614703364996,-0.007312788700160451,-0.03305815523220849,-0.025383359117768196,0.04058054854927556,0.11552474147655269,-0.1768286130280171,-0.13174510469034179,-0.3650181265291963
0.832,-0.03481400325598748,-0.05781887390516474,-0.022357793474980084,0.047769827104102616,-0.00828165575492715,-0.040921483525601536,-0.02913329490450105,0.043256251100491624,0.11319720648089365,-0.18184147754451332,-0.13461702302568623,-0.3670475109429594
0.834,-0.039236974823651474,-0.06567045084045614,-0.025957674746593284,0.054130884546198604,-0.007784358805041847,-0.04615409990988774,-0.033784659315496596,0.04350125184395395,0.11025095231258814,-0.1838528318891932,-0.13673368431825522,-0.36376654825505145
0.836,-0.03921917869078979,-0.07025995030922605,-0.031094335962678188,0.05637162366879834,-0.004065196780341785,-0.051058771802223256,-0.03812703322528548,0.040855777684790186,0.10929857244419547,-0.18402351565880826,-0.1401262362790136,-0.357915804387842
0.838,-0.0372187864777617,-0.07307489053314388,-0.0362308398756387,0.05701455614133116,-0.00038393522714540954,-0.0554847258622001,-0.04168992557258847,0.03573399540830424,0.10875358247126252,-0.1861406635045489,-0.14450039117612518,-0.3549513039497894
0.84,-0.04074084607318524,-0.07148950724929143,-0.031040197796643066,0.058517464194743705,-0.005697134110048138,-0.05245508558589529,-0.04678232566574275,0.02738210104018771,0.10487080528389298,-0.19184908648364418,-0.1470432643777637,-0.3563134542440062
0.842,-0.05211455534173999,-0.0631695089292009,-0.010933876116680015,0.06018645072532154,-0.02236126950781222,-0.038443875613189626,-0.05545685181683394,0.01533285392015276,0.09701146530331729,-0.19770219274354853,-0.14527791943466423,-0.3561466448439806
0.844,-0.06311946631895335,-0.04917338805909788,0.014522978350319501,0.05802494085922279,-0.04057818493339737,-0.018961512118751522,-0.06525658247544233,0.000499822555199573,0.08635087722301457,-0.19873191717277341,-0.14000738185134945,-0.3475419497786195
0.846,-0.06490833776164606,-0.02957919811819667,0.03590553590019459,0.048134590659885255,-0.05130142214827762,0.0014489593884906434,-0.0709373013857501,-0.017113487633639977,0.07187027931509321,-0.19503126296170628,-0.13474218827914772,-0.3302747032191958
0.848,-0.05914425645517429,-0.0036954560540831253,0.05544213249406895,0.03163308204778495,-0.0571511011902409,0.02470467458500396,-0.07067234115997154,-0.03914355014332877,0.05341587239510671,-0.19062864508536975,-0.13017341207371938,-0.3092147759777957
0.85,-0.05376253256406144,0.02431809113446616,0.07752141991636392,0.014699324445064018,-0.06495781576641278,0.05074932311270171,-0.06819715214339252,-0.0653837490507437,0.03639191955877767,-0.18586656449223865,-0.12253751577064965,-0.28843031446523026
0.852,-0.05193580283892468,0.046753534094354586,0.09817312294756886,0.002733362196950584,-0.07474379526214849,0.07289354146592533,-0.06908429797627676,-0.09227741830434971,0.027847905825955102,-0.17610721532963136,-0.10978932308194174,-0.26993065567525965
0.854,-0.051736656803566025,0.05908039704773633,0.1106831446186412,-0.00302224771362917,-0.08209370636862656,0.08492897723347657,-0.07633078678621104,-0.11885495022267435,0.024970553916948374,-0.15888081789726163,-0.09280640089125305,-0.252377811351545
0.856,-0.05269086112472492,0.06386281677256152,0.11660593171991047,-0.004339025546043004,-0.08665835811750176,0.08916073564895385,-0.08909389499488993,-0.15624838554234535,0.003300881460111085,-0.14045354324324905,-0.06922404726459115,-0.22742529283346194
0.858,-0.05444238758893634,0.07215726885833856,0.1266441963513012,-0.007104542835594065,-0.09248410438603645,0.09725122678451313,-0.10659236462090978,-0.22846496402315652,-0.08209162801725271,-0.13543075980344307,-0.03417725245801595,-0.18330940502749293
0.86,-0.04962210562345063,0.09839730266568605,0.14812145435406632,-0.022224744791510067,-0.09956797821405199,0.12069648833949391,-0.13358225740168428,-0.35717879277983383,-0.2707788484652189,-0.15824828393332963,0.01272107160965899,-0.1150391145322801
0.862,-0.027630837809294793,0.14468040311547803,0.17248543290411336,-0.05626349563622452,-0.09973730000532433,0.15618897993819625,-0.17890769545980406,-0.5449984193513892,-0.5635876841253775,-0.21176934624689936,0.06808293491926418,-0.02741572148520606
0.864,0.009200874265141204,0.19250958668785895,0.18343474118579486,-0.09899176705025563,-0.08704312277705624,0.18581897835225303,-0.24913161518285104,-0.7762359991978446,-0.9171517055434081,-0.28416849508170006,0.1321036346856778,0.07252659941604367
0.866,0.043717790371317226,0.22145147025573955,0.17783298406756892,-0.13119886564836425,-0.06797652599753139,0.19762965423021786,-0.34527325065252895,-1.026898697657801,-1.271190465661209,-0.35890866763208135,0.211157433563254,0.18298399752887406
0.868,0.06937068360972504,0.2358246608712763,0.16672688503738234,-0.15129701918938415,-0.050408370615735776,0.19957355835958532,-0.46039324712905744,-1.2676149280633426,-1.5784420793151897,-0.42591932734463284,0.31326278234167226,0.3074540517653949
0.87,0.10518974540787011,0.2621540188933752,0.15749604098984332,-0.1822047605853517,-0.028393223078008543,0.2087013266100168,-0.5797111076413324,-1.4727270411618427,-1.8181206489087267,-0.48014173007660604,0.44208316167818174,0.4507451716822904
0.872,0.16818941251219768,0.31721292391865746,0.14963711759975562,-0.2410715158280601,0.006694020672688813,0.2329166880613208,-0.6919159604064118,-1.645827546764525,-1.9985402255826348,-0.514401303061942,0.5940891660765111,0.6140445095686405
0.874,0.2434248318005208,0.38555619786324935,0.14255526233199908,-0.31280321422560114,0.04798172416329366,0.26402643877488,-0.7977777854296897,-1.8218554263089597,-2.1458509258404423,-0.5212102173421453,0.758615642230527,0.7871940764520534
0.876,0.30174003204005634,0.43016170102787377,0.12852771570325222,-0.364614771744866,0.08495615181242232,0.2795652318842679,-0.896573522769926,-2.0172071420996733,-2.2701419128829787,-0.4979495349425596,0.9177563567934985,0.9420701387666948
0.878,0.3364607630285581,0.4167835070113899,0.0802393339901347,-0.37609466417631016,0.12728300207128496,0.24856784952249708,-0.9716398588177829,-2.189093942293936,-2.3407598817611324,-0.4454500309057365,1.0473474621507817,1.0383294493985273
0.88,0.36449815133483593,0.32795674180082435,-0.03651561707187252,-0.3461815409500601,0.199515246764284,0.14527581659635314,-1.0047452755231079,-2.271750131593458,-2.3154317509966655,-0.36973311878414566,1.1239695077518483,1.044402496247318
0.882,0.4001297906689009,0.16935600939105946,-0.2304689206943259,-0.2840306418295657,0.31318771128011785,-0.031241142273700645,-0.9984877183464288,-2.244053629945612,-2.194520707868317,-0.2902962476779803,1.1347151911800248,0.9562688930117883
0.884,0.4411418283291467,-0.029561224956390162,-0.47035732632371036,-0.20364382400220402,0.45270448562557386,-0.25031353982589916,-0.970540626385771,-2.1391097687984226,-2.022722514879762,-0.2337834232983276,1.079926454886069,0.7921731395491102
0.886,0.4757412414788911,-0.23118980772463832,-0.7069765503606026,-0.11933347778136236,0.5883281056237586,-0.4692592068186965,-0.9300399344513149,-1.9950371730511802,-1.8328427280831077,-0.2080411092715755,0.9711678216567432,0.5721870154286398
0.888,0.4958092850478584,-0.41086594833220724,-0.90716217078893,-0.040081520587523206,0.6991593153758092,-0.6599784262297833,-0.8699296234393674,-1.8177762687018066,-1.616022762562709,-0.19141471669072624,0.8328833752958189,0.31643032945091754
0.89,0.5034126776256252,-0.5595616933650683,-1.0635292727254508,0.02959839645889817,0.7820145134191976,-0.8138051481633405,-0.7814402433147627,-1.5993637167715504,-1.3637399602128322,-0.1621991924289854,0.6985502829282074,0.06202721449452575
0.892,0.5048275198223213,-0.6749609255707545,-1.180176854061994,0.08670446322054726,0.841653691784563,-0.9302638134407163,-0.6706935472083924,-1.3610011992780175,-1.1128941370938374,-0.13295700185522227,0.5902564945412259,-0.1437828201792944
0.894,0.5006850802099737,-0.7591654020745932,-1.2602010740541592,0.13162490694191117,0.8796064630873587,-1.0113287582731403,-0.5582626511875619,-1.155236852708517,-0.919853169522143,-0.13794055298307561,0.49986356915686575,-0.281151348770678
0.896,0.48570330108199516,-0.8148710009798235,-1.3010313643636906,0.16706610114757778,0.892098630408856,-1.0580450164316992,-0.46348153282543486,-1.0196558703553888,-0.8040175927902742,-0.19062527297980153,0.39789956002652527,-0.37152057847634834
0.898,0.45539861313499985,-0.8367699976015621,-1.292612741879791,0.19229766602512652,0.8723470475890979,-1.0643661516392293,-0.3945934593509721,-0.9478573427700805,-0.744472208035376,-0.2744662572177108,0.2616028660432052,-0.4445286596086053
0.9,0.40813598193597367,-0.8186551156697714,-1.2270137657104045,0.2058013229066501,0.8157241154470423,-1.0237057104420562,-0.35205462576854873,-0.9131642066219899,-0.7208095558052274,-0.3730571086391481,0.08983052981878376,-0.508492149289661
0.902,0.3425023036149405,-0.7712210487641066,-1.113761924905248,0.21436483662392902,0.7262116362615376,-0.9449654751249466,-0.331607920514442,-0.9008668799979314,-0.7281336972292088,-0.4868095809687864,-0.10531601742567315,-0.5614331191341305
0.904,0.25918304809988413,-0.7174996632788165,-0.9767383038547983,0.22934988750524643,0.6162864869899048,-0.8501373777333764,-0.32472595476350896,-0.9044785956535109,-0.7542743535158715,-0.6147514444391015,-0.30984946171652306,-0.6107695963819867
0.906,0.16936132524748154,-0.6686940563641767,-0.8381144005385689,0.2504344404892518,0.502832135486239,-0.7557140930292959,-0.32211036965635864,-0.9014354158971318,-0.7651000776623109,-0.7329880615565384,-0.504043956139227,-0.6647999540415845
0.908,0.09565498579985632,-0.6178245268242814,-0.7133909208674182,0.262108689495955,0.4043988365368158,-0.6669513854696254,-0.31575029818128864,-0.8496662459819977,-0.7206322033300335,-0.8005782045524458,-0.6535585095410901,-0.7131174242187832
0.91,0.053000176273194165,-0.5570470640997887,-0.6099660510505033,0.2525832569077376,0.3312072681053317,-0.5846119035763675,-0.2994279529709239,-0.720336262652097,-0.6048889271333509,-0.7904548743519793,-0.7226072000923475,-0.733062791800038
0.912,0.03022031179699724,-0.4887226188309875,-0.5192734193905871,0.22927858072997764,0.2733793211179879,-0.5055042415644588,-0.2726302852951205,-0.535240500582519,-0.44320837062640683,-0.7151245399425223,-0.7068993111980184,-0.7168216653147156
0.914,0.004016813894416986,-0.4187607932368666,-0.42358094202130636,0.20776955397325322,0.2116130471551693,-0.4228512160681029,-0.24006588252681646,-0.3571892096244203,-0.28616169832682253,-0.6157396264697209,-0.64190631698437,-0.6787061170440644
0.916,-0.031382363476682336,-0.34879808485154556,-0.31819366050039016,0.19149879408825818,0.14146050505312455,-0.33486602178020486,-0.20249297823510087,-0.23188758316860492,-0.16696749382331666,-0.5223920380221804,-0.5670797937598796,-0.6329679009288757
0.918,-0.06303159654376352,-0.27835006322077177,-0.2155700142737901,0.1725838941745653,0.07489617484665101,-0.2480693378721206,-0.15504989196257057,-0.14985693572647113,-0.0780081173574291,-0.43335188856607176,-0.4932893781879296,-0.5788310795746326
0.92,-0.08240480624560269,-0.2114905220583995,-0.12887063695835785,0.14851953549010044,0.021784273760201273,-0.17135497145919792,-0.0995647979840692,-0.07609062431120692,0.004337526967303619,-0.33657496748355575,-0.41485313779853383,-0.5142453081217659
0.922,-0.09285980535751262,-0.15751194240878777,-0.06441022752453544,0.1263677564905105,-0.016100508912234947,-0.11242865241956243,-0.05010395766873116,-0.0005484585044206332,0.08248190150561256,-0.23762732014015664,-0.33703995776046153,-0.45094399378207084
0.924,-0.09759973467027584,-0.12204660684160504,-0.02443772374313783,0.11095770146866132,-0.038399444262761026,-0.07514512373977025,-0.019974617774437684,0.05924641546104505,0.1387494731815499,-0.15633762780319838,-0.2749787173706766,-0.40440419882979306
0.926,-0.09489623509272561,-0.09986218826539685,-0.005068285009811692,0.0985815815618919,-0.046339191788837865,-0.054562340245715234,-0.008507318865275058,0.09244127140938362,0.16531680979243935,-0.10518015971048776,-0.23405990848501804,-0.37698244531622965
0.928,-0.08490031606845966,-0.08145353869114356,0.0035353968001281054,0.08432789291517401,-0.045527379436637025,-0.0404767994499012,-0.005636246231266373,0.10920972830159743,0.17473185208805053,-0.08137374115313717,-0.2061375600238284,-0.3604175349527709
0.93,-0.07354700819541225,-0.06452928714473069,0.00951285561274473,0.07001704957078345,-0.04276539767901739,-0.02798550925494606,-0.00543024985066442,0.12306989175985289,0.1802338252918772,-0.07625636145289387,-0.18394291387057823,-0.34949727309641176
0.932,-0.06833750276254195,-0.0536549840199214,0.015506988592342397,0.061784019730123645,-0.04261787094155501,-0.01910929027648222,-0.009171324613574982,0.1346437378995892,0.17994987587584635,-0.08422230707283478,-0.1708351846049807,-0.3465629407954702
0.934,-0.07097218384271747,-0.05139247976027193,0.020394398324427934,0.061877537096594805,-0.04575293914226361,-0.01610188831297732,-0.017030826797320618,0.13774529565983148,0.16608627208547075,-0.10175528057278592,-0.17360495394088646,-0.3547087289789119
0.936,-0.07555518008892378,-0.05494499730587039,0.021163280315561514,0.0660131188365982,-0.04853702605289645,-0.01842223337963014,-0.023896852955993673,0.13306587182258367,0.14166316470172607,-0.12178771781735341,-0.18922238514288295,-0.3703654872568108
0.938,-0.07565461817800755,-0.058998966009630574,0.017044713675737042,0.06826829633192713,-0.04748078086943461,-0.022973599487865887,-0.02529974583780631,0.12853248192419967,0.12118184294596475,-0.13309563730120627,-0.2037187959260348,-0.38422556472081765
0.94,-0.071332530682052,-0.058910009551648095,0.012934720187587857,0.06624387947349526,-0.044157412113457535,-0.024685141624182543,-0.023030807143411974,0.13033597188605078,0.11664865838348046,-0.12792710018945033,-0.20518038291388474,-0.3890568420058839
0.942,-0.06773795450972248,-0.05396260978680639,0.014494286871809557,0.06212157255160422,-0.04296601332211776,-0.020854138240424296,-0.022281299890883087,0.1395516025436376,0.12710371449044944,-0.10903640548918618,-0.19435182569554926,-0.38499132512192513
0.944,-0.06851231127688057,-0.04810442258558864,0.021044578474800336,0.05980761630340139,-0.04555297243535459,-0.014685245448107441,-0.024365631642274923,0.15368724232315809,0.14238940204540085,-0.08640912955146325,-0.1800116027410027,-0.37746369282738074
0.946,-0.07213386294271881,-0.044752588777810305,0.027600988785636486,0.06033646669826769,-0.049882150667689765,-0.010566526954555212,-0.025316463898248414,0.1673580108089349,0.15486916614454557,-0.06851248917736051,-0.16732896873307243,-0.37176548136652376
0.948,-0.07469914279255688,-0.04244687365242165,0.03209587140111984,0.06080342063274239,-0.05380744805982487,-0.007934842488550265,-0.02352183799160451,0.17517593219716204,0.16490756640181498,-0.05872630404608838,-0.15594863649376844,-0.3697748105255135
0.95,-0.07500820354702563,-0.038126698615595735,0.03670721103962871,0.05873222570945708,-0.05740582229279047,-0.003246015520206627,-0.024213693940763028,0.17643648285375688,0.17512625282146824,-0.05698169887066401,-0.14730308443071094,-0.3703023686204824
0.952,-0.07507445798498875,-0.03146669903814975,0.04372023783028537,0.05500633217407188,-0.06157190065674441,0.0047839996557843744,-0.03269400576685246,0.1745374657614941,0.18379314795117735,-0.06160711548849797,-0.14600046814839504,-0.3711308693339719
0.954,-0.07587480303927989,-0.02359100907249982,0.05272801581718243,0.05105628677105271,-0.06576007941370367,0.014352967934361756,-0.047937576695831,0.1720017758711118,0.1874580296055124,-0.07044653763734035,-0.1522915557454294,-0.3707741962404379
0.956,-0.07526723492494199,-0.01560065091268875,0.060298304402283884,0.046545853639807046,-0.06784155367490453,0.02215615108080751,-0.0652467020620378,0.1689306237986927,0.18680827447672912,-0.0808974314280633,-0.15918631137506106,-0.36953806422948365
