time,I,II,III,aVR,aVL,aVF,V1,V2,V3,V4,V5,V6
0.0,-0.0005265508965231401,-0.000636248999965461,-0.00010969810344232086,0.000636248999965461,-0.00021939620688464173,-0.00043879241376928345,0.00021939620688464173,-0.001930686620584847,-0.002150082827469489,-0.001930686620584847,-0.0020403847240271678,-0.0010750414137347445
0.002,-0.0036781292672482015,-0.00444440619792491,-0.0007662769306767086,0.00444440619792491,-0.0015325538613534173,-0.0030651077227068346,0.001642251964795738,-0.01337677587646775,-0.014909329737821168,-0.013705870186794714,-0.014033354703702136,-0.0073998158171894235
0.004,-0.01144842822321058,-0.013939558936373692,-0.0025130703338515784,0.01382986083293137,-0.0046970463573761945,-0.00961348892163703,0.005573021391495223,-0.04153307432452622,-0.046339818785344745,-0.04372220701311403,-0.043170169624258764,-0.022677072823891694
0.006,-0.02115344883725354,-0.026304808314783584,-0.005282675242976927,0.025538531384106878,-0.00837621779736605,-0.01815335173195473,0.011436168855009692,-0.07719493616951689,-0.08622773279411734,-0.08363877593006797,-0.07941766035485016,-0.041200752402898486
0.008,-0.026085158979031818,-0.034372066611720944,-0.008614326692635635,0.03177123779511551,-0.009512315624789283,-0.02400882442800824,0.016104601650591334,-0.0982260679953383,-0.10959487512674478,-0.10926219259838739,-0.10027004828286035,-0.05073840084903601
0.01,-0.02237385555962582,-0.035154933464018906,-0.013203683120771267,0.02925923667650061,-0.005933938725432031,-0.026118189119509767,0.01701587230261771,-0.09632619544611104,-0.10623480842511442,-0.1085355233140131,-0.09871089847927429,-0.04838334599052109
0.012,-0.011899177282477682,-0.032273581021549584,-0.020629944410440963,0.02215340933766736,0.00255024346970876,-0.02805717034747043,0.014443865797580594,-0.08584718554440317,-0.0916802206843884,-0.09550095016365061,-0.09037893813329792,-0.044059493795613774
0.014,0.00045341177458326485,-0.029424354655141333,-0.02985209296958694,0.015629103324543703,0.013502624841371847,-0.03138449216515861,0.009585591984025667,-0.08294746826279985,-0.08555938943656792,-0.09048228525874127,-0.09067560822513546,-0.04652316142227862
0.016,0.008926032703433754,-0.026883633657491288,-0.03568580937493477,0.011824654007604256,0.02111938687756829,-0.032815553452142605,0.0033630794806950547,-0.0888317077870741,-0.09146254753064996,-0.09754793381800095,-0.0985663590363573,-0.054032719543370536
0.018,0.007726627845221326,-0.02440005253851274,-0.03219478043896416,0.011946029504089527,0.0186537198891037,-0.0289331558694684,-0.0016023777891775689,-0.09473051740985985,-0.09945997833688235,-0.10538890395580822,-0.10346088388900311,-0.05882849236904023
0.02,-0.006064293170777366,-0.022997310943848465,-0.017306566753178355,0.017521832262450115,0.0035789004770644265,-0.02009082187854283,-0.0015772338264060815,-0.09428707312463487,-0.1003677442014036,-0.10376116100412108,-0.09898969751688715,-0.05600122263800861
0.022,-0.027546031455262035,-0.02333644063502019,0.0037305672813411836,0.02722877725827802,-0.018132180982185685,-0.010098470130901703,0.003803492706443019,-0.08860874639036041,-0.09429653348515964,-0.09434943718748641,-0.08821985031832695,-0.04816202797320022
0.024,-0.04433692997306232,-0.024678482727853914,0.019422685056163083,0.035269947492867444,-0.033891740104524344,-0.00395131699249499,0.010102992283259393,-0.08350209033474522,-0.08825931576468252,-0.08676417840054172,-0.07935947965815135,-0.04259157131539442
0.026,-0.0465966739084969,-0.025792930801805638,0.020990338137350153,0.03625477030987655,-0.034728363070298564,-0.004218031786077214,0.012658618794918676,-0.08378791371284292,-0.08829981425335895,-0.08749562695702419,-0.07818870542202624,-0.04352528184488146
0.028,-0.036377429273391326,-0.026281855511850735,0.010584107819382894,0.030990360708428366,-0.023852002121934713,-0.00921325249129233,0.01117183214566062,-0.08893909966045895,-0.09392489956686266,-0.0942985470252094,-0.08359071420301221,-0.048196941956319066
0.03,-0.0245446209352167,-0.026604040899237506,-0.0015824199109257843,0.02520140667865444,-0.012545584284617672,-0.015034685409149129,0.00861527011070098,-0.09381565943359343,-0.09977710922587492,-0.10027341734192151,-0.08986146546773274,-0.051126651249131905
0.032,-0.0192337960494104,-0.025962680127752595,-0.006532039392550728,0.022464915966211776,-0.008618944885749364,-0.017567219959612006,0.00712395685062268,-0.09399892899127323,-0.10197827516239492,-0.1014110312875092,-0.0931433887760708,-0.05068465066737312
0.034,-0.019517423750086433,-0.021718398610082727,-0.0022623155577071864,0.02072055308904555,-0.011204235404930063,-0.013920780146469518,0.006479081118383773,-0.09023439596804332,-0.10144827985681186,-0.09941626888123192,-0.09438433958619032,-0.05002171259951932
0.036,-0.020461631540972133,-0.012956221369731692,0.0074950571636175885,0.016954875271840586,-0.01585179058551574,-0.004819450832355146,0.005953810423187304,-0.08689342751946709,-0.10096713829873806,-0.09779364674365643,-0.09575580517298615,-0.0519578279891209
0.038,-0.02070296887942149,-0.0028026083392106785,0.01819782195184083,0.012385906017885641,-0.020602283375322186,0.005672609004256058,0.0060846262165501095,-0.0858670227513241,-0.10092139803428556,-0.0966510772248735,-0.09664010121107904,-0.05472549350513674
0.04,-0.021926239515105965,0.00427073354078592,0.026679339072820354,0.010370289840483996,-0.025136586495321436,0.013379479668863796,0.007271077728156496,-0.08471481647701173,-0.09977660807971521,-0.09399389052562775,-0.0952640875066387,-0.05473487372160049
0.042,-0.024047570754635615,0.0062474904035459515,0.030595400153425878,0.011322537053579815,-0.028087551975181084,0.016251407449223407,0.008054973030775814,-0.08184395352865363,-0.09725266188478444,-0.09086741748318315,-0.0920279722532407,-0.05209768748971873
0.044,-0.02524512050759474,0.0046326471111791615,0.029841273144234022,0.012638028845410602,-0.02867329519732657,0.015207359177468887,0.007444514616956309,-0.0794115413022425,-0.09450631508819185,-0.09033232965385121,-0.08853962176285013,-0.05022698100434961
0.046,-0.025254457651922857,0.0021610595862466132,0.02724025509160637,0.013022707988971774,-0.028201260056046517,0.013076186204423888,0.007066044078825951,-0.07988071012633163,-0.09217011024989569,-0.092480412793351,-0.08544550244605552,-0.051108508392412384
0.048,-0.025332240347989813,-3.5920790089780637e-05,0.02524687582367553,0.013867838343041781,-0.027745609721596207,0.01148648880778075,0.008447350984764254,-0.08270642598523316,-0.09004884598569496,-0.094631441032837,-0.08306107372734264,-0.053358613052100344
0.05,-0.025333278137881513,-0.0018740628942459075,0.02364882053200965,0.015473524314868068,-0.026520934795616714,0.009933662885595647,0.010635215734118682,-0.08483894765233155,-0.088124053145839,-0.09476988092053432,-0.08206314649995687,-0.05406833258367806
0.052,-0.02306866498442609,-0.002408537577413836,0.021054223295727113,0.015148750402823236,-0.023349755283574674,0.008070086676153243,0.012582934163880314,-0.0835106992753363,-0.08657057482870385,-0.09256872414736128,-0.08244813494898151,-0.05155943560890028
0.054,-0.017368437044486915,-0.0008597661085643926,0.016931701631607992,0.011040566182652912,-0.018229241304178193,0.006698847574240998,0.01533171163770006,-0.07883370939371774,-0.08500717804361632,-0.08920582540743907,-0.0830730298779622,-0.04695251213351882
0.056,-0.0106581669914591,0.0014608698085171964,0.012338545241698473,0.00542634337314463,-0.01266304956888602,0.00616685090238475,0.02012179187870366,-0.07309403863588038,-0.08258054746738205,-0.08655805977286424,-0.08239060302857694,-0.04302561765668067
0.058,-0.006748778451513341,0.0029801590335025523,0.009663883901715287,0.0018456371286800777,-0.009206083066296694,0.006171413235775968,0.026199883751320267,-0.06743543673894854,-0.07855946538409617,-0.08462734376908759,-0.07903879614149452,-0.04086474924173269
0.06,-0.006932495077664623,0.005157951824471365,0.01182464880462781,0.0006063773334806175,-0.010239049635743114,0.007999349567113373,0.03113655261009509,-0.0616456072322372,-0.07310690516296095,-0.08150800314450012,-0.07274871882323186,-0.03876311190210784
0.062,-0.010472039458218478,0.010052972000761379,0.020149291779973644,0.00016902046848756,-0.01651672419295731,0.013583292973740797,0.032855362870959685,-0.057106005255666364,-0.06812658640245428,-0.07733706277913106,-0.0655591201915958,-0.03545969855555883
0.064,-0.0164843253884377,0.014637551483231565,0.030746351413345113,0.0012363117118756046,-0.025441346032916257,0.02042216218041115,0.0322244151649715,-0.056122078486862605,-0.06602121841797227,-0.07478832777174604,-0.0606460693342517,-0.03226543952734492
0.066,-0.022133833674825673,0.01311192838335055,0.035038954804995505,0.0049832317179503895,-0.030707047980540903,0.021873998417864922,0.032421146863342,-0.058142259249934373,-0.06678076613289295,-0.07476999676733993,-0.05909593117141619,-0.030951194079341365
0.068,-0.02216116330578042,0.005958096954462845,0.028142906093300724,0.008441824388446963,-0.02695283823907177,0.01550525870466703,0.034400477714865894,-0.060114426310272785,-0.06777734366778064,-0.07517967300016254,-0.05944701331334993,-0.03169995358665604
0.07,-0.014317642404973406,0.0010981455146944809,0.015534171759666204,0.006673176455296716,-0.0161486328346668,0.007335150954620008,0.035889637327178404,-0.06039091564545085,-0.0671499147654972,-0.07438680287953059,-0.06068122055037525,-0.033485216270118794
0.072,-0.0036192295997616412,0.004316591789276594,0.007987052086042792,-0.0004045315062129074,-0.006761723806986917,0.00515326021132625,0.03592397515453669,-0.059362113087452976,-0.06592287991216295,-0.07321647423521077,-0.06319879168043219,-0.03520279724800199
0.074,0.002334638326289804,0.012859216496241997,0.010465724900097447,-0.007356984279659416,-0.005133593708277515,0.010148105838348643,0.036998512961844386,-0.05663088929934756,-0.06529460421651631,-0.07222111995333466,-0.06595872891222371,-0.035907036337198626
0.076,0.000664534523044501,0.020421289449902773,0.01957995666649923,-0.0096567632372881,-0.010596690098454929,0.018053180874337563,0.041869774456976566,-0.050156909557716754,-0.06300279952670992,-0.06895647090309952,-0.0652207108389205,-0.03365511798425352
0.078,-0.006940633815746077,0.02586362319848253,0.03245293126459794,-0.007980199603903691,-0.02080152915476707,0.027531468712456916,0.05042954824525652,-0.03866001512556104,-0.05514937231298681,-0.06053564414995044,-0.05790623722595389,-0.025958489944119367
0.08,-0.01687389275886038,0.0337704350400751,0.05009219867733647,-0.006666051276314968,-0.03493407727066374,0.041366792651743395,0.05981345438681028,-0.024383653133956615,-0.041872733527968456,-0.04813359475979892,-0.04530719813756207,-0.013867817670208893
0.082,-0.02274536424792517,0.0461458035735835,0.06818929922107583,-0.009810116180839733,-0.047689106883478445,0.057545417026727115,0.06621644032633447,-0.012831609057998804,-0.028676627991321438,-0.03691691011583676,-0.032870769315610664,-0.003474833082503093
0.084,-0.01869061507242959,0.05816282874524964,0.07612208718421327,-0.017970050921790808,-0.049920754311892815,0.06767931921355298,0.06728359358580478,-0.00819848155535805,-0.021231703339969953,-0.031552413553535295,-0.02613665035958398,9.794110708872998e-05
0.086,-0.007030256764382263,0.0639751956545294,0.07046299286914968,-0.027260262426972808,-0.04033382785180709,0.06738671148534173,0.06370948626173581,-0.00980476087007442,-0.02059986886636288,-0.03252982072143718,-0.02623325456368329,-0.001784242269179973
0.088,0.0030778445865867958,0.0622922428679693,0.05904674073502659,-0.03222288545819031,-0.02803961392916725,0.0604912794686862,0.057823528614271806,-0.014122367121794594,-0.023735960576014292,-0.03621575825880959,-0.02950943153996491,-0.004140709345168307
0.09,0.006861117590362726,0.056245574883889066,0.049514833394858015,-0.031402243483582906,-0.020806702428103112,0.05243715400507265,0.051471371292262515,-0.017352347042557198,-0.02647470494687168,-0.03738185838527787,-0.03128225419526068,-0.0036102200899994423
0.092,0.008682416970530571,0.051088952897023754,0.04256208408086285,-0.029224401889691106,-0.017566034173236086,0.04596851895124105,0.04622613462906016,-0.016019368779166314,-0.025961666849912166,-0.033156170424050904,-0.029497111734936778,0.0003939946375077025
0.094,0.013286876709926022,0.05009930671735567,0.03682601750040125,-0.02995119816525829,-0.014137556139348662,0.04209067854948846,0.043097447220763634,-0.010584469615434144,-0.022999780903348227,-0.026479143844790824,-0.02609390635531308,0.005794622557257527
0.096,0.0180552429302271,0.05184294135686321,0.03371250517889766,-0.03235322853910189,-0.010843746141128381,0.041014004032531255,0.04130802792166021,-0.007708414040732894,-0.022051263632186936,-0.023628288513656222,-0.02491063744373366,0.008759188689538759
0.098,0.01800835638509581,0.053405071204001765,0.035353108371755065,-0.03309852231420716,-0.011140428158483151,0.042486815310541194,0.03966926667660325,-0.012676728701476327,-0.02583741487915912,-0.02669793388583487,-0.02688919623417952,0.007662997728111005
0.1,0.014060016331673936,0.05435628956380295,0.04031596037285663,-0.03200731983938842,-0.015020668614824643,0.045652437143384836,0.03822233797091027,-0.021617035677012005,-0.030992966347300265,-0.031060190201710417,-0.028543572638798018,0.005343271661977374
0.102,0.011785628224400256,0.05526575251102205,0.04351317880893358,-0.031248439439537784,-0.017736778372578577,0.04815712860137281,0.03647607855118902,-0.027259685255637357,-0.03286928150316399,-0.03174286432265486,-0.0269412168728994,0.005044332716602798
0.104,0.013441872621561692,0.054537108005296965,0.04110029670624243,-0.03115368631069494,-0.015979440167082616,0.047090284037948245,0.03196533266383482,-0.029801395921055688,-0.03298738543542234,-0.030253211464121924,-0.02471859387747574,0.005768110706514425
0.106,0.015163988311785878,0.049526935435475504,0.034369290444718884,-0.029369344938088016,-0.011934903939066955,0.04170720215052091,0.02355885094881232,-0.035801326050433145,-0.03700535026413279,-0.032394488086068755,-0.027237400237042117,0.004166528006223052
0.108,0.013162088090059013,0.03988074511341433,0.026839767567120993,-0.024249018980068766,-0.008966111777370502,0.03346713154202194,0.015274855133136766,-0.047413082032711704,-0.04630930707690607,-0.04004667090842645,-0.03529350921373451,-0.00050943326634264
0.11,0.008934667141216067,0.027423890583683937,0.01882027823977393,-0.01669874699386556,-0.006519411257499254,0.023134052788770457,0.013317285928326029,-0.058688487297253206,-0.056154038461394544,-0.04895781729788116,-0.04415338217370767,-0.005793392751474879
0.112,0.006296865553824685,0.013594360464304003,0.007749344420956734,-0.008402482064348724,-0.0018236504266842984,0.010070909057982446,0.01835708202177532,-0.06366099687062687,-0.061864360029476706,-0.054884800518703064,-0.0498600241986013,-0.009452396830905749
0.114,0.0061005282708133605,-0.0007326842205965386,-0.006444851337406931,-0.0004245985683608642,0.005306211445102508,-0.004900566628390201,0.023570600231755234,-0.06362188363614982,-0.06348821940987255,-0.05795153710703977,-0.05284348206479339,-0.011616587391618733
0.116,0.005439066131091991,-0.01296708165663148,-0.0181076697299177,0.006310280016023504,0.01072297306319616,-0.017285828165783758,0.02288220089771584,-0.06395823289112897,-0.06363626318293109,-0.06001159560639594,-0.054536811152499066,-0.013041811573019705
0.118,0.0016643171124426262,-0.01884438309894359,-0.020234273461808706,0.01056259014121834,0.009814941348986469,-0.021533310518172564,0.018518056488433292,-0.06666204363820706,-0.06341737734956282,-0.06109859452368194,-0.054062003226975366,-0.013107790038046935
0.12,-0.003325381520555261,-0.01696898681860209,-0.013450634857216036,0.01153582818118891,0.0038210896648206948,-0.017228063941208047,0.01667137077607072,-0.06941339407065347,-0.06280999105300743,-0.06054847795627828,-0.05058864929075326,-0.011505876158631927
0.122,-0.005048662457854933,-0.01137108767000535,-0.00630036060196546,0.009833237928341796,-0.0009443893264020248,-0.010340455872236034,0.018642141663264732,-0.07099794868723727,-0.06291417186032223,-0.059667083179321415,-0.0466991331300662,-0.010411951697790075
0.124,-0.002945425485797579,-0.00721800051781441,-0.0043615374315444985,0.007204654561277689,-0.0014433790652553622,-0.006555932203449338,0.02059018160448617,-0.07340971053097525,-0.06486390870893644,-0.06078847944206575,-0.04667902691643825,-0.012760103146089927
0.126,-0.0013686632257976729,-0.0066790678851114185,-0.005372138187479158,0.0058130911563681244,-0.000654678710535424,-0.006770526150684767,0.020354302736165095,-0.07720314973286528,-0.06765964874687208,-0.06397736602217868,-0.05148057987527029,-0.01881986541934098
0.128,-0.0038598473941792114,-0.009818249195985632,-0.005942428951228531,0.007687828650073539,-0.001673694672264284,-0.0094104684204693,0.020568412622468057,-0.07903873335936361,-0.0693888036738498,-0.06685723033139593,-0.05739099544725519,-0.025989865087529943
0.13,-0.009995525028193526,-0.016162526432841464,-0.006147733885738558,0.013694923451725554,-0.004163665897580408,-0.013229695671255683,0.02404490673445886,-0.07695250377156414,-0.07020180630984307,-0.06829911955741584,-0.061118133234652,-0.03200357028599149
0.132,-0.017098580298872873,-0.024922221319853492,-0.007943622728091033,0.02235025689796401,-0.005976404859501325,-0.018138947069212718,0.029060650176045717,-0.07399557996228745,-0.0720483954204721,-0.0696582279509675,-0.06348101334134913,-0.03661250213947003
0.134,-0.022066459892552008,-0.034634370082275386,-0.012912259338722625,0.03015619774973933,-0.005276193817445214,-0.024598205502527844,0.03182313446033091,-0.07375747731477698,-0.07564935230511888,-0.07135128827093272,-0.06590365625225303,-0.04016280720060694
0.136,-0.0233266803649714,-0.04226711400898195,-0.01937730846070554,0.03414815563990585,-0.0027831942000460888,-0.03111801426520236,0.031196605955811557,-0.07598360599980032,-0.07974650775712025,-0.07153000876717125,-0.06726551264509346,-0.042522420786562994
0.138,-0.02256669426779439,-0.04433858683836899,-0.022003088308410926,0.034252152878589695,-0.0018825177464279969,-0.03393843793112787,0.028784656079355726,-0.07817729300909018,-0.08278415841232328,-0.06957698797922558,-0.06637446584253005,-0.043350775984807556
0.14,-0.022688999609263922,-0.04168687051578021,-0.018810012455323256,0.03324662440353637,-0.0038564530118688598,-0.032229386956928695,0.026470156473097018,-0.07915197319251614,-0.0841890359471142,-0.06799786245545307,-0.0640957434688752,-0.04290583778128162
0.142,-0.024441858150811253,-0.041109014882656045,-0.016037733004929954,0.034572115932873036,-0.005265123098594779,-0.03130045006204302,0.024970799085877526,-0.08069413978217903,-0.0851349261837033,-0.06955638653431113,-0.0626725780122879,-0.04299752190752274
0.144,-0.02630837515044988,-0.04724207603223629,-0.01997066737482821,0.03884539055380964,-0.003006596519050501,-0.03588782058725148,0.023599931000375298,-0.08578907438127431,-0.0878489354546316,-0.07483635893304146,-0.06488593369321416,-0.045922549196167846
0.146,-0.02669611039686161,-0.055728678212893824,-0.02794508164467961,0.04305550861734062,0.0011820089332357053,-0.04328621119976087,0.021408759690479423,-0.09420415163666951,-0.09283700622561976,-0.08284711262439486,-0.07152618339535712,-0.05154950237924811
0.148,-0.02613491794479024,-0.0600997201305441,-0.03304099917107083,0.044983757939720224,0.00334349959817843,-0.047814404302502514,0.01905085782464054,-0.10111777349307353,-0.09743660003224894,-0.09085172485433299,-0.07826163408002484,-0.056643219664532216
0.15,-0.027158104676681262,-0.06038879173996514,-0.032724233288350855,0.045921496718340706,0.001633269849066274,-0.04791488739660372,0.018362691271666936,-0.10198172121398297,-0.09828971306596057,-0.09454168778386311,-0.07906828957491158,-0.0579554718411129
0.152,-0.02979377213900541,-0.06023607489743286,-0.03039109586243374,0.04690203961282052,-0.001485595042486407,-0.046490612533582464,0.019072337492584256,-0.09812225444625647,-0.09549729737985832,-0.09279813668891115,-0.07429084526681641,-0.05580874523141726
0.154,-0.028632376731446082,-0.061035396969220154,-0.032598899106910745,0.04585401260830393,0.00024419091485976664,-0.04792074290513778,0.01800371808564132,-0.09601707432360042,-0.0934753702651204,-0.09051618990285258,-0.07090640415043414,-0.05398846543766973
0.156,-0.019986201310746222,-0.06232933323059061,-0.04259047505775246,0.04164847647535289,0.01007767470011829,-0.05397767544476194,0.013576553291998007,-0.1001257489931892,-0.09629288878710311,-0.09256629923582327,-0.07361702011013165,-0.05562794226686524
0.158,-0.011082817356978752,-0.06403451622170135,-0.05325016196213936,0.03838279895767122,0.020492412549528626,-0.060455906055736364,0.009394408312355268,-0.10704055951453167,-0.10235151531114198,-0.09746040480725646,-0.0792599645650788,-0.05952421002258819
0.16,-0.014914456648951862,-0.06561733856033701,-0.051051153384173514,0.04169716141307278,0.0179174545407516,-0.059787662622555485,0.01081875053171567,-0.10912704692019168,-0.10575248331009125,-0.10018842013569249,-0.08075474380749569,-0.06131683947307095
0.162,-0.03464390660022222,-0.06564047189602351,-0.031231977210180888,0.051604229133040365,-0.0017432476915908322,-0.04917151995711879,0.018221630066246094,-0.10425232831595578,-0.10369540671502947,-0.09869759328348972,-0.07503034386201231,-0.058674301656591606
0.164,-0.057404307119195454,-0.0639437402987629,-0.00656612962687033,0.06161043253198843,-0.025552423700646105,-0.03559109546274863,0.02586717479774997,-0.09827003843117262,-0.10003220241599911,-0.09511225604249064,-0.06670345687831464,-0.054376828395108816
0.166,-0.06582013064362499,-0.062137442299710785,0.003671776676633198,0.06462466696736556,-0.035176482104768626,-0.03001484906585001,0.028012220738420565,-0.09698711177536468,-0.09997584351277934,-0.09246742294181284,-0.0633960368529572,-0.053344823468849924
0.168,-0.05520419878506906,-0.06146729050720242,-0.006500901017576893,0.059188310105527976,-0.02548400711083568,-0.03587561982716977,0.0248960976686792,-0.09977469981346276,-0.10383114740414134,-0.09198036731922293,-0.06724839750222883,-0.057113811977071355
0.17,-0.03746565437633805,-0.0617721709543712,-0.024627975677580127,0.050604819748400365,-0.008316210646004522,-0.04585867804715908,0.0221909230203096,-0.10200291499592679,-0.10752372001810814,-0.09266796637751762,-0.07257877463838594,-0.061802475006481325
0.172,-0.027890633409183838,-0.06256723884489768,-0.034655958352616735,0.04609147835308402,0.0015973305303802875,-0.050978556961870036,0.02448717516848537,-0.10063283833271149,-0.1074188572818285,-0.0926312226552552,-0.0727850545617678,-0.06192355876296262
0.174,-0.030072500266718427,-0.06385408283714386,-0.033319756436067896,0.04790005071045824,0.0009261994071455514,-0.050129550243191,0.029914699826644832,-0.09681714276356126,-0.10366021664962817,-0.09089386840068076,-0.06813350813968225,-0.056783403013465086
0.176,-0.03498119010702412,-0.06471716690134141,-0.029179523729710707,0.05107029227214909,-0.0028453601288023576,-0.04810790656676868,0.03235177223104282,-0.09394096322311932,-0.09960828317088542,-0.08852052059137296,-0.06494326627766897,-0.05199437402802575
0.178,-0.034639297271399194,-0.06339539348379924,-0.028375189012060147,0.05037523740875606,-0.003767399455177864,-0.047218902602825574,0.028733473730057024,-0.09344101748035608,-0.09823234081881878,-0.08788750218944189,-0.06739606279426041,-0.052946364936587276
0.18,-0.03221695660005857,-0.060765210328266483,-0.028344867520520817,0.048035932897732385,-0.004145496735699901,-0.04599122703769842,0.022631595471996425,-0.09390406483251797,-0.09931393752129206,-0.09034172284704324,-0.07269540589550945,-0.05846646383523515
0.182,-0.03445167934076872,-0.06042808229035541,-0.025983064125380324,0.049465059493993005,-0.007414074481683736,-0.044447864469939605,0.019958546163859503,-0.09425439167565314,-0.10057077532173957,-0.09440732122250667,-0.07547335311094058,-0.06323672486596799
0.184,-0.03989519048271381,-0.06450047634587994,-0.024916863076714337,0.054525325641023595,-0.010320709142642367,-0.04596898563480779,0.0227562796200505,-0.09489041953498337,-0.10032519105218307,-0.09690049252946871,-0.07418997558182581,-0.0641933437558086
0.186,-0.04147205743337547,-0.07179938116232464,-0.030804733742721767,0.05864512423643038,-0.0071258025277897135,-0.05309208295748151,0.028513877350921337,-0.0951586334549077,-0.09815581927514434,-0.09606054334381285,-0.07108138479750348,-0.06211233320451525
0.188,-0.03709828046097802,-0.07815630830183595,-0.04133365362636462,0.05890999302557691,0.0009125958174663355,-0.062108610998384,0.033239238643834906,-0.09378478086585235,-0.09507152627860713,-0.09310848406166335,-0.06868305705262125,-0.05947084287339866
0.19,-0.03165441325300457,-0.07799363852927207,-0.046175470988656916,0.05539298939878826,0.005835351332998267,-0.06447233907909547,0.03370726230623396,-0.09227219658187086,-0.09381302226372465,-0.09089848957724814,-0.06860226386183711,-0.05870843918119169
0.192,-0.029811228662941235,-0.07027641066967927,-0.039965905978705106,0.05019188785978123,0.003281366828095173,-0.05705393929117797,0.02991422537268941,-0.0927050938717193,-0.09578915120426762,-0.09093021163254167,-0.07092817737853392,-0.0602215040816307
0.194,-0.03138308575523881,-0.06221772262234741,-0.03033969194513862,0.04698682126586756,-0.0024083508529217134,-0.04795742272101509,0.02606063094696585,-0.09306393602062706,-0.09822802315523954,-0.09132668948044163,-0.07336132558399429,-0.06147892575666461
0.196,-0.03323725151216118,-0.06143450773554754,-0.02799756617230842,0.048100510186049314,-0.0045927297698766896,-0.04667069212268961,0.026006913366937716,-0.09015392413705033,-0.09777096250013018,-0.08895735014526653,-0.07281647246296906,-0.0599914181235889
0.198,-0.03326752838760015,-0.0664086433815115,-0.033232827009403214,0.05158116006791955,-0.0020990756432900876,-0.05211171467107112,0.028791027114935322,-0.08506311870537414,-0.09491464137665813,-0.08382859307018423,-0.06850897425435079,-0.05640500841403133
0.2,-0.032461954789212474,-0.07045128454453088,-0.03813659571729808,0.05399431586761407,0.0009554334662439061,-0.05661124662043843,0.031182844772524202,-0.08163803699294445,-0.09261752021164109,-0.07956177042578708,-0.0627334350859141,-0.053444124868478805
0.202,-0.03314687530388693,-0.07163262710159939,-0.03851378779763871,0.05491709561793729,0.0010770536853876387,-0.05725156392910614,0.03218044199432308,-0.08151308798164879,-0.09271029056605884,-0.07928337443969351,-0.05836935882927227,-0.052773378035265266
0.204,-0.03541682113014378,-0.07319115459161779,-0.03771060021453492,0.05619692674640641,-0.0006355651279722592,-0.05739854214181283,0.03253054535877998,-0.0831958480605644,-0.0945619604493745,-0.08265730702689643,-0.05636240322890483,-0.05368011774316797
0.206,-0.036692726741108225,-0.07677045862761649,-0.04003208396895189,0.058214269461141194,-0.00046618872577447023,-0.06003538199406992,0.032408300162437044,-0.08539210843181967,-0.0963572258620336,-0.0872320380086329,-0.05608630927036275,-0.054662181943603
0.208,-0.03510655579736901,-0.07950070506517189,-0.044406732044420034,0.059083116150340724,0.0026398333634737123,-0.06339586381739384,0.031659012036412124,-0.08882526892881239,-0.09778860488084835,-0.09095688443887438,-0.05693943881475328,-0.055675931354206495
0.21,-0.03199593714613246,-0.0780148628888012,-0.046049696448673905,0.057296715852821915,0.0054430219626167625,-0.06351724442451674,0.03054258568043219,-0.09343713126252749,-0.10076263365721475,-0.09266507920751323,-0.05857118179258482,-0.0576457327960298
0.212,-0.030175500291633846,-0.07314035231478735,-0.042972681691809705,0.05380216772284219,0.004998675329220862,-0.05970646358005875,0.02943913511508886,-0.09639498575940152,-0.10618853172957086,-0.09221974782075792,-0.06016138215273477,-0.05996744503248949
0.214,-0.03057225915195388,-0.06859400659766664,-0.03800871416025286,0.051017751295520664,0.0024443888856263384,-0.05508510739305357,0.028838054430565436,-0.09537091800610131,-0.11100936597244083,-0.09097630564247948,-0.06071820921222353,-0.060739206762280895
0.216,-0.03141776031100377,-0.0661812341297162,-0.03475298243442614,0.05003572460556409,0.0007708790753748857,-0.05221249705356332,0.029519457764863446,-0.09126081958505321,-0.11047636479091645,-0.08993373739382401,-0.05979000503228233,-0.059656724256359185
0.218,-0.029953281884962133,-0.06454744373377935,-0.03461820268035189,0.04899246724183038,0.0017096035565991445,-0.051008508395182936,0.03189164029827744,-0.08613465458730572,-0.10363762706261805,-0.08815193102879511,-0.05704252909006822,-0.05863770181625896
0.22,-0.02471658113556293,-0.06252015525735816,-0.03796355762646156,0.04536128347714611,0.00585951935757061,-0.05123723495487891,0.03464996403249765,-0.08156166475604743,-0.09520086497820482,-0.08535443806599487,-0.052663288402220086,-0.05973736272290715
0.222,-0.01760298718529243,-0.06152227900866541,-0.044380093375498385,0.04027675676122234,0.01230870485863121,-0.053773170913123,0.035375316006259795,-0.07896161491642487,-0.09122162269336152,-0.0836248228990642,-0.048624828585926386,-0.06320026287082992
0.224,-0.014380021326696083,-0.06297668430832823,-0.0493659423815098,0.03858750246914547,0.016151025827997274,-0.05705793532864959,0.034018426269618984,-0.07833067260489632,-0.09311990649051256,-0.08405840386223937,-0.04688326062519632,-0.06650538016448113
0.226,-0.021129663287375665,-0.06501598904776125,-0.044693377334566964,0.04353842907981829,0.010178217760205813,-0.055820769332403264,0.033881716604184604,-0.07735231989812735,-0.09636013438754014,-0.08417852537305105,-0.0460576463763212,-0.06592831682290147
0.228,-0.036524757277682667,-0.06453089432170406,-0.028563737136207728,0.052218982054309596,-0.0057449004760456255,-0.04773636070095523,0.03704332288579594,-0.07436456924724708,-0.09593061758614158,-0.08086454961539977,-0.043202999678601174,-0.06101962956916881
0.23,-0.049214694760376584,-0.061290879735697246,-0.012328785258369862,0.05735812802612298,-0.019981153792356342,-0.03832318723570204,0.04070514315250236,-0.07116050701193544,-0.09244536181287848,-0.07517774884004025,-0.0392755354383022,-0.05622326403905458
0.232,-0.04893170185844545,-0.05765002920586524,-0.008765384268298497,0.054585569533799505,-0.02125165417031577,-0.03470243938028691,0.04024350629317808,-0.07046624378671865,-0.09042557852128362,-0.07223195273191697,-0.03845362464967319,-0.055726248507920205
0.234,-0.03860400147675487,-0.05528438511419688,-0.01661513768068881,0.047110285045064745,-0.012416896157718493,-0.03713350342692871,0.03492094739486022,-0.07152066202306945,-0.09154418381170046,-0.07467560785353965,-0.04120567115955857,-0.0585511286335764
0.236,-0.029360122691046237,-0.05381035615352243,-0.02429705918459358,0.04143683280596977,-0.0048678440970309385,-0.04008347663492077,0.02888417249846652,-0.07078314094411813,-0.09291223769029397,-0.0782344770816841,-0.043179287613367354,-0.06105312456639486
0.238,-0.026308230109407582,-0.05130612107404896,-0.024797187378582598,0.039278067908592465,-0.003585182108621506,-0.03897243645256431,0.02658226568407747,-0.06688992639309883,-0.09156642358059368,-0.0771726092571538,-0.0419822605821509,-0.062040547758579895
0.24,-0.02596442918954115,-0.04577924031266747,-0.019738627417406403,0.03686309483343607,-0.005401147168594552,-0.03341038839239033,0.028558299056284993,-0.06248731758237497,-0.08788006020021265,-0.07233228306163239,-0.039881497404191016,-0.06309562622532232
0.242,-0.025403316441764794,-0.03792705518254543,-0.012702429299809076,0.032341499077023446,-0.00794544839383893,-0.026110925020866253,0.03209815492116563,-0.060521518710825256,-0.0842944002143824,-0.06900906451374345,-0.03898582798326062,-0.06535643357405539
0.244,-0.02579497318349132,-0.03156088873847445,-0.006042683202023358,0.028853527341232393,-0.011560797070838541,-0.020621582208515607,0.034261053875171546,-0.06091324775136257,-0.08248519950125201,-0.06901182018355446,-0.038949762277680364,-0.06787650019515709
0.246,-0.02707096937462647,-0.02974504327935654,-0.002785853618637977,0.0288437304657839,-0.014282076952495566,-0.01923219148726914,0.03345748108834102,-0.06193712099418721,-0.08238671472733555,-0.06988069585813192,-0.03967861575563713,-0.06892274412293851
0.248,-0.026724657029359684,-0.03236616006052858,-0.005535419311113996,0.030837728635514636,-0.01267353489723331,-0.022091552467572537,0.030145644905720873,-0.06260157835515777,-0.08295115446064213,-0.06942780847195124,-0.04151257360332479,-0.06782799008848502
0.25,-0.02447303606219427,-0.037810641859834807,-0.013078793477681544,0.03314652129171006,-0.00704985836052255,-0.027873743235561264,0.026922692110341234,-0.06249171220439249,-0.0831516001775027,-0.06735439940380891,-0.043659077875494195,-0.06547734255559967
0.252,-0.022815448262348766,-0.04416037230311103,-0.020878557933574356,0.03578716724157727,-0.0014496714195936832,-0.034397730986017706,0.02613213995889356,-0.06083765043543276,-0.08215421875559546,-0.06475598194660129,-0.0453605832610874,-0.06393807083507101
0.254,-0.02321338959219012,-0.048671011904248364,-0.02476105717952972,0.038079521812276675,0.0005719586856546478,-0.03867407230870884,0.028203584671120645,-0.05553497462377216,-0.07879349606878829,-0.06306576632149702,-0.046232069596085223,-0.06540635813314123
0.256,-0.025060861701307603,-0.04905255755499693,-0.023343486528025335,0.03843689167766666,-0.0016944217506022073,-0.03823730200654254,0.035020941952469326,-0.04141676232197043,-0.07185965901434704,-0.06229035296350843,-0.04562862043713945,-0.07042956144556596
0.258,-0.02774513747556017,-0.04485104988533162,-0.016861319257551403,0.03659669820163792,-0.007279578589955611,-0.03248090353908096,0.05254925747406481,-0.010834765152073888,-0.06090040330739764,-0.06217440914698143,-0.045151312175338666,-0.07785971476785034
0.26,-0.03109747464276934,-0.03518501722157915,-0.004235662774894893,0.03285964964366002,-0.015838692574946512,-0.02100828086272461,0.08584114858536362,0.041685213623721136,-0.04505040144530413,-0.0642048821373724,-0.04906045003738252,-0.08725369831070846
0.262,-0.03322723925865382,-0.01797361838134868,0.01504773742125435,0.025836388009666703,-0.026364515415103814,-0.0032209395402380383,0.1323591765271419,0.11662769397286263,-0.019732773989327015,-0.06655048129881172,-0.05747605294561862,-0.09873497389001575
0.264,-0.02789504293377902,0.0058863821883407726,0.03373115859029168,0.012528236667823486,-0.03228024413753029,0.017239106386700655,0.1828555086886867,0.2142199556596565,0.02618848255661643,-0.055892959511408435,-0.06025214183543666,-0.10785752783408034
0.266,-0.004713069228739361,0.030597661402390865,0.03527488710170631,-0.010425760058771603,-0.02074117509221601,0.030324503277784166,0.22721650189348583,0.33904741388078513,0.10753439543891176,-0.011030663777583532,-0.04092499318594196,-0.10361074458340454
0.268,0.044114407157471856,0.049136326070200236,0.004777772985078938,-0.04429730509807395,0.018990478457946963,0.025466225804284787,0.2581155513638988,0.4916929670041213,0.2298725538313027,0.0794215407579752,0.011227119781579774,-0.07668527291106803
0.27,0.11477874397797011,0.059725238372037845,-0.05536706301901448,-0.08611447374249617,0.08406226601762486,0.00210154874533635,0.27418086729380753,0.657215737278557,0.3794365565756976,0.2052335287907138,0.09269003361878103,-0.028605882994516937
0.272,0.19153174373507198,0.0728182554698422,-0.11868556437916765,-0.13203314981020003,0.15395312641542652,-0.02246598735924566,0.2832461257510728,0.8121176551208626,0.5355051285470934,0.3463089885027984,0.19150051455039155,0.03208429208721048
0.274,0.25762570985068445,0.11137731099993595,-0.14580897953134542,-0.1842512343249119,0.2004351975898399,-0.017301271999931173,0.29490292801293616,0.938957225454813,0.6916744781208978,0.4957908182718839,0.3029482889647008,0.10304723087641537
0.276,0.3085989510073184,0.1985165078082972,-0.10963943667475778,-0.2526917397611651,0.2074509612898628,0.04343483448575648,0.3026312662622324,1.0234080130561485,0.8545735159847565,0.666318813327535,0.4366148581939114,0.19432778068650144
0.278,0.3540388182827196,0.3394428961174382,-0.014390872639430997,-0.34595733480960883,0.18240293632438107,0.16102487035086696,0.28145447278137825,1.0470621852970077,1.0248092588081712,0.8715354040649393,0.6035584127929092,0.31772861764371396
0.28,0.4024914631363123,0.5133215189461888,0.11109290563747454,-0.45787310059585634,0.14437044337727825,0.3107530679441579,0.21516353037965266,1.0030845138941669,1.1918325222745618,1.1056147263512193,0.7968722377421076,0.4688295807354391
0.282,0.44571758934065403,0.6844614273532542,0.23936456110994161,-0.5654564347489948,0.10234879937083087,0.460636619428099,0.12160199962107103,0.9168619198034429,1.348048418827634,1.3452747392470434,0.9896237134005701,0.6230351170323606
0.284,0.4613489751307908,0.8216486323309803,0.3610193148434502,-0.6415958330885986,0.04908314786077268,0.5899919217247753,0.03819821383715839,0.8257360648220671,1.489529236887887,1.5631273737973488,1.1499296866609627,0.750536851362515
0.286,0.43062240061730805,0.9070017911322229,0.47669938377652304,-0.668614814973768,-0.024835685761883147,0.6902460552127204,-0.016669783094623268,0.7265415292438262,1.589712229103707,1.7261576506871734,1.2510203591035673,0.8311840978203879
0.288,0.3549360707937534,0.9315514377343138,0.5764646765045899,-0.6431244368868215,-0.11282604119869034,0.7522886506487113,-0.05534204812712131,0.5723181779189077,1.5929235255754424,1.791286929905313,1.2735089283235514,0.8567378792669104
0.29,0.2591010826552741,0.8872973059760711,0.6279481221062345,-0.5730506764461327,-0.186307204836126,0.7560559775307946,-0.09490031546631972,0.3359691870466896,1.4467406412035833,1.7137679333577438,1.2098049022972268,0.8274581856463232
0.292,0.1749717406911638,0.7705047804797055,0.5954640126697912,-0.4719670566615648,-0.21221356618983223,0.6815330029767155,-0.13592053002896273,0.036463564305475385,1.1175769357112295,1.449917800750982,1.0622107074000435,0.7492454245167605
0.294,0.11431869982134085,0.5998228288986887,0.48550428358897085,-0.3555109719710567,-0.18777584628208077,0.5409417953435192,-0.16993088995156372,-0.2995218644202049,0.6018270104279405,0.9811098667782643,0.8387386013294361,0.6324585980407581
0.296,0.06261564545598591,0.42120820704415773,0.35847473778663924,-0.24021310569901158,-0.14979136108469407,0.3875903874132634,-0.1937020906777605,-0.6375589166154333,-0.009433276204457665,0.3908412024302824,0.5687098926447212,0.4952484391692257
0.298,0.006832605095866114,0.2767703506689274,0.2698207138367889,-0.14073851689256592,-0.13267606028831874,0.27097703324949696,-0.21047990174124181,-0.9016420997795567,-0.5154367776748627,-0.12266223764338079,0.3126614613691055,0.36286109133192507
0.3,-0.043415978649990215,0.17005198026513035,0.21358202385049652,-0.06286893420518272,-0.1294618248073533,0.1904243694774426,-0.22276048987048835,-1.0149162100537326,-0.7541213969431441,-0.3970783799089403,0.12497691766298731,0.2530416181352753
0.302,-0.07314384895073074,0.0766530637661301,0.15006471687512563,-0.0009780653580163004,-0.11310736859780969,0.1133304950982641,-0.22820476599013018,-0.9822569037997751,-0.7525033329725466,-0.44999075496768326,0.010576228033796379,0.16547195148856092
0.304,-0.08464438647428382,-0.01430429281509241,0.07048270892285488,0.051401822671704435,-0.0797963345195709,0.028697673663567607,-0.22493297715686053,-0.8855798050279722,-0.6680364225431918,-0.42007229629462467,-0.061001620849189,0.09210000999111868
0.306,-0.09036459561602092,-0.08866580438044885,0.0016342650770885046,0.09231228709390464,-0.048258768209120444,-0.0435123795624646,-0.21909391141490953,-0.7979325554356897,-0.6128708506822086,-0.40533675829028587,-0.11308709277647944,0.029380012493476614
0.308,-0.09514661035653829,-0.13564796522820816,-0.04061435009517794,0.11812894756624046,-0.028572810907591815,-0.08942538166113254,-0.2202184056703079,-0.73328696608148,-0.5885985238580858,-0.4080402870094498,-0.15025518216941208,-0.023179079090717356
0.31,-0.09599244773863662,-0.16473069283579458,-0.06876012841092861,0.13250646641565533,-0.013881520220011882,-0.1189532184509821,-0.226971158146431,-0.671687656305291,-0.5561905964756557,-0.39778165342388405,-0.17137178118114546,-0.06517663073291673
0.312,-0.09233836640159138,-0.18911196386640997,-0.09672288667277767,0.14230407187828104,0.001892510585098056,-0.14505093437544023,-0.22391944976212702,-0.5994099176825217,-0.5031320249642143,-0.3671876494427773,-0.17623891124753027,-0.09327819940191114
0.314,-0.08782933310877165,-0.20897483571083797,-0.12110910204957538,0.1495676192478595,0.015391683957462897,-0.16669433153644922,-0.19780942167948243,-0.5181950057824761,-0.4407648312820945,-0.32671493855900985,-0.16521730354541275,-0.10438692077230785
0.316,-0.08353562732937124,-0.21689726643364537,-0.1333937175827935,0.15131623229658261,0.023185620563416276,-0.17683105750518982,-0.15390950228118977,-0.4346622028206282,-0.37758197001801075,-0.28196730912973395,-0.14097950736265222,-0.10056957078974257
0.318,-0.07555252286464571,-0.21021122557814953,-0.13481470484799568,0.14436270985960348,0.028545108825626206,-0.17457319305210986,-0.110183987991733,-0.3524661610190412,-0.3136307854617138,-0.2322180442911783,-0.10959452339971937,-0.08741736738355792
0.32,-0.0616560789025496,-0.19417877703556244,-0.13285638767270727,0.12967950257637237,0.0355675971616285,-0.16544014060873816,-0.07815218190409366,-0.2731268056753064,-0.25029897801127676,-0.1813179008500538,-0.07851542786471034,-0.07047050373812906
0.322,-0.047299010330919836,-0.17735411578793311,-0.130467240789146,0.11373459301688625,0.042005594935350984,-0.15517880370646947,-0.055706908973542905,-0.20117985107677813,-0.19508746598116583,-0.1397345614592881,-0.05459766270635104,-0.055323765037702484
0.324,-0.04062722226968109,-0.16525112041404674,-0.12487101674016028,0.10375367406568764,0.042318098163359644,-0.14606377523871777,-0.0353646176603661,-0.14430307039516985,-0.15549739666238624,-0.11504515828408729,-0.04143004982397845,-0.04677642412544354
0.326,-0.04232031129711928,-0.1570208241369843,-0.11467652959440858,0.10050805475383574,0.036038509501724963,-0.13743986892697313,-0.013636437646979761,-0.105329559150074,-0.1310568806753939,-0.10387163270473801,-0.03608912709069847,-0.04479543051464691
0.328,-0.045296806638384646,-0.14791837954527803,-0.10248117944023843,0.09814524958792925,0.028373914622474707,-0.12751664633860085,0.007366183830369541,-0.07768811072924237,-0.1139758741641309,-0.09556030220221033,-0.031389278982271375,-0.04454990959161998
0.33,-0.044564999213909,-0.13498297583274924,-0.090378358941145,0.09179236696383683,0.022801294646271893,-0.11489968975088885,0.02491187643237325,-0.05194757780061137,-0.09620014685382242,-0.08223158744053129,-0.02270880320686719,-0.04223378608074175
0.332,-0.04250845381314383,-0.12019234099987453,-0.07788111605188354,0.08301206065074766,0.017669208832809244,-0.10048274709104885,0.03916864074589696,-0.02456335669842314,-0.07486865147491284,-0.06374307880377605,-0.010952538605890887,-0.038120667437961546
0.334,-0.04328806748348862,-0.10804015797953655,-0.06526530859049977,0.07650414217471387,0.01073353120861539,-0.0875785199863011,0.05085535560258711,0.0011011189486828605,-0.05344952172055682,-0.045113582827758375,0.00023972763097768911,-0.03352233524999325
0.336,-0.04656143978625502,-0.10048987981322341,-0.054680877975653394,0.07389098845734704,0.0030281663947081053,-0.07856272532974444,0.05905534563219033,0.020283672813100295,-0.03760636800720906,-0.030867186938518604,0.008502442605979349,-0.028267737301620327
0.338,-0.049664243635557916,-0.09534994950911806,-0.046357362203291445,0.07318601296478017,-0.0035157768625312057,-0.07197719045553708,0.06327794994370087,0.03218197934726726,-0.028827607687807476,-0.02166984596875226,0.014179191856344846,-0.022504169925211915
0.34,-0.05277583573405744,-0.0898343695351786,-0.03740482259340368,0.0726584339087095,-0.009546209421028263,-0.06460012723088969,0.06554291091467368,0.040503855585856494,-0.023710110936171338,-0.01570390924991669,0.01868053692258692,-0.01796416031883266
0.342,-0.058801679142618905,-0.08512744041716745,-0.02651203127378918,0.0735370569408442,-0.01730285662533331,-0.05646537363632115,0.06939981069834161,0.04939883053959104,-0.01873893866971901,-0.011520800453879895,0.022520273708032168,-0.01578314257331807
0.344,-0.0688053539200057,-0.08560868627195482,-0.017160365659238026,0.07848142059224396,-0.026746499298427498,-0.051884338198093786,0.07691395499567642,0.060052749624635145,-0.013113153891203206,-0.008747678229978682,0.0252953956563877,-0.015373668991740658
0.346,-0.07840511612689664,-0.09165481546122016,-0.01379485118172632,0.08618211492314588,-0.033807027269377114,-0.05362139030176738,0.08553551667013697,0.07123664735688576,-0.008401140599059899,-0.007658654194147094,0.026500832936372225,-0.01657982819963807
0.348,-0.08057790060043483,-0.09664813136938556,-0.016410421152355116,0.09022249198150725,-0.033989371458528504,-0.0581869872487847,0.08920551184800485,0.08045036658221172,-0.007018410905543798,-0.008997531829248652,0.02576981543037888,-0.020726018057196115
0.35,-0.07372616458173596,-0.09512052155903108,-0.02107845965785999,0.08675576561052911,-0.02782182799371561,-0.06026464005066048,0.08571877206620084,0.08460104342751953,-0.008895272512090914,-0.012349177714343096,0.023584375844845042,-0.027728687109728693
0.352,-0.06414506620006986,-0.0895340247053379,-0.02439288368181666,0.07953700963823927,-0.020699918297012062,-0.05926149601582133,0.080919220692978,0.0828232283864436,-0.009962450925900746,-0.014517271058026521,0.021904599866723624,-0.03371054418581741
0.354,-0.058607432196815114,-0.0853755443531911,-0.025620655430733847,0.07425727449083865,-0.017193914678589092,-0.05801034030611348,0.08166559070027003,0.0788077162405972,-0.006150552248965078,-0.012241489542983203,0.022650774875028326,-0.03402889240006494
0.356,-0.05827491138543271,-0.08421524199727969,-0.025274979863206846,0.07240863357660175,-0.017802922702675195,-0.05763041454480814,0.08750132529506839,0.07838481457730409,0.0026456217495298673,-0.00584029267739063,0.026378533497565887,-0.027813498938227925
0.358,-0.061192396412152364,-0.08453118904260762,-0.023301186422538596,0.07315126110390781,-0.020894238369854375,-0.0569201118401938,0.09263494166637562,0.08390567277228635,0.012787608246570508,0.0015002796459111702,0.032618437584060404,-0.018461056240531005
0.36,-0.0652357945593524,-0.08562780197077684,-0.020535108681248748,0.07605231684100612,-0.024140846145588517,-0.05578101386959026,0.09290242388755413,0.09108307117340432,0.018417613481709606,0.005666118893733569,0.038768146558588054,-0.01174213301865875
0.362,-0.06677980182920211,-0.08766807343373377,-0.020705773240829818,0.079075946539083,-0.024106265661081688,-0.056318640173254934,0.08863878561845184,0.09315132148836565,0.014966663039272271,0.0032821799791622136,0.03997956163216683,-0.012518496963207833
0.364,-0.06226208651302085,-0.08925347383157103,-0.026499320938132925,0.07823689133597207,-0.018794461699798166,-0.05937880939973475,0.08343605430533178,0.08923733742816987,0.004569497276242498,-0.004483884353543645,0.0343369992694976,-0.020111006614798043
0.366,-0.054228283616753414,-0.08766841103884433,-0.03307528418237889,0.07274060311295924,-0.012076550730929857,-0.06161478516807882,0.08107293204578973,0.08615742674810133,-0.004239090587737777,-0.010813660925046957,0.02690846247231256,-0.027974174935625585
0.368,-0.052647037350052946,-0.08270953839592154,-0.030073429984004696,0.06855736380133887,-0.012945367626252953,-0.05809259932451393,0.08282821704491465,0.09039838414639048,-0.004001808551415171,-0.009143561924185835,0.025596828010799395,-0.029269505948616818
0.37,-0.06518076449690272,-0.07855844636974911,-0.013575538745228112,0.07278048985973114,-0.026559187715966073,-0.04837656832726698,0.08787093051849688,0.10107102098522969,0.005847570533162893,0.0008044539076354049,0.033571503897001205,-0.02212744177006421
0.372,-0.08504259497617125,-0.07897059986965407,0.005976000037963652,0.08351691188981297,-0.04523937322287891,-0.03870412556266674,0.0943676219361337,0.11210063854418474,0.019397488743924416,0.013404359199278616,0.046401015031546027,-0.01098533437949826
0.374,-0.09483221628282403,-0.08202650349760704,0.012864571757435012,0.0900653878944248,-0.05360421626764242,-0.036205017668058795,0.09893435347257669,0.11846080177149972,0.029046931883467863,0.02197829886254716,0.05613891475325095,-0.0033829640436330586
0.376,-0.08631184801664309,-0.08279789265999206,0.0035943163396994476,0.08557380266882944,-0.045648674933887225,-0.040921938888480766,0.09850472055498859,0.11933698698581965,0.031781424930268046,0.02404619986145903,0.05868676569189428,-0.0031821329939390715
0.378,-0.0699285203385849,-0.07928193962253507,-0.009346774242612014,0.07478237417418694,-0.03164768052968108,-0.045526178615344755,0.09415531159329432,0.1174582898524724,0.030625699508630234,0.022524259630080343,0.05653736367539264,-0.007110911563921853
0.38,-0.06072716295401473,-0.07374110322505721,-0.013054469066641339,0.06694569776799408,-0.025043368462874045,-0.04437254313612758,0.08976358314385076,0.11610529727145583,0.029156753154921028,0.020925124957348492,0.053706038619968775,-0.009508242615759156
0.382,-0.061813816359293484,-0.07024247802196941,-0.008451643215158735,0.06585509736381724,-0.027719504371867137,-0.040414185091735,0.08742602837085565,0.11668655375903973,0.028093720676502527,0.019393276577886052,0.05097157428131815,-0.00868637204814804
0.384,-0.0664631773036146,-0.07100078844776066,-0.0045264894287691745,0.06914505918085317,-0.03235718354694764,-0.039631647273800905,0.08726994235782302,0.1195804517279033,0.02794470625108688,0.017381592346373452,0.047946276093577676,-0.00688683001379869
0.386,-0.06969210632214569,-0.07374299588801522,-0.00403304259685076,0.07299617169821698,-0.03433281144598405,-0.041591630637173874,0.0891617406929408,0.12529153626572676,0.029960623308689312,0.016465859001357597,0.04603417550693872,-0.0061819021219279725
0.388,-0.07113980805917094,-0.07394382093743487,-0.002801557574784743,0.07446357849919259,-0.034909223139718094,-0.04096112465292686,0.09159144858865018,0.1321841422974102,0.03336741493316166,0.017442458990612676,0.04611097586980772,-0.007336270921270059
0.39,-0.07088395157385885,-0.07024776344705945,0.000649561929843388,0.07225643411961555,-0.03552162320696173,-0.03625217620867008,0.09185446256715879,0.13565876656949813,0.03546325442360375,0.018232768380084738,0.04616470324952826,-0.01112828898043592
0.392,-0.068451089143523,-0.06526187373224751,0.0033151000726841704,0.06770021537530778,-0.03540280315109394,-0.03127083595385984,0.08948209527446932,0.13349352020454486,0.03532318484730633,0.017671656061872196,0.04483201687306388,-0.01673045903443319
0.394,-0.06455934561715902,-0.061097096393987034,0.003813688270274219,0.06342997485383059,-0.034305867551746826,-0.028722938791490592,0.0869568932320773,0.12970792638706422,0.035550976892245185,0.01845106082962202,0.04488139740017474,-0.01993924044207407
0.396,-0.061225067562378374,-0.057796753402722174,0.004008132295561809,0.060953749406873856,-0.033535523206178794,-0.027581169282010133,0.08608341551962975,0.12991181068610708,0.039656511508857954,0.02357196852520489,0.04959727413662114,-0.016999505338871984
0.398,-0.06039569449913135,-0.05555173308413071,0.005580931548356454,0.06027446621246369,-0.034395430869664394,-0.0263444730027006,0.08610528332280838,0.13508942417907982,0.04739976526082414,0.03162389183562966,0.05773468752220625,-0.009091965580142794
0.4,-0.06246712542313752,-0.05482097673830595,0.008521955806550244,0.06073871487338721,-0.03712499037466561,-0.02474492270267383,0.08604912525071494,0.14163996048909,0.05357176088611711,0.037795218453694435,0.06461890619335248,-0.0007861223805967695
0.402,-0.0657711582452924,-0.055199564250037185,0.011583346355292533,0.06158761709741799,-0.040445518947749115,-0.023062216738932752,0.08707375098223327,0.14583101888216451,0.053891117978629756,0.0392145943665587,0.0668147693107694,0.0043077135372019265
0.404,-0.06776177338837365,-0.05573683311605847,0.013095245962098098,0.06202443542511847,-0.04212283853290956,-0.021946095567263204,0.09108922564918422,0.1478201005460896,0.050842728485153636,0.03781182004397298,0.06480672268691419,0.005137033374250927
0.406,-0.06716304152398073,-0.05516940099344766,0.013006053805924088,0.061218877932304384,-0.04138246701425141,-0.021443183591619664,0.09686612741614045,0.15103481080125164,0.049756320212006454,0.03714279253460009,0.061708171739110786,0.002369367754212864
0.408,-0.0648816352146101,-0.05286321816630468,0.012867866627911435,0.05912760645363102,-0.039569876554826036,-0.02067075888385699,0.10003743006830146,0.15685663537538316,0.05150812030663215,0.03791242154735463,0.059885867487234214,-0.0022254835143408606
0.41,-0.06265462951842606,-0.05064254401828368,0.012656717283162788,0.0572948959745984,-0.037717579842238134,-0.02013724858315206,0.09886353568863727,0.16223018393474287,0.05347755754984008,0.0389114411150742,0.060055746702993996,-0.0061844672244180865
0.412,-0.061411012008886844,-0.05097413108696755,0.010989118119951487,0.05741677004019992,-0.035906174043100085,-0.021569046120817833,0.0967008212134953,0.16413009259371628,0.0547318122600725,0.040705210934759685,0.06313285655076231,-0.007263273133583662
0.414,-0.060772128314584645,-0.05319006535512221,0.008208795702569632,0.058805588616386295,-0.03444851211837853,-0.024582610714142646,0.09693370941264799,0.16323192900611946,0.05643651106914975,0.04459813837723774,0.06980761130439803,-0.004393266264708982
0.416,-0.060103914972972926,-0.05477166062281301,0.006038759117539927,0.05937320369746063,-0.03370529519314945,-0.026821499175533663,0.09841863220614996,0.1615230668416913,0.05909414166742297,0.04917392581511356,0.0780090061189395,0.0012873973991618965
0.418,-0.060445319037575905,-0.054630752142114505,0.006512361150325694,0.059004708624514936,-0.034536360280922336,-0.026235833792389935,0.0973401302368441,0.15981924886531435,0.061764118469097934,0.05168876762490137,0.08400829705124792,0.006694036825010545
0.42,-0.06349273875098499,-0.05253926448217757,0.011601745714848158,0.059139728497531775,-0.03854848389640751,-0.021757047043460587,0.09262547893275778,0.1588681283683602,0.06344513982777981,0.051684673991351,0.08603618008741971,0.00942857237553201
0.422,-0.06828740663878481,-0.04857079703340895,0.020214428526944373,0.05993924962698741,-0.045276623666925336,-0.0147087970192348,0.0881057586174774,0.1595997307058518,0.06423034176247801,0.050586900285470505,0.08465322932777444,0.009379485233662076
0.424,-0.07142771457448188,-0.043749609252343745,0.027867056695389605,0.05994499114228538,-0.051128566181955784,-0.008503181081061406,0.08790592707533697,0.16186539200351976,0.06467078155781746,0.04946754376978687,0.08115159698472763,0.00760933486851492
0.426,-0.07034831850067755,-0.03879833578961963,0.03145415242556847,0.05753832773068875,-0.052779076004712606,-0.004891965609368,0.09075472834700053,0.16483348988543026,0.06448135680448672,0.04876528568195374,0.0772825282727985,0.005335450649845941
0.428,-0.0652210530565958,-0.03446034813973221,0.03061040162526283,0.05281837603100029,-0.04944319790763247,-0.003828846417300927,0.0915347744629929,0.16778568525245097,0.06379296605076862,0.04896552318950508,0.07520085033038766,0.003679161198123714
0.43,-0.05906071736145977,-0.03323361452951903,0.025819234037956794,0.0485394698999895,-0.042925881254508934,-0.005949968514075972,0.08814602042682328,0.17012316358678073,0.06504643493368488,0.05107200517859039,0.07683828810994493,0.003504247908453406
0.432,-0.05608711198655601,-0.036363488655419746,0.019897579222648325,0.047581561682340526,-0.037731526730773776,-0.010374780798597948,0.08347383577599507,0.17166115052223485,0.07012953909625325,0.055974564048763914,0.08275841670564314,0.005249854474191791
0.434,-0.05765988474830021,-0.039900967833226456,0.017980452004248016,0.049139036633575786,-0.037882974930057774,-0.01269950126445296,0.08039762195326196,0.17250427706438887,0.0769902966109592,0.06262633937443306,0.09094942559214267,0.007939780308802474
0.436,-0.060195385198853986,-0.038426143826982416,0.0216990696791393,0.04946362838671988,-0.04183971569825489,-0.009713153644141749,0.07879749231666046,0.1730818662942758,0.08284727274377524,0.06837107687771882,0.0979148165631482,0.009419995428190912
0.438,-0.05976263287379357,-0.03241138733854338,0.02667202054425363,0.04711243403683777,-0.044490344028384705,-0.00399392533828322,0.07759029762710447,0.17506238943921437,0.08781258137767202,0.07171702805809044,0.1017351438799131,0.00926321552015758
0.44,-0.057384823182659146,-0.02739036101099744,0.028801517979733324,0.04470087693198853,-0.04446952381527098,-0.00016128768258105752,0.0760451176005128,0.1802525085600572,0.09239191584991356,0.07322323521861332,0.10332542050439626,0.00960746286966903
0.442,-0.05647595719675956,-0.025858855480473144,0.029373219626531135,0.044117109327883985,-0.04474714235661016,0.0013823870467560904,0.07361418676099817,0.18797241025865427,0.09557868002550682,0.07441026232599225,0.10477436857152936,0.012037340026253698
0.444,-0.05669683253524439,-0.02492553641603437,0.030884858255845714,0.04320829240873307,-0.04606570205528084,0.003106764041710973,0.07086474833539434,0.1957327300860269,0.09746853696486835,0.07725545498716281,0.10707086420941248,0.015656662590612522
0.446,-0.05410539710657872,-0.021686418124013278,0.03201968225994398,0.03892367368146526,-0.04508125266772976,0.005278140722758394,0.06918655530811191,0.20201871216964068,0.09983609558952712,0.08268793903556887,0.1090903129795999,0.018449716461152132
0.448,-0.046747574642456366,-0.01645029665492751,0.030279839840851013,0.031566144051728494,-0.039785355942332394,0.0063022406305434965,0.06831057230078734,0.2060449042104545,0.10283980262312882,0.08801213908250667,0.10847991937103266,0.01857587329968766
0.45,-0.036827713855295284,-0.01068818759197357,0.02627161612932776,0.024007233430783544,-0.03240612135511786,0.006392699519920638,0.06620999083357873,0.20685683563066495,0.10457945928020684,0.08906175444666395,0.10468138606536112,0.014918315070403065
0.452,-0.027149431004253016,-0.00457889158155348,0.022647931477300542,0.017336718535783745,-0.025929349459021266,0.007684909836200604,0.06251698320932988,0.20560826058802328,0.10496460621633612,0.08659726358784937,0.10130640025764556,0.00882417182027258
0.454,-0.01954369273585371,0.0020003976448891535,0.021519376708669827,0.010790406007328796,-0.02193797735736341,0.011106099977664319,0.05997307699056512,0.20604532329197706,0.10750844834282546,0.08680398444974402,0.10365904630856466,0.005041469858350148
0.456,-0.018957438903160803,0.0072857955399775335,0.026191990031437434,0.007149658773907265,-0.02432090640210406,0.016345475653755784,0.06155845561323042,0.2108100714728911,0.1168279983179927,0.09454807958038486,0.11372284614684013,0.008815218175649791
0.458,-0.032281858867315716,0.00973006835550146,0.042000523099925156,0.011979042687314383,-0.039235491772211716,0.025039464147136512,0.06700558975834357,0.21926897983271723,0.133702700592634,0.10842780574033772,0.1281162034387386,0.020523658288738186
0.46,-0.05589855922617823,0.011529826028964909,0.06745038912965882,0.02347831757714794,-0.06391302091552899,0.038239131079537976,0.07211969011314863,0.2283265253012661,0.15076999552288134,0.12140010905993288,0.13977246438652313,0.03326429865007379
0.462,-0.07141969973067996,0.01592233786944802,0.08735864482902754,0.030009892925574135,-0.08135774954213831,0.05025097000248151,0.07224703786362245,0.23463112762425634,0.1574374873449805,0.1265683769144085,0.14280394868157414,0.038419549283059885
0.464,-0.06487037194609145,0.022329260659208858,0.08719557977377926,0.023582533680900603,-0.07772893983592678,0.053341573832066266,0.0673172336478476,0.2380349401745271,0.15276683136059505,0.12471646055240353,0.1383597506250015,0.034692473471274014
0.466,-0.04499293456663653,0.028028929241516152,0.07301088938746134,0.010146363569857384,-0.0607898214888701,0.04921053130468929,0.06207848284980865,0.2420303829182919,0.14781113640897708,0.12393789931638012,0.1342428234684412,0.029333940366513295
0.468,-0.03168666598605398,0.03222106105724571,0.06390470234300218,0.001065613578802596,-0.04971355761400838,0.046937553738147786,0.060601359852548664,0.2491130375092847,0.15218494548683817,0.13005131290173383,0.13685554957828328,0.030036468834124645
0.47,-0.0310255649377455,0.03541921051060406,0.06642737882590388,-0.0007070895364598598,-0.05060917060926916,0.04982539313859436,0.06218899473636337,0.2577218347951283,0.1640132980571297,0.1409548130739228,0.1457946812889239,0.037478179672427024
0.472,-0.032277332809801156,0.038440642701125426,0.07056853960262081,-0.0014142315798286126,-0.053262047846272934,0.05338722329235861,0.06336621739400457,0.2648213842337499,0.17522215476399355,0.15163173758535395,0.1569195068671663,0.04636803980785281
0.474,-0.026432445361634454,0.04352997334650162,0.06948108919099327,-0.006969458664905772,-0.04947307322527738,0.05545548744256314,0.062409633112931184,0.26905464128039086,0.1816526452966464,0.16010435442828963,0.16673584466357394,0.05241325577775511
0.476,-0.017163219258836668,0.05200867404943956,0.06828815605646703,-0.016166677939395663,-0.043357970674157066,0.05896663036905873,0.06060044564556787,0.2705410892940439,0.18526949388225866,0.16673501164301466,0.17336424573810444,0.05628851104026199
0.478,-0.012483828952494147,0.061092476847571756,0.07256995335576141,-0.023178650657052477,-0.04226192770998343,0.06506161927694687,0.059352890424070784,0.27040710420127895,0.18892687493222718,0.1719263887678949,0.17709219302285711,0.060455125289234024
0.48,-0.013420087568110875,0.06718218017967777,0.07995072739257805,-0.025302939130429403,-0.04626603080561512,0.0710453581961359,0.05777942199480634,0.271284641468195,0.19224485839959501,0.1760627009219763,0.17990689296178583,0.06452153854157142
0.482,-0.014446467628707936,0.07091978093150679,0.08528305291630042,-0.026144034228604777,-0.05013510978793356,0.07522204920870902,0.05453898066489932,0.27597380138015776,0.19427505323464245,0.17978475228077703,0.1829484980826316,0.06660265470106068
0.484,-0.011508704586280952,0.07557469139422236,0.08731799103044678,-0.030273381761450027,-0.05081014608940469,0.07878895396094251,0.05118261807671323,0.28505514113760716,0.19774769716390522,0.1846275369238755,0.18632207970003312,0.0680025823444584
0.486,-0.006527149829894553,0.081667734428699,0.08835724583223095,-0.036717487444334326,-0.04985584123421158,0.08298145658740004,0.05054159630709476,0.2960382106372165,0.20622952573213912,0.1924648233082302,0.19102991141514433,0.07234626399776374
0.488,-0.00329332562237411,0.08685974003987683,0.09011353386821293,-0.04107833082547998,-0.049514940399140145,0.087288729464288,0.05197776991814998,0.3049943866611321,0.2184630702005255,0.20284821093038302,0.19833365039331596,0.08026915038110892
0.49,-0.0006481190778960845,0.09087211049150314,0.09143764885622746,-0.04334593291580377,-0.04844842118797753,0.09060314865809323,0.05240468244949159,0.31061815459599024,0.23010201820817508,0.21394950120309342,0.20817333454006545,0.08889608611211179
0.492,0.005968198489876553,0.0965845117529344,0.09071885441368789,-0.04831003077946089,-0.04392873558654532,0.09302889296240384,0.05129626166263822,0.3159896187518942,0.23948136363444864,0.22641253801346184,0.21969349391488693,0.09649226421995047
0.494,0.01645412000096564,0.10550071008963588,0.08941676411195798,-0.05771228015535747,-0.03731473751029918,0.09606231392317105,0.05059608351306805,0.32418059594396575,0.24810028023678068,0.24169548885915842,0.23233324550462908,0.1043126953122489
0.496,0.025120314890540774,0.11492052948115564,0.09025881064204914,-0.06721350883453185,-0.0329495136470789,0.10028032017705242,0.05098368487839973,0.33409138060988375,0.2574703811098587,0.25793234593719205,0.24604539070133571,0.11381367461896694
0.498,0.0285984090630319,0.12117798850846831,0.09282900225620519,-0.07253453101439601,-0.03203181911773457,0.10407417276098561,0.050929751170951686,0.34258677884270133,0.26746877027129445,0.27171901178085134,0.26009853488967766,0.12442565960107478
0.5,0.02978364921732434,0.12418445400753153,0.09435259368805148,-0.074680644235121,-0.03177793975194142,0.1061581417535997,0.04860148036798017,0.3483246908070199,0.2762083985991862,0.28148515089507875,0.27165531721361524,0.1342222287612847
0.502,0.03276137464454278,0.12703457339011412,0.09411998149185015,-0.07747621990597087,-0.030322298198040158,0.10781122411561447,0.04383254921133154,0.35219455943136263,0.2820191107294927,0.28722323776891534,0.2782060293535222,0.14158334815096119
0.504,0.037782135212930945,0.13277384241856272,0.09493724502825664,-0.08308573496788581,-0.029191458986034705,0.11184227431356183,0.038477023891311066,0.35609320924634985,0.2864959218416615,0.2908556830050726,0.28192932693996586,0.14659652064695225
0.506,0.042631014681434314,0.1424781588263666,0.09990150363638813,-0.09103991603481859,-0.0303271336879991,0.1197910529529516,0.03445401182171417,0.3614772995093893,0.2931038775022403,0.29675521329802423,0.2879582252288231,0.15146774311389868
0.508,0.04662676441297117,0.15441869316074247,0.10782556107839272,-0.09947181197198317,-0.0323539326576889,0.12974190222299575,0.031466521354112924,0.3675587082494129,0.3022358198325318,0.30799617451906514,0.2979300139631397,0.15841573846080118
0.51,0.05196156003143861,0.165556939233302,0.1134613293007946,-0.10750907999186864,-0.0315190458082417,0.13789802373024848,0.027935535901210767,0.3723004402655851,0.31102685581834916,0.32306608274413223,0.3090872085971521,0.16688073368485315
0.512,0.06092841149546653,0.1752650174923051,0.11397770482281039,-0.11669680858902302,-0.026550189098473145,0.14316362948016378,0.02361058857341258,0.3757024394662946,0.3181820750035038,0.3380129403547772,0.31968667994719735,0.17466764073462174
0.514,0.07276008158554208,0.1858101952883451,0.11261396534359296,-0.12847696485510426,-0.020368934478344383,0.14824220969915347,0.019277958960894258,0.37897422366474615,0.32508785689377423,0.35010787133201804,0.33082664381298355,0.18156152151382007
0.516,0.08426830876245214,0.19816875891468624,0.11365560225222021,-0.1409415376030182,-0.016146929099689296,0.15529899666850988,0.015313113927114824,0.3811985518787373,0.33207503291189333,0.3591292223071608,0.3427369247739393,0.18946706345901732
0.518,0.09125804954182862,0.2098320881829667,0.11861220349049426,-0.1495484695647261,-0.01556613004675911,0.1635704452028229,0.012536567724953797,0.3811475458204981,0.3379639946187593,0.3671353916541933,0.35416016401713707,0.19968751133965532
0.52,0.08903670698204585,0.2188595975505524,0.12996881850269865,-0.15137587408240044,-0.021735918991968684,0.17320597022452758,0.01275808926088243,0.38151590381500133,0.34397990370779136,0.377405803604854,0.36560285260980524,0.21217974674907794
0.522,0.07712993731603691,0.22734829650007182,0.15027482169445083,-0.14882118784330323,-0.03672702269865128,0.18673897156618896,0.016577876934320408,0.3866310545480131,0.35331540701506514,0.39147202719953517,0.3782090547175266,0.22577480765235325
0.524,0.0640695364806849,0.23730252268485694,0.17318355922985337,-0.14791317235852047,-0.054111760839756995,0.20281173435062477,0.021309959234461714,0.3956896172156899,0.3651426065336681,0.40633246620926355,0.3898321118594852,0.2372827618855843
0.526,0.0609614856392596,0.24600117354591491,0.18498538009917942,-0.15202876073198002,-0.06198296262006681,0.2138371805547397,0.022492583338396304,0.4025493554111941,0.37370950396129504,0.4168185959661325,0.3970103386056529,0.24322048550843228
0.528,0.06930515956995402,0.24945778167202595,0.18015326829645156,-0.15872715799061182,-0.05637227929298151,0.2144837286155008,0.018056060427501148,0.4031674499295868,0.37572144960144893,0.4215158155698991,0.4002209971283363,0.244234453793792
0.53,0.08020641712817901,0.2483836981632726,0.16820707600464513,-0.16368640714984145,-0.04566554475737611,0.20853944346822645,0.010845602093581333,0.3997023925930513,0.37493507491695305,0.42439417562498094,0.40384655086022914,0.24548854380826127
0.532,0.08601068339479832,0.24837132876891968,0.16239646171522634,-0.16632271399063597,-0.04010210819972583,0.20498537611815965,0.006082736504174828,0.3965315427933986,0.37704363140593905,0.43015020353535105,0.41140038939982726,0.25138039884828656
0.534,0.08804596039078852,0.25482217838797294,0.16691986065954295,-0.17005044345945697,-0.04154196728816448,0.20965874987823926,0.005412740826857921,0.3950216326271196,0.3827851799492327,0.439539479360655,0.42202914405283626,0.26098162158549043
0.536,0.09148757292589221,0.26729043999178376,0.17627138396949812,-0.17709089703744846,-0.04484469303661963,0.2206361789045661,0.005466112654770341,0.39386554200328244,0.3887005256341916,0.4500146430147908,0.43197462441621653,0.2700792731546859
0.538,0.09687344792559849,0.27893203622076235,0.18293936706523284,-0.18477993314840643,-0.0456742817905883,0.23047451564519933,0.003985602123374016,0.3929470613262809,0.3923854508368641,0.4590728605139365,0.439350166564544,0.2767780573907381
0.54,0.10038701658770946,0.28359434240371395,0.18421925641073683,-0.18889678485081504,-0.04421979770037967,0.23380579614427413,0.0033224163510907124,0.3928980086444493,0.3938761491107211,0.464875916112038,0.4449347656542226,0.28208507850987957
0.542,0.10034324063165208,0.2825745556849682,0.18288713404932408,-0.18920482655077084,-0.04270297470329023,0.232263834895537,0.00546858735694176,0.3914769806632001,0.39366867539258066,0.4660473866482484,0.4480850603948538,0.286025118317906
0.544,0.09903842262789452,0.28185926831888264,0.18290304092780957,-0.18882618856656638,-0.04259445032843557,0.23123076866465803,0.008082414775827329,0.38580045394921014,0.3922509535040857,0.4638816647575785,0.44662701269036226,0.2871919195654892
0.546,0.09868068257712291,0.2841115979245366,0.18519350753579372,-0.18940704332261396,-0.04411559286205536,0.23326015830498323,0.007599207093392568,0.37749269649879075,0.39074053215675103,0.4621574345855153,0.44115886471919347,0.2854740120808853
0.548,0.0991642988901695,0.2858075089576081,0.1865019905446101,-0.18965729254705793,-0.045414793093912185,0.2351692316215168,0.003928076607208309,0.3710120157514518,0.39031885991558063,0.4628281705490327,0.435566625184285,0.2824461099355671
0.55,0.09928818376558222,0.2827612663315813,0.18364508415141256,-0.18810706121697404,-0.04409524964085781,0.23258011016638785,0.001106421101097867,0.3679387399956615,0.3909761044609327,0.4643762988956346,0.4334339986857652,0.27967243819359766
0.552,0.09688329718667021,0.2770718289245199,0.18062145760812182,-0.18509201782185822,-0.04288041424470416,0.22795439234858958,0.002983994005692667,0.3659942781249187,0.39164992990486464,0.4646168940527625,0.43499521516379974,0.27762530383009687
0.554,0.08933946683303605,0.27397361088230243,0.18508536529617997,-0.18091630921607357,-0.04825843317180687,0.2280857335003492,0.008330936030356813,0.3623773821166774,0.3910923996961288,0.46245635918738626,0.43616363239568706,0.274930252391808
0.556,0.07774428352688115,0.27215957381402056,0.19460552228277816,-0.17429114133733775,-0.05925930351154056,0.2317715493641903,0.012487564802994464,0.3556490164315014,0.38742818686226116,0.4569773358741791,0.43114269965909147,0.2685775532556463
0.558,0.06794550559780627,0.2654058435706333,0.1972671511315908,-0.16524537053546837,-0.06606715185312248,0.23004583826995145,0.014238676728337247,0.3459159921820179,0.37894861816190406,0.4471609173368241,0.4180682287628958,0.2571858810765256
0.56,0.06342626806791267,0.25311767053639117,0.1892464806375902,-0.15657417488001338,-0.06423798275781559,0.22024570397017143,0.017471223022252822,0.3350804524297265,0.36666083352181195,0.43287530806541047,0.4006756754624328,0.24331700407208567
0.562,0.06045959703454339,0.2402773599383272,0.17948602112547338,-0.14946642621759162,-0.06065125071481038,0.20880058725672632,0.024920130192387403,0.3253005491623294,0.3532596475365968,0.415098412895968,0.3827443255873267,0.2298136405732509
0.564,0.05334423453071129,0.22828611070169674,0.17508922358949675,-0.14075220031335683,-0.06214353072691448,0.19989307469684864,0.034432538249212954,0.3167348321842577,0.33940529126588376,0.3952324425221063,0.36393117463150915,0.21599953763208932
0.566,0.040756141867928704,0.21324232254460143,0.17311330661008692,-0.126707908731923,-0.06730303233419385,0.19081083931224316,0.0426764872358783,0.3080568745845982,0.32376965715411155,0.3742413830677462,0.34285605703924477,0.20007594694492487
0.568,0.025883671253732515,0.19282339517798588,0.16766235970517288,-0.10806336503166075,-0.07123195961867851,0.17818930132301478,0.048242649494330096,0.2977268126820908,0.3060131856804387,0.3522002249204978,0.3204823458257244,0.18199032864136025
0.57,0.01268111744133286,0.17032024288142908,0.15804862169860884,-0.08963753888191824,-0.07234969509397432,0.16299379474821146,0.05088596755103362,0.2840016365101558,0.28725899611376604,0.3292680116783073,0.298702480529777,0.16221406771250288
0.572,0.0019322575884520277,0.1510344317634921,0.1490241007364129,-0.07503134229042878,-0.0734962293301156,0.14924024047307205,0.05159783819888061,0.2662893569276669,0.26816884601488383,0.3067213488625242,0.2784292035562068,0.14153067847578202
0.574,-0.008521623542906857,0.13620792717451144,0.14426751973955482,-0.06307995827382906,-0.07746050642302214,0.13908199113272943,0.05238268342406604,0.24661865777119743,0.2483249158705437,0.28551307157549416,0.2593503767075669,0.12246554379154573
0.576,-0.019841988374650614,0.12185147862053003,0.14117979600775438,-0.05016562061940604,-0.08249722306325323,0.12977891879563083,0.054142859111758264,0.227618204397246,0.2277640264905605,0.2645032555976167,0.23989080449919595,0.10715300105681326
0.578,-0.031127957613367657,0.10434955558285576,0.1352440847185161,-0.035072804199271945,-0.08516907040676669,0.11765522030784524,0.056802244240484925,0.21015730593904655,0.20799975478118024,0.24194165970515413,0.21884580866605166,0.09467468154719659
0.58,-0.04156649928176971,0.08522467777902792,0.12685231560755553,-0.02025239733923522,-0.08573954217339108,0.10364580978564045,0.06059508096494747,0.19426208575121068,0.19017750931253893,0.21779288852413994,0.19756832644184572,0.08291913993214113
0.582,-0.05055618778668694,0.06888760637083405,0.11945174355548797,-0.008645787379651364,-0.0864245430348509,0.09192021624665177,0.06475660373878131,0.1798512464117528,0.1729010996417925,0.19332621612384465,0.1782204044201025,0.07046315137722782
0.584,-0.05617592425604806,0.05798624369774244,0.11374307757775179,-0.0011884315733652181,-0.08651248427026294,0.08443142583754563,0.0669913316936618,0.16554742729962996,0.15350940271947422,0.16955126893808753,0.1603336753843725,0.05537852681220384
0.586,-0.05641299523206754,0.051187066961188805,0.10678437228358144,0.003086936930347401,-0.08297226200262592,0.07840003908062823,0.06600106070815656,0.14966468293287966,0.1310805406552078,0.14648258290367577,0.141431537749646,0.036154583523101164
0.588,-0.05260454447807414,0.044248690219998374,0.09614413671750094,0.006334962220140986,-0.07521981950675764,0.0694225042919678,0.06305597017322767,0.13288979027857206,0.10794242726228491,0.12353811131855681,0.12096909356537065,0.015531707130357128
0.59,-0.050875922113424774,0.034335874072043714,0.08512341013464951,0.011276239889426082,-0.06855774230535734,0.0579014157780693,0.06101349396922104,0.11807158595510897,0.08925676088416923,0.10198036511263835,0.10269693915503132,0.00016419297404712482
0.592,-0.059580038720147485,0.022376604761324533,0.08248909574304912,0.021065854502676715,-0.072122423699506,0.05015196892967402,0.06282069324401768,0.1079899644779738,0.0798945201521204,0.08668713792793363,0.09208898992214316,-0.0052825843894026
0.594,-0.08113034655694834,0.010190810301363758,0.09198519617235351,0.03718469424492124,-0.08875856221537018,0.0497566592621274,0.0690981738667362,0.10313468996304206,0.0788232881567737,0.08132718072459968,0.08980496505885904,-0.002759511661111457
0.596,-0.1047255867651238,-0.0015321594107539085,0.10360601958975123,0.05487076354299692,-0.10716716033559677,0.05100132018578656,0.07559569972482402,0.0995220810105725,0.07739997141549206,0.08066661640587906,0.08832377360669756,9.448379541079097e-05
0.598,-0.11519505471538602,-0.011284903571512066,0.10425054281869015,0.06526669396512517,-0.11264885852412768,0.04662972038916484,0.0763159243289608,0.09048737005979128,0.06701279321101664,0.07356664089901303,0.07856352971850823,-0.00423769725572647
0.6,-0.11083706951089639,-0.016434858825848882,0.09508066600642327,0.06541221088428212,-0.1050918093554153,0.03872727163899607,0.0711442440809316,0.0738696960021575,0.04829085720880346,0.05639860564029892,0.060716804926130415,-0.016679750368470005
0.602,-0.10360474449058032,-0.01707603589095254,0.08750579590205568,0.061570367597788556,-0.0968425196354239,0.03420953469049473,0.06652176641952737,0.055781015888762935,0.029879195481886087,0.03767963183185821,0.04452026647314384,-0.03087047265996575
0.604,-0.10260671154382046,-0.01781770091463401,0.08553520671254257,0.061191607395222405,-0.09525757307242819,0.0330112639069435,0.06717873043502547,0.04465662743588643,0.018775233137029338,0.0267741224868054,0.03737300925383177,-0.0393061937286293
0.606,-0.10685260895409303,-0.023130208563477507,0.08386668178758554,0.06594127960302124,-0.09715715546404453,0.029508464810994534,0.07130994282106962,0.04256348780090753,0.014404198599251803,0.023492471233344286,0.0364592340780309,-0.040154162458024695
0.608,-0.11233930608266114,-0.03214458920882739,0.07993805643366933,0.073138982929875,-0.0980895511011219,0.0226877359259318,0.07463481925647635,0.043699965787397196,0.011812502467936241,0.021197370151486004,0.034296123363637326,-0.03812961305662317
0.61,-0.11683206380738419,-0.03994387597707952,0.07668210824233815,0.07948607096740962,-0.0977289402536493,0.01691517977233717,0.07494818287607588,0.04131227530387978,0.008011708236262842,0.015966434969234382,0.028492056827552983,-0.0384471990855466
0.612,-0.11857287209009126,-0.04356981184228206,0.07503375290321054,0.08264870119448334,-0.09662460868047663,0.014404724089165044,0.07184457273555762,0.03469835313765553,0.003715454277497748,0.009928763897315259,0.02329582298234394,-0.04137842023712427
0.614,-0.1172203608107204,-0.044970824221751776,0.07237367277630805,0.08271001987597178,-0.09448311032370613,0.01290194456344554,0.06580374517430845,0.027652565748561068,0.0002395001382224049,0.006695846162098883,0.022443042331322743,-0.044382579064628475
0.616,-0.11525642203116726,-0.0471948919512647,0.0681044908515919,0.08227371095307892,-0.09208605315569886,0.010270259258990305,0.058942274474499394,0.02212959432157294,-0.0027541896236871477,0.006051542427598399,0.024014604094046373,-0.046710261817218025
0.618,-0.11564127248844575,-0.050193159518087144,0.06540142936902067,0.08380757261613263,-0.09158716950716995,0.00752893813466281,0.05412541246402561,0.017103571959975316,-0.006437609390346436,0.004484354427721065,0.02390984147300054,-0.04912714307411509
0.62,-0.11902276317541316,-0.052085170909738,0.06689198415289772,0.0872426052919768,-0.09425707088514174,0.006804757921593876,0.052342670822976126,0.012225053243728655,-0.011350696064490637,-0.00025043267139093,0.021032858238470398,-0.05117713371758945
0.622,-0.12314619192582202,-0.052739281941770424,0.0704105783810606,0.09039785034447,-0.09820890282640574,0.007553753631907209,0.052604389552388366,0.008934992456999162,-0.01647281793661001,-0.0064186326177942225,0.017100642637225657,-0.05122234434574529
0.624,-0.1252551052788564,-0.05488156304596101,0.0703782186160812,0.09225141357289317,-0.0996619573278102,0.006129230734597254,0.05406831864668076,0.007830233277264174,-0.019948906472822513,-0.010649592615836473,0.013696894101113634,-0.0493211820307038
0.626,-0.12554631423170454,-0.06031042291386993,0.0651152809309024,0.09435072806626833,-0.09782252049884017,0.0010296565942343394,0.056363609878558645,0.007131290516826122,-0.021773136671255685,-0.012536249772274246,0.010698867420203255,-0.048282560199246864
0.628,-0.12642711026596226,-0.06518529784718388,0.0609049831217861,0.09700439262381433,-0.09652148918776539,-0.002926995310560035,0.058431893191423126,0.004648777245825813,-0.024292460752369353,-0.014694338546767745,0.007116520938026812,-0.05046320415482825
0.63,-0.12839317390779223,-0.06394225170858191,0.06401798118006492,0.09743028644054794,-0.09871882676312053,-0.00041689527765406806,0.05886068022765843,0.0006830508195455176,-0.028789091266644376,-0.017850614514794444,0.0036214596321668038,-0.0548814124993178
0.632,-0.12895835086509466,-0.057840246803949946,0.07086276209052621,0.0942388235967274,-0.10165232762490928,0.005861259950082178,0.057337802686957935,-0.0018687599445798872,-0.03298530190211507,-0.01907728967422038,0.003061525378692472,-0.05834781275760823
0.634,-0.12617709775764135,-0.05368421499217715,0.07254623117767332,0.09019777115411814,-0.10058531426555066,0.008295895903519757,0.05453211449367366,-0.0014149850572271346,-0.03355061544240295,-0.016896662663111617,0.0063601155292707795,-0.05872631900826787
0.636,-0.12168636286176068,-0.054921618465515284,0.06704448778361213,0.08866873461049492,-0.0954341344296148,0.004616640757184494,0.05071113502891091,-0.000624466083284942,-0.030840759787556016,-0.015058847194111772,0.009498804791597017,-0.056847321368922066
0.638,-0.11932158678175289,-0.05868194114411744,0.061028407209432624,0.0898470155234949,-0.09097767818310451,6.422887311680589e-05,0.045774858787867044,-0.0030544434899024936,-0.0294280762442237,-0.018063977279421984,0.007975171640033977,-0.05506118027425779
0.64,-0.12090776318515484,-0.06056974283811291,0.06073410471899898,0.0915147380813286,-0.09121858962485967,-0.00012853861150734688,0.040431258944244375,-0.008546740540310696,-0.03311046265300492,-0.025381791760585096,0.002630332748534276,-0.054722379312948696
0.642,-0.12357351041628849,-0.05920041074927175,0.06470344683612722,0.09150394335047038,-0.0946155340196113,0.003041942749226712,0.03648808194473705,-0.014108223679187949,-0.04034294609164944,-0.03239309162373202,-0.002177488137058929,-0.05561838326550467
0.644,-0.12322239259383273,-0.05629391522285233,0.06722929022522485,0.08946160728880485,-0.09654490351755343,0.005031193036567759,0.0358538289948547,-0.01690649885710691,-0.04583897291735248,-0.03494191776516677,-0.004255579872553079,-0.056683326551876946
0.646,-0.12121521508431374,-0.05454039460995936,0.06698187126753503,0.08795588545608941,-0.0962387322176148,0.0044035237713960255,0.038936182115218765,-0.01565182630989512,-0.04652811540011055,-0.03219838991821869,-0.004688050072199288,-0.057016259520366014
0.648,-0.12238096192400369,-0.05549503445736597,0.06711514404615979,0.08982067131033976,-0.09660997170783989,0.0034817166468466714,0.04369017619447661,-0.011829932758620742,-0.0443335983507616,-0.026857919730308294,-0.0049194579187381545,-0.056780631769997834
0.65,-0.12550895714194232,-0.057852058573923185,0.06782126724450178,0.09290384306147284,-0.09731535443638141,0.003598637887584732,0.04671244136818216,-0.009371952887823673,-0.04286107634747961,-0.022909907844460516,-0.005164637395436444,-0.05697105615923632
0.652,-0.12312932167161186,-0.058107121350703214,0.06540088088966055,0.09135755809919674,-0.09417310362524796,0.003415731782546684,0.046277660880665525,-0.010926098546995461,-0.043174352546515575,-0.02229811137489091,-0.005061396431900057,-0.057956982362532716
0.654,-0.11292307023526851,-0.05494860533308641,0.058793823208399654,0.08418593062817566,-0.08628905990590137,0.0015413027104979578,0.04417358023125519,-0.015081291979878723,-0.043396288227090386,-0.023612969166870685,-0.00401775341419446,-0.05840754803138232
0.656,-0.10393666404026566,-0.05171463794011468,0.053250556008958526,0.07860505787408752,-0.0800534341112278,-0.0007548081514915095,0.04385589362449548,-0.01800065776063157,-0.041127810053663394,-0.024102962035496403,-0.0008601802265089042,-0.05613000541603699
0.658,-0.10802379143247573,-0.05156102698296429,0.05718185859249224,0.08189153016744902,-0.0844674524697414,0.0007984041553073832,0.04733548837072996,-0.016564314069802053,-0.03564555578238903,-0.02257005829911987,0.005028977242241482,-0.05007446335344455
0.66,-0.12584694611893224,-0.05320531072419018,0.07284426028340761,0.0924981387189073,-0.10086660410643197,0.008579359443192231,0.05363379072106127,-0.010529716912210661,-0.028757508267610272,-0.0203241890815581,0.011217239172299411,-0.042004468643602966
0.662,-0.1440847886970405,-0.05506686301500126,0.08893754738492847,0.10232130296616503,-0.11774025236914389,0.01679517997136428,0.05938753726790479,-0.003484727362861987,-0.024108186635996922,-0.01964035107617234,0.012904030580429627,-0.036069310828618514
0.664,-0.14924528564148473,-0.05896502970576841,0.09004481359041362,0.10611319411942381,-0.1211445324607133,0.01584352262702922,0.061727246567137885,-0.0007096582870400599,-0.024481278887654535,-0.021531002034132374,0.008172035546798176,-0.03501158300370556
0.666,-0.14224148753153038,-0.06555818196207541,0.0760787956481609,0.10551060697449968,-0.11096737966921047,0.005105238739553484,0.06058204410419052,-0.004671682516544516,-0.029273835800236077,-0.025232947290107076,0.0005670334121239935,-0.03749833155932149
0.668,-0.13430705650634722,-0.07043853365328584,0.06282044062366361,0.10396508028162799,-0.10008856706281047,-0.005074073323170512,0.05774988664018788,-0.012940572474166894,-0.03528283650386706,-0.02920150855084708,-0.005140143064225503,-0.040721132131840004
0.67,-0.13130483755980646,-0.06915691287671133,0.06105374698854253,0.10165670417302687,-0.09723723914615787,-0.006498064782008987,0.05542255660787738,-0.020163658101619197,-0.03942348786326171,-0.03191141422242627,-0.007058657461584926,-0.043170912274759395
0.672,-0.13014726329300844,-0.0631920484325979,0.06633844517003291,0.0977108672396582,-0.0992562205893508,-0.0013900302652516767,0.055337492565461215,-0.022194662908812512,-0.04050628960508998,-0.03258735695505964,-0.0057843046367499155,-0.04400621279077918
0.674,-0.12816578657094654,-0.057346007015298336,0.07080560159891554,0.09360895072835158,-0.10046236179380473,0.0043642080591913745,0.056820917279530855,-0.01966531890040893,-0.03955328726702019,-0.0319767893589434,-0.003305324649719868,-0.04307124429382249
0.676,-0.12665480363941428,-0.054237252863980935,0.07266923921922208,0.09127890698307864,-0.10011648271057674,0.008262453087435275,0.05667118689381315,-0.017001612882323176,-0.03854554949544558,-0.03191293205960387,-0.0024059068518512555,-0.04195277864616824
0.678,-0.12612489929415577,-0.05377287482344337,0.0724853615330056,0.09048572550416709,-0.09948779867434697,0.00950417827480064,0.05318870748676509,-0.01691507891902393,-0.03861611812949049,-0.033655903159397794,-0.004828273099963456,-0.04239643209546981
0.68,-0.1250871719887228,-0.05475469443817949,0.07026951175740793,0.0899235421081964,-0.09873449316488155,0.0076931131349812845,0.04881404891856511,-0.017753727003255174,-0.03977359763268033,-0.036800441386148235,-0.009600150285117712,-0.04393509117880856
0.682,-0.12354598349976806,-0.05566563396850992,0.0677803281010727,0.08932426668873311,-0.09800848071288419,0.004965166790584551,0.047122796519688766,-0.01739075620431431,-0.04178083677531536,-0.04011712562630668,-0.014160365016478545,-0.044919731968098155
0.684,-0.12374680460896442,-0.05548798368541696,0.0682449637803853,0.08951672548466226,-0.09840629695789524,0.005029759526283397,0.048843288000710944,-0.016450580567651696,-0.044295737473095405,-0.04319042373950401,-0.017208490150437093,-0.04511550401048518
0.686,-0.12728048064202968,-0.05427327101047442,0.07305464703044622,0.09120973075490348,-0.10125481454231171,0.00904043316497816,0.051868100896407046,-0.016269073085797444,-0.046453667695103514,-0.04631276972823261,-0.019200026375311194,-0.04554025494620655
0.688,-0.13304252100250824,-0.05337726455453143,0.07969534991149398,0.09439929955448213,-0.10632242788846859,0.013736170268625648,0.053624866968906594,-0.017012716258875606,-0.047326921951750506,-0.04877393780708108,-0.020330200513143316,-0.0465309870780837
0.69,-0.13749052714737614,-0.05428639947861215,0.08319263839087015,0.09778314311456629,-0.11041304020855,0.014765012575462366,0.053213596160806974,-0.018047552327689027,-0.04684741575796464,-0.04857361393470422,-0.01979002123204057,-0.047625539621849795
0.692,-0.137587476381318,-0.05658080812161108,0.08096284303500499,0.09916368031721928,-0.11009594308524129,0.011730176926481218,0.0521655837087147,-0.01793451220622718,-0.045772206855376994,-0.04479721565655579,-0.01699364389325568,-0.048441129612987466
0.694,-0.13474816971883274,-0.05875226216920657,0.07586041357521808,0.09840652001992355,-0.10645831058722151,0.008010072820756766,0.05244382396030536,-0.016015274278896496,-0.04519587538272851,-0.0396060728055605,-0.012819989856503889,-0.048406887641858326
0.696,-0.1331932988773766,-0.06019159518681087,0.07268423106560412,0.09792415925768314,-0.10379325573351408,0.00612373006197397,0.05374756561935741,-0.014417752090931164,-0.04607525274264483,-0.036536553677424845,-0.009780611922308275,-0.04690914161732003
0.698,-0.13414390073283905,-0.06048983818810381,0.07323848725150045,0.09862071720595061,-0.10397025808978538,0.006215089189545584,0.05409271610276846,-0.015352213966819517,-0.04813799404960513,-0.037487518240755704,-0.010632552080502554,-0.04468403124850905
0.7,-0.1352080065256175,-0.05865977409494614,0.07629062139067677,0.09849132951124615,-0.10552562419418791,0.008041069954319103,0.05294372990945841,-0.017550212869551923,-0.04975402856691737,-0.04201964934586477,-0.01573495437106543,-0.043858587587527614
0.702,-0.1344982489961468,-0.05491016820446633,0.07960892900677373,0.09615083839249057,-0.1068054227138048,0.010937615565031459,0.05237524724420183,-0.018071700735797162,-0.049948654929329525,-0.047650231913117534,-0.021823752039600644,-0.04563379116894437
0.704,-0.13261257576253588,-0.051792738613615816,0.08096445885866507,0.09310017054595715,-0.10731421190378873,0.012765004296388553,0.05413228168612603,-0.016303832325006786,-0.049807848730117205,-0.050970508057094174,-0.025010012033634687,-0.048590206385435555
0.706,-0.13140461530987052,-0.05175830669339724,0.0797115963907916,0.09180190890088455,-0.10723013365965876,0.01198006208175545,0.056827131464817895,-0.014232905042726219,-0.05098152127642865,-0.05069854731955156,-0.02472053908279582,-0.05034421107613909
0.708,-0.13199803486932177,-0.05417658678684724,0.07777694905864911,0.09294064891714007,-0.10697535698130813,0.010015088485096727,0.0579904791587748,-0.013333182656939118,-0.0532908597969609,-0.048879443441858704,-0.023127217029308714,-0.05049442217749907
0.71,-0.13356025275264777,-0.055894377077692584,0.07760910558152576,0.09484585693642962,-0.10676832613557927,0.009686757714964222,0.05778996274099991,-0.012979306946571116,-0.05480428692845825,-0.04795012615443384,-0.021902338402928847,-0.05030867965068115
0.712,-0.13381777267957692,-0.054535644538063574,0.07927890895949247,0.09498652276804072,-0.10629902698728834,0.011790334430661034,0.058527533316172414,-0.012031513983541315,-0.054079065510270176,-0.04795643873219362,-0.020972049944212895,-0.049799909127090744
0.714,-0.13168578334152511,-0.05133003386415287,0.08038504187261655,0.09272267596034027,-0.10529668549506804,0.014079936450033009,0.060803980055979985,-0.01064674883657661,-0.05144412956754476,-0.04746459442748125,-0.019494058318733017,-0.04762067303575291
0.716,-0.12887101234746526,-0.04988913195381469,0.078997626482382,0.09040145263351673,-0.10416497648180494,0.013931319973587557,0.06259109072988105,-0.009925884602650313,-0.048249872755692674,-0.045716946797433974,-0.017130502258842325,-0.043706215845521736
0.718,-0.1274481115775388,-0.05112187988781694,0.07631778614305151,0.09006462343966504,-0.10342604006594755,0.012053159366843452,0.062455418631262576,-0.009898075302909216,-0.04582002500017127,-0.043133108266362824,-0.014551749772169985,-0.039712958952583616
0.72,-0.12707493065300146,-0.05135526323359975,0.07570704722612141,0.09024684441021648,-0.10324324121636562,0.012179092823553679,0.06082814086665474,-0.00937116185209965,-0.04539680345447525,-0.04132004931999737,-0.013194924595034383,-0.03759621714576966
0.722,-0.1259289352591386,-0.046768411765661155,0.07913716465800978,0.08802657069216377,-0.10389042501807103,0.01669612813665352,0.05817904626829519,-0.008524416300706121,-0.047603396324066495,-0.042197284010597906,-0.014355919516555155,-0.03867200459404595
0.724,-0.1236956399504319,-0.03779522448261717,0.08577530802823345,0.08302137166812447,-0.10596122773837752,0.02439973672260905,0.0551510014823381,-0.00913460808916609,-0.0511121550432988,-0.04544381944537971,-0.017935864821695367,-0.04219694541259185
0.726,-0.12248373646959378,-0.02875020104346146,0.09340985598894429,0.07792017690925922,-0.10956411493715608,0.032125375728272634,0.05360522255421938,-0.011339126437302192,-0.05358813384782916,-0.04845245691515538,-0.022064970421221984,-0.04519178476663352
0.728,-0.12315690315762994,-0.024049772147451413,0.09868292402418928,0.07513111345735832,-0.11258814085049458,0.03638081893913596,0.05453789211366189,-0.01297726824618086,-0.05425087258505547,-0.04964426068793839,-0.02440223664725374,-0.045644973205534935
0.73,-0.12184738603628492,-0.02450459521212462,0.09708444430471894,0.07380098132474693,-0.1105912243656618,0.03462630886928512,0.055958782346662767,-0.013316936703618672,-0.054037019543989956,-0.04990258233217815,-0.024471359915298325,-0.044941932817841826
0.732,-0.11431538228000815,-0.02742027158376796,0.08689837844612112,0.07157304308680643,-0.10125315354036461,0.027532110346988162,0.05506310984451683,-0.014673606970222812,-0.053882012713729076,-0.05057575279979485,-0.024109996104653825,-0.04579189827171621
0.734,-0.10325138012513121,-0.03003558140355135,0.07323158814879972,0.06846079536862186,-0.08897397895125712,0.0195026849190901,0.05164944786987941,-0.018707054016043917,-0.05406757440844436,-0.051698545708943604,-0.0246097456445096,-0.04884139534535921
0.736,-0.09711578790513331,-0.031159271904256478,0.06569319205730736,0.06686378325254472,-0.08257616960129563,0.015987854861280255,0.048247694003873756,-0.023549982069752524,-0.05449235464442943,-0.05236989810010818,-0.02487255718278071,-0.05193681260586916
0.738,-0.10290551326148978,-0.030062414024861612,0.07237407002611868,0.06889311390422469,-0.08895930314068029,0.020720224179591577,0.048165549483024005,-0.025337514852126188,-0.054043353164905404,-0.05108577809259879,-0.022966144741259163,-0.051331720527654966
0.74,-0.12102807400292054,-0.026933322701123814,0.09376023230899054,0.07509819810313847,-0.10828170989940755,0.033273979658545935,0.05326563295639776,-0.021161141189566142,-0.050421633432127716,-0.046127940753628874,-0.01799425338105547,-0.04440890292891154
0.742,-0.14257388174135133,-0.024216997597365626,0.11822700523612681,0.08332774490846108,-0.1308621501003349,0.04663268940323514,0.06148479757936632,-0.01200431356140288,-0.04315383828454868,-0.03846701966328689,-0.011373759063216214,-0.033668252019628475
0.744,-0.15342488369142648,-0.024397657307193808,0.12872222801850042,0.0885141904175931,-0.14172110290093137,0.05134403284425231,0.06744765655037113,-0.003187886374280899,-0.03622955394477753,-0.03299463356265319,-0.007067283080878262,-0.026102222169961335
0.746,-0.1479972577456513,-0.026738969705801363,0.12045568695158348,0.08732519383074462,-0.135227652321677,0.045813421007459214,0.06767690331248002,0.0002921476119860056,-0.03470124892950547,-0.033517349035781935,-0.008355155389631056,-0.026095658942260576
0.748,-0.1358023491314288,-0.028112126643524884,0.10660771562709187,0.08240876563611566,-0.12194070358208789,0.03838815632904235,0.06437442345482314,-0.0014822597060619408,-0.03840575254896911,-0.03770638148548909,-0.013656205233968455,-0.030947980576434192
0.75,-0.12966931678323101,-0.02686337033156235,0.10193109785879871,0.07911338190900159,-0.11586863835511518,0.036934490614284284,0.06269574944341291,-0.00440363602277417,-0.04174581045283558,-0.039677282948479636,-0.017409279951189106,-0.03469618537847381
0.752,-0.1321126380535942,-0.024623043569066624,0.1069434023366559,0.07949159302671294,-0.11947328844001978,0.04066198536155709,0.06432461124060258,-0.005635022886521315,-0.04097813338737941,-0.03727648964822033,-0.01629809713134027,-0.03493000224246858
0.754,-0.13617765252881212,-0.02366265151181764,0.11201367441175465,0.08114516176318803,-0.12475866298020966,0.04387859633053788,0.06534280654704436,-0.0066219345311028,-0.03860186650671114,-0.03438058305169177,-0.012856225327775013,-0.03439741800247539
0.756,-0.1357412656441729,-0.024333233751508233,0.110780470600955,0.08122729536201623,-0.12474611007790935,0.043290385264501685,0.06195786948300548,-0.009481385839665114,-0.03841799543346935,-0.03471536404358655,-0.010983440340341818,-0.03554089671782771
0.758,-0.1313052046766812,-0.025525125389830733,0.10517294373684803,0.07971618005395767,-0.11985912795051086,0.039889735019834,0.05599641023149676,-0.012605742212078977,-0.04036357594115715,-0.03665623881081641,-0.010935305327658993,-0.03636608746872336
0.76,-0.1266145075975671,-0.025559370481078498,0.10066195795863245,0.07782937555404705,-0.11465445947885035,0.036826859153774906,0.05209842697451411,-0.01350598801859741,-0.04243242738662914,-0.03708373931972138,-0.01121859919146066,-0.034449975971864756
0.762,-0.12440335996707756,-0.02402705382236258,0.10014593444680724,0.07641644905306341,-0.11252688200545863,0.03613901346430519,0.0516732934361103,-0.013346582118355464,-0.043638269899676306,-0.036368164641944034,-0.011629937553402346,-0.031603811080745906
0.764,-0.12594097487332134,-0.02296870535475025,0.10260668642255166,0.07661647991790156,-0.11433008747049919,0.037122097871151026,0.05236706247562015,-0.014310156797046324,-0.043886124167448165,-0.03625590015171072,-0.012458665728538702,-0.031070518690106273
0.766,-0.13015015079372563,-0.02343805985098879,0.1060459432301892,0.07839736683126121,-0.11868559360239625,0.03860684427512247,0.052034737143810475,-0.015447536460816421,-0.044085487914041745,-0.0371244226902753,-0.013626548725866888,-0.033375218812507275
0.768,-0.13340461463173844,-0.023142116971900915,0.10958091725901732,0.07938475407233427,-0.1225681276796328,0.04101371813128802,0.05090448246877774,-0.015064585309941392,-0.04572444643867709,-0.038884381100368,-0.014974710838299621,-0.036823880285159635
0.77,-0.1329701560650712,-0.019829660681196303,0.11286594179046672,0.0774103582933823,-0.12368483547550721,0.0449938928150767,0.05060524173239355,-0.0140894590522055,-0.047678710476017704,-0.04036218002986403,-0.015443396415381885,-0.03861476078052323
0.772,-0.12959644675807708,-0.014393294083469354,0.11535511937547475,0.07284961634755668,-0.12246251575480423,0.049770789991504645,0.05185897206359217,-0.014161197532167748,-0.04631608291793399,-0.039018262193903454,-0.013200855480061509,-0.03607367712834239
0.774,-0.1260760619003823,-0.010021778423616096,0.11627799466641466,0.06848976670437454,-0.12076801387173783,0.05302290281119549,0.05277439891625549,-0.01513736758353264,-0.04127078663572352,-0.03475280724631902,-0.008631513293055986,-0.029934193620021782
0.776,-0.12475240927135461,-0.009547614996085809,0.11523941823708396,0.06756345262673284,-0.1197891514038315,0.052533151931201484,0.05081626278079952,-0.016344233887667522,-0.03710463711183222,-0.031585627882477686,-0.005699300813318118,-0.024390288997185754
0.778,-0.12598709773882785,-0.012479708351866098,0.11340520103198774,0.0702426837790195,-0.11981248713428817,0.049326481104429436,0.04663542728539669,-0.01816256416776661,-0.03751683439880943,-0.03338122595205733,-0.007892405887620255,-0.022557991175163716
0.78,-0.12761242095562694,-0.014818289530447748,0.11272617078321963,0.0726946807590252,-0.12039221697282942,0.047414098600302004,0.043865928581626745,-0.020672870020388784,-0.04130136923483313,-0.03894684540584479,-0.01359199608896549,-0.024082128200585994
0.782,-0.1270855434896479,-0.013850472550652202,0.11325784394294847,0.07191873931961375,-0.12051772751160804,0.0485944553329009,0.044803188179969936,-0.02248007903767225,-0.04466181725586081,-0.043014496378866104,-0.018067471024044723,-0.026977205051008524
0.784,-0.12469051346660781,-0.011316944626632066,0.1134213807813463,0.06941652053825427,-0.1198464763678016,0.05047201753339606,0.04747525223460408,-0.022943957574590664,-0.045511125954803035,-0.04281954987554741,-0.019364914254583906,-0.029830198368948683
0.786,-0.1226613331785211,-0.009677157589378167,0.1129946010247064,0.06768756059061748,-0.11916351212248753,0.05089432345225537,0.04790985438571987,-0.02360715313483098,-0.045212720860733135,-0.041349106144538385,-0.01939487211942019,-0.032307227451540015
0.788,-0.12185610948257942,-0.008830865043108503,0.11300415752270106,0.06667189175480898,-0.1189091811518374,0.05055326982433619,0.04504240743140354,-0.025389381534314782,-0.04629024381735914,-0.04226986122256428,-0.020070945305439628,-0.03432406132768131
0.79,-0.12109337809837803,-0.008200488391550286,0.1128771348790703,0.06542695878382643,-0.11806963904913634,0.05037861407851437,0.04214229785624831,-0.026923057479656523,-0.04840764554133849,-0.044253987048136954,-0.020775884957197944,-0.034806355590772546
0.792,-0.11873745754626448,-0.007601924582480699,0.11113951429455286,0.06347444749034296,-0.11554709224581894,0.0502650589832039,0.04272652604386986,-0.02788896742766926,-0.04894368284609819,-0.043385615699529444,-0.01994001523578544,-0.032783276312207434
0.794,-0.11419423589135046,-0.005039456084953609,0.10916527807091889,0.059792117128253934,-0.11231347512510785,0.05126267418893544,0.04565856706044984,-0.031038757647375112,-0.04830766220811681,-0.03990807289872895,-0.018504938953705242,-0.03063680274071122
0.796,-0.10840526478497733,0.0017874590687859215,0.11017362577041066,0.05361888954254039,-0.11040252348685574,0.05520551558031137,0.04663331553699981,-0.037333306526942035,-0.049609054468497504,-0.038084586161403845,-0.019374971839133656,-0.032237210814221214
0.798,-0.10289051075662617,0.010577372970149015,0.11331025651887125,0.046655439924424044,-0.10949009242089307,0.06061372738120752,0.04459601519334382,-0.04235824496626267,-0.052789034716738806,-0.03967725882928394,-0.02268410765466994,-0.03651802348332712
0.8,-0.09860848031286133,0.015056271789239881,0.11320237841977661,0.04252398032777895,-0.10692866465373908,0.062498932674553614,0.04245516019281223,-0.04250380043035665,-0.05601899175442932,-0.04289465003307803,-0.025631092132012687,-0.03857848136529632
0.802,-0.09635625468787674,0.011842828251729911,0.1074716459850536,0.04356587686463303,-0.10225338098954875,0.05817525465394837,0.041948196880082354,-0.04072394879297543,-0.060633401624209896,-0.04659944189452927,-0.027202623011992055,-0.037164289282870154
0.804,-0.09690046038501582,0.004018916987739891,0.10037484243418748,0.04843516002784806,-0.0987798943067455,0.05067000612132012,0.04223229487727279,-0.04164140980528132,-0.06760900150854188,-0.05063794110720442,-0.028823908593152398,-0.035435506517418176
0.806,-0.09898418699144931,-0.002034204190415955,0.09702633786620095,0.05253335158282823,-0.09886904525489727,0.045485057896504116,0.041867759022138656,-0.045383031655114425,-0.0736400232674811,-0.05424870301743815,-0.03096593568058866,-0.03566692550252661
0.808,-0.09917350553358685,-0.0019099096795746958,0.09772545765560389,0.05184494785312367,-0.10041276190909812,0.04564665004767626,0.03971530045583477,-0.049174509456183596,-0.07598215880848438,-0.05702756460512445,-0.032692071623119566,-0.03772889342704625
0.81,-0.09519820689557397,0.003466802142522648,0.09880130878461303,0.04681028472934322,-0.09932846158022797,0.04933498275721131,0.035787777097039515,-0.05168540173668015,-0.07660967732659348,-0.059211119157951096,-0.03410813283304147,-0.041351383870233224
0.812,-0.08753784851793729,0.009003313933013669,0.0961100610183386,0.04094096149500404,-0.09328520210411015,0.0512651030452277,0.0317516631444072,-0.05376524928334952,-0.0784186325889292,-0.0601927640193344,-0.03591355153379893,-0.045591686927411265
0.814,-0.07868471192714069,0.010074653204344275,0.08825597852660463,0.036980719441024025,-0.08358069474931128,0.04760623804087441,0.029385625514962283,-0.05596438133758698,-0.08078055584596264,-0.05876400032879496,-0.03708958954951898,-0.0473225562064661
0.816,-0.0731456173020443,0.006307798591041907,0.07933554296246402,0.036094355189772366,-0.07565037840298262,0.040727614665820186,0.029263828581659917,-0.057135344196366726,-0.08084769365555793,-0.0554398473208711,-0.03632102056008053,-0.044426100800707975
0.818,-0.0757464671150685,0.001998689299115144,0.07783302956292007,0.038349227249438685,-0.0764285521431975,0.03817973649112099,0.031727033738095045,-0.05572736491166734,-0.07729464802042764,-0.05282418394245759,-0.034319820587427656,-0.03873198996640997
0.82,-0.08659655011712308,0.002048070427915541,0.08845963021198797,0.04236474562366328,-0.08786181417216671,0.04462078172299824,0.03661515256343608,-0.051542772534015596,-0.07225292048959005,-0.052847587842369495,-0.03325638258596303,-0.03376695802328884
0.822,-0.09822939392792948,0.006645935259970668,0.10428394571831728,0.045363784594914504,-0.10237159939718955,0.055278257607227876,0.04106811644344456,-0.046608761062218236,-0.07019996977411494,-0.05540046667513238,-0.03572464418460116,-0.03238839213005124
0.824,-0.10130425607894386,0.011429963626767759,0.11204395672266686,0.04489462111516389,-0.10836226217425986,0.0608912546164872,0.04119521546629936,-0.04462444619358199,-0.07392738844617115,-0.05986869924813786,-0.042796045721163016,-0.036200731178788886
0.826,-0.09465188673671385,0.012450922085243978,0.10667468964378284,0.0417055274117936,-0.10237965105247183,0.058188910484617676,0.036622733141230976,-0.048001761136996106,-0.081667232144913,-0.06566764744356121,-0.05144112529959106,-0.04415025078138324
0.828,-0.08664316090498865,0.00975247880157418,0.0963074466096341,0.03953844694115459,-0.09277867902354274,0.05222620640497098,0.03100440761345252,-0.054547419961937384,-0.08879145956101545,-0.07105591730848602,-0.05653552338672821,-0.05217477933123861
0.83,-0.08537905598089053,0.006559570615292363,0.09193398274945137,0.040807331117832336,-0.08966795320805317,0.04949063014218634,0.028214215645738745,-0.05908819585282158,-0.09164040766098439,-0.07345505815227893,-0.056240068926900894,-0.05632351894236461
0.832,-0.09002940529099761,0.005297637298455362,0.09509362204845004,0.044009093980821166,-0.09381897000624156,0.050834586912111714,0.02854760168115327,-0.05951335421882041,-0.09017218388863532,-0.07190534691445606,-0.0531307819408871,-0.05643540145590003
0.834,-0.09286428387442529,0.005403275473261401,0.09782843300235967,0.04554982955809964,-0.09730338868347689,0.051676076601399265,0.02863793368048454,-0.05873839551709291,-0.08744635239459793,-0.06854218072215192,-0.05034475277585359,-0.05542315387659988
0.836,-0.0884939293799673,0.005594768022046753,0.09377682104221002,0.04321906755500615,-0.09374980321711236,0.048797331734601,0.025813051811150872,-0.059941904601171575,-0.08592809307339297,-0.06658232247836342,-0.04894751427795537,-0.05500750083334133
0.838,-0.07910544557791885,0.006285447295168997,0.08539863580839072,0.03808026544355302,-0.0850545220578503,0.04458115303142188,0.021452479148461337,-0.06260294816791825,-0.08529566602045893,-0.06701199576485264,-0.048734091396776855,-0.0543785602917013
0.84,-0.07072575559236835,0.007911921050122414,0.07880526281087145,0.03334636810569706,-0.07730884655204175,0.04260732624989502,0.018776337659068484,-0.06430586802877442,-0.08485444277522412,-0.06846327983630889,-0.049698902527458746,-0.05345580240860745
0.842,-0.0674667703149308,0.008560842288231582,0.0761108893910276,0.031882755682395035,-0.07379843886078774,0.042151684860524306,0.018739819970627434,-0.06447481313535611,-0.08572275306387481,-0.07017101384484577,-0.052237720519117646,-0.05453834968687345
0.844,-0.07007450587199987,0.006656372521893952,0.0766824442394392,0.0341096515554925,-0.0746283702643305,0.04122850092807399,0.019304054097588463,-0.06452667645082587,-0.08865690648483172,-0.07309000681180769,-0.05592544984819285,-0.058818503192089
0.846,-0.07697526156435346,0.004482279793441591,0.08138909337635115,0.03776160761368772,-0.07976056206223106,0.0416429306152597,0.018217565011694956,-0.06513996371023342,-0.09212090455286959,-0.07742671721388807,-0.058564365663461175,-0.06355519645636169
0.848,-0.08464128328967217,0.0053694283812239976,0.08998212831918516,0.040191173055226785,-0.0878039667628094,0.04568866243294105,0.015734825784151054,-0.0652486527751346,-0.09415102905950584,-0.08089620508006969,-0.05811540194742861,-0.06522608634140306
0.85,-0.08861479173183207,0.009436043630596799,0.09795354877020603,0.040217782737427585,-0.09409744378623931,0.051466228866558834,0.013880320459454329,-0.06390135064293452,-0.09413917906930687,-0.08082636067024744,-0.055817748665774235,-0.06387032100020879
0.852,-0.08729430035025797,0.013932641397944331,0.10091939927372717,0.03825700598331311,-0.09497474794592002,0.055451253706506345,0.013329748939655623,-0.062262265805129155,-0.09306271631046785,-0.07765206685695877,-0.05526550119688079,-0.062383401788118645
0.854,-0.0835797771267949,0.015843552107015553,0.09899166618390137,0.03597930026147991,-0.09192764112424869,0.05624523011331483,0.012773893739208819,-0.06292098788637003,-0.09299441046990799,-0.07504483268602934,-0.057871967494541945,-0.06284462615838479
0.856,-0.08065007942939273,0.014663830911656324,0.0950432029304334,0.03465796858626237,-0.08856910363503852,0.054692535032822454,0.011761131619387032,-0.06663705699500395,-0.094332672083814,-0.0756421155253652,-0.061157191859773814,-0.06455164992224738
0.858,-0.07865034791171086,0.013703591328336994,0.0923992509188547,0.03343688205562499,-0.08675053781285293,0.05344206325134395,0.01170881582303423,-0.07090805197715683,-0.09508476397444277,-0.07824830881670289,-0.062002593607635915,-0.06513817582995945
0.86,-0.07631489640431775,0.016845246011900145,0.09344443145477571,0.0305331535024019,-0.08647697043321523,0.055318287100721335,0.012907894974419052,-0.07312569205693949,-0.09593207101182481,-0.08078603046511712,-0.06043747555877782,-0.06394313627558076
0.862,-0.07336242590886241,0.023198265803926112,0.09695601006688952,0.026278138724064235,-0.08648095281989687,0.0594747089395984,0.013365835558097226,-0.0738119001744458,-0.1013737509270671,-0.0834272747371711,-0.05968158324537078,-0.06344413481954066
0.864,-0.07114190754883837,0.02771600272896604,0.09923270624387481,0.023465832893566123,-0.0857295135228747,0.06188018789157622,0.012296650222936361,-0.07510861842397136,-0.11230425796589583,-0.08677321802444078,-0.062228868230675354,-0.06558436372691973
0.866,-0.07133561453241101,0.02794600249425652,0.09945544171743444,0.02383752353861242,-0.08537295276438824,0.061268444426860615,0.011693662669637969,-0.07723890093608493,-0.12297023146915909,-0.08984083642669727,-0.06634900252807849,-0.06846127910777972
0.868,-0.07432109009983484,0.026174663464768422,0.10033591568189848,0.026287733135542186,-0.08738841102098198,0.06056195717242239,0.012622586497153296,-0.0781418198848753,-0.12790133467997764,-0.09157938681945765,-0.06814856014339075,-0.06891703916786891
0.87,-0.07926055643753198,0.02488503740009848,0.10368154851735566,0.02909789632986437,-0.09186297973493115,0.06209090531537716,0.012906723533830839,-0.07663872027630846,-0.12742679800489487,-0.0918812167231608,-0.0666088451444777,-0.06688484047029286
0.872,-0.08372446171595044,0.02429549600570119,0.10741923308387966,0.031117610254989762,-0.0960101203485055,0.06457443828489477,0.0099791415814987,-0.07518439703998236,-0.1260017424073985,-0.09088973506385654,-0.06420059562352119,-0.06541629882768225
0.874,-0.08277400672600654,0.023675207948890466,0.10588132590603562,0.030805876945100653,-0.09468383748859144,0.06414802364781985,0.003940754870369318,-0.07808430465909083,-0.128096297843548,-0.08954845307449798,-0.06348339121881501,-0.06692572748109095
0.876,-0.07303563268030515,0.022681202309677725,0.0952317003255,0.02704569783236204,-0.0846959503668466,0.05837354642689629,-0.0025589137295844995,-0.08608876281090125,-0.13442494090824872,-0.08980849863176761,-0.06514135298795366,-0.07079490042097547
0.878,-0.059739023771539015,0.021960149850188918,0.08126279280042635,0.021594822878604265,-0.07143785954423809,0.050765253724902225,-0.006209501553435732,-0.0943870948143116,-0.14116243293713543,-0.09229027606401355,-0.0680507978114755,-0.07477556372604828
0.88,-0.05509404863443625,0.022709176239279184,0.07744650460502102,0.01891429044891769,-0.0673973906397955,0.0492583021975127,-0.004932658109064197,-0.09724032999954503,-0.1442456955479964,-0.09451658470825987,-0.06982470382560776,-0.0766406398920765
0.882,-0.06613431341098062,0.024902721412740313,0.09086974787509923,0.02229226139199469,-0.07968353652889716,0.05752478587480065,0.0010792031820223635,-0.09318842536531008,-0.14313802891143335,-0.09310567496476502,-0.0684451006161821,-0.07448625038557286
0.884,-0.08536895186375315,0.02662029753686857,0.11205074356116478,0.029852482309994034,-0.10005619253583034,0.06922302511097496,0.008952606567389861,-0.08547538901111026,-0.14006760935275545,-0.08837795261187632,-0.06475415157000554,-0.06914896119255855
0.886,-0.09621511622674472,0.026622594847362385,0.12307613744144223,0.03483450775498297,-0.1111465346678126,0.07421416865576319,0.014424196230386044,-0.07880059112267443,-0.13819571145849605,-0.08513232550886808,-0.062293011099893256,-0.06576121477125006
0.888,-0.09047694158583054,0.026366491036160507,0.11720797710365131,0.03247457562421094,-0.10508692358854867,0.07022555216011746,0.015494326913034307,-0.0757519293814052,-0.13954611994405888,-0.08654165746430707,-0.06309406746443103,-0.06805211828265781
0.89,-0.07810861494514658,0.027637079849876206,0.10613043153074753,0.026386697939922557,-0.0927572927041165,0.06468953535322072,0.013608270935301925,-0.07609264541316249,-0.1426585250627203,-0.08933669315517291,-0.06502746855296399,-0.07279424168815442
0.892,-0.07412534310732631,0.02976291819289876,0.1040834966243627,0.023808839563635508,-0.08945807964130478,0.06452024750294993,0.010368736244169846,-0.07872719987631727,-0.14421324195062693,-0.08854785069446852,-0.06515747995504194,-0.07460564833994203
0.894,-0.08013635939649279,0.030211247164362187,0.11017063553782944,0.02649717280215436,-0.09587915924768022,0.06778059061482224,0.00627461208453379,-0.08266249870056222,-0.14360682950659948,-0.08480370989222784,-0.0639442522692517,-0.07308364130271014
0.896,-0.08624882570930678,0.027215339066841523,0.11288137357516655,0.03080760332139935,-0.10079565095223389,0.06774157188937567,0.0029638947448351175,-0.08634431186665602,-0.14331637975429945,-0.08276938362034833,-0.06369122190888328,-0.07113986291304761
0.898,-0.08629878243808259,0.022222273208547322,0.10769519553125871,0.0334073232658524,-0.09842723131407499,0.06286109393210138,0.002329826338318543,-0.08796295545630944,-0.14509732427677172,-0.08425032469972257,-0.06446773485553366,-0.07013742762859411
0.9,-0.0833503597013731,0.018745176928079654,0.1013248106847016,0.03379571871515879,-0.09399241034866707,0.058319069887828666,0.0031377958678601202,-0.08720371352476358,-0.14884718901568955,-0.08702144854579201,-0.06479845574792126,-0.0703066627727325
0.902,-0.0820450721969169,0.01814257254035933,0.0996781650131491,0.0332035571444259,-0.09288026283416104,0.05790998028947522,0.0027036254689490383,-0.08600370048239409,-0.15404936277868875,-0.08902802700306701,-0.06561336740878489,-0.07253371033486158
0.904,-0.08183110088443439,0.01890516937051359,0.10048721766335082,0.03224889115208718,-0.09295884694646443,0.05953710626507712,0.0016756252822977844,-0.08625989136826002,-0.15908908007820485,-0.09015962597390016,-0.06948026850362937,-0.0764591682193003
0.906,-0.07951191473816982,0.01981623930327724,0.09927862072578836,0.030390389944272095,-0.09009182490923198,0.05962393073295627,0.002966660253670283,-0.08713945392089364,-0.1613332250420254,-0.09075210554331932,-0.07527788117362781,-0.07941011909457857
0.908,-0.0748457939326603,0.021516767814349802,0.0965235874410195,0.02746907430151936,-0.08536210841087932,0.05843872821217497,0.006291540717402457,-0.08651803190485706,-0.16057871097837575,-0.09082746839487314,-0.07816965336168687,-0.07965438590543039
0.91,-0.07110983182355238,0.025260308901516038,0.09674816913813038,0.0242589604723996,-0.08381728348763137,0.059674199682194014,0.007641451510792621,-0.08472450454341057,-0.15960937153746918,-0.09067979188961739,-0.07645103291814934,-0.0787310444562257
0.912,-0.0711955417690822,0.030317685280879223,0.1019510990188736,0.02198396910844554,-0.08785646855060004,0.06476789974143281,0.0045866364069768635,-0.08451848603890601,-0.16030293099874074,-0.0911350975576875,-0.07376074727558594,-0.07886069889693312
0.914,-0.07435815427020988,0.03276801323232759,0.107364083630675,0.02193570568723136,-0.09336881703088806,0.06912173548167684,-0.0006927296304919673,-0.0872629092636975,-0.16210427751688067,-0.09280051783109765,-0.07319024534731657,-0.07969819563866985
0.916,-0.07731764070756304,0.02928698550811716,0.1065841045016336,0.024395830981446834,-0.0942148523955833,0.06728413616719667,-0.004508380246658759,-0.0913089049348638,-0.16403538930765565,-0.09503632036491855,-0.07388909655986295,-0.07960769142224541
0.918,-0.07776904711147833,0.022614390571967558,0.10037018609336901,0.0273868837123376,-0.09004291935951955,0.06083491659564482,-0.005626268439323204,-0.09457857939641302,-0.1658675178963824,-0.09655656718341002,-0.07442718378160455,-0.0790778022255208
0.92,-0.07573413680053594,0.019856379208188554,0.09586434300146601,0.027851129748012356,-0.08611342935697303,0.05685120560599424,-0.005464697789115878,-0.097007372255048,-0.16815526330581895,-0.09756532013702827,-0.0755427656733919,-0.08047835935037731
0.922,-0.07276592348380245,0.024511899081845593,0.09775048807883932,0.024987637814947443,-0.08626148736139773,0.059627651166019924,-0.006345257602408364,-0.09946865419857535,-0.17192133700718124,-0.0998468532994941,-0.07861504572438005,-0.08444175205609875
0.924,-0.07126520969170459,0.03335128624978016,0.10492509827597393,0.021169578152614228,-0.09023576158975137,0.06762454055159943,-0.009412012006250229,-0.1012505275437753,-0.17666015230802384,-0.10377376770579275,-0.08320266918688961,-0.08833359253493071
0.926,-0.07330013961335351,0.04120103971584056,0.11447392443039717,0.018973753517222813,-0.09647298061040352,0.07689374182525391,-0.01263919407809335,-0.10046193042632427,-0.17946078939973809,-0.10676409190580652,-0.08631677969360955,-0.08901727150491116
0.928,-0.0781548409059828,0.04542904045359602,0.12340852274410599,0.018614294087649114,-0.10281539280769042,0.08382864441357624,-0.012654733001662099,-0.09732907925269617,-0.1783880121961505,-0.10612429209329267,-0.0848896002279367,-0.08639288961597158
0.93,-0.08232928416395174,0.045475272587214066,0.12772808512233055,0.01915916692034282,-0.10611085995744295,0.08568749047303245,-0.009734824377279593,-0.09510133240394535,-0.17505428545394444,-0.10251836635261831,-0.07980992321187348,-0.08356185830647585
0.932,-0.08373130301298744,0.04197023814920071,0.12575745295099486,0.020708829804057496,-0.10545823026718465,0.08250174952625589,-0.007868179204587267,-0.09649138790789244,-0.17231490150068146,-0.09934564095563961,-0.07549635550489803,-0.08320427789569619
0.934,-0.08355758537165968,0.038673897119392286,0.12229980038664219,0.022864320775080466,-0.10417561962017649,0.07929154072172434,-0.009431862531685015,-0.10068304015382895,-0.1715316479126394,-0.09908602888735718,-0.07501793025276059,-0.08445313299609881
0.936,-0.0835559310389582,0.04055984560039121,0.12411828356392907,0.023244051618663317,-0.10561190075292565,0.08191529786314444,-0.012903605663541933,-0.1043861640366774,-0.17218072936588416,-0.10107040658410311,-0.0774172432618715,-0.08457935175254054
0.938,-0.08451397743410644,0.04618141526063412,0.13065945910614696,0.02126336370262825,-0.10882610865246535,0.08868081295713896,-0.015392465437881576,-0.10479008125454227,-0.17244439194542568,-0.10279735987832121,-0.07923898531979931,-0.08264723366097938
0.94,-0.08649030308004141,0.0481228660848933,0.1345946398850417,0.020069332091925376,-0.11042794592807172,0.09170729649823296,-0.015461997596486338,-0.10234151429749512,-0.17168539967668672,-0.10308541446716726,-0.07860578508138524,-0.08012363397168977
