time,I,II,III,aVR,aVL,aVF,V1,V2,V3,V4,V5,V6
0.0,-0.059,-0.078,-0.02,0.068,-0.02,-0.049,-0.02,-0.146,-0.117,-0.166,-0.156,-0.166
0.002,-0.059,-0.078,-0.02,0.068,-0.02,-0.049,-0.02,-0.146,-0.117,-0.166,-0.156,-0.166
0.004,-0.059,-0.078,-0.02,0.068,-0.02,-0.049,-0.02,-0.146,-0.117,-0.166,-0.156,-0.166
0.006,-0.059,-0.078,-0.02,0.068,-0.02,-0.049,-0.02,-0.146,-0.117,-0.166,-0.156,-0.166
0.008,-0.063,-0.078,-0.015,0.073,-0.024,-0.049,-0.005,-0.132,-0.102,-0.151,-0.142,-0.161
0.01,-0.068,-0.078,-0.01,0.073,-0.029,-0.044,0.0,-0.127,-0.098,-0.146,-0.137,-0.156
0.012,-0.073,-0.078,-0.005,0.078,-0.034,-0.044,0.005,-0.122,-0.093,-0.142,-0.132,-0.151
0.014,-0.078,-0.078,0.0,0.078,-0.039,-0.039,0.01,-0.117,-0.088,-0.137,-0.127,-0.146
0.016,-0.078,-0.083,-0.005,0.083,-0.039,-0.044,0.01,-0.127,-0.098,-0.142,-0.132,-0.156
0.018,-0.078,-0.088,-0.01,0.083,-0.034,-0.049,0.01,-0.127,-0.098,-0.146,-0.137,-0.156
0.02,-0.078,-0.093,-0.015,0.088,-0.034,-0.054,0.01,-0.127,-0.098,-0.151,-0.142,-0.156
0.022,-0.078,-0.098,-0.02,0.088,-0.029,-0.059,0.01,-0.127,-0.098,-0.156,-0.146,-0.156
0.024,-0.088,-0.102,-0.015,0.098,-0.039,-0.059,0.0,-0.132,-0.107,-0.146,-0.146,-0.166
0.026,-0.098,-0.107,-0.01,0.102,-0.044,-0.059,0.0,-0.137,-0.107,-0.146,-0.146,-0.166
0.028,-0.107,-0.112,-0.005,0.112,-0.054,-0.059,0.0,-0.142,-0.107,-0.146,-0.146,-0.166
0.03,-0.117,-0.117,0.0,0.117,-0.059,-0.059,0.0,-0.146,-0.107,-0.146,-0.146,-0.166
0.032,-0.098,-0.098,0.0,0.098,-0.049,-0.049,0.024,-0.117,-0.073,-0.127,-0.137,-0.156
0.034,-0.088,-0.078,0.01,0.083,-0.049,-0.034,0.039,-0.088,-0.049,-0.107,-0.127,-0.156
0.036,-0.078,-0.059,0.02,0.068,-0.049,-0.02,0.054,-0.059,-0.024,-0.088,-0.117,-0.156
0.038,-0.068,-0.039,0.029,0.054,-0.049,-0.005,0.068,-0.029,0.0,-0.068,-0.107,-0.156
0.04,-0.039,-0.005,0.034,0.024,-0.039,0.015,0.073,0.054,0.083,0.005,-0.054,-0.112
0.042,-0.02,0.02,0.039,0.0,-0.029,0.029,0.078,0.127,0.166,0.078,0.0,-0.078
0.044,0.0,0.044,0.044,-0.02,-0.024,0.044,0.083,0.2,0.249,0.151,0.054,-0.044
0.046,0.02,0.068,0.049,-0.044,-0.015,0.059,0.088,0.273,0.332,0.224,0.107,-0.01
0.048,0.083,0.122,0.039,-0.102,0.02,0.078,0.083,0.381,0.493,0.429,0.298,0.151
0.05,0.146,0.166,0.02,-0.156,0.063,0.093,0.078,0.488,0.644,0.634,0.488,0.312
0.052,0.21,0.21,0.0,-0.21,0.102,0.102,0.073,0.595,0.795,0.839,0.678,0.473
0.054,0.273,0.254,-0.02,-0.264,0.146,0.117,0.068,0.703,0.947,1.044,0.869,0.634
0.056,0.351,0.361,0.01,-0.356,0.171,0.185,0.024,0.634,0.937,1.196,1.103,0.874
0.058,0.429,0.459,0.029,-0.444,0.2,0.244,-0.01,0.576,0.927,1.337,1.327,1.103
0.06,0.508,0.556,0.049,-0.532,0.229,0.303,-0.044,0.517,0.917,1.479,1.552,1.332
0.062,0.586,0.654,0.068,-0.62,0.259,0.361,-0.078,0.459,0.908,1.62,1.776,1.562
0.064,0.634,0.693,0.059,-0.664,0.288,0.376,-0.132,0.288,0.747,1.586,1.81,1.63
0.066,0.673,0.732,0.059,-0.703,0.307,0.395,-0.176,0.117,0.586,1.552,1.835,1.688
0.068,0.712,0.771,0.059,-0.742,0.327,0.415,-0.22,-0.054,0.425,1.518,1.859,1.747
0.07,0.752,0.81,0.059,-0.781,0.346,0.434,-0.264,-0.224,0.264,1.484,1.884,1.806
0.072,0.625,0.703,0.078,-0.664,0.273,0.39,-0.205,-0.351,0.068,1.152,1.503,1.454
0.074,0.498,0.605,0.107,-0.551,0.195,0.356,-0.156,-0.478,-0.127,0.83,1.122,1.103
0.076,0.371,0.508,0.137,-0.439,0.117,0.322,-0.107,-0.605,-0.322,0.508,0.742,0.752
0.078,0.244,0.41,0.166,-0.327,0.039,0.288,-0.059,-0.732,-0.517,0.185,0.361,0.4
0.08,0.142,0.342,0.2,-0.239,-0.029,0.268,-0.068,-0.854,-0.712,-0.127,0.102,0.224
0.082,0.039,0.283,0.244,-0.161,-0.102,0.264,-0.078,-0.976,-0.898,-0.429,-0.146,0.049
0.084,-0.063,0.224,0.288,-0.078,-0.176,0.254,-0.088,-1.098,-1.083,-0.732,-0.395,-0.127
0.086,-0.166,0.166,0.332,0.0,-0.249,0.249,-0.098,-1.22,-1.269,-1.035,-0.644,-0.303
0.088,-0.19,0.132,0.322,0.029,-0.259,0.224,-0.098,-1.191,-1.22,-1.0,-0.63,-0.317
0.09,-0.205,0.107,0.312,0.049,-0.259,0.21,-0.098,-1.161,-1.181,-0.966,-0.615,-0.322
0.092,-0.22,0.083,0.303,0.068,-0.264,0.19,-0.098,-1.132,-1.142,-0.932,-0.6,-0.327
0.094,-0.234,0.059,0.293,0.088,-0.264,0.176,-0.098,-1.103,-1.103,-0.898,-0.586,-0.332
0.096,-0.21,0.024,0.234,0.093,-0.224,0.127,-0.098,-0.996,-0.986,-0.815,-0.537,-0.322
0.098,-0.195,0.0,0.195,0.098,-0.195,0.098,-0.098,-0.888,-0.869,-0.732,-0.498,-0.312
0.1,-0.181,-0.024,0.156,0.102,-0.171,0.063,-0.098,-0.781,-0.752,-0.649,-0.459,-0.303
0.102,-0.166,-0.049,0.117,0.107,-0.142,0.034,-0.098,-0.673,-0.634,-0.566,-0.42,-0.293
0.104,-0.151,-0.044,0.107,0.098,-0.132,0.029,-0.073,-0.571,-0.532,-0.473,-0.356,-0.259
0.106,-0.137,-0.039,0.098,0.088,-0.117,0.029,-0.059,-0.468,-0.429,-0.39,-0.303,-0.234
0.108,-0.122,-0.034,0.088,0.078,-0.107,0.024,-0.044,-0.366,-0.327,-0.307,-0.249,-0.21
0.11,-0.107,-0.029,0.078,0.068,-0.093,0.024,-0.029,-0.264,-0.224,-0.224,-0.195,-0.185
0.112,-0.093,-0.039,0.054,0.068,-0.073,0.005,-0.024,-0.229,-0.195,-0.195,-0.176,-0.166
0.114,-0.088,-0.039,0.049,0.063,-0.068,0.005,-0.02,-0.205,-0.176,-0.176,-0.166,-0.156
0.116,-0.083,-0.039,0.044,0.063,-0.063,0.0,-0.015,-0.181,-0.156,-0.156,-0.156,-0.146
0.118,-0.078,-0.039,0.039,0.059,-0.059,0.0,-0.01,-0.156,-0.137,-0.137,-0.146,-0.137
0.12,-0.068,-0.054,0.015,0.063,-0.044,-0.02,0.005,-0.127,-0.112,-0.127,-0.132,-0.127
0.122,-0.059,-0.059,0.0,0.059,-0.029,-0.029,0.01,-0.107,-0.088,-0.117,-0.127,-0.127
0.124,-0.049,-0.063,-0.015,0.059,-0.02,-0.039,0.015,-0.088,-0.063,-0.107,-0.122,-0.127
0.126,-0.039,-0.068,-0.029,0.054,-0.005,-0.049,0.02,-0.068,-0.039,-0.098,-0.117,-0.127
0.128,-0.044,-0.068,-0.024,0.059,-0.01,-0.049,0.029,-0.059,-0.029,-0.088,-0.102,-0.127
0.13,-0.049,-0.068,-0.02,0.059,-0.015,-0.044,0.029,-0.059,-0.029,-0.078,-0.098,-0.127
0.132,-0.054,-0.068,-0.015,0.063,-0.02,-0.044,0.029,-0.059,-0.029,-0.068,-0.093,-0.127
0.134,-0.059,-0.068,-0.01,0.063,-0.024,-0.039,0.029,-0.059,-0.029,-0.059,-0.088,-0.127
0.136,-0.044,-0.054,-0.01,0.049,-0.02,-0.034,0.02,-0.049,-0.024,-0.049,-0.078,-0.112
0.138,-0.039,-0.049,-0.01,0.044,-0.015,-0.029,0.02,-0.049,-0.02,-0.049,-0.078,-0.107
0.14,-0.034,-0.044,-0.01,0.039,-0.015,-0.029,0.02,-0.049,-0.015,-0.049,-0.078,-0.102
0.142,-0.029,-0.039,-0.01,0.034,-0.01,-0.024,0.02,-0.049,-0.01,-0.049,-0.078,-0.098
0.144,-0.034,-0.054,-0.02,0.044,-0.01,-0.039,0.034,-0.039,0.005,-0.034,-0.068,-0.107
0.146,-0.039,-0.059,-0.02,0.049,-0.01,-0.039,0.039,-0.029,0.01,-0.029,-0.068,-0.107
0.148,-0.044,-0.063,-0.02,0.054,-0.015,-0.044,0.044,-0.02,0.015,-0.024,-0.068,-0.107
0.15,-0.049,-0.068,-0.02,0.059,-0.015,-0.044,0.049,-0.01,0.02,-0.02,-0.068,-0.107
0.152,-0.029,-0.059,-0.029,0.044,0.0,-0.044,0.044,-0.024,0.015,-0.02,-0.059,-0.098
0.154,-0.02,-0.049,-0.029,0.034,0.005,-0.039,0.039,-0.029,0.01,-0.02,-0.059,-0.098
0.156,-0.01,-0.039,-0.029,0.024,0.01,-0.034,0.034,-0.034,0.005,-0.02,-0.059,-0.098
0.158,0.0,-0.029,-0.029,0.015,0.015,-0.029,0.029,-0.039,0.0,-0.02,-0.059,-0.098
0.16,-0.005,-0.039,-0.034,0.024,0.015,-0.039,0.034,-0.029,0.015,-0.015,-0.059,-0.098
0.162,-0.01,-0.039,-0.029,0.024,0.01,-0.034,0.039,-0.02,0.02,-0.01,-0.059,-0.098
0.164,-0.015,-0.039,-0.024,0.029,0.005,-0.034,0.044,-0.01,0.024,-0.005,-0.059,-0.098
0.166,-0.02,-0.039,-0.02,0.029,0.0,-0.029,0.049,0.0,0.029,0.0,-0.059,-0.098
0.168,-0.029,-0.049,-0.02,0.039,-0.005,-0.034,0.039,0.0,0.029,0.01,-0.049,-0.098
0.17,-0.029,-0.059,-0.029,0.044,0.0,-0.044,0.039,0.0,0.029,0.01,-0.049,-0.098
0.172,-0.029,-0.068,-0.039,0.049,0.005,-0.054,0.039,0.0,0.029,0.01,-0.049,-0.098
0.174,-0.029,-0.078,-0.049,0.054,0.01,-0.063,0.039,0.0,0.029,0.01,-0.049,-0.098
0.176,-0.02,-0.059,-0.039,0.039,0.01,-0.049,0.029,0.0,0.039,0.02,-0.039,-0.093
0.178,-0.01,-0.049,-0.039,0.029,0.015,-0.044,0.029,0.0,0.039,0.02,-0.039,-0.088
0.18,0.0,-0.039,-0.039,0.02,0.02,-0.039,0.029,0.0,0.039,0.02,-0.039,-0.083
0.182,0.01,-0.029,-0.039,0.01,0.024,-0.034,0.029,0.0,0.039,0.02,-0.039,-0.078
0.184,0.005,-0.029,-0.034,0.015,0.02,-0.034,0.034,0.005,0.044,0.024,-0.034,-0.068
0.186,0.0,-0.029,-0.029,0.015,0.015,-0.029,0.039,0.01,0.049,0.029,-0.029,-0.068
0.188,-0.005,-0.029,-0.024,0.02,0.01,-0.029,0.044,0.015,0.054,0.034,-0.024,-0.068
0.19,-0.01,-0.029,-0.02,0.02,0.005,-0.024,0.049,0.02,0.059,0.039,-0.02,-0.068
0.192,-0.005,-0.039,-0.034,0.024,0.015,-0.039,0.034,0.015,0.049,0.029,-0.029,-0.059
0.194,0.0,-0.039,-0.039,0.02,0.02,-0.039,0.029,0.01,0.049,0.029,-0.029,-0.059
0.196,0.005,-0.039,-0.044,0.02,0.024,-0.044,0.024,0.005,0.049,0.029,-0.029,-0.059
0.198,0.01,-0.039,-0.049,0.015,0.029,-0.044,0.02,0.0,0.049,0.029,-0.029,-0.059
0.2,0.0,-0.039,-0.039,0.02,0.02,-0.039,0.029,0.01,0.059,0.039,-0.024,-0.049
0.202,0.0,-0.039,-0.039,0.02,0.02,-0.039,0.029,0.01,0.059,0.039,-0.02,-0.049
0.204,0.0,-0.039,-0.039,0.02,0.02,-0.039,0.029,0.01,0.059,0.039,-0.015,-0.049
0.206,0.0,-0.039,-0.039,0.02,0.02,-0.039,0.029,0.01,0.059,0.039,-0.01,-0.049
0.208,0.01,-0.034,-0.044,0.015,0.024,-0.039,0.039,0.024,0.063,0.054,0.0,-0.039
0.21,0.01,-0.029,-0.039,0.01,0.024,-0.034,0.039,0.029,0.068,0.059,0.0,-0.039
0.212,0.01,-0.024,-0.034,0.01,0.02,-0.029,0.039,0.034,0.073,0.063,0.0,-0.039
0.214,0.01,-0.02,-0.029,0.005,0.02,-0.024,0.039,0.039,0.078,0.068,0.0,-0.039
0.216,0.024,-0.02,-0.044,0.0,0.034,-0.034,0.034,0.029,0.068,0.059,0.0,-0.039
0.218,0.029,-0.02,-0.049,-0.005,0.039,-0.034,0.029,0.029,0.068,0.059,0.0,-0.039
0.22,0.034,-0.02,-0.054,-0.005,0.044,-0.039,0.024,0.029,0.068,0.059,0.0,-0.039
0.222,0.039,-0.02,-0.059,-0.01,0.049,-0.039,0.02,0.029,0.068,0.059,0.0,-0.039
0.224,0.024,-0.02,-0.044,0.0,0.034,-0.034,0.024,0.044,0.083,0.073,0.005,-0.029
0.226,0.02,-0.02,-0.039,0.0,0.029,-0.029,0.029,0.049,0.088,0.078,0.01,-0.029
0.228,0.015,-0.02,-0.034,0.005,0.024,-0.029,0.034,0.054,0.093,0.083,0.015,-0.029
0.23,0.01,-0.02,-0.029,0.005,0.02,-0.024,0.039,0.059,0.098,0.088,0.02,-0.029
0.232,0.024,-0.02,-0.044,0.0,0.034,-0.034,0.034,0.049,0.088,0.088,0.02,-0.029
0.234,0.029,-0.02,-0.049,-0.005,0.039,-0.034,0.029,0.049,0.088,0.088,0.02,-0.029
0.236,0.034,-0.02,-0.054,-0.005,0.044,-0.039,0.024,0.049,0.088,0.088,0.02,-0.029
0.238,0.039,-0.02,-0.059,-0.01,0.049,-0.039,0.02,0.049,0.088,0.088,0.02,-0.029
0.24,0.029,-0.02,-0.049,-0.005,0.039,-0.034,0.01,0.054,0.093,0.093,0.034,-0.024
0.242,0.029,-0.02,-0.049,-0.005,0.039,-0.034,0.01,0.059,0.098,0.098,0.039,-0.02
0.244,0.029,-0.02,-0.049,-0.005,0.039,-0.034,0.01,0.063,0.102,0.102,0.044,-0.015
0.246,0.029,-0.02,-0.049,-0.005,0.039,-0.034,0.01,0.068,0.107,0.107,0.049,-0.01
0.248,0.039,-0.01,-0.049,-0.015,0.044,-0.029,0.02,0.073,0.112,0.122,0.059,0.005
0.25,0.049,0.0,-0.049,-0.024,0.049,-0.024,0.02,0.078,0.117,0.127,0.059,0.01
0.252,0.059,0.01,-0.049,-0.034,0.054,-0.02,0.02,0.083,0.122,0.132,0.059,0.015
0.254,0.068,0.02,-0.049,-0.044,0.059,-0.015,0.02,0.088,0.127,0.137,0.059,0.02
0.256,0.073,0.02,-0.054,-0.044,0.063,-0.02,0.01,0.098,0.137,0.146,0.068,0.02
0.258,0.078,0.02,-0.059,-0.049,0.068,-0.02,0.01,0.098,0.137,0.146,0.068,0.02
0.26,0.083,0.02,-0.063,-0.049,0.073,-0.024,0.01,0.098,0.137,0.146,0.068,0.02
0.262,0.088,0.02,-0.068,-0.054,0.078,-0.024,0.01,0.098,0.137,0.146,0.068,0.02
0.264,0.088,0.029,-0.059,-0.059,0.073,-0.015,0.01,0.102,0.146,0.161,0.083,0.029
0.266,0.088,0.029,-0.059,-0.059,0.073,-0.015,0.01,0.107,0.146,0.166,0.088,0.039
0.268,0.088,0.029,-0.059,-0.059,0.073,-0.015,0.01,0.112,0.146,0.171,0.093,0.049
0.27,0.088,0.029,-0.059,-0.059,0.073,-0.015,0.01,0.117,0.146,0.176,0.098,0.059
0.272,0.088,0.015,-0.073,-0.049,0.078,-0.029,-0.005,0.117,0.156,0.185,0.102,0.068
0.274,0.088,0.01,-0.078,-0.049,0.083,-0.034,-0.01,0.117,0.156,0.185,0.107,0.068
0.276,0.088,0.005,-0.083,-0.044,0.083,-0.039,-0.015,0.117,0.156,0.185,0.112,0.068
0.278,0.088,0.0,-0.088,-0.044,0.088,-0.044,-0.02,0.117,0.156,0.185,0.117,0.068
0.28,0.098,0.02,-0.078,-0.059,0.088,-0.029,-0.024,0.127,0.171,0.2,0.122,0.073
0.282,0.107,0.029,-0.078,-0.068,0.093,-0.024,-0.029,0.137,0.176,0.205,0.127,0.078
0.284,0.117,0.039,-0.078,-0.078,0.098,-0.02,-0.034,0.146,0.181,0.21,0.132,0.083
0.286,0.127,0.049,-0.078,-0.088,0.102,-0.015,-0.039,0.156,0.185,0.215,0.137,0.088
0.288,0.142,0.063,-0.078,-0.102,0.107,-0.01,-0.034,0.166,0.185,0.22,0.151,0.102
0.29,0.146,0.068,-0.078,-0.107,0.112,-0.005,-0.029,0.166,0.185,0.224,0.156,0.107
0.292,0.151,0.073,-0.078,-0.112,0.112,-0.005,-0.024,0.166,0.185,0.229,0.161,0.112
0.294,0.156,0.078,-0.078,-0.117,0.117,0.0,-0.02,0.166,0.185,0.234,0.166,0.117
0.296,0.166,0.068,-0.098,-0.117,0.132,-0.015,-0.029,0.181,0.195,0.244,0.176,0.132
0.298,0.166,0.068,-0.098,-0.117,0.132,-0.015,-0.029,0.185,0.205,0.254,0.185,0.137
0.3,0.166,0.068,-0.098,-0.117,0.132,-0.015,-0.029,0.19,0.215,0.264,0.195,0.142
0.302,0.166,0.068,-0.098,-0.117,0.132,-0.015,-0.029,0.195,0.224,0.273,0.205,0.146
0.304,0.171,0.083,-0.088,-0.127,0.127,-0.005,-0.034,0.205,0.215,0.283,0.21,0.161
0.306,0.176,0.088,-0.088,-0.132,0.132,0.0,-0.039,0.205,0.215,0.283,0.215,0.166
0.308,0.181,0.093,-0.088,-0.137,0.132,0.0,-0.044,0.205,0.215,0.283,0.22,0.171
0.31,0.185,0.098,-0.088,-0.142,0.137,0.005,-0.049,0.205,0.215,0.283,0.224,0.176
0.312,0.195,0.107,-0.088,-0.151,0.142,0.01,-0.054,0.215,0.22,0.288,0.229,0.181
0.314,0.205,0.117,-0.088,-0.161,0.146,0.015,-0.059,0.215,0.224,0.293,0.234,0.185
0.316,0.215,0.127,-0.088,-0.171,0.151,0.02,-0.063,0.215,0.229,0.298,0.239,0.19
0.318,0.224,0.137,-0.088,-0.181,0.156,0.024,-0.068,0.215,0.234,0.303,0.244,0.195
0.32,0.215,0.137,-0.078,-0.176,0.146,0.029,-0.078,0.224,0.244,0.312,0.249,0.2
0.322,0.215,0.137,-0.078,-0.176,0.146,0.029,-0.078,0.224,0.244,0.312,0.254,0.205
0.324,0.215,0.137,-0.078,-0.176,0.146,0.029,-0.078,0.224,0.244,0.312,0.259,0.21
0.326,0.215,0.137,-0.078,-0.176,0.146,0.029,-0.078,0.224,0.244,0.312,0.264,0.215
0.328,0.229,0.151,-0.078,-0.19,0.151,0.034,-0.088,0.224,0.239,0.312,0.273,0.229
0.33,0.234,0.156,-0.078,-0.195,0.156,0.039,-0.088,0.224,0.234,0.312,0.273,0.234
0.332,0.239,0.161,-0.078,-0.2,0.156,0.039,-0.088,0.224,0.229,0.312,0.273,0.239
0.334,0.244,0.166,-0.078,-0.205,0.161,0.044,-0.088,0.224,0.224,0.312,0.273,0.244
0.336,0.234,0.156,-0.078,-0.195,0.156,0.039,-0.098,0.215,0.224,0.312,0.283,0.249
0.338,0.234,0.156,-0.078,-0.195,0.156,0.039,-0.098,0.215,0.224,0.312,0.283,0.254
0.34,0.234,0.156,-0.078,-0.195,0.156,0.039,-0.098,0.215,0.224,0.312,0.283,0.259
0.342,0.234,0.156,-0.078,-0.195,0.156,0.039,-0.098,0.215,0.224,0.312,0.283,0.264
0.344,0.244,0.166,-0.078,-0.205,0.161,0.044,-0.107,0.21,0.21,0.298,0.283,0.254
0.346,0.244,0.166,-0.078,-0.205,0.161,0.044,-0.107,0.205,0.205,0.293,0.283,0.254
0.348,0.244,0.166,-0.078,-0.205,0.161,0.044,-0.107,0.2,0.2,0.288,0.283,0.254
0.35,0.244,0.166,-0.078,-0.205,0.161,0.044,-0.107,0.195,0.195,0.283,0.283,0.254
0.352,0.224,0.161,-0.063,-0.19,0.142,0.049,-0.107,0.185,0.185,0.293,0.273,0.264
0.354,0.215,0.156,-0.059,-0.185,0.137,0.049,-0.107,0.185,0.185,0.293,0.273,0.264
0.356,0.205,0.151,-0.054,-0.176,0.127,0.049,-0.107,0.185,0.185,0.293,0.273,0.264
0.358,0.195,0.146,-0.049,-0.171,0.122,0.049,-0.107,0.185,0.185,0.293,0.273,0.264
0.36,0.205,0.151,-0.054,-0.176,0.127,0.049,-0.107,0.181,0.176,0.278,0.264,0.259
0.362,0.215,0.156,-0.059,-0.185,0.137,0.049,-0.107,0.176,0.176,0.273,0.264,0.254
0.364,0.224,0.161,-0.063,-0.19,0.142,0.049,-0.107,0.171,0.176,0.268,0.264,0.249
0.366,0.234,0.166,-0.068,-0.2,0.151,0.049,-0.107,0.166,0.176,0.264,0.264,0.244
0.368,0.224,0.151,-0.073,-0.185,0.146,0.039,-0.117,0.156,0.166,0.259,0.249,0.229
0.37,0.215,0.146,-0.068,-0.181,0.142,0.039,-0.117,0.146,0.156,0.254,0.244,0.224
0.372,0.205,0.142,-0.063,-0.171,0.132,0.039,-0.117,0.137,0.146,0.249,0.239,0.22
0.374,0.195,0.137,-0.059,-0.166,0.127,0.039,-0.117,0.127,0.137,0.244,0.234,0.215
0.376,0.185,0.146,-0.039,-0.166,0.112,0.054,-0.107,0.117,0.137,0.239,0.224,0.205
0.378,0.185,0.146,-0.039,-0.166,0.112,0.054,-0.098,0.117,0.137,0.234,0.224,0.205
0.38,0.185,0.146,-0.039,-0.166,0.112,0.054,-0.088,0.117,0.137,0.229,0.224,0.205
0.382,0.185,0.146,-0.039,-0.166,0.112,0.054,-0.078,0.117,0.137,0.224,0.224,0.205
0.384,0.166,0.127,-0.039,-0.146,0.102,0.044,-0.078,0.107,0.117,0.205,0.205,0.19
0.386,0.156,0.117,-0.039,-0.137,0.098,0.039,-0.078,0.098,0.107,0.195,0.195,0.176
0.388,0.146,0.107,-0.039,-0.127,0.093,0.034,-0.078,0.088,0.098,0.185,0.185,0.161
0.39,0.137,0.098,-0.039,-0.117,0.088,0.029,-0.078,0.078,0.088,0.176,0.176,0.146
0.392,0.117,0.093,-0.024,-0.102,0.068,0.034,-0.063,0.068,0.078,0.171,0.171,0.142
0.394,0.107,0.088,-0.02,-0.098,0.063,0.034,-0.059,0.068,0.078,0.166,0.166,0.137
0.396,0.098,0.083,-0.015,-0.088,0.054,0.034,-0.054,0.068,0.078,0.161,0.161,0.132
0.398,0.088,0.078,-0.01,-0.083,0.049,0.034,-0.049,0.068,0.078,0.156,0.156,0.127
0.4,0.088,0.073,-0.015,-0.078,0.049,0.029,-0.039,0.054,0.073,0.146,0.137,0.107
0.402,0.088,0.068,-0.02,-0.078,0.054,0.024,-0.039,0.049,0.068,0.137,0.127,0.098
0.404,0.088,0.063,-0.024,-0.073,0.054,0.02,-0.039,0.044,0.063,0.127,0.117,0.088
0.406,0.088,0.059,-0.029,-0.073,0.059,0.015,-0.039,0.039,0.059,0.117,0.107,0.078
0.408,0.078,0.054,-0.024,-0.063,0.049,0.015,-0.034,0.024,0.044,0.107,0.098,0.059
0.41,0.068,0.049,-0.02,-0.059,0.044,0.015,-0.029,0.02,0.039,0.098,0.088,0.049
0.412,0.059,0.044,-0.015,-0.049,0.034,0.015,-0.024,0.015,0.034,0.088,0.078,0.039
0.414,0.049,0.039,-0.01,-0.044,0.029,0.015,-0.02,0.01,0.029,0.078,0.068,0.029
0.416,0.034,0.024,-0.01,-0.029,0.02,0.005,-0.01,0.0,0.024,0.073,0.063,0.024
0.418,0.029,0.02,-0.01,-0.024,0.02,0.005,-0.01,0.0,0.02,0.068,0.059,0.02
0.42,0.024,0.015,-0.01,-0.02,0.015,0.0,-0.01,0.0,0.015,0.063,0.054,0.015
0.422,0.02,0.01,-0.01,-0.015,0.015,0.0,-0.01,0.0,0.01,0.059,0.049,0.01
0.424,0.01,-0.005,-0.015,0.0,0.01,-0.01,-0.01,-0.005,0.005,0.039,0.029,-0.01
0.426,0.0,-0.01,-0.01,0.005,0.005,-0.01,-0.01,-0.01,0.0,0.029,0.02,-0.02
0.428,-0.01,-0.015,-0.005,0.015,-0.005,-0.01,-0.01,-0.015,-0.005,0.02,0.01,-0.029
0.43,-0.02,-0.02,0.0,0.02,-0.01,-0.01,-0.01,-0.02,-0.01,0.01,0.0,-0.039
0.432,-0.02,-0.02,0.0,0.02,-0.01,-0.01,0.0,-0.029,-0.02,0.005,-0.005,-0.044
0.434,-0.02,-0.02,0.0,0.02,-0.01,-0.01,0.0,-0.029,-0.02,0.0,-0.01,-0.049
0.436,-0.02,-0.02,0.0,0.02,-0.01,-0.01,0.0,-0.029,-0.02,-0.005,-0.015,-0.054
0.438,-0.02,-0.02,0.0,0.02,-0.01,-0.01,0.0,-0.029,-0.02,-0.01,-0.02,-0.059
0.44,-0.02,-0.029,-0.01,0.024,-0.005,-0.02,0.0,-0.029,-0.029,-0.02,-0.029,-0.059
0.442,-0.02,-0.029,-0.01,0.024,-0.005,-0.02,0.0,-0.029,-0.029,-0.02,-0.029,-0.059
0.444,-0.02,-0.029,-0.01,0.024,-0.005,-0.02,0.0,-0.029,-0.029,-0.02,-0.029,-0.059
0.446,-0.02,-0.029,-0.01,0.024,-0.005,-0.02,0.0,-0.029,-0.029,-0.02,-0.029,-0.059
0.448,-0.024,-0.039,-0.015,0.034,-0.005,-0.029,0.0,-0.034,-0.034,-0.034,-0.034,-0.068
0.45,-0.029,-0.039,-0.01,0.034,-0.01,-0.024,0.0,-0.039,-0.039,-0.039,-0.039,-0.078
0.452,-0.034,-0.039,-0.005,0.039,-0.015,-0.024,0.0,-0.044,-0.044,-0.044,-0.044,-0.088
0.454,-0.039,-0.039,0.0,0.039,-0.02,-0.02,0.0,-0.049,-0.049,-0.049,-0.049,-0.098
0.456,-0.044,-0.049,-0.005,0.049,-0.02,-0.029,0.0,-0.059,-0.049,-0.049,-0.059,-0.098
0.458,-0.049,-0.059,-0.01,0.054,-0.02,-0.034,0.0,-0.059,-0.049,-0.049,-0.059,-0.098
0.46,-0.054,-0.068,-0.015,0.063,-0.02,-0.044,0.0,-0.059,-0.049,-0.049,-0.059,-0.098
0.462,-0.059,-0.078,-0.02,0.068,-0.02,-0.049,0.0,-0.059,-0.049,-0.049,-0.059,-0.098
0.464,-0.039,-0.073,-0.034,0.059,-0.005,-0.054,0.0,-0.059,-0.049,-0.059,-0.063,-0.107
0.466,-0.029,-0.068,-0.039,0.049,0.005,-0.054,0.0,-0.059,-0.049,-0.059,-0.068,-0.107
0.468,-0.02,-0.063,-0.044,0.044,0.01,-0.054,0.0,-0.059,-0.049,-0.059,-0.073,-0.107
0.47,-0.01,-0.059,-0.049,0.034,0.02,-0.054,0.0,-0.059,-0.049,-0.059,-0.078,-0.107
0.472,-0.024,-0.054,-0.029,0.039,0.0,-0.044,0.005,-0.059,-0.049,-0.049,-0.068,-0.107
0.474,-0.029,-0.049,-0.02,0.039,-0.005,-0.034,0.01,-0.059,-0.049,-0.049,-0.068,-0.107
0.476,-0.034,-0.044,-0.01,0.039,-0.015,-0.029,0.015,-0.059,-0.049,-0.049,-0.068,-0.107
0.478,-0.039,-0.039,0.0,0.039,-0.02,-0.02,0.02,-0.059,-0.049,-0.049,-0.068,-0.107
0.48,-0.049,-0.049,0.0,0.049,-0.024,-0.024,0.02,-0.049,-0.049,-0.059,-0.068,-0.107
0.482,-0.049,-0.049,0.0,0.049,-0.024,-0.024,0.02,-0.049,-0.049,-0.059,-0.068,-0.107
0.484,-0.049,-0.049,0.0,0.049,-0.024,-0.024,0.02,-0.049,-0.049,-0.059,-0.068,-0.107
0.486,-0.049,-0.049,0.0,0.049,-0.024,-0.024,0.02,-0.049,-0.049,-0.059,-0.068,-0.107
0.488,-0.039,-0.054,-0.015,0.049,-0.015,-0.034,0.01,-0.059,-0.059,-0.063,-0.073,-0.117
0.49,-0.039,-0.059,-0.02,0.049,-0.01,-0.039,0.01,-0.059,-0.059,-0.068,-0.078,-0.117
0.492,-0.039,-0.063,-0.024,0.054,-0.01,-0.044,0.01,-0.059,-0.059,-0.073,-0.083,-0.117
0.494,-0.039,-0.068,-0.029,0.054,-0.005,-0.049,0.01,-0.059,-0.059,-0.078,-0.088,-0.117
0.496,-0.039,-0.068,-0.029,0.054,-0.005,-0.049,0.02,-0.049,-0.049,-0.068,-0.088,-0.117
0.498,-0.039,-0.068,-0.029,0.054,-0.005,-0.049,0.02,-0.049,-0.049,-0.068,-0.088,-0.117
0.5,-0.039,-0.068,-0.029,0.054,-0.005,-0.049,0.02,-0.049,-0.049,-0.068,-0.088,-0.117
0.502,-0.039,-0.068,-0.029,0.054,-0.005,-0.049,0.02,-0.049,-0.049,-0.068,-0.088,-0.117
0.504,-0.039,-0.059,-0.02,0.049,-0.01,-0.039,0.02,-0.039,-0.049,-0.068,-0.078,-0.107
0.506,-0.039,-0.059,-0.02,0.049,-0.01,-0.039,0.02,-0.039,-0.049,-0.068,-0.078,-0.107
0.508,-0.039,-0.059,-0.02,0.049,-0.01,-0.039,0.02,-0.039,-0.049,-0.068,-0.078,-0.107
0.51,-0.039,-0.059,-0.02,0.049,-0.01,-0.039,0.02,-0.039,-0.049,-0.068,-0.078,-0.107
0.512,-0.049,-0.049,0.0,0.049,-0.024,-0.024,0.02,-0.039,-0.039,-0.068,-0.088,-0.117
0.514,-0.049,-0.049,0.0,0.049,-0.024,-0.024,0.02,-0.039,-0.039,-0.068,-0.088,-0.117
0.516,-0.049,-0.049,0.0,0.049,-0.024,-0.024,0.02,-0.039,-0.039,-0.068,-0.088,-0.117
0.518,-0.049,-0.049,0.0,0.049,-0.024,-0.024,0.02,-0.039,-0.039,-0.068,-0.088,-0.117
0.52,-0.049,-0.059,-0.01,0.054,-0.02,-0.034,0.02,-0.039,-0.049,-0.068,-0.078,-0.117
0.522,-0.049,-0.059,-0.01,0.054,-0.02,-0.034,0.02,-0.039,-0.049,-0.068,-0.078,-0.117
0.524,-0.049,-0.059,-0.01,0.054,-0.02,-0.034,0.02,-0.039,-0.049,-0.068,-0.078,-0.117
0.526,-0.049,-0.059,-0.01,0.054,-0.02,-0.034,0.02,-0.039,-0.049,-0.068,-0.078,-0.117
0.528,-0.044,-0.068,-0.024,0.059,-0.01,-0.049,0.01,-0.039,-0.059,-0.068,-0.088,-0.127
0.53,-0.039,-0.068,-0.029,0.054,-0.005,-0.049,0.01,-0.039,-0.059,-0.068,-0.088,-0.127
0.532,-0.034,-0.068,-0.034,0.054,0.0,-0.054,0.01,-0.039,-0.059,-0.068,-0.088,-0.127
0.534,-0.029,-0.068,-0.039,0.049,0.005,-0.054,0.01,-0.039,-0.059,-0.068,-0.088,-0.127
0.536,-0.044,-0.063,-0.02,0.054,-0.015,-0.044,0.02,-0.029,-0.054,-0.059,-0.078,-0.122
0.538,-0.049,-0.059,-0.01,0.054,-0.02,-0.034,0.02,-0.029,-0.049,-0.059,-0.078,-0.117
0.54,-0.054,-0.054,0.0,0.054,-0.029,-0.029,0.02,-0.029,-0.044,-0.059,-0.078,-0.112
0.542,-0.059,-0.049,0.01,0.054,-0.034,-0.02,0.02,-0.029,-0.039,-0.059,-0.078,-0.107
0.544,-0.044,-0.049,-0.005,0.049,-0.02,-0.029,0.01,-0.029,-0.039,-0.059,-0.068,-0.107
0.546,-0.039,-0.049,-0.01,0.044,-0.015,-0.029,0.01,-0.029,-0.039,-0.059,-0.068,-0.107
0.548,-0.034,-0.049,-0.015,0.044,-0.01,-0.034,0.01,-0.029,-0.039,-0.059,-0.068,-0.107
0.55,-0.029,-0.049,-0.02,0.039,-0.005,-0.034,0.01,-0.029,-0.039,-0.059,-0.068,-0.107
0.552,-0.029,-0.039,-0.01,0.034,-0.01,-0.024,0.015,-0.02,-0.039,-0.049,-0.068,-0.107
0.554,-0.029,-0.039,-0.01,0.034,-0.01,-0.024,0.02,-0.02,-0.039,-0.049,-0.068,-0.107
0.556,-0.029,-0.039,-0.01,0.034,-0.01,-0.024,0.024,-0.02,-0.039,-0.049,-0.068,-0.107
0.558,-0.029,-0.039,-0.01,0.034,-0.01,-0.024,0.029,-0.02,-0.039,-0.049,-0.068,-0.107
0.56,-0.044,-0.054,-0.01,0.049,-0.02,-0.034,0.015,-0.024,-0.049,-0.059,-0.078,-0.117
0.562,-0.049,-0.059,-0.01,0.054,-0.02,-0.034,0.01,-0.029,-0.049,-0.059,-0.078,-0.117
0.564,-0.054,-0.063,-0.01,0.059,-0.024,-0.039,0.005,-0.034,-0.049,-0.059,-0.078,-0.117
0.566,-0.059,-0.068,-0.01,0.063,-0.024,-0.039,0.0,-0.039,-0.049,-0.059,-0.078,-0.117
0.568,-0.049,-0.059,-0.01,0.054,-0.02,-0.034,0.01,-0.034,-0.039,-0.049,-0.068,-0.112
0.57,-0.039,-0.049,-0.01,0.044,-0.015,-0.029,0.01,-0.029,-0.039,-0.049,-0.068,-0.107
0.572,-0.029,-0.039,-0.01,0.034,-0.01,-0.024,0.01,-0.024,-0.039,-0.049,-0.068,-0.102
0.574,-0.02,-0.029,-0.01,0.024,-0.005,-0.02,0.01,-0.02,-0.039,-0.049,-0.068,-0.098
0.576,-0.034,-0.039,-0.005,0.039,-0.015,-0.024,0.015,-0.01,-0.034,-0.039,-0.063,-0.088
0.578,-0.039,-0.039,0.0,0.039,-0.02,-0.02,0.02,-0.01,-0.029,-0.039,-0.059,-0.088
0.58,-0.044,-0.039,0.005,0.044,-0.024,-0.02,0.024,-0.01,-0.024,-0.039,-0.054,-0.088
0.582,-0.049,-0.039,0.01,0.044,-0.029,-0.015,0.029,-0.01,-0.02,-0.039,-0.049,-0.088
0.584,-0.034,-0.044,-0.01,0.039,-0.015,-0.029,0.024,-0.02,-0.024,-0.049,-0.059,-0.098
0.586,-0.029,-0.049,-0.02,0.039,-0.005,-0.034,0.02,-0.02,-0.029,-0.049,-0.059,-0.098
0.588,-0.024,-0.054,-0.029,0.039,0.0,-0.044,0.015,-0.02,-0.034,-0.049,-0.059,-0.098
0.59,-0.02,-0.059,-0.039,0.039,0.01,-0.049,0.01,-0.02,-0.039,-0.049,-0.059,-0.098
0.592,-0.024,-0.054,-0.029,0.039,0.0,-0.044,0.01,-0.01,-0.029,-0.039,-0.059,-0.088
0.594,-0.029,-0.049,-0.02,0.039,-0.005,-0.034,0.01,-0.01,-0.029,-0.039,-0.059,-0.088
0.596,-0.034,-0.044,-0.01,0.039,-0.015,-0.029,0.01,-0.01,-0.029,-0.039,-0.059,-0.088
0.598,-0.039,-0.039,0.0,0.039,-0.02,-0.02,0.01,-0.01,-0.029,-0.039,-0.059,-0.088
0.6,-0.029,-0.029,0.0,0.029,-0.015,-0.015,0.02,-0.02,-0.039,-0.039,-0.059,-0.098
0.602,-0.029,-0.029,0.0,0.029,-0.015,-0.015,0.02,-0.02,-0.039,-0.039,-0.059,-0.098
0.604,-0.029,-0.029,0.0,0.029,-0.015,-0.015,0.02,-0.02,-0.039,-0.039,-0.059,-0.098
0.606,-0.029,-0.029,0.0,0.029,-0.015,-0.015,0.02,-0.02,-0.039,-0.039,-0.059,-0.098
0.608,-0.029,-0.034,-0.005,0.034,-0.015,-0.02,0.01,-0.029,-0.049,-0.049,-0.068,-0.107
0.61,-0.029,-0.039,-0.01,0.034,-0.01,-0.024,0.01,-0.029,-0.049,-0.049,-0.068,-0.107
0.612,-0.029,-0.044,-0.015,0.039,-0.01,-0.029,0.01,-0.029,-0.049,-0.049,-0.068,-0.107
0.614,-0.029,-0.049,-0.02,0.039,-0.005,-0.034,0.01,-0.029,-0.049,-0.049,-0.068,-0.107
0.616,-0.039,-0.039,0.0,0.039,-0.02,-0.02,0.02,-0.029,-0.039,-0.049,-0.068,-0.098
0.618,-0.039,-0.039,0.0,0.039,-0.02,-0.02,0.02,-0.029,-0.039,-0.049,-0.068,-0.098
0.62,-0.039,-0.039,0.0,0.039,-0.02,-0.02,0.02,-0.029,-0.039,-0.049,-0.068,-0.098
0.622,-0.039,-0.039,0.0,0.039,-0.02,-0.02,0.02,-0.029,-0.039,-0.049,-0.068,-0.098
0.624,-0.039,-0.039,0.0,0.039,-0.02,-0.02,0.02,-0.029,-0.049,-0.049,-0.068,-0.098
0.626,-0.039,-0.039,0.0,0.039,-0.02,-0.02,0.02,-0.029,-0.049,-0.049,-0.068,-0.098
0.628,-0.039,-0.039,0.0,0.039,-0.02,-0.02,0.02,-0.029,-0.049,-0.049,-0.068,-0.098
0.63,-0.039,-0.039,0.0,0.039,-0.02,-0.02,0.02,-0.029,-0.049,-0.049,-0.068,-0.098
0.632,-0.049,-0.044,0.005,0.049,-0.029,-0.02,0.01,-0.044,-0.054,-0.054,-0.073,-0.102
0.634,-0.049,-0.049,0.0,0.049,-0.024,-0.024,0.01,-0.049,-0.059,-0.059,-0.078,-0.107
0.636,-0.049,-0.054,-0.005,0.054,-0.024,-0.029,0.01,-0.054,-0.063,-0.063,-0.083,-0.112
0.638,-0.049,-0.059,-0.01,0.054,-0.02,-0.034,0.01,-0.059,-0.068,-0.068,-0.088,-0.117
0.64,-0.039,-0.054,-0.015,0.049,-0.015,-0.034,0.02,-0.049,-0.059,-0.059,-0.078,-0.112
0.642,-0.039,-0.049,-0.01,0.044,-0.015,-0.029,0.02,-0.049,-0.059,-0.059,-0.078,-0.107
0.644,-0.039,-0.044,-0.005,0.044,-0.02,-0.024,0.02,-0.049,-0.059,-0.059,-0.078,-0.102
0.646,-0.039,-0.039,0.0,0.039,-0.02,-0.02,0.02,-0.049,-0.059,-0.059,-0.078,-0.098
0.648,-0.029,-0.039,-0.01,0.034,-0.01,-0.024,0.02,-0.039,-0.059,-0.068,-0.078,-0.098
0.65,-0.029,-0.039,-0.01,0.034,-0.01,-0.024,0.02,-0.039,-0.059,-0.068,-0.078,-0.098
0.652,-0.029,-0.039,-0.01,0.034,-0.01,-0.024,0.02,-0.039,-0.059,-0.068,-0.078,-0.098
0.654,-0.029,-0.039,-0.01,0.034,-0.01,-0.024,0.02,-0.039,-0.059,-0.068,-0.078,-0.098
0.656,-0.039,-0.049,-0.01,0.044,-0.015,-0.029,0.02,-0.049,-0.068,-0.078,-0.078,-0.107
0.658,-0.039,-0.049,-0.01,0.044,-0.015,-0.029,0.02,-0.049,-0.068,-0.078,-0.078,-0.107
0.66,-0.039,-0.049,-0.01,0.044,-0.015,-0.029,0.02,-0.049,-0.068,-0.078,-0.078,-0.107
0.662,-0.039,-0.049,-0.01,0.044,-0.015,-0.029,0.02,-0.049,-0.068,-0.078,-0.078,-0.107
0.664,-0.034,-0.039,-0.005,0.039,-0.015,-0.024,0.02,-0.059,-0.078,-0.078,-0.088,-0.117
0.666,-0.029,-0.039,-0.01,0.034,-0.01,-0.024,0.02,-0.059,-0.078,-0.078,-0.088,-0.117
0.668,-0.024,-0.039,-0.015,0.034,-0.005,-0.029,0.02,-0.059,-0.078,-0.078,-0.088,-0.117
0.67,-0.02,-0.039,-0.02,0.029,0.0,-0.029,0.02,-0.059,-0.078,-0.078,-0.088,-0.117
0.672,-0.034,-0.044,-0.01,0.039,-0.015,-0.029,0.01,-0.059,-0.078,-0.088,-0.078,-0.117
0.674,-0.039,-0.049,-0.01,0.044,-0.015,-0.029,0.01,-0.059,-0.078,-0.088,-0.078,-0.117
0.676,-0.044,-0.054,-0.01,0.049,-0.02,-0.034,0.01,-0.059,-0.078,-0.088,-0.078,-0.117
0.678,-0.049,-0.059,-0.01,0.054,-0.02,-0.034,0.01,-0.059,-0.078,-0.088,-0.078,-0.117
0.68,-0.039,-0.059,-0.02,0.049,-0.01,-0.039,0.02,-0.059,-0.068,-0.088,-0.088,-0.117
0.682,-0.039,-0.059,-0.02,0.049,-0.01,-0.039,0.02,-0.059,-0.068,-0.088,-0.088,-0.117
0.684,-0.039,-0.059,-0.02,0.049,-0.01,-0.039,0.02,-0.059,-0.068,-0.088,-0.088,-0.117
0.686,-0.039,-0.059,-0.02,0.049,-0.01,-0.039,0.02,-0.059,-0.068,-0.088,-0.088,-0.117
0.688,-0.049,-0.054,-0.005,0.054,-0.024,-0.029,0.01,-0.059,-0.078,-0.098,-0.098,-0.127
0.69,-0.049,-0.049,0.0,0.049,-0.024,-0.024,0.01,-0.059,-0.078,-0.098,-0.098,-0.127
0.692,-0.049,-0.044,0.005,0.049,-0.029,-0.02,0.01,-0.059,-0.078,-0.098,-0.098,-0.127
0.694,-0.049,-0.039,0.01,0.044,-0.029,-0.015,0.01,-0.059,-0.078,-0.098,-0.098,-0.127
0.696,-0.039,-0.039,0.0,0.039,-0.02,-0.02,0.02,-0.059,-0.068,-0.088,-0.093,-0.112
0.698,-0.039,-0.039,0.0,0.039,-0.02,-0.02,0.02,-0.059,-0.068,-0.088,-0.088,-0.107
0.7,-0.039,-0.039,0.0,0.039,-0.02,-0.02,0.02,-0.059,-0.068,-0.088,-0.083,-0.102
0.702,-0.039,-0.039,0.0,0.039,-0.02,-0.02,0.02,-0.059,-0.068,-0.088,-0.078,-0.098
0.704,-0.044,-0.054,-0.01,0.049,-0.02,-0.034,0.029,-0.059,-0.078,-0.098,-0.088,-0.107
0.706,-0.049,-0.059,-0.01,0.054,-0.02,-0.034,0.029,-0.059,-0.078,-0.098,-0.088,-0.107
0.708,-0.054,-0.063,-0.01,0.059,-0.024,-0.039,0.029,-0.059,-0.078,-0.098,-0.088,-0.107
0.71,-0.059,-0.068,-0.01,0.063,-0.024,-0.039,0.029,-0.059,-0.078,-0.098,-0.088,-0.107
0.712,-0.068,-0.063,0.005,0.068,-0.039,-0.029,0.024,-0.059,-0.078,-0.098,-0.088,-0.117
0.714,-0.068,-0.059,0.01,0.063,-0.039,-0.024,0.02,-0.059,-0.078,-0.098,-0.088,-0.117
0.716,-0.068,-0.054,0.015,0.063,-0.044,-0.02,0.015,-0.059,-0.078,-0.098,-0.088,-0.117
0.718,-0.068,-0.049,0.02,0.059,-0.044,-0.015,0.01,-0.059,-0.078,-0.098,-0.088,-0.117
0.72,-0.054,-0.059,-0.005,0.059,-0.024,-0.034,0.01,-0.068,-0.078,-0.098,-0.088,-0.107
0.722,-0.049,-0.059,-0.01,0.054,-0.02,-0.034,0.01,-0.068,-0.078,-0.098,-0.088,-0.107
0.724,-0.044,-0.059,-0.015,0.054,-0.015,-0.039,0.01,-0.068,-0.078,-0.098,-0.088,-0.107
0.726,-0.039,-0.059,-0.02,0.049,-0.01,-0.039,0.01,-0.068,-0.078,-0.098,-0.088,-0.107
0.728,-0.039,-0.049,-0.01,0.044,-0.015,-0.029,0.0,-0.078,-0.083,-0.102,-0.098,-0.112
0.73,-0.039,-0.049,-0.01,0.044,-0.015,-0.029,0.0,-0.078,-0.088,-0.107,-0.098,-0.117
0.732,-0.039,-0.049,-0.01,0.044,-0.015,-0.029,0.0,-0.078,-0.093,-0.112,-0.098,-0.122
0.734,-0.039,-0.049,-0.01,0.044,-0.015,-0.029,0.0,-0.078,-0.098,-0.117,-0.098,-0.127
0.736,-0.049,-0.054,-0.005,0.054,-0.024,-0.029,0.01,-0.068,-0.088,-0.107,-0.098,-0.127
0.738,-0.059,-0.059,0.0,0.059,-0.029,-0.029,0.01,-0.068,-0.088,-0.107,-0.098,-0.127
0.74,-0.068,-0.063,0.005,0.068,-0.039,-0.029,0.01,-0.068,-0.088,-0.107,-0.098,-0.127
0.742,-0.078,-0.068,0.01,0.073,-0.044,-0.029,0.01,-0.068,-0.088,-0.107,-0.098,-0.127
0.744,-0.063,-0.063,0.0,0.063,-0.034,-0.034,0.015,-0.059,-0.078,-0.098,-0.098,-0.117
0.746,-0.059,-0.059,0.0,0.059,-0.029,-0.029,0.02,-0.059,-0.078,-0.098,-0.098,-0.117
0.748,-0.054,-0.054,0.0,0.054,-0.029,-0.029,0.024,-0.059,-0.078,-0.098,-0.098,-0.117
0.75,-0.049,-0.049,0.0,0.049,-0.024,-0.024,0.029,-0.059,-0.078,-0.098,-0.098,-0.117
0.752,-0.049,-0.039,0.01,0.044,-0.029,-0.015,0.02,-0.068,-0.088,-0.107,-0.098,-0.127
0.754,-0.049,-0.039,0.01,0.044,-0.029,-0.015,0.01,-0.068,-0.088,-0.107,-0.098,-0.127
0.756,-0.049,-0.039,0.01,0.044,-0.029,-0.015,0.0,-0.068,-0.088,-0.107,-0.098,-0.127
0.758,-0.049,-0.039,0.01,0.044,-0.029,-0.015,-0.01,-0.068,-0.088,-0.107,-0.098,-0.127
0.76,-0.049,-0.044,0.005,0.049,-0.029,-0.02,-0.005,-0.068,-0.088,-0.107,-0.098,-0.117
0.762,-0.049,-0.049,0.0,0.049,-0.024,-0.024,0.0,-0.068,-0.088,-0.107,-0.098,-0.117
0.764,-0.049,-0.054,-0.005,0.054,-0.024,-0.029,0.005,-0.068,-0.088,-0.107,-0.098,-0.117
0.766,-0.049,-0.059,-0.01,0.054,-0.02,-0.034,0.01,-0.068,-0.088,-0.107,-0.098,-0.117
0.768,-0.049,-0.049,0.0,0.049,-0.024,-0.024,0.02,-0.078,-0.098,-0.117,-0.098,-0.117
0.77,-0.049,-0.049,0.0,0.049,-0.024,-0.024,0.02,-0.078,-0.098,-0.117,-0.098,-0.117
0.772,-0.049,-0.049,0.0,0.049,-0.024,-0.024,0.02,-0.078,-0.098,-0.117,-0.098,-0.117
0.774,-0.049,-0.049,0.0,0.049,-0.024,-0.024,0.02,-0.078,-0.098,-0.117,-0.098,-0.117
0.776,-0.044,-0.039,0.005,0.044,-0.024,-0.02,0.02,-0.073,-0.088,-0.117,-0.098,-0.117
0.778,-0.039,-0.039,0.0,0.039,-0.02,-0.02,0.02,-0.068,-0.088,-0.117,-0.098,-0.117
0.78,-0.034,-0.039,-0.005,0.039,-0.015,-0.024,0.02,-0.063,-0.088,-0.117,-0.098,-0.117
0.782,-0.029,-0.039,-0.01,0.034,-0.01,-0.024,0.02,-0.059,-0.088,-0.117,-0.098,-0.117
0.784,-0.039,-0.044,-0.005,0.044,-0.02,-0.024,0.01,-0.059,-0.102,-0.117,-0.098,-0.127
0.786,-0.049,-0.049,0.0,0.049,-0.024,-0.024,0.01,-0.059,-0.107,-0.117,-0.098,-0.127
0.788,-0.059,-0.054,0.005,0.059,-0.034,-0.024,0.01,-0.059,-0.112,-0.117,-0.098,-0.127
0.79,-0.068,-0.059,0.01,0.063,-0.039,-0.024,0.01,-0.059,-0.117,-0.117,-0.098,-0.127
0.792,-0.068,-0.068,0.0,0.068,-0.034,-0.034,0.0,-0.068,-0.122,-0.127,-0.107,-0.137
0.794,-0.068,-0.068,0.0,0.068,-0.034,-0.034,0.0,-0.068,-0.127,-0.127,-0.107,-0.137
0.796,-0.068,-0.068,0.0,0.068,-0.034,-0.034,0.0,-0.068,-0.132,-0.127,-0.107,-0.137
0.798,-0.068,-0.068,0.0,0.068,-0.034,-0.034,0.0,-0.068,-0.137,-0.127,-0.107,-0.137
0.8,-0.063,-0.063,0.0,0.063,-0.034,-0.034,0.0,-0.068,-0.127,-0.117,-0.098,-0.127
0.802,-0.059,-0.059,0.0,0.059,-0.029,-0.029,0.0,-0.068,-0.127,-0.117,-0.098,-0.127
0.804,-0.054,-0.054,0.0,0.054,-0.029,-0.029,0.0,-0.068,-0.127,-0.117,-0.098,-0.127
0.806,-0.049,-0.049,0.0,0.049,-0.024,-0.024,0.0,-0.068,-0.127,-0.117,-0.098,-0.127
0.808,-0.059,-0.039,0.02,0.049,-0.039,-0.01,0.005,-0.068,-0.117,-0.107,-0.098,-0.117
0.81,-0.059,-0.039,0.02,0.049,-0.039,-0.01,0.01,-0.068,-0.117,-0.107,-0.098,-0.117
0.812,-0.059,-0.039,0.02,0.049,-0.039,-0.01,0.015,-0.068,-0.117,-0.107,-0.098,-0.117
0.814,-0.059,-0.039,0.02,0.049,-0.039,-0.01,0.02,-0.068,-0.117,-0.107,-0.098,-0.117
0.816,-0.063,-0.049,0.015,0.059,-0.039,-0.02,0.01,-0.068,-0.127,-0.112,-0.107,-0.127
0.818,-0.068,-0.059,0.01,0.063,-0.039,-0.024,0.01,-0.068,-0.127,-0.117,-0.107,-0.127
0.82,-0.073,-0.068,0.005,0.073,-0.039,-0.034,0.01,-0.068,-0.127,-0.122,-0.107,-0.127
0.822,-0.078,-0.078,0.0,0.078,-0.039,-0.039,0.01,-0.068,-0.127,-0.127,-0.107,-0.127
0.824,-0.078,-0.088,-0.01,0.083,-0.034,-0.049,0.0,-0.078,-0.137,-0.127,-0.107,-0.137
0.826,-0.078,-0.088,-0.01,0.083,-0.034,-0.049,0.0,-0.078,-0.137,-0.127,-0.107,-0.137
0.828,-0.078,-0.088,-0.01,0.083,-0.034,-0.049,0.0,-0.078,-0.137,-0.127,-0.107,-0.137
0.83,-0.078,-0.088,-0.01,0.083,-0.034,-0.049,0.0,-0.078,-0.137,-0.127,-0.107,-0.137
0.832,-0.073,-0.068,0.005,0.073,-0.039,-0.034,0.005,-0.073,-0.132,-0.117,-0.102,-0.132
0.834,-0.068,-0.059,0.01,0.063,-0.039,-0.024,0.01,-0.068,-0.127,-0.117,-0.098,-0.127
0.836,-0.063,-0.049,0.015,0.059,-0.039,-0.02,0.015,-0.063,-0.122,-0.117,-0.093,-0.122
0.838,-0.059,-0.039,0.02,0.049,-0.039,-0.01,0.02,-0.059,-0.117,-0.117,-0.088,-0.117
0.84,-0.044,-0.039,0.005,0.044,-0.024,-0.02,0.01,-0.068,-0.117,-0.107,-0.088,-0.107
0.842,-0.039,-0.039,0.0,0.039,-0.02,-0.02,0.01,-0.068,-0.117,-0.107,-0.088,-0.107
0.844,-0.034,-0.039,-0.005,0.039,-0.015,-0.024,0.01,-0.068,-0.117,-0.107,-0.088,-0.107
0.846,-0.029,-0.039,-0.01,0.034,-0.01,-0.024,0.01,-0.068,-0.117,-0.107,-0.088,-0.107
0.848,-0.044,-0.044,0.0,0.044,-0.024,-0.024,0.01,-0.068,-0.127,-0.117,-0.098,-0.117
0.85,-0.049,-0.049,0.0,0.049,-0.024,-0.024,0.01,-0.068,-0.127,-0.117,-0.098,-0.117
0.852,-0.054,-0.054,0.0,0.054,-0.029,-0.029,0.01,-0.068,-0.127,-0.117,-0.098,-0.117
0.854,-0.059,-0.059,0.0,0.059,-0.029,-0.029,0.01,-0.068,-0.127,-0.117,-0.098,-0.117
0.856,-0.049,-0.049,0.0,0.049,-0.024,-0.024,0.01,-0.068,-0.127,-0.117,-0.098,-0.127
0.858,-0.049,-0.049,0.0,0.049,-0.024,-0.024,0.01,-0.068,-0.127,-0.117,-0.098,-0.127
0.86,-0.049,-0.049,0.0,0.049,-0.024,-0.024,0.01,-0.068,-0.127,-0.117,-0.098,-0.127
0.862,-0.049,-0.049,0.0,0.049,-0.024,-0.024,0.01,-0.068,-0.127,-0.117,-0.098,-0.127
0.864,-0.059,-0.049,0.01,0.054,-0.034,-0.02,0.02,-0.068,-0.127,-0.117,-0.098,-0.127
0.866,-0.059,-0.049,0.01,0.054,-0.034,-0.02,0.02,-0.068,-0.127,-0.117,-0.098,-0.127
0.868,-0.059,-0.049,0.01,0.054,-0.034,-0.02,0.02,-0.068,-0.127,-0.117,-0.098,-0.127
0.87,-0.059,-0.049,0.01,0.054,-0.034,-0.02,0.02,-0.068,-0.127,-0.117,-0.098,-0.127
0.872,-0.068,-0.049,0.02,0.059,-0.044,-0.015,0.01,-0.068,-0.127,-0.117,-0.107,-0.137
0.874,-0.068,-0.049,0.02,0.059,-0.044,-0.015,0.01,-0.068,-0.127,-0.117,-0.107,-0.137
0.876,-0.068,-0.049,0.02,0.059,-0.044,-0.015,0.01,-0.068,-0.127,-0.117,-0.107,-0.137
0.878,-0.068,-0.049,0.02,0.059,-0.044,-0.015,0.01,-0.068,-0.127,-0.117,-0.107,-0.137
0.88,-0.068,-0.049,0.02,0.059,-0.044,-0.015,0.01,-0.068,-0.117,-0.107,-0.102,-0.132
0.882,-0.068,-0.049,0.02,0.059,-0.044,-0.015,0.01,-0.068,-0.117,-0.107,-0.098,-0.127
0.884,-0.068,-0.049,0.02,0.059,-0.044,-0.015,0.01,-0.068,-0.117,-0.107,-0.093,-0.122
0.886,-0.068,-0.049,0.02,0.059,-0.044,-0.015,0.01,-0.068,-0.117,-0.107,-0.088,-0.117
0.888,-0.078,-0.049,0.029,0.063,-0.054,-0.01,0.01,-0.068,-0.127,-0.117,-0.098,-0.117
0.89,-0.078,-0.049,0.029,0.063,-0.054,-0.01,0.01,-0.068,-0.127,-0.117,-0.098,-0.117
0.892,-0.078,-0.049,0.029,0.063,-0.054,-0.01,0.01,-0.068,-0.127,-0.117,-0.098,-0.117
0.894,-0.078,-0.049,0.029,0.063,-0.054,-0.01,0.01,-0.068,-0.127,-0.117,-0.098,-0.117
0.896,-0.088,-0.063,0.024,0.078,-0.059,-0.02,0.0,-0.078,-0.137,-0.127,-0.107,-0.127
0.898,-0.088,-0.068,0.02,0.078,-0.054,-0.024,0.0,-0.078,-0.137,-0.127,-0.107,-0.127
0.9,-0.088,-0.073,0.015,0.083,-0.054,-0.029,0.0,-0.078,-0.137,-0.127,-0.107,-0.127
0.902,-0.088,-0.078,0.01,0.083,-0.049,-0.034,0.0,-0.078,-0.137,-0.127,-0.107,-0.127
0.904,-0.073,-0.059,0.015,0.068,-0.044,-0.024,0.01,-0.078,-0.137,-0.127,-0.107,-0.127
0.906,-0.059,-0.049,0.01,0.054,-0.034,-0.02,0.01,-0.078,-0.137,-0.127,-0.107,-0.127
0.908,-0.044,-0.039,0.005,0.044,-0.024,-0.02,0.01,-0.078,-0.137,-0.127,-0.107,-0.127
0.91,-0.029,-0.029,0.0,0.029,-0.015,-0.015,0.01,-0.078,-0.137,-0.127,-0.107,-0.127
0.912,-0.049,-0.034,0.015,0.044,-0.034,-0.01,0.02,-0.068,-0.127,-0.122,-0.098,-0.117
0.914,-0.059,-0.039,0.02,0.049,-0.039,-0.01,0.02,-0.068,-0.127,-0.117,-0.098,-0.117
0.916,-0.068,-0.044,0.024,0.059,-0.049,-0.01,0.02,-0.068,-0.127,-0.112,-0.098,-0.117
0.918,-0.078,-0.049,0.029,0.063,-0.054,-0.01,0.02,-0.068,-0.127,-0.107,-0.098,-0.117
0.92,-0.068,-0.049,0.02,0.059,-0.044,-0.015,0.01,-0.078,-0.137,-0.112,-0.107,-0.127
0.922,-0.059,-0.049,0.01,0.054,-0.034,-0.02,0.01,-0.078,-0.137,-0.117,-0.107,-0.127
0.924,-0.049,-0.049,0.0,0.049,-0.024,-0.024,0.01,-0.078,-0.137,-0.122,-0.107,-0.127
0.926,-0.039,-0.049,-0.01,0.044,-0.015,-0.029,0.01,-0.078,-0.137,-0.127,-0.107,-0.127
0.928,-0.044,-0.059,-0.015,0.054,-0.015,-0.039,0.0,-0.088,-0.146,-0.137,-0.117,-0.137
0.93,-0.049,-0.059,-0.01,0.054,-0.02,-0.034,0.0,-0.088,-0.146,-0.137,-0.117,-0.137
0.932,-0.054,-0.059,-0.005,0.059,-0.024,-0.034,0.0,-0.088,-0.146,-0.137,-0.117,-0.137
0.934,-0.059,-0.059,0.0,0.059,-0.029,-0.029,0.0,-0.088,-0.146,-0.137,-0.117,-0.137
0.936,-0.063,-0.049,0.015,0.059,-0.039,-0.02,0.01,-0.083,-0.142,-0.132,-0.112,-0.132
0.938,-0.068,-0.049,0.02,0.059,-0.044,-0.015,0.01,-0.078,-0.137,-0.127,-0.107,-0.127
0.94,-0.073,-0.054,0.02,0.063,-0.049,-0.02,0.01,-0.073,-0.132,-0.122,-0.102,-0.122
0.942,-0.063,-0.054,0.01,0.059,-0.039,-0.024,0.01,-0.078,-0.137,-0.122,-0.107,-0.127
0.944,-0.063,-0.054,0.01,0.059,-0.039,-0.024,0.02,-0.068,-0.137,-0.122,-0.107,-0.117
0.946,-0.063,-0.054,0.01,0.059,-0.039,-0.024,0.02,-0.063,-0.137,-0.117,-0.102,-0.117
0.948,-0.054,-0.049,0.005,0.054,-0.029,-0.024,0.015,-0.063,-0.137,-0.117,-0.102,-0.117
0.95,-0.054,-0.039,0.015,0.049,-0.034,-0.015,0.015,-0.068,-0.137,-0.117,-0.102,-0.117
0.952,-0.073,-0.049,0.024,0.063,-0.049,-0.015,0.015,-0.068,-0.137,-0.117,-0.102,-0.127
0.954,-0.083,-0.049,0.034,0.068,-0.059,-0.01,0.015,-0.068,-0.132,-0.117,-0.102,-0.122
0.956,-0.083,-0.059,0.024,0.073,-0.054,-0.02,0.01,-0.068,-0.132,-0.122,-0.102,-0.122
0.958,-0.083,-0.059,0.024,0.073,-0.054,-0.02,0.01,-0.068,-0.132,-0.122,-0.102,-0.127
0.96,-0.078,-0.063,0.015,0.073,-0.049,-0.024,0.015,-0.068,-0.132,-0.107,-0.088,-0.117
0.962,-0.073,-0.059,0.015,0.068,-0.044,-0.024,0.02,-0.068,-0.132,-0.107,-0.088,-0.112
0.964,-0.073,-0.059,0.015,0.068,-0.044,-0.024,0.02,-0.063,-0.132,-0.107,-0.088,-0.107
0.966,-0.073,-0.059,0.015,0.068,-0.044,-0.024,0.02,-0.054,-0.127,-0.102,-0.083,-0.107
0.968,-0.083,-0.054,0.029,0.068,-0.059,-0.015,0.015,-0.063,-0.137,-0.112,-0.093,-0.117
0.97,-0.078,-0.044,0.034,0.063,-0.059,-0.005,0.024,-0.063,-0.132,-0.112,-0.093,-0.117
0.972,-0.068,-0.024,0.044,0.049,-0.059,0.01,0.024,-0.059,-0.122,-0.107,-0.093,-0.117
0.974,-0.063,-0.015,0.049,0.039,-0.059,0.015,0.024,-0.059,-0.117,-0.102,-0.088,-0.112
0.976,-0.059,-0.01,0.049,0.034,-0.054,0.02,0.029,-0.049,-0.112,-0.093,-0.078,-0.102
0.978,-0.059,-0.005,0.054,0.034,-0.059,0.024,0.039,-0.039,-0.098,-0.088,-0.068,-0.093
0.98,-0.054,0.024,0.078,0.015,-0.068,0.049,0.059,-0.024,-0.083,-0.068,-0.054,-0.078
0.982,-0.044,0.034,0.078,0.005,-0.063,0.054,0.063,-0.024,-0.073,-0.068,-0.054,-0.078
0.984,-0.054,0.029,0.083,0.015,-0.068,0.054,0.059,-0.029,-0.083,-0.068,-0.054,-0.088
0.986,-0.044,0.024,0.068,0.01,-0.059,0.044,0.054,-0.029,-0.088,-0.068,-0.054,-0.088
0.988,-0.039,0.02,0.059,0.01,-0.049,0.039,0.039,-0.039,-0.098,-0.078,-0.063,-0.088
0.99,-0.029,0.015,0.044,0.01,-0.039,0.029,0.029,-0.039,-0.098,-0.078,-0.063,-0.093
0.992,-0.039,0.015,0.054,0.015,-0.049,0.034,0.02,-0.049,-0.102,-0.083,-0.063,-0.093
0.994,-0.049,0.015,0.063,0.02,-0.059,0.039,0.024,-0.044,-0.098,-0.083,-0.063,-0.093
0.996,-0.049,0.015,0.063,0.02,-0.059,0.039,0.034,-0.044,-0.098,-0.083,-0.068,-0.093
0.998,-0.054,0.01,0.063,0.024,-0.059,0.034,0.034,-0.039,-0.098,-0.083,-0.073,-0.093
1.0,-0.044,0.01,0.054,0.02,-0.049,0.029,0.044,-0.024,-0.083,-0.073,-0.068,-0.083
1.002,-0.039,0.015,0.054,0.015,-0.049,0.034,0.039,-0.02,-0.083,-0.073,-0.063,-0.083
1.004,-0.024,0.015,0.039,0.005,-0.034,0.024,0.024,-0.02,-0.083,-0.073,-0.059,-0.083
1.006,-0.01,0.02,0.029,-0.005,-0.02,0.024,0.01,-0.02,-0.083,-0.068,-0.054,-0.083
1.008,-0.02,0.02,0.039,0.0,-0.029,0.029,0.015,-0.029,-0.093,-0.078,-0.063,-0.093
1.01,-0.02,0.015,0.034,0.005,-0.029,0.024,0.005,-0.034,-0.093,-0.073,-0.059,-0.093
1.012,-0.02,0.01,0.029,0.005,-0.024,0.02,0.0,-0.049,-0.098,-0.073,-0.059,-0.088
1.014,-0.01,0.01,0.02,0.0,-0.015,0.015,-0.01,-0.049,-0.098,-0.073,-0.059,-0.088
1.016,-0.01,0.029,0.039,-0.01,-0.024,0.034,-0.01,-0.039,-0.088,-0.063,-0.054,-0.068
1.018,-0.01,0.034,0.044,-0.01,-0.029,0.039,-0.015,-0.044,-0.088,-0.059,-0.049,-0.068
1.02,0.005,0.039,0.034,-0.02,-0.015,0.034,-0.02,-0.054,-0.088,-0.059,-0.044,-0.059
1.022,0.01,0.044,0.034,-0.024,-0.015,0.039,-0.029,-0.054,-0.093,-0.054,-0.039,-0.054
1.024,0.01,0.039,0.029,-0.024,-0.01,0.034,-0.029,-0.054,-0.093,-0.054,-0.029,-0.063
1.026,0.02,0.034,0.015,-0.024,0.0,0.024,-0.024,-0.059,-0.098,-0.059,-0.039,-0.063
1.028,0.024,0.029,0.005,-0.024,0.01,0.015,-0.015,-0.059,-0.102,-0.063,-0.044,-0.068
1.03,0.024,0.024,0.0,-0.024,0.01,0.01,-0.01,-0.063,-0.107,-0.068,-0.044,-0.068
1.032,0.005,0.034,0.029,-0.02,-0.015,0.029,-0.015,-0.063,-0.112,-0.078,-0.059,-0.059
1.034,0.0,0.024,0.024,-0.01,-0.015,0.024,-0.024,-0.068,-0.112,-0.088,-0.059,-0.068
1.036,-0.005,0.015,0.02,-0.005,-0.015,0.015,-0.029,-0.073,-0.117,-0.098,-0.068,-0.073
1.038,-0.01,0.005,0.015,0.005,-0.015,0.01,-0.034,-0.078,-0.132,-0.102,-0.078,-0.078
1.04,-0.02,-0.02,0.0,0.02,-0.01,-0.01,-0.029,-0.088,-0.142,-0.102,-0.088,-0.093
1.042,-0.024,-0.034,-0.01,0.029,-0.01,-0.024,-0.029,-0.088,-0.146,-0.107,-0.093,-0.093
1.044,-0.024,-0.039,-0.015,0.034,-0.005,-0.029,-0.024,-0.083,-0.146,-0.107,-0.093,-0.093
1.046,-0.024,-0.039,-0.015,0.034,-0.005,-0.029,-0.024,-0.083,-0.146,-0.107,-0.088,-0.093
1.048,-0.02,-0.029,-0.01,0.024,-0.005,-0.02,-0.024,-0.078,-0.151,-0.107,-0.078,-0.093
1.05,-0.015,-0.024,-0.01,0.02,-0.005,-0.02,-0.024,-0.083,-0.151,-0.117,-0.088,-0.093
1.052,-0.01,-0.029,-0.02,0.02,0.005,-0.024,-0.024,-0.083,-0.151,-0.117,-0.088,-0.098
1.054,-0.005,-0.039,-0.034,0.024,0.015,-0.039,-0.024,-0.078,-0.146,-0.112,-0.088,-0.098
1.056,-0.005,-0.024,-0.02,0.015,0.005,-0.024,-0.015,-0.078,-0.142,-0.093,-0.073,-0.083
1.058,-0.01,-0.015,-0.005,0.015,-0.005,-0.01,-0.01,-0.068,-0.137,-0.088,-0.073,-0.078
1.06,-0.024,-0.015,0.01,0.02,-0.02,-0.005,0.0,-0.063,-0.137,-0.088,-0.073,-0.078
1.062,-0.049,-0.024,0.024,0.039,-0.039,0.0,0.0,-0.063,-0.137,-0.093,-0.073,-0.088
1.064,-0.049,-0.034,0.015,0.044,-0.034,-0.01,0.01,-0.073,-0.137,-0.098,-0.068,-0.093
1.066,-0.049,-0.039,0.01,0.044,-0.029,-0.015,0.01,-0.073,-0.142,-0.107,-0.073,-0.102
1.068,-0.039,-0.039,0.0,0.039,-0.02,-0.02,0.01,-0.083,-0.142,-0.112,-0.078,-0.107
1.07,-0.049,-0.049,0.0,0.049,-0.024,-0.024,0.01,-0.083,-0.146,-0.112,-0.093,-0.112
1.072,-0.059,-0.059,0.0,0.059,-0.029,-0.029,0.015,-0.083,-0.151,-0.127,-0.107,-0.132
1.074,-0.059,-0.063,-0.005,0.063,-0.029,-0.034,0.01,-0.083,-0.156,-0.132,-0.112,-0.137
1.076,-0.059,-0.063,-0.005,0.063,-0.029,-0.034,0.005,-0.093,-0.161,-0.137,-0.117,-0.137
1.078,-0.068,-0.063,0.005,0.068,-0.039,-0.029,-0.005,-0.093,-0.161,-0.137,-0.117,-0.137
1.08,-0.078,-0.073,0.005,0.078,-0.044,-0.034,-0.005,-0.093,-0.166,-0.127,-0.127,-0.137
1.082,-0.078,-0.078,0.0,0.078,-0.039,-0.039,0.0,-0.098,-0.166,-0.132,-0.127,-0.146
1.084,-0.078,-0.078,0.0,0.078,-0.039,-0.039,0.005,-0.098,-0.166,-0.137,-0.127,-0.146
1.086,-0.083,-0.083,0.0,0.083,-0.044,-0.044,0.01,-0.093,-0.166,-0.137,-0.127,-0.142
1.088,-0.098,-0.073,0.024,0.088,-0.063,-0.024,0.005,-0.093,-0.171,-0.142,-0.137,-0.151
1.09,-0.098,-0.078,0.02,0.088,-0.059,-0.029,0.005,-0.088,-0.171,-0.142,-0.137,-0.151
1.092,-0.102,-0.078,0.024,0.093,-0.063,-0.029,0.015,-0.088,-0.171,-0.137,-0.137,-0.146
1.094,-0.102,-0.078,0.024,0.093,-0.063,-0.029,0.015,-0.083,-0.166,-0.137,-0.132,-0.146
1.096,-0.098,-0.073,0.024,0.088,-0.063,-0.024,0.005,-0.083,-0.156,-0.127,-0.127,-0.142
1.098,-0.093,-0.073,0.02,0.083,-0.059,-0.029,0.0,-0.083,-0.156,-0.127,-0.127,-0.142
1.1,-0.093,-0.073,0.02,0.083,-0.059,-0.029,0.0,-0.083,-0.156,-0.127,-0.122,-0.137
1.102,-0.088,-0.068,0.02,0.078,-0.054,-0.024,0.005,-0.083,-0.151,-0.127,-0.112,-0.132
1.104,-0.083,-0.059,0.024,0.073,-0.054,-0.02,0.02,-0.073,-0.142,-0.112,-0.102,-0.132
1.106,-0.068,-0.054,0.015,0.063,-0.044,-0.02,0.024,-0.073,-0.137,-0.112,-0.102,-0.127
1.108,-0.068,-0.054,0.015,0.063,-0.044,-0.02,0.034,-0.068,-0.132,-0.107,-0.093,-0.122
1.11,-0.073,-0.063,0.01,0.068,-0.044,-0.029,0.039,-0.068,-0.132,-0.102,-0.093,-0.122
1.112,-0.044,-0.054,-0.01,0.049,-0.02,-0.034,0.015,-0.073,-0.151,-0.122,-0.122,-0.142
1.114,-0.054,-0.049,0.005,0.054,-0.029,-0.024,0.015,-0.073,-0.151,-0.122,-0.122,-0.132
1.116,-0.063,-0.059,0.005,0.063,-0.034,-0.029,0.024,-0.054,-0.122,-0.107,-0.102,-0.122
1.118,-0.083,-0.049,0.034,0.068,-0.059,-0.01,0.039,-0.024,-0.098,-0.098,-0.093,-0.117
1.12,-0.112,-0.044,0.068,0.078,-0.093,0.01,0.059,0.029,-0.054,-0.078,-0.083,-0.127
1.122,-0.093,-0.029,0.063,0.063,-0.078,0.015,0.093,0.112,0.029,-0.029,-0.054,-0.127
1.124,-0.063,-0.005,0.059,0.034,-0.063,0.024,0.112,0.2,0.112,0.049,-0.005,-0.102
1.126,-0.059,0.02,0.078,0.02,-0.068,0.049,0.107,0.283,0.21,0.137,0.059,-0.054
1.128,-0.029,0.044,0.073,-0.005,-0.054,0.059,0.107,0.395,0.337,0.273,0.156,0.024
1.13,0.039,0.107,0.068,-0.073,-0.015,0.088,0.117,0.527,0.503,0.459,0.312,0.161
1.132,0.137,0.215,0.078,-0.176,0.029,0.146,0.102,0.649,0.678,0.673,0.512,0.332
1.134,0.254,0.312,0.059,-0.283,0.098,0.185,0.098,0.781,0.869,0.927,0.737,0.527
1.136,0.351,0.376,0.024,-0.361,0.161,0.2,0.088,0.869,1.015,1.176,0.996,0.737
1.138,0.434,0.439,0.005,-0.434,0.215,0.22,0.049,0.839,1.049,1.352,1.23,0.947
1.14,0.498,0.522,0.024,-0.508,0.234,0.273,0.0,0.727,0.986,1.459,1.44,1.181
1.142,0.537,0.605,0.068,-0.571,0.234,0.337,-0.034,0.586,0.913,1.581,1.674,1.449
1.144,0.59,0.722,0.132,-0.654,0.229,0.425,-0.083,0.42,0.815,1.703,1.928,1.713
1.146,0.712,0.83,0.117,-0.771,0.298,0.473,-0.176,0.166,0.62,1.723,2.074,1.884
1.148,0.825,0.888,0.063,-0.854,0.381,0.473,-0.259,-0.054,0.405,1.684,2.118,1.967
1.15,0.825,0.913,0.088,-0.869,0.366,0.498,-0.273,-0.151,0.298,1.63,2.064,1.957
1.152,0.805,0.859,0.054,-0.83,0.376,0.454,-0.288,-0.244,0.171,1.484,1.84,1.776
1.154,0.756,0.712,-0.044,-0.732,0.4,0.332,-0.288,-0.386,-0.02,1.225,1.469,1.41
1.156,0.639,0.537,-0.102,-0.586,0.371,0.215,-0.215,-0.527,-0.244,0.864,1.01,0.981
1.158,0.4,0.429,0.029,-0.415,0.185,0.229,-0.093,-0.673,-0.488,0.41,0.561,0.556
1.16,0.161,0.41,0.249,-0.283,-0.044,0.327,-0.034,-0.844,-0.722,-0.02,0.215,0.254
1.162,0.005,0.342,0.337,-0.171,-0.166,0.337,-0.044,-1.015,-0.981,-0.425,-0.127,0.029
1.164,-0.059,0.22,0.278,-0.078,-0.171,0.249,-0.093,-1.147,-1.225,-0.834,-0.454,-0.161
1.166,-0.088,0.151,0.239,-0.029,-0.166,0.195,-0.132,-1.215,-1.366,-1.035,-0.61,-0.244
1.168,-0.117,0.127,0.244,-0.005,-0.181,0.185,-0.137,-1.269,-1.396,-1.083,-0.634,-0.268
1.17,-0.146,0.127,0.273,0.01,-0.21,0.2,-0.132,-1.274,-1.376,-1.074,-0.654,-0.298
1.172,-0.2,0.107,0.307,0.049,-0.254,0.205,-0.142,-1.235,-1.308,-1.005,-0.625,-0.307
1.174,-0.22,0.078,0.298,0.073,-0.259,0.185,-0.171,-1.147,-1.215,-0.903,-0.566,-0.283
1.176,-0.176,0.063,0.239,0.059,-0.21,0.151,-0.161,-1.03,-1.108,-0.825,-0.527,-0.283
1.178,-0.166,0.044,0.21,0.063,-0.19,0.127,-0.146,-0.908,-0.991,-0.756,-0.488,-0.283
1.18,-0.195,0.005,0.2,0.098,-0.2,0.102,-0.146,-0.791,-0.869,-0.683,-0.434,-0.273
1.182,-0.181,-0.034,0.146,0.107,-0.166,0.054,-0.127,-0.654,-0.732,-0.586,-0.39,-0.259
1.184,-0.132,-0.034,0.098,0.083,-0.117,0.029,-0.107,-0.522,-0.586,-0.483,-0.342,-0.234
1.186,-0.107,-0.015,0.093,0.063,-0.102,0.039,-0.073,-0.386,-0.454,-0.381,-0.273,-0.21
1.188,-0.107,-0.01,0.098,0.059,-0.102,0.044,-0.034,-0.259,-0.327,-0.283,-0.205,-0.166
1.19,-0.083,-0.01,0.073,0.049,-0.078,0.029,-0.01,-0.161,-0.239,-0.205,-0.161,-0.151
1.192,-0.073,-0.01,0.063,0.044,-0.068,0.024,-0.015,-0.132,-0.22,-0.181,-0.142,-0.151
1.194,-0.088,-0.029,0.059,0.059,-0.073,0.015,-0.024,-0.127,-0.224,-0.171,-0.137,-0.151
1.196,-0.088,-0.029,0.059,0.059,-0.073,0.015,-0.02,-0.112,-0.215,-0.156,-0.122,-0.132
1.198,-0.054,-0.015,0.039,0.034,-0.049,0.01,-0.029,-0.102,-0.21,-0.156,-0.117,-0.122
1.2,-0.034,-0.005,0.029,0.02,-0.034,0.01,-0.02,-0.088,-0.185,-0.151,-0.107,-0.122
1.202,-0.034,-0.015,0.02,0.024,-0.029,0.0,0.0,-0.044,-0.142,-0.132,-0.098,-0.098
1.204,-0.044,-0.049,-0.005,0.049,-0.02,-0.029,0.015,-0.01,-0.107,-0.117,-0.088,-0.098
1.206,-0.034,-0.063,-0.029,0.049,-0.005,-0.049,0.015,-0.005,-0.093,-0.107,-0.093,-0.112
1.208,-0.044,-0.059,-0.015,0.054,-0.015,-0.039,0.039,0.024,-0.068,-0.088,-0.073,-0.102
1.21,-0.063,-0.049,0.015,0.059,-0.039,-0.02,0.059,0.054,-0.049,-0.049,-0.049,-0.093
1.212,-0.059,-0.034,0.024,0.049,-0.044,-0.005,0.049,0.044,-0.059,-0.039,-0.049,-0.098
1.214,-0.049,-0.024,0.024,0.039,-0.039,0.0,0.034,0.034,-0.063,-0.039,-0.054,-0.093
1.216,-0.039,-0.015,0.024,0.029,-0.034,0.005,0.034,0.024,-0.063,-0.044,-0.054,-0.093
1.218,-0.034,-0.01,0.024,0.024,-0.029,0.005,0.034,0.034,-0.063,-0.049,-0.054,-0.083
1.22,-0.034,-0.02,0.015,0.029,-0.024,-0.005,0.024,0.024,-0.063,-0.059,-0.054,-0.078
1.222,-0.029,-0.02,0.01,0.024,-0.02,-0.005,0.024,0.024,-0.059,-0.059,-0.054,-0.078
1.224,-0.044,-0.029,0.015,0.039,-0.029,-0.01,0.024,0.029,-0.049,-0.059,-0.063,-0.078
1.226,-0.063,-0.044,0.02,0.054,-0.044,-0.015,0.029,0.034,-0.039,-0.059,-0.054,-0.088
1.228,-0.059,-0.054,0.005,0.059,-0.034,-0.024,0.034,0.054,-0.024,-0.039,-0.044,-0.098
1.23,-0.059,-0.049,0.01,0.054,-0.034,-0.02,0.034,0.063,-0.02,-0.024,-0.039,-0.098
1.232,-0.039,-0.044,-0.005,0.044,-0.02,-0.024,0.039,0.068,-0.015,-0.02,-0.034,-0.093
1.234,-0.039,-0.044,-0.005,0.044,-0.02,-0.024,0.039,0.068,-0.015,-0.005,-0.029,-0.088
1.236,-0.049,-0.044,0.005,0.049,-0.029,-0.02,0.024,0.059,-0.024,-0.01,-0.039,-0.083
1.238,-0.044,-0.039,0.005,0.044,-0.024,-0.02,0.02,0.049,-0.029,-0.015,-0.034,-0.083
1.24,-0.044,-0.039,0.005,0.044,-0.024,-0.02,0.02,0.049,-0.034,-0.024,-0.034,-0.083
1.242,-0.044,-0.044,0.0,0.044,-0.024,-0.024,0.024,0.054,-0.039,-0.029,-0.034,-0.083
1.244,-0.034,-0.029,0.005,0.034,-0.02,-0.015,0.024,0.063,-0.024,-0.015,-0.029,-0.068
1.246,-0.024,-0.024,0.0,0.024,-0.015,-0.015,0.029,0.068,-0.015,-0.01,-0.029,-0.068
1.248,-0.015,-0.029,-0.015,0.024,0.0,-0.024,0.029,0.073,-0.005,-0.005,-0.029,-0.068
1.25,-0.015,-0.024,-0.01,0.02,-0.005,-0.02,0.034,0.078,0.005,-0.005,-0.029,-0.068
1.252,-0.015,-0.01,0.005,0.015,-0.01,-0.005,0.044,0.088,0.005,0.01,-0.01,-0.059
1.254,-0.015,-0.01,0.005,0.015,-0.01,-0.005,0.049,0.083,0.005,0.02,-0.01,-0.054
1.256,-0.015,-0.01,0.005,0.015,-0.01,-0.005,0.044,0.073,-0.005,0.02,-0.01,-0.054
1.258,-0.015,-0.01,0.005,0.015,-0.01,-0.005,0.049,0.073,-0.005,0.02,-0.005,-0.049
1.26,-0.015,-0.01,0.005,0.015,-0.01,-0.005,0.039,0.063,-0.005,0.005,-0.01,-0.054
1.262,-0.024,-0.015,0.01,0.02,-0.02,-0.005,0.034,0.068,-0.01,-0.01,-0.015,-0.059
1.264,-0.034,-0.029,0.005,0.034,-0.02,-0.015,0.034,0.068,-0.015,-0.005,-0.02,-0.059
1.266,-0.044,-0.034,0.01,0.039,-0.029,-0.015,0.029,0.078,-0.01,-0.01,-0.024,-0.063
1.268,-0.039,-0.029,0.01,0.034,-0.024,-0.01,0.039,0.083,0.005,0.005,-0.02,-0.063
1.27,-0.01,-0.02,-0.01,0.015,0.0,-0.015,0.039,0.088,0.01,0.015,-0.02,-0.063
1.272,0.005,-0.005,-0.01,0.0,0.005,-0.01,0.039,0.093,0.015,0.02,-0.01,-0.063
1.274,0.024,0.005,-0.02,-0.015,0.02,-0.01,0.044,0.093,0.015,0.02,-0.01,-0.063
1.276,0.024,-0.005,-0.029,-0.01,0.024,-0.02,0.044,0.102,0.015,0.029,0.0,-0.049
1.278,0.02,0.005,-0.015,-0.01,0.015,-0.005,0.044,0.102,0.015,0.029,0.0,-0.044
1.28,0.024,0.005,-0.02,-0.015,0.02,-0.01,0.044,0.102,0.015,0.034,0.005,-0.039
1.282,0.02,0.0,-0.02,-0.01,0.02,-0.01,0.039,0.102,0.015,0.034,0.005,-0.039
1.284,0.01,-0.01,-0.02,0.0,0.015,-0.015,0.039,0.093,0.024,0.034,-0.005,-0.044
1.286,0.005,-0.01,-0.015,0.005,0.01,-0.015,0.039,0.102,0.029,0.029,0.0,-0.044
1.288,0.0,-0.01,-0.01,0.005,0.005,-0.01,0.039,0.102,0.034,0.024,0.0,-0.044
1.29,-0.005,-0.01,-0.005,0.01,0.0,-0.01,0.039,0.107,0.039,0.024,0.0,-0.044
1.292,0.0,-0.005,-0.005,0.005,0.0,-0.005,0.049,0.112,0.039,0.029,0.01,-0.034
1.294,0.01,-0.005,-0.015,0.0,0.01,-0.01,0.044,0.117,0.039,0.034,0.015,-0.029
1.296,0.02,0.0,-0.02,-0.01,0.02,-0.01,0.039,0.122,0.039,0.039,0.015,-0.029
1.298,0.024,0.0,-0.024,-0.01,0.024,-0.015,0.039,0.132,0.039,0.049,0.02,-0.029
1.3,0.005,0.0,-0.005,0.0,0.005,-0.005,0.049,0.132,0.054,0.054,0.029,-0.02
1.302,0.005,0.0,-0.005,0.0,0.005,-0.005,0.049,0.132,0.054,0.054,0.034,-0.02
1.304,0.015,0.01,-0.005,-0.01,0.01,0.0,0.049,0.137,0.068,0.063,0.044,-0.01
1.306,0.015,0.01,-0.005,-0.01,0.01,0.0,0.049,0.142,0.068,0.063,0.044,-0.01
1.308,0.024,0.01,-0.015,-0.015,0.02,-0.005,0.044,0.137,0.059,0.068,0.039,-0.02
1.31,0.034,0.02,-0.015,-0.024,0.024,0.0,0.039,0.142,0.063,0.063,0.039,-0.015
1.312,0.024,0.02,-0.005,-0.02,0.015,0.005,0.034,0.142,0.063,0.063,0.049,-0.015
1.314,0.024,0.02,-0.005,-0.02,0.015,0.005,0.029,0.142,0.068,0.059,0.044,-0.005
1.316,0.029,0.02,-0.01,-0.024,0.02,0.005,0.029,0.156,0.068,0.068,0.049,-0.01
1.318,0.024,0.005,-0.02,-0.015,0.02,-0.01,0.029,0.156,0.068,0.073,0.049,-0.01
1.32,0.024,0.0,-0.024,-0.01,0.024,-0.015,0.02,0.151,0.068,0.073,0.049,-0.01
1.322,0.02,0.0,-0.02,-0.01,0.02,-0.01,0.02,0.151,0.068,0.073,0.049,-0.005
1.324,0.024,0.01,-0.015,-0.015,0.02,-0.005,0.02,0.161,0.088,0.083,0.054,0.005
1.326,0.029,0.015,-0.015,-0.02,0.02,0.0,0.02,0.161,0.088,0.093,0.054,0.005
1.328,0.039,0.015,-0.024,-0.024,0.029,-0.005,0.02,0.161,0.088,0.093,0.054,0.005
1.33,0.044,0.015,-0.029,-0.029,0.034,-0.01,0.02,0.161,0.093,0.102,0.059,0.005
1.332,0.044,0.015,-0.029,-0.029,0.034,-0.01,0.029,0.181,0.102,0.122,0.073,0.02
1.334,0.044,0.02,-0.024,-0.029,0.034,-0.005,0.029,0.19,0.107,0.122,0.078,0.024
1.336,0.049,0.029,-0.02,-0.039,0.034,0.005,0.024,0.19,0.107,0.127,0.083,0.029
1.338,0.068,0.034,-0.034,-0.049,0.049,0.0,0.02,0.19,0.112,0.127,0.098,0.039
1.34,0.073,0.029,-0.044,-0.049,0.059,-0.01,0.005,0.19,0.102,0.127,0.093,0.039
1.342,0.073,0.024,-0.049,-0.049,0.059,-0.015,0.005,0.19,0.107,0.127,0.098,0.039
1.344,0.078,0.02,-0.059,-0.049,0.068,-0.02,0.005,0.205,0.107,0.137,0.093,0.039
1.346,0.088,0.024,-0.063,-0.054,0.073,-0.02,0.005,0.205,0.107,0.142,0.088,0.034
1.348,0.098,0.034,-0.063,-0.063,0.078,-0.015,0.0,0.205,0.127,0.132,0.088,0.034
1.35,0.098,0.039,-0.059,-0.068,0.078,-0.01,0.0,0.215,0.127,0.142,0.098,0.044
1.352,0.098,0.044,-0.054,-0.068,0.073,-0.005,0.0,0.215,0.127,0.146,0.102,0.049
1.354,0.098,0.049,-0.049,-0.073,0.073,0.0,0.0,0.22,0.137,0.156,0.107,0.054
1.356,0.102,0.054,-0.049,-0.078,0.073,0.0,0.005,0.224,0.142,0.166,0.117,0.059
1.358,0.122,0.054,-0.068,-0.088,0.093,-0.01,0.0,0.234,0.146,0.166,0.127,0.063
1.36,0.122,0.073,-0.049,-0.098,0.083,0.01,0.0,0.244,0.151,0.171,0.137,0.078
1.362,0.132,0.073,-0.059,-0.102,0.093,0.005,0.0,0.249,0.161,0.181,0.142,0.088
1.364,0.127,0.073,-0.054,-0.098,0.088,0.01,-0.01,0.259,0.171,0.181,0.137,0.098
1.366,0.142,0.073,-0.068,-0.107,0.102,0.0,-0.01,0.259,0.176,0.185,0.137,0.098
1.368,0.137,0.078,-0.059,-0.107,0.098,0.01,-0.01,0.259,0.181,0.19,0.142,0.098
1.37,0.122,0.078,-0.044,-0.098,0.083,0.015,-0.01,0.264,0.185,0.195,0.146,0.098
1.372,0.112,0.073,-0.039,-0.093,0.073,0.015,-0.015,0.268,0.19,0.2,0.161,0.102
1.374,0.132,0.073,-0.059,-0.102,0.093,0.005,-0.015,0.278,0.19,0.21,0.161,0.107
1.376,0.132,0.078,-0.054,-0.102,0.093,0.01,-0.024,0.278,0.19,0.215,0.171,0.112
1.378,0.132,0.083,-0.049,-0.107,0.088,0.015,-0.024,0.278,0.19,0.215,0.176,0.117
1.38,0.146,0.093,-0.054,-0.117,0.098,0.02,-0.024,0.298,0.21,0.234,0.2,0.137
1.382,0.161,0.107,-0.054,-0.132,0.107,0.024,-0.024,0.303,0.215,0.239,0.2,0.146
1.384,0.185,0.112,-0.073,-0.146,0.127,0.02,-0.034,0.303,0.22,0.244,0.205,0.146
1.386,0.195,0.117,-0.078,-0.156,0.137,0.02,-0.039,0.307,0.224,0.249,0.21,0.151
1.388,0.2,0.122,-0.078,-0.161,0.137,0.02,-0.029,0.312,0.229,0.259,0.22,0.171
1.39,0.205,0.122,-0.083,-0.161,0.142,0.02,-0.029,0.317,0.234,0.268,0.224,0.181
1.392,0.2,0.122,-0.078,-0.161,0.137,0.02,-0.029,0.322,0.239,0.273,0.234,0.185
1.394,0.205,0.122,-0.083,-0.161,0.142,0.02,-0.029,0.322,0.244,0.278,0.244,0.2
1.396,0.21,0.117,-0.093,-0.161,0.151,0.01,-0.049,0.312,0.239,0.278,0.234,0.19
1.398,0.21,0.122,-0.088,-0.166,0.146,0.015,-0.054,0.317,0.234,0.273,0.239,0.195
1.4,0.21,0.122,-0.088,-0.166,0.146,0.015,-0.059,0.322,0.234,0.268,0.239,0.2
1.402,0.21,0.132,-0.078,-0.171,0.142,0.024,-0.059,0.322,0.229,0.264,0.249,0.205
1.404,0.244,0.151,-0.093,-0.195,0.166,0.029,-0.054,0.322,0.239,0.268,0.254,0.21
1.406,0.259,0.156,-0.102,-0.205,0.181,0.024,-0.059,0.322,0.239,0.283,0.259,0.215
1.408,0.249,0.156,-0.093,-0.2,0.171,0.029,-0.063,0.322,0.239,0.288,0.259,0.224
1.41,0.239,0.161,-0.078,-0.2,0.156,0.039,-0.063,0.322,0.239,0.293,0.264,0.229
1.412,0.229,0.151,-0.078,-0.19,0.151,0.034,-0.068,0.317,0.239,0.293,0.264,0.229
1.414,0.239,0.151,-0.088,-0.195,0.161,0.029,-0.073,0.317,0.234,0.293,0.264,0.229
1.416,0.249,0.161,-0.088,-0.205,0.166,0.034,-0.073,0.317,0.224,0.288,0.268,0.239
1.418,0.259,0.171,-0.088,-0.215,0.171,0.039,-0.073,0.317,0.224,0.288,0.278,0.244
1.42,0.239,0.161,-0.078,-0.2,0.156,0.039,-0.083,0.307,0.224,0.288,0.278,0.244
1.422,0.234,0.161,-0.073,-0.195,0.151,0.044,-0.088,0.307,0.22,0.288,0.278,0.244
1.424,0.239,0.161,-0.078,-0.2,0.156,0.039,-0.088,0.307,0.22,0.288,0.278,0.244
1.426,0.239,0.161,-0.078,-0.2,0.156,0.039,-0.088,0.307,0.22,0.288,0.278,0.249
1.428,0.239,0.161,-0.078,-0.2,0.156,0.039,-0.083,0.307,0.215,0.288,0.278,0.259
1.43,0.239,0.161,-0.078,-0.2,0.156,0.039,-0.083,0.303,0.215,0.283,0.278,0.259
1.432,0.234,0.161,-0.073,-0.195,0.151,0.044,-0.083,0.303,0.21,0.278,0.278,0.264
1.434,0.234,0.161,-0.073,-0.195,0.151,0.044,-0.083,0.303,0.21,0.273,0.278,0.264
1.436,0.244,0.181,-0.063,-0.21,0.151,0.059,-0.093,0.293,0.2,0.268,0.268,0.254
1.438,0.254,0.185,-0.068,-0.22,0.161,0.059,-0.098,0.283,0.195,0.264,0.268,0.254
1.44,0.268,0.2,-0.068,-0.234,0.166,0.063,-0.098,0.278,0.195,0.264,0.268,0.254
1.442,0.278,0.205,-0.073,-0.239,0.176,0.063,-0.098,0.268,0.176,0.259,0.268,0.254
1.444,0.264,0.19,-0.073,-0.224,0.166,0.059,-0.088,0.268,0.185,0.259,0.264,0.254
1.446,0.254,0.181,-0.073,-0.215,0.161,0.054,-0.088,0.264,0.181,0.254,0.264,0.249
1.448,0.244,0.171,-0.073,-0.205,0.156,0.049,-0.093,0.254,0.166,0.249,0.259,0.244
1.45,0.239,0.171,-0.068,-0.205,0.151,0.049,-0.093,0.254,0.166,0.239,0.259,0.244
1.452,0.234,0.176,-0.059,-0.205,0.146,0.059,-0.093,0.244,0.166,0.239,0.259,0.239
1.454,0.229,0.176,-0.054,-0.2,0.142,0.059,-0.088,0.234,0.161,0.234,0.254,0.234
1.456,0.215,0.166,-0.049,-0.19,0.132,0.059,-0.088,0.229,0.156,0.229,0.249,0.229
1.458,0.205,0.161,-0.044,-0.181,0.122,0.059,-0.088,0.22,0.146,0.224,0.249,0.229
1.46,0.2,0.156,-0.044,-0.176,0.122,0.054,-0.093,0.215,0.137,0.21,0.234,0.224
1.462,0.2,0.151,-0.049,-0.176,0.122,0.049,-0.093,0.21,0.132,0.205,0.234,0.22
1.464,0.195,0.142,-0.054,-0.166,0.122,0.044,-0.083,0.195,0.122,0.2,0.229,0.205
1.466,0.176,0.132,-0.044,-0.151,0.107,0.044,-0.078,0.19,0.122,0.19,0.215,0.2
1.468,0.146,0.127,-0.02,-0.137,0.083,0.054,-0.083,0.181,0.107,0.181,0.205,0.185
1.47,0.151,0.122,-0.029,-0.137,0.088,0.044,-0.083,0.176,0.093,0.171,0.19,0.176
1.472,0.146,0.112,-0.034,-0.127,0.088,0.039,-0.083,0.156,0.093,0.161,0.19,0.166
1.474,0.122,0.112,-0.01,-0.117,0.063,0.049,-0.073,0.151,0.093,0.151,0.181,0.161
1.476,0.117,0.117,0.0,-0.117,0.059,0.059,-0.059,0.161,0.098,0.161,0.176,0.161
1.478,0.107,0.102,-0.005,-0.102,0.054,0.049,-0.054,0.142,0.088,0.156,0.171,0.146
1.48,0.102,0.093,-0.01,-0.098,0.054,0.039,-0.039,0.132,0.083,0.146,0.166,0.137
1.482,0.093,0.088,-0.005,-0.088,0.049,0.039,-0.029,0.132,0.078,0.137,0.151,0.122
1.484,0.102,0.093,-0.01,-0.098,0.054,0.039,-0.034,0.112,0.063,0.112,0.137,0.107
1.486,0.093,0.083,-0.01,-0.088,0.049,0.034,-0.034,0.107,0.054,0.107,0.127,0.093
1.488,0.088,0.073,-0.015,-0.078,0.049,0.029,-0.024,0.102,0.049,0.098,0.122,0.093
1.49,0.083,0.063,-0.02,-0.073,0.049,0.02,-0.024,0.093,0.044,0.088,0.112,0.083
1.492,0.063,0.049,-0.015,-0.054,0.039,0.015,-0.029,0.098,0.039,0.078,0.102,0.078
1.494,0.063,0.054,-0.01,-0.059,0.034,0.02,-0.029,0.093,0.034,0.078,0.102,0.073
1.496,0.059,0.049,-0.01,-0.054,0.034,0.02,-0.02,0.083,0.029,0.068,0.093,0.063
1.498,0.039,0.029,-0.01,-0.034,0.024,0.01,-0.02,0.078,0.02,0.059,0.078,0.049
1.5,0.015,0.024,0.01,-0.02,0.0,0.015,-0.015,0.068,0.02,0.039,0.063,0.034
1.502,0.029,0.044,0.015,-0.034,0.005,0.029,-0.015,0.059,0.015,0.034,0.059,0.024
1.504,0.024,0.044,0.02,-0.034,0.0,0.029,0.0,0.059,0.01,0.034,0.059,0.024
1.506,0.005,0.039,0.034,-0.02,-0.015,0.034,0.005,0.054,0.01,0.029,0.054,0.02
1.508,0.005,0.02,0.015,-0.01,-0.005,0.015,-0.005,0.049,0.005,0.024,0.039,0.0
1.51,0.005,0.005,0.0,-0.005,0.0,0.0,-0.005,0.049,0.005,0.015,0.034,-0.01
1.512,-0.005,0.0,0.005,0.005,-0.005,0.0,-0.005,0.049,0.005,0.01,0.034,-0.01
1.514,-0.015,-0.005,0.01,0.01,-0.015,0.0,-0.005,0.044,0.0,0.0,0.02,-0.02
1.516,-0.024,-0.01,0.015,0.02,-0.02,0.0,0.005,0.044,-0.01,-0.01,0.01,-0.029
1.518,-0.024,-0.015,0.01,0.02,-0.02,-0.005,0.01,0.044,-0.01,-0.015,0.0,-0.034
1.52,-0.029,-0.015,0.015,0.024,-0.024,0.0,0.02,0.044,-0.01,-0.015,0.0,-0.034
1.522,-0.034,-0.015,0.02,0.024,-0.029,0.0,0.024,0.034,-0.015,-0.015,-0.005,-0.039
1.524,-0.02,-0.01,0.01,0.015,-0.015,0.0,0.015,0.029,-0.029,-0.034,-0.015,-0.044
1.526,-0.005,-0.01,-0.005,0.01,0.0,-0.01,0.02,0.024,-0.029,-0.049,-0.02,-0.049
1.528,-0.01,-0.024,-0.015,0.02,0.0,-0.02,0.015,0.02,-0.029,-0.049,-0.024,-0.049
1.53,-0.02,-0.029,-0.01,0.024,-0.005,-0.02,0.01,0.015,-0.034,-0.049,-0.024,-0.054
1.532,-0.015,-0.044,-0.029,0.029,0.005,-0.039,0.0,0.024,-0.044,-0.054,-0.039,-0.068
1.534,-0.01,-0.044,-0.034,0.029,0.01,-0.039,0.0,0.015,-0.044,-0.054,-0.044,-0.073
1.536,-0.029,-0.044,-0.015,0.039,-0.01,-0.029,0.0,0.015,-0.044,-0.059,-0.044,-0.078
1.538,-0.044,-0.049,-0.005,0.049,-0.02,-0.029,0.0,0.015,-0.044,-0.063,-0.044,-0.078
1.54,-0.039,-0.039,0.0,0.039,-0.02,-0.02,0.005,0.024,-0.039,-0.059,-0.039,-0.083
1.542,-0.034,-0.024,0.01,0.029,-0.024,-0.01,0.01,0.024,-0.044,-0.063,-0.039,-0.078
1.544,-0.029,-0.015,0.015,0.024,-0.024,0.0,0.015,0.024,-0.044,-0.063,-0.039,-0.073
1.546,-0.024,-0.005,0.02,0.015,-0.024,0.005,0.02,0.02,-0.039,-0.063,-0.039,-0.068
1.548,-0.029,0.0,0.029,0.015,-0.029,0.015,0.024,0.02,-0.039,-0.073,-0.034,-0.068
1.55,-0.015,0.0,0.015,0.01,-0.015,0.005,0.024,0.02,-0.039,-0.073,-0.034,-0.063
1.552,-0.01,0.0,0.01,0.005,-0.01,0.005,0.024,0.02,-0.034,-0.073,-0.034,-0.063
1.554,-0.005,-0.005,0.0,0.005,-0.005,-0.005,0.024,0.02,-0.034,-0.078,-0.039,-0.063
1.556,-0.02,-0.02,0.0,0.02,-0.01,-0.01,0.024,0.005,-0.059,-0.078,-0.063,-0.073
1.558,-0.024,-0.02,0.005,0.024,-0.015,-0.01,0.024,0.0,-0.059,-0.083,-0.068,-0.088
1.56,-0.039,-0.024,0.015,0.034,-0.029,-0.005,0.024,0.0,-0.054,-0.093,-0.068,-0.093
1.562,-0.044,-0.034,0.01,0.039,-0.029,-0.015,0.024,0.0,-0.054,-0.093,-0.073,-0.102
1.564,-0.049,-0.039,0.01,0.044,-0.029,-0.015,0.015,-0.005,-0.049,-0.093,-0.063,-0.098
1.566,-0.049,-0.034,0.015,0.044,-0.034,-0.01,0.015,0.0,-0.044,-0.083,-0.063,-0.093
1.568,-0.039,-0.029,0.01,0.034,-0.024,-0.01,0.015,0.015,-0.039,-0.083,-0.059,-0.088
1.57,-0.029,-0.015,0.015,0.024,-0.024,0.0,0.015,0.02,-0.034,-0.083,-0.054,-0.083
1.572,-0.039,-0.024,0.015,0.034,-0.029,-0.005,0.005,0.01,-0.049,-0.098,-0.059,-0.093
1.574,-0.044,-0.039,0.005,0.044,-0.024,-0.02,0.005,0.005,-0.054,-0.098,-0.063,-0.093
1.576,-0.054,-0.049,0.005,0.054,-0.029,-0.024,0.005,0.0,-0.059,-0.102,-0.078,-0.093
1.578,-0.054,-0.059,-0.005,0.059,-0.024,-0.034,0.005,-0.005,-0.063,-0.107,-0.088,-0.093
1.58,-0.054,-0.049,0.005,0.054,-0.029,-0.024,0.015,0.005,-0.059,-0.098,-0.078,-0.093
1.582,-0.063,-0.044,0.02,0.054,-0.044,-0.015,0.02,0.005,-0.054,-0.098,-0.073,-0.102
1.584,-0.063,-0.039,0.024,0.054,-0.044,-0.01,0.02,0.005,-0.049,-0.093,-0.068,-0.102
1.586,-0.059,-0.034,0.024,0.049,-0.044,-0.005,0.02,0.005,-0.044,-0.088,-0.068,-0.102
1.588,-0.044,-0.02,0.024,0.034,-0.034,0.0,0.02,0.015,-0.044,-0.078,-0.068,-0.098
1.59,-0.034,-0.02,0.015,0.029,-0.024,-0.005,0.02,0.015,-0.044,-0.083,-0.068,-0.093
1.592,-0.059,-0.034,0.024,0.049,-0.044,-0.005,0.02,0.015,-0.049,-0.083,-0.073,-0.088
1.594,-0.068,-0.034,0.034,0.054,-0.054,0.0,0.015,0.01,-0.049,-0.088,-0.073,-0.088
1.596,-0.054,-0.039,0.015,0.049,-0.034,-0.015,0.005,0.01,-0.059,-0.098,-0.083,-0.093
1.598,-0.039,-0.029,0.01,0.034,-0.024,-0.01,0.015,0.015,-0.054,-0.098,-0.083,-0.098
1.6,-0.039,-0.015,0.024,0.029,-0.034,0.005,0.015,0.015,-0.054,-0.093,-0.083,-0.102
1.602,-0.039,-0.029,0.01,0.034,-0.024,-0.01,0.029,0.015,-0.049,-0.093,-0.083,-0.102
1.604,-0.029,-0.029,0.0,0.029,-0.015,-0.015,0.02,0.005,-0.049,-0.102,-0.083,-0.107
1.606,-0.034,-0.029,0.005,0.034,-0.02,-0.015,0.015,0.01,-0.049,-0.102,-0.083,-0.107
1.608,-0.034,-0.044,-0.01,0.039,-0.015,-0.029,0.01,0.01,-0.049,-0.102,-0.083,-0.117
1.61,-0.029,-0.044,-0.015,0.039,-0.01,-0.029,0.01,0.005,-0.049,-0.102,-0.093,-0.127
1.612,-0.02,-0.029,-0.01,0.024,-0.005,-0.02,0.02,0.005,-0.049,-0.102,-0.083,-0.102
1.614,-0.015,-0.01,0.005,0.015,-0.01,-0.005,0.02,0.02,-0.039,-0.093,-0.078,-0.102
1.616,-0.015,-0.005,0.01,0.01,-0.015,0.0,0.024,0.02,-0.039,-0.093,-0.078,-0.102
1.618,-0.024,-0.024,0.0,0.024,-0.015,-0.015,0.024,0.015,-0.039,-0.098,-0.078,-0.102
1.62,-0.034,-0.024,0.01,0.029,-0.024,-0.01,0.034,0.02,-0.034,-0.088,-0.078,-0.093
1.622,-0.024,-0.02,0.005,0.024,-0.015,-0.01,0.034,0.02,-0.034,-0.088,-0.078,-0.093
1.624,-0.049,-0.02,0.029,0.034,-0.039,0.005,0.024,0.024,-0.034,-0.088,-0.078,-0.098
1.626,-0.059,-0.024,0.034,0.044,-0.049,0.005,0.024,0.034,-0.034,-0.088,-0.073,-0.098
1.628,-0.049,-0.024,0.024,0.039,-0.039,0.0,0.02,0.024,-0.034,-0.088,-0.073,-0.093
1.63,-0.054,-0.02,0.034,0.039,-0.044,0.005,0.024,0.029,-0.029,-0.083,-0.073,-0.088
1.632,-0.054,-0.02,0.034,0.039,-0.044,0.005,0.024,0.029,-0.024,-0.083,-0.073,-0.083
1.634,-0.049,-0.015,0.034,0.034,-0.044,0.01,0.02,0.029,-0.024,-0.083,-0.073,-0.083
1.636,-0.034,-0.015,0.02,0.024,-0.029,0.0,0.015,0.02,-0.029,-0.093,-0.083,-0.088
1.638,-0.029,-0.015,0.015,0.024,-0.024,0.0,0.015,0.02,-0.024,-0.093,-0.078,-0.093
1.64,-0.024,-0.015,0.01,0.02,-0.02,-0.005,0.015,0.024,-0.029,-0.093,-0.078,-0.093
1.642,-0.015,-0.01,0.005,0.015,-0.01,-0.005,0.02,0.024,-0.034,-0.093,-0.073,-0.098
1.644,-0.029,-0.02,0.01,0.024,-0.02,-0.005,0.024,0.029,-0.02,-0.083,-0.068,-0.093
1.646,-0.034,-0.024,0.01,0.029,-0.024,-0.01,0.029,0.034,-0.01,-0.083,-0.063,-0.088
1.648,-0.039,-0.024,0.015,0.034,-0.029,-0.005,0.034,0.044,-0.005,-0.078,-0.059,-0.093
1.65,-0.059,-0.024,0.034,0.044,-0.049,0.005,0.039,0.049,-0.015,-0.078,-0.059,-0.088
1.652,-0.044,-0.015,0.029,0.029,-0.039,0.005,0.029,0.029,-0.02,-0.088,-0.073,-0.093
1.654,-0.039,-0.015,0.024,0.029,-0.034,0.005,0.024,0.024,-0.02,-0.083,-0.073,-0.093
1.656,-0.034,-0.015,0.02,0.024,-0.029,0.0,0.024,0.024,-0.02,-0.083,-0.068,-0.093
1.658,-0.015,0.005,0.02,0.005,-0.02,0.01,0.02,0.034,0.0,-0.078,-0.063,-0.083
1.66,-0.01,-0.005,0.005,0.01,-0.01,0.0,0.02,0.034,-0.01,-0.078,-0.063,-0.083
1.662,-0.015,-0.015,0.0,0.015,-0.01,-0.01,0.024,0.034,-0.015,-0.078,-0.063,-0.083
1.664,-0.029,-0.015,0.015,0.024,-0.024,0.0,0.024,0.034,-0.02,-0.083,-0.063,-0.078
1.666,-0.034,-0.015,0.02,0.024,-0.029,0.0,0.024,0.034,-0.029,-0.083,-0.059,-0.078
1.668,-0.034,-0.015,0.02,0.024,-0.029,0.0,0.015,0.029,-0.02,-0.083,-0.059,-0.088
1.67,-0.039,-0.02,0.02,0.029,-0.029,0.0,0.015,0.029,-0.02,-0.083,-0.068,-0.093
1.672,-0.044,-0.02,0.024,0.034,-0.034,0.0,0.02,0.034,-0.015,-0.083,-0.068,-0.098
1.674,-0.049,-0.02,0.029,0.034,-0.039,0.005,0.02,0.034,-0.01,-0.078,-0.063,-0.098
1.676,-0.063,-0.02,0.044,0.044,-0.054,0.01,0.02,0.029,-0.005,-0.078,-0.063,-0.088
1.678,-0.073,-0.024,0.049,0.049,-0.063,0.01,0.024,0.029,-0.005,-0.078,-0.059,-0.078
1.68,-0.083,-0.024,0.059,0.054,-0.073,0.015,0.024,0.024,-0.01,-0.078,-0.059,-0.078
1.682,-0.073,-0.024,0.049,0.049,-0.063,0.01,0.024,0.02,-0.02,-0.078,-0.059,-0.083
1.684,-0.059,-0.02,0.039,0.039,-0.049,0.01,0.02,0.015,-0.02,-0.093,-0.063,-0.083
1.686,-0.054,-0.015,0.039,0.034,-0.049,0.01,0.02,0.015,-0.024,-0.093,-0.068,-0.088
1.688,-0.029,-0.01,0.02,0.02,-0.024,0.005,0.02,0.01,-0.029,-0.093,-0.068,-0.088
1.69,-0.01,0.0,0.01,0.005,-0.01,0.005,0.02,0.01,-0.029,-0.093,-0.068,-0.088
1.692,-0.01,0.0,0.01,0.005,-0.01,0.005,0.02,0.01,-0.024,-0.093,-0.068,-0.083
1.694,-0.015,-0.01,0.005,0.015,-0.01,-0.005,0.02,0.01,-0.024,-0.093,-0.068,-0.083
1.696,-0.015,-0.01,0.005,0.015,-0.01,-0.005,0.024,0.005,-0.029,-0.093,-0.068,-0.088
1.698,-0.005,0.0,0.005,0.005,-0.005,0.0,0.024,0.005,-0.029,-0.093,-0.063,-0.088
1.7,-0.01,-0.005,0.005,0.01,-0.01,0.0,0.024,-0.01,-0.039,-0.102,-0.073,-0.083
1.702,-0.01,-0.005,0.005,0.01,-0.01,0.0,0.02,-0.015,-0.044,-0.107,-0.073,-0.083
1.704,-0.01,-0.005,0.005,0.01,-0.01,0.0,0.02,-0.02,-0.049,-0.107,-0.088,-0.093
1.706,-0.01,-0.005,0.005,0.01,-0.01,0.0,0.024,-0.02,-0.049,-0.107,-0.088,-0.093
1.708,-0.02,-0.02,0.0,0.02,-0.01,-0.01,0.039,0.0,-0.024,-0.098,-0.073,-0.088
1.71,-0.034,-0.024,0.01,0.029,-0.024,-0.01,0.039,0.005,-0.024,-0.093,-0.073,-0.088
1.712,-0.039,-0.024,0.015,0.034,-0.029,-0.005,0.039,0.005,-0.024,-0.093,-0.073,-0.088
1.714,-0.059,-0.024,0.034,0.044,-0.049,0.005,0.039,0.0,-0.034,-0.093,-0.068,-0.088
1.716,-0.054,-0.029,0.024,0.044,-0.039,-0.005,0.029,-0.01,-0.044,-0.088,-0.078,-0.088
1.718,-0.029,-0.029,0.0,0.029,-0.015,-0.015,0.02,-0.02,-0.054,-0.107,-0.088,-0.088
1.72,-0.044,-0.039,0.005,0.044,-0.024,-0.02,0.015,-0.02,-0.054,-0.107,-0.088,-0.088
1.722,-0.063,-0.039,0.024,0.054,-0.044,-0.01,0.015,-0.02,-0.044,-0.102,-0.083,-0.098
1.724,-0.039,-0.029,0.01,0.034,-0.024,-0.01,0.024,-0.01,-0.039,-0.112,-0.073,-0.093
1.726,-0.024,-0.024,0.0,0.024,-0.015,-0.015,0.024,-0.01,-0.039,-0.107,-0.073,-0.093
1.728,-0.029,-0.015,0.015,0.024,-0.024,0.0,0.024,-0.01,-0.044,-0.102,-0.073,-0.093
1.73,-0.024,-0.01,0.015,0.02,-0.02,0.0,0.024,-0.01,-0.044,-0.102,-0.073,-0.093
1.732,-0.029,-0.02,0.01,0.024,-0.02,-0.005,0.024,-0.02,-0.034,-0.098,-0.078,-0.088
1.734,-0.029,-0.02,0.01,0.024,-0.02,-0.005,0.024,-0.024,-0.039,-0.107,-0.078,-0.088
1.736,-0.029,-0.02,0.01,0.024,-0.02,-0.005,0.029,-0.029,-0.049,-0.112,-0.078,-0.088
1.738,-0.029,-0.02,0.01,0.024,-0.02,-0.005,0.029,-0.029,-0.049,-0.112,-0.078,-0.098
1.74,-0.02,-0.01,0.01,0.015,-0.015,0.0,0.015,-0.034,-0.059,-0.122,-0.093,-0.107
1.742,-0.029,-0.01,0.02,0.02,-0.024,0.005,0.015,-0.039,-0.059,-0.127,-0.093,-0.102
1.744,-0.029,-0.01,0.02,0.02,-0.024,0.005,0.015,-0.039,-0.059,-0.127,-0.093,-0.102
1.746,-0.029,-0.01,0.02,0.02,-0.024,0.005,0.015,-0.034,-0.059,-0.117,-0.093,-0.102
1.748,-0.039,-0.02,0.02,0.029,-0.029,0.0,0.024,-0.02,-0.054,-0.107,-0.083,-0.093
1.75,-0.054,-0.024,0.029,0.039,-0.044,0.0,0.029,-0.02,-0.049,-0.107,-0.078,-0.093
1.752,-0.044,-0.029,0.015,0.039,-0.029,-0.01,0.034,-0.02,-0.044,-0.107,-0.078,-0.093
1.754,-0.044,-0.029,0.015,0.039,-0.029,-0.01,0.029,-0.024,-0.044,-0.112,-0.083,-0.093
1.756,-0.034,-0.02,0.015,0.029,-0.024,-0.005,0.029,-0.034,-0.054,-0.122,-0.083,-0.093
1.758,-0.034,-0.02,0.015,0.029,-0.024,-0.005,0.029,-0.039,-0.054,-0.122,-0.083,-0.093
1.76,-0.034,-0.02,0.015,0.029,-0.024,-0.005,0.029,-0.039,-0.054,-0.122,-0.083,-0.093
1.762,-0.034,-0.02,0.015,0.029,-0.024,-0.005,0.029,-0.044,-0.059,-0.127,-0.088,-0.093
1.764,-0.049,-0.039,0.01,0.044,-0.029,-0.015,0.02,-0.049,-0.068,-0.127,-0.093,-0.102
1.766,-0.068,-0.049,0.02,0.059,-0.044,-0.015,0.024,-0.049,-0.063,-0.127,-0.093,-0.112
1.768,-0.083,-0.054,0.029,0.068,-0.059,-0.015,0.029,-0.049,-0.063,-0.127,-0.093,-0.117
1.77,-0.073,-0.063,0.01,0.068,-0.044,-0.029,0.029,-0.044,-0.068,-0.127,-0.093,-0.117
1.772,-0.054,-0.049,0.005,0.054,-0.029,-0.024,0.02,-0.044,-0.068,-0.132,-0.093,-0.117
1.774,-0.059,-0.044,0.015,0.054,-0.039,-0.015,0.02,-0.049,-0.073,-0.132,-0.102,-0.112
1.776,-0.063,-0.029,0.034,0.049,-0.049,0.0,0.02,-0.049,-0.073,-0.132,-0.093,-0.107
1.778,-0.049,-0.024,0.024,0.039,-0.039,0.0,0.02,-0.054,-0.073,-0.132,-0.093,-0.107
1.78,-0.044,-0.02,0.024,0.034,-0.034,0.0,0.02,-0.068,-0.078,-0.137,-0.107,-0.117
1.782,-0.039,-0.02,0.02,0.029,-0.029,0.0,0.02,-0.068,-0.073,-0.137,-0.107,-0.112
1.784,-0.024,-0.02,0.005,0.024,-0.015,-0.01,0.02,-0.073,-0.073,-0.132,-0.107,-0.112
1.786,-0.02,-0.01,0.01,0.015,-0.015,0.0,0.024,-0.073,-0.078,-0.132,-0.102,-0.112
1.788,-0.044,-0.02,0.024,0.034,-0.034,0.0,0.029,-0.068,-0.083,-0.132,-0.093,-0.122
1.79,-0.044,-0.029,0.015,0.039,-0.029,-0.01,0.029,-0.059,-0.088,-0.132,-0.098,-0.117
1.792,-0.044,-0.02,0.024,0.034,-0.034,0.0,0.024,-0.054,-0.073,-0.127,-0.098,-0.112
1.794,-0.049,-0.02,0.029,0.034,-0.039,0.005,0.024,-0.049,-0.068,-0.127,-0.098,-0.107
1.796,-0.063,-0.024,0.039,0.044,-0.054,0.005,0.034,-0.049,-0.068,-0.127,-0.098,-0.102
1.798,-0.059,-0.024,0.034,0.044,-0.049,0.005,0.034,-0.049,-0.068,-0.127,-0.098,-0.102
1.8,-0.063,-0.029,0.034,0.049,-0.049,0.0,0.034,-0.049,-0.068,-0.127,-0.098,-0.102
1.802,-0.073,-0.044,0.029,0.059,-0.054,-0.01,0.034,-0.044,-0.068,-0.127,-0.093,-0.098
1.804,-0.068,-0.034,0.034,0.054,-0.054,0.0,0.029,-0.049,-0.078,-0.137,-0.102,-0.102
1.806,-0.054,-0.039,0.015,0.049,-0.034,-0.015,0.02,-0.063,-0.078,-0.137,-0.112,-0.107
1.808,-0.059,-0.039,0.02,0.049,-0.039,-0.01,0.015,-0.068,-0.088,-0.137,-0.112,-0.117
1.81,-0.054,-0.029,0.024,0.044,-0.039,-0.005,0.01,-0.063,-0.088,-0.137,-0.112,-0.122
1.812,-0.044,-0.029,0.015,0.039,-0.029,-0.01,0.02,-0.063,-0.078,-0.137,-0.107,-0.117
1.814,-0.044,-0.029,0.015,0.039,-0.029,-0.01,0.01,-0.068,-0.078,-0.146,-0.107,-0.127
1.816,-0.044,-0.029,0.015,0.039,-0.029,-0.01,0.02,-0.068,-0.078,-0.146,-0.102,-0.127
1.818,-0.044,-0.034,0.01,0.039,-0.029,-0.015,0.029,-0.063,-0.068,-0.137,-0.098,-0.122
1.82,-0.039,-0.024,0.015,0.034,-0.029,-0.005,0.034,-0.063,-0.068,-0.127,-0.107,-0.117
1.822,-0.029,-0.02,0.01,0.024,-0.02,-0.005,0.034,-0.063,-0.068,-0.127,-0.107,-0.112
1.824,-0.039,-0.02,0.02,0.029,-0.029,0.0,0.034,-0.063,-0.068,-0.132,-0.107,-0.112
1.826,-0.039,-0.02,0.02,0.029,-0.029,0.0,0.034,-0.063,-0.068,-0.132,-0.107,-0.112
1.828,-0.044,-0.034,0.01,0.039,-0.029,-0.015,0.015,-0.073,-0.088,-0.142,-0.102,-0.112
1.83,-0.059,-0.039,0.02,0.049,-0.039,-0.01,0.01,-0.073,-0.093,-0.146,-0.112,-0.122
1.832,-0.068,-0.039,0.029,0.054,-0.049,-0.005,0.01,-0.073,-0.093,-0.146,-0.112,-0.122
1.834,-0.073,-0.044,0.029,0.059,-0.054,-0.01,0.01,-0.073,-0.083,-0.146,-0.107,-0.122
1.836,-0.059,-0.044,0.015,0.054,-0.039,-0.015,0.005,-0.078,-0.078,-0.151,-0.117,-0.122
1.838,-0.059,-0.049,0.01,0.054,-0.034,-0.02,0.005,-0.078,-0.078,-0.151,-0.117,-0.122
1.84,-0.054,-0.049,0.005,0.054,-0.029,-0.024,0.01,-0.068,-0.083,-0.146,-0.117,-0.122
1.842,-0.044,-0.044,0.0,0.044,-0.024,-0.024,0.015,-0.068,-0.088,-0.142,-0.112,-0.122
1.844,-0.054,-0.044,0.01,0.049,-0.034,-0.02,0.015,-0.073,-0.088,-0.142,-0.112,-0.122
1.846,-0.059,-0.039,0.02,0.049,-0.039,-0.01,0.015,-0.083,-0.088,-0.146,-0.112,-0.117
1.848,-0.059,-0.034,0.024,0.049,-0.044,-0.005,0.015,-0.073,-0.088,-0.146,-0.112,-0.117
1.85,-0.059,-0.034,0.024,0.049,-0.044,-0.005,0.015,-0.068,-0.093,-0.146,-0.112,-0.117
1.852,-0.049,-0.039,0.01,0.044,-0.029,-0.015,0.024,-0.073,-0.088,-0.137,-0.102,-0.107
1.854,-0.059,-0.039,0.02,0.049,-0.039,-0.01,0.024,-0.073,-0.088,-0.137,-0.102,-0.107
1.856,-0.073,-0.049,0.024,0.063,-0.049,-0.015,0.024,-0.063,-0.083,-0.137,-0.098,-0.107
1.858,-0.063,-0.049,0.015,0.059,-0.039,-0.02,0.024,-0.073,-0.078,-0.137,-0.098,-0.102
1.86,-0.063,-0.029,0.034,0.049,-0.049,0.0,0.015,-0.073,-0.083,-0.137,-0.102,-0.107
1.862,-0.059,-0.02,0.039,0.039,-0.049,0.01,0.029,-0.068,-0.078,-0.127,-0.098,-0.107
1.864,-0.059,-0.029,0.029,0.044,-0.044,0.0,0.02,-0.078,-0.088,-0.137,-0.107,-0.117
1.866,-0.059,-0.029,0.029,0.044,-0.044,0.0,0.02,-0.078,-0.088,-0.137,-0.107,-0.117
1.868,-0.059,-0.029,0.029,0.044,-0.044,0.0,0.02,-0.078,-0.088,-0.137,-0.107,-0.117
1.87,-0.059,-0.029,0.029,0.044,-0.044,0.0,0.02,-0.078,-0.088,-0.137,-0.107,-0.117
1.872,-0.059,-0.034,0.024,0.049,-0.044,-0.005,0.02,-0.078,-0.088,-0.146,-0.117,-0.127
1.874,-0.059,-0.039,0.02,0.049,-0.039,-0.01,0.02,-0.078,-0.088,-0.146,-0.117,-0.127
1.876,-0.059,-0.044,0.015,0.054,-0.039,-0.015,0.02,-0.078,-0.088,-0.146,-0.117,-0.127
1.878,-0.059,-0.049,0.01,0.054,-0.034,-0.02,0.02,-0.078,-0.088,-0.146,-0.117,-0.127
1.88,-0.068,-0.049,0.02,0.059,-0.044,-0.015,0.029,-0.068,-0.078,-0.137,-0.107,-0.117
1.882,-0.068,-0.049,0.02,0.059,-0.044,-0.015,0.029,-0.068,-0.078,-0.137,-0.107,-0.117
1.884,-0.068,-0.049,0.02,0.059,-0.044,-0.015,0.029,-0.068,-0.078,-0.137,-0.107,-0.117
1.886,-0.068,-0.049,0.02,0.059,-0.044,-0.015,0.029,-0.068,-0.078,-0.137,-0.107,-0.117
1.888,-0.063,-0.044,0.02,0.054,-0.044,-0.015,0.02,-0.073,-0.083,-0.146,-0.117,-0.117
1.89,-0.059,-0.039,0.02,0.049,-0.039,-0.01,0.02,-0.078,-0.088,-0.146,-0.117,-0.117
1.892,-0.054,-0.034,0.02,0.044,-0.039,-0.01,0.02,-0.083,-0.093,-0.146,-0.117,-0.117
1.894,-0.049,-0.029,0.02,0.039,-0.034,-0.005,0.02,-0.088,-0.098,-0.146,-0.117,-0.117
1.896,-0.049,-0.039,0.01,0.044,-0.029,-0.015,0.029,-0.088,-0.088,-0.137,-0.117,-0.117
1.898,-0.049,-0.039,0.01,0.044,-0.029,-0.015,0.029,-0.088,-0.088,-0.137,-0.117,-0.117
1.9,-0.049,-0.039,0.01,0.044,-0.029,-0.015,0.029,-0.088,-0.088,-0.137,-0.117,-0.117
1.902,-0.049,-0.039,0.01,0.044,-0.029,-0.015,0.029,-0.088,-0.088,-0.137,-0.117,-0.117
1.904,-0.063,-0.049,0.015,0.059,-0.039,-0.02,0.02,-0.088,-0.098,-0.142,-0.127,-0.122
1.906,-0.068,-0.049,0.02,0.059,-0.044,-0.015,0.02,-0.088,-0.098,-0.146,-0.127,-0.127
1.908,-0.073,-0.049,0.024,0.063,-0.049,-0.015,0.02,-0.088,-0.098,-0.151,-0.127,-0.132
1.91,-0.078,-0.049,0.029,0.063,-0.054,-0.01,0.02,-0.088,-0.098,-0.156,-0.127,-0.137
1.912,-0.068,-0.039,0.029,0.054,-0.049,-0.005,0.02,-0.078,-0.088,-0.146,-0.127,-0.127
1.914,-0.068,-0.039,0.029,0.054,-0.049,-0.005,0.02,-0.078,-0.088,-0.146,-0.127,-0.127
1.916,-0.068,-0.039,0.029,0.054,-0.049,-0.005,0.02,-0.078,-0.088,-0.146,-0.127,-0.127
1.918,-0.068,-0.039,0.029,0.054,-0.049,-0.005,0.02,-0.078,-0.088,-0.146,-0.127,-0.127
1.92,-0.068,-0.044,0.024,0.059,-0.049,-0.01,0.01,-0.088,-0.098,-0.156,-0.127,-0.127
1.922,-0.068,-0.049,0.02,0.059,-0.044,-0.015,0.01,-0.088,-0.098,-0.156,-0.127,-0.127
1.924,-0.068,-0.054,0.015,0.063,-0.044,-0.02,0.01,-0.088,-0.098,-0.156,-0.127,-0.127
1.926,-0.068,-0.059,0.01,0.063,-0.039,-0.024,0.01,-0.088,-0.098,-0.156,-0.127,-0.127
1.928,-0.068,-0.059,0.01,0.063,-0.039,-0.024,0.02,-0.088,-0.098,-0.156,-0.127,-0.137
1.93,-0.068,-0.059,0.01,0.063,-0.039,-0.024,0.02,-0.088,-0.098,-0.156,-0.127,-0.137
1.932,-0.068,-0.059,0.01,0.063,-0.039,-0.024,0.02,-0.088,-0.098,-0.156,-0.127,-0.137
1.934,-0.068,-0.059,0.01,0.063,-0.039,-0.024,0.02,-0.088,-0.098,-0.156,-0.127,-0.137
1.936,-0.068,-0.049,0.02,0.059,-0.044,-0.015,0.02,-0.078,-0.088,-0.151,-0.117,-0.132
1.938,-0.068,-0.049,0.02,0.059,-0.044,-0.015,0.02,-0.078,-0.088,-0.146,-0.117,-0.127
1.94,-0.068,-0.049,0.02,0.059,-0.044,-0.015,0.02,-0.078,-0.088,-0.142,-0.117,-0.122
1.942,-0.068,-0.049,0.02,0.059,-0.044,-0.015,0.02,-0.078,-0.088,-0.137,-0.117,-0.117
1.944,-0.063,-0.034,0.029,0.049,-0.049,-0.005,0.029,-0.078,-0.088,-0.137,-0.107,-0.117
1.946,-0.059,-0.029,0.029,0.044,-0.044,0.0,0.029,-0.078,-0.088,-0.137,-0.107,-0.117
1.948,-0.054,-0.024,0.029,0.039,-0.044,0.0,0.029,-0.078,-0.088,-0.137,-0.107,-0.117
1.95,-0.049,-0.02,0.029,0.034,-0.039,0.005,0.029,-0.078,-0.088,-0.137,-0.107,-0.117
1.952,-0.059,-0.034,0.024,0.049,-0.044,-0.005,0.02,-0.083,-0.093,-0.146,-0.117,-0.117
1.954,-0.059,-0.039,0.02,0.049,-0.039,-0.01,0.02,-0.088,-0.098,-0.146,-0.117,-0.117
1.956,-0.059,-0.044,0.015,0.054,-0.039,-0.015,0.02,-0.093,-0.102,-0.146,-0.117,-0.117
1.958,-0.059,-0.049,0.01,0.054,-0.034,-0.02,0.02,-0.098,-0.107,-0.146,-0.117,-0.117
1.96,-0.063,-0.054,0.01,0.059,-0.039,-0.024,0.01,-0.098,-0.107,-0.146,-0.117,-0.127
1.962,-0.068,-0.059,0.01,0.063,-0.039,-0.024,0.01,-0.098,-0.107,-0.146,-0.117,-0.127
1.964,-0.073,-0.063,0.01,0.068,-0.044,-0.029,0.01,-0.098,-0.107,-0.146,-0.117,-0.127
1.966,-0.078,-0.068,0.01,0.073,-0.044,-0.029,0.01,-0.098,-0.107,-0.146,-0.117,-0.127
1.968,-0.073,-0.054,0.02,0.063,-0.049,-0.02,0.02,-0.088,-0.098,-0.137,-0.107,-0.137
1.97,-0.068,-0.049,0.02,0.059,-0.044,-0.015,0.02,-0.088,-0.098,-0.137,-0.107,-0.137
1.972,-0.063,-0.044,0.02,0.054,-0.044,-0.015,0.02,-0.088,-0.098,-0.137,-0.107,-0.137
1.974,-0.059,-0.039,0.02,0.049,-0.039,-0.01,0.02,-0.088,-0.098,-0.137,-0.107,-0.137
1.976,-0.068,-0.039,0.029,0.054,-0.049,-0.005,0.02,-0.098,-0.098,-0.146,-0.117,-0.127
1.978,-0.068,-0.039,0.029,0.054,-0.049,-0.005,0.02,-0.098,-0.098,-0.146,-0.117,-0.127
1.98,-0.068,-0.039,0.029,0.054,-0.049,-0.005,0.02,-0.098,-0.098,-0.146,-0.117,-0.127
1.982,-0.068,-0.039,0.029,0.054,-0.049,-0.005,0.02,-0.098,-0.098,-0.146,-0.117,-0.127
1.984,-0.059,-0.049,0.01,0.054,-0.034,-0.02,0.029,-0.093,-0.093,-0.132,-0.102,-0.122
1.986,-0.059,-0.049,0.01,0.054,-0.034,-0.02,0.029,-0.088,-0.088,-0.127,-0.098,-0.117
1.988,-0.059,-0.049,0.01,0.054,-0.034,-0.02,0.029,-0.083,-0.083,-0.122,-0.093,-0.112
1.99,-0.059,-0.049,0.01,0.054,-0.034,-0.02,0.029,-0.078,-0.078,-0.117,-0.088,-0.107
1.992,-0.073,-0.054,0.02,0.063,-0.049,-0.02,0.02,-0.083,-0.083,-0.132,-0.093,-0.112
1.994,-0.078,-0.059,0.02,0.068,-0.049,-0.02,0.02,-0.088,-0.088,-0.137,-0.098,-0.117
1.996,-0.083,-0.063,0.02,0.073,-0.054,-0.024,0.02,-0.093,-0.093,-0.142,-0.102,-0.122
1.998,-0.088,-0.068,0.02,0.078,-0.054,-0.024,0.02,-0.098,-0.098,-0.146,-0.107,-0.127
2.0,-0.078,-0.054,0.024,0.068,-0.054,-0.015,0.02,-0.088,-0.098,-0.146,-0.117,-0.127
2.002,-0.068,-0.049,0.02,0.059,-0.044,-0.015,0.02,-0.088,-0.098,-0.146,-0.117,-0.127
2.004,-0.059,-0.044,0.015,0.054,-0.039,-0.015,0.02,-0.088,-0.098,-0.146,-0.117,-0.127
2.006,-0.049,-0.039,0.01,0.044,-0.029,-0.015,0.02,-0.088,-0.098,-0.146,-0.117,-0.127
2.008,-0.054,-0.049,0.005,0.054,-0.029,-0.024,0.02,-0.088,-0.088,-0.137,-0.107,-0.127
2.01,-0.059,-0.049,0.01,0.054,-0.034,-0.02,0.02,-0.088,-0.088,-0.137,-0.107,-0.127
2.012,-0.063,-0.049,0.015,0.059,-0.039,-0.02,0.02,-0.088,-0.088,-0.137,-0.107,-0.127
2.014,-0.068,-0.049,0.02,0.059,-0.044,-0.015,0.02,-0.088,-0.088,-0.137,-0.107,-0.127
2.016,-0.068,-0.059,0.01,0.063,-0.039,-0.024,0.01,-0.098,-0.098,-0.146,-0.112,-0.137
2.018,-0.068,-0.059,0.01,0.063,-0.039,-0.024,0.01,-0.098,-0.098,-0.146,-0.117,-0.137
2.02,-0.068,-0.059,0.01,0.063,-0.039,-0.024,0.01,-0.098,-0.098,-0.146,-0.122,-0.137
2.022,-0.068,-0.059,0.01,0.063,-0.039,-0.024,0.01,-0.098,-0.098,-0.146,-0.127,-0.137
2.024,-0.059,-0.049,0.01,0.054,-0.034,-0.02,0.02,-0.098,-0.098,-0.137,-0.122,-0.127
2.026,-0.059,-0.049,0.01,0.054,-0.034,-0.02,0.02,-0.098,-0.098,-0.137,-0.117,-0.127
2.028,-0.059,-0.049,0.01,0.054,-0.034,-0.02,0.02,-0.098,-0.098,-0.137,-0.112,-0.127
2.03,-0.059,-0.049,0.01,0.054,-0.034,-0.02,0.02,-0.098,-0.098,-0.137,-0.107,-0.127
2.032,-0.049,-0.049,0.0,0.049,-0.024,-0.024,0.02,-0.088,-0.088,-0.137,-0.098,-0.117
2.034,-0.049,-0.049,0.0,0.049,-0.024,-0.024,0.02,-0.088,-0.088,-0.137,-0.098,-0.117
2.036,-0.049,-0.049,0.0,0.049,-0.024,-0.024,0.02,-0.088,-0.088,-0.137,-0.098,-0.117
2.038,-0.049,-0.049,0.0,0.049,-0.024,-0.024,0.02,-0.088,-0.088,-0.137,-0.098,-0.117
2.04,-0.059,-0.039,0.02,0.049,-0.039,-0.01,0.02,-0.098,-0.098,-0.137,-0.102,-0.127
2.042,-0.059,-0.039,0.02,0.049,-0.039,-0.01,0.02,-0.098,-0.098,-0.137,-0.107,-0.127
2.044,-0.059,-0.039,0.02,0.049,-0.039,-0.01,0.02,-0.098,-0.098,-0.137,-0.112,-0.127
2.046,-0.059,-0.039,0.02,0.049,-0.039,-0.01,0.02,-0.098,-0.098,-0.137,-0.117,-0.127
2.048,-0.068,-0.044,0.024,0.059,-0.049,-0.01,0.01,-0.098,-0.098,-0.137,-0.117,-0.137
2.05,-0.068,-0.049,0.02,0.059,-0.044,-0.015,0.01,-0.098,-0.098,-0.137,-0.117,-0.137
2.052,-0.068,-0.054,0.015,0.063,-0.044,-0.02,0.01,-0.098,-0.098,-0.137,-0.117,-0.137
2.054,-0.068,-0.059,0.01,0.063,-0.039,-0.024,0.01,-0.098,-0.098,-0.137,-0.117,-0.137
2.056,-0.073,-0.068,0.005,0.073,-0.039,-0.034,0.02,-0.088,-0.098,-0.137,-0.117,-0.127
2.058,-0.078,-0.068,0.01,0.073,-0.044,-0.029,0.02,-0.088,-0.098,-0.137,-0.117,-0.127
2.06,-0.083,-0.068,0.015,0.078,-0.049,-0.029,0.02,-0.088,-0.098,-0.137,-0.117,-0.127
2.062,-0.088,-0.068,0.02,0.078,-0.054,-0.024,0.02,-0.088,-0.098,-0.137,-0.117,-0.127
2.064,-0.078,-0.059,0.02,0.068,-0.049,-0.02,0.029,-0.088,-0.088,-0.127,-0.112,-0.122
2.066,-0.063,-0.054,0.01,0.059,-0.039,-0.024,0.029,-0.098,-0.098,-0.132,-0.117,-0.127
2.068,-0.063,-0.049,0.015,0.059,-0.039,-0.02,0.029,-0.098,-0.098,-0.132,-0.112,-0.122
2.07,-0.063,-0.044,0.02,0.054,-0.044,-0.015,0.029,-0.093,-0.098,-0.127,-0.102,-0.117
2.072,-0.054,-0.049,0.005,0.054,-0.029,-0.024,0.024,-0.093,-0.098,-0.127,-0.112,-0.127
2.074,-0.054,-0.039,0.015,0.049,-0.034,-0.015,0.024,-0.098,-0.098,-0.127,-0.112,-0.127
2.076,-0.063,-0.049,0.015,0.059,-0.039,-0.02,0.024,-0.098,-0.098,-0.127,-0.112,-0.127
2.078,-0.073,-0.049,0.024,0.063,-0.049,-0.015,0.024,-0.098,-0.093,-0.127,-0.112,-0.122
2.08,-0.073,-0.059,0.015,0.068,-0.044,-0.024,0.01,-0.107,-0.102,-0.142,-0.122,-0.132
2.082,-0.073,-0.059,0.015,0.068,-0.044,-0.024,0.01,-0.107,-0.102,-0.142,-0.122,-0.137
2.084,-0.068,-0.054,0.015,0.063,-0.044,-0.02,0.015,-0.107,-0.102,-0.137,-0.117,-0.137
2.086,-0.063,-0.049,0.015,0.059,-0.039,-0.02,0.02,-0.107,-0.102,-0.137,-0.117,-0.132
2.088,-0.073,-0.049,0.024,0.063,-0.049,-0.015,0.02,-0.098,-0.093,-0.127,-0.107,-0.127
2.09,-0.073,-0.049,0.024,0.063,-0.049,-0.015,0.02,-0.083,-0.088,-0.122,-0.102,-0.127
2.092,-0.088,-0.049,0.039,0.068,-0.063,-0.005,0.024,-0.078,-0.088,-0.122,-0.102,-0.127
2.094,-0.088,-0.044,0.044,0.068,-0.068,0.0,0.034,-0.073,-0.083,-0.122,-0.102,-0.127
2.096,-0.073,-0.029,0.044,0.054,-0.059,0.005,0.044,-0.068,-0.063,-0.117,-0.093,-0.117
2.098,-0.073,-0.024,0.049,0.049,-0.063,0.01,0.044,-0.068,-0.059,-0.112,-0.088,-0.112
2.1,-0.068,-0.02,0.049,0.044,-0.059,0.015,0.044,-0.068,-0.059,-0.112,-0.088,-0.112
2.102,-0.068,-0.015,0.054,0.044,-0.063,0.02,0.049,-0.059,-0.049,-0.107,-0.078,-0.102
2.104,-0.054,0.029,0.083,0.015,-0.068,0.054,0.063,-0.044,-0.049,-0.088,-0.063,-0.088
2.106,-0.034,0.044,0.078,-0.005,-0.059,0.059,0.063,-0.044,-0.044,-0.088,-0.063,-0.088
2.108,-0.024,0.049,0.073,-0.01,-0.049,0.059,0.063,-0.049,-0.044,-0.088,-0.063,-0.088
2.11,-0.005,0.054,0.059,-0.024,-0.034,0.054,0.063,-0.049,-0.049,-0.088,-0.063,-0.088
2.112,-0.01,0.039,0.049,-0.015,-0.029,0.044,0.054,-0.059,-0.049,-0.098,-0.073,-0.088
2.114,-0.01,0.034,0.044,-0.01,-0.029,0.039,0.049,-0.059,-0.049,-0.098,-0.073,-0.093
2.116,-0.02,0.029,0.049,-0.005,-0.034,0.039,0.049,-0.059,-0.044,-0.093,-0.068,-0.093
2.118,-0.039,0.024,0.063,0.01,-0.054,0.044,0.054,-0.054,-0.039,-0.093,-0.063,-0.093
2.12,-0.029,0.024,0.054,0.005,-0.044,0.039,0.054,-0.054,-0.049,-0.102,-0.073,-0.102
2.122,-0.034,0.02,0.054,0.01,-0.044,0.034,0.054,-0.049,-0.049,-0.102,-0.073,-0.102
2.124,-0.039,0.015,0.054,0.015,-0.049,0.034,0.054,-0.044,-0.044,-0.102,-0.073,-0.102
2.126,-0.039,0.015,0.054,0.015,-0.049,0.034,0.049,-0.039,-0.044,-0.102,-0.073,-0.102
2.128,-0.044,0.0,0.044,0.024,-0.044,0.02,0.024,-0.039,-0.044,-0.093,-0.063,-0.093
2.13,-0.039,0.0,0.039,0.02,-0.039,0.02,0.01,-0.039,-0.044,-0.088,-0.063,-0.093
2.132,-0.044,0.0,0.044,0.024,-0.044,0.02,0.005,-0.039,-0.044,-0.088,-0.063,-0.093
2.134,-0.049,-0.005,0.044,0.029,-0.049,0.02,-0.005,-0.044,-0.044,-0.083,-0.059,-0.093
2.136,-0.039,-0.005,0.034,0.024,-0.039,0.015,0.0,-0.059,-0.044,-0.073,-0.059,-0.078
2.138,-0.02,0.0,0.02,0.01,-0.02,0.01,-0.01,-0.059,-0.039,-0.073,-0.059,-0.078
2.14,-0.01,0.015,0.024,0.0,-0.02,0.02,-0.01,-0.059,-0.034,-0.073,-0.054,-0.068
2.142,0.0,0.024,0.024,-0.01,-0.015,0.024,-0.015,-0.063,-0.029,-0.068,-0.049,-0.068
2.144,0.005,0.029,0.024,-0.015,-0.01,0.024,-0.02,-0.083,-0.034,-0.078,-0.044,-0.068
2.146,0.01,0.034,0.024,-0.02,-0.01,0.029,-0.029,-0.083,-0.044,-0.073,-0.039,-0.063
2.148,0.01,0.034,0.024,-0.02,-0.01,0.029,-0.029,-0.083,-0.049,-0.073,-0.039,-0.063
2.15,0.02,0.034,0.015,-0.024,0.0,0.024,-0.024,-0.088,-0.059,-0.078,-0.049,-0.063
2.152,0.024,0.034,0.01,-0.029,0.005,0.02,-0.005,-0.078,-0.054,-0.073,-0.044,-0.059
2.154,0.024,0.034,0.01,-0.029,0.005,0.02,0.0,-0.083,-0.059,-0.078,-0.044,-0.059
2.156,0.01,0.034,0.024,-0.02,-0.01,0.029,0.0,-0.083,-0.063,-0.078,-0.049,-0.059
2.158,0.01,0.024,0.015,-0.015,-0.005,0.02,-0.005,-0.088,-0.063,-0.088,-0.049,-0.068
2.16,0.02,0.015,-0.005,-0.015,0.01,0.005,-0.005,-0.093,-0.068,-0.098,-0.068,-0.073
2.162,0.02,0.005,-0.015,-0.01,0.015,-0.005,-0.005,-0.098,-0.083,-0.102,-0.078,-0.078
2.164,0.02,-0.015,-0.034,0.0,0.024,-0.024,-0.01,-0.107,-0.093,-0.112,-0.088,-0.093
2.166,0.015,-0.024,-0.039,0.005,0.024,-0.034,-0.01,-0.107,-0.098,-0.117,-0.093,-0.093
2.168,0.01,-0.029,-0.039,0.01,0.024,-0.034,-0.01,-0.112,-0.107,-0.127,-0.102,-0.102
2.17,0.005,-0.029,-0.034,0.015,0.02,-0.034,-0.015,-0.112,-0.107,-0.127,-0.098,-0.102
2.172,-0.01,-0.029,-0.02,0.02,0.005,-0.024,-0.02,-0.117,-0.112,-0.127,-0.098,-0.102
2.174,-0.015,-0.034,-0.02,0.024,0.0,-0.029,-0.024,-0.122,-0.112,-0.137,-0.107,-0.102
2.176,-0.024,-0.054,-0.029,0.039,0.0,-0.044,-0.015,-0.112,-0.102,-0.137,-0.107,-0.117
2.178,-0.024,-0.068,-0.044,0.049,0.01,-0.059,-0.015,-0.107,-0.098,-0.132,-0.107,-0.117
2.18,-0.024,-0.054,-0.029,0.039,0.0,-0.044,-0.015,-0.107,-0.093,-0.122,-0.093,-0.112
2.182,-0.029,-0.044,-0.015,0.039,-0.01,-0.029,-0.01,-0.098,-0.088,-0.117,-0.093,-0.107
2.184,-0.044,-0.039,0.005,0.044,-0.024,-0.02,0.0,-0.093,-0.088,-0.107,-0.093,-0.098
2.186,-0.068,-0.044,0.024,0.059,-0.049,-0.01,0.0,-0.093,-0.088,-0.112,-0.093,-0.107
2.188,-0.078,-0.049,0.029,0.063,-0.054,-0.01,0.01,-0.093,-0.088,-0.117,-0.098,-0.112
2.19,-0.078,-0.049,0.029,0.063,-0.054,-0.01,0.01,-0.093,-0.093,-0.127,-0.102,-0.122
2.192,-0.059,-0.039,0.02,0.049,-0.039,-0.01,0.01,-0.093,-0.083,-0.122,-0.102,-0.117
2.194,-0.059,-0.049,0.01,0.054,-0.034,-0.02,0.01,-0.093,-0.088,-0.122,-0.112,-0.122
2.196,-0.049,-0.059,-0.01,0.054,-0.02,-0.034,0.02,-0.093,-0.093,-0.127,-0.112,-0.132
2.198,-0.039,-0.063,-0.024,0.054,-0.01,-0.044,0.02,-0.093,-0.098,-0.132,-0.112,-0.137
2.2,-0.054,-0.063,-0.01,0.059,-0.024,-0.039,0.029,-0.112,-0.112,-0.146,-0.117,-0.146
2.202,-0.068,-0.063,0.005,0.068,-0.039,-0.029,0.024,-0.112,-0.112,-0.146,-0.117,-0.146
2.204,-0.073,-0.063,0.01,0.068,-0.044,-0.029,0.02,-0.112,-0.117,-0.146,-0.117,-0.146
2.206,-0.078,-0.068,0.01,0.073,-0.044,-0.029,0.02,-0.117,-0.117,-0.151,-0.117,-0.156
2.208,-0.073,-0.059,0.015,0.068,-0.044,-0.024,0.01,-0.117,-0.127,-0.166,-0.122,-0.156
2.21,-0.073,-0.063,0.01,0.068,-0.044,-0.029,0.01,-0.112,-0.127,-0.166,-0.127,-0.151
2.212,-0.073,-0.063,0.01,0.068,-0.044,-0.029,0.015,-0.112,-0.122,-0.161,-0.132,-0.151
2.214,-0.068,-0.068,0.0,0.068,-0.034,-0.034,0.015,-0.107,-0.122,-0.161,-0.137,-0.151
2.216,-0.078,-0.083,-0.005,0.083,-0.039,-0.044,0.024,-0.107,-0.112,-0.151,-0.127,-0.137
2.218,-0.083,-0.088,-0.005,0.088,-0.039,-0.049,0.024,-0.102,-0.107,-0.146,-0.122,-0.137
2.22,-0.088,-0.088,0.0,0.088,-0.044,-0.044,0.024,-0.102,-0.107,-0.142,-0.122,-0.137
2.222,-0.093,-0.093,0.0,0.093,-0.049,-0.049,0.02,-0.102,-0.107,-0.137,-0.127,-0.142
2.224,-0.107,-0.107,0.0,0.107,-0.054,-0.054,0.01,-0.102,-0.107,-0.137,-0.127,-0.151
2.226,-0.117,-0.107,0.01,0.112,-0.063,-0.049,0.015,-0.102,-0.102,-0.137,-0.122,-0.151
2.228,-0.122,-0.102,0.02,0.112,-0.073,-0.044,0.015,-0.102,-0.102,-0.132,-0.122,-0.151
2.23,-0.117,-0.102,0.015,0.112,-0.068,-0.044,0.015,-0.102,-0.098,-0.132,-0.122,-0.146
2.232,-0.102,-0.088,0.015,0.098,-0.059,-0.039,0.029,-0.088,-0.083,-0.117,-0.107,-0.137
2.234,-0.093,-0.083,0.01,0.088,-0.054,-0.039,0.029,-0.088,-0.083,-0.112,-0.102,-0.132
2.236,-0.078,-0.078,0.0,0.078,-0.039,-0.039,0.024,-0.083,-0.093,-0.112,-0.098,-0.127
2.238,-0.063,-0.068,-0.005,0.068,-0.029,-0.039,0.024,-0.083,-0.083,-0.112,-0.093,-0.122
2.24,-0.083,-0.049,0.034,0.068,-0.059,-0.01,0.034,-0.073,-0.073,-0.107,-0.093,-0.132
2.242,-0.112,-0.059,0.054,0.088,-0.083,-0.005,0.059,-0.054,-0.049,-0.098,-0.093,-0.137
2.244,-0.102,-0.024,0.078,0.063,-0.093,0.024,0.098,0.01,0.015,-0.059,-0.083,-0.137
2.246,-0.083,0.0,0.083,0.044,-0.083,0.039,0.122,0.102,0.098,-0.01,-0.054,-0.127
2.248,-0.054,0.024,0.078,0.015,-0.068,0.049,0.132,0.181,0.181,0.059,-0.015,-0.102
2.25,-0.01,0.049,0.059,-0.02,-0.034,0.054,0.127,0.264,0.259,0.137,0.049,-0.054
2.252,0.02,0.083,0.063,-0.049,-0.024,0.073,0.127,0.376,0.376,0.264,0.156,0.034
2.254,0.078,0.117,0.039,-0.098,0.02,0.078,0.117,0.498,0.522,0.429,0.303,0.151
2.256,0.176,0.166,-0.01,-0.171,0.093,0.078,0.112,0.63,0.708,0.644,0.493,0.312
2.258,0.244,0.254,0.01,-0.249,0.117,0.132,0.107,0.761,0.898,0.898,0.737,0.508
2.26,0.312,0.317,0.005,-0.312,0.151,0.161,0.098,0.849,1.044,1.147,0.966,0.708
2.262,0.405,0.39,-0.015,-0.395,0.21,0.185,0.068,0.83,1.098,1.322,1.181,0.927
2.264,0.488,0.493,0.005,-0.488,0.239,0.249,0.02,0.717,1.035,1.44,1.381,1.152
2.266,0.527,0.595,0.068,-0.561,0.229,0.332,-0.054,0.556,0.942,1.542,1.596,1.381
2.268,0.63,0.693,0.063,-0.659,0.283,0.376,-0.122,0.371,0.834,1.635,1.81,1.615
2.27,0.742,0.791,0.049,-0.766,0.346,0.42,-0.195,0.137,0.659,1.664,1.976,1.806
2.272,0.776,0.869,0.093,-0.82,0.342,0.478,-0.249,-0.063,0.473,1.645,2.05,1.918
2.274,0.815,0.913,0.098,-0.864,0.356,0.503,-0.264,-0.161,0.346,1.571,1.996,1.908
2.276,0.864,0.869,0.005,-0.864,0.429,0.434,-0.268,-0.244,0.229,1.444,1.791,1.728
2.278,0.825,0.703,-0.122,-0.761,0.473,0.288,-0.288,-0.405,0.039,1.186,1.41,1.371
2.28,0.678,0.517,-0.161,-0.595,0.42,0.176,-0.234,-0.566,-0.195,0.815,0.952,0.922
2.282,0.41,0.449,0.039,-0.429,0.185,0.244,-0.093,-0.693,-0.42,0.4,0.551,0.537
2.284,0.171,0.449,0.278,-0.307,-0.054,0.361,-0.015,-0.854,-0.644,0.01,0.224,0.264
2.286,0.034,0.371,0.337,-0.2,-0.151,0.351,-0.044,-1.044,-0.903,-0.405,-0.137,0.02
2.288,-0.029,0.239,0.268,-0.102,-0.151,0.254,-0.073,-1.176,-1.157,-0.815,-0.454,-0.19
2.29,-0.068,0.151,0.22,-0.039,-0.146,0.185,-0.102,-1.244,-1.279,-1.005,-0.6,-0.264
2.292,-0.098,0.107,0.205,-0.005,-0.151,0.156,-0.146,-1.298,-1.337,-1.074,-0.644,-0.298
2.294,-0.146,0.088,0.234,0.029,-0.19,0.161,-0.142,-1.313,-1.318,-1.074,-0.654,-0.337
2.296,-0.19,0.068,0.259,0.063,-0.224,0.161,-0.132,-1.244,-1.23,-0.976,-0.595,-0.317
2.298,-0.21,0.059,0.268,0.078,-0.239,0.161,-0.142,-1.147,-1.127,-0.874,-0.527,-0.283
2.3,-0.224,0.034,0.259,0.098,-0.244,0.146,-0.151,-1.049,-1.039,-0.815,-0.508,-0.283
2.302,-0.205,0.005,0.21,0.102,-0.21,0.107,-0.137,-0.927,-0.922,-0.737,-0.478,-0.293
2.304,-0.176,-0.005,0.171,0.093,-0.176,0.083,-0.117,-0.791,-0.791,-0.644,-0.434,-0.283
2.306,-0.171,-0.005,0.166,0.088,-0.171,0.078,-0.107,-0.664,-0.654,-0.547,-0.381,-0.268
2.308,-0.151,-0.024,0.127,0.088,-0.142,0.049,-0.088,-0.522,-0.517,-0.454,-0.322,-0.244
2.31,-0.117,-0.034,0.083,0.078,-0.102,0.024,-0.063,-0.386,-0.386,-0.361,-0.264,-0.21
2.312,-0.098,-0.02,0.078,0.059,-0.088,0.029,-0.054,-0.278,-0.288,-0.283,-0.215,-0.185
2.314,-0.093,-0.01,0.083,0.054,-0.088,0.034,-0.039,-0.2,-0.21,-0.224,-0.171,-0.161
2.316,-0.112,-0.02,0.093,0.068,-0.102,0.034,-0.015,-0.142,-0.171,-0.171,-0.132,-0.132
2.318,-0.117,-0.029,0.088,0.073,-0.102,0.029,-0.005,-0.127,-0.156,-0.161,-0.117,-0.122
2.32,-0.078,-0.029,0.049,0.054,-0.063,0.01,-0.02,-0.132,-0.166,-0.166,-0.132,-0.142
2.322,-0.015,-0.015,0.0,0.015,-0.01,-0.01,-0.01,-0.122,-0.151,-0.146,-0.127,-0.132
2.324,-0.015,-0.005,0.01,0.01,-0.015,0.0,0.02,-0.088,-0.117,-0.122,-0.098,-0.112
2.326,-0.034,-0.024,0.01,0.029,-0.024,-0.01,0.02,-0.063,-0.093,-0.122,-0.098,-0.107
2.328,-0.034,-0.049,-0.015,0.044,-0.01,-0.034,0.024,-0.039,-0.068,-0.107,-0.098,-0.117
2.33,-0.034,-0.044,-0.01,0.039,-0.015,-0.029,0.044,-0.005,-0.034,-0.088,-0.083,-0.112
2.332,-0.063,-0.049,0.015,0.059,-0.039,-0.02,0.049,0.005,-0.029,-0.078,-0.083,-0.122
2.334,-0.073,-0.059,0.015,0.068,-0.044,-0.024,0.039,-0.005,-0.029,-0.078,-0.088,-0.122
2.336,-0.068,-0.063,0.005,0.068,-0.039,-0.029,0.039,0.005,-0.029,-0.063,-0.078,-0.117
2.338,-0.059,-0.054,0.005,0.059,-0.034,-0.024,0.024,-0.005,-0.034,-0.059,-0.073,-0.112
2.34,-0.049,-0.044,0.005,0.049,-0.029,-0.02,0.024,-0.015,-0.034,-0.059,-0.063,-0.112
2.342,-0.044,-0.039,0.005,0.044,-0.024,-0.02,0.024,-0.005,-0.034,-0.059,-0.054,-0.102
2.344,-0.029,-0.039,-0.01,0.034,-0.01,-0.024,0.029,0.0,-0.029,-0.054,-0.044,-0.088
2.346,-0.02,-0.039,-0.02,0.029,0.0,-0.029,0.034,0.005,-0.02,-0.049,-0.044,-0.088
2.348,-0.029,-0.049,-0.02,0.039,-0.005,-0.034,0.039,0.015,-0.005,-0.044,-0.054,-0.088
2.35,-0.044,-0.063,-0.02,0.054,-0.015,-0.044,0.049,0.024,0.01,-0.039,-0.044,-0.098
2.352,-0.054,-0.059,-0.005,0.059,-0.024,-0.034,0.063,0.044,0.024,-0.015,-0.044,-0.088
2.354,-0.059,-0.049,0.01,0.054,-0.034,-0.02,0.063,0.054,0.029,-0.005,-0.039,-0.088
2.356,-0.044,-0.039,0.005,0.044,-0.024,-0.02,0.068,0.059,0.034,-0.005,-0.034,-0.083
2.358,-0.049,-0.034,0.015,0.044,-0.034,-0.01,0.068,0.059,0.034,0.005,-0.029,-0.078
2.36,-0.039,-0.039,0.0,0.039,-0.02,-0.02,0.059,0.054,0.024,-0.005,-0.029,-0.083
2.362,-0.024,-0.029,-0.005,0.029,-0.01,-0.02,0.049,0.039,0.02,-0.005,-0.024,-0.083
2.364,-0.015,-0.024,-0.01,0.02,-0.005,-0.02,0.044,0.034,0.015,-0.01,-0.024,-0.083
2.366,-0.005,-0.024,-0.02,0.015,0.005,-0.024,0.044,0.034,0.01,-0.01,-0.024,-0.083
2.368,-0.015,-0.024,-0.01,0.02,-0.005,-0.02,0.044,0.044,0.029,-0.015,-0.024,-0.088
2.37,-0.015,-0.024,-0.01,0.02,-0.005,-0.02,0.049,0.049,0.034,-0.01,-0.029,-0.088
2.372,-0.015,-0.034,-0.02,0.024,0.0,-0.029,0.049,0.054,0.039,-0.005,-0.034,-0.088
2.374,-0.024,-0.034,-0.01,0.029,-0.01,-0.024,0.054,0.059,0.044,-0.005,-0.039,-0.088
2.376,-0.015,-0.029,-0.015,0.024,0.0,-0.024,0.049,0.049,0.034,0.0,-0.029,-0.088
2.378,-0.015,-0.029,-0.015,0.024,0.0,-0.024,0.049,0.044,0.034,0.01,-0.029,-0.083
2.38,-0.015,-0.029,-0.015,0.024,0.0,-0.024,0.039,0.034,0.024,0.01,-0.029,-0.083
2.382,-0.015,-0.029,-0.015,0.024,0.0,-0.024,0.039,0.034,0.024,0.01,-0.024,-0.078
2.384,-0.005,-0.015,-0.01,0.01,0.0,-0.015,0.044,0.044,0.039,0.01,-0.024,-0.078
2.386,-0.005,-0.015,-0.01,0.01,0.0,-0.015,0.044,0.049,0.039,0.0,-0.024,-0.078
2.388,-0.005,-0.024,-0.02,0.015,0.005,-0.024,0.049,0.049,0.039,0.01,-0.024,-0.073
2.39,-0.005,-0.024,-0.02,0.015,0.005,-0.024,0.049,0.059,0.049,0.01,-0.024,-0.073
2.392,-0.02,-0.029,-0.01,0.024,-0.005,-0.02,0.059,0.063,0.054,0.024,-0.02,-0.063
2.394,-0.01,-0.029,-0.02,0.02,0.005,-0.024,0.059,0.068,0.059,0.034,-0.02,-0.063
2.396,-0.015,-0.024,-0.01,0.02,-0.005,-0.02,0.059,0.073,0.063,0.039,-0.01,-0.063
2.398,-0.015,-0.024,-0.01,0.02,-0.005,-0.02,0.063,0.073,0.063,0.039,-0.01,-0.063
2.4,-0.02,-0.024,-0.005,0.024,-0.01,-0.015,0.063,0.073,0.073,0.049,-0.005,-0.049
2.402,-0.02,-0.015,0.005,0.02,-0.015,-0.005,0.063,0.073,0.073,0.049,0.0,-0.044
2.404,-0.01,-0.015,-0.005,0.015,-0.005,-0.01,0.063,0.073,0.073,0.054,0.01,-0.039
2.406,-0.01,-0.02,-0.01,0.015,0.0,-0.015,0.059,0.073,0.073,0.054,0.015,-0.039
2.408,-0.01,-0.01,0.0,0.01,-0.005,-0.005,0.054,0.063,0.063,0.054,0.01,-0.039
2.41,-0.005,-0.01,-0.005,0.01,0.0,-0.01,0.049,0.073,0.068,0.049,0.01,-0.044
2.412,0.0,-0.01,-0.01,0.005,0.005,-0.01,0.044,0.073,0.073,0.044,0.005,-0.049
2.414,0.005,-0.01,-0.015,0.005,0.01,-0.015,0.039,0.078,0.078,0.044,0.0,-0.054
2.416,0.0,-0.02,-0.02,0.01,0.01,-0.02,0.039,0.078,0.068,0.044,-0.01,-0.059
2.418,0.0,-0.034,-0.034,0.02,0.015,-0.034,0.034,0.078,0.068,0.044,-0.005,-0.059
2.42,0.0,-0.044,-0.044,0.024,0.02,-0.044,0.029,0.078,0.068,0.044,-0.005,-0.063
2.422,-0.005,-0.059,-0.054,0.034,0.024,-0.059,0.029,0.083,0.068,0.049,0.0,-0.068
2.424,-0.01,-0.039,-0.029,0.024,0.01,-0.034,0.039,0.093,0.083,0.063,0.01,-0.063
2.426,-0.005,-0.029,-0.024,0.02,0.01,-0.029,0.039,0.093,0.083,0.063,0.015,-0.059
2.428,0.01,-0.01,-0.02,0.0,0.015,-0.015,0.039,0.098,0.098,0.073,0.024,-0.044
2.43,0.015,0.0,-0.015,-0.005,0.015,-0.01,0.039,0.102,0.098,0.073,0.024,-0.039
2.432,0.029,0.0,-0.029,-0.015,0.029,-0.015,0.049,0.117,0.098,0.083,0.024,-0.039
2.434,0.044,0.01,-0.034,-0.024,0.039,-0.015,0.049,0.122,0.102,0.083,0.029,-0.034
2.436,0.039,0.01,-0.029,-0.024,0.034,-0.01,0.049,0.122,0.102,0.088,0.044,-0.034
2.438,0.044,0.01,-0.034,-0.024,0.039,-0.015,0.049,0.122,0.107,0.088,0.044,-0.024
2.44,0.054,0.015,-0.039,-0.034,0.044,-0.015,0.049,0.132,0.117,0.088,0.049,-0.01
2.442,0.054,0.005,-0.049,-0.029,0.049,-0.024,0.049,0.127,0.117,0.093,0.049,-0.01
2.444,0.059,0.005,-0.054,-0.029,0.054,-0.024,0.039,0.117,0.117,0.093,0.049,-0.01
2.446,0.059,0.01,-0.049,-0.034,0.054,-0.02,0.039,0.112,0.117,0.093,0.049,-0.005
2.448,0.044,0.0,-0.044,-0.02,0.044,-0.024,0.029,0.132,0.117,0.093,0.044,-0.005
2.45,0.039,0.005,-0.034,-0.02,0.034,-0.015,0.029,0.132,0.117,0.102,0.044,-0.005
2.452,0.039,0.005,-0.034,-0.02,0.034,-0.015,0.029,0.132,0.117,0.102,0.044,-0.005
2.454,0.034,0.005,-0.029,-0.02,0.029,-0.015,0.029,0.132,0.122,0.112,0.049,-0.005
2.456,0.039,0.0,-0.039,-0.02,0.039,-0.02,0.039,0.142,0.142,0.122,0.059,0.005
2.458,0.044,0.0,-0.044,-0.02,0.044,-0.024,0.039,0.151,0.146,0.122,0.059,0.005
2.46,0.054,0.005,-0.049,-0.029,0.049,-0.024,0.034,0.151,0.146,0.127,0.059,0.005
2.462,0.078,0.005,-0.073,-0.039,0.073,-0.034,0.029,0.151,0.151,0.127,0.068,0.01
2.464,0.068,0.0,-0.068,-0.034,0.068,-0.034,0.015,0.142,0.142,0.117,0.059,0.01
2.466,0.063,-0.005,-0.068,-0.029,0.063,-0.039,0.015,0.142,0.146,0.117,0.068,0.01
2.468,0.063,-0.01,-0.073,-0.024,0.068,-0.044,0.015,0.156,0.146,0.127,0.068,0.01
2.47,0.068,-0.005,-0.073,-0.029,0.068,-0.039,0.015,0.156,0.146,0.132,0.068,0.005
2.472,0.093,0.01,-0.083,-0.049,0.088,-0.039,0.01,0.166,0.156,0.142,0.068,0.015
2.474,0.098,0.02,-0.078,-0.059,0.088,-0.029,0.01,0.176,0.156,0.151,0.078,0.024
2.476,0.102,0.029,-0.073,-0.063,0.088,-0.024,0.01,0.176,0.156,0.156,0.083,0.029
2.478,0.107,0.039,-0.068,-0.073,0.088,-0.015,0.01,0.181,0.166,0.166,0.088,0.034
2.48,0.098,0.049,-0.049,-0.073,0.073,0.0,0.01,0.185,0.176,0.185,0.102,0.044
2.482,0.112,0.054,-0.059,-0.083,0.083,-0.005,0.01,0.195,0.185,0.185,0.117,0.054
2.484,0.107,0.078,-0.029,-0.093,0.068,0.024,0.015,0.205,0.195,0.19,0.132,0.073
2.486,0.112,0.083,-0.029,-0.098,0.068,0.024,0.02,0.21,0.21,0.2,0.142,0.088
2.488,0.112,0.068,-0.044,-0.088,0.078,0.01,0.015,0.21,0.21,0.195,0.132,0.083
2.49,0.132,0.063,-0.068,-0.098,0.098,-0.005,0.01,0.21,0.205,0.195,0.127,0.078
2.492,0.132,0.063,-0.068,-0.098,0.098,-0.005,0.005,0.21,0.2,0.195,0.127,0.073
2.494,0.122,0.059,-0.063,-0.088,0.093,-0.005,0.0,0.215,0.195,0.195,0.127,0.068
2.496,0.137,0.063,-0.073,-0.098,0.102,-0.005,-0.015,0.22,0.2,0.2,0.142,0.073
2.498,0.161,0.063,-0.098,-0.112,0.127,-0.02,-0.015,0.229,0.2,0.21,0.142,0.078
2.5,0.166,0.068,-0.098,-0.117,0.132,-0.015,-0.024,0.229,0.2,0.215,0.151,0.083
2.502,0.171,0.073,-0.098,-0.122,0.132,-0.015,-0.024,0.229,0.2,0.215,0.156,0.088
2.504,0.161,0.068,-0.093,-0.112,0.127,-0.015,-0.015,0.249,0.22,0.234,0.171,0.102
2.506,0.161,0.078,-0.083,-0.117,0.122,-0.005,-0.015,0.254,0.224,0.239,0.171,0.117
2.508,0.171,0.078,-0.093,-0.122,0.132,-0.01,-0.024,0.254,0.229,0.244,0.176,0.122
2.51,0.166,0.078,-0.088,-0.122,0.127,-0.005,-0.029,0.259,0.234,0.249,0.181,0.132
2.512,0.181,0.093,-0.088,-0.137,0.132,0.0,-0.029,0.264,0.239,0.259,0.2,0.142
2.514,0.195,0.102,-0.093,-0.146,0.142,0.005,-0.029,0.268,0.244,0.268,0.205,0.151
2.516,0.2,0.112,-0.088,-0.156,0.142,0.01,-0.029,0.273,0.249,0.273,0.215,0.156
2.518,0.215,0.122,-0.093,-0.166,0.151,0.015,-0.029,0.273,0.254,0.278,0.224,0.171
2.52,0.22,0.127,-0.093,-0.171,0.156,0.015,-0.039,0.273,0.254,0.283,0.224,0.171
2.522,0.22,0.132,-0.088,-0.176,0.151,0.02,-0.044,0.278,0.254,0.283,0.229,0.176
2.524,0.22,0.132,-0.088,-0.176,0.151,0.02,-0.049,0.283,0.259,0.283,0.229,0.181
2.526,0.22,0.142,-0.078,-0.181,0.146,0.029,-0.049,0.283,0.259,0.283,0.239,0.185
2.528,0.229,0.151,-0.078,-0.19,0.151,0.034,-0.054,0.283,0.259,0.283,0.234,0.181
2.53,0.239,0.146,-0.093,-0.19,0.166,0.024,-0.059,0.283,0.259,0.293,0.239,0.185
2.532,0.224,0.137,-0.088,-0.181,0.156,0.024,-0.063,0.283,0.259,0.293,0.239,0.195
2.534,0.21,0.132,-0.078,-0.171,0.142,0.024,-0.063,0.283,0.259,0.293,0.244,0.2
2.536,0.205,0.122,-0.083,-0.161,0.142,0.02,-0.078,0.273,0.249,0.283,0.234,0.19
2.538,0.22,0.122,-0.098,-0.171,0.156,0.01,-0.083,0.268,0.244,0.283,0.234,0.19
2.54,0.234,0.132,-0.102,-0.181,0.166,0.015,-0.083,0.264,0.234,0.278,0.239,0.2
2.542,0.249,0.142,-0.107,-0.195,0.176,0.015,-0.083,0.259,0.234,0.278,0.249,0.205
2.544,0.244,0.156,-0.088,-0.2,0.166,0.034,-0.073,0.259,0.244,0.288,0.259,0.21
2.546,0.244,0.161,-0.083,-0.2,0.161,0.039,-0.078,0.259,0.239,0.288,0.259,0.215
2.548,0.254,0.166,-0.088,-0.21,0.171,0.039,-0.078,0.259,0.239,0.288,0.259,0.22
2.55,0.259,0.171,-0.088,-0.215,0.171,0.039,-0.078,0.259,0.239,0.288,0.259,0.229
2.552,0.259,0.156,-0.102,-0.205,0.181,0.024,-0.083,0.254,0.224,0.278,0.249,0.22
2.554,0.259,0.151,-0.107,-0.205,0.181,0.02,-0.083,0.244,0.224,0.273,0.249,0.22
2.556,0.254,0.146,-0.107,-0.2,0.181,0.02,-0.083,0.239,0.22,0.268,0.249,0.224
2.558,0.254,0.142,-0.112,-0.195,0.181,0.015,-0.083,0.234,0.22,0.264,0.249,0.224
2.56,0.264,0.156,-0.107,-0.21,0.185,0.024,-0.073,0.234,0.22,0.264,0.244,0.234
2.562,0.264,0.166,-0.098,-0.215,0.181,0.034,-0.078,0.224,0.215,0.264,0.249,0.234
2.564,0.268,0.185,-0.083,-0.224,0.176,0.049,-0.078,0.22,0.215,0.268,0.254,0.234
2.566,0.268,0.195,-0.073,-0.229,0.171,0.059,-0.078,0.21,0.195,0.268,0.259,0.234
2.568,0.249,0.181,-0.068,-0.215,0.156,0.054,-0.083,0.205,0.185,0.254,0.244,0.22
2.57,0.234,0.161,-0.073,-0.195,0.151,0.044,-0.088,0.195,0.181,0.244,0.234,0.21
2.572,0.22,0.142,-0.078,-0.181,0.146,0.029,-0.098,0.181,0.166,0.234,0.22,0.2
2.574,0.21,0.132,-0.078,-0.171,0.142,0.024,-0.102,0.176,0.166,0.22,0.21,0.195
2.576,0.205,0.127,-0.078,-0.166,0.142,0.024,-0.093,0.171,0.166,0.229,0.205,0.2
2.578,0.2,0.127,-0.073,-0.161,0.137,0.024,-0.088,0.166,0.161,0.224,0.205,0.195
2.58,0.185,0.117,-0.068,-0.151,0.127,0.024,-0.088,0.166,0.156,0.22,0.205,0.19
2.582,0.176,0.112,-0.063,-0.142,0.117,0.024,-0.088,0.161,0.146,0.215,0.21,0.19
2.584,0.185,0.122,-0.063,-0.151,0.122,0.029,-0.073,0.156,0.156,0.215,0.21,0.2
2.586,0.19,0.132,-0.059,-0.161,0.122,0.034,-0.073,0.151,0.151,0.215,0.215,0.2
2.588,0.19,0.137,-0.054,-0.161,0.122,0.039,-0.063,0.137,0.142,0.215,0.215,0.19
2.59,0.176,0.142,-0.034,-0.156,0.102,0.054,-0.059,0.132,0.142,0.21,0.205,0.19
2.592,0.171,0.137,-0.034,-0.151,0.102,0.049,-0.054,0.137,0.146,0.205,0.215,0.185
2.594,0.181,0.132,-0.049,-0.156,0.112,0.039,-0.054,0.137,0.132,0.2,0.2,0.176
2.596,0.181,0.122,-0.059,-0.151,0.117,0.029,-0.054,0.122,0.132,0.195,0.2,0.166
2.598,0.161,0.122,-0.039,-0.142,0.098,0.039,-0.044,0.122,0.132,0.19,0.19,0.161
2.6,0.132,0.112,-0.02,-0.122,0.073,0.044,-0.054,0.107,0.127,0.185,0.171,0.142
2.602,0.117,0.093,-0.024,-0.102,0.068,0.034,-0.054,0.083,0.107,0.176,0.161,0.127
2.604,0.107,0.078,-0.029,-0.093,0.068,0.024,-0.044,0.068,0.093,0.161,0.151,0.117
2.606,0.093,0.068,-0.024,-0.078,0.059,0.02,-0.039,0.063,0.078,0.146,0.132,0.102
2.608,0.098,0.073,-0.024,-0.083,0.059,0.024,-0.024,0.068,0.078,0.142,0.127,0.088
2.61,0.083,0.063,-0.02,-0.073,0.049,0.02,-0.024,0.068,0.073,0.137,0.117,0.073
2.612,0.073,0.054,-0.02,-0.063,0.044,0.015,-0.015,0.068,0.073,0.127,0.112,0.073
2.614,0.063,0.044,-0.02,-0.054,0.039,0.01,-0.015,0.063,0.073,0.117,0.102,0.063
2.616,0.063,0.034,-0.029,-0.049,0.044,0.0,-0.015,0.049,0.068,0.107,0.093,0.059
2.618,0.063,0.044,-0.02,-0.054,0.039,0.01,-0.02,0.044,0.063,0.107,0.093,0.054
2.62,0.059,0.044,-0.015,-0.049,0.034,0.015,-0.015,0.034,0.059,0.098,0.083,0.044
2.622,0.039,0.029,-0.01,-0.034,0.024,0.01,-0.02,0.029,0.049,0.088,0.068,0.029
2.624,0.015,0.005,-0.01,-0.01,0.01,-0.005,-0.015,0.029,0.039,0.078,0.054,0.015
2.626,0.029,0.024,-0.005,-0.024,0.015,0.01,-0.015,0.02,0.034,0.073,0.049,0.005
2.628,0.024,0.024,0.0,-0.024,0.01,0.01,0.0,0.02,0.029,0.073,0.049,0.005
2.63,0.005,0.02,0.015,-0.01,-0.005,0.015,0.005,0.015,0.029,0.068,0.044,0.0
2.632,0.005,0.015,0.01,-0.01,-0.005,0.01,0.005,0.01,0.015,0.054,0.02,-0.01
2.634,0.015,0.005,-0.01,-0.01,0.01,-0.005,0.005,0.01,0.015,0.044,0.015,-0.02
2.636,0.015,0.005,-0.01,-0.01,0.01,-0.005,0.005,0.01,0.015,0.039,0.015,-0.02
2.638,0.015,0.005,-0.01,-0.01,0.01,-0.005,0.005,0.005,0.01,0.029,0.0,-0.029
2.64,0.005,-0.01,-0.015,0.005,0.01,-0.015,0.0,-0.015,0.0,0.02,0.0,-0.059
2.642,-0.005,-0.015,-0.01,0.01,0.0,-0.015,0.0,-0.015,0.0,0.015,-0.01,-0.063
2.644,-0.02,-0.015,0.005,0.02,-0.015,-0.005,0.005,-0.015,0.0,0.015,-0.01,-0.063
2.646,-0.034,-0.015,0.02,0.024,-0.029,0.0,0.005,-0.024,-0.005,0.015,-0.015,-0.068
2.648,-0.029,-0.02,0.01,0.024,-0.02,-0.005,0.01,-0.024,-0.01,0.015,-0.024,-0.073
2.65,-0.015,-0.02,-0.005,0.02,-0.005,-0.015,0.02,-0.024,-0.01,0.0,-0.029,-0.078
2.652,-0.02,-0.034,-0.015,0.029,-0.005,-0.024,0.02,-0.024,-0.01,0.0,-0.034,-0.078
2.654,-0.029,-0.039,-0.01,0.034,-0.01,-0.024,0.02,-0.024,-0.015,0.0,-0.034,-0.083
2.656,-0.01,-0.034,-0.024,0.024,0.005,-0.029,0.02,-0.024,-0.024,-0.005,-0.039,-0.088
2.658,0.0,-0.034,-0.034,0.02,0.015,-0.034,0.02,-0.034,-0.024,-0.005,-0.044,-0.093
2.66,-0.015,-0.034,-0.02,0.024,0.0,-0.029,0.02,-0.034,-0.024,-0.01,-0.044,-0.098
2.662,-0.024,-0.039,-0.015,0.034,-0.005,-0.029,0.02,-0.034,-0.024,-0.015,-0.044,-0.098
2.664,-0.039,-0.044,-0.005,0.044,-0.02,-0.024,0.02,-0.024,-0.015,-0.01,-0.039,-0.102
2.666,-0.044,-0.044,0.0,0.044,-0.024,-0.024,0.02,-0.024,-0.024,-0.015,-0.039,-0.098
2.668,-0.049,-0.049,0.0,0.049,-0.024,-0.024,0.02,-0.024,-0.029,-0.015,-0.039,-0.093
2.67,-0.054,-0.054,0.0,0.054,-0.029,-0.029,0.02,-0.029,-0.029,-0.015,-0.039,-0.088
2.672,-0.054,-0.054,0.0,0.054,-0.029,-0.029,0.024,-0.029,-0.029,-0.015,-0.054,-0.098
2.674,-0.044,-0.049,-0.005,0.049,-0.02,-0.029,0.024,-0.029,-0.029,-0.015,-0.054,-0.093
2.676,-0.044,-0.044,0.0,0.044,-0.024,-0.024,0.024,-0.029,-0.024,-0.015,-0.054,-0.093
2.678,-0.044,-0.044,0.0,0.044,-0.024,-0.024,0.024,-0.029,-0.024,-0.02,-0.059,-0.093
2.68,-0.034,-0.044,-0.01,0.039,-0.015,-0.029,0.024,-0.044,-0.039,-0.01,-0.059,-0.098
2.682,-0.034,-0.039,-0.005,0.039,-0.015,-0.024,0.024,-0.049,-0.039,-0.015,-0.059,-0.107
2.684,-0.044,-0.039,0.005,0.044,-0.024,-0.02,0.024,-0.049,-0.034,-0.024,-0.054,-0.107
2.686,-0.044,-0.044,0.0,0.044,-0.024,-0.024,0.024,-0.049,-0.034,-0.024,-0.054,-0.112
2.688,-0.039,-0.044,-0.005,0.044,-0.02,-0.024,0.024,-0.049,-0.044,-0.029,-0.063,-0.112
2.69,-0.039,-0.044,-0.005,0.044,-0.02,-0.024,0.024,-0.049,-0.044,-0.024,-0.073,-0.112
2.692,-0.029,-0.044,-0.015,0.039,-0.01,-0.029,0.024,-0.039,-0.044,-0.029,-0.078,-0.112
2.694,-0.02,-0.034,-0.015,0.029,-0.005,-0.024,0.024,-0.039,-0.044,-0.034,-0.083,-0.112
2.696,-0.029,-0.044,-0.015,0.039,-0.01,-0.029,0.024,-0.034,-0.034,-0.034,-0.073,-0.112
2.698,-0.034,-0.049,-0.015,0.044,-0.01,-0.034,0.024,-0.034,-0.034,-0.029,-0.073,-0.112
2.7,-0.044,-0.049,-0.005,0.049,-0.02,-0.029,0.024,-0.034,-0.034,-0.029,-0.083,-0.112
2.702,-0.044,-0.049,-0.005,0.049,-0.02,-0.029,0.024,-0.034,-0.034,-0.029,-0.088,-0.112
2.704,-0.034,-0.054,-0.02,0.044,-0.01,-0.039,0.024,-0.034,-0.024,-0.029,-0.078,-0.112
2.706,-0.044,-0.054,-0.01,0.049,-0.02,-0.034,0.029,-0.034,-0.024,-0.029,-0.073,-0.122
2.708,-0.044,-0.054,-0.01,0.049,-0.02,-0.034,0.029,-0.034,-0.024,-0.024,-0.068,-0.122
2.71,-0.039,-0.054,-0.015,0.049,-0.015,-0.034,0.029,-0.034,-0.024,-0.02,-0.068,-0.122
2.712,-0.054,-0.063,-0.01,0.059,-0.024,-0.039,0.029,-0.044,-0.029,-0.029,-0.073,-0.122
2.714,-0.054,-0.068,-0.015,0.063,-0.02,-0.044,0.029,-0.044,-0.034,-0.034,-0.078,-0.122
2.716,-0.088,-0.088,0.0,0.088,-0.044,-0.044,0.029,-0.044,-0.044,-0.034,-0.088,-0.122
2.718,-0.107,-0.093,0.015,0.102,-0.063,-0.039,0.024,-0.049,-0.049,-0.039,-0.093,-0.127
2.72,-0.073,-0.078,-0.005,0.078,-0.034,-0.044,0.024,-0.039,-0.044,-0.029,-0.088,-0.117
2.722,-0.039,-0.059,-0.02,0.049,-0.01,-0.039,0.034,-0.034,-0.034,-0.029,-0.083,-0.117
2.724,-0.02,-0.034,-0.015,0.029,-0.005,-0.024,0.034,-0.034,-0.029,-0.024,-0.078,-0.117
2.726,0.0,-0.039,-0.039,0.02,0.02,-0.039,0.049,-0.034,-0.02,-0.024,-0.073,-0.112
2.728,-0.01,-0.034,-0.024,0.024,0.005,-0.029,0.049,-0.034,-0.029,-0.024,-0.083,-0.107
2.73,-0.024,-0.039,-0.015,0.034,-0.005,-0.029,0.044,-0.029,-0.029,-0.024,-0.083,-0.107
2.732,-0.034,-0.059,-0.024,0.049,-0.005,-0.044,0.039,-0.029,-0.029,-0.024,-0.083,-0.117
2.734,-0.039,-0.063,-0.024,0.054,-0.01,-0.044,0.039,-0.034,-0.029,-0.024,-0.093,-0.127
2.736,-0.044,-0.044,0.0,0.044,-0.024,-0.024,0.049,-0.034,-0.029,-0.029,-0.102,-0.112
2.738,-0.044,-0.029,0.015,0.039,-0.029,-0.01,0.049,-0.02,-0.02,-0.024,-0.098,-0.112
2.74,-0.049,-0.029,0.02,0.039,-0.034,-0.005,0.054,-0.02,-0.02,-0.029,-0.098,-0.112
2.742,-0.063,-0.054,0.01,0.059,-0.039,-0.024,0.054,-0.024,-0.02,-0.039,-0.098,-0.112
2.744,-0.039,-0.049,-0.01,0.044,-0.015,-0.029,0.039,-0.034,-0.024,-0.029,-0.098,-0.122
2.746,-0.015,-0.049,-0.034,0.034,0.01,-0.044,0.034,-0.039,-0.024,-0.029,-0.098,-0.122
2.748,-0.024,-0.054,-0.029,0.039,0.0,-0.044,0.02,-0.039,-0.024,-0.029,-0.098,-0.127
2.75,-0.02,-0.063,-0.044,0.044,0.01,-0.054,0.015,-0.034,-0.024,-0.029,-0.093,-0.127
2.752,-0.029,-0.059,-0.029,0.044,0.0,-0.044,0.029,-0.024,-0.024,-0.02,-0.083,-0.112
2.754,-0.034,-0.049,-0.015,0.044,-0.01,-0.034,0.034,-0.02,-0.02,-0.015,-0.083,-0.107
2.756,-0.034,-0.044,-0.01,0.039,-0.015,-0.029,0.034,-0.02,-0.015,-0.015,-0.083,-0.102
2.758,-0.029,-0.034,-0.005,0.034,-0.015,-0.02,0.029,-0.02,-0.015,-0.015,-0.083,-0.102
2.76,-0.039,-0.034,0.005,0.039,-0.024,-0.015,0.034,-0.02,-0.015,-0.005,-0.073,-0.112
2.762,-0.039,-0.034,0.005,0.039,-0.024,-0.015,0.034,-0.02,-0.005,-0.005,-0.068,-0.112
2.764,-0.039,-0.034,0.005,0.039,-0.024,-0.015,0.034,-0.015,-0.005,-0.005,-0.068,-0.107
2.766,-0.034,-0.029,0.005,0.034,-0.02,-0.015,0.039,-0.015,-0.005,-0.005,-0.063,-0.107
2.768,-0.024,-0.034,-0.01,0.029,-0.01,-0.024,0.029,-0.024,-0.005,-0.005,-0.068,-0.107
2.77,-0.024,-0.044,-0.02,0.034,-0.005,-0.034,0.029,-0.024,0.0,-0.005,-0.073,-0.107
2.772,-0.024,-0.049,-0.024,0.039,0.0,-0.039,0.029,-0.02,0.0,0.0,-0.078,-0.117
2.774,-0.039,-0.054,-0.015,0.049,-0.015,-0.034,0.029,-0.02,-0.015,0.0,-0.088,-0.117
2.776,-0.054,-0.054,0.0,0.054,-0.029,-0.029,0.015,-0.02,-0.02,-0.005,-0.093,-0.122
2.778,-0.059,-0.054,0.005,0.059,-0.034,-0.024,0.015,-0.024,-0.02,-0.005,-0.093,-0.122
2.78,-0.063,-0.054,0.01,0.059,-0.039,-0.024,0.02,-0.024,-0.02,-0.01,-0.088,-0.122
2.782,-0.054,-0.034,0.02,0.044,-0.039,-0.01,0.02,-0.015,0.0,-0.01,-0.083,-0.112
2.784,-0.034,-0.029,0.005,0.034,-0.02,-0.015,0.024,-0.005,0.005,-0.005,-0.073,-0.107
2.786,-0.024,-0.034,-0.01,0.029,-0.01,-0.024,0.034,-0.005,0.005,0.0,-0.073,-0.102
2.788,-0.024,-0.029,-0.005,0.029,-0.01,-0.02,0.039,-0.005,0.005,0.0,-0.073,-0.093
2.79,-0.015,-0.024,-0.01,0.02,-0.005,-0.02,0.044,-0.005,0.0,0.005,-0.068,-0.088
2.792,-0.015,-0.034,-0.02,0.024,0.0,-0.029,0.034,-0.02,-0.005,-0.005,-0.078,-0.093
2.794,-0.02,-0.039,-0.02,0.029,0.0,-0.029,0.034,-0.02,-0.01,-0.005,-0.088,-0.102
2.796,-0.024,-0.039,-0.015,0.034,-0.005,-0.029,0.039,-0.015,-0.01,-0.005,-0.088,-0.112
2.798,-0.029,-0.039,-0.01,0.034,-0.01,-0.024,0.039,-0.015,-0.01,0.0,-0.083,-0.117
2.8,-0.034,-0.029,0.005,0.034,-0.02,-0.015,0.049,-0.015,0.0,0.01,-0.073,-0.107
2.802,-0.044,-0.034,0.01,0.039,-0.029,-0.015,0.054,-0.01,0.005,0.01,-0.068,-0.098
2.804,-0.054,-0.034,0.02,0.044,-0.039,-0.01,0.054,-0.01,0.005,0.01,-0.068,-0.098
2.806,-0.044,-0.034,0.01,0.039,-0.029,-0.015,0.054,-0.01,0.0,0.01,-0.068,-0.102
2.808,-0.044,-0.039,0.005,0.044,-0.024,-0.02,0.044,-0.024,0.0,-0.005,-0.073,-0.102
2.81,-0.054,-0.044,0.01,0.049,-0.034,-0.02,0.039,-0.024,-0.005,-0.005,-0.078,-0.107
2.812,-0.044,-0.049,-0.005,0.049,-0.02,-0.029,0.034,-0.029,-0.01,-0.005,-0.078,-0.107
2.814,-0.039,-0.049,-0.01,0.044,-0.015,-0.029,0.029,-0.029,-0.01,-0.005,-0.078,-0.107
2.816,-0.029,-0.044,-0.015,0.039,-0.01,-0.029,0.039,-0.02,-0.005,0.005,-0.068,-0.098
2.818,-0.034,-0.049,-0.015,0.044,-0.01,-0.034,0.039,-0.02,-0.005,0.005,-0.068,-0.093
2.82,-0.034,-0.044,-0.01,0.039,-0.015,-0.029,0.044,-0.024,-0.01,0.005,-0.068,-0.093
2.822,-0.024,-0.029,-0.005,0.029,-0.01,-0.02,0.044,-0.024,-0.01,0.005,-0.063,-0.088
2.824,-0.024,-0.034,-0.01,0.029,-0.01,-0.024,0.044,-0.039,-0.01,-0.005,-0.073,-0.088
2.826,-0.029,-0.044,-0.015,0.039,-0.01,-0.029,0.039,-0.044,-0.015,-0.01,-0.073,-0.093
2.828,-0.034,-0.054,-0.02,0.044,-0.01,-0.039,0.039,-0.049,-0.02,-0.01,-0.088,-0.107
2.83,-0.039,-0.063,-0.024,0.054,-0.01,-0.044,0.044,-0.049,-0.02,-0.01,-0.088,-0.112
2.832,-0.039,-0.049,-0.01,0.044,-0.015,-0.029,0.039,-0.029,-0.005,-0.01,-0.083,-0.107
2.834,-0.044,-0.044,0.0,0.044,-0.024,-0.024,0.039,-0.024,-0.005,-0.005,-0.083,-0.107
2.836,-0.039,-0.034,0.005,0.039,-0.024,-0.015,0.039,-0.024,-0.005,-0.005,-0.083,-0.107
2.838,-0.049,-0.024,0.024,0.039,-0.039,0.0,0.039,-0.029,-0.015,-0.005,-0.078,-0.107
2.84,-0.044,-0.029,0.015,0.039,-0.029,-0.01,0.039,-0.029,-0.024,0.0,-0.078,-0.107
2.842,-0.02,-0.029,-0.01,0.024,-0.005,-0.02,0.039,-0.039,-0.034,-0.02,-0.088,-0.107
2.844,-0.034,-0.039,-0.005,0.039,-0.015,-0.024,0.044,-0.039,-0.034,-0.02,-0.088,-0.107
2.846,-0.054,-0.039,0.015,0.049,-0.034,-0.015,0.054,-0.039,-0.024,-0.015,-0.083,-0.117
2.848,-0.044,-0.044,0.0,0.044,-0.024,-0.024,0.044,-0.039,-0.02,-0.015,-0.083,-0.112
2.85,-0.034,-0.044,-0.01,0.039,-0.015,-0.029,0.044,-0.039,-0.02,-0.01,-0.083,-0.112
2.852,-0.044,-0.039,0.005,0.044,-0.024,-0.02,0.044,-0.039,-0.024,-0.005,-0.083,-0.112
2.854,-0.044,-0.039,0.005,0.044,-0.024,-0.02,0.044,-0.039,-0.024,-0.005,-0.083,-0.112
2.856,-0.029,-0.059,-0.029,0.044,0.0,-0.044,0.044,-0.039,-0.024,-0.01,-0.088,-0.107
2.858,-0.029,-0.059,-0.029,0.044,0.0,-0.044,0.044,-0.044,-0.029,-0.02,-0.088,-0.107
2.86,-0.029,-0.059,-0.029,0.044,0.0,-0.044,0.049,-0.049,-0.039,-0.024,-0.088,-0.107
2.862,-0.029,-0.059,-0.029,0.044,0.0,-0.044,0.049,-0.049,-0.039,-0.024,-0.088,-0.117
2.864,-0.029,-0.054,-0.024,0.044,-0.005,-0.039,0.044,-0.044,-0.039,-0.024,-0.093,-0.127
2.866,-0.039,-0.049,-0.01,0.044,-0.015,-0.029,0.044,-0.049,-0.039,-0.029,-0.093,-0.122
2.868,-0.039,-0.044,-0.005,0.044,-0.02,-0.024,0.044,-0.049,-0.039,-0.029,-0.093,-0.122
2.87,-0.039,-0.039,0.0,0.039,-0.02,-0.02,0.044,-0.044,-0.039,-0.02,-0.093,-0.122
2.872,-0.054,-0.054,0.0,0.054,-0.029,-0.029,0.044,-0.049,-0.039,-0.029,-0.102,-0.122
2.874,-0.063,-0.054,0.01,0.059,-0.039,-0.024,0.039,-0.049,-0.039,-0.029,-0.098,-0.122
2.876,-0.049,-0.054,-0.005,0.054,-0.024,-0.029,0.034,-0.049,-0.039,-0.029,-0.098,-0.122
2.878,-0.044,-0.049,-0.005,0.049,-0.02,-0.029,0.02,-0.054,-0.044,-0.034,-0.102,-0.122
2.88,-0.044,-0.049,-0.005,0.049,-0.02,-0.029,0.029,-0.063,-0.044,-0.034,-0.112,-0.132
2.882,-0.044,-0.049,-0.005,0.049,-0.02,-0.029,0.029,-0.068,-0.044,-0.034,-0.112,-0.132
2.884,-0.044,-0.049,-0.005,0.049,-0.02,-0.029,0.029,-0.068,-0.044,-0.034,-0.112,-0.132
2.886,-0.044,-0.049,-0.005,0.049,-0.02,-0.029,0.029,-0.073,-0.049,-0.039,-0.117,-0.132
2.888,-0.054,-0.044,0.01,0.049,-0.034,-0.02,0.039,-0.063,-0.039,-0.034,-0.112,-0.122
2.89,-0.068,-0.049,0.02,0.059,-0.044,-0.015,0.044,-0.059,-0.034,-0.029,-0.102,-0.122
2.892,-0.078,-0.049,0.029,0.063,-0.054,-0.01,0.049,-0.054,-0.034,-0.024,-0.093,-0.117
2.894,-0.063,-0.054,0.01,0.059,-0.039,-0.024,0.049,-0.044,-0.039,-0.02,-0.083,-0.107
2.896,-0.049,-0.063,-0.015,0.059,-0.02,-0.039,0.034,-0.059,-0.044,-0.039,-0.098,-0.122
2.898,-0.059,-0.073,-0.015,0.068,-0.024,-0.044,0.029,-0.068,-0.054,-0.044,-0.112,-0.122
2.9,-0.068,-0.073,-0.005,0.073,-0.034,-0.039,0.024,-0.073,-0.059,-0.049,-0.107,-0.122
