time,I,II,III,aVR,aVL,aVF,V1,V2,V3,V4,V5,V6
0.0,-0.034,-0.098,-0.063,0.068,0.015,-0.083,0.073,0.117,0.044,-0.02,-0.039,-0.039
0.002,-0.039,-0.093,-0.054,0.068,0.005,-0.073,0.078,0.112,0.044,-0.029,-0.044,-0.044
0.004,-0.015,-0.078,-0.063,0.049,0.024,-0.073,0.083,0.112,0.044,-0.034,-0.044,-0.044
0.006,0.0,-0.078,-0.078,0.039,0.039,-0.078,0.078,0.107,0.039,-0.029,-0.049,-0.049
0.008,-0.044,-0.093,-0.049,0.068,0.0,-0.073,0.083,0.112,0.049,-0.015,-0.034,-0.044
0.01,-0.073,-0.073,0.0,0.073,-0.039,-0.039,0.098,0.127,0.073,0.015,-0.015,-0.024
0.012,-0.054,-0.059,-0.005,0.059,-0.024,-0.034,0.102,0.137,0.083,0.029,-0.005,-0.02
0.014,-0.039,-0.063,-0.024,0.054,-0.01,-0.044,0.102,0.132,0.078,0.024,-0.005,-0.02
0.016,-0.024,-0.068,-0.044,0.049,0.01,-0.059,0.088,0.122,0.063,0.005,-0.02,-0.029
0.018,-0.015,-0.059,-0.044,0.039,0.015,-0.054,0.073,0.127,0.063,0.0,-0.024,-0.034
0.02,-0.024,-0.059,-0.034,0.044,0.005,-0.049,0.078,0.151,0.068,-0.01,-0.02,-0.034
0.022,-0.02,-0.059,-0.039,0.039,0.01,-0.049,0.078,0.156,0.078,-0.01,-0.024,-0.034
0.024,-0.02,-0.059,-0.039,0.039,0.01,-0.049,0.078,0.156,0.078,-0.005,-0.024,-0.034
0.026,-0.039,-0.059,-0.02,0.049,-0.01,-0.039,0.088,0.176,0.093,0.015,0.0,-0.015
0.028,-0.029,-0.044,-0.015,0.039,-0.01,-0.029,0.083,0.181,0.107,0.029,0.01,-0.01
0.03,-0.039,-0.054,-0.015,0.049,-0.015,-0.034,0.068,0.156,0.102,0.024,0.0,-0.015
0.032,-0.049,-0.073,-0.024,0.063,-0.015,-0.049,0.068,0.161,0.093,0.02,0.0,-0.015
0.034,-0.068,-0.088,-0.02,0.078,-0.024,-0.054,0.068,0.166,0.102,0.029,0.005,-0.015
0.036,-0.029,-0.073,-0.044,0.054,0.005,-0.059,0.063,0.161,0.093,0.024,0.0,-0.02
0.038,0.01,-0.068,-0.078,0.029,0.044,-0.073,0.044,0.161,0.078,0.015,-0.01,-0.029
0.04,0.02,-0.073,-0.093,0.029,0.054,-0.083,0.039,0.176,0.093,0.02,-0.01,-0.029
0.042,0.0,-0.059,-0.059,0.029,0.029,-0.059,0.059,0.195,0.117,0.034,0.01,-0.01
0.044,-0.005,-0.039,-0.034,0.024,0.015,-0.039,0.073,0.21,0.132,0.054,0.024,0.0
0.046,-0.01,-0.049,-0.039,0.029,0.015,-0.044,0.078,0.224,0.142,0.059,0.029,-0.005
0.048,0.0,-0.044,-0.044,0.024,0.02,-0.044,0.088,0.239,0.161,0.063,0.034,0.005
0.05,0.005,-0.039,-0.044,0.02,0.024,-0.044,0.083,0.224,0.146,0.054,0.024,-0.005
0.052,-0.015,-0.054,-0.039,0.034,0.01,-0.049,0.088,0.234,0.156,0.068,0.029,0.005
0.054,0.005,-0.044,-0.049,0.02,0.024,-0.049,0.078,0.239,0.151,0.068,0.029,-0.005
0.056,0.029,-0.059,-0.088,0.015,0.059,-0.073,0.059,0.22,0.142,0.054,0.015,-0.01
0.058,0.029,-0.059,-0.088,0.015,0.059,-0.073,0.059,0.239,0.156,0.059,0.024,-0.005
0.06,0.015,-0.063,-0.078,0.024,0.044,-0.073,0.068,0.283,0.181,0.078,0.044,0.015
0.062,0.01,-0.059,-0.068,0.024,0.039,-0.063,0.073,0.298,0.2,0.098,0.059,0.029
0.064,0.01,-0.034,-0.044,0.015,0.024,-0.039,0.098,0.322,0.229,0.122,0.083,0.054
0.066,0.015,-0.039,-0.054,0.015,0.034,-0.049,0.088,0.327,0.239,0.117,0.083,0.044
0.068,0.029,-0.054,-0.083,0.015,0.054,-0.068,0.088,0.332,0.239,0.122,0.083,0.039
0.07,0.01,-0.054,-0.063,0.024,0.034,-0.059,0.098,0.337,0.244,0.137,0.088,0.044
0.072,0.0,-0.044,-0.044,0.024,0.02,-0.044,0.098,0.351,0.254,0.146,0.098,0.049
0.074,0.029,-0.02,-0.049,-0.005,0.039,-0.034,0.107,0.376,0.278,0.161,0.117,0.059
0.076,0.039,-0.015,-0.054,-0.01,0.044,-0.034,0.107,0.386,0.283,0.166,0.117,0.068
0.078,0.073,0.01,-0.063,-0.039,0.068,-0.029,0.107,0.405,0.298,0.171,0.127,0.073
0.08,0.107,0.034,-0.073,-0.068,0.088,-0.02,0.117,0.439,0.317,0.195,0.151,0.098
0.082,0.093,0.029,-0.063,-0.059,0.078,-0.02,0.102,0.449,0.342,0.21,0.166,0.107
0.084,0.078,0.024,-0.054,-0.049,0.063,-0.015,0.093,0.464,0.361,0.234,0.181,0.127
0.086,0.073,0.005,-0.068,-0.039,0.068,-0.034,0.068,0.464,0.351,0.22,0.166,0.117
0.088,0.068,-0.02,-0.088,-0.024,0.078,-0.054,0.054,0.459,0.346,0.21,0.166,0.112
0.09,0.083,-0.005,-0.088,-0.039,0.083,-0.049,0.049,0.454,0.356,0.224,0.171,0.117
0.092,0.093,0.01,-0.083,-0.049,0.088,-0.039,0.059,0.478,0.386,0.254,0.195,0.132
0.094,0.117,0.029,-0.088,-0.073,0.102,-0.029,0.054,0.498,0.405,0.278,0.229,0.156
0.096,0.127,0.054,-0.073,-0.088,0.098,-0.01,0.054,0.527,0.429,0.298,0.254,0.181
0.098,0.132,0.078,-0.054,-0.102,0.093,0.01,0.049,0.551,0.454,0.322,0.268,0.205
0.1,0.146,0.083,-0.063,-0.112,0.102,0.01,0.034,0.566,0.459,0.327,0.278,0.215
0.102,0.181,0.083,-0.098,-0.132,0.137,-0.01,0.015,0.561,0.459,0.317,0.273,0.21
0.104,0.195,0.073,-0.122,-0.132,0.156,-0.024,-0.005,0.566,0.464,0.322,0.278,0.21
0.106,0.185,0.088,-0.098,-0.137,0.142,-0.005,0.02,0.6,0.503,0.361,0.307,0.239
0.108,0.176,0.098,-0.078,-0.137,0.127,0.01,0.024,0.61,0.522,0.386,0.327,0.254
0.11,0.19,0.093,-0.098,-0.142,0.142,-0.005,0.02,0.61,0.522,0.386,0.342,0.254
0.112,0.2,0.093,-0.107,-0.146,0.151,-0.01,0.015,0.61,0.532,0.395,0.337,0.259
0.114,0.19,0.107,-0.083,-0.146,0.137,0.01,0.015,0.625,0.537,0.405,0.351,0.268
0.116,0.2,0.112,-0.088,-0.156,0.142,0.01,0.01,0.63,0.547,0.41,0.356,0.283
0.118,0.229,0.117,-0.112,-0.171,0.171,0.0,0.0,0.644,0.556,0.425,0.366,0.298
0.12,0.21,0.112,-0.098,-0.161,0.151,0.005,0.005,0.664,0.576,0.429,0.381,0.307
0.122,0.176,0.107,-0.068,-0.142,0.122,0.02,0.01,0.673,0.581,0.439,0.39,0.317
0.124,0.176,0.122,-0.054,-0.146,0.112,0.034,0.01,0.683,0.605,0.464,0.41,0.332
0.126,0.205,0.142,-0.063,-0.171,0.132,0.039,0.005,0.683,0.605,0.473,0.42,0.342
0.128,0.234,0.166,-0.068,-0.2,0.151,0.049,0.01,0.678,0.61,0.473,0.42,0.342
0.13,0.205,0.151,-0.054,-0.176,0.127,0.049,0.005,0.659,0.6,0.473,0.425,0.337
0.132,0.181,0.137,-0.044,-0.156,0.112,0.044,0.01,0.649,0.6,0.468,0.42,0.337
0.134,0.185,0.132,-0.054,-0.156,0.117,0.039,-0.01,0.62,0.571,0.459,0.41,0.327
0.136,0.176,0.112,-0.063,-0.142,0.117,0.024,-0.029,0.581,0.537,0.439,0.395,0.303
0.138,0.185,0.117,-0.068,-0.151,0.127,0.024,-0.039,0.556,0.522,0.429,0.381,0.288
0.14,0.19,0.137,-0.054,-0.161,0.122,0.039,-0.02,0.556,0.522,0.429,0.376,0.298
0.142,0.185,0.161,-0.024,-0.171,0.102,0.068,-0.005,0.547,0.512,0.41,0.366,0.298
0.144,0.161,0.151,-0.01,-0.156,0.083,0.068,0.01,0.532,0.498,0.386,0.351,0.293
0.146,0.151,0.137,-0.015,-0.142,0.083,0.059,0.01,0.493,0.454,0.351,0.317,0.264
0.148,0.132,0.112,-0.02,-0.122,0.073,0.044,0.01,0.449,0.425,0.337,0.298,0.244
0.15,0.117,0.107,-0.01,-0.112,0.063,0.049,0.0,0.41,0.405,0.332,0.293,0.229
0.152,0.107,0.098,-0.01,-0.102,0.059,0.044,-0.005,0.376,0.366,0.307,0.273,0.22
0.154,0.102,0.088,-0.015,-0.093,0.059,0.034,0.0,0.327,0.322,0.268,0.249,0.19
0.156,0.044,0.063,0.02,-0.054,0.01,0.039,0.02,0.307,0.307,0.249,0.229,0.185
0.158,0.039,0.054,0.015,-0.044,0.01,0.034,0.02,0.283,0.278,0.224,0.205,0.166
0.16,0.068,0.054,-0.015,-0.059,0.039,0.02,0.01,0.254,0.229,0.176,0.161,0.137
0.162,0.068,0.044,-0.024,-0.054,0.044,0.01,0.01,0.215,0.195,0.146,0.146,0.117
0.164,0.068,0.034,-0.034,-0.049,0.049,0.0,0.005,0.185,0.176,0.117,0.117,0.093
0.166,0.02,0.005,-0.015,-0.01,0.015,-0.005,0.01,0.156,0.142,0.098,0.098,0.073
0.168,-0.054,-0.02,0.034,0.039,-0.044,0.005,0.02,0.132,0.117,0.083,0.078,0.063
0.17,-0.078,-0.015,0.063,0.049,-0.073,0.024,0.034,0.107,0.102,0.073,0.073,0.054
0.172,-0.078,-0.01,0.068,0.044,-0.073,0.029,0.049,0.098,0.093,0.068,0.068,0.049
0.174,-0.044,-0.015,0.029,0.029,-0.039,0.005,0.034,0.063,0.068,0.039,0.039,0.029
0.176,0.01,0.0,-0.01,-0.005,0.01,-0.005,0.029,0.049,0.049,0.024,0.024,0.02
0.178,0.01,-0.005,-0.015,0.0,0.01,-0.01,0.024,0.029,0.015,0.0,0.0,0.005
0.18,-0.015,-0.01,0.005,0.015,-0.01,-0.005,0.034,0.024,0.005,-0.005,0.005,0.0
0.182,-0.049,-0.01,0.039,0.029,-0.044,0.015,0.054,0.02,0.005,-0.005,0.01,0.005
0.184,-0.078,-0.034,0.044,0.059,-0.063,0.005,0.049,0.01,0.0,-0.015,-0.005,-0.01
0.186,-0.068,-0.044,0.024,0.059,-0.049,-0.01,0.049,0.0,-0.02,-0.034,-0.024,-0.024
0.188,-0.088,-0.059,0.029,0.073,-0.059,-0.015,0.049,-0.024,-0.039,-0.054,-0.039,-0.039
0.19,-0.083,-0.068,0.015,0.078,-0.049,-0.029,0.039,-0.054,-0.054,-0.063,-0.049,-0.049
0.192,-0.034,-0.049,-0.015,0.044,-0.01,-0.034,0.034,-0.063,-0.068,-0.073,-0.059,-0.054
0.194,-0.029,-0.039,-0.01,0.034,-0.01,-0.024,0.034,-0.068,-0.078,-0.083,-0.059,-0.059
0.196,-0.044,-0.039,0.005,0.044,-0.024,-0.02,0.029,-0.059,-0.073,-0.083,-0.059,-0.049
0.198,-0.054,-0.059,-0.005,0.059,-0.024,-0.034,0.029,-0.068,-0.083,-0.083,-0.063,-0.059
0.2,-0.073,-0.063,0.01,0.068,-0.044,-0.029,0.039,-0.059,-0.083,-0.083,-0.063,-0.063
0.202,-0.073,-0.054,0.02,0.063,-0.049,-0.02,0.039,-0.063,-0.093,-0.088,-0.063,-0.063
0.204,-0.063,-0.063,0.0,0.063,-0.034,-0.034,0.034,-0.078,-0.102,-0.093,-0.073,-0.068
0.206,-0.083,-0.059,0.024,0.073,-0.054,-0.02,0.044,-0.078,-0.088,-0.073,-0.059,-0.063
0.208,-0.073,-0.044,0.029,0.059,-0.054,-0.01,0.044,-0.068,-0.063,-0.059,-0.054,-0.059
0.21,-0.088,-0.054,0.034,0.073,-0.063,-0.01,0.054,-0.059,-0.068,-0.068,-0.063,-0.063
0.212,-0.078,-0.054,0.024,0.068,-0.054,-0.015,0.059,-0.078,-0.098,-0.112,-0.093,-0.068
0.214,-0.063,-0.068,-0.005,0.068,-0.029,-0.039,0.039,-0.102,-0.132,-0.132,-0.107,-0.083
0.216,-0.078,-0.063,0.015,0.073,-0.049,-0.024,0.039,-0.093,-0.112,-0.098,-0.088,-0.073
0.218,-0.083,-0.034,0.049,0.059,-0.068,0.005,0.054,-0.054,-0.068,-0.049,-0.049,-0.044
0.22,-0.059,-0.024,0.034,0.044,-0.049,0.005,0.049,-0.039,-0.063,-0.068,-0.054,-0.044
0.222,-0.044,-0.015,0.029,0.029,-0.039,0.005,0.049,-0.044,-0.078,-0.093,-0.063,-0.049
0.224,-0.049,-0.034,0.015,0.044,-0.034,-0.01,0.049,-0.054,-0.083,-0.112,-0.083,-0.054
0.226,-0.068,-0.068,0.0,0.068,-0.034,-0.034,0.049,-0.073,-0.098,-0.122,-0.093,-0.068
0.228,-0.073,-0.083,-0.01,0.078,-0.034,-0.049,0.044,-0.078,-0.102,-0.117,-0.088,-0.073
0.23,-0.063,-0.073,-0.01,0.068,-0.029,-0.044,0.049,-0.073,-0.088,-0.093,-0.068,-0.063
0.232,-0.054,-0.049,0.005,0.054,-0.029,-0.024,0.073,-0.063,-0.068,-0.073,-0.054,-0.049
0.234,-0.039,-0.024,0.015,0.034,-0.029,-0.005,0.078,-0.063,-0.078,-0.073,-0.049,-0.044
0.236,-0.049,-0.044,0.005,0.049,-0.029,-0.02,0.063,-0.073,-0.093,-0.088,-0.063,-0.054
0.238,-0.063,-0.068,-0.005,0.068,-0.029,-0.039,0.044,-0.093,-0.112,-0.107,-0.083,-0.073
0.24,-0.034,-0.054,-0.02,0.044,-0.01,-0.039,0.029,-0.093,-0.112,-0.107,-0.088,-0.078
0.242,-0.049,-0.039,0.01,0.044,-0.029,-0.015,0.034,-0.093,-0.107,-0.098,-0.078,-0.068
0.244,-0.044,-0.029,0.015,0.039,-0.029,-0.01,0.039,-0.088,-0.102,-0.102,-0.093,-0.078
0.246,-0.063,-0.024,0.039,0.044,-0.054,0.005,0.049,-0.083,-0.093,-0.093,-0.083,-0.073
0.248,-0.083,-0.039,0.044,0.063,-0.063,0.0,0.054,-0.083,-0.088,-0.088,-0.078,-0.073
0.25,-0.107,-0.068,0.039,0.088,-0.073,-0.015,0.049,-0.102,-0.102,-0.093,-0.088,-0.083
0.252,-0.122,-0.068,0.054,0.098,-0.088,-0.01,0.054,-0.083,-0.093,-0.088,-0.083,-0.083
0.254,-0.107,-0.049,0.059,0.078,-0.083,0.005,0.063,-0.088,-0.102,-0.093,-0.083,-0.078
0.256,-0.073,-0.049,0.024,0.063,-0.049,-0.015,0.059,-0.102,-0.107,-0.088,-0.078,-0.068
0.258,-0.054,-0.044,0.01,0.049,-0.034,-0.02,0.059,-0.088,-0.093,-0.068,-0.063,-0.068
0.26,-0.049,-0.044,0.005,0.049,-0.029,-0.02,0.063,-0.073,-0.093,-0.078,-0.073,-0.073
0.262,-0.088,-0.073,0.015,0.083,-0.054,-0.029,0.049,-0.083,-0.112,-0.112,-0.102,-0.083
0.264,-0.112,-0.083,0.029,0.098,-0.073,-0.029,0.063,-0.068,-0.107,-0.117,-0.098,-0.083
0.266,-0.093,-0.073,0.02,0.083,-0.059,-0.029,0.054,-0.073,-0.102,-0.112,-0.102,-0.093
0.268,-0.088,-0.088,0.0,0.088,-0.044,-0.044,0.049,-0.088,-0.117,-0.117,-0.112,-0.098
0.27,-0.049,-0.078,-0.029,0.063,-0.01,-0.054,0.049,-0.093,-0.107,-0.107,-0.098,-0.098
0.272,-0.054,-0.078,-0.024,0.068,-0.015,-0.054,0.049,-0.088,-0.102,-0.102,-0.098,-0.098
0.274,-0.088,-0.088,0.0,0.088,-0.044,-0.044,0.044,-0.088,-0.107,-0.112,-0.098,-0.098
0.276,-0.107,-0.102,0.005,0.107,-0.059,-0.049,0.039,-0.088,-0.117,-0.117,-0.102,-0.102
0.278,-0.107,-0.093,0.015,0.102,-0.063,-0.039,0.039,-0.088,-0.107,-0.112,-0.102,-0.098
0.28,-0.117,-0.083,0.034,0.102,-0.078,-0.024,0.049,-0.068,-0.098,-0.102,-0.093,-0.088
0.282,-0.102,-0.063,0.039,0.083,-0.073,-0.015,0.039,-0.073,-0.107,-0.112,-0.093,-0.083
0.284,-0.063,-0.063,0.0,0.063,-0.034,-0.034,0.029,-0.078,-0.112,-0.117,-0.102,-0.083
0.286,-0.034,-0.059,-0.024,0.049,-0.005,-0.044,0.02,-0.093,-0.117,-0.117,-0.107,-0.093
0.288,-0.044,-0.073,-0.029,0.059,-0.01,-0.054,0.02,-0.093,-0.117,-0.117,-0.112,-0.098
0.29,-0.088,-0.098,-0.01,0.093,-0.039,-0.054,0.01,-0.117,-0.127,-0.137,-0.122,-0.117
0.292,-0.098,-0.107,-0.01,0.102,-0.044,-0.059,0.01,-0.107,-0.122,-0.137,-0.127,-0.117
0.294,-0.093,-0.098,-0.005,0.098,-0.044,-0.054,0.005,-0.102,-0.122,-0.127,-0.117,-0.112
0.296,-0.088,-0.088,0.0,0.088,-0.044,-0.044,0.01,-0.093,-0.102,-0.107,-0.107,-0.102
0.298,-0.068,-0.078,-0.01,0.073,-0.029,-0.044,0.005,-0.098,-0.107,-0.102,-0.098,-0.102
0.3,-0.063,-0.063,0.0,0.063,-0.034,-0.034,0.01,-0.078,-0.098,-0.093,-0.093,-0.093
0.302,-0.049,-0.063,-0.015,0.059,-0.02,-0.039,0.01,-0.083,-0.102,-0.107,-0.102,-0.093
0.304,-0.049,-0.073,-0.024,0.063,-0.015,-0.049,0.005,-0.098,-0.122,-0.127,-0.117,-0.107
0.306,-0.073,-0.063,0.01,0.068,-0.044,-0.029,0.02,-0.088,-0.112,-0.112,-0.107,-0.098
0.308,-0.088,-0.044,0.044,0.068,-0.068,0.0,0.024,-0.073,-0.098,-0.098,-0.093,-0.083
0.31,-0.107,-0.054,0.054,0.083,-0.083,0.0,0.02,-0.088,-0.098,-0.088,-0.088,-0.083
0.312,-0.127,-0.073,0.054,0.102,-0.093,-0.01,0.024,-0.083,-0.093,-0.078,-0.078,-0.078
0.314,-0.088,-0.063,0.024,0.078,-0.059,-0.02,0.034,-0.078,-0.093,-0.088,-0.078,-0.073
0.316,-0.063,-0.054,0.01,0.059,-0.039,-0.024,0.039,-0.078,-0.093,-0.102,-0.093,-0.078
0.318,-0.054,-0.063,-0.01,0.059,-0.024,-0.039,0.024,-0.078,-0.102,-0.102,-0.107,-0.093
0.32,-0.044,-0.059,-0.015,0.054,-0.015,-0.039,0.015,-0.078,-0.102,-0.107,-0.107,-0.098
0.322,-0.063,-0.068,-0.005,0.068,-0.029,-0.039,0.015,-0.078,-0.093,-0.098,-0.098,-0.088
0.324,-0.093,-0.073,0.02,0.083,-0.059,-0.029,0.02,-0.073,-0.088,-0.098,-0.098,-0.088
0.326,-0.088,-0.068,0.02,0.078,-0.054,-0.024,0.015,-0.078,-0.093,-0.088,-0.093,-0.093
0.328,-0.078,-0.073,0.005,0.078,-0.044,-0.034,0.005,-0.088,-0.093,-0.098,-0.093,-0.102
0.33,-0.068,-0.073,-0.005,0.073,-0.034,-0.039,-0.005,-0.093,-0.098,-0.098,-0.098,-0.107
0.332,-0.083,-0.063,0.02,0.073,-0.054,-0.024,0.005,-0.093,-0.093,-0.093,-0.093,-0.102
0.334,-0.083,-0.039,0.044,0.063,-0.063,0.0,0.02,-0.073,-0.073,-0.063,-0.073,-0.083
0.336,-0.078,-0.049,0.029,0.063,-0.054,-0.01,0.02,-0.073,-0.078,-0.073,-0.073,-0.078
0.338,-0.073,-0.059,0.015,0.068,-0.044,-0.024,0.024,-0.073,-0.093,-0.098,-0.093,-0.078
0.34,-0.059,-0.024,0.034,0.044,-0.049,0.005,0.039,-0.059,-0.088,-0.098,-0.083,-0.073
0.342,-0.054,-0.02,0.034,0.039,-0.044,0.005,0.029,-0.068,-0.083,-0.093,-0.088,-0.073
0.344,-0.044,-0.029,0.015,0.039,-0.029,-0.01,0.029,-0.083,-0.083,-0.088,-0.083,-0.078
0.346,-0.044,-0.044,0.0,0.044,-0.024,-0.024,0.039,-0.098,-0.093,-0.093,-0.088,-0.088
0.348,-0.044,-0.049,-0.005,0.049,-0.02,-0.029,0.039,-0.102,-0.093,-0.093,-0.093,-0.093
0.35,-0.029,-0.034,-0.005,0.034,-0.015,-0.02,0.044,-0.093,-0.078,-0.063,-0.078,-0.083
0.352,-0.059,-0.029,0.029,0.044,-0.044,0.0,0.049,-0.083,-0.063,-0.049,-0.063,-0.073
0.354,-0.073,-0.044,0.029,0.059,-0.054,-0.01,0.039,-0.083,-0.068,-0.054,-0.063,-0.078
0.356,-0.063,-0.054,0.01,0.059,-0.039,-0.024,0.02,-0.098,-0.083,-0.068,-0.068,-0.083
0.358,-0.083,-0.044,0.039,0.063,-0.063,-0.005,0.01,-0.088,-0.078,-0.068,-0.068,-0.078
0.36,-0.093,-0.024,0.068,0.059,-0.083,0.02,0.02,-0.073,-0.083,-0.088,-0.078,-0.078
0.362,-0.068,-0.01,0.059,0.039,-0.063,0.024,0.015,-0.088,-0.098,-0.117,-0.102,-0.093
0.364,-0.063,-0.02,0.044,0.044,-0.054,0.01,0.005,-0.107,-0.107,-0.122,-0.117,-0.102
0.366,-0.049,-0.015,0.034,0.034,-0.044,0.01,0.0,-0.107,-0.102,-0.098,-0.107,-0.102
0.368,-0.083,-0.034,0.049,0.059,-0.068,0.005,0.02,-0.093,-0.083,-0.078,-0.093,-0.088
0.37,-0.059,-0.044,0.015,0.054,-0.039,-0.015,0.024,-0.098,-0.093,-0.093,-0.093,-0.088
0.372,-0.054,-0.034,0.02,0.044,-0.039,-0.01,0.024,-0.102,-0.093,-0.102,-0.093,-0.083
0.374,-0.039,-0.034,0.005,0.039,-0.024,-0.015,0.02,-0.107,-0.102,-0.117,-0.102,-0.093
0.376,0.0,-0.015,-0.015,0.01,0.005,-0.015,0.02,-0.102,-0.098,-0.098,-0.088,-0.088
0.378,-0.01,-0.01,0.0,0.01,-0.005,-0.005,0.02,-0.102,-0.093,-0.088,-0.083,-0.088
0.38,-0.059,-0.034,0.024,0.049,-0.044,-0.005,0.005,-0.098,-0.098,-0.093,-0.088,-0.098
0.382,-0.054,-0.029,0.024,0.044,-0.039,-0.005,0.0,-0.088,-0.078,-0.063,-0.073,-0.088
0.384,-0.039,-0.02,0.02,0.029,-0.029,0.0,-0.015,-0.102,-0.078,-0.059,-0.068,-0.088
0.386,-0.059,-0.01,0.049,0.034,-0.054,0.02,-0.01,-0.107,-0.078,-0.054,-0.063,-0.078
0.388,-0.068,-0.005,0.063,0.039,-0.068,0.029,0.005,-0.093,-0.078,-0.068,-0.073,-0.083
0.39,-0.078,-0.015,0.063,0.049,-0.073,0.024,0.005,-0.093,-0.083,-0.088,-0.093,-0.098
0.392,-0.102,-0.024,0.078,0.063,-0.093,0.024,0.015,-0.098,-0.083,-0.083,-0.088,-0.093
0.394,-0.093,-0.024,0.068,0.059,-0.083,0.02,0.015,-0.098,-0.093,-0.093,-0.093,-0.093
0.396,-0.088,-0.049,0.039,0.068,-0.063,-0.005,0.0,-0.102,-0.093,-0.093,-0.102,-0.098
0.398,-0.078,-0.054,0.024,0.068,-0.054,-0.015,-0.01,-0.117,-0.102,-0.088,-0.098,-0.098
0.4,-0.063,-0.034,0.029,0.049,-0.049,-0.005,-0.015,-0.117,-0.102,-0.078,-0.088,-0.093
0.402,-0.063,-0.034,0.029,0.049,-0.049,-0.005,-0.02,-0.112,-0.093,-0.073,-0.088,-0.093
0.404,-0.068,-0.054,0.015,0.063,-0.044,-0.02,-0.02,-0.112,-0.107,-0.112,-0.117,-0.098
0.406,-0.063,-0.044,0.02,0.054,-0.044,-0.015,-0.02,-0.107,-0.112,-0.127,-0.127,-0.107
0.408,-0.049,-0.015,0.034,0.034,-0.044,0.01,-0.015,-0.102,-0.093,-0.107,-0.112,-0.098
0.41,-0.034,-0.015,0.02,0.024,-0.029,0.0,-0.02,-0.107,-0.083,-0.088,-0.098,-0.088
0.412,-0.068,-0.029,0.039,0.049,-0.054,0.005,-0.02,-0.122,-0.093,-0.078,-0.088,-0.088
0.414,-0.083,-0.049,0.034,0.068,-0.059,-0.01,-0.02,-0.117,-0.102,-0.083,-0.083,-0.098
0.416,-0.068,-0.054,0.015,0.063,-0.044,-0.02,-0.029,-0.112,-0.102,-0.083,-0.088,-0.107
0.418,-0.034,-0.039,-0.005,0.039,-0.015,-0.024,-0.029,-0.112,-0.098,-0.078,-0.088,-0.112
0.42,-0.024,-0.024,0.0,0.024,-0.015,-0.015,-0.029,-0.112,-0.102,-0.078,-0.078,-0.107
0.422,-0.054,-0.049,0.005,0.054,-0.029,-0.024,-0.044,-0.122,-0.117,-0.098,-0.093,-0.122
0.424,-0.068,-0.029,0.039,0.049,-0.054,0.005,-0.029,-0.117,-0.112,-0.117,-0.107,-0.117
0.426,-0.049,-0.015,0.034,0.034,-0.044,0.01,-0.024,-0.117,-0.112,-0.107,-0.112,-0.122
0.428,-0.054,-0.044,0.01,0.049,-0.034,-0.02,-0.034,-0.132,-0.122,-0.127,-0.132,-0.132
0.43,-0.044,-0.059,-0.015,0.054,-0.015,-0.039,-0.044,-0.142,-0.137,-0.146,-0.146,-0.137
0.432,-0.068,-0.059,0.01,0.063,-0.039,-0.024,-0.039,-0.137,-0.127,-0.122,-0.127,-0.112
0.434,-0.073,-0.049,0.024,0.063,-0.049,-0.015,-0.049,-0.132,-0.112,-0.098,-0.107,-0.102
0.436,-0.029,-0.024,0.005,0.029,-0.02,-0.01,-0.039,-0.132,-0.117,-0.093,-0.107,-0.107
0.438,-0.029,-0.02,0.01,0.024,-0.02,-0.005,-0.024,-0.112,-0.107,-0.088,-0.098,-0.098
0.44,-0.068,-0.02,0.049,0.044,-0.059,0.015,-0.02,-0.117,-0.112,-0.098,-0.102,-0.102
0.442,-0.049,-0.024,0.024,0.039,-0.039,0.0,-0.02,-0.122,-0.122,-0.122,-0.117,-0.107
0.444,-0.034,-0.029,0.005,0.034,-0.02,-0.015,-0.02,-0.117,-0.112,-0.122,-0.117,-0.112
0.446,-0.039,-0.034,0.005,0.039,-0.024,-0.015,-0.029,-0.112,-0.098,-0.093,-0.102,-0.107
0.448,-0.054,-0.024,0.029,0.039,-0.044,0.0,-0.02,-0.112,-0.093,-0.078,-0.083,-0.098
0.45,-0.044,0.0,0.044,0.024,-0.044,0.02,-0.005,-0.102,-0.083,-0.068,-0.073,-0.083
0.452,-0.024,0.01,0.034,0.01,-0.029,0.02,-0.015,-0.107,-0.093,-0.078,-0.078,-0.088
0.454,-0.024,-0.015,0.01,0.02,-0.02,-0.005,-0.029,-0.127,-0.122,-0.112,-0.098,-0.107
0.456,-0.073,-0.02,0.054,0.049,-0.063,0.015,-0.024,-0.127,-0.117,-0.107,-0.093,-0.102
0.458,-0.078,-0.02,0.059,0.049,-0.068,0.02,-0.024,-0.127,-0.117,-0.098,-0.078,-0.098
0.46,-0.059,-0.01,0.049,0.034,-0.054,0.02,-0.02,-0.132,-0.122,-0.112,-0.098,-0.107
0.462,-0.02,0.01,0.029,0.005,-0.024,0.02,-0.015,-0.122,-0.117,-0.122,-0.117,-0.107
0.464,-0.01,0.015,0.024,0.0,-0.02,0.02,-0.02,-0.127,-0.122,-0.142,-0.137,-0.117
0.466,-0.059,-0.005,0.054,0.034,-0.059,0.024,-0.02,-0.127,-0.122,-0.127,-0.127,-0.122
0.468,-0.098,-0.029,0.068,0.063,-0.083,0.02,-0.005,-0.122,-0.117,-0.107,-0.112,-0.107
0.47,-0.107,-0.054,0.054,0.083,-0.083,0.0,-0.024,-0.151,-0.127,-0.127,-0.127,-0.117
0.472,-0.073,-0.044,0.029,0.059,-0.054,-0.01,-0.024,-0.146,-0.132,-0.127,-0.132,-0.137
0.474,-0.059,-0.054,0.005,0.059,-0.034,-0.024,-0.005,-0.107,-0.112,-0.137,-0.151,-0.151
0.476,-0.063,-0.073,-0.01,0.068,-0.029,-0.044,0.039,-0.044,-0.068,-0.122,-0.161,-0.171
0.478,-0.054,-0.083,-0.029,0.068,-0.015,-0.059,0.068,0.029,-0.024,-0.107,-0.171,-0.195
0.48,-0.059,-0.083,-0.024,0.073,-0.02,-0.054,0.102,0.117,0.049,-0.044,-0.146,-0.205
0.482,-0.059,-0.063,-0.005,0.063,-0.029,-0.034,0.112,0.195,0.146,0.054,-0.083,-0.181
0.484,-0.054,-0.034,0.02,0.044,-0.039,-0.01,0.107,0.234,0.224,0.132,-0.01,-0.127
0.486,-0.029,0.015,0.044,0.01,-0.039,0.029,0.127,0.303,0.322,0.239,0.083,-0.059
0.488,0.02,0.059,0.039,-0.039,-0.01,0.049,0.127,0.425,0.468,0.4,0.215,0.034
0.49,0.073,0.102,0.029,-0.088,0.02,0.063,0.093,0.522,0.6,0.551,0.366,0.142
0.492,0.142,0.171,0.029,-0.156,0.054,0.098,0.054,0.595,0.732,0.708,0.532,0.273
0.494,0.249,0.268,0.02,-0.259,0.112,0.142,-0.02,0.566,0.781,0.8,0.683,0.429
0.496,0.371,0.39,0.02,-0.381,0.176,0.205,-0.142,0.327,0.712,0.854,0.834,0.605
0.498,0.454,0.483,0.029,-0.468,0.21,0.254,-0.303,-0.098,0.503,0.849,0.991,0.81
0.5,0.517,0.561,0.044,-0.537,0.234,0.303,-0.444,-0.493,0.283,0.83,1.127,1.01
0.502,0.59,0.644,0.054,-0.615,0.268,0.346,-0.586,-0.771,0.127,0.815,1.264,1.186
0.504,0.688,0.737,0.049,-0.712,0.317,0.39,-0.678,-0.917,0.068,0.864,1.391,1.342
0.506,0.727,0.844,0.117,-0.786,0.303,0.478,-0.752,-1.049,0.044,0.922,1.498,1.479
0.508,0.678,0.927,0.249,-0.8,0.215,0.586,-0.805,-1.215,-0.068,0.849,1.454,1.503
0.51,0.61,0.883,0.273,-0.747,0.166,0.576,-0.781,-1.342,-0.288,0.581,1.191,1.342
0.512,0.508,0.732,0.224,-0.62,0.142,0.478,-0.717,-1.444,-0.537,0.244,0.844,1.093
0.514,0.356,0.6,0.244,-0.478,0.054,0.42,-0.615,-1.576,-0.834,-0.102,0.488,0.83
0.516,0.181,0.517,0.337,-0.346,-0.078,0.425,-0.508,-1.698,-1.113,-0.42,0.137,0.542
0.518,-0.01,0.444,0.454,-0.215,-0.234,0.449,-0.4,-1.742,-1.288,-0.669,-0.156,0.259
0.52,-0.107,0.371,0.478,-0.132,-0.293,0.425,-0.303,-1.664,-1.293,-0.795,-0.366,0.024
0.522,-0.146,0.268,0.415,-0.059,-0.283,0.342,-0.244,-1.493,-1.176,-0.776,-0.439,-0.112
0.524,-0.161,0.151,0.312,0.005,-0.239,0.229,-0.239,-1.342,-1.064,-0.747,-0.468,-0.19
0.526,-0.127,0.083,0.21,0.024,-0.171,0.146,-0.259,-1.166,-0.927,-0.664,-0.439,-0.215
0.528,-0.073,0.073,0.146,0.0,-0.112,0.107,-0.288,-1.01,-0.786,-0.576,-0.386,-0.21
0.53,-0.044,0.073,0.117,-0.015,-0.083,0.093,-0.317,-0.864,-0.673,-0.508,-0.351,-0.205
0.532,-0.024,0.068,0.093,-0.02,-0.059,0.078,-0.293,-0.703,-0.551,-0.434,-0.303,-0.185
0.534,-0.039,0.068,0.107,-0.015,-0.073,0.088,-0.239,-0.551,-0.429,-0.346,-0.244,-0.161
0.536,-0.063,0.068,0.132,0.0,-0.098,0.098,-0.185,-0.425,-0.327,-0.264,-0.19,-0.137
0.538,-0.063,0.073,0.137,-0.005,-0.102,0.102,-0.151,-0.312,-0.244,-0.181,-0.132,-0.112
0.54,-0.034,0.078,0.112,-0.02,-0.073,0.093,-0.132,-0.234,-0.171,-0.132,-0.107,-0.093
0.542,-0.044,0.063,0.107,-0.01,-0.078,0.083,-0.107,-0.185,-0.132,-0.102,-0.102,-0.083
0.544,-0.063,0.039,0.102,0.015,-0.083,0.068,-0.078,-0.161,-0.117,-0.107,-0.102,-0.102
0.546,-0.034,0.029,0.063,0.005,-0.049,0.044,-0.063,-0.151,-0.112,-0.107,-0.107,-0.107
0.548,-0.029,-0.005,0.024,0.02,-0.029,0.01,-0.063,-0.146,-0.102,-0.098,-0.102,-0.112
0.55,0.015,-0.01,-0.024,0.0,0.02,-0.02,-0.059,-0.146,-0.112,-0.107,-0.117,-0.117
0.552,0.024,0.0,-0.024,-0.01,0.024,-0.015,-0.054,-0.127,-0.093,-0.098,-0.102,-0.102
0.554,-0.024,0.0,0.024,0.015,-0.024,0.01,-0.039,-0.088,-0.063,-0.078,-0.083,-0.083
0.556,-0.049,0.01,0.059,0.02,-0.054,0.034,-0.024,-0.059,-0.044,-0.068,-0.078,-0.078
0.558,-0.044,0.02,0.063,0.015,-0.054,0.039,-0.01,-0.039,-0.039,-0.054,-0.073,-0.083
0.56,-0.049,0.0,0.049,0.024,-0.049,0.024,-0.005,-0.034,-0.029,-0.049,-0.073,-0.093
0.562,-0.029,-0.02,0.01,0.024,-0.02,-0.005,-0.024,-0.034,-0.015,-0.049,-0.088,-0.112
0.564,-0.029,-0.029,0.0,0.029,-0.015,-0.015,-0.039,-0.044,-0.039,-0.073,-0.107,-0.117
0.566,-0.034,-0.039,-0.005,0.039,-0.015,-0.024,-0.039,-0.044,-0.044,-0.088,-0.112,-0.117
0.568,-0.034,-0.029,0.005,0.034,-0.02,-0.015,-0.029,-0.049,-0.039,-0.083,-0.098,-0.122
0.57,-0.049,-0.034,0.015,0.044,-0.034,-0.01,-0.029,-0.063,-0.049,-0.068,-0.093,-0.117
0.572,-0.015,-0.01,0.005,0.015,-0.01,-0.005,-0.024,-0.059,-0.044,-0.039,-0.063,-0.093
0.574,0.034,0.01,-0.024,-0.02,0.029,-0.01,-0.02,-0.049,-0.01,-0.01,-0.039,-0.068
0.576,-0.005,0.005,0.01,0.0,-0.01,0.005,-0.02,-0.034,0.005,0.0,-0.044,-0.068
0.578,0.01,-0.005,-0.015,0.0,0.01,-0.01,-0.029,-0.034,-0.015,-0.029,-0.068,-0.088
0.58,-0.015,-0.015,0.0,0.015,-0.01,-0.01,-0.02,-0.034,-0.039,-0.088,-0.098,-0.098
0.582,-0.039,-0.044,-0.005,0.044,-0.02,-0.024,-0.029,-0.039,-0.044,-0.093,-0.107,-0.102
0.584,-0.015,-0.034,-0.02,0.024,0.0,-0.029,-0.029,-0.039,-0.034,-0.078,-0.093,-0.112
0.586,-0.02,-0.034,-0.015,0.029,-0.005,-0.024,-0.024,-0.044,-0.044,-0.078,-0.098,-0.117
0.588,-0.039,-0.039,0.0,0.039,-0.02,-0.02,-0.02,-0.044,-0.039,-0.073,-0.093,-0.117
0.59,-0.044,-0.029,0.015,0.039,-0.029,-0.01,-0.01,-0.054,-0.044,-0.063,-0.093,-0.122
0.592,-0.059,-0.049,0.01,0.054,-0.034,-0.02,-0.01,-0.049,-0.044,-0.073,-0.093,-0.132
0.594,-0.039,-0.049,-0.01,0.044,-0.015,-0.029,-0.015,-0.039,-0.044,-0.073,-0.098,-0.127
0.596,-0.015,-0.049,-0.034,0.034,0.01,-0.044,-0.024,-0.049,-0.039,-0.063,-0.102,-0.132
0.598,-0.024,-0.059,-0.034,0.044,0.005,-0.049,-0.034,-0.054,-0.049,-0.068,-0.107,-0.137
0.6,-0.02,-0.039,-0.02,0.029,0.0,-0.029,-0.024,-0.024,-0.02,-0.054,-0.093,-0.122
0.602,-0.015,-0.02,-0.005,0.02,-0.005,-0.015,0.0,0.0,0.0,-0.063,-0.083,-0.093
0.604,-0.015,-0.015,0.0,0.015,-0.01,-0.01,0.01,-0.005,-0.015,-0.078,-0.098,-0.098
0.606,-0.01,-0.034,-0.024,0.024,0.005,-0.029,0.01,-0.015,-0.02,-0.083,-0.107,-0.107
0.608,-0.01,-0.054,-0.044,0.034,0.015,-0.049,0.015,-0.024,-0.015,-0.068,-0.098,-0.112
0.61,0.02,-0.044,-0.063,0.015,0.039,-0.054,0.005,-0.029,-0.01,-0.049,-0.083,-0.112
0.612,0.0,-0.049,-0.049,0.024,0.024,-0.049,0.005,-0.034,-0.01,-0.039,-0.073,-0.112
0.614,-0.024,-0.054,-0.029,0.039,0.0,-0.044,0.02,-0.02,-0.015,-0.049,-0.083,-0.122
0.616,-0.02,-0.029,-0.01,0.024,-0.005,-0.02,0.024,-0.005,-0.005,-0.044,-0.078,-0.117
0.618,-0.029,-0.02,0.01,0.024,-0.02,-0.005,0.039,0.02,0.005,-0.039,-0.073,-0.102
0.62,-0.034,-0.034,0.0,0.034,-0.02,-0.02,0.044,0.02,0.005,-0.044,-0.078,-0.098
0.622,-0.02,-0.039,-0.02,0.029,0.0,-0.029,0.044,0.029,0.01,-0.049,-0.083,-0.102
0.624,-0.01,-0.044,-0.034,0.029,0.01,-0.039,0.049,0.024,0.02,-0.039,-0.078,-0.107
0.626,-0.005,-0.039,-0.034,0.024,0.015,-0.039,0.044,0.024,0.024,-0.034,-0.068,-0.098
0.628,-0.015,-0.039,-0.024,0.029,0.005,-0.034,0.049,0.015,0.029,-0.02,-0.063,-0.083
0.63,-0.02,-0.02,0.0,0.02,-0.01,-0.01,0.059,0.024,0.044,-0.01,-0.063,-0.078
0.632,-0.02,-0.024,-0.005,0.024,-0.01,-0.015,0.054,0.024,0.044,0.0,-0.054,-0.078
0.634,-0.034,-0.024,0.01,0.029,-0.024,-0.01,0.054,0.029,0.044,0.0,-0.044,-0.078
0.636,-0.01,-0.015,-0.005,0.015,-0.005,-0.01,0.044,0.029,0.029,-0.015,-0.049,-0.088
0.638,0.01,-0.015,-0.024,0.005,0.015,-0.02,0.039,0.054,0.034,-0.029,-0.054,-0.088
0.64,0.005,-0.024,-0.029,0.01,0.015,-0.029,0.034,0.063,0.054,-0.024,-0.059,-0.088
0.642,0.02,-0.005,-0.024,-0.005,0.02,-0.015,0.029,0.068,0.059,-0.024,-0.063,-0.098
0.644,0.024,0.005,-0.02,-0.015,0.02,-0.01,0.024,0.083,0.068,-0.015,-0.059,-0.098
0.646,0.02,-0.005,-0.024,-0.005,0.02,-0.015,0.01,0.078,0.068,-0.01,-0.054,-0.102
0.648,0.005,-0.02,-0.024,0.01,0.015,-0.024,0.005,0.068,0.063,0.0,-0.054,-0.107
0.65,-0.005,-0.02,-0.015,0.015,0.005,-0.02,0.005,0.083,0.088,0.02,-0.044,-0.098
0.652,-0.005,-0.01,-0.005,0.01,0.0,-0.01,0.005,0.093,0.098,0.029,-0.029,-0.078
0.654,0.024,0.0,-0.024,-0.01,0.024,-0.015,0.02,0.107,0.102,0.029,-0.02,-0.063
0.656,0.015,0.0,-0.015,-0.005,0.015,-0.01,0.005,0.098,0.088,0.005,-0.029,-0.073
0.658,0.024,0.005,-0.02,-0.015,0.02,-0.01,0.0,0.102,0.083,0.005,-0.029,-0.068
0.66,0.034,-0.005,-0.039,-0.015,0.034,-0.024,-0.015,0.112,0.098,0.02,-0.015,-0.054
0.662,0.029,0.0,-0.029,-0.015,0.029,-0.015,-0.01,0.122,0.122,0.034,-0.01,-0.044
0.664,0.039,0.0,-0.039,-0.02,0.039,-0.02,-0.015,0.127,0.117,0.034,-0.02,-0.054
0.666,0.054,-0.015,-0.068,-0.02,0.059,-0.044,-0.029,0.117,0.112,0.029,-0.029,-0.063
0.668,0.024,-0.034,-0.059,0.005,0.039,-0.049,-0.024,0.127,0.132,0.059,-0.01,-0.049
0.67,0.01,-0.029,-0.039,0.01,0.024,-0.034,-0.015,0.142,0.146,0.068,0.01,-0.039
0.672,0.015,-0.02,-0.034,0.005,0.024,-0.029,-0.01,0.151,0.151,0.078,0.02,-0.034
0.674,0.029,0.0,-0.029,-0.015,0.029,-0.015,-0.015,0.166,0.161,0.093,0.029,-0.01
0.676,0.054,0.015,-0.039,-0.034,0.044,-0.015,-0.02,0.171,0.161,0.098,0.034,-0.005
0.678,0.098,0.024,-0.073,-0.059,0.083,-0.024,-0.034,0.176,0.156,0.073,0.015,-0.024
0.68,0.093,0.015,-0.078,-0.054,0.083,-0.034,-0.044,0.176,0.156,0.063,0.01,-0.024
0.682,0.088,0.0,-0.088,-0.044,0.088,-0.044,-0.054,0.185,0.171,0.078,0.015,-0.02
0.684,0.068,-0.015,-0.083,-0.024,0.073,-0.049,-0.054,0.195,0.181,0.093,0.024,-0.015
0.686,0.059,-0.02,-0.078,-0.02,0.068,-0.049,-0.049,0.2,0.185,0.098,0.034,-0.01
0.688,0.088,0.0,-0.088,-0.044,0.088,-0.044,-0.059,0.21,0.215,0.132,0.054,-0.01
0.69,0.083,0.005,-0.078,-0.044,0.078,-0.039,-0.049,0.224,0.224,0.142,0.063,0.005
0.692,0.073,0.005,-0.068,-0.039,0.068,-0.034,-0.039,0.234,0.215,0.122,0.054,0.01
0.694,0.083,0.02,-0.063,-0.049,0.073,-0.024,-0.039,0.254,0.244,0.166,0.078,0.024
0.696,0.098,0.044,-0.054,-0.068,0.073,-0.005,-0.039,0.278,0.264,0.195,0.107,0.039
0.698,0.093,0.024,-0.068,-0.059,0.078,-0.024,-0.049,0.288,0.264,0.181,0.102,0.039
0.7,0.098,0.015,-0.083,-0.054,0.088,-0.034,-0.063,0.278,0.249,0.142,0.078,0.034
0.702,0.107,0.02,-0.088,-0.063,0.098,-0.034,-0.073,0.283,0.259,0.161,0.093,0.039
0.704,0.117,0.044,-0.073,-0.078,0.093,-0.015,-0.059,0.307,0.288,0.19,0.117,0.054
0.706,0.137,0.063,-0.073,-0.098,0.102,-0.005,-0.049,0.322,0.303,0.195,0.127,0.068
0.708,0.112,0.049,-0.063,-0.078,0.088,-0.01,-0.049,0.332,0.317,0.215,0.142,0.083
0.71,0.098,0.044,-0.054,-0.068,0.073,-0.005,-0.049,0.346,0.332,0.224,0.151,0.093
0.712,0.142,0.063,-0.078,-0.102,0.107,-0.01,-0.059,0.356,0.332,0.224,0.156,0.102
0.714,0.176,0.083,-0.093,-0.127,0.132,-0.005,-0.063,0.366,0.351,0.244,0.176,0.122
0.716,0.21,0.112,-0.098,-0.161,0.151,0.005,-0.059,0.4,0.386,0.278,0.21,0.146
0.718,0.205,0.112,-0.093,-0.156,0.146,0.01,-0.068,0.42,0.386,0.293,0.224,0.151
0.72,0.195,0.107,-0.088,-0.151,0.142,0.01,-0.078,0.42,0.395,0.293,0.224,0.151
0.722,0.195,0.112,-0.083,-0.151,0.137,0.015,-0.063,0.444,0.425,0.307,0.234,0.161
0.724,0.195,0.107,-0.088,-0.151,0.142,0.01,-0.059,0.459,0.434,0.307,0.234,0.161
0.726,0.181,0.107,-0.073,-0.142,0.127,0.015,-0.054,0.464,0.449,0.327,0.244,0.176
0.728,0.176,0.122,-0.054,-0.146,0.112,0.034,-0.049,0.473,0.459,0.332,0.259,0.185
0.73,0.19,0.117,-0.073,-0.151,0.132,0.02,-0.049,0.483,0.459,0.337,0.264,0.19
0.732,0.195,0.122,-0.073,-0.156,0.132,0.024,-0.049,0.498,0.473,0.356,0.288,0.2
0.734,0.2,0.132,-0.068,-0.166,0.132,0.029,-0.059,0.508,0.483,0.381,0.303,0.22
0.736,0.215,0.132,-0.083,-0.171,0.146,0.024,-0.063,0.503,0.483,0.381,0.298,0.224
0.738,0.234,0.142,-0.093,-0.185,0.161,0.024,-0.068,0.517,0.503,0.395,0.312,0.229
0.74,0.234,0.132,-0.102,-0.181,0.166,0.015,-0.078,0.537,0.512,0.4,0.312,0.224
0.742,0.239,0.146,-0.093,-0.19,0.166,0.024,-0.073,0.551,0.522,0.405,0.317,0.224
0.744,0.239,0.171,-0.068,-0.205,0.151,0.049,-0.059,0.566,0.532,0.429,0.337,0.234
0.746,0.234,0.161,-0.073,-0.195,0.151,0.044,-0.073,0.547,0.537,0.439,0.346,0.239
0.748,0.259,0.166,-0.093,-0.21,0.176,0.034,-0.068,0.542,0.527,0.41,0.327,0.234
0.75,0.244,0.161,-0.083,-0.2,0.161,0.039,-0.068,0.532,0.508,0.376,0.303,0.229
0.752,0.22,0.151,-0.068,-0.185,0.142,0.039,-0.068,0.522,0.508,0.4,0.322,0.234
0.754,0.176,0.137,-0.039,-0.156,0.107,0.049,-0.073,0.522,0.512,0.42,0.342,0.259
0.756,0.19,0.151,-0.039,-0.171,0.112,0.054,-0.073,0.508,0.508,0.41,0.342,0.264
0.758,0.195,0.156,-0.039,-0.176,0.117,0.059,-0.063,0.503,0.498,0.42,0.346,0.268
0.76,0.19,0.146,-0.044,-0.166,0.117,0.049,-0.068,0.473,0.473,0.41,0.337,0.259
0.762,0.234,0.142,-0.093,-0.185,0.161,0.024,-0.093,0.429,0.434,0.371,0.303,0.224
0.764,0.2,0.156,-0.044,-0.176,0.122,0.054,-0.068,0.429,0.444,0.386,0.307,0.224
0.766,0.151,0.142,-0.01,-0.146,0.078,0.063,-0.059,0.405,0.405,0.346,0.273,0.195
0.768,0.127,0.112,-0.015,-0.117,0.068,0.049,-0.054,0.361,0.361,0.283,0.224,0.171
0.77,0.137,0.112,-0.024,-0.122,0.078,0.044,-0.039,0.327,0.322,0.254,0.195,0.146
0.772,0.161,0.137,-0.024,-0.146,0.093,0.054,-0.024,0.307,0.303,0.254,0.19,0.137
0.774,0.176,0.137,-0.039,-0.156,0.107,0.049,-0.029,0.273,0.278,0.244,0.171,0.122
0.776,0.151,0.112,-0.039,-0.132,0.093,0.034,-0.024,0.244,0.254,0.224,0.151,0.107
0.778,0.117,0.078,-0.039,-0.098,0.078,0.02,-0.039,0.205,0.205,0.181,0.112,0.078
0.78,0.102,0.068,-0.034,-0.083,0.068,0.015,-0.029,0.185,0.176,0.137,0.083,0.049
0.782,0.068,0.054,-0.015,-0.059,0.039,0.02,-0.024,0.161,0.156,0.117,0.068,0.039
0.784,0.02,0.044,0.024,-0.029,-0.005,0.034,-0.01,0.137,0.142,0.102,0.063,0.029
0.786,0.015,0.054,0.039,-0.034,-0.015,0.044,-0.01,0.117,0.122,0.093,0.054,0.029
0.788,0.029,0.059,0.029,-0.044,0.0,0.044,-0.02,0.078,0.098,0.073,0.034,0.015
0.79,0.039,0.054,0.015,-0.044,0.01,0.034,-0.029,0.059,0.063,0.049,0.01,0.0
0.792,0.044,0.044,0.0,-0.044,0.02,0.02,-0.034,0.029,0.034,0.029,-0.005,-0.02
0.794,0.034,0.024,-0.01,-0.029,0.02,0.005,-0.049,0.005,0.02,0.024,-0.01,-0.029
0.796,0.049,0.039,-0.01,-0.044,0.029,0.015,-0.049,-0.015,-0.005,0.015,-0.029,-0.049
0.798,0.034,0.024,-0.01,-0.029,0.02,0.005,-0.044,-0.029,-0.029,-0.024,-0.059,-0.068
0.8,-0.02,0.01,0.029,0.005,-0.024,0.02,-0.024,-0.02,-0.02,-0.034,-0.063,-0.063
0.802,-0.039,-0.005,0.034,0.024,-0.039,0.015,-0.02,-0.034,-0.034,-0.049,-0.078,-0.073
0.804,-0.005,-0.01,-0.005,0.01,0.0,-0.01,-0.024,-0.068,-0.059,-0.068,-0.098,-0.088
0.806,-0.01,-0.02,-0.01,0.015,0.0,-0.015,-0.02,-0.073,-0.054,-0.059,-0.093,-0.083
0.808,-0.005,-0.015,-0.01,0.01,0.0,-0.015,-0.015,-0.088,-0.063,-0.059,-0.088,-0.078
0.81,0.02,-0.005,-0.024,-0.005,0.02,-0.015,-0.02,-0.093,-0.068,-0.063,-0.088,-0.068
0.812,0.015,-0.015,-0.029,0.0,0.02,-0.024,-0.029,-0.098,-0.078,-0.073,-0.093,-0.078
0.814,0.005,-0.034,-0.039,0.015,0.02,-0.039,-0.044,-0.132,-0.107,-0.112,-0.127,-0.098
0.816,0.005,-0.044,-0.049,0.02,0.024,-0.049,-0.049,-0.137,-0.127,-0.132,-0.146,-0.112
0.818,-0.015,-0.044,-0.029,0.029,0.005,-0.039,-0.044,-0.137,-0.127,-0.127,-0.137,-0.112
0.82,-0.059,-0.063,-0.005,0.063,-0.029,-0.034,-0.044,-0.137,-0.122,-0.122,-0.137,-0.117
0.822,-0.088,-0.059,0.029,0.073,-0.059,-0.015,-0.024,-0.122,-0.102,-0.098,-0.117,-0.102
0.824,-0.078,-0.039,0.039,0.059,-0.059,0.0,-0.015,-0.127,-0.093,-0.073,-0.093,-0.093
0.826,-0.054,-0.024,0.029,0.039,-0.044,0.0,-0.02,-0.132,-0.102,-0.073,-0.098,-0.098
0.828,-0.034,-0.015,0.02,0.024,-0.029,0.0,-0.015,-0.142,-0.117,-0.107,-0.122,-0.107
0.83,-0.049,-0.029,0.02,0.039,-0.034,-0.005,-0.005,-0.146,-0.122,-0.122,-0.132,-0.117
0.832,-0.039,-0.024,0.015,0.034,-0.029,-0.005,0.0,-0.127,-0.107,-0.117,-0.127,-0.102
0.834,-0.049,-0.024,0.024,0.039,-0.039,0.0,-0.01,-0.137,-0.117,-0.122,-0.127,-0.098
0.836,-0.063,-0.044,0.02,0.054,-0.044,-0.015,-0.015,-0.146,-0.127,-0.137,-0.137,-0.107
0.838,-0.044,-0.034,0.01,0.039,-0.029,-0.015,-0.02,-0.146,-0.127,-0.127,-0.132,-0.112
0.84,-0.02,-0.015,0.005,0.02,-0.015,-0.005,-0.015,-0.142,-0.122,-0.122,-0.127,-0.117
0.842,-0.02,-0.024,-0.005,0.024,-0.01,-0.015,-0.015,-0.151,-0.127,-0.122,-0.142,-0.122
0.844,-0.015,-0.02,-0.005,0.02,-0.005,-0.015,-0.01,-0.151,-0.127,-0.127,-0.146,-0.132
0.846,-0.024,-0.029,-0.005,0.029,-0.01,-0.02,0.0,-0.151,-0.137,-0.142,-0.156,-0.137
0.848,-0.029,-0.044,-0.015,0.039,-0.01,-0.029,-0.005,-0.166,-0.146,-0.151,-0.166,-0.142
0.85,-0.039,-0.034,0.005,0.039,-0.024,-0.015,0.01,-0.156,-0.132,-0.127,-0.142,-0.132
0.852,-0.068,-0.044,0.024,0.059,-0.049,-0.01,0.02,-0.156,-0.132,-0.117,-0.122,-0.117
0.854,-0.073,-0.039,0.034,0.059,-0.054,-0.005,0.02,-0.151,-0.122,-0.112,-0.122,-0.102
0.856,-0.044,-0.024,0.02,0.034,-0.034,-0.005,0.015,-0.137,-0.112,-0.112,-0.122,-0.098
0.858,-0.044,-0.02,0.024,0.034,-0.034,0.0,0.02,-0.127,-0.112,-0.117,-0.132,-0.098
0.86,-0.059,-0.02,0.039,0.039,-0.049,0.01,0.02,-0.122,-0.107,-0.122,-0.132,-0.098
0.862,-0.063,-0.024,0.039,0.044,-0.054,0.005,0.02,-0.117,-0.107,-0.127,-0.137,-0.102
0.864,-0.039,-0.024,0.015,0.034,-0.029,-0.005,0.02,-0.122,-0.107,-0.122,-0.137,-0.112
0.866,-0.039,-0.029,0.01,0.034,-0.024,-0.01,0.02,-0.127,-0.102,-0.102,-0.132,-0.117
0.868,-0.054,-0.029,0.024,0.044,-0.039,-0.005,0.029,-0.127,-0.098,-0.098,-0.122,-0.117
0.87,-0.073,-0.024,0.049,0.049,-0.063,0.01,0.044,-0.112,-0.088,-0.088,-0.112,-0.107
0.872,-0.044,-0.01,0.034,0.029,-0.039,0.01,0.034,-0.122,-0.098,-0.093,-0.107,-0.112
0.874,-0.005,-0.01,-0.005,0.01,0.0,-0.01,0.015,-0.117,-0.098,-0.098,-0.122,-0.117
0.876,0.01,-0.015,-0.024,0.005,0.015,-0.02,0.015,-0.107,-0.098,-0.112,-0.127,-0.117
0.878,-0.034,-0.039,-0.005,0.039,-0.015,-0.024,0.02,-0.102,-0.102,-0.137,-0.142,-0.117
0.88,-0.054,-0.039,0.015,0.049,-0.034,-0.015,0.015,-0.093,-0.102,-0.132,-0.142,-0.117
0.882,-0.024,-0.02,0.005,0.024,-0.015,-0.01,0.015,-0.093,-0.098,-0.117,-0.122,-0.107
0.884,0.01,-0.02,-0.029,0.005,0.02,-0.024,0.005,-0.102,-0.107,-0.127,-0.137,-0.127
0.886,0.0,-0.02,-0.02,0.01,0.01,-0.02,0.01,-0.102,-0.102,-0.122,-0.137,-0.117
0.888,-0.024,-0.034,-0.01,0.029,-0.01,-0.024,0.0,-0.112,-0.102,-0.117,-0.137,-0.127
0.89,-0.034,-0.049,-0.015,0.044,-0.01,-0.034,-0.015,-0.117,-0.102,-0.112,-0.137,-0.127
0.892,-0.024,-0.044,-0.02,0.034,-0.005,-0.034,-0.029,-0.122,-0.107,-0.122,-0.137,-0.122
0.894,-0.01,-0.044,-0.034,0.029,0.01,-0.039,-0.034,-0.117,-0.112,-0.132,-0.142,-0.117
0.896,-0.01,-0.054,-0.044,0.034,0.015,-0.049,-0.034,-0.112,-0.107,-0.137,-0.146,-0.117
0.898,-0.044,-0.068,-0.024,0.059,-0.01,-0.049,-0.024,-0.098,-0.098,-0.117,-0.137,-0.112
0.9,-0.063,-0.063,0.0,0.063,-0.034,-0.034,-0.01,-0.083,-0.083,-0.112,-0.127,-0.107
0.902,-0.049,-0.029,0.02,0.039,-0.034,-0.005,0.015,-0.059,-0.059,-0.083,-0.102,-0.083
0.904,-0.044,-0.015,0.029,0.029,-0.039,0.005,0.015,-0.059,-0.059,-0.083,-0.098,-0.088
0.906,-0.044,-0.034,0.01,0.039,-0.029,-0.015,0.01,-0.068,-0.063,-0.088,-0.112,-0.107
0.908,-0.049,-0.054,-0.005,0.054,-0.024,-0.029,-0.005,-0.083,-0.073,-0.088,-0.117,-0.112
0.91,-0.059,-0.063,-0.005,0.063,-0.029,-0.034,0.0,-0.088,-0.073,-0.083,-0.112,-0.107
0.912,-0.02,-0.039,-0.02,0.029,0.0,-0.029,0.005,-0.093,-0.083,-0.093,-0.112,-0.102
0.914,-0.024,-0.034,-0.01,0.029,-0.01,-0.024,0.01,-0.083,-0.083,-0.098,-0.112,-0.093
0.916,-0.02,-0.049,-0.029,0.034,0.005,-0.039,0.0,-0.083,-0.078,-0.102,-0.117,-0.098
0.918,0.02,-0.039,-0.059,0.01,0.039,-0.049,-0.005,-0.083,-0.088,-0.107,-0.122,-0.102
0.92,-0.005,-0.024,-0.02,0.015,0.005,-0.024,0.015,-0.073,-0.063,-0.088,-0.102,-0.088
0.922,-0.039,-0.044,-0.005,0.044,-0.02,-0.024,0.02,-0.063,-0.059,-0.083,-0.098,-0.088
0.924,-0.029,-0.054,-0.024,0.044,-0.005,-0.039,0.005,-0.088,-0.083,-0.102,-0.117,-0.107
0.926,-0.005,-0.054,-0.049,0.029,0.02,-0.054,-0.005,-0.098,-0.098,-0.117,-0.137,-0.117
0.928,0.029,-0.044,-0.073,0.01,0.049,-0.059,-0.015,-0.107,-0.098,-0.117,-0.132,-0.117
0.93,0.015,-0.039,-0.054,0.015,0.034,-0.049,-0.015,-0.102,-0.093,-0.102,-0.117,-0.102
0.932,-0.039,-0.054,-0.015,0.049,-0.015,-0.034,-0.01,-0.098,-0.083,-0.093,-0.102,-0.093
0.934,-0.044,-0.063,-0.02,0.054,-0.015,-0.044,-0.02,-0.088,-0.088,-0.098,-0.107,-0.093
0.936,-0.054,-0.068,-0.015,0.063,-0.02,-0.044,-0.029,-0.093,-0.093,-0.102,-0.107,-0.098
0.938,-0.083,-0.059,0.024,0.073,-0.054,-0.02,-0.01,-0.078,-0.078,-0.088,-0.102,-0.083
0.94,-0.078,-0.044,0.034,0.063,-0.059,-0.005,-0.005,-0.068,-0.063,-0.078,-0.088,-0.078
0.942,-0.039,-0.034,0.005,0.039,-0.024,-0.015,-0.015,-0.073,-0.068,-0.093,-0.098,-0.083
0.944,-0.015,-0.034,-0.02,0.024,0.0,-0.029,-0.029,-0.088,-0.073,-0.098,-0.102,-0.088
0.946,-0.005,-0.034,-0.029,0.02,0.01,-0.034,-0.029,-0.093,-0.078,-0.093,-0.102,-0.098
0.948,-0.005,-0.034,-0.029,0.02,0.01,-0.034,-0.029,-0.093,-0.073,-0.083,-0.098,-0.098
0.95,-0.034,-0.02,0.015,0.029,-0.024,-0.005,-0.01,-0.078,-0.054,-0.063,-0.078,-0.068
0.952,-0.015,-0.02,-0.005,0.02,-0.005,-0.015,-0.024,-0.098,-0.073,-0.098,-0.098,-0.093
0.954,-0.024,-0.059,-0.034,0.044,0.005,-0.049,-0.034,-0.107,-0.098,-0.122,-0.127,-0.112
0.956,-0.024,-0.059,-0.034,0.044,0.005,-0.049,-0.034,-0.107,-0.098,-0.112,-0.122,-0.107
0.958,-0.049,-0.054,-0.005,0.054,-0.024,-0.029,-0.024,-0.093,-0.088,-0.102,-0.107,-0.098
0.96,-0.039,-0.049,-0.01,0.044,-0.015,-0.029,-0.02,-0.078,-0.068,-0.088,-0.098,-0.093
0.962,-0.054,-0.039,0.015,0.049,-0.034,-0.015,-0.005,-0.063,-0.049,-0.068,-0.078,-0.068
0.964,-0.093,-0.024,0.068,0.059,-0.083,0.02,0.024,-0.039,-0.02,-0.039,-0.054,-0.044
0.966,-0.039,-0.005,0.034,0.024,-0.039,0.015,0.02,-0.054,-0.039,-0.049,-0.063,-0.059
0.968,-0.005,-0.02,-0.015,0.015,0.005,-0.02,0.005,-0.073,-0.054,-0.063,-0.078,-0.073
0.97,0.02,-0.024,-0.044,0.005,0.029,-0.034,-0.01,-0.093,-0.068,-0.083,-0.098,-0.088
0.972,0.024,-0.024,-0.049,0.0,0.034,-0.039,-0.015,-0.093,-0.078,-0.093,-0.098,-0.093
0.974,-0.015,-0.029,-0.015,0.024,0.0,-0.024,-0.01,-0.083,-0.073,-0.088,-0.098,-0.088
0.976,-0.044,-0.02,0.024,0.034,-0.034,0.0,0.005,-0.063,-0.059,-0.068,-0.078,-0.068
0.978,-0.063,-0.015,0.049,0.039,-0.059,0.015,0.01,-0.059,-0.054,-0.059,-0.073,-0.063
0.98,-0.054,-0.01,0.044,0.034,-0.049,0.015,0.015,-0.049,-0.039,-0.049,-0.063,-0.063
0.982,-0.039,0.005,0.044,0.02,-0.044,0.024,0.015,-0.044,-0.034,-0.044,-0.063,-0.063
0.984,0.01,0.015,0.005,-0.01,0.0,0.01,0.01,-0.054,-0.039,-0.054,-0.078,-0.078
0.986,0.029,0.01,-0.02,-0.02,0.024,-0.005,0.01,-0.054,-0.039,-0.059,-0.078,-0.073
0.988,-0.005,-0.005,0.0,0.005,-0.005,-0.005,0.015,-0.063,-0.044,-0.054,-0.078,-0.068
0.99,-0.034,-0.024,0.01,0.029,-0.024,-0.01,0.015,-0.068,-0.044,-0.049,-0.073,-0.068
0.992,-0.044,-0.015,0.029,0.029,-0.039,0.005,0.015,-0.063,-0.039,-0.049,-0.063,-0.063
0.994,-0.034,-0.01,0.024,0.024,-0.029,0.005,0.0,-0.068,-0.054,-0.063,-0.073,-0.063
0.996,-0.024,0.005,0.029,0.01,-0.029,0.015,-0.005,-0.068,-0.054,-0.063,-0.068,-0.059
0.998,-0.024,0.01,0.034,0.01,-0.029,0.02,-0.01,-0.063,-0.059,-0.059,-0.073,-0.059
1.0,-0.049,-0.005,0.044,0.029,-0.049,0.02,-0.01,-0.059,-0.044,-0.059,-0.063,-0.054
1.002,-0.063,-0.039,0.024,0.054,-0.044,-0.01,-0.024,-0.063,-0.054,-0.059,-0.073,-0.059
1.004,-0.059,-0.044,0.015,0.054,-0.039,-0.015,-0.029,-0.073,-0.054,-0.063,-0.078,-0.063
1.006,-0.063,-0.054,0.01,0.059,-0.039,-0.024,-0.02,-0.063,-0.049,-0.068,-0.078,-0.063
1.008,-0.034,-0.044,-0.01,0.039,-0.015,-0.029,-0.015,-0.068,-0.054,-0.073,-0.083,-0.063
1.01,-0.02,-0.034,-0.015,0.029,-0.005,-0.024,-0.02,-0.073,-0.063,-0.068,-0.088,-0.068
1.012,-0.02,-0.039,-0.02,0.029,0.0,-0.029,-0.02,-0.073,-0.059,-0.063,-0.083,-0.073
1.014,0.005,-0.029,-0.034,0.015,0.02,-0.034,-0.02,-0.059,-0.054,-0.063,-0.078,-0.068
1.016,0.029,-0.02,-0.049,-0.005,0.039,-0.034,-0.02,-0.059,-0.059,-0.073,-0.083,-0.073
1.018,0.015,-0.029,-0.044,0.01,0.029,-0.039,-0.029,-0.059,-0.063,-0.083,-0.093,-0.083
1.02,-0.005,-0.02,-0.015,0.015,0.005,-0.02,-0.02,-0.044,-0.054,-0.078,-0.083,-0.078
1.022,0.01,-0.015,-0.024,0.005,0.015,-0.02,-0.02,-0.049,-0.049,-0.078,-0.088,-0.073
1.024,0.02,-0.01,-0.029,-0.005,0.024,-0.02,-0.01,-0.044,-0.049,-0.078,-0.088,-0.073
1.026,0.005,-0.02,-0.024,0.01,0.015,-0.024,-0.01,-0.049,-0.049,-0.078,-0.088,-0.073
1.028,-0.02,-0.044,-0.024,0.034,0.0,-0.034,-0.01,-0.054,-0.044,-0.068,-0.088,-0.073
1.03,-0.024,-0.059,-0.034,0.044,0.005,-0.049,-0.005,-0.059,-0.049,-0.063,-0.083,-0.073
1.032,-0.068,-0.078,-0.01,0.073,-0.029,-0.044,0.005,-0.049,-0.044,-0.059,-0.068,-0.063
1.034,-0.093,-0.088,0.005,0.093,-0.049,-0.044,0.01,-0.049,-0.049,-0.063,-0.073,-0.059
1.036,-0.059,-0.063,-0.005,0.063,-0.029,-0.034,0.01,-0.044,-0.044,-0.068,-0.073,-0.059
1.038,-0.02,-0.049,-0.029,0.034,0.005,-0.039,0.005,-0.044,-0.049,-0.078,-0.083,-0.063
1.04,0.029,-0.034,-0.063,0.005,0.044,-0.049,-0.015,-0.054,-0.059,-0.093,-0.093,-0.073
1.042,0.034,-0.044,-0.078,0.005,0.054,-0.063,-0.015,-0.054,-0.059,-0.088,-0.093,-0.073
1.044,0.005,-0.054,-0.059,0.024,0.029,-0.059,-0.005,-0.054,-0.049,-0.078,-0.088,-0.073
1.046,-0.029,-0.073,-0.044,0.054,0.005,-0.059,0.01,-0.039,-0.039,-0.068,-0.078,-0.063
1.048,-0.034,-0.068,-0.034,0.054,0.0,-0.054,0.015,-0.054,-0.049,-0.073,-0.088,-0.073
1.05,-0.034,-0.068,-0.034,0.054,0.0,-0.054,0.015,-0.054,-0.054,-0.073,-0.083,-0.073
1.052,-0.029,-0.063,-0.034,0.049,0.0,-0.049,0.029,-0.044,-0.054,-0.073,-0.073,-0.063
1.054,-0.015,-0.054,-0.039,0.034,0.01,-0.049,0.034,-0.044,-0.049,-0.063,-0.068,-0.059
1.056,0.005,-0.039,-0.044,0.02,0.024,-0.044,0.039,-0.039,-0.049,-0.059,-0.073,-0.059
1.058,-0.005,-0.049,-0.044,0.029,0.02,-0.049,0.024,-0.044,-0.059,-0.078,-0.078,-0.063
1.06,-0.015,-0.059,-0.044,0.039,0.015,-0.054,0.029,-0.034,-0.054,-0.073,-0.078,-0.059
1.062,-0.005,-0.059,-0.054,0.034,0.024,-0.059,0.01,-0.049,-0.063,-0.083,-0.098,-0.073
1.064,-0.01,-0.083,-0.073,0.049,0.029,-0.078,-0.01,-0.068,-0.078,-0.102,-0.112,-0.098
1.066,-0.034,-0.088,-0.054,0.063,0.01,-0.073,0.0,-0.068,-0.083,-0.107,-0.117,-0.102
1.068,-0.078,-0.073,0.005,0.078,-0.044,-0.034,0.015,-0.059,-0.063,-0.078,-0.093,-0.083
1.07,-0.093,-0.063,0.029,0.078,-0.063,-0.02,0.029,-0.049,-0.049,-0.059,-0.073,-0.068
1.072,-0.059,-0.049,0.01,0.054,-0.034,-0.02,0.024,-0.059,-0.059,-0.059,-0.068,-0.068
1.074,-0.034,-0.054,-0.02,0.044,-0.01,-0.039,0.01,-0.059,-0.059,-0.068,-0.073,-0.063
1.076,-0.029,-0.063,-0.034,0.049,0.0,-0.049,-0.01,-0.068,-0.063,-0.063,-0.073,-0.073
1.078,-0.034,-0.059,-0.024,0.049,-0.005,-0.044,-0.01,-0.063,-0.063,-0.068,-0.078,-0.078
1.08,-0.073,-0.063,0.01,0.068,-0.044,-0.029,0.005,-0.049,-0.059,-0.073,-0.078,-0.068
1.082,-0.078,-0.054,0.024,0.068,-0.054,-0.015,0.01,-0.049,-0.059,-0.093,-0.093,-0.068
1.084,-0.044,-0.063,-0.02,0.054,-0.015,-0.044,0.0,-0.063,-0.073,-0.107,-0.102,-0.083
1.086,-0.029,-0.059,-0.029,0.044,0.0,-0.044,0.0,-0.068,-0.073,-0.102,-0.102,-0.083
1.088,-0.005,-0.034,-0.029,0.02,0.01,-0.034,0.005,-0.068,-0.068,-0.088,-0.093,-0.073
1.09,-0.015,-0.02,-0.005,0.02,-0.005,-0.015,0.02,-0.049,-0.049,-0.063,-0.068,-0.054
1.092,-0.02,-0.02,0.0,0.02,-0.01,-0.01,0.02,-0.054,-0.059,-0.063,-0.063,-0.054
1.094,-0.015,-0.02,-0.005,0.02,-0.005,-0.015,0.02,-0.054,-0.068,-0.078,-0.078,-0.054
1.096,-0.034,-0.034,0.0,0.034,-0.02,-0.02,0.015,-0.054,-0.068,-0.088,-0.083,-0.054
1.098,-0.063,-0.049,0.015,0.059,-0.039,-0.02,0.015,-0.049,-0.068,-0.083,-0.083,-0.059
1.1,-0.083,-0.054,0.029,0.068,-0.059,-0.015,0.015,-0.044,-0.059,-0.078,-0.083,-0.063
1.102,-0.098,-0.059,0.039,0.078,-0.068,-0.01,0.024,-0.039,-0.059,-0.068,-0.078,-0.059
1.104,-0.073,-0.044,0.029,0.059,-0.054,-0.01,0.034,-0.039,-0.049,-0.063,-0.068,-0.059
1.106,-0.049,-0.044,0.005,0.049,-0.029,-0.02,0.024,-0.054,-0.063,-0.078,-0.078,-0.063
1.108,-0.059,-0.059,0.0,0.059,-0.029,-0.029,0.015,-0.068,-0.068,-0.083,-0.088,-0.068
1.11,-0.078,-0.054,0.024,0.068,-0.054,-0.015,0.02,-0.073,-0.073,-0.078,-0.088,-0.068
1.112,-0.034,-0.049,-0.015,0.044,-0.01,-0.034,0.015,-0.078,-0.078,-0.093,-0.088,-0.068
1.114,-0.015,-0.034,-0.02,0.024,0.0,-0.029,0.015,-0.068,-0.083,-0.093,-0.078,-0.063
1.116,-0.02,-0.039,-0.02,0.029,0.0,-0.029,0.01,-0.078,-0.088,-0.098,-0.088,-0.063
1.118,-0.029,-0.054,-0.024,0.044,-0.005,-0.039,0.005,-0.078,-0.093,-0.102,-0.093,-0.068
1.12,-0.02,-0.034,-0.015,0.029,-0.005,-0.024,0.005,-0.073,-0.073,-0.088,-0.083,-0.063
1.122,-0.049,-0.034,0.015,0.044,-0.034,-0.01,0.005,-0.059,-0.068,-0.073,-0.073,-0.054
1.124,-0.054,-0.044,0.01,0.049,-0.034,-0.02,0.0,-0.068,-0.073,-0.083,-0.078,-0.059
1.126,-0.024,-0.049,-0.024,0.039,0.0,-0.039,-0.01,-0.078,-0.083,-0.088,-0.083,-0.068
1.128,0.024,-0.039,-0.063,0.01,0.044,-0.054,-0.029,-0.093,-0.093,-0.088,-0.093,-0.073
1.13,0.029,-0.029,-0.059,0.0,0.044,-0.044,-0.029,-0.088,-0.083,-0.078,-0.088,-0.068
1.132,-0.005,-0.029,-0.024,0.02,0.01,-0.029,-0.024,-0.078,-0.088,-0.078,-0.078,-0.063
1.134,-0.059,-0.039,0.02,0.049,-0.039,-0.01,-0.005,-0.063,-0.073,-0.063,-0.063,-0.044
1.136,-0.063,-0.044,0.02,0.054,-0.044,-0.015,-0.01,-0.063,-0.078,-0.073,-0.068,-0.049
1.138,-0.068,-0.049,0.02,0.059,-0.044,-0.015,-0.02,-0.063,-0.083,-0.083,-0.073,-0.054
1.14,-0.059,-0.049,0.01,0.054,-0.034,-0.02,-0.02,-0.059,-0.073,-0.083,-0.073,-0.049
1.142,-0.044,-0.044,0.0,0.044,-0.024,-0.024,-0.02,-0.059,-0.073,-0.083,-0.073,-0.054
1.144,-0.034,-0.039,-0.005,0.039,-0.015,-0.024,-0.015,-0.054,-0.068,-0.078,-0.073,-0.049
1.146,-0.029,-0.024,0.005,0.029,-0.02,-0.01,-0.01,-0.044,-0.063,-0.068,-0.063,-0.049
1.148,-0.039,-0.039,0.0,0.039,-0.02,-0.02,-0.015,-0.049,-0.059,-0.063,-0.059,-0.044
1.15,-0.049,-0.063,-0.015,0.059,-0.02,-0.039,-0.024,-0.049,-0.068,-0.063,-0.063,-0.044
1.152,-0.054,-0.078,-0.024,0.068,-0.015,-0.054,-0.039,-0.054,-0.073,-0.073,-0.078,-0.054
1.154,-0.024,-0.073,-0.049,0.049,0.01,-0.063,-0.039,-0.063,-0.078,-0.078,-0.083,-0.054
1.156,0.024,-0.034,-0.059,0.005,0.039,-0.049,-0.039,-0.059,-0.078,-0.078,-0.078,-0.054
1.158,0.034,-0.02,-0.054,-0.005,0.044,-0.039,-0.034,-0.039,-0.068,-0.063,-0.068,-0.044
1.16,0.0,-0.029,-0.029,0.015,0.015,-0.029,-0.029,-0.039,-0.068,-0.068,-0.068,-0.039
1.162,-0.034,-0.039,-0.005,0.039,-0.015,-0.024,-0.024,-0.034,-0.063,-0.054,-0.063,-0.039
1.164,-0.068,-0.059,0.01,0.063,-0.039,-0.024,-0.02,-0.029,-0.059,-0.059,-0.068,-0.039
1.166,-0.083,-0.068,0.015,0.078,-0.049,-0.029,-0.005,-0.024,-0.054,-0.049,-0.059,-0.034
1.168,-0.054,-0.059,-0.005,0.059,-0.024,-0.034,0.005,-0.029,-0.049,-0.044,-0.063,-0.034
1.17,-0.024,-0.059,-0.034,0.044,0.005,-0.049,0.0,-0.029,-0.059,-0.049,-0.063,-0.039
1.172,0.015,-0.059,-0.073,0.024,0.044,-0.068,-0.015,-0.044,-0.073,-0.068,-0.083,-0.049
1.174,0.02,-0.054,-0.073,0.02,0.044,-0.063,-0.02,-0.044,-0.073,-0.068,-0.083,-0.049
1.176,-0.024,-0.073,-0.049,0.049,0.01,-0.063,-0.015,-0.039,-0.063,-0.068,-0.083,-0.049
1.178,-0.059,-0.078,-0.02,0.068,-0.02,-0.049,-0.005,-0.02,-0.059,-0.063,-0.068,-0.039
1.18,-0.073,-0.073,0.0,0.073,-0.039,-0.039,0.005,-0.015,-0.049,-0.068,-0.063,-0.034
1.182,-0.049,-0.059,-0.01,0.054,-0.02,-0.034,0.0,-0.02,-0.054,-0.059,-0.063,-0.039
1.184,-0.029,-0.044,-0.015,0.039,-0.01,-0.029,0.0,-0.02,-0.054,-0.059,-0.059,-0.044
1.186,-0.029,-0.049,-0.02,0.039,-0.005,-0.034,0.005,-0.024,-0.059,-0.054,-0.063,-0.044
1.188,0.039,-0.024,-0.063,-0.005,0.049,-0.044,-0.01,-0.034,-0.063,-0.063,-0.073,-0.059
1.19,0.054,-0.029,-0.083,-0.01,0.068,-0.059,-0.01,-0.039,-0.073,-0.063,-0.078,-0.063
1.192,-0.029,-0.068,-0.039,0.049,0.005,-0.054,0.0,-0.029,-0.063,-0.059,-0.073,-0.054
1.194,-0.059,-0.059,0.0,0.059,-0.029,-0.029,0.02,-0.01,-0.049,-0.039,-0.059,-0.039
1.196,-0.073,-0.049,0.024,0.063,-0.049,-0.015,0.024,0.0,-0.039,-0.039,-0.044,-0.039
1.198,-0.068,-0.039,0.029,0.054,-0.049,-0.005,0.029,0.01,-0.034,-0.034,-0.044,-0.034
1.2,-0.068,-0.029,0.039,0.049,-0.054,0.005,0.039,0.02,-0.029,-0.034,-0.039,-0.029
1.202,-0.054,-0.039,0.015,0.049,-0.034,-0.015,0.029,0.005,-0.044,-0.044,-0.059,-0.034
1.204,-0.044,-0.044,0.0,0.044,-0.024,-0.024,0.024,-0.005,-0.054,-0.054,-0.063,-0.044
1.206,-0.024,-0.044,-0.02,0.034,-0.005,-0.034,0.024,-0.015,-0.059,-0.054,-0.063,-0.049
1.208,-0.02,-0.063,-0.044,0.044,0.01,-0.054,0.02,-0.029,-0.073,-0.068,-0.073,-0.054
1.21,-0.01,-0.059,-0.049,0.034,0.02,-0.054,0.02,-0.039,-0.083,-0.068,-0.078,-0.063
1.212,-0.02,-0.059,-0.039,0.039,0.01,-0.049,0.02,-0.039,-0.083,-0.073,-0.078,-0.059
1.214,-0.059,-0.059,0.0,0.059,-0.029,-0.029,0.029,-0.024,-0.063,-0.044,-0.059,-0.039
1.216,-0.073,-0.059,0.015,0.068,-0.044,-0.024,0.024,-0.02,-0.059,-0.049,-0.049,-0.034
1.218,-0.088,-0.073,0.015,0.083,-0.054,-0.029,0.015,-0.029,-0.073,-0.063,-0.063,-0.039
1.22,-0.088,-0.088,0.0,0.088,-0.044,-0.044,0.0,-0.039,-0.088,-0.083,-0.078,-0.054
1.222,-0.054,-0.078,-0.024,0.068,-0.015,-0.054,-0.005,-0.049,-0.093,-0.088,-0.093,-0.059
1.224,-0.044,-0.068,-0.024,0.059,-0.01,-0.049,0.0,-0.039,-0.088,-0.088,-0.088,-0.054
1.226,-0.054,-0.049,0.005,0.054,-0.029,-0.024,0.02,-0.024,-0.073,-0.068,-0.073,-0.039
1.228,-0.078,-0.059,0.02,0.068,-0.049,-0.02,0.029,-0.02,-0.063,-0.059,-0.059,-0.029
1.23,-0.088,-0.063,0.024,0.078,-0.059,-0.02,0.029,-0.024,-0.068,-0.054,-0.063,-0.029
1.232,-0.063,-0.049,0.015,0.059,-0.039,-0.02,0.024,-0.029,-0.073,-0.063,-0.063,-0.029
1.234,-0.034,-0.044,-0.01,0.039,-0.015,-0.029,0.02,-0.039,-0.078,-0.068,-0.068,-0.029
1.236,-0.02,-0.063,-0.044,0.044,0.01,-0.054,0.005,-0.044,-0.088,-0.073,-0.078,-0.039
1.238,-0.039,-0.093,-0.054,0.068,0.005,-0.073,-0.005,-0.059,-0.102,-0.078,-0.088,-0.054
1.24,-0.054,-0.112,-0.059,0.083,0.0,-0.088,-0.02,-0.068,-0.107,-0.093,-0.098,-0.063
1.242,-0.024,-0.083,-0.059,0.054,0.015,-0.073,-0.005,-0.059,-0.098,-0.078,-0.088,-0.049
1.244,-0.005,-0.054,-0.049,0.029,0.02,-0.054,0.005,-0.049,-0.088,-0.073,-0.083,-0.044
1.246,-0.015,-0.039,-0.024,0.029,0.005,-0.034,0.02,-0.034,-0.083,-0.059,-0.068,-0.029
1.248,-0.039,-0.044,-0.005,0.044,-0.02,-0.024,0.024,-0.024,-0.073,-0.054,-0.059,-0.02
1.25,-0.068,-0.063,0.005,0.068,-0.039,-0.029,0.024,-0.029,-0.073,-0.054,-0.054,-0.015
1.252,-0.068,-0.063,0.005,0.068,-0.039,-0.029,0.01,-0.039,-0.078,-0.059,-0.059,-0.02
1.254,-0.088,-0.068,0.02,0.078,-0.054,-0.024,0.01,-0.034,-0.078,-0.054,-0.054,-0.02
1.256,-0.093,-0.083,0.01,0.088,-0.054,-0.039,0.0,-0.039,-0.088,-0.068,-0.068,-0.029
1.258,-0.068,-0.068,0.0,0.068,-0.034,-0.034,-0.005,-0.039,-0.093,-0.068,-0.068,-0.029
1.26,-0.044,-0.063,-0.02,0.054,-0.015,-0.044,-0.01,-0.039,-0.088,-0.068,-0.073,-0.034
1.262,-0.024,-0.063,-0.039,0.044,0.005,-0.054,-0.015,-0.049,-0.093,-0.078,-0.083,-0.039
1.264,0.005,-0.054,-0.059,0.024,0.029,-0.059,-0.02,-0.044,-0.088,-0.073,-0.083,-0.049
1.266,0.01,-0.063,-0.073,0.029,0.039,-0.068,-0.02,-0.039,-0.093,-0.073,-0.078,-0.044
1.268,-0.024,-0.063,-0.039,0.044,0.005,-0.054,-0.01,-0.034,-0.083,-0.068,-0.073,-0.039
1.27,-0.054,-0.088,-0.034,0.073,-0.01,-0.063,-0.015,-0.044,-0.098,-0.083,-0.083,-0.049
1.272,-0.083,-0.098,-0.015,0.093,-0.034,-0.059,-0.005,-0.029,-0.088,-0.068,-0.073,-0.039
1.274,-0.073,-0.073,0.0,0.073,-0.039,-0.039,0.02,-0.01,-0.068,-0.049,-0.049,-0.015
1.276,-0.034,-0.039,-0.005,0.039,-0.015,-0.024,0.02,-0.005,-0.068,-0.044,-0.044,-0.015
1.278,-0.024,-0.054,-0.029,0.039,0.0,-0.044,0.015,-0.01,-0.078,-0.054,-0.054,-0.024
1.28,-0.049,-0.073,-0.024,0.063,-0.015,-0.049,0.015,0.0,-0.068,-0.049,-0.049,-0.02
1.282,-0.059,-0.083,-0.024,0.073,-0.02,-0.054,0.02,-0.005,-0.063,-0.049,-0.054,-0.02
1.284,-0.063,-0.088,-0.024,0.078,-0.02,-0.059,0.024,0.005,-0.063,-0.054,-0.063,-0.029
1.286,-0.054,-0.098,-0.044,0.078,-0.005,-0.073,0.029,0.029,-0.054,-0.054,-0.068,-0.039
1.288,-0.049,-0.122,-0.073,0.088,0.01,-0.098,0.059,0.073,-0.029,-0.054,-0.088,-0.068
1.29,-0.068,-0.142,-0.073,0.107,0.0,-0.107,0.112,0.146,0.02,-0.029,-0.093,-0.093
1.292,-0.078,-0.146,-0.068,0.112,-0.005,-0.107,0.156,0.239,0.088,0.005,-0.088,-0.107
1.294,-0.063,-0.122,-0.059,0.093,-0.005,-0.093,0.181,0.322,0.166,0.068,-0.049,-0.093
1.296,-0.034,-0.078,-0.044,0.059,0.005,-0.063,0.176,0.366,0.244,0.151,0.015,-0.054
1.298,-0.02,-0.054,-0.034,0.039,0.005,-0.044,0.166,0.41,0.317,0.224,0.073,-0.024
1.3,0.0,-0.034,-0.034,0.02,0.015,-0.034,0.166,0.532,0.439,0.337,0.171,0.039
1.302,0.039,0.01,-0.029,-0.024,0.034,-0.01,0.146,0.615,0.547,0.459,0.283,0.127
1.304,0.122,0.078,-0.044,-0.098,0.083,0.015,0.117,0.659,0.649,0.595,0.434,0.244
1.306,0.195,0.176,-0.02,-0.185,0.107,0.078,0.073,0.62,0.737,0.752,0.625,0.41
1.308,0.259,0.288,0.029,-0.273,0.112,0.156,-0.034,0.381,0.693,0.864,0.8,0.59
1.31,0.322,0.395,0.073,-0.356,0.122,0.234,-0.166,-0.01,0.527,0.898,0.976,0.805
1.312,0.4,0.478,0.078,-0.439,0.161,0.278,-0.327,-0.429,0.288,0.869,1.113,0.986
1.314,0.488,0.547,0.059,-0.517,0.215,0.303,-0.468,-0.722,0.107,0.834,1.235,1.152
1.316,0.542,0.634,0.093,-0.586,0.224,0.361,-0.556,-0.893,0.01,0.859,1.366,1.313
1.318,0.581,0.742,0.161,-0.659,0.21,0.449,-0.654,-1.02,-0.005,0.947,1.523,1.474
1.32,0.571,0.849,0.278,-0.708,0.146,0.561,-0.722,-1.157,-0.039,0.976,1.601,1.571
1.322,0.522,0.893,0.371,-0.708,0.073,0.63,-0.732,-1.298,-0.21,0.81,1.459,1.523
1.324,0.425,0.781,0.356,-0.6,0.034,0.566,-0.683,-1.405,-0.459,0.478,1.137,1.313
1.326,0.317,0.625,0.307,-0.468,0.005,0.464,-0.63,-1.532,-0.761,0.083,0.747,1.049
1.328,0.205,0.498,0.293,-0.351,-0.044,0.395,-0.551,-1.688,-1.093,-0.327,0.342,0.742
1.33,0.029,0.4,0.371,-0.215,-0.171,0.386,-0.454,-1.747,-1.308,-0.634,-0.015,0.439
1.332,-0.068,0.342,0.41,-0.137,-0.239,0.376,-0.337,-1.698,-1.376,-0.805,-0.283,0.161
1.334,-0.102,0.254,0.356,-0.073,-0.229,0.303,-0.273,-1.523,-1.259,-0.81,-0.386,-0.01
1.336,-0.127,0.156,0.283,-0.015,-0.205,0.22,-0.244,-1.313,-1.103,-0.747,-0.415,-0.107
1.338,-0.127,0.088,0.215,0.02,-0.171,0.151,-0.244,-1.113,-0.956,-0.664,-0.386,-0.132
1.34,-0.112,0.059,0.171,0.029,-0.142,0.112,-0.254,-0.913,-0.786,-0.566,-0.332,-0.112
1.342,-0.078,0.083,0.161,0.0,-0.122,0.122,-0.264,-0.742,-0.634,-0.454,-0.259,-0.088
1.344,-0.059,0.088,0.146,-0.015,-0.102,0.117,-0.229,-0.566,-0.503,-0.342,-0.2,-0.059
1.346,-0.068,0.059,0.127,0.005,-0.098,0.093,-0.181,-0.429,-0.386,-0.264,-0.142,-0.039
1.348,-0.054,0.054,0.107,0.0,-0.083,0.078,-0.127,-0.298,-0.283,-0.19,-0.102,-0.024
1.35,-0.063,0.039,0.102,0.015,-0.083,0.068,-0.088,-0.2,-0.205,-0.137,-0.073,-0.024
1.352,-0.049,0.02,0.068,0.015,-0.059,0.044,-0.059,-0.122,-0.151,-0.098,-0.059,-0.015
1.354,-0.005,0.01,0.015,0.0,-0.01,0.01,-0.039,-0.083,-0.122,-0.088,-0.059,-0.02
1.356,-0.044,-0.024,0.02,0.034,-0.034,-0.005,-0.015,-0.044,-0.102,-0.078,-0.059,-0.029
1.358,-0.049,-0.044,0.005,0.049,-0.029,-0.02,0.01,-0.015,-0.078,-0.063,-0.054,-0.024
1.36,-0.01,-0.034,-0.024,0.024,0.005,-0.029,0.015,0.0,-0.068,-0.059,-0.054,-0.024
1.362,-0.015,-0.039,-0.024,0.029,0.005,-0.034,0.024,0.02,-0.059,-0.049,-0.049,-0.029
1.364,-0.044,-0.054,-0.01,0.049,-0.02,-0.034,0.039,0.049,-0.039,-0.039,-0.029,-0.02
1.366,-0.049,-0.059,-0.01,0.054,-0.02,-0.034,0.044,0.063,-0.02,-0.024,-0.02,-0.01
1.368,-0.034,-0.059,-0.024,0.049,-0.005,-0.044,0.034,0.068,-0.015,-0.024,-0.02,-0.01
1.37,-0.01,-0.063,-0.054,0.039,0.02,-0.059,0.015,0.063,-0.029,-0.034,-0.039,-0.034
1.372,-0.015,-0.068,-0.054,0.044,0.02,-0.063,0.02,0.078,-0.01,-0.024,-0.029,-0.024
1.374,-0.039,-0.063,-0.024,0.054,-0.01,-0.044,0.029,0.088,-0.005,-0.02,-0.024,-0.02
1.376,-0.054,-0.068,-0.015,0.063,-0.02,-0.044,0.034,0.083,-0.005,-0.024,-0.034,-0.024
1.378,-0.054,-0.083,-0.029,0.068,-0.015,-0.059,0.034,0.088,0.0,-0.02,-0.034,-0.034
1.38,-0.054,-0.073,-0.02,0.063,-0.02,-0.049,0.049,0.102,0.015,-0.005,-0.024,-0.015
1.382,-0.044,-0.054,-0.01,0.049,-0.02,-0.034,0.059,0.112,0.024,0.0,-0.02,-0.015
1.384,-0.015,-0.044,-0.029,0.029,0.005,-0.039,0.049,0.102,0.015,0.0,-0.024,-0.02
1.386,-0.034,-0.054,-0.02,0.044,-0.01,-0.039,0.044,0.112,0.015,0.005,-0.015,-0.015
1.388,-0.068,-0.073,-0.005,0.073,-0.034,-0.039,0.044,0.112,0.01,0.0,-0.02,-0.02
1.39,-0.039,-0.068,-0.029,0.054,-0.005,-0.049,0.029,0.098,-0.005,-0.015,-0.034,-0.039
1.392,-0.034,-0.059,-0.024,0.049,-0.005,-0.044,0.039,0.107,0.01,-0.01,-0.029,-0.029
1.394,-0.034,-0.059,-0.024,0.049,-0.005,-0.044,0.049,0.117,0.02,-0.005,-0.02,-0.024
1.396,-0.024,-0.049,-0.024,0.039,0.0,-0.039,0.063,0.122,0.029,0.005,-0.02,-0.02
1.398,-0.034,-0.039,-0.005,0.039,-0.015,-0.024,0.068,0.127,0.034,0.015,-0.01,-0.01
1.4,-0.039,-0.044,-0.005,0.044,-0.02,-0.024,0.068,0.127,0.039,0.02,-0.01,-0.005
1.402,-0.044,-0.059,-0.015,0.054,-0.015,-0.039,0.063,0.127,0.039,0.02,-0.005,-0.01
1.404,-0.054,-0.073,-0.02,0.063,-0.02,-0.049,0.059,0.117,0.029,0.015,-0.015,-0.02
1.406,-0.054,-0.049,0.005,0.054,-0.029,-0.024,0.078,0.137,0.049,0.029,0.01,0.005
1.408,-0.063,-0.024,0.039,0.044,-0.054,0.005,0.083,0.156,0.063,0.039,0.024,0.015
1.41,-0.073,-0.029,0.044,0.054,-0.059,0.005,0.093,0.171,0.068,0.049,0.029,0.02
1.412,-0.034,-0.02,0.015,0.029,-0.024,-0.005,0.073,0.161,0.068,0.039,0.015,0.01
1.414,0.0,-0.029,-0.029,0.015,0.015,-0.029,0.054,0.146,0.054,0.02,0.0,-0.005
1.416,-0.024,-0.034,-0.01,0.029,-0.01,-0.024,0.059,0.156,0.063,0.024,-0.005,-0.005
1.418,-0.039,-0.044,-0.005,0.044,-0.02,-0.024,0.059,0.161,0.063,0.024,-0.005,-0.005
1.42,-0.049,-0.083,-0.034,0.068,-0.01,-0.059,0.049,0.142,0.054,0.015,-0.02,-0.02
1.422,-0.024,-0.078,-0.054,0.054,0.015,-0.068,0.044,0.137,0.049,0.015,-0.02,-0.024
1.424,0.01,-0.044,-0.054,0.02,0.029,-0.049,0.049,0.151,0.054,0.024,0.0,-0.01
1.426,-0.024,-0.059,-0.034,0.044,0.005,-0.049,0.044,0.156,0.059,0.029,0.005,0.0
1.428,-0.049,-0.073,-0.024,0.063,-0.015,-0.049,0.049,0.166,0.068,0.039,0.01,0.0
1.43,-0.054,-0.083,-0.029,0.068,-0.015,-0.059,0.039,0.161,0.059,0.029,0.0,-0.02
1.432,-0.039,-0.078,-0.039,0.059,0.0,-0.059,0.044,0.171,0.068,0.039,0.005,-0.005
1.434,-0.005,-0.039,-0.034,0.024,0.015,-0.039,0.054,0.176,0.078,0.034,0.01,0.005
1.436,-0.024,-0.039,-0.015,0.034,-0.005,-0.029,0.059,0.185,0.093,0.049,0.02,0.005
1.438,-0.039,-0.054,-0.015,0.049,-0.015,-0.034,0.063,0.19,0.093,0.049,0.02,0.005
1.44,-0.02,-0.063,-0.044,0.044,0.01,-0.054,0.049,0.176,0.083,0.034,0.005,0.0
1.442,0.0,-0.078,-0.078,0.039,0.039,-0.078,0.029,0.156,0.063,0.02,-0.01,-0.024
1.444,-0.02,-0.088,-0.068,0.054,0.024,-0.078,0.034,0.166,0.068,0.034,-0.005,-0.015
1.446,-0.044,-0.083,-0.039,0.063,-0.005,-0.063,0.049,0.181,0.083,0.039,0.01,0.005
1.448,-0.063,-0.083,-0.02,0.073,-0.024,-0.054,0.054,0.185,0.088,0.049,0.015,0.005
1.45,-0.039,-0.078,-0.039,0.059,0.0,-0.059,0.049,0.195,0.098,0.049,0.01,-0.005
1.452,-0.024,-0.083,-0.059,0.054,0.015,-0.073,0.044,0.2,0.093,0.039,0.01,0.0
1.454,-0.01,-0.059,-0.049,0.034,0.02,-0.054,0.044,0.205,0.107,0.044,0.01,0.005
1.456,-0.005,-0.059,-0.054,0.034,0.024,-0.059,0.049,0.21,0.107,0.044,0.015,0.0
1.458,-0.024,-0.078,-0.054,0.054,0.015,-0.068,0.049,0.215,0.107,0.049,0.02,0.0
1.46,-0.01,-0.068,-0.059,0.039,0.024,-0.063,0.044,0.21,0.112,0.054,0.02,0.0
1.462,-0.024,-0.054,-0.029,0.039,0.0,-0.044,0.054,0.224,0.122,0.068,0.029,0.005
1.464,-0.015,-0.044,-0.029,0.029,0.005,-0.039,0.068,0.239,0.132,0.083,0.044,0.02
1.466,-0.015,-0.049,-0.034,0.034,0.01,-0.044,0.063,0.234,0.127,0.078,0.044,0.015
1.468,0.0,-0.063,-0.063,0.034,0.029,-0.063,0.054,0.22,0.117,0.068,0.029,0.005
1.47,0.024,-0.059,-0.083,0.02,0.054,-0.073,0.049,0.22,0.112,0.063,0.02,0.0
1.472,0.0,-0.068,-0.068,0.034,0.034,-0.068,0.049,0.224,0.122,0.068,0.024,0.005
1.474,-0.024,-0.068,-0.044,0.049,0.01,-0.059,0.054,0.244,0.137,0.073,0.034,0.015
1.476,-0.034,-0.063,-0.029,0.049,-0.005,-0.049,0.063,0.259,0.156,0.088,0.044,0.02
1.478,-0.024,-0.068,-0.044,0.049,0.01,-0.059,0.059,0.254,0.151,0.083,0.039,0.015
1.48,-0.01,-0.059,-0.049,0.034,0.02,-0.054,0.063,0.264,0.161,0.098,0.044,0.02
1.482,0.01,-0.039,-0.049,0.015,0.029,-0.044,0.063,0.273,0.171,0.098,0.049,0.02
1.484,-0.024,-0.049,-0.024,0.039,0.0,-0.039,0.068,0.288,0.176,0.107,0.068,0.029
1.486,-0.029,-0.044,-0.015,0.039,-0.01,-0.029,0.068,0.298,0.181,0.122,0.073,0.039
1.488,-0.01,-0.049,-0.039,0.029,0.015,-0.044,0.049,0.293,0.181,0.117,0.063,0.029
1.49,-0.01,-0.063,-0.054,0.039,0.02,-0.059,0.044,0.288,0.176,0.107,0.059,0.024
1.492,0.02,-0.054,-0.073,0.02,0.044,-0.063,0.044,0.303,0.19,0.117,0.063,0.034
1.494,0.044,-0.054,-0.098,0.005,0.068,-0.078,0.029,0.298,0.185,0.107,0.059,0.024
1.496,0.039,-0.059,-0.098,0.01,0.068,-0.078,0.024,0.303,0.185,0.112,0.059,0.02
1.498,0.029,-0.054,-0.083,0.015,0.054,-0.068,0.039,0.317,0.2,0.127,0.073,0.034
1.5,0.02,-0.049,-0.068,0.015,0.044,-0.059,0.039,0.337,0.22,0.146,0.083,0.049
1.502,0.024,-0.024,-0.049,0.0,0.034,-0.039,0.063,0.366,0.239,0.166,0.107,0.063
1.504,0.039,-0.005,-0.044,-0.015,0.039,-0.024,0.073,0.386,0.259,0.185,0.127,0.078
1.506,0.073,0.01,-0.063,-0.039,0.068,-0.029,0.068,0.39,0.264,0.2,0.127,0.083
1.508,0.083,0.02,-0.063,-0.049,0.073,-0.024,0.059,0.4,0.264,0.195,0.127,0.078
1.51,0.073,0.015,-0.059,-0.044,0.063,-0.024,0.073,0.42,0.288,0.21,0.137,0.088
1.512,0.059,0.015,-0.044,-0.034,0.049,-0.015,0.073,0.439,0.307,0.229,0.156,0.102
1.514,0.063,0.034,-0.029,-0.049,0.044,0.0,0.088,0.464,0.322,0.234,0.166,0.112
1.516,0.063,0.029,-0.034,-0.044,0.049,-0.005,0.088,0.468,0.327,0.244,0.161,0.112
1.518,0.024,0.015,-0.01,-0.02,0.015,0.0,0.088,0.488,0.342,0.259,0.176,0.122
1.52,0.01,0.005,-0.005,-0.005,0.005,0.0,0.088,0.488,0.356,0.264,0.185,0.132
1.522,0.049,0.015,-0.034,-0.029,0.039,-0.01,0.083,0.488,0.356,0.259,0.185,0.122
1.524,0.063,0.039,-0.024,-0.049,0.044,0.005,0.093,0.512,0.371,0.283,0.21,0.137
1.526,0.059,0.029,-0.029,-0.044,0.044,0.0,0.078,0.508,0.371,0.283,0.215,0.142
1.528,0.083,0.034,-0.049,-0.059,0.063,-0.01,0.078,0.517,0.381,0.288,0.215,0.151
1.53,0.102,0.059,-0.044,-0.078,0.073,0.005,0.078,0.542,0.395,0.303,0.229,0.151
1.532,0.117,0.078,-0.039,-0.098,0.078,0.02,0.083,0.561,0.42,0.322,0.249,0.171
1.534,0.117,0.102,-0.015,-0.107,0.063,0.044,0.107,0.595,0.449,0.351,0.278,0.2
1.536,0.127,0.107,-0.02,-0.117,0.073,0.044,0.098,0.6,0.454,0.351,0.273,0.19
1.538,0.132,0.107,-0.024,-0.117,0.078,0.039,0.098,0.615,0.468,0.366,0.288,0.205
1.54,0.161,0.107,-0.054,-0.132,0.107,0.024,0.093,0.615,0.473,0.366,0.288,0.205
1.542,0.146,0.088,-0.059,-0.117,0.102,0.015,0.078,0.615,0.468,0.366,0.278,0.2
1.544,0.117,0.068,-0.049,-0.093,0.083,0.01,0.073,0.62,0.473,0.376,0.293,0.205
1.546,0.078,0.068,-0.01,-0.073,0.044,0.029,0.078,0.644,0.488,0.39,0.307,0.22
1.548,0.088,0.088,0.0,-0.088,0.044,0.044,0.078,0.654,0.508,0.41,0.322,0.229
1.55,0.122,0.122,0.0,-0.122,0.059,0.059,0.088,0.678,0.527,0.429,0.342,0.249
1.552,0.107,0.107,0.0,-0.107,0.054,0.054,0.078,0.698,0.537,0.439,0.351,0.259
1.554,0.117,0.112,-0.005,-0.112,0.059,0.054,0.073,0.698,0.547,0.439,0.346,0.259
1.556,0.156,0.122,-0.034,-0.137,0.093,0.044,0.063,0.698,0.547,0.429,0.346,0.254
1.558,0.161,0.127,-0.034,-0.142,0.098,0.044,0.068,0.708,0.551,0.439,0.356,0.259
1.56,0.22,0.142,-0.078,-0.181,0.146,0.029,0.049,0.693,0.547,0.434,0.351,0.259
1.562,0.254,0.142,-0.112,-0.195,0.181,0.015,0.029,0.678,0.537,0.429,0.342,0.249
1.564,0.229,0.117,-0.112,-0.171,0.171,0.0,0.02,0.669,0.522,0.42,0.342,0.244
1.566,0.2,0.127,-0.073,-0.161,0.137,0.024,0.024,0.669,0.537,0.434,0.356,0.264
1.568,0.156,0.132,-0.024,-0.142,0.088,0.054,0.024,0.673,0.542,0.449,0.366,0.278
1.57,0.142,0.142,0.0,-0.142,0.068,0.068,0.034,0.683,0.551,0.459,0.386,0.293
1.572,0.146,0.151,0.005,-0.146,0.068,0.078,0.029,0.664,0.547,0.459,0.381,0.298
1.574,0.142,0.142,0.0,-0.142,0.068,0.068,0.015,0.634,0.522,0.439,0.366,0.283
1.576,0.142,0.146,0.005,-0.142,0.068,0.073,0.024,0.62,0.512,0.439,0.371,0.283
1.578,0.146,0.146,0.0,-0.146,0.073,0.073,0.015,0.59,0.498,0.429,0.361,0.268
1.58,0.151,0.127,-0.024,-0.137,0.088,0.049,0.005,0.556,0.478,0.405,0.346,0.259
1.582,0.161,0.137,-0.024,-0.146,0.093,0.054,0.0,0.522,0.444,0.386,0.327,0.239
1.584,0.146,0.117,-0.029,-0.132,0.088,0.044,-0.01,0.493,0.415,0.376,0.317,0.229
1.586,0.112,0.098,-0.015,-0.102,0.063,0.039,-0.02,0.454,0.386,0.351,0.293,0.215
1.588,0.102,0.088,-0.015,-0.093,0.059,0.034,-0.02,0.425,0.361,0.332,0.283,0.2
1.59,0.073,0.073,0.0,-0.073,0.034,0.034,-0.02,0.4,0.327,0.303,0.259,0.176
1.592,0.039,0.054,0.015,-0.044,0.01,0.034,-0.02,0.366,0.303,0.273,0.239,0.171
1.594,0.049,0.054,0.005,-0.049,0.02,0.029,-0.024,0.332,0.278,0.249,0.205,0.151
1.596,0.098,0.078,-0.02,-0.088,0.059,0.029,-0.02,0.312,0.249,0.234,0.195,0.137
1.598,0.107,0.088,-0.02,-0.098,0.063,0.034,-0.005,0.298,0.234,0.224,0.19,0.137
1.6,0.083,0.078,-0.005,-0.078,0.044,0.034,-0.01,0.259,0.21,0.205,0.176,0.122
1.602,0.063,0.054,-0.01,-0.059,0.034,0.02,-0.01,0.224,0.181,0.185,0.151,0.102
1.604,0.044,0.039,-0.005,-0.039,0.024,0.015,-0.015,0.2,0.151,0.166,0.127,0.088
1.606,0.015,0.024,0.01,-0.02,0.0,0.015,-0.02,0.185,0.132,0.146,0.117,0.078
1.608,0.0,0.01,0.01,-0.005,-0.005,0.01,-0.02,0.171,0.117,0.137,0.107,0.068
1.61,-0.005,0.0,0.005,0.005,-0.005,0.0,-0.02,0.151,0.093,0.107,0.088,0.049
1.612,-0.01,-0.005,0.005,0.01,-0.01,0.0,-0.015,0.137,0.083,0.098,0.078,0.044
1.614,0.02,0.005,-0.015,-0.01,0.015,-0.005,-0.02,0.117,0.063,0.078,0.054,0.029
1.616,0.024,0.0,-0.024,-0.01,0.024,-0.015,-0.015,0.102,0.044,0.063,0.049,0.015
1.618,0.005,-0.02,-0.024,0.01,0.015,-0.024,-0.01,0.093,0.034,0.059,0.039,0.015
1.62,-0.034,-0.039,-0.005,0.039,-0.015,-0.024,-0.005,0.078,0.02,0.049,0.029,0.005
1.622,-0.083,-0.039,0.044,0.063,-0.063,0.0,0.02,0.088,0.029,0.054,0.034,0.015
1.624,-0.078,-0.029,0.049,0.054,-0.063,0.01,0.034,0.088,0.029,0.059,0.039,0.015
1.626,-0.039,-0.02,0.02,0.029,-0.029,0.0,0.02,0.054,0.005,0.039,0.02,-0.005
1.628,-0.024,-0.034,-0.01,0.029,-0.01,-0.024,0.01,0.034,-0.02,0.015,0.0,-0.024
1.63,-0.029,-0.039,-0.01,0.034,-0.01,-0.024,0.015,0.024,-0.024,0.01,-0.005,-0.024
1.632,-0.024,-0.029,-0.005,0.029,-0.01,-0.02,0.015,0.024,-0.024,0.005,-0.01,-0.024
1.634,-0.029,-0.044,-0.015,0.039,-0.01,-0.029,0.01,0.01,-0.034,-0.01,-0.024,-0.034
1.636,-0.02,-0.054,-0.034,0.039,0.005,-0.044,0.005,-0.005,-0.049,-0.02,-0.034,-0.044
1.638,-0.005,-0.039,-0.034,0.024,0.015,-0.039,0.01,0.0,-0.039,-0.015,-0.024,-0.039
1.64,-0.02,-0.039,-0.02,0.029,0.0,-0.029,0.024,0.01,-0.034,-0.01,-0.02,-0.034
1.642,-0.039,-0.044,-0.005,0.044,-0.02,-0.024,0.029,0.01,-0.039,-0.01,-0.02,-0.029
1.644,-0.044,-0.039,0.005,0.044,-0.024,-0.02,0.034,0.01,-0.039,0.0,-0.015,-0.029
1.646,-0.073,-0.039,0.034,0.059,-0.054,-0.005,0.039,0.01,-0.034,-0.005,-0.01,-0.02
1.648,-0.098,-0.039,0.059,0.068,-0.078,0.01,0.049,0.02,-0.039,0.005,-0.005,-0.015
1.65,-0.088,-0.044,0.044,0.068,-0.068,0.0,0.044,0.015,-0.044,0.0,-0.015,-0.024
1.652,-0.078,-0.059,0.02,0.068,-0.049,-0.02,0.034,0.0,-0.054,-0.02,-0.029,-0.034
1.654,-0.063,-0.059,0.005,0.063,-0.034,-0.029,0.029,-0.005,-0.054,-0.029,-0.029,-0.034
1.656,-0.029,-0.044,-0.015,0.039,-0.01,-0.029,0.039,-0.005,-0.063,-0.029,-0.034,-0.039
1.658,0.005,-0.034,-0.039,0.015,0.02,-0.039,0.039,-0.01,-0.063,-0.034,-0.039,-0.044
1.66,-0.005,-0.029,-0.024,0.02,0.01,-0.029,0.054,0.0,-0.054,-0.029,-0.034,-0.039
1.662,-0.044,-0.029,0.015,0.039,-0.029,-0.01,0.063,0.01,-0.049,-0.015,-0.02,-0.029
1.664,-0.068,-0.034,0.034,0.054,-0.054,0.0,0.078,0.01,-0.044,-0.01,-0.015,-0.024
1.666,-0.078,-0.059,0.02,0.068,-0.049,-0.02,0.068,0.0,-0.059,-0.029,-0.029,-0.039
1.668,-0.073,-0.073,0.0,0.073,-0.039,-0.039,0.054,-0.015,-0.078,-0.044,-0.044,-0.049
1.67,-0.039,-0.059,-0.02,0.049,-0.01,-0.039,0.054,-0.02,-0.078,-0.049,-0.044,-0.054
1.672,-0.024,-0.034,-0.01,0.029,-0.01,-0.024,0.073,-0.005,-0.059,-0.029,-0.029,-0.044
1.674,-0.044,-0.044,0.0,0.044,-0.024,-0.024,0.073,0.0,-0.059,-0.029,-0.024,-0.039
1.676,-0.054,-0.049,0.005,0.054,-0.029,-0.024,0.068,-0.005,-0.059,-0.029,-0.034,-0.039
1.678,-0.059,-0.049,0.01,0.054,-0.034,-0.02,0.068,-0.005,-0.059,-0.029,-0.034,-0.034
1.68,-0.059,-0.059,0.0,0.059,-0.029,-0.029,0.063,-0.01,-0.059,-0.029,-0.034,-0.039
1.682,-0.049,-0.044,0.005,0.049,-0.029,-0.02,0.068,0.0,-0.054,-0.024,-0.029,-0.034
1.684,-0.054,-0.034,0.02,0.044,-0.039,-0.01,0.073,0.015,-0.044,-0.01,-0.015,-0.024
1.686,-0.054,-0.029,0.024,0.044,-0.039,-0.005,0.073,0.015,-0.044,-0.02,-0.015,-0.024
1.688,-0.054,-0.044,0.01,0.049,-0.034,-0.02,0.063,0.01,-0.054,-0.029,-0.024,-0.034
1.69,-0.059,-0.073,-0.015,0.068,-0.024,-0.044,0.039,-0.01,-0.073,-0.054,-0.049,-0.054
1.692,-0.034,-0.059,-0.024,0.049,-0.005,-0.044,0.039,-0.015,-0.073,-0.049,-0.044,-0.054
1.694,0.029,-0.015,-0.044,-0.005,0.034,-0.029,0.039,-0.01,-0.068,-0.049,-0.039,-0.049
1.696,-0.015,-0.029,-0.015,0.024,0.0,-0.024,0.034,0.0,-0.063,-0.039,-0.034,-0.049
1.698,-0.054,-0.044,0.01,0.049,-0.034,-0.02,0.029,-0.005,-0.063,-0.029,-0.029,-0.044
1.7,-0.068,-0.054,0.015,0.063,-0.044,-0.02,0.024,-0.01,-0.063,-0.029,-0.029,-0.039
1.702,-0.088,-0.063,0.024,0.078,-0.059,-0.02,0.024,-0.01,-0.059,-0.029,-0.024,-0.039
1.704,-0.083,-0.073,0.01,0.078,-0.049,-0.034,0.015,-0.015,-0.068,-0.029,-0.044,-0.049
1.706,-0.063,-0.068,-0.005,0.068,-0.029,-0.039,0.015,-0.02,-0.073,-0.039,-0.044,-0.049
1.708,-0.063,-0.063,0.0,0.063,-0.034,-0.034,0.02,-0.015,-0.063,-0.034,-0.039,-0.044
1.71,-0.073,-0.049,0.024,0.063,-0.049,-0.015,0.024,0.0,-0.054,-0.024,-0.029,-0.034
1.712,-0.083,-0.054,0.029,0.068,-0.059,-0.015,0.024,0.0,-0.054,-0.02,-0.029,-0.034
1.714,-0.068,-0.034,0.034,0.054,-0.054,0.0,0.024,0.01,-0.044,-0.02,-0.024,-0.029
1.716,-0.044,-0.024,0.02,0.034,-0.034,-0.005,0.034,0.02,-0.039,-0.015,-0.02,-0.029
1.718,-0.044,-0.024,0.02,0.034,-0.034,-0.005,0.039,0.029,-0.029,-0.01,-0.015,-0.024
1.72,-0.063,-0.024,0.039,0.044,-0.054,0.005,0.039,0.024,-0.024,-0.01,-0.015,-0.024
1.722,-0.068,-0.044,0.024,0.059,-0.049,-0.01,0.034,0.024,-0.034,-0.015,-0.02,-0.029
1.724,-0.068,-0.059,0.01,0.063,-0.039,-0.024,0.034,0.015,-0.044,-0.02,-0.024,-0.039
1.726,-0.049,-0.049,0.0,0.049,-0.024,-0.024,0.024,0.015,-0.044,-0.024,-0.029,-0.039
1.728,-0.068,-0.068,0.0,0.068,-0.034,-0.034,0.015,0.005,-0.054,-0.034,-0.034,-0.044
1.73,-0.093,-0.088,0.005,0.093,-0.049,-0.044,0.0,0.0,-0.063,-0.039,-0.044,-0.049
1.732,-0.078,-0.068,0.01,0.073,-0.044,-0.029,0.005,0.0,-0.054,-0.034,-0.034,-0.039
1.734,-0.034,-0.034,0.0,0.034,-0.02,-0.02,0.005,0.005,-0.049,-0.034,-0.039,-0.039
1.736,-0.039,-0.054,-0.015,0.049,-0.015,-0.034,0.0,-0.005,-0.063,-0.039,-0.044,-0.049
1.738,-0.024,-0.049,-0.024,0.039,0.0,-0.039,-0.005,-0.005,-0.063,-0.044,-0.049,-0.049
1.74,-0.044,-0.059,-0.015,0.054,-0.015,-0.039,-0.005,-0.005,-0.059,-0.044,-0.044,-0.049
1.742,-0.049,-0.049,0.0,0.049,-0.024,-0.024,0.005,0.01,-0.049,-0.039,-0.034,-0.039
1.744,-0.049,-0.054,-0.005,0.054,-0.024,-0.029,0.01,-0.01,-0.063,-0.044,-0.039,-0.049
1.746,-0.039,-0.049,-0.01,0.044,-0.015,-0.029,0.01,-0.005,-0.063,-0.049,-0.039,-0.044
1.748,-0.049,-0.049,0.0,0.049,-0.024,-0.024,0.005,-0.01,-0.068,-0.054,-0.049,-0.049
1.75,-0.044,-0.049,-0.005,0.049,-0.02,-0.029,0.005,-0.005,-0.068,-0.054,-0.049,-0.049
1.752,-0.034,-0.024,0.01,0.029,-0.024,-0.01,0.005,0.0,-0.063,-0.044,-0.039,-0.049
1.754,-0.054,-0.044,0.01,0.049,-0.034,-0.02,0.01,0.0,-0.063,-0.054,-0.044,-0.049
1.756,-0.063,-0.059,0.005,0.063,-0.034,-0.029,0.01,-0.02,-0.068,-0.059,-0.054,-0.059
1.758,-0.059,-0.044,0.015,0.054,-0.039,-0.015,0.02,-0.01,-0.063,-0.049,-0.049,-0.054
1.76,-0.083,-0.078,0.005,0.083,-0.044,-0.039,0.01,-0.024,-0.078,-0.063,-0.063,-0.068
1.762,-0.054,-0.049,0.005,0.054,-0.029,-0.024,0.029,-0.005,-0.059,-0.049,-0.049,-0.054
1.764,-0.054,-0.034,0.02,0.044,-0.039,-0.01,0.044,0.005,-0.049,-0.034,-0.034,-0.054
1.766,-0.068,-0.063,0.005,0.068,-0.039,-0.029,0.034,0.0,-0.054,-0.049,-0.044,-0.059
1.768,-0.078,-0.083,-0.005,0.083,-0.039,-0.044,0.029,-0.01,-0.063,-0.054,-0.054,-0.068
1.77,-0.078,-0.068,0.01,0.073,-0.044,-0.029,0.039,0.01,-0.049,-0.039,-0.044,-0.054
1.772,-0.054,-0.054,0.0,0.054,-0.029,-0.029,0.049,0.01,-0.044,-0.034,-0.039,-0.049
1.774,-0.024,-0.049,-0.024,0.039,0.0,-0.039,0.039,0.005,-0.049,-0.044,-0.049,-0.049
1.776,-0.01,-0.059,-0.049,0.034,0.02,-0.054,0.029,-0.005,-0.059,-0.054,-0.054,-0.063
1.778,-0.02,-0.059,-0.039,0.039,0.01,-0.049,0.034,0.005,-0.059,-0.054,-0.049,-0.063
1.78,-0.029,-0.039,-0.01,0.034,-0.01,-0.024,0.054,0.01,-0.044,-0.039,-0.039,-0.049
1.782,-0.015,-0.015,0.0,0.015,-0.01,-0.01,0.063,0.029,-0.034,-0.029,-0.029,-0.044
1.784,-0.039,-0.02,0.02,0.029,-0.029,0.0,0.073,0.034,-0.029,-0.024,-0.024,-0.039
1.786,-0.073,-0.044,0.029,0.059,-0.054,-0.01,0.078,0.039,-0.024,-0.024,-0.029,-0.039
1.788,-0.078,-0.054,0.024,0.068,-0.054,-0.015,0.078,0.039,-0.024,-0.024,-0.034,-0.044
1.79,-0.049,-0.029,0.02,0.039,-0.034,-0.005,0.078,0.039,-0.029,-0.024,-0.034,-0.039
1.792,-0.039,-0.015,0.024,0.029,-0.034,0.005,0.088,0.039,-0.02,-0.015,-0.024,-0.034
1.794,-0.034,-0.02,0.015,0.029,-0.024,-0.005,0.078,0.039,-0.029,-0.024,-0.029,-0.039
1.796,-0.044,-0.044,0.0,0.044,-0.024,-0.024,0.083,0.029,-0.039,-0.034,-0.039,-0.049
1.798,-0.054,-0.059,-0.005,0.059,-0.024,-0.034,0.078,0.024,-0.044,-0.044,-0.039,-0.054
1.8,-0.044,-0.063,-0.02,0.054,-0.015,-0.044,0.068,0.005,-0.059,-0.059,-0.054,-0.073
1.802,-0.049,-0.068,-0.02,0.059,-0.015,-0.044,0.073,0.015,-0.059,-0.059,-0.054,-0.068
1.804,-0.015,-0.02,-0.005,0.02,-0.005,-0.015,0.102,0.039,-0.039,-0.034,-0.024,-0.049
1.806,-0.015,0.005,0.02,0.005,-0.02,0.01,0.112,0.049,-0.024,-0.024,-0.024,-0.039
1.808,-0.015,-0.005,0.01,0.01,-0.015,0.0,0.107,0.044,-0.029,-0.029,-0.029,-0.039
1.81,-0.029,-0.005,0.024,0.02,-0.029,0.01,0.112,0.049,-0.02,-0.024,-0.02,-0.039
1.812,-0.049,-0.005,0.044,0.029,-0.049,0.02,0.112,0.044,-0.02,-0.024,-0.02,-0.039
1.814,-0.049,-0.005,0.044,0.029,-0.049,0.02,0.117,0.044,-0.02,-0.02,-0.015,-0.039
1.816,-0.083,-0.029,0.054,0.059,-0.068,0.01,0.117,0.049,-0.02,-0.015,-0.015,-0.034
1.818,-0.098,-0.034,0.063,0.068,-0.083,0.015,0.107,0.044,-0.02,-0.015,-0.015,-0.034
1.82,-0.044,0.0,0.044,0.024,-0.044,0.02,0.102,0.049,-0.01,-0.005,-0.005,-0.024
1.822,-0.015,0.015,0.029,0.0,-0.024,0.02,0.083,0.044,-0.015,-0.015,-0.01,-0.029
1.824,0.0,0.005,0.005,0.0,-0.005,0.005,0.068,0.029,-0.024,-0.02,-0.015,-0.039
1.826,-0.024,0.01,0.034,0.01,-0.029,0.02,0.063,0.039,-0.02,-0.005,0.0,-0.024
1.828,-0.063,-0.005,0.059,0.034,-0.063,0.024,0.059,0.039,-0.02,-0.01,-0.005,-0.024
1.83,-0.073,-0.029,0.044,0.054,-0.059,0.005,0.039,0.02,-0.029,-0.029,-0.024,-0.039
1.832,-0.059,-0.024,0.034,0.044,-0.049,0.005,0.029,0.015,-0.029,-0.029,-0.02,-0.034
1.834,-0.054,-0.02,0.034,0.039,-0.044,0.005,0.02,0.005,-0.034,-0.039,-0.024,-0.039
1.836,-0.059,-0.029,0.029,0.044,-0.044,0.0,0.02,0.005,-0.034,-0.039,-0.029,-0.044
1.838,-0.059,-0.039,0.02,0.049,-0.039,-0.01,0.01,-0.015,-0.049,-0.044,-0.039,-0.049
1.84,-0.044,-0.024,0.02,0.034,-0.034,-0.005,0.01,-0.015,-0.044,-0.039,-0.029,-0.044
1.842,-0.054,-0.02,0.034,0.039,-0.044,0.005,0.02,0.0,-0.044,-0.034,-0.024,-0.034
1.844,-0.049,-0.024,0.024,0.039,-0.039,0.0,0.02,0.0,-0.044,-0.024,-0.024,-0.034
1.846,-0.024,0.015,0.039,0.005,-0.034,0.024,0.034,0.01,-0.029,-0.015,-0.005,-0.02
1.848,-0.005,0.029,0.034,-0.01,-0.02,0.029,0.039,0.024,-0.02,-0.01,0.0,-0.015
1.85,-0.029,0.0,0.029,0.015,-0.029,0.015,0.024,0.005,-0.039,-0.029,-0.015,-0.029
1.852,-0.029,-0.01,0.02,0.02,-0.024,0.005,0.01,-0.01,-0.049,-0.039,-0.024,-0.044
1.854,-0.034,-0.029,0.005,0.034,-0.02,-0.015,0.0,-0.024,-0.054,-0.049,-0.034,-0.049
1.856,-0.049,-0.039,0.01,0.044,-0.029,-0.015,-0.01,-0.029,-0.054,-0.054,-0.044,-0.054
1.858,-0.054,-0.044,0.01,0.049,-0.034,-0.02,-0.024,-0.034,-0.059,-0.054,-0.044,-0.054
1.86,-0.059,-0.039,0.02,0.049,-0.039,-0.01,-0.02,-0.029,-0.063,-0.049,-0.039,-0.049
1.862,-0.044,-0.034,0.01,0.039,-0.029,-0.015,-0.024,-0.034,-0.059,-0.049,-0.044,-0.049
1.864,-0.049,-0.039,0.01,0.044,-0.029,-0.015,-0.024,-0.029,-0.063,-0.039,-0.044,-0.054
1.866,-0.029,-0.039,-0.01,0.034,-0.01,-0.024,-0.039,-0.044,-0.078,-0.059,-0.049,-0.059
1.868,-0.005,-0.02,-0.015,0.015,0.005,-0.02,-0.039,-0.034,-0.078,-0.054,-0.049,-0.059
1.87,0.0,0.005,0.005,0.0,-0.005,0.005,-0.024,-0.029,-0.068,-0.049,-0.039,-0.049
1.872,-0.024,-0.02,0.005,0.024,-0.015,-0.01,-0.039,-0.039,-0.078,-0.063,-0.049,-0.059
1.874,-0.01,-0.049,-0.039,0.029,0.015,-0.044,-0.063,-0.059,-0.098,-0.093,-0.068,-0.078
1.876,0.02,0.005,-0.015,-0.01,0.015,-0.005,-0.034,-0.044,-0.073,-0.073,-0.054,-0.063
1.878,-0.005,0.02,0.024,-0.005,-0.015,0.02,-0.015,-0.029,-0.059,-0.049,-0.034,-0.044
1.88,-0.044,-0.015,0.029,0.029,-0.039,0.005,-0.034,-0.039,-0.078,-0.063,-0.044,-0.049
1.882,-0.098,-0.054,0.044,0.078,-0.073,-0.005,-0.034,-0.039,-0.078,-0.068,-0.044,-0.049
1.884,-0.024,-0.02,0.005,0.024,-0.015,-0.01,-0.034,-0.044,-0.078,-0.063,-0.049,-0.054
1.886,0.02,-0.01,-0.029,-0.005,0.024,-0.02,-0.034,-0.044,-0.083,-0.063,-0.049,-0.054
1.888,-0.02,-0.029,-0.01,0.024,-0.005,-0.02,-0.044,-0.049,-0.088,-0.068,-0.059,-0.063
1.89,-0.049,-0.034,0.015,0.044,-0.034,-0.01,-0.024,-0.034,-0.078,-0.063,-0.044,-0.049
1.892,-0.059,-0.039,0.02,0.049,-0.039,-0.01,-0.024,-0.029,-0.068,-0.059,-0.039,-0.049
1.894,-0.039,-0.029,0.01,0.034,-0.024,-0.01,-0.015,-0.024,-0.068,-0.063,-0.044,-0.049
1.896,-0.01,-0.024,-0.015,0.02,0.0,-0.02,-0.02,-0.039,-0.088,-0.073,-0.059,-0.068
1.898,0.005,-0.034,-0.039,0.015,0.02,-0.039,-0.024,-0.049,-0.088,-0.083,-0.059,-0.073
1.9,0.0,-0.029,-0.029,0.015,0.015,-0.029,-0.015,-0.039,-0.088,-0.073,-0.059,-0.068
1.902,-0.029,-0.039,-0.01,0.034,-0.01,-0.024,-0.005,-0.034,-0.088,-0.073,-0.063,-0.068
1.904,-0.068,-0.059,0.01,0.063,-0.039,-0.024,0.005,-0.034,-0.078,-0.063,-0.054,-0.063
1.906,-0.054,-0.029,0.024,0.044,-0.039,-0.005,0.024,-0.015,-0.068,-0.049,-0.034,-0.049
1.908,-0.093,-0.039,0.054,0.068,-0.073,0.005,0.034,-0.01,-0.063,-0.049,-0.034,-0.049
1.91,-0.112,-0.063,0.049,0.088,-0.083,-0.01,0.029,-0.02,-0.068,-0.063,-0.044,-0.059
1.912,-0.093,-0.073,0.02,0.083,-0.059,-0.029,0.02,-0.024,-0.078,-0.073,-0.059,-0.063
1.914,-0.078,-0.063,0.015,0.073,-0.049,-0.024,0.034,-0.02,-0.073,-0.078,-0.054,-0.063
1.916,-0.005,-0.01,-0.005,0.01,0.0,-0.01,0.039,-0.015,-0.063,-0.063,-0.054,-0.059
1.918,0.0,-0.02,-0.02,0.01,0.01,-0.02,0.029,-0.029,-0.073,-0.068,-0.059,-0.068
1.92,-0.054,-0.063,-0.01,0.059,-0.024,-0.039,0.029,-0.034,-0.078,-0.078,-0.063,-0.073
1.922,-0.073,-0.068,0.005,0.073,-0.039,-0.034,0.039,-0.029,-0.073,-0.073,-0.059,-0.068
1.924,-0.034,-0.02,0.015,0.029,-0.024,-0.005,0.049,-0.01,-0.059,-0.054,-0.044,-0.054
1.926,-0.034,0.0,0.034,0.02,-0.034,0.015,0.078,0.005,-0.044,-0.029,-0.029,-0.034
1.928,-0.024,-0.01,0.015,0.02,-0.02,0.0,0.068,0.0,-0.049,-0.044,-0.044,-0.049
1.93,-0.015,-0.015,0.0,0.015,-0.01,-0.01,0.068,-0.005,-0.049,-0.049,-0.049,-0.054
1.932,0.0,-0.015,-0.015,0.01,0.005,-0.015,0.068,-0.005,-0.054,-0.049,-0.049,-0.054
1.934,-0.02,-0.01,0.01,0.015,-0.015,0.0,0.078,0.0,-0.054,-0.054,-0.049,-0.054
1.936,-0.054,-0.02,0.034,0.039,-0.044,0.005,0.083,0.0,-0.049,-0.049,-0.049,-0.049
1.938,-0.068,-0.02,0.049,0.044,-0.059,0.015,0.088,-0.005,-0.044,-0.044,-0.039,-0.039
1.94,-0.059,-0.02,0.039,0.039,-0.049,0.01,0.078,-0.01,-0.054,-0.049,-0.044,-0.049
1.942,-0.049,-0.005,0.044,0.029,-0.049,0.02,0.078,-0.015,-0.059,-0.054,-0.049,-0.049
1.944,-0.034,-0.005,0.029,0.02,-0.034,0.01,0.073,-0.015,-0.063,-0.054,-0.044,-0.049
1.946,-0.024,-0.01,0.015,0.02,-0.02,0.0,0.063,-0.024,-0.068,-0.063,-0.049,-0.049
1.948,-0.034,-0.015,0.02,0.024,-0.029,0.0,0.063,-0.02,-0.068,-0.059,-0.059,-0.054
1.95,-0.034,-0.015,0.02,0.024,-0.029,0.0,0.059,-0.024,-0.073,-0.063,-0.063,-0.059
1.952,-0.034,-0.02,0.015,0.029,-0.024,-0.005,0.049,-0.029,-0.073,-0.068,-0.063,-0.063
1.954,-0.068,-0.034,0.034,0.054,-0.054,0.0,0.049,-0.029,-0.068,-0.068,-0.063,-0.063
1.956,-0.034,0.01,0.044,0.015,-0.039,0.024,0.063,-0.015,-0.049,-0.049,-0.044,-0.049
1.958,0.024,0.029,0.005,-0.024,0.01,0.015,0.054,-0.015,-0.054,-0.063,-0.049,-0.044
1.96,0.039,-0.005,-0.044,-0.015,0.039,-0.024,0.024,-0.044,-0.088,-0.088,-0.078,-0.073
1.962,0.005,-0.024,-0.029,0.01,0.015,-0.029,0.024,-0.049,-0.083,-0.093,-0.083,-0.078
1.964,-0.049,-0.049,0.0,0.049,-0.024,-0.024,0.029,-0.034,-0.078,-0.083,-0.073,-0.068
1.966,-0.083,-0.063,0.02,0.073,-0.054,-0.024,0.039,-0.039,-0.083,-0.083,-0.068,-0.068
1.968,-0.063,-0.034,0.029,0.049,-0.049,-0.005,0.049,-0.024,-0.068,-0.068,-0.063,-0.054
1.97,-0.039,-0.015,0.024,0.029,-0.034,0.005,0.049,-0.024,-0.073,-0.068,-0.063,-0.054
1.972,-0.044,-0.029,0.015,0.039,-0.029,-0.01,0.039,-0.024,-0.083,-0.073,-0.068,-0.054
1.974,-0.034,-0.01,0.024,0.024,-0.029,0.005,0.044,-0.02,-0.073,-0.068,-0.063,-0.049
1.976,-0.029,0.005,0.034,0.015,-0.034,0.02,0.049,-0.015,-0.073,-0.059,-0.059,-0.049
1.978,-0.044,-0.034,0.01,0.039,-0.029,-0.015,0.034,-0.034,-0.083,-0.073,-0.073,-0.059
1.98,-0.034,-0.044,-0.01,0.039,-0.015,-0.029,0.02,-0.054,-0.098,-0.088,-0.083,-0.073
1.982,-0.02,-0.024,-0.005,0.024,-0.01,-0.015,0.024,-0.044,-0.088,-0.078,-0.073,-0.068
1.984,0.01,-0.015,-0.024,0.005,0.015,-0.02,0.024,-0.039,-0.088,-0.078,-0.068,-0.063
1.986,0.039,0.0,-0.039,-0.02,0.039,-0.02,0.01,-0.044,-0.093,-0.088,-0.073,-0.068
1.988,0.005,-0.024,-0.029,0.01,0.015,-0.029,0.0,-0.049,-0.093,-0.088,-0.078,-0.068
1.99,-0.063,-0.039,0.024,0.054,-0.044,-0.01,0.005,-0.044,-0.088,-0.078,-0.063,-0.054
1.992,-0.044,-0.049,-0.005,0.049,-0.02,-0.029,-0.015,-0.054,-0.093,-0.088,-0.073,-0.068
1.994,-0.049,-0.049,0.0,0.049,-0.024,-0.024,-0.02,-0.059,-0.098,-0.088,-0.083,-0.078
1.996,-0.039,-0.034,0.005,0.039,-0.024,-0.015,-0.015,-0.054,-0.083,-0.078,-0.078,-0.063
1.998,-0.029,-0.024,0.005,0.029,-0.02,-0.01,-0.01,-0.044,-0.083,-0.073,-0.068,-0.059
2.0,-0.02,-0.044,-0.024,0.034,0.0,-0.034,-0.029,-0.068,-0.098,-0.088,-0.088,-0.078
2.002,-0.01,-0.044,-0.034,0.029,0.01,-0.039,-0.034,-0.068,-0.102,-0.088,-0.088,-0.078
2.004,-0.01,-0.024,-0.015,0.02,0.0,-0.02,-0.024,-0.063,-0.093,-0.078,-0.078,-0.068
2.006,0.0,-0.01,-0.01,0.005,0.005,-0.01,-0.02,-0.063,-0.088,-0.068,-0.068,-0.063
2.008,-0.005,-0.024,-0.02,0.015,0.005,-0.024,-0.029,-0.068,-0.098,-0.088,-0.078,-0.073
2.01,-0.024,-0.029,-0.005,0.029,-0.01,-0.02,-0.029,-0.063,-0.093,-0.088,-0.078,-0.068
2.012,-0.049,-0.02,0.029,0.034,-0.039,0.005,-0.015,-0.054,-0.083,-0.073,-0.068,-0.059
2.014,-0.063,-0.029,0.034,0.049,-0.049,0.0,-0.005,-0.059,-0.088,-0.078,-0.073,-0.063
2.016,-0.093,-0.049,0.044,0.073,-0.068,-0.005,-0.005,-0.054,-0.088,-0.078,-0.078,-0.063
2.018,-0.098,-0.059,0.039,0.078,-0.068,-0.01,-0.005,-0.063,-0.093,-0.088,-0.083,-0.068
2.02,-0.054,-0.049,0.005,0.054,-0.029,-0.024,-0.01,-0.073,-0.102,-0.098,-0.093,-0.078
2.022,-0.039,-0.029,0.01,0.034,-0.024,-0.01,0.0,-0.068,-0.098,-0.093,-0.088,-0.078
2.024,-0.039,-0.029,0.01,0.034,-0.024,-0.01,0.005,-0.063,-0.093,-0.093,-0.088,-0.073
2.026,-0.034,-0.029,0.005,0.034,-0.02,-0.015,0.005,-0.068,-0.107,-0.102,-0.093,-0.078
2.028,0.005,0.005,0.0,-0.005,0.0,0.0,0.02,-0.054,-0.093,-0.083,-0.083,-0.078
2.03,-0.005,0.01,0.015,0.0,-0.01,0.01,0.024,-0.044,-0.093,-0.083,-0.073,-0.073
2.032,-0.039,-0.029,0.01,0.034,-0.024,-0.01,0.02,-0.049,-0.093,-0.093,-0.083,-0.078
2.034,-0.034,-0.024,0.01,0.029,-0.024,-0.01,0.024,-0.059,-0.093,-0.098,-0.083,-0.078
2.036,-0.044,-0.039,0.005,0.044,-0.024,-0.02,0.02,-0.068,-0.102,-0.102,-0.102,-0.093
2.038,-0.049,-0.044,0.005,0.049,-0.029,-0.02,0.015,-0.073,-0.107,-0.107,-0.107,-0.093
2.04,-0.059,-0.044,0.015,0.054,-0.039,-0.015,0.024,-0.073,-0.098,-0.102,-0.098,-0.088
2.042,-0.054,-0.044,0.01,0.049,-0.034,-0.02,0.034,-0.068,-0.093,-0.093,-0.093,-0.078
2.044,-0.059,-0.034,0.024,0.049,-0.044,-0.005,0.034,-0.063,-0.088,-0.098,-0.088,-0.073
2.046,-0.039,-0.039,0.0,0.039,-0.02,-0.02,0.034,-0.063,-0.093,-0.098,-0.093,-0.073
2.048,-0.044,-0.049,-0.005,0.049,-0.02,-0.029,0.029,-0.063,-0.102,-0.102,-0.098,-0.083
2.05,-0.083,-0.063,0.02,0.073,-0.054,-0.024,0.044,-0.054,-0.093,-0.088,-0.088,-0.078
2.052,-0.098,-0.059,0.039,0.078,-0.068,-0.01,0.054,-0.059,-0.093,-0.088,-0.088,-0.073
2.054,-0.044,-0.024,0.02,0.034,-0.034,-0.005,0.063,-0.059,-0.093,-0.093,-0.088,-0.068
2.056,-0.029,-0.02,0.01,0.024,-0.02,-0.005,0.059,-0.063,-0.093,-0.093,-0.088,-0.078
2.058,-0.044,-0.044,0.0,0.044,-0.024,-0.024,0.044,-0.083,-0.102,-0.112,-0.107,-0.088
2.06,-0.059,-0.049,0.01,0.054,-0.034,-0.02,0.044,-0.078,-0.098,-0.107,-0.102,-0.078
2.062,-0.073,-0.044,0.029,0.059,-0.054,-0.01,0.044,-0.083,-0.102,-0.107,-0.102,-0.083
2.064,-0.059,-0.029,0.029,0.044,-0.044,0.0,0.049,-0.073,-0.098,-0.098,-0.098,-0.078
2.066,-0.034,-0.024,0.01,0.029,-0.024,-0.01,0.039,-0.083,-0.107,-0.102,-0.098,-0.083
2.068,-0.029,-0.049,-0.02,0.039,-0.005,-0.034,0.029,-0.088,-0.117,-0.117,-0.112,-0.093
2.07,0.0,-0.034,-0.034,0.02,0.015,-0.034,0.024,-0.093,-0.117,-0.112,-0.112,-0.098
2.072,0.01,-0.029,-0.039,0.01,0.024,-0.034,0.029,-0.088,-0.117,-0.112,-0.107,-0.088
2.074,-0.02,-0.024,-0.005,0.024,-0.01,-0.015,0.039,-0.083,-0.102,-0.098,-0.098,-0.078
2.076,-0.029,-0.01,0.02,0.02,-0.024,0.005,0.049,-0.073,-0.098,-0.098,-0.088,-0.078
2.078,-0.059,-0.039,0.02,0.049,-0.039,-0.01,0.039,-0.083,-0.102,-0.107,-0.098,-0.078
2.08,-0.059,-0.044,0.015,0.054,-0.039,-0.015,0.044,-0.088,-0.102,-0.107,-0.107,-0.078
2.082,-0.049,-0.039,0.01,0.044,-0.029,-0.015,0.039,-0.093,-0.112,-0.112,-0.117,-0.088
2.084,-0.044,-0.049,-0.005,0.049,-0.02,-0.029,0.034,-0.093,-0.112,-0.117,-0.112,-0.088
2.086,-0.049,-0.039,0.01,0.044,-0.029,-0.015,0.049,-0.088,-0.102,-0.102,-0.102,-0.078
2.088,-0.024,-0.029,-0.005,0.029,-0.01,-0.02,0.044,-0.088,-0.112,-0.107,-0.107,-0.078
2.09,-0.029,-0.039,-0.01,0.034,-0.01,-0.024,0.034,-0.088,-0.107,-0.107,-0.107,-0.088
2.092,-0.054,-0.044,0.01,0.049,-0.034,-0.02,0.034,-0.078,-0.098,-0.112,-0.098,-0.078
2.094,-0.054,-0.039,0.015,0.049,-0.034,-0.015,0.029,-0.083,-0.093,-0.107,-0.102,-0.078
2.096,-0.039,-0.024,0.015,0.034,-0.029,-0.005,0.029,-0.078,-0.098,-0.102,-0.098,-0.078
2.098,-0.02,-0.02,0.0,0.02,-0.01,-0.01,0.02,-0.093,-0.107,-0.112,-0.107,-0.083
2.1,-0.015,-0.024,-0.01,0.02,-0.005,-0.02,0.01,-0.102,-0.117,-0.127,-0.112,-0.083
2.102,-0.02,-0.015,0.005,0.02,-0.015,-0.005,0.015,-0.102,-0.112,-0.117,-0.117,-0.083
2.104,-0.029,-0.024,0.005,0.029,-0.02,-0.01,0.01,-0.098,-0.112,-0.117,-0.112,-0.083
2.106,-0.049,-0.029,0.02,0.039,-0.034,-0.005,0.02,-0.098,-0.107,-0.117,-0.112,-0.078
2.108,-0.063,-0.044,0.02,0.054,-0.044,-0.015,0.015,-0.102,-0.112,-0.122,-0.117,-0.083
2.11,-0.068,-0.049,0.02,0.059,-0.044,-0.015,0.015,-0.102,-0.112,-0.122,-0.117,-0.088
2.112,-0.063,-0.049,0.015,0.059,-0.039,-0.02,0.015,-0.102,-0.117,-0.127,-0.122,-0.088
2.114,-0.049,-0.049,0.0,0.049,-0.024,-0.024,0.01,-0.107,-0.117,-0.132,-0.122,-0.093
2.116,-0.02,-0.034,-0.015,0.029,-0.005,-0.024,0.01,-0.107,-0.117,-0.132,-0.122,-0.093
2.118,-0.02,-0.049,-0.029,0.034,0.005,-0.039,0.0,-0.117,-0.132,-0.146,-0.137,-0.102
2.12,-0.024,-0.068,-0.044,0.049,0.01,-0.059,-0.01,-0.132,-0.137,-0.156,-0.142,-0.122
2.122,-0.039,-0.039,0.0,0.039,-0.02,-0.02,0.02,-0.102,-0.117,-0.132,-0.117,-0.093
2.124,-0.073,-0.029,0.044,0.054,-0.059,0.005,0.029,-0.083,-0.098,-0.107,-0.102,-0.068
2.126,-0.063,-0.039,0.024,0.054,-0.044,-0.01,0.024,-0.093,-0.102,-0.117,-0.112,-0.078
2.128,-0.044,-0.044,0.0,0.044,-0.024,-0.024,0.024,-0.102,-0.107,-0.122,-0.122,-0.083
2.13,-0.049,-0.054,-0.005,0.054,-0.024,-0.029,0.015,-0.107,-0.117,-0.127,-0.127,-0.098
2.132,-0.044,-0.059,-0.015,0.054,-0.015,-0.039,0.015,-0.107,-0.112,-0.137,-0.132,-0.098
2.134,-0.015,-0.054,-0.039,0.034,0.01,-0.049,0.005,-0.117,-0.127,-0.146,-0.142,-0.107
2.136,-0.015,-0.059,-0.044,0.039,0.015,-0.054,0.01,-0.112,-0.122,-0.142,-0.137,-0.107
2.138,-0.073,-0.078,-0.005,0.078,-0.034,-0.044,0.02,-0.112,-0.112,-0.137,-0.132,-0.098
2.14,-0.102,-0.068,0.034,0.088,-0.068,-0.02,0.034,-0.098,-0.098,-0.117,-0.117,-0.078
2.142,-0.059,-0.029,0.029,0.044,-0.044,0.0,0.029,-0.093,-0.098,-0.107,-0.112,-0.078
2.144,-0.039,-0.015,0.024,0.029,-0.034,0.005,0.029,-0.093,-0.102,-0.112,-0.117,-0.078
2.146,-0.073,-0.034,0.039,0.054,-0.059,0.0,0.029,-0.098,-0.102,-0.112,-0.112,-0.078
2.148,-0.059,-0.034,0.024,0.049,-0.044,-0.005,0.015,-0.107,-0.117,-0.117,-0.122,-0.088
2.15,0.005,0.0,-0.005,0.0,0.005,-0.005,0.01,-0.107,-0.117,-0.122,-0.127,-0.098
2.152,-0.005,0.01,0.015,0.0,-0.01,0.01,0.01,-0.107,-0.112,-0.127,-0.122,-0.093
2.154,-0.059,-0.024,0.034,0.044,-0.049,0.005,0.01,-0.112,-0.117,-0.132,-0.127,-0.093
2.156,-0.059,-0.039,0.02,0.049,-0.039,-0.01,-0.005,-0.122,-0.122,-0.146,-0.142,-0.107
2.158,-0.034,-0.044,-0.01,0.039,-0.015,-0.029,-0.01,-0.132,-0.132,-0.151,-0.146,-0.107
2.16,-0.039,-0.049,-0.01,0.044,-0.015,-0.029,-0.01,-0.142,-0.132,-0.151,-0.146,-0.107
2.162,-0.044,-0.049,-0.005,0.049,-0.02,-0.029,-0.01,-0.137,-0.132,-0.151,-0.156,-0.112
2.164,-0.02,-0.024,-0.005,0.024,-0.01,-0.015,0.005,-0.122,-0.122,-0.137,-0.146,-0.102
2.166,-0.02,-0.015,0.005,0.02,-0.015,-0.005,0.0,-0.117,-0.122,-0.137,-0.137,-0.098
2.168,-0.034,-0.02,0.015,0.029,-0.024,-0.005,-0.005,-0.122,-0.127,-0.146,-0.137,-0.098
2.17,-0.063,-0.039,0.024,0.054,-0.044,-0.01,-0.005,-0.122,-0.122,-0.146,-0.137,-0.098
2.172,-0.059,-0.034,0.024,0.049,-0.044,-0.005,0.0,-0.112,-0.117,-0.142,-0.127,-0.088
2.174,-0.029,-0.039,-0.01,0.034,-0.01,-0.024,-0.015,-0.127,-0.127,-0.151,-0.142,-0.102
2.176,-0.02,-0.049,-0.029,0.034,0.005,-0.039,-0.024,-0.142,-0.137,-0.161,-0.151,-0.112
2.178,-0.039,-0.059,-0.02,0.049,-0.01,-0.039,-0.015,-0.137,-0.132,-0.156,-0.146,-0.112
2.18,-0.039,-0.044,-0.005,0.044,-0.02,-0.024,0.0,-0.132,-0.127,-0.146,-0.142,-0.098
2.182,-0.059,-0.049,0.01,0.054,-0.034,-0.02,0.01,-0.132,-0.117,-0.142,-0.137,-0.098
2.184,-0.088,-0.063,0.024,0.078,-0.059,-0.02,0.015,-0.127,-0.122,-0.142,-0.142,-0.102
2.186,-0.083,-0.073,0.01,0.078,-0.049,-0.034,0.015,-0.127,-0.127,-0.156,-0.151,-0.107
2.188,-0.049,-0.054,-0.005,0.054,-0.024,-0.029,0.015,-0.132,-0.132,-0.161,-0.151,-0.102
2.19,-0.029,-0.063,-0.034,0.049,0.0,-0.049,0.005,-0.142,-0.137,-0.171,-0.161,-0.117
2.192,-0.029,-0.063,-0.034,0.049,0.0,-0.049,0.01,-0.137,-0.137,-0.166,-0.151,-0.107
2.194,-0.049,-0.044,0.005,0.049,-0.029,-0.02,0.02,-0.122,-0.122,-0.146,-0.137,-0.102
2.196,-0.068,-0.039,0.029,0.054,-0.049,-0.005,0.029,-0.112,-0.112,-0.142,-0.127,-0.102
2.198,-0.054,-0.044,0.01,0.049,-0.034,-0.02,0.034,-0.112,-0.112,-0.142,-0.132,-0.102
2.2,-0.044,-0.059,-0.015,0.054,-0.015,-0.039,0.024,-0.127,-0.122,-0.156,-0.151,-0.112
2.202,-0.02,-0.063,-0.044,0.044,0.01,-0.054,0.029,-0.132,-0.127,-0.171,-0.161,-0.122
2.204,-0.005,-0.073,-0.068,0.039,0.029,-0.073,0.039,-0.107,-0.132,-0.181,-0.176,-0.137
2.206,-0.063,-0.078,-0.015,0.073,-0.024,-0.049,0.098,-0.024,-0.073,-0.146,-0.156,-0.122
2.208,-0.112,-0.083,0.029,0.098,-0.073,-0.029,0.161,0.063,-0.01,-0.117,-0.151,-0.132
2.21,-0.132,-0.122,0.01,0.127,-0.073,-0.059,0.195,0.146,0.039,-0.102,-0.166,-0.166
2.212,-0.073,-0.112,-0.039,0.093,-0.02,-0.078,0.2,0.2,0.098,-0.068,-0.151,-0.166
2.214,-0.039,-0.083,-0.044,0.063,0.0,-0.063,0.181,0.21,0.142,-0.015,-0.117,-0.156
2.216,-0.015,-0.063,-0.049,0.039,0.015,-0.059,0.166,0.273,0.229,0.073,-0.059,-0.122
2.218,0.044,-0.005,-0.049,-0.02,0.044,-0.029,0.166,0.39,0.346,0.185,0.034,-0.059
2.22,0.083,0.039,-0.044,-0.059,0.063,-0.005,0.151,0.449,0.444,0.298,0.146,0.029
2.222,0.093,0.078,-0.015,-0.083,0.054,0.029,0.132,0.449,0.532,0.425,0.283,0.137
2.224,0.142,0.161,0.02,-0.151,0.059,0.088,0.068,0.312,0.556,0.551,0.439,0.278
2.226,0.21,0.273,0.063,-0.239,0.073,0.166,-0.059,-0.005,0.464,0.63,0.6,0.439
2.228,0.288,0.371,0.083,-0.327,0.102,0.224,-0.22,-0.429,0.283,0.654,0.752,0.62
2.23,0.371,0.464,0.093,-0.415,0.137,0.278,-0.376,-0.761,0.117,0.669,0.908,0.81
2.232,0.464,0.537,0.073,-0.498,0.195,0.303,-0.498,-0.981,-0.005,0.673,1.044,0.976
2.234,0.556,0.649,0.093,-0.6,0.229,0.371,-0.605,-1.113,-0.044,0.737,1.196,1.152
2.236,0.62,0.756,0.137,-0.688,0.239,0.444,-0.742,-1.205,-0.01,0.859,1.371,1.308
2.238,0.625,0.874,0.249,-0.747,0.185,0.561,-0.805,-1.313,-0.039,0.898,1.459,1.42
2.24,0.547,0.917,0.371,-0.732,0.088,0.644,-0.8,-1.454,-0.22,0.737,1.352,1.386
2.242,0.464,0.83,0.366,-0.644,0.049,0.595,-0.766,-1.601,-0.493,0.405,1.044,1.2
2.244,0.371,0.698,0.327,-0.532,0.02,0.512,-0.717,-1.767,-0.83,-0.005,0.669,0.966
2.246,0.244,0.6,0.356,-0.42,-0.059,0.478,-0.664,-1.923,-1.166,-0.4,0.307,0.722
2.248,0.117,0.503,0.386,-0.307,-0.137,0.444,-0.586,-1.986,-1.376,-0.703,-0.029,0.439
2.25,-0.044,0.371,0.415,-0.161,-0.229,0.39,-0.503,-1.913,-1.44,-0.888,-0.312,0.156
2.252,-0.137,0.278,0.415,-0.068,-0.278,0.346,-0.444,-1.698,-1.318,-0.888,-0.41,-0.015
2.254,-0.112,0.195,0.307,-0.039,-0.21,0.249,-0.434,-1.479,-1.152,-0.839,-0.459,-0.127
2.256,-0.068,0.146,0.215,-0.039,-0.142,0.181,-0.425,-1.244,-0.981,-0.742,-0.444,-0.176
2.258,-0.049,0.127,0.176,-0.039,-0.112,0.151,-0.4,-1.005,-0.791,-0.62,-0.376,-0.156
2.26,-0.029,0.112,0.142,-0.039,-0.088,0.127,-0.346,-0.8,-0.62,-0.503,-0.307,-0.137
2.262,-0.044,0.088,0.132,-0.02,-0.088,0.107,-0.278,-0.644,-0.498,-0.405,-0.254,-0.122
2.264,-0.059,0.059,0.117,0.0,-0.088,0.088,-0.205,-0.493,-0.39,-0.332,-0.21,-0.107
2.266,-0.029,0.073,0.102,-0.02,-0.068,0.088,-0.142,-0.371,-0.293,-0.268,-0.176,-0.098
2.268,-0.029,0.049,0.078,-0.01,-0.054,0.063,-0.102,-0.283,-0.224,-0.229,-0.156,-0.088
2.27,-0.054,0.015,0.068,0.02,-0.063,0.039,-0.063,-0.224,-0.181,-0.2,-0.146,-0.093
2.272,-0.068,-0.005,0.063,0.039,-0.068,0.029,-0.039,-0.181,-0.156,-0.19,-0.142,-0.093
2.274,-0.059,-0.015,0.044,0.039,-0.054,0.015,-0.015,-0.151,-0.137,-0.181,-0.142,-0.098
2.276,-0.044,-0.01,0.034,0.029,-0.039,0.01,0.005,-0.127,-0.112,-0.161,-0.137,-0.098
2.278,-0.068,-0.024,0.044,0.049,-0.059,0.01,0.034,-0.102,-0.093,-0.142,-0.122,-0.083
2.28,-0.054,-0.034,0.02,0.044,-0.039,-0.01,0.049,-0.083,-0.078,-0.137,-0.117,-0.083
2.282,0.0,-0.02,-0.02,0.01,0.01,-0.02,0.044,-0.068,-0.073,-0.132,-0.122,-0.093
2.284,-0.005,-0.029,-0.024,0.02,0.01,-0.029,0.049,-0.054,-0.073,-0.127,-0.117,-0.093
2.286,-0.029,-0.049,-0.02,0.039,-0.005,-0.034,0.054,-0.039,-0.059,-0.122,-0.122,-0.093
2.288,-0.034,-0.034,0.0,0.034,-0.02,-0.02,0.068,-0.029,-0.044,-0.117,-0.117,-0.093
2.29,-0.034,-0.049,-0.015,0.044,-0.01,-0.034,0.063,-0.029,-0.054,-0.132,-0.127,-0.102
2.292,-0.039,-0.063,-0.024,0.054,-0.01,-0.044,0.059,-0.029,-0.054,-0.137,-0.132,-0.107
2.294,-0.054,-0.063,-0.01,0.059,-0.024,-0.039,0.063,-0.015,-0.044,-0.127,-0.132,-0.107
2.296,-0.063,-0.068,-0.005,0.068,-0.029,-0.039,0.073,-0.02,-0.044,-0.127,-0.127,-0.107
2.298,-0.054,-0.078,-0.024,0.068,-0.015,-0.054,0.073,-0.02,-0.044,-0.127,-0.127,-0.112
2.3,-0.034,-0.059,-0.024,0.049,-0.005,-0.044,0.078,-0.01,-0.039,-0.117,-0.122,-0.102
2.302,-0.068,-0.049,0.02,0.059,-0.044,-0.015,0.098,0.024,-0.01,-0.088,-0.098,-0.083
2.304,-0.122,-0.063,0.059,0.093,-0.093,-0.005,0.102,0.034,-0.005,-0.083,-0.083,-0.073
2.306,-0.083,-0.059,0.024,0.073,-0.054,-0.02,0.098,0.044,-0.01,-0.083,-0.093,-0.078
2.308,-0.054,-0.049,0.005,0.054,-0.029,-0.024,0.088,0.034,-0.005,-0.088,-0.102,-0.083
2.31,-0.015,-0.039,-0.024,0.029,0.005,-0.034,0.083,0.029,-0.01,-0.098,-0.107,-0.093
2.312,0.01,-0.034,-0.044,0.015,0.024,-0.039,0.073,0.02,-0.02,-0.122,-0.117,-0.093
2.314,0.02,-0.024,-0.044,0.005,0.029,-0.034,0.083,0.029,-0.005,-0.112,-0.117,-0.102
2.316,0.01,-0.029,-0.039,0.01,0.024,-0.034,0.088,0.02,-0.01,-0.112,-0.112,-0.102
2.318,-0.02,-0.059,-0.039,0.039,0.01,-0.049,0.088,0.02,-0.015,-0.107,-0.117,-0.102
2.32,-0.039,-0.078,-0.039,0.059,0.0,-0.059,0.088,0.02,-0.015,-0.107,-0.112,-0.107
2.322,-0.039,-0.078,-0.039,0.059,0.0,-0.059,0.088,0.029,-0.01,-0.098,-0.107,-0.107
2.324,-0.029,-0.063,-0.034,0.049,0.0,-0.049,0.102,0.039,0.0,-0.098,-0.098,-0.093
2.326,-0.039,-0.063,-0.024,0.054,-0.01,-0.044,0.112,0.068,0.015,-0.083,-0.093,-0.083
2.328,-0.068,-0.073,-0.005,0.073,-0.034,-0.039,0.112,0.068,0.02,-0.083,-0.088,-0.088
2.33,-0.083,-0.083,0.0,0.083,-0.044,-0.044,0.102,0.063,0.01,-0.088,-0.098,-0.093
2.332,-0.054,-0.073,-0.02,0.063,-0.02,-0.049,0.112,0.068,0.015,-0.093,-0.088,-0.088
2.334,-0.024,-0.059,-0.034,0.044,0.005,-0.049,0.102,0.063,0.015,-0.088,-0.098,-0.088
2.336,-0.034,-0.068,-0.034,0.054,0.0,-0.054,0.098,0.049,0.01,-0.093,-0.102,-0.098
2.338,-0.063,-0.083,-0.02,0.073,-0.024,-0.054,0.102,0.059,0.02,-0.093,-0.093,-0.088
2.34,-0.034,-0.059,-0.024,0.049,-0.005,-0.044,0.107,0.063,0.029,-0.083,-0.088,-0.088
2.342,-0.005,-0.049,-0.044,0.029,0.02,-0.049,0.088,0.059,0.024,-0.083,-0.093,-0.093
2.344,-0.044,-0.068,-0.024,0.059,-0.01,-0.049,0.093,0.063,0.029,-0.083,-0.078,-0.083
2.346,-0.034,-0.083,-0.049,0.059,0.005,-0.068,0.083,0.068,0.029,-0.083,-0.083,-0.078
2.348,0.0,-0.083,-0.083,0.044,0.039,-0.083,0.059,0.049,0.01,-0.102,-0.107,-0.102
2.35,0.005,-0.098,-0.102,0.049,0.054,-0.102,0.049,0.044,0.0,-0.102,-0.112,-0.107
2.352,-0.039,-0.098,-0.059,0.068,0.01,-0.078,0.054,0.044,0.005,-0.102,-0.112,-0.102
2.354,-0.073,-0.098,-0.024,0.088,-0.024,-0.063,0.054,0.049,0.015,-0.088,-0.107,-0.098
2.356,-0.039,-0.083,-0.044,0.063,0.0,-0.063,0.044,0.039,0.015,-0.098,-0.107,-0.102
2.358,-0.039,-0.078,-0.039,0.059,0.0,-0.059,0.044,0.039,0.02,-0.088,-0.098,-0.093
2.36,-0.034,-0.083,-0.049,0.059,0.005,-0.068,0.039,0.034,0.01,-0.093,-0.102,-0.098
2.362,-0.054,-0.083,-0.029,0.068,-0.015,-0.059,0.044,0.049,0.024,-0.078,-0.093,-0.093
2.364,-0.034,-0.093,-0.059,0.063,0.01,-0.078,0.029,0.039,0.005,-0.093,-0.098,-0.102
2.366,0.0,-0.098,-0.098,0.049,0.049,-0.098,0.02,0.044,0.005,-0.102,-0.112,-0.112
2.368,-0.024,-0.083,-0.059,0.054,0.015,-0.073,0.034,0.068,0.024,-0.088,-0.098,-0.098
2.37,-0.034,-0.083,-0.049,0.059,0.005,-0.068,0.039,0.078,0.034,-0.078,-0.088,-0.088
2.372,-0.034,-0.078,-0.044,0.059,0.005,-0.063,0.044,0.088,0.039,-0.078,-0.083,-0.083
2.374,-0.029,-0.083,-0.054,0.059,0.01,-0.068,0.044,0.088,0.044,-0.073,-0.088,-0.088
2.376,-0.024,-0.078,-0.054,0.054,0.015,-0.068,0.039,0.078,0.039,-0.078,-0.093,-0.093
2.378,-0.034,-0.078,-0.044,0.059,0.005,-0.063,0.054,0.093,0.054,-0.063,-0.083,-0.083
2.38,-0.044,-0.093,-0.049,0.068,0.0,-0.073,0.049,0.093,0.049,-0.059,-0.083,-0.083
2.382,-0.049,-0.083,-0.034,0.068,-0.01,-0.059,0.049,0.093,0.054,-0.049,-0.083,-0.083
2.384,-0.034,-0.068,-0.034,0.054,0.0,-0.054,0.054,0.102,0.059,-0.044,-0.068,-0.073
2.386,-0.024,-0.073,-0.049,0.049,0.01,-0.063,0.044,0.107,0.059,-0.044,-0.078,-0.078
2.388,-0.024,-0.073,-0.049,0.049,0.01,-0.063,0.034,0.107,0.063,-0.049,-0.078,-0.078
2.39,-0.039,-0.068,-0.029,0.054,-0.005,-0.049,0.039,0.122,0.073,-0.034,-0.068,-0.068
2.392,-0.039,-0.063,-0.024,0.054,-0.01,-0.044,0.049,0.132,0.083,-0.034,-0.059,-0.059
2.394,-0.024,-0.063,-0.039,0.044,0.005,-0.054,0.049,0.132,0.093,-0.024,-0.063,-0.063
2.396,-0.02,-0.063,-0.044,0.044,0.01,-0.054,0.034,0.122,0.083,-0.039,-0.068,-0.078
2.398,-0.039,-0.068,-0.029,0.054,-0.005,-0.049,0.044,0.132,0.093,-0.024,-0.054,-0.068
2.4,-0.049,-0.083,-0.034,0.068,-0.01,-0.059,0.039,0.137,0.093,-0.024,-0.049,-0.063
2.402,-0.024,-0.098,-0.073,0.063,0.024,-0.088,0.015,0.127,0.083,-0.039,-0.063,-0.083
2.404,0.005,-0.088,-0.093,0.044,0.049,-0.093,0.01,0.122,0.078,-0.044,-0.068,-0.088
2.406,-0.01,-0.083,-0.073,0.049,0.029,-0.078,0.034,0.156,0.102,-0.015,-0.044,-0.063
2.408,-0.005,-0.073,-0.068,0.039,0.029,-0.073,0.039,0.176,0.122,-0.005,-0.039,-0.059
2.41,0.0,-0.063,-0.063,0.034,0.029,-0.063,0.044,0.181,0.127,-0.005,-0.034,-0.059
2.412,0.005,-0.068,-0.073,0.034,0.039,-0.073,0.049,0.19,0.132,0.0,-0.034,-0.054
2.414,0.01,-0.039,-0.049,0.015,0.029,-0.044,0.068,0.215,0.156,0.029,-0.015,-0.039
2.416,0.005,-0.034,-0.039,0.015,0.02,-0.039,0.078,0.224,0.171,0.039,0.0,-0.034
2.418,0.029,-0.039,-0.068,0.005,0.049,-0.054,0.068,0.22,0.171,0.039,-0.005,-0.044
2.42,0.02,-0.049,-0.068,0.015,0.044,-0.059,0.073,0.229,0.176,0.034,-0.01,-0.044
2.422,0.01,-0.059,-0.068,0.024,0.039,-0.063,0.073,0.239,0.185,0.049,0.0,-0.034
2.424,0.015,-0.054,-0.068,0.02,0.039,-0.063,0.078,0.268,0.195,0.059,0.015,-0.029
2.426,-0.024,-0.049,-0.024,0.039,0.0,-0.039,0.083,0.293,0.215,0.068,0.029,-0.015
2.428,-0.01,-0.039,-0.029,0.024,0.01,-0.034,0.083,0.312,0.234,0.083,0.039,-0.005
2.43,0.029,-0.01,-0.039,-0.01,0.034,-0.024,0.088,0.322,0.244,0.093,0.044,0.005
2.432,0.078,0.015,-0.063,-0.044,0.068,-0.024,0.093,0.346,0.264,0.098,0.059,0.01
2.434,0.059,0.0,-0.059,-0.029,0.059,-0.029,0.088,0.356,0.268,0.102,0.054,0.01
2.436,0.029,-0.01,-0.039,-0.01,0.034,-0.024,0.098,0.371,0.293,0.122,0.068,0.02
2.438,0.0,-0.02,-0.02,0.01,0.01,-0.02,0.112,0.39,0.303,0.137,0.088,0.034
2.44,0.039,0.0,-0.039,-0.02,0.039,-0.02,0.112,0.41,0.322,0.151,0.098,0.044
2.442,0.078,0.024,-0.054,-0.049,0.063,-0.015,0.112,0.429,0.342,0.166,0.107,0.049
2.444,0.034,-0.005,-0.039,-0.015,0.034,-0.024,0.107,0.444,0.342,0.176,0.112,0.054
2.446,0.029,-0.02,-0.049,-0.005,0.039,-0.034,0.098,0.454,0.337,0.171,0.107,0.054
2.448,0.063,0.029,-0.034,-0.044,0.049,-0.005,0.112,0.483,0.376,0.195,0.132,0.073
2.45,0.073,0.044,-0.029,-0.059,0.049,0.005,0.117,0.508,0.39,0.21,0.146,0.083
2.452,0.088,0.015,-0.073,-0.049,0.078,-0.029,0.102,0.498,0.381,0.195,0.137,0.073
2.454,0.098,0.029,-0.068,-0.063,0.083,-0.02,0.107,0.517,0.4,0.215,0.146,0.083
2.456,0.083,0.034,-0.049,-0.059,0.063,-0.01,0.122,0.537,0.425,0.239,0.171,0.102
2.458,0.078,0.024,-0.054,-0.049,0.063,-0.015,0.112,0.537,0.429,0.249,0.176,0.112
2.46,0.078,0.02,-0.059,-0.049,0.068,-0.02,0.107,0.551,0.434,0.244,0.181,0.117
2.462,0.117,0.029,-0.088,-0.073,0.102,-0.029,0.088,0.547,0.434,0.254,0.181,0.117
2.464,0.132,0.005,-0.127,-0.068,0.127,-0.063,0.049,0.537,0.42,0.244,0.176,0.102
2.466,0.122,0.01,-0.112,-0.063,0.117,-0.054,0.034,0.551,0.434,0.254,0.185,0.112
2.468,0.156,0.068,-0.088,-0.112,0.122,-0.01,0.059,0.59,0.468,0.288,0.22,0.146
2.47,0.137,0.049,-0.088,-0.093,0.112,-0.02,0.044,0.59,0.468,0.288,0.224,0.151
2.472,0.132,0.029,-0.102,-0.078,0.117,-0.039,0.024,0.586,0.464,0.273,0.215,0.142
2.474,0.132,0.049,-0.083,-0.088,0.107,-0.02,0.024,0.59,0.478,0.298,0.224,0.156
2.476,0.122,0.049,-0.073,-0.083,0.098,-0.015,0.024,0.59,0.483,0.312,0.234,0.161
2.478,0.127,0.049,-0.078,-0.088,0.102,-0.015,0.02,0.6,0.493,0.317,0.244,0.171
2.48,0.151,0.049,-0.102,-0.098,0.127,-0.029,0.01,0.595,0.478,0.303,0.239,0.166
2.482,0.171,0.054,-0.117,-0.112,0.142,-0.034,0.0,0.586,0.483,0.317,0.239,0.166
2.484,0.195,0.059,-0.137,-0.127,0.166,-0.039,-0.005,0.581,0.483,0.312,0.244,0.166
2.486,0.19,0.059,-0.132,-0.122,0.161,-0.039,-0.01,0.586,0.483,0.307,0.244,0.166
2.488,0.161,0.059,-0.102,-0.107,0.132,-0.024,-0.005,0.576,0.478,0.317,0.259,0.181
2.49,0.156,0.083,-0.073,-0.117,0.112,0.005,-0.005,0.576,0.483,0.327,0.264,0.19
2.492,0.156,0.102,-0.054,-0.127,0.102,0.024,0.01,0.571,0.493,0.337,0.278,0.205
2.494,0.156,0.098,-0.059,-0.127,0.107,0.02,0.005,0.547,0.478,0.322,0.268,0.205
2.496,0.146,0.078,-0.068,-0.112,0.107,0.005,-0.015,0.498,0.444,0.303,0.259,0.19
2.498,0.146,0.088,-0.059,-0.117,0.102,0.015,-0.015,0.478,0.429,0.303,0.259,0.19
2.5,0.142,0.088,-0.054,-0.112,0.098,0.015,-0.015,0.439,0.405,0.283,0.244,0.181
2.502,0.112,0.063,-0.049,-0.088,0.078,0.005,-0.029,0.405,0.376,0.264,0.224,0.161
2.504,0.107,0.063,-0.044,-0.083,0.073,0.01,-0.024,0.39,0.361,0.249,0.22,0.151
2.506,0.107,0.063,-0.044,-0.083,0.073,0.01,-0.024,0.361,0.337,0.244,0.205,0.151
2.508,0.112,0.059,-0.054,-0.083,0.083,0.0,-0.029,0.322,0.303,0.215,0.19,0.137
2.51,0.151,0.102,-0.049,-0.127,0.098,0.024,-0.005,0.312,0.303,0.215,0.19,0.142
2.512,0.127,0.088,-0.039,-0.107,0.083,0.024,-0.005,0.283,0.278,0.185,0.171,0.127
2.514,0.088,0.059,-0.029,-0.073,0.059,0.015,-0.01,0.244,0.244,0.161,0.146,0.102
2.516,0.098,0.054,-0.044,-0.073,0.068,0.005,-0.02,0.195,0.2,0.132,0.117,0.078
2.518,0.059,0.0,-0.059,-0.029,0.059,-0.029,-0.044,0.146,0.146,0.083,0.073,0.039
2.52,-0.034,-0.044,-0.01,0.039,-0.015,-0.029,-0.039,0.122,0.127,0.063,0.059,0.029
2.522,-0.044,-0.02,0.024,0.034,-0.034,0.0,-0.01,0.122,0.132,0.073,0.068,0.044
2.524,-0.01,0.0,0.01,0.005,-0.01,0.005,0.0,0.107,0.112,0.068,0.063,0.039
2.526,0.02,0.015,-0.005,-0.015,0.01,0.005,0.0,0.093,0.093,0.054,0.049,0.029
2.528,0.029,0.029,0.0,-0.029,0.015,0.015,0.01,0.073,0.083,0.034,0.034,0.024
2.53,0.024,0.005,-0.02,-0.015,0.02,-0.01,0.01,0.054,0.059,0.015,0.015,0.01
2.532,0.01,-0.02,-0.029,0.005,0.02,-0.024,0.005,0.024,0.029,-0.02,-0.02,-0.015
2.534,-0.024,-0.049,-0.024,0.039,0.0,-0.039,0.015,0.01,0.01,-0.029,-0.029,-0.029
2.536,-0.034,-0.049,-0.015,0.044,-0.01,-0.034,0.024,-0.015,-0.005,-0.039,-0.039,-0.039
2.538,-0.039,-0.059,-0.02,0.049,-0.01,-0.039,0.02,-0.029,-0.015,-0.049,-0.049,-0.049
2.54,-0.063,-0.059,0.005,0.063,-0.034,-0.029,0.029,-0.034,-0.024,-0.054,-0.044,-0.049
2.542,-0.054,-0.054,0.0,0.054,-0.029,-0.029,0.039,-0.044,-0.034,-0.059,-0.054,-0.054
2.544,-0.049,-0.039,0.01,0.044,-0.029,-0.015,0.049,-0.039,-0.034,-0.059,-0.049,-0.054
2.546,-0.054,-0.044,0.01,0.049,-0.034,-0.02,0.054,-0.044,-0.049,-0.068,-0.054,-0.059
2.548,-0.024,-0.049,-0.024,0.039,0.0,-0.039,0.049,-0.059,-0.063,-0.088,-0.073,-0.073
2.55,-0.034,-0.054,-0.02,0.044,-0.01,-0.039,0.049,-0.068,-0.073,-0.098,-0.083,-0.073
2.552,-0.059,-0.054,0.005,0.059,-0.034,-0.024,0.059,-0.068,-0.068,-0.098,-0.083,-0.073
2.554,-0.044,-0.054,-0.01,0.049,-0.02,-0.034,0.063,-0.073,-0.073,-0.098,-0.088,-0.078
2.556,-0.044,-0.049,-0.005,0.049,-0.02,-0.029,0.073,-0.073,-0.073,-0.093,-0.078,-0.078
2.558,-0.054,-0.034,0.02,0.044,-0.039,-0.01,0.083,-0.063,-0.063,-0.088,-0.073,-0.068
2.56,-0.088,-0.049,0.039,0.068,-0.063,-0.005,0.093,-0.054,-0.059,-0.083,-0.063,-0.063
2.562,-0.112,-0.083,0.029,0.098,-0.073,-0.029,0.083,-0.063,-0.078,-0.098,-0.083,-0.078
2.564,-0.063,-0.073,-0.01,0.068,-0.029,-0.044,0.073,-0.078,-0.093,-0.112,-0.088,-0.088
2.566,-0.044,-0.044,0.0,0.044,-0.024,-0.024,0.078,-0.073,-0.088,-0.107,-0.093,-0.083
2.568,-0.049,-0.049,0.0,0.049,-0.024,-0.024,0.088,-0.073,-0.093,-0.117,-0.093,-0.083
2.57,-0.093,-0.068,0.024,0.083,-0.059,-0.024,0.102,-0.073,-0.098,-0.112,-0.098,-0.083
2.572,-0.112,-0.093,0.02,0.102,-0.068,-0.039,0.098,-0.088,-0.102,-0.127,-0.112,-0.098
2.574,-0.107,-0.098,0.01,0.102,-0.059,-0.044,0.098,-0.093,-0.107,-0.132,-0.122,-0.102
2.576,-0.083,-0.098,-0.015,0.093,-0.034,-0.059,0.093,-0.107,-0.117,-0.132,-0.117,-0.107
2.578,-0.083,-0.088,-0.005,0.088,-0.039,-0.049,0.088,-0.102,-0.107,-0.122,-0.112,-0.098
2.58,-0.093,-0.078,0.015,0.088,-0.054,-0.034,0.088,-0.098,-0.102,-0.112,-0.098,-0.088
2.582,-0.093,-0.098,-0.005,0.098,-0.044,-0.054,0.073,-0.107,-0.112,-0.122,-0.107,-0.093
2.584,-0.083,-0.107,-0.024,0.098,-0.029,-0.068,0.054,-0.122,-0.127,-0.132,-0.107,-0.098
2.586,-0.059,-0.083,-0.024,0.073,-0.02,-0.054,0.039,-0.127,-0.137,-0.142,-0.112,-0.098
2.588,-0.054,-0.088,-0.034,0.073,-0.01,-0.063,0.034,-0.132,-0.142,-0.151,-0.122,-0.102
2.59,-0.083,-0.098,-0.015,0.093,-0.034,-0.059,0.034,-0.127,-0.137,-0.146,-0.117,-0.098
2.592,-0.107,-0.098,0.01,0.102,-0.059,-0.044,0.039,-0.122,-0.122,-0.142,-0.112,-0.093
2.594,-0.132,-0.127,0.005,0.132,-0.068,-0.063,0.034,-0.137,-0.137,-0.151,-0.127,-0.102
2.596,-0.137,-0.151,-0.015,0.146,-0.063,-0.083,0.02,-0.161,-0.156,-0.166,-0.142,-0.117
2.598,-0.122,-0.161,-0.039,0.142,-0.044,-0.102,0.0,-0.176,-0.166,-0.176,-0.146,-0.132
2.6,-0.059,-0.142,-0.083,0.102,0.01,-0.112,-0.01,-0.185,-0.176,-0.181,-0.151,-0.137
2.602,-0.034,-0.137,-0.102,0.088,0.034,-0.122,-0.02,-0.185,-0.176,-0.181,-0.156,-0.137
2.604,-0.063,-0.142,-0.078,0.102,0.005,-0.112,-0.015,-0.176,-0.166,-0.166,-0.142,-0.122
2.606,-0.083,-0.132,-0.049,0.107,-0.02,-0.093,-0.005,-0.156,-0.156,-0.156,-0.137,-0.102
2.608,-0.098,-0.137,-0.039,0.117,-0.029,-0.088,-0.01,-0.151,-0.151,-0.156,-0.132,-0.107
2.61,-0.083,-0.132,-0.049,0.107,-0.02,-0.093,-0.005,-0.151,-0.146,-0.156,-0.127,-0.098
2.612,-0.054,-0.112,-0.059,0.083,0.0,-0.088,-0.01,-0.151,-0.151,-0.161,-0.127,-0.107
2.614,-0.015,-0.112,-0.098,0.063,0.039,-0.107,-0.015,-0.161,-0.156,-0.166,-0.137,-0.112
2.616,-0.034,-0.132,-0.098,0.083,0.029,-0.117,-0.02,-0.166,-0.156,-0.166,-0.142,-0.117
2.618,-0.063,-0.146,-0.083,0.107,0.01,-0.117,-0.02,-0.171,-0.161,-0.176,-0.142,-0.117
2.62,-0.122,-0.161,-0.039,0.142,-0.044,-0.102,-0.005,-0.156,-0.151,-0.161,-0.132,-0.117
2.622,-0.142,-0.171,-0.029,0.156,-0.059,-0.102,0.01,-0.142,-0.142,-0.151,-0.122,-0.102
2.624,-0.137,-0.166,-0.029,0.151,-0.054,-0.098,0.005,-0.137,-0.142,-0.151,-0.122,-0.107
2.626,-0.112,-0.146,-0.034,0.132,-0.039,-0.093,0.005,-0.132,-0.142,-0.151,-0.127,-0.102
2.628,-0.078,-0.132,-0.054,0.107,-0.015,-0.093,0.01,-0.132,-0.142,-0.151,-0.127,-0.107
2.63,-0.078,-0.137,-0.059,0.107,-0.01,-0.098,0.0,-0.142,-0.151,-0.161,-0.137,-0.112
2.632,-0.083,-0.137,-0.054,0.112,-0.015,-0.098,0.0,-0.146,-0.151,-0.166,-0.142,-0.117
2.634,-0.078,-0.132,-0.054,0.107,-0.015,-0.093,0.005,-0.142,-0.142,-0.166,-0.137,-0.112
2.636,-0.102,-0.161,-0.059,0.132,-0.024,-0.112,0.0,-0.156,-0.156,-0.176,-0.146,-0.127
2.638,-0.102,-0.151,-0.049,0.127,-0.029,-0.102,0.0,-0.151,-0.151,-0.166,-0.137,-0.122
2.64,-0.093,-0.146,-0.054,0.122,-0.02,-0.102,0.0,-0.146,-0.151,-0.166,-0.142,-0.122
2.642,-0.102,-0.146,-0.044,0.127,-0.029,-0.098,0.01,-0.132,-0.142,-0.151,-0.127,-0.117
2.644,-0.102,-0.132,-0.029,0.117,-0.039,-0.083,0.015,-0.132,-0.137,-0.146,-0.127,-0.107
2.646,-0.122,-0.151,-0.029,0.137,-0.049,-0.093,0.005,-0.132,-0.142,-0.146,-0.127,-0.112
2.648,-0.117,-0.151,-0.034,0.137,-0.044,-0.093,-0.005,-0.132,-0.146,-0.156,-0.137,-0.122
2.65,-0.132,-0.151,-0.02,0.142,-0.059,-0.088,0.0,-0.132,-0.146,-0.161,-0.142,-0.122
2.652,-0.122,-0.137,-0.015,0.132,-0.054,-0.078,0.01,-0.117,-0.137,-0.156,-0.137,-0.112
2.654,-0.112,-0.122,-0.01,0.117,-0.054,-0.068,0.02,-0.107,-0.122,-0.146,-0.127,-0.107
2.656,-0.102,-0.112,-0.01,0.107,-0.049,-0.063,0.024,-0.112,-0.117,-0.142,-0.122,-0.112
2.658,-0.102,-0.112,-0.01,0.107,-0.049,-0.063,0.02,-0.117,-0.122,-0.142,-0.122,-0.112
2.66,-0.093,-0.112,-0.02,0.102,-0.039,-0.068,0.015,-0.117,-0.122,-0.142,-0.122,-0.117
2.662,-0.049,-0.122,-0.073,0.088,0.01,-0.098,0.01,-0.127,-0.137,-0.156,-0.137,-0.137
2.664,-0.068,-0.137,-0.068,0.102,0.0,-0.102,0.01,-0.127,-0.142,-0.161,-0.146,-0.142
2.666,-0.102,-0.122,-0.02,0.112,-0.044,-0.073,0.029,-0.102,-0.117,-0.137,-0.127,-0.117
2.668,-0.137,-0.132,0.005,0.137,-0.073,-0.063,0.039,-0.088,-0.102,-0.127,-0.117,-0.107
2.67,-0.151,-0.132,0.02,0.142,-0.088,-0.059,0.049,-0.078,-0.093,-0.117,-0.107,-0.098
2.672,-0.146,-0.102,0.044,0.127,-0.098,-0.029,0.054,-0.063,-0.078,-0.102,-0.102,-0.088
2.674,-0.122,-0.117,0.005,0.122,-0.063,-0.059,0.044,-0.073,-0.088,-0.112,-0.107,-0.102
2.676,-0.098,-0.107,-0.01,0.102,-0.044,-0.059,0.049,-0.073,-0.083,-0.112,-0.107,-0.102
2.678,-0.088,-0.093,-0.005,0.093,-0.044,-0.049,0.049,-0.073,-0.083,-0.112,-0.107,-0.107
2.68,-0.098,-0.112,-0.015,0.107,-0.044,-0.063,0.049,-0.078,-0.088,-0.117,-0.112,-0.112
2.682,-0.107,-0.142,-0.034,0.127,-0.039,-0.088,0.039,-0.093,-0.107,-0.132,-0.127,-0.132
2.684,-0.102,-0.156,-0.054,0.132,-0.024,-0.107,0.034,-0.102,-0.117,-0.146,-0.146,-0.142
2.686,-0.102,-0.122,-0.02,0.112,-0.044,-0.073,0.059,-0.068,-0.083,-0.117,-0.117,-0.112
2.688,-0.142,-0.107,0.034,0.127,-0.088,-0.039,0.088,-0.044,-0.063,-0.102,-0.098,-0.088
2.69,-0.171,-0.142,0.029,0.156,-0.102,-0.059,0.078,-0.054,-0.073,-0.122,-0.112,-0.102
2.692,-0.142,-0.137,0.005,0.142,-0.073,-0.068,0.078,-0.054,-0.078,-0.122,-0.112,-0.107
2.694,-0.112,-0.127,-0.015,0.122,-0.049,-0.073,0.073,-0.059,-0.088,-0.137,-0.122,-0.117
2.696,-0.078,-0.093,-0.015,0.088,-0.034,-0.054,0.093,-0.049,-0.083,-0.122,-0.107,-0.112
2.698,-0.098,-0.122,-0.024,0.112,-0.039,-0.073,0.068,-0.068,-0.093,-0.132,-0.122,-0.132
2.7,-0.078,-0.112,-0.034,0.098,-0.024,-0.073,0.073,-0.073,-0.093,-0.127,-0.122,-0.127
2.702,-0.068,-0.093,-0.024,0.083,-0.024,-0.059,0.083,-0.063,-0.083,-0.122,-0.112,-0.122
2.704,-0.142,-0.122,0.02,0.132,-0.083,-0.054,0.093,-0.063,-0.083,-0.117,-0.107,-0.112
2.706,-0.146,-0.122,0.024,0.137,-0.088,-0.049,0.098,-0.049,-0.078,-0.112,-0.112,-0.107
2.708,-0.122,-0.112,0.01,0.117,-0.068,-0.054,0.098,-0.044,-0.078,-0.112,-0.107,-0.102
2.71,-0.112,-0.122,-0.01,0.117,-0.054,-0.068,0.088,-0.054,-0.083,-0.122,-0.117,-0.107
2.712,-0.093,-0.117,-0.024,0.107,-0.034,-0.073,0.073,-0.063,-0.088,-0.132,-0.127,-0.117
2.714,-0.088,-0.122,-0.034,0.107,-0.029,-0.078,0.073,-0.054,-0.083,-0.127,-0.117,-0.112
2.716,-0.102,-0.117,-0.015,0.112,-0.044,-0.068,0.088,-0.049,-0.083,-0.112,-0.102,-0.107
2.718,-0.122,-0.122,0.0,0.122,-0.063,-0.063,0.078,-0.063,-0.088,-0.122,-0.107,-0.107
2.72,-0.156,-0.161,-0.005,0.161,-0.078,-0.083,0.063,-0.078,-0.102,-0.137,-0.122,-0.127
2.722,-0.112,-0.151,-0.039,0.132,-0.039,-0.098,0.054,-0.078,-0.112,-0.132,-0.117,-0.127
2.724,-0.098,-0.102,-0.005,0.102,-0.049,-0.054,0.063,-0.059,-0.088,-0.107,-0.093,-0.098
2.726,-0.127,-0.117,0.01,0.122,-0.068,-0.054,0.054,-0.054,-0.093,-0.112,-0.098,-0.102
2.728,-0.112,-0.127,-0.015,0.122,-0.049,-0.073,0.039,-0.063,-0.098,-0.127,-0.107,-0.107
2.73,-0.122,-0.146,-0.024,0.137,-0.049,-0.088,0.029,-0.073,-0.107,-0.132,-0.117,-0.112
2.732,-0.132,-0.156,-0.024,0.146,-0.054,-0.093,0.02,-0.083,-0.117,-0.137,-0.127,-0.117
2.734,-0.117,-0.151,-0.034,0.137,-0.044,-0.093,0.015,-0.083,-0.107,-0.132,-0.127,-0.122
2.736,-0.107,-0.146,-0.039,0.127,-0.034,-0.093,0.015,-0.098,-0.117,-0.137,-0.127,-0.127
2.738,-0.088,-0.127,-0.039,0.107,-0.024,-0.083,0.024,-0.098,-0.112,-0.132,-0.122,-0.122
2.74,-0.073,-0.137,-0.063,0.107,-0.005,-0.102,0.02,-0.102,-0.122,-0.137,-0.132,-0.127
2.742,-0.098,-0.181,-0.083,0.142,-0.01,-0.132,0.01,-0.117,-0.142,-0.156,-0.151,-0.151
2.744,-0.146,-0.181,-0.034,0.166,-0.059,-0.107,0.02,-0.107,-0.137,-0.146,-0.137,-0.137
2.746,-0.156,-0.142,0.015,0.151,-0.088,-0.063,0.049,-0.073,-0.102,-0.122,-0.107,-0.107
2.748,-0.132,-0.137,-0.005,0.137,-0.063,-0.073,0.039,-0.078,-0.112,-0.132,-0.112,-0.112
2.75,-0.132,-0.151,-0.02,0.142,-0.059,-0.088,0.034,-0.083,-0.117,-0.132,-0.122,-0.112
2.752,-0.137,-0.161,-0.024,0.151,-0.059,-0.093,0.029,-0.088,-0.122,-0.137,-0.127,-0.112
2.754,-0.146,-0.166,-0.02,0.156,-0.063,-0.093,0.034,-0.093,-0.112,-0.132,-0.127,-0.112
2.756,-0.151,-0.166,-0.015,0.161,-0.068,-0.093,0.034,-0.098,-0.122,-0.137,-0.132,-0.117
2.758,-0.146,-0.166,-0.02,0.156,-0.063,-0.093,0.024,-0.102,-0.127,-0.142,-0.132,-0.122
2.76,-0.117,-0.132,-0.015,0.127,-0.054,-0.073,0.044,-0.083,-0.107,-0.122,-0.117,-0.102
2.762,-0.137,-0.146,-0.01,0.142,-0.063,-0.078,0.034,-0.088,-0.117,-0.127,-0.122,-0.112
2.764,-0.166,-0.176,-0.01,0.171,-0.078,-0.093,0.024,-0.098,-0.137,-0.132,-0.132,-0.122
2.766,-0.156,-0.161,-0.005,0.161,-0.078,-0.083,0.029,-0.098,-0.127,-0.132,-0.122,-0.112
2.768,-0.127,-0.161,-0.034,0.146,-0.049,-0.098,0.024,-0.098,-0.132,-0.137,-0.137,-0.122
2.77,-0.117,-0.161,-0.044,0.142,-0.039,-0.102,0.024,-0.102,-0.132,-0.137,-0.137,-0.122
2.772,-0.122,-0.151,-0.029,0.137,-0.049,-0.093,0.024,-0.098,-0.137,-0.137,-0.132,-0.122
2.774,-0.107,-0.161,-0.054,0.137,-0.029,-0.107,0.015,-0.117,-0.142,-0.151,-0.142,-0.132
2.776,-0.112,-0.151,-0.039,0.132,-0.039,-0.098,0.024,-0.107,-0.137,-0.137,-0.137,-0.127
2.778,-0.137,-0.137,0.0,0.137,-0.068,-0.068,0.029,-0.098,-0.117,-0.122,-0.117,-0.112
2.78,-0.166,-0.137,0.029,0.151,-0.098,-0.054,0.044,-0.083,-0.107,-0.107,-0.102,-0.107
2.782,-0.146,-0.137,0.01,0.142,-0.078,-0.063,0.034,-0.093,-0.112,-0.117,-0.112,-0.107
2.784,-0.151,-0.156,-0.005,0.156,-0.073,-0.083,0.024,-0.093,-0.127,-0.122,-0.122,-0.117
2.786,-0.146,-0.151,-0.005,0.151,-0.073,-0.078,0.015,-0.093,-0.127,-0.127,-0.117,-0.117
2.788,-0.142,-0.142,0.0,0.142,-0.073,-0.073,0.02,-0.088,-0.127,-0.127,-0.122,-0.117
2.79,-0.107,-0.107,0.0,0.107,-0.054,-0.054,0.02,-0.073,-0.112,-0.112,-0.112,-0.102
2.792,-0.117,-0.127,-0.01,0.122,-0.054,-0.068,0.015,-0.088,-0.122,-0.127,-0.127,-0.112
2.794,-0.107,-0.146,-0.039,0.127,-0.034,-0.093,-0.005,-0.117,-0.146,-0.146,-0.142,-0.137
2.796,-0.122,-0.146,-0.024,0.137,-0.049,-0.088,-0.015,-0.112,-0.146,-0.137,-0.137,-0.132
2.798,-0.146,-0.137,0.01,0.142,-0.078,-0.063,0.005,-0.102,-0.132,-0.117,-0.122,-0.117
2.8,-0.146,-0.132,0.015,0.142,-0.083,-0.059,0.02,-0.093,-0.122,-0.112,-0.122,-0.112
2.802,-0.146,-0.127,0.02,0.137,-0.083,-0.054,0.029,-0.083,-0.117,-0.102,-0.112,-0.102
2.804,-0.156,-0.142,0.015,0.151,-0.088,-0.063,0.024,-0.088,-0.127,-0.102,-0.112,-0.107
2.806,-0.132,-0.146,-0.015,0.142,-0.059,-0.083,0.0,-0.102,-0.137,-0.122,-0.127,-0.122
2.808,-0.107,-0.122,-0.015,0.117,-0.049,-0.068,0.02,-0.083,-0.122,-0.112,-0.117,-0.117
2.81,-0.098,-0.107,-0.01,0.102,-0.044,-0.059,0.029,-0.078,-0.122,-0.107,-0.117,-0.112
2.812,-0.132,-0.117,0.015,0.127,-0.073,-0.054,0.039,-0.068,-0.107,-0.102,-0.112,-0.098
2.814,-0.161,-0.098,0.063,0.132,-0.112,-0.02,0.063,-0.054,-0.093,-0.083,-0.093,-0.083
2.816,-0.2,-0.122,0.078,0.161,-0.142,-0.024,0.059,-0.063,-0.098,-0.093,-0.098,-0.093
2.818,-0.171,-0.122,0.049,0.146,-0.112,-0.039,0.049,-0.078,-0.112,-0.098,-0.102,-0.098
2.82,-0.142,-0.112,0.029,0.127,-0.088,-0.044,0.034,-0.083,-0.112,-0.102,-0.107,-0.098
2.822,-0.112,-0.112,0.0,0.112,-0.059,-0.059,0.034,-0.088,-0.112,-0.102,-0.112,-0.102
2.824,-0.107,-0.142,-0.034,0.127,-0.039,-0.088,0.024,-0.078,-0.117,-0.117,-0.127,-0.122
2.826,-0.102,-0.151,-0.049,0.127,-0.029,-0.102,0.034,-0.039,-0.107,-0.112,-0.142,-0.142
2.828,-0.137,-0.171,-0.034,0.156,-0.054,-0.102,0.078,0.029,-0.068,-0.102,-0.151,-0.161
2.83,-0.166,-0.195,-0.029,0.181,-0.068,-0.112,0.132,0.107,-0.02,-0.093,-0.171,-0.19
2.832,-0.161,-0.215,-0.054,0.19,-0.054,-0.137,0.151,0.185,0.039,-0.063,-0.171,-0.205
2.834,-0.132,-0.195,-0.063,0.166,-0.034,-0.132,0.151,0.234,0.112,0.0,-0.117,-0.176
2.836,-0.122,-0.156,-0.034,0.142,-0.044,-0.098,0.146,0.283,0.2,0.088,-0.049,-0.132
2.838,-0.112,-0.112,0.0,0.112,-0.059,-0.059,0.176,0.395,0.327,0.22,0.059,-0.063
2.84,-0.063,-0.054,0.01,0.059,-0.039,-0.024,0.171,0.522,0.454,0.351,0.171,0.029
2.842,-0.02,-0.005,0.015,0.015,-0.02,0.005,0.146,0.59,0.576,0.488,0.312,0.137
2.844,0.034,0.039,0.005,-0.034,0.015,0.02,0.093,0.6,0.669,0.63,0.464,0.264
2.846,0.171,0.185,0.015,-0.176,0.078,0.098,0.0,0.415,0.664,0.742,0.625,0.425
2.848,0.268,0.303,0.034,-0.283,0.117,0.166,-0.146,0.015,0.512,0.791,0.786,0.6
2.85,0.356,0.386,0.029,-0.371,0.161,0.205,-0.337,-0.444,0.293,0.781,0.927,0.781
2.852,0.429,0.444,0.015,-0.434,0.205,0.229,-0.493,-0.752,0.142,0.766,1.054,0.947
2.854,0.532,0.576,0.044,-0.551,0.244,0.307,-0.571,-0.893,0.093,0.825,1.22,1.122
2.856,0.605,0.708,0.102,-0.654,0.249,0.405,-0.659,-0.952,0.142,0.961,1.405,1.298
2.858,0.605,0.786,0.181,-0.693,0.21,0.483,-0.771,-1.069,0.132,1.02,1.498,1.405
2.86,0.527,0.83,0.303,-0.678,0.112,0.566,-0.791,-1.225,-0.02,0.888,1.42,1.401
2.862,0.415,0.752,0.337,-0.581,0.039,0.542,-0.747,-1.362,-0.273,0.586,1.142,1.24
2.864,0.303,0.61,0.307,-0.454,-0.005,0.459,-0.703,-1.542,-0.62,0.181,0.771,0.991
2.866,0.205,0.488,0.283,-0.346,-0.039,0.386,-0.644,-1.762,-1.01,-0.259,0.366,0.717
2.868,0.063,0.395,0.332,-0.229,-0.137,0.361,-0.576,-1.893,-1.298,-0.59,0.015,0.439
2.87,-0.093,0.317,0.41,-0.112,-0.254,0.361,-0.454,-1.869,-1.405,-0.791,-0.259,0.171
2.872,-0.161,0.244,0.405,-0.039,-0.283,0.322,-0.39,-1.684,-1.318,-0.825,-0.39,0.0
