time,I,II,III,aVR,aVL,aVF,V1,V2,V3,V4,V5,V6
0.0,-0.024,-0.005,0.02,0.015,-0.024,0.005,0.068,0.049,-0.049,-0.059,-0.059,-0.073
0.002,-0.02,0.005,0.024,0.01,-0.024,0.015,0.068,0.054,-0.044,-0.049,-0.054,-0.063
0.004,-0.034,-0.005,0.029,0.02,-0.034,0.01,0.068,0.049,-0.034,-0.039,-0.049,-0.068
0.006,-0.044,-0.015,0.029,0.029,-0.039,0.005,0.068,0.049,-0.029,-0.039,-0.049,-0.068
0.008,-0.054,-0.034,0.02,0.044,-0.039,-0.01,0.068,0.044,-0.044,-0.049,-0.054,-0.078
0.01,-0.054,-0.039,0.015,0.049,-0.034,-0.015,0.073,0.034,-0.049,-0.049,-0.059,-0.078
0.012,-0.049,-0.02,0.029,0.034,-0.039,0.005,0.078,0.044,-0.039,-0.049,-0.054,-0.073
0.014,-0.034,-0.01,0.024,0.024,-0.029,0.005,0.083,0.063,-0.029,-0.044,-0.044,-0.063
0.016,-0.049,-0.024,0.024,0.039,-0.039,0.0,0.078,0.054,-0.039,-0.049,-0.054,-0.073
0.018,-0.02,0.005,0.024,0.01,-0.024,0.015,0.073,0.059,-0.034,-0.044,-0.054,-0.068
0.02,-0.034,0.0,0.034,0.02,-0.034,0.015,0.059,0.059,-0.029,-0.049,-0.054,-0.073
0.022,-0.063,-0.02,0.044,0.044,-0.054,0.01,0.063,0.054,-0.034,-0.049,-0.054,-0.078
0.024,-0.063,-0.02,0.044,0.044,-0.054,0.01,0.068,0.054,-0.024,-0.034,-0.049,-0.078
0.026,-0.059,-0.02,0.039,0.039,-0.049,0.01,0.068,0.054,-0.02,-0.034,-0.049,-0.078
0.028,-0.054,-0.024,0.029,0.039,-0.044,0.0,0.068,0.054,-0.02,-0.029,-0.039,-0.068
0.03,-0.044,-0.024,0.02,0.034,-0.034,-0.005,0.073,0.059,-0.02,-0.029,-0.044,-0.068
0.032,-0.039,-0.005,0.034,0.024,-0.039,0.015,0.083,0.059,-0.01,-0.029,-0.034,-0.073
0.034,-0.024,0.005,0.029,0.01,-0.029,0.015,0.088,0.073,-0.01,-0.029,-0.029,-0.063
0.036,-0.029,-0.005,0.024,0.02,-0.029,0.01,0.078,0.073,-0.01,-0.024,-0.029,-0.063
0.038,-0.049,-0.005,0.044,0.029,-0.049,0.02,0.068,0.073,-0.01,-0.024,-0.029,-0.059
0.04,-0.039,0.015,0.054,0.015,-0.049,0.034,0.068,0.088,0.005,-0.02,-0.02,-0.054
0.042,-0.024,0.01,0.034,0.01,-0.029,0.02,0.059,0.088,0.005,-0.015,-0.02,-0.054
0.044,-0.02,0.015,0.034,0.005,-0.029,0.024,0.068,0.093,0.024,0.0,-0.005,-0.044
0.046,-0.02,0.015,0.034,0.005,-0.029,0.024,0.073,0.088,0.024,0.0,-0.01,-0.044
0.048,-0.034,0.0,0.034,0.02,-0.034,0.015,0.073,0.093,0.024,0.0,-0.01,-0.044
0.05,-0.039,-0.005,0.034,0.024,-0.039,0.015,0.073,0.088,0.024,0.005,-0.01,-0.049
0.052,-0.024,0.01,0.034,0.01,-0.029,0.02,0.078,0.098,0.034,0.005,-0.005,-0.044
0.054,-0.005,0.029,0.034,-0.01,-0.02,0.029,0.078,0.102,0.034,0.005,-0.005,-0.039
0.056,-0.015,0.029,0.044,-0.005,-0.029,0.034,0.073,0.102,0.029,0.005,-0.005,-0.044
0.058,-0.01,0.039,0.049,-0.015,-0.029,0.044,0.068,0.102,0.034,0.01,-0.005,-0.044
0.06,-0.01,0.034,0.044,-0.01,-0.029,0.039,0.073,0.117,0.049,0.024,0.005,-0.029
0.062,-0.005,0.034,0.039,-0.015,-0.024,0.034,0.068,0.112,0.049,0.024,0.01,-0.029
0.064,-0.02,0.02,0.039,0.0,-0.029,0.029,0.063,0.107,0.059,0.034,0.015,-0.029
0.066,-0.034,0.01,0.044,0.015,-0.039,0.024,0.059,0.107,0.063,0.029,0.01,-0.024
0.068,-0.034,0.005,0.039,0.015,-0.039,0.02,0.059,0.107,0.059,0.029,0.015,-0.02
0.07,0.005,0.034,0.029,-0.02,-0.015,0.029,0.073,0.112,0.073,0.044,0.024,-0.015
0.072,0.015,0.044,0.029,-0.029,-0.01,0.034,0.073,0.117,0.078,0.044,0.024,-0.015
0.074,-0.015,0.005,0.02,0.005,-0.02,0.01,0.063,0.117,0.073,0.034,0.015,-0.024
0.076,-0.02,0.0,0.02,0.01,-0.02,0.01,0.059,0.122,0.078,0.044,0.02,-0.024
0.078,-0.02,0.01,0.029,0.005,-0.024,0.02,0.049,0.122,0.083,0.039,0.015,-0.034
0.08,0.0,0.034,0.034,-0.015,-0.02,0.034,0.049,0.132,0.098,0.049,0.029,-0.024
0.082,0.02,0.063,0.044,-0.039,-0.015,0.054,0.054,0.137,0.107,0.063,0.039,-0.01
0.084,0.029,0.073,0.044,-0.049,-0.01,0.059,0.039,0.142,0.122,0.078,0.044,-0.01
0.086,0.024,0.049,0.024,-0.034,0.0,0.034,0.034,0.142,0.132,0.083,0.049,-0.005
0.088,0.034,0.049,0.015,-0.039,0.01,0.029,0.034,0.137,0.127,0.083,0.054,-0.005
0.09,0.029,0.054,0.024,-0.039,0.0,0.039,0.039,0.137,0.132,0.083,0.059,0.0
0.092,0.02,0.049,0.029,-0.034,-0.005,0.039,0.039,0.146,0.142,0.093,0.063,0.015
0.094,0.034,0.059,0.024,-0.044,0.005,0.039,0.049,0.161,0.151,0.102,0.073,0.024
0.096,0.02,0.054,0.034,-0.034,-0.01,0.044,0.049,0.171,0.161,0.112,0.083,0.029
0.098,0.015,0.063,0.049,-0.039,-0.02,0.054,0.054,0.176,0.176,0.122,0.093,0.039
0.1,0.01,0.059,0.049,-0.034,-0.02,0.054,0.044,0.176,0.176,0.122,0.098,0.034
0.102,0.029,0.068,0.039,-0.049,-0.005,0.054,0.039,0.181,0.19,0.142,0.107,0.049
0.104,0.029,0.059,0.029,-0.044,0.0,0.044,0.034,0.176,0.2,0.146,0.112,0.044
0.106,0.024,0.063,0.039,-0.044,-0.01,0.049,0.024,0.171,0.205,0.151,0.112,0.049
0.108,0.039,0.068,0.029,-0.054,0.005,0.049,0.024,0.176,0.215,0.161,0.122,0.054
0.11,0.039,0.073,0.034,-0.054,0.0,0.054,0.024,0.176,0.229,0.166,0.122,0.059
0.112,0.068,0.117,0.049,-0.093,0.01,0.083,0.034,0.205,0.259,0.19,0.142,0.073
0.114,0.073,0.127,0.054,-0.098,0.01,0.088,0.02,0.205,0.259,0.195,0.146,0.078
0.116,0.049,0.102,0.054,-0.073,-0.005,0.078,0.01,0.2,0.254,0.185,0.146,0.068
0.118,0.068,0.137,0.068,-0.102,0.0,0.102,0.015,0.21,0.273,0.2,0.156,0.083
0.12,0.107,0.156,0.049,-0.132,0.029,0.102,0.02,0.234,0.303,0.224,0.185,0.098
0.122,0.093,0.146,0.054,-0.117,0.02,0.098,0.015,0.234,0.307,0.239,0.195,0.102
0.124,0.098,0.146,0.049,-0.122,0.024,0.098,0.005,0.234,0.327,0.259,0.21,0.112
0.126,0.078,0.132,0.054,-0.102,0.01,0.093,0.005,0.234,0.342,0.264,0.22,0.127
0.128,0.078,0.127,0.049,-0.102,0.015,0.088,0.01,0.244,0.351,0.273,0.229,0.142
0.13,0.088,0.132,0.044,-0.107,0.02,0.088,0.01,0.244,0.356,0.283,0.234,0.142
0.132,0.093,0.127,0.034,-0.107,0.029,0.078,-0.005,0.234,0.361,0.283,0.234,0.146
0.134,0.102,0.132,0.029,-0.117,0.034,0.078,-0.005,0.244,0.366,0.293,0.244,0.151
0.136,0.112,0.142,0.029,-0.127,0.039,0.083,-0.005,0.264,0.386,0.303,0.259,0.156
0.138,0.112,0.151,0.039,-0.132,0.034,0.093,-0.015,0.273,0.405,0.312,0.268,0.161
0.14,0.132,0.171,0.039,-0.151,0.044,0.102,-0.024,0.273,0.415,0.322,0.268,0.161
0.142,0.127,0.166,0.039,-0.146,0.044,0.102,-0.029,0.273,0.415,0.332,0.283,0.161
0.144,0.132,0.171,0.039,-0.151,0.044,0.102,-0.024,0.278,0.434,0.346,0.298,0.166
0.146,0.117,0.161,0.044,-0.137,0.034,0.102,-0.024,0.273,0.439,0.351,0.293,0.171
0.148,0.132,0.166,0.034,-0.146,0.049,0.098,-0.029,0.268,0.439,0.346,0.293,0.171
0.15,0.137,0.171,0.034,-0.151,0.049,0.102,-0.024,0.268,0.439,0.342,0.288,0.166
0.152,0.132,0.156,0.024,-0.142,0.054,0.088,-0.024,0.273,0.444,0.337,0.283,0.166
0.154,0.151,0.171,0.02,-0.161,0.063,0.093,-0.029,0.278,0.449,0.346,0.283,0.171
0.156,0.142,0.171,0.029,-0.156,0.054,0.098,-0.034,0.288,0.454,0.346,0.293,0.171
0.158,0.127,0.171,0.044,-0.146,0.039,0.107,-0.044,0.283,0.459,0.351,0.288,0.171
0.16,0.132,0.176,0.044,-0.151,0.044,0.107,-0.044,0.288,0.473,0.361,0.303,0.181
0.162,0.137,0.195,0.059,-0.166,0.039,0.127,-0.039,0.288,0.478,0.371,0.312,0.19
0.164,0.151,0.205,0.054,-0.176,0.049,0.127,-0.039,0.298,0.493,0.386,0.322,0.195
0.166,0.156,0.215,0.059,-0.185,0.049,0.137,-0.034,0.307,0.508,0.395,0.332,0.21
0.168,0.161,0.2,0.039,-0.181,0.059,0.117,-0.039,0.298,0.498,0.386,0.327,0.2
0.17,0.171,0.19,0.02,-0.181,0.073,0.102,-0.044,0.288,0.493,0.376,0.322,0.195
0.172,0.171,0.185,0.015,-0.176,0.078,0.098,-0.039,0.303,0.508,0.386,0.327,0.2
0.174,0.195,0.21,0.015,-0.2,0.088,0.112,-0.034,0.307,0.508,0.39,0.337,0.21
0.176,0.176,0.181,0.005,-0.176,0.083,0.093,-0.044,0.303,0.498,0.381,0.327,0.205
0.178,0.156,0.166,0.01,-0.161,0.073,0.088,-0.054,0.303,0.503,0.386,0.327,0.195
0.18,0.161,0.171,0.01,-0.166,0.073,0.088,-0.063,0.307,0.517,0.386,0.327,0.195
0.182,0.156,0.181,0.024,-0.166,0.063,0.102,-0.063,0.303,0.512,0.386,0.327,0.19
0.184,0.137,0.161,0.024,-0.146,0.054,0.093,-0.059,0.303,0.517,0.39,0.327,0.185
0.186,0.156,0.176,0.02,-0.166,0.068,0.098,-0.059,0.303,0.522,0.39,0.322,0.185
0.188,0.166,0.181,0.015,-0.171,0.073,0.098,-0.059,0.307,0.522,0.386,0.322,0.19
0.19,0.166,0.176,0.01,-0.171,0.078,0.093,-0.039,0.317,0.527,0.386,0.327,0.195
0.192,0.161,0.156,-0.005,-0.156,0.083,0.073,-0.039,0.317,0.522,0.376,0.312,0.19
0.194,0.156,0.151,-0.005,-0.151,0.078,0.073,-0.039,0.312,0.508,0.366,0.298,0.181
0.196,0.161,0.156,-0.005,-0.156,0.083,0.073,-0.039,0.312,0.503,0.361,0.298,0.176
0.198,0.151,0.156,0.005,-0.151,0.073,0.078,-0.039,0.312,0.508,0.361,0.293,0.176
0.2,0.151,0.171,0.02,-0.161,0.063,0.093,-0.039,0.307,0.503,0.361,0.288,0.171
0.202,0.166,0.176,0.01,-0.171,0.078,0.093,-0.024,0.303,0.493,0.361,0.288,0.171
0.204,0.166,0.171,0.005,-0.166,0.078,0.088,-0.024,0.307,0.493,0.356,0.288,0.166
0.206,0.142,0.151,0.01,-0.146,0.063,0.078,-0.024,0.298,0.483,0.346,0.278,0.156
0.208,0.137,0.132,-0.005,-0.132,0.068,0.063,-0.015,0.298,0.473,0.342,0.283,0.161
0.21,0.137,0.122,-0.015,-0.127,0.073,0.054,-0.015,0.288,0.459,0.332,0.278,0.156
0.212,0.127,0.117,-0.01,-0.122,0.068,0.054,-0.015,0.288,0.454,0.327,0.273,0.151
0.214,0.117,0.122,0.005,-0.117,0.054,0.063,-0.01,0.278,0.425,0.312,0.254,0.137
0.216,0.112,0.127,0.015,-0.117,0.049,0.068,-0.005,0.278,0.41,0.298,0.244,0.132
0.218,0.117,0.127,0.01,-0.122,0.054,0.068,0.0,0.278,0.41,0.298,0.239,0.132
0.22,0.117,0.117,0.0,-0.117,0.059,0.059,-0.005,0.268,0.405,0.288,0.234,0.127
0.222,0.093,0.107,0.015,-0.098,0.039,0.059,0.0,0.254,0.381,0.268,0.215,0.112
0.224,0.073,0.102,0.029,-0.088,0.02,0.063,0.005,0.254,0.371,0.259,0.21,0.112
0.226,0.073,0.098,0.024,-0.083,0.024,0.059,0.005,0.234,0.346,0.234,0.19,0.098
0.228,0.083,0.098,0.015,-0.088,0.034,0.054,0.01,0.224,0.327,0.22,0.185,0.093
0.23,0.093,0.102,0.01,-0.098,0.039,0.054,0.02,0.21,0.303,0.205,0.166,0.078
0.232,0.068,0.078,0.01,-0.073,0.029,0.044,0.02,0.21,0.288,0.195,0.156,0.068
0.234,0.078,0.093,0.015,-0.083,0.029,0.054,0.02,0.205,0.268,0.181,0.142,0.063
0.236,0.088,0.088,0.0,-0.088,0.044,0.044,0.01,0.185,0.239,0.151,0.122,0.044
0.238,0.063,0.083,0.02,-0.073,0.02,0.049,0.024,0.185,0.234,0.146,0.112,0.044
0.24,0.054,0.083,0.029,-0.068,0.01,0.054,0.034,0.185,0.224,0.146,0.112,0.049
0.242,0.044,0.088,0.044,-0.063,0.0,0.063,0.034,0.166,0.205,0.137,0.107,0.034
0.244,0.044,0.073,0.029,-0.059,0.005,0.049,0.024,0.146,0.185,0.112,0.088,0.02
0.246,0.029,0.059,0.029,-0.044,0.0,0.044,0.024,0.127,0.156,0.088,0.063,0.01
0.248,0.024,0.049,0.024,-0.034,0.0,0.034,0.029,0.122,0.137,0.073,0.054,0.005
0.25,0.029,0.049,0.02,-0.039,0.005,0.034,0.034,0.112,0.117,0.059,0.039,0.0
0.252,0.015,0.024,0.01,-0.02,0.0,0.015,0.029,0.093,0.098,0.039,0.02,-0.01
0.254,-0.01,0.005,0.015,0.005,-0.015,0.01,0.034,0.093,0.083,0.029,0.01,-0.02
0.256,0.0,0.015,0.015,-0.005,-0.01,0.015,0.039,0.093,0.073,0.02,0.005,-0.015
0.258,0.02,0.039,0.02,-0.029,0.0,0.029,0.044,0.098,0.068,0.015,0.0,-0.015
0.26,0.005,0.034,0.029,-0.02,-0.015,0.029,0.049,0.098,0.063,0.02,0.005,-0.02
0.262,0.024,0.044,0.02,-0.034,0.0,0.029,0.044,0.088,0.054,0.01,-0.005,-0.02
0.264,0.005,0.02,0.015,-0.01,-0.005,0.015,0.024,0.054,0.024,-0.02,-0.029,-0.039
0.266,0.0,0.005,0.005,0.0,-0.005,0.005,0.029,0.044,0.005,-0.039,-0.044,-0.049
0.268,0.005,0.01,0.005,-0.005,0.0,0.005,0.029,0.049,0.005,-0.039,-0.049,-0.049
0.27,-0.01,0.01,0.02,0.0,-0.015,0.015,0.029,0.039,-0.01,-0.054,-0.059,-0.054
0.272,-0.01,0.015,0.024,0.0,-0.02,0.02,0.034,0.039,-0.02,-0.063,-0.068,-0.054
0.274,-0.015,0.01,0.024,0.005,-0.02,0.015,0.029,0.029,-0.034,-0.068,-0.078,-0.068
0.276,-0.02,0.0,0.02,0.01,-0.02,0.01,0.024,0.024,-0.049,-0.083,-0.083,-0.073
0.278,-0.029,0.0,0.029,0.015,-0.029,0.015,0.015,0.02,-0.054,-0.093,-0.093,-0.078
0.28,-0.029,-0.01,0.02,0.02,-0.024,0.005,0.015,0.015,-0.059,-0.088,-0.093,-0.083
0.282,-0.029,-0.005,0.024,0.02,-0.029,0.01,0.01,0.005,-0.063,-0.098,-0.102,-0.093
0.284,-0.02,0.01,0.029,0.005,-0.024,0.02,0.02,0.015,-0.054,-0.088,-0.088,-0.083
0.286,-0.01,0.005,0.015,0.005,-0.015,0.01,0.029,0.015,-0.059,-0.088,-0.088,-0.078
0.288,-0.01,0.005,0.015,0.005,-0.015,0.01,0.029,0.01,-0.063,-0.093,-0.088,-0.073
0.29,-0.02,-0.01,0.01,0.015,-0.015,0.0,0.024,0.005,-0.073,-0.098,-0.093,-0.078
0.292,-0.024,-0.015,0.01,0.02,-0.02,-0.005,0.024,0.005,-0.073,-0.102,-0.093,-0.083
0.294,-0.034,-0.02,0.015,0.029,-0.024,-0.005,0.024,0.0,-0.083,-0.107,-0.098,-0.088
0.296,-0.044,-0.015,0.029,0.029,-0.039,0.005,0.02,0.0,-0.088,-0.107,-0.107,-0.093
0.298,-0.02,0.0,0.02,0.01,-0.02,0.01,0.024,0.0,-0.088,-0.107,-0.102,-0.088
0.3,-0.029,-0.02,0.01,0.024,-0.02,-0.005,0.029,0.005,-0.078,-0.107,-0.098,-0.083
0.302,-0.044,-0.029,0.015,0.039,-0.029,-0.01,0.024,-0.005,-0.088,-0.112,-0.102,-0.078
0.304,-0.049,-0.02,0.029,0.034,-0.039,0.005,0.024,-0.005,-0.088,-0.117,-0.102,-0.078
0.306,-0.049,-0.015,0.034,0.034,-0.044,0.01,0.024,-0.005,-0.088,-0.112,-0.098,-0.078
0.308,-0.029,0.005,0.034,0.015,-0.034,0.02,0.024,-0.005,-0.088,-0.102,-0.093,-0.073
0.31,0.0,0.024,0.024,-0.01,-0.015,0.024,0.039,0.0,-0.083,-0.093,-0.083,-0.063
0.312,-0.015,0.02,0.034,0.0,-0.024,0.024,0.039,-0.005,-0.088,-0.102,-0.098,-0.073
0.314,-0.024,0.01,0.034,0.01,-0.029,0.02,0.044,0.005,-0.088,-0.098,-0.093,-0.078
0.316,-0.029,0.015,0.044,0.01,-0.039,0.029,0.034,0.005,-0.088,-0.098,-0.093,-0.073
0.318,-0.029,0.02,0.049,0.005,-0.039,0.034,0.034,0.0,-0.088,-0.102,-0.098,-0.073
0.32,-0.044,0.005,0.049,0.02,-0.049,0.024,0.029,-0.005,-0.093,-0.107,-0.102,-0.083
0.322,-0.049,0.015,0.063,0.02,-0.059,0.039,0.029,-0.01,-0.102,-0.107,-0.098,-0.083
0.324,-0.034,0.044,0.078,-0.005,-0.059,0.059,0.029,-0.005,-0.088,-0.098,-0.098,-0.073
0.326,-0.015,0.049,0.063,-0.015,-0.039,0.054,0.039,0.0,-0.088,-0.098,-0.088,-0.068
0.328,-0.034,0.029,0.063,0.005,-0.049,0.044,0.049,0.005,-0.083,-0.093,-0.083,-0.063
0.33,-0.029,0.024,0.054,0.005,-0.044,0.039,0.044,0.005,-0.088,-0.093,-0.083,-0.054
0.332,-0.015,0.039,0.054,-0.01,-0.034,0.044,0.044,0.005,-0.088,-0.093,-0.088,-0.054
0.334,-0.024,0.034,0.059,-0.005,-0.044,0.044,0.044,0.005,-0.093,-0.098,-0.088,-0.054
0.336,-0.034,0.034,0.068,0.0,-0.054,0.049,0.049,0.015,-0.083,-0.088,-0.083,-0.039
0.338,-0.049,0.024,0.073,0.015,-0.063,0.049,0.049,0.015,-0.083,-0.088,-0.083,-0.039
0.34,-0.039,0.029,0.068,0.005,-0.054,0.049,0.044,0.01,-0.083,-0.088,-0.073,-0.034
0.342,-0.024,0.044,0.068,-0.01,-0.049,0.054,0.039,0.01,-0.083,-0.078,-0.068,-0.029
0.344,-0.029,0.039,0.068,-0.005,-0.049,0.054,0.034,0.01,-0.073,-0.068,-0.068,-0.034
0.346,-0.024,0.049,0.073,-0.01,-0.049,0.059,0.044,0.01,-0.073,-0.063,-0.059,-0.029
0.348,-0.02,0.054,0.073,-0.015,-0.049,0.063,0.034,0.005,-0.078,-0.073,-0.068,-0.034
0.35,-0.029,0.039,0.068,-0.005,-0.049,0.054,0.024,-0.005,-0.088,-0.083,-0.078,-0.039
0.352,-0.024,0.039,0.063,-0.005,-0.044,0.049,0.029,0.005,-0.078,-0.083,-0.083,-0.034
0.354,-0.01,0.068,0.078,-0.029,-0.044,0.073,0.029,0.005,-0.078,-0.083,-0.078,-0.034
0.356,-0.005,0.083,0.088,-0.039,-0.049,0.083,0.029,0.015,-0.068,-0.063,-0.068,-0.029
0.358,-0.005,0.083,0.088,-0.039,-0.049,0.083,0.039,0.029,-0.054,-0.049,-0.054,-0.015
0.36,0.0,0.088,0.088,-0.044,-0.044,0.088,0.044,0.039,-0.044,-0.039,-0.044,-0.005
0.362,-0.005,0.078,0.083,-0.034,-0.044,0.078,0.029,0.034,-0.049,-0.039,-0.044,-0.005
0.364,-0.01,0.063,0.073,-0.024,-0.044,0.068,0.02,0.015,-0.059,-0.054,-0.059,-0.015
0.366,-0.015,0.059,0.073,-0.02,-0.044,0.063,0.024,0.0,-0.073,-0.059,-0.059,-0.02
0.368,-0.01,0.063,0.073,-0.024,-0.044,0.068,0.02,0.0,-0.068,-0.059,-0.059,-0.02
0.37,-0.005,0.068,0.073,-0.029,-0.039,0.068,0.024,0.0,-0.059,-0.049,-0.049,-0.015
0.372,-0.015,0.049,0.063,-0.015,-0.039,0.054,0.024,0.005,-0.063,-0.054,-0.054,-0.02
0.374,0.0,0.063,0.063,-0.029,-0.034,0.063,0.029,0.01,-0.059,-0.049,-0.049,-0.015
0.376,-0.02,0.049,0.068,-0.015,-0.044,0.059,0.029,0.02,-0.044,-0.039,-0.039,-0.005
0.378,-0.024,0.063,0.088,-0.02,-0.059,0.073,0.034,0.02,-0.044,-0.039,-0.044,-0.01
0.38,-0.015,0.073,0.088,-0.029,-0.054,0.078,0.029,0.024,-0.039,-0.034,-0.044,-0.01
0.382,-0.01,0.073,0.083,-0.029,-0.049,0.078,0.029,0.024,-0.039,-0.029,-0.044,-0.01
0.384,-0.01,0.078,0.088,-0.034,-0.049,0.083,0.024,0.02,-0.039,-0.029,-0.044,-0.015
0.386,-0.015,0.073,0.088,-0.029,-0.054,0.078,0.024,0.01,-0.044,-0.034,-0.044,-0.015
0.388,-0.015,0.063,0.078,-0.024,-0.049,0.068,0.024,0.0,-0.059,-0.039,-0.049,-0.015
0.39,0.01,0.083,0.073,-0.044,-0.034,0.078,0.034,0.005,-0.054,-0.034,-0.049,-0.01
0.392,0.01,0.068,0.059,-0.039,-0.024,0.063,0.02,-0.005,-0.068,-0.049,-0.059,-0.02
0.394,-0.015,0.039,0.054,-0.01,-0.034,0.044,0.015,-0.015,-0.078,-0.059,-0.068,-0.029
0.396,0.0,0.059,0.059,-0.029,-0.029,0.059,0.015,-0.01,-0.073,-0.054,-0.063,-0.02
0.398,0.0,0.063,0.063,-0.029,-0.034,0.063,0.02,0.0,-0.068,-0.054,-0.068,-0.02
0.4,-0.015,0.054,0.068,-0.02,-0.044,0.059,0.01,-0.005,-0.073,-0.059,-0.068,-0.02
0.402,-0.01,0.059,0.068,-0.024,-0.039,0.063,0.01,-0.005,-0.068,-0.059,-0.073,-0.015
0.404,0.0,0.059,0.059,-0.029,-0.029,0.059,0.005,-0.01,-0.063,-0.054,-0.073,-0.015
0.406,0.02,0.068,0.049,-0.044,-0.015,0.059,0.01,-0.015,-0.068,-0.054,-0.073,-0.02
0.408,0.034,0.078,0.044,-0.054,-0.005,0.059,0.01,-0.02,-0.078,-0.054,-0.073,-0.015
0.41,0.015,0.054,0.039,-0.034,-0.015,0.044,0.01,-0.029,-0.093,-0.063,-0.083,-0.024
0.412,-0.02,0.034,0.054,-0.005,-0.039,0.044,0.0,-0.034,-0.093,-0.073,-0.088,-0.034
0.414,-0.015,0.044,0.059,-0.015,-0.039,0.049,0.015,-0.02,-0.083,-0.059,-0.078,-0.029
0.416,0.015,0.063,0.049,-0.039,-0.02,0.054,0.01,-0.015,-0.083,-0.063,-0.088,-0.024
0.418,0.015,0.068,0.054,-0.039,-0.02,0.059,0.01,-0.024,-0.093,-0.078,-0.098,-0.039
0.42,-0.01,0.059,0.068,-0.024,-0.039,0.063,0.01,-0.024,-0.093,-0.078,-0.093,-0.044
0.422,-0.005,0.054,0.059,-0.024,-0.034,0.054,0.005,-0.024,-0.083,-0.073,-0.088,-0.039
0.424,-0.015,0.049,0.063,-0.015,-0.039,0.054,0.005,-0.029,-0.088,-0.068,-0.088,-0.039
0.426,-0.015,0.039,0.054,-0.01,-0.034,0.044,0.005,-0.034,-0.093,-0.073,-0.083,-0.044
0.428,-0.015,0.044,0.059,-0.015,-0.039,0.049,0.0,-0.039,-0.098,-0.073,-0.088,-0.039
0.43,0.0,0.054,0.054,-0.024,-0.029,0.054,0.0,-0.044,-0.107,-0.083,-0.098,-0.039
0.432,-0.005,0.063,0.068,-0.029,-0.039,0.063,0.005,-0.049,-0.112,-0.088,-0.102,-0.044
0.434,-0.024,0.029,0.054,0.0,-0.039,0.039,0.0,-0.054,-0.117,-0.102,-0.112,-0.049
0.436,-0.024,0.024,0.049,0.0,-0.039,0.034,-0.005,-0.049,-0.117,-0.102,-0.117,-0.044
0.438,-0.029,0.039,0.068,-0.005,-0.049,0.054,-0.005,-0.049,-0.112,-0.107,-0.112,-0.039
0.44,-0.044,0.044,0.088,0.0,-0.068,0.063,-0.01,-0.059,-0.122,-0.112,-0.117,-0.049
0.442,-0.034,0.044,0.078,-0.005,-0.059,0.059,-0.01,-0.049,-0.112,-0.107,-0.112,-0.044
0.444,-0.02,0.039,0.059,-0.01,-0.039,0.049,-0.015,-0.054,-0.112,-0.107,-0.112,-0.044
0.446,-0.024,0.029,0.054,0.0,-0.039,0.039,-0.005,-0.063,-0.117,-0.107,-0.107,-0.044
0.448,-0.024,0.034,0.059,-0.005,-0.044,0.044,-0.01,-0.063,-0.117,-0.102,-0.107,-0.044
0.45,-0.029,0.02,0.049,0.005,-0.039,0.034,-0.005,-0.054,-0.117,-0.093,-0.102,-0.044
0.452,-0.024,0.024,0.049,0.0,-0.039,0.034,-0.005,-0.054,-0.117,-0.098,-0.098,-0.049
0.454,-0.005,0.034,0.039,-0.015,-0.024,0.034,0.0,-0.059,-0.127,-0.102,-0.098,-0.054
0.456,0.02,0.063,0.044,-0.039,-0.015,0.054,0.015,-0.049,-0.117,-0.093,-0.093,-0.039
0.458,0.01,0.054,0.044,-0.029,-0.02,0.049,0.01,-0.049,-0.122,-0.102,-0.098,-0.044
0.46,-0.024,0.029,0.054,0.0,-0.039,0.039,0.005,-0.049,-0.112,-0.107,-0.102,-0.054
0.462,-0.044,0.01,0.054,0.02,-0.049,0.029,0.0,-0.059,-0.127,-0.117,-0.117,-0.063
0.464,-0.034,0.02,0.054,0.01,-0.044,0.034,-0.015,-0.073,-0.137,-0.132,-0.132,-0.068
0.466,-0.034,0.015,0.049,0.01,-0.044,0.029,-0.01,-0.083,-0.142,-0.132,-0.127,-0.068
0.468,-0.015,0.029,0.044,-0.005,-0.029,0.034,-0.005,-0.083,-0.142,-0.127,-0.127,-0.068
0.47,-0.024,0.02,0.044,0.005,-0.034,0.029,-0.005,-0.078,-0.137,-0.117,-0.122,-0.054
0.472,-0.015,0.034,0.049,-0.01,-0.034,0.039,-0.005,-0.073,-0.132,-0.117,-0.122,-0.054
0.474,0.01,0.068,0.059,-0.039,-0.024,0.063,0.01,-0.063,-0.132,-0.117,-0.112,-0.044
0.476,-0.01,0.039,0.049,-0.015,-0.029,0.044,0.005,-0.063,-0.137,-0.127,-0.122,-0.054
0.478,-0.034,0.015,0.049,0.01,-0.044,0.029,-0.01,-0.063,-0.137,-0.127,-0.137,-0.054
0.48,-0.054,0.0,0.054,0.029,-0.054,0.024,0.0,-0.073,-0.142,-0.132,-0.132,-0.063
0.482,-0.029,0.024,0.054,0.005,-0.044,0.039,0.0,-0.073,-0.142,-0.127,-0.127,-0.049
0.484,0.005,0.059,0.054,-0.029,-0.024,0.054,-0.01,-0.073,-0.132,-0.117,-0.122,-0.039
0.486,-0.015,0.049,0.063,-0.015,-0.039,0.054,-0.01,-0.083,-0.142,-0.122,-0.127,-0.049
0.488,-0.034,0.015,0.049,0.01,-0.044,0.029,-0.005,-0.093,-0.161,-0.132,-0.137,-0.063
0.49,-0.039,0.005,0.044,0.02,-0.044,0.024,-0.005,-0.088,-0.161,-0.132,-0.142,-0.063
0.492,-0.029,0.024,0.054,0.005,-0.044,0.039,-0.005,-0.088,-0.156,-0.137,-0.142,-0.063
0.494,-0.034,0.015,0.049,0.01,-0.044,0.029,0.005,-0.088,-0.156,-0.132,-0.137,-0.059
0.496,-0.049,0.0,0.049,0.024,-0.049,0.024,-0.005,-0.088,-0.161,-0.137,-0.142,-0.059
0.498,-0.054,0.005,0.059,0.024,-0.059,0.029,-0.01,-0.088,-0.161,-0.146,-0.146,-0.059
0.5,-0.049,0.005,0.054,0.024,-0.054,0.029,-0.005,-0.093,-0.166,-0.146,-0.146,-0.063
0.502,-0.049,-0.005,0.044,0.029,-0.049,0.02,-0.005,-0.088,-0.156,-0.137,-0.142,-0.054
0.504,-0.034,0.0,0.034,0.02,-0.034,0.015,-0.02,-0.098,-0.161,-0.146,-0.146,-0.059
0.506,-0.01,0.02,0.029,-0.005,-0.02,0.024,-0.015,-0.098,-0.156,-0.137,-0.132,-0.044
0.508,-0.005,0.029,0.034,-0.01,-0.02,0.029,-0.01,-0.083,-0.142,-0.117,-0.122,-0.029
0.51,-0.029,0.024,0.054,0.005,-0.044,0.039,-0.005,-0.078,-0.137,-0.117,-0.117,-0.024
0.512,-0.029,0.015,0.044,0.01,-0.039,0.029,-0.005,-0.083,-0.151,-0.132,-0.127,-0.024
0.514,-0.02,0.005,0.024,0.01,-0.024,0.015,-0.005,-0.093,-0.166,-0.151,-0.142,-0.039
0.516,-0.005,0.015,0.02,-0.005,-0.015,0.015,0.0,-0.078,-0.156,-0.142,-0.137,-0.029
0.518,-0.02,0.01,0.029,0.005,-0.024,0.02,0.0,-0.083,-0.166,-0.146,-0.142,-0.044
0.52,-0.063,-0.02,0.044,0.044,-0.054,0.01,-0.01,-0.093,-0.171,-0.156,-0.151,-0.054
0.522,-0.034,0.01,0.044,0.015,-0.039,0.024,-0.005,-0.088,-0.161,-0.146,-0.142,-0.044
0.524,-0.02,0.015,0.034,0.005,-0.029,0.024,-0.01,-0.088,-0.156,-0.137,-0.132,-0.039
0.526,-0.02,0.0,0.02,0.01,-0.02,0.01,-0.015,-0.102,-0.161,-0.142,-0.137,-0.049
0.528,-0.005,0.015,0.02,-0.005,-0.015,0.015,-0.015,-0.098,-0.156,-0.137,-0.137,-0.044
0.53,-0.005,0.024,0.029,-0.01,-0.02,0.024,-0.005,-0.093,-0.156,-0.137,-0.137,-0.054
0.532,-0.039,0.005,0.044,0.02,-0.044,0.024,-0.01,-0.093,-0.161,-0.146,-0.146,-0.063
0.534,-0.059,-0.01,0.049,0.034,-0.054,0.02,-0.01,-0.098,-0.166,-0.151,-0.146,-0.054
0.536,-0.029,0.0,0.029,0.015,-0.029,0.015,-0.015,-0.093,-0.161,-0.151,-0.146,-0.054
0.538,-0.039,-0.005,0.034,0.024,-0.039,0.015,-0.01,-0.093,-0.166,-0.151,-0.137,-0.049
0.54,-0.039,-0.005,0.034,0.024,-0.039,0.015,-0.005,-0.098,-0.166,-0.151,-0.142,-0.049
0.542,-0.034,0.0,0.034,0.02,-0.034,0.015,-0.005,-0.098,-0.171,-0.151,-0.146,-0.059
0.544,-0.029,0.005,0.034,0.015,-0.034,0.02,-0.01,-0.098,-0.171,-0.146,-0.146,-0.059
0.546,-0.01,0.015,0.024,0.0,-0.02,0.02,0.0,-0.093,-0.166,-0.142,-0.132,-0.044
0.548,-0.02,0.005,0.024,0.01,-0.024,0.015,-0.005,-0.098,-0.166,-0.146,-0.142,-0.044
0.55,-0.054,-0.015,0.039,0.034,-0.049,0.01,0.0,-0.098,-0.166,-0.142,-0.146,-0.044
0.552,-0.049,-0.034,0.015,0.044,-0.034,-0.01,0.01,-0.088,-0.161,-0.142,-0.142,-0.044
0.554,-0.039,-0.024,0.015,0.034,-0.029,-0.005,0.005,-0.088,-0.166,-0.151,-0.142,-0.049
0.556,-0.034,-0.01,0.024,0.024,-0.029,0.005,0.005,-0.083,-0.156,-0.146,-0.137,-0.039
0.558,-0.039,-0.01,0.029,0.024,-0.034,0.01,0.0,-0.093,-0.166,-0.151,-0.137,-0.039
0.56,-0.024,0.005,0.029,0.01,-0.029,0.015,-0.005,-0.098,-0.171,-0.166,-0.137,-0.034
0.562,-0.029,0.01,0.039,0.01,-0.034,0.024,-0.01,-0.102,-0.176,-0.161,-0.142,-0.039
0.564,-0.029,0.015,0.044,0.01,-0.039,0.029,-0.01,-0.093,-0.166,-0.151,-0.142,-0.034
0.566,-0.024,0.015,0.039,0.005,-0.034,0.024,-0.005,-0.098,-0.161,-0.146,-0.137,-0.034
0.568,-0.029,0.005,0.034,0.015,-0.034,0.02,-0.01,-0.107,-0.171,-0.156,-0.146,-0.039
0.57,-0.029,0.01,0.039,0.01,-0.034,0.024,-0.005,-0.112,-0.181,-0.156,-0.151,-0.044
0.572,-0.039,-0.01,0.029,0.024,-0.034,0.01,-0.015,-0.117,-0.185,-0.166,-0.156,-0.049
0.574,-0.049,-0.029,0.02,0.039,-0.034,-0.005,-0.01,-0.107,-0.181,-0.166,-0.156,-0.049
0.576,-0.059,-0.029,0.029,0.044,-0.044,0.0,-0.015,-0.102,-0.176,-0.161,-0.151,-0.049
0.578,-0.059,-0.029,0.029,0.044,-0.044,0.0,-0.005,-0.098,-0.171,-0.151,-0.137,-0.044
0.58,-0.044,-0.015,0.029,0.029,-0.039,0.005,-0.01,-0.098,-0.166,-0.146,-0.137,-0.044
0.582,-0.044,-0.01,0.034,0.029,-0.039,0.01,-0.005,-0.102,-0.171,-0.142,-0.142,-0.039
0.584,-0.029,0.005,0.034,0.015,-0.034,0.02,-0.01,-0.107,-0.171,-0.142,-0.142,-0.039
0.586,-0.015,0.024,0.039,-0.005,-0.029,0.029,-0.005,-0.107,-0.171,-0.146,-0.137,-0.039
0.588,-0.029,0.02,0.049,0.005,-0.039,0.034,0.0,-0.098,-0.171,-0.151,-0.142,-0.039
0.59,-0.044,0.005,0.049,0.02,-0.049,0.024,0.005,-0.093,-0.166,-0.142,-0.137,-0.039
0.592,-0.039,0.005,0.044,0.02,-0.044,0.024,0.01,-0.088,-0.161,-0.142,-0.127,-0.034
0.594,-0.049,-0.01,0.039,0.029,-0.044,0.015,0.01,-0.093,-0.166,-0.146,-0.132,-0.034
0.596,-0.054,-0.024,0.029,0.039,-0.044,0.0,-0.005,-0.102,-0.176,-0.156,-0.137,-0.029
0.598,-0.054,-0.029,0.024,0.044,-0.039,-0.005,-0.005,-0.107,-0.181,-0.161,-0.146,-0.029
0.6,-0.049,-0.024,0.024,0.039,-0.039,0.0,-0.01,-0.112,-0.185,-0.166,-0.142,-0.029
0.602,-0.039,-0.015,0.024,0.029,-0.034,0.005,0.005,-0.102,-0.176,-0.151,-0.127,-0.024
0.604,-0.063,-0.024,0.039,0.044,-0.054,0.005,0.0,-0.102,-0.171,-0.151,-0.137,-0.024
0.606,-0.073,-0.034,0.039,0.054,-0.059,0.0,0.005,-0.102,-0.166,-0.151,-0.137,-0.029
0.608,-0.049,-0.02,0.029,0.034,-0.039,0.005,0.005,-0.107,-0.171,-0.151,-0.132,-0.02
0.61,-0.039,-0.005,0.034,0.024,-0.039,0.015,0.01,-0.102,-0.166,-0.146,-0.132,-0.024
0.612,-0.044,-0.01,0.034,0.029,-0.039,0.01,0.01,-0.098,-0.166,-0.146,-0.137,-0.024
0.614,-0.063,-0.029,0.034,0.049,-0.049,0.0,0.005,-0.098,-0.171,-0.156,-0.137,-0.029
0.616,-0.059,-0.029,0.029,0.044,-0.044,0.0,0.005,-0.098,-0.171,-0.156,-0.137,-0.024
0.618,-0.059,-0.024,0.034,0.044,-0.049,0.005,0.015,-0.093,-0.166,-0.151,-0.132,-0.02
0.62,-0.063,-0.029,0.034,0.049,-0.049,0.0,0.015,-0.093,-0.166,-0.156,-0.127,-0.005
0.622,-0.054,-0.024,0.029,0.039,-0.044,0.0,0.02,-0.098,-0.171,-0.151,-0.122,-0.005
0.624,-0.044,-0.029,0.015,0.039,-0.029,-0.01,0.015,-0.102,-0.171,-0.151,-0.122,-0.005
0.626,-0.044,-0.029,0.015,0.039,-0.029,-0.01,0.005,-0.107,-0.171,-0.156,-0.132,-0.01
0.628,-0.068,-0.054,0.015,0.063,-0.044,-0.02,0.005,-0.112,-0.166,-0.156,-0.127,-0.005
0.63,-0.063,-0.054,0.01,0.059,-0.039,-0.024,0.005,-0.107,-0.171,-0.156,-0.122,-0.01
0.632,-0.044,-0.02,0.024,0.034,-0.034,0.0,0.015,-0.098,-0.166,-0.151,-0.117,0.005
0.634,-0.034,-0.01,0.024,0.024,-0.029,0.005,0.024,-0.093,-0.156,-0.151,-0.117,0.005
0.636,-0.054,-0.034,0.02,0.044,-0.039,-0.01,0.02,-0.093,-0.156,-0.151,-0.117,0.0
0.638,-0.063,-0.039,0.024,0.054,-0.044,-0.01,0.015,-0.098,-0.171,-0.161,-0.127,-0.015
0.64,-0.044,-0.024,0.02,0.034,-0.034,-0.005,0.015,-0.093,-0.166,-0.161,-0.127,-0.01
0.642,-0.049,-0.024,0.024,0.039,-0.039,0.0,0.01,-0.098,-0.171,-0.161,-0.127,-0.02
0.644,-0.059,-0.024,0.034,0.044,-0.049,0.005,0.01,-0.098,-0.171,-0.161,-0.132,-0.01
0.646,-0.054,-0.034,0.02,0.044,-0.039,-0.01,0.005,-0.102,-0.176,-0.166,-0.137,-0.015
0.648,-0.059,-0.034,0.024,0.049,-0.044,-0.005,0.01,-0.098,-0.171,-0.161,-0.132,-0.01
0.65,-0.049,-0.029,0.02,0.039,-0.034,-0.005,0.02,-0.098,-0.171,-0.166,-0.127,-0.015
0.652,-0.044,-0.01,0.034,0.029,-0.039,0.01,0.024,-0.088,-0.156,-0.156,-0.117,0.0
0.654,-0.059,-0.024,0.034,0.044,-0.049,0.005,0.029,-0.093,-0.156,-0.151,-0.107,0.005
0.656,-0.063,-0.044,0.02,0.054,-0.044,-0.015,0.02,-0.098,-0.161,-0.151,-0.112,0.015
0.658,-0.063,-0.039,0.024,0.054,-0.044,-0.01,0.02,-0.098,-0.166,-0.151,-0.112,0.005
0.66,-0.059,-0.049,0.01,0.054,-0.034,-0.02,0.02,-0.102,-0.176,-0.161,-0.127,-0.005
0.662,-0.059,-0.029,0.029,0.044,-0.044,0.0,0.02,-0.107,-0.171,-0.166,-0.127,-0.01
0.664,-0.059,-0.02,0.039,0.039,-0.049,0.01,0.024,-0.093,-0.156,-0.146,-0.112,0.005
0.666,-0.068,-0.039,0.029,0.054,-0.049,-0.005,0.02,-0.107,-0.156,-0.151,-0.117,-0.01
0.668,-0.073,-0.049,0.024,0.063,-0.049,-0.015,0.015,-0.107,-0.166,-0.161,-0.127,-0.01
0.67,-0.083,-0.049,0.034,0.068,-0.059,-0.01,0.024,-0.098,-0.161,-0.156,-0.122,-0.01
0.672,-0.088,-0.059,0.029,0.073,-0.059,-0.015,0.024,-0.098,-0.161,-0.151,-0.112,-0.01
0.674,-0.063,-0.034,0.029,0.049,-0.049,-0.005,0.029,-0.098,-0.161,-0.146,-0.107,-0.01
0.676,-0.068,-0.044,0.024,0.059,-0.049,-0.01,0.024,-0.093,-0.166,-0.156,-0.117,-0.01
0.678,-0.107,-0.078,0.029,0.093,-0.068,-0.024,0.015,-0.112,-0.181,-0.171,-0.132,-0.02
0.68,-0.054,-0.039,0.015,0.049,-0.034,-0.015,0.024,-0.102,-0.166,-0.151,-0.112,-0.005
0.682,-0.049,-0.039,0.01,0.044,-0.029,-0.015,0.024,-0.098,-0.161,-0.146,-0.107,0.0
0.684,-0.083,-0.059,0.024,0.073,-0.054,-0.02,0.024,-0.098,-0.166,-0.146,-0.107,0.0
0.686,-0.078,-0.039,0.039,0.059,-0.059,0.0,0.034,-0.093,-0.156,-0.142,-0.098,0.01
0.688,-0.073,-0.039,0.034,0.059,-0.054,-0.005,0.02,-0.107,-0.166,-0.156,-0.112,0.0
0.69,-0.078,-0.054,0.024,0.068,-0.054,-0.015,0.01,-0.107,-0.176,-0.161,-0.117,0.0
0.692,-0.078,-0.049,0.029,0.063,-0.054,-0.01,0.015,-0.107,-0.171,-0.161,-0.117,-0.01
0.694,-0.068,-0.049,0.02,0.059,-0.044,-0.015,0.024,-0.102,-0.171,-0.161,-0.122,-0.01
0.696,-0.059,-0.039,0.02,0.049,-0.039,-0.01,0.034,-0.098,-0.171,-0.166,-0.117,-0.005
0.698,-0.068,-0.044,0.024,0.059,-0.049,-0.01,0.039,-0.098,-0.176,-0.161,-0.117,-0.005
0.7,-0.063,-0.049,0.015,0.059,-0.039,-0.02,0.044,-0.098,-0.166,-0.151,-0.107,-0.005
0.702,-0.044,-0.034,0.01,0.039,-0.029,-0.015,0.044,-0.093,-0.161,-0.137,-0.107,0.01
0.704,-0.049,-0.034,0.015,0.044,-0.034,-0.01,0.034,-0.088,-0.156,-0.127,-0.102,0.015
0.706,-0.063,-0.044,0.02,0.054,-0.044,-0.015,0.039,-0.093,-0.156,-0.132,-0.102,0.005
0.708,-0.059,-0.044,0.015,0.054,-0.039,-0.015,0.044,-0.098,-0.156,-0.132,-0.112,0.005
0.71,-0.083,-0.063,0.02,0.073,-0.054,-0.024,0.044,-0.093,-0.161,-0.137,-0.117,0.0
0.712,-0.068,-0.049,0.02,0.059,-0.044,-0.015,0.044,-0.088,-0.156,-0.142,-0.107,0.005
0.714,-0.073,-0.049,0.024,0.063,-0.049,-0.015,0.039,-0.093,-0.166,-0.151,-0.117,0.005
0.716,-0.088,-0.059,0.029,0.073,-0.059,-0.015,0.044,-0.083,-0.156,-0.142,-0.112,0.01
0.718,-0.078,-0.039,0.039,0.059,-0.059,0.0,0.049,-0.073,-0.146,-0.127,-0.098,0.02
0.72,-0.054,-0.029,0.024,0.044,-0.039,-0.005,0.034,-0.093,-0.161,-0.146,-0.102,0.015
0.722,-0.059,-0.029,0.029,0.044,-0.044,0.0,0.029,-0.102,-0.166,-0.146,-0.112,0.015
0.724,-0.059,-0.034,0.024,0.049,-0.044,-0.005,0.029,-0.102,-0.166,-0.146,-0.107,0.02
0.726,-0.073,-0.054,0.02,0.063,-0.049,-0.02,0.024,-0.107,-0.166,-0.151,-0.112,0.02
0.728,-0.054,-0.039,0.015,0.049,-0.034,-0.015,0.024,-0.102,-0.171,-0.151,-0.112,0.024
0.73,-0.078,-0.054,0.024,0.068,-0.054,-0.015,0.044,-0.098,-0.171,-0.146,-0.107,0.024
0.732,-0.093,-0.059,0.034,0.078,-0.063,-0.015,0.049,-0.093,-0.166,-0.146,-0.102,0.02
0.734,-0.063,-0.034,0.029,0.049,-0.049,-0.005,0.059,-0.083,-0.156,-0.142,-0.102,0.02
0.736,-0.078,-0.044,0.034,0.063,-0.059,-0.005,0.054,-0.083,-0.161,-0.142,-0.102,0.024
0.738,-0.093,-0.059,0.034,0.078,-0.063,-0.015,0.059,-0.078,-0.151,-0.137,-0.098,0.024
0.74,-0.073,-0.039,0.034,0.059,-0.054,-0.005,0.059,-0.083,-0.151,-0.132,-0.093,0.024
0.742,-0.054,-0.024,0.029,0.039,-0.044,0.0,0.054,-0.083,-0.156,-0.132,-0.098,0.024
0.744,-0.063,-0.049,0.015,0.059,-0.039,-0.02,0.054,-0.088,-0.156,-0.127,-0.098,0.024
0.746,-0.078,-0.068,0.01,0.073,-0.044,-0.029,0.049,-0.098,-0.161,-0.142,-0.107,0.015
0.748,-0.088,-0.063,0.024,0.078,-0.059,-0.02,0.054,-0.088,-0.156,-0.137,-0.102,0.024
0.75,-0.083,-0.049,0.034,0.068,-0.059,-0.01,0.063,-0.078,-0.146,-0.117,-0.098,0.029
0.752,-0.068,-0.049,0.02,0.059,-0.044,-0.015,0.063,-0.093,-0.151,-0.127,-0.098,0.024
0.754,-0.063,-0.049,0.015,0.059,-0.039,-0.02,0.054,-0.102,-0.166,-0.146,-0.112,0.015
0.756,-0.078,-0.044,0.034,0.063,-0.059,-0.005,0.054,-0.093,-0.161,-0.142,-0.102,0.024
0.758,-0.102,-0.063,0.039,0.083,-0.073,-0.015,0.054,-0.088,-0.156,-0.137,-0.102,0.024
0.76,-0.073,-0.049,0.024,0.063,-0.049,-0.015,0.054,-0.083,-0.156,-0.137,-0.093,0.024
0.762,-0.049,-0.024,0.024,0.039,-0.039,0.0,0.059,-0.088,-0.166,-0.142,-0.098,0.034
0.764,-0.063,-0.024,0.039,0.044,-0.054,0.005,0.063,-0.088,-0.161,-0.127,-0.088,0.039
0.766,-0.039,-0.005,0.034,0.024,-0.039,0.015,0.078,-0.073,-0.146,-0.117,-0.073,0.049
0.768,-0.049,-0.005,0.044,0.029,-0.049,0.02,0.078,-0.063,-0.137,-0.112,-0.068,0.063
0.77,-0.063,-0.015,0.049,0.039,-0.059,0.015,0.073,-0.063,-0.142,-0.107,-0.068,0.068
0.772,-0.059,-0.01,0.049,0.034,-0.054,0.02,0.083,-0.063,-0.137,-0.102,-0.059,0.063
0.774,-0.054,-0.005,0.049,0.029,-0.054,0.02,0.083,-0.063,-0.137,-0.102,-0.063,0.059
0.776,-0.034,-0.005,0.029,0.02,-0.034,0.01,0.088,-0.063,-0.142,-0.102,-0.063,0.054
0.778,-0.034,-0.015,0.02,0.024,-0.029,0.0,0.073,-0.078,-0.156,-0.117,-0.083,0.034
0.78,-0.049,-0.034,0.015,0.044,-0.034,-0.01,0.068,-0.063,-0.142,-0.102,-0.073,0.039
0.782,-0.068,-0.044,0.024,0.059,-0.049,-0.01,0.078,-0.059,-0.137,-0.107,-0.078,0.039
0.784,-0.063,-0.029,0.034,0.049,-0.049,0.0,0.083,-0.054,-0.137,-0.102,-0.073,0.039
0.786,-0.044,-0.02,0.024,0.034,-0.034,0.0,0.083,-0.054,-0.132,-0.102,-0.073,0.044
0.788,-0.039,-0.029,0.01,0.034,-0.024,-0.01,0.073,-0.068,-0.142,-0.112,-0.078,0.044
0.79,-0.054,-0.049,0.005,0.054,-0.029,-0.024,0.073,-0.063,-0.132,-0.102,-0.068,0.054
0.792,-0.044,-0.024,0.02,0.034,-0.034,-0.005,0.063,-0.063,-0.127,-0.093,-0.059,0.068
0.794,-0.034,-0.005,0.029,0.02,-0.034,0.01,0.063,-0.059,-0.122,-0.093,-0.054,0.073
0.796,-0.044,-0.02,0.024,0.034,-0.034,0.0,0.054,-0.063,-0.132,-0.093,-0.054,0.073
0.798,-0.034,-0.005,0.029,0.02,-0.034,0.01,0.059,-0.068,-0.137,-0.098,-0.054,0.073
0.8,-0.015,0.01,0.024,0.005,-0.02,0.015,0.078,-0.059,-0.122,-0.083,-0.044,0.083
0.802,-0.015,0.0,0.015,0.01,-0.015,0.005,0.068,-0.059,-0.122,-0.078,-0.039,0.088
0.804,-0.029,-0.02,0.01,0.024,-0.02,-0.005,0.063,-0.068,-0.122,-0.083,-0.044,0.083
0.806,-0.034,-0.034,0.0,0.034,-0.02,-0.02,0.059,-0.068,-0.122,-0.088,-0.054,0.078
0.808,-0.015,-0.024,-0.01,0.02,-0.005,-0.02,0.063,-0.068,-0.117,-0.088,-0.039,0.083
0.81,-0.039,-0.049,-0.01,0.044,-0.015,-0.029,0.059,-0.078,-0.127,-0.093,-0.039,0.083
0.812,-0.054,-0.063,-0.01,0.059,-0.024,-0.039,0.049,-0.093,-0.146,-0.107,-0.054,0.073
0.814,-0.049,-0.068,-0.02,0.059,-0.015,-0.044,0.049,-0.093,-0.156,-0.117,-0.059,0.078
0.816,-0.034,-0.044,-0.01,0.039,-0.015,-0.029,0.054,-0.088,-0.156,-0.122,-0.068,0.078
0.818,-0.02,-0.044,-0.024,0.034,0.0,-0.034,0.054,-0.088,-0.156,-0.122,-0.073,0.063
0.82,-0.039,-0.063,-0.024,0.054,-0.01,-0.044,0.059,-0.083,-0.146,-0.122,-0.073,0.063
0.822,-0.02,-0.034,-0.015,0.029,-0.005,-0.024,0.054,-0.078,-0.142,-0.117,-0.078,0.063
0.824,-0.02,-0.034,-0.015,0.029,-0.005,-0.024,0.068,-0.068,-0.132,-0.102,-0.063,0.078
0.826,-0.068,-0.078,-0.01,0.073,-0.029,-0.044,0.059,-0.083,-0.142,-0.107,-0.073,0.063
0.828,-0.073,-0.088,-0.015,0.083,-0.029,-0.054,0.059,-0.088,-0.146,-0.112,-0.078,0.063
0.83,-0.049,-0.073,-0.024,0.063,-0.015,-0.049,0.063,-0.088,-0.142,-0.102,-0.073,0.068
0.832,-0.054,-0.073,-0.02,0.063,-0.02,-0.049,0.068,-0.093,-0.156,-0.112,-0.078,0.054
0.834,-0.063,-0.073,-0.01,0.068,-0.029,-0.044,0.073,-0.088,-0.156,-0.112,-0.083,0.054
0.836,-0.063,-0.063,0.0,0.063,-0.034,-0.034,0.073,-0.083,-0.156,-0.112,-0.073,0.054
0.838,-0.078,-0.078,0.0,0.078,-0.039,-0.039,0.068,-0.088,-0.161,-0.112,-0.073,0.049
0.84,-0.078,-0.078,0.0,0.078,-0.039,-0.039,0.073,-0.083,-0.151,-0.112,-0.068,0.049
0.842,-0.083,-0.068,0.015,0.078,-0.049,-0.029,0.068,-0.088,-0.156,-0.117,-0.078,0.044
0.844,-0.098,-0.093,0.005,0.098,-0.054,-0.044,0.073,-0.088,-0.161,-0.122,-0.078,0.039
0.846,-0.098,-0.102,-0.005,0.102,-0.049,-0.054,0.063,-0.102,-0.166,-0.127,-0.083,0.044
0.848,-0.098,-0.107,-0.01,0.102,-0.044,-0.059,0.054,-0.117,-0.171,-0.127,-0.088,0.044
0.85,-0.073,-0.093,-0.02,0.083,-0.029,-0.059,0.059,-0.112,-0.171,-0.122,-0.088,0.044
0.852,-0.054,-0.068,-0.015,0.063,-0.02,-0.044,0.078,-0.098,-0.166,-0.112,-0.073,0.059
0.854,-0.063,-0.083,-0.02,0.073,-0.024,-0.054,0.068,-0.107,-0.171,-0.122,-0.083,0.049
0.856,-0.083,-0.098,-0.015,0.093,-0.034,-0.059,0.063,-0.107,-0.176,-0.137,-0.093,0.049
0.858,-0.098,-0.117,-0.02,0.107,-0.039,-0.068,0.063,-0.102,-0.176,-0.132,-0.093,0.049
0.86,-0.083,-0.117,-0.034,0.102,-0.024,-0.078,0.063,-0.102,-0.171,-0.137,-0.088,0.044
0.862,-0.068,-0.093,-0.024,0.083,-0.024,-0.059,0.073,-0.093,-0.166,-0.127,-0.078,0.054
0.864,-0.073,-0.088,-0.015,0.083,-0.029,-0.054,0.078,-0.088,-0.161,-0.117,-0.068,0.063
0.866,-0.063,-0.068,-0.005,0.068,-0.029,-0.039,0.083,-0.093,-0.156,-0.112,-0.068,0.063
0.868,-0.068,-0.073,-0.005,0.073,-0.034,-0.039,0.078,-0.098,-0.166,-0.117,-0.073,0.063
0.87,-0.102,-0.098,0.005,0.102,-0.054,-0.049,0.073,-0.098,-0.161,-0.117,-0.073,0.054
0.872,-0.078,-0.063,0.015,0.073,-0.049,-0.024,0.088,-0.088,-0.151,-0.098,-0.059,0.068
0.874,-0.093,-0.073,0.02,0.083,-0.059,-0.029,0.078,-0.098,-0.166,-0.112,-0.068,0.059
0.876,-0.093,-0.088,0.005,0.093,-0.049,-0.044,0.078,-0.107,-0.176,-0.122,-0.073,0.059
0.878,-0.073,-0.093,-0.02,0.083,-0.029,-0.059,0.083,-0.102,-0.171,-0.117,-0.073,0.054
0.88,-0.083,-0.098,-0.015,0.093,-0.034,-0.059,0.078,-0.107,-0.171,-0.122,-0.073,0.044
0.882,-0.073,-0.083,-0.01,0.078,-0.034,-0.049,0.083,-0.102,-0.166,-0.122,-0.078,0.054
0.884,-0.063,-0.073,-0.01,0.068,-0.029,-0.044,0.078,-0.098,-0.166,-0.117,-0.073,0.059
0.886,-0.093,-0.098,-0.005,0.098,-0.044,-0.054,0.073,-0.107,-0.166,-0.127,-0.093,0.039
0.888,-0.083,-0.073,0.01,0.078,-0.049,-0.034,0.098,-0.083,-0.156,-0.117,-0.083,0.049
0.89,-0.112,-0.078,0.034,0.098,-0.073,-0.024,0.127,-0.068,-0.161,-0.127,-0.102,0.029
0.892,-0.122,-0.068,0.054,0.098,-0.088,-0.01,0.166,-0.044,-0.171,-0.132,-0.112,0.02
0.894,-0.117,-0.034,0.083,0.078,-0.102,0.024,0.205,-0.015,-0.171,-0.127,-0.117,0.02
0.896,-0.161,-0.039,0.122,0.102,-0.142,0.039,0.22,0.0,-0.161,-0.117,-0.107,0.024
0.898,-0.146,-0.015,0.132,0.083,-0.142,0.059,0.215,0.005,-0.146,-0.083,-0.088,0.034
0.9,-0.132,-0.005,0.127,0.068,-0.132,0.059,0.2,-0.005,-0.122,-0.049,-0.068,0.044
0.902,-0.142,-0.01,0.132,0.078,-0.137,0.059,0.185,-0.01,-0.098,-0.015,-0.039,0.059
0.904,-0.107,0.02,0.127,0.044,-0.117,0.073,0.2,0.039,-0.034,0.049,0.01,0.083
0.906,-0.073,0.01,0.083,0.034,-0.078,0.044,0.21,0.122,0.063,0.117,0.049,0.102
0.908,-0.068,-0.005,0.063,0.039,-0.068,0.029,0.234,0.205,0.156,0.181,0.093,0.127
0.91,-0.034,0.02,0.054,0.01,-0.044,0.034,0.21,0.254,0.254,0.268,0.161,0.166
0.912,0.024,0.054,0.029,-0.039,-0.005,0.039,0.127,0.342,0.439,0.42,0.278,0.234
0.914,0.122,0.112,-0.01,-0.117,0.063,0.049,0.005,0.483,0.727,0.664,0.478,0.356
0.916,0.21,0.176,-0.034,-0.19,0.122,0.068,-0.127,0.605,1.035,0.937,0.708,0.498
0.918,0.298,0.234,-0.063,-0.264,0.181,0.083,-0.254,0.649,1.298,1.2,0.903,0.62
0.92,0.371,0.293,-0.078,-0.332,0.224,0.107,-0.346,0.615,1.484,1.415,1.083,0.732
0.922,0.434,0.371,-0.063,-0.4,0.249,0.151,-0.454,0.498,1.62,1.615,1.23,0.83
0.924,0.493,0.381,-0.112,-0.434,0.303,0.132,-0.63,0.312,1.703,1.742,1.322,0.888
0.926,0.532,0.268,-0.264,-0.4,0.395,0.0,-0.761,0.205,1.786,1.781,1.332,0.869
0.928,0.547,0.142,-0.405,-0.342,0.473,-0.132,-0.83,0.093,1.767,1.703,1.259,0.805
0.93,0.537,0.024,-0.512,-0.278,0.522,-0.244,-0.893,-0.083,1.591,1.498,1.113,0.717
0.932,0.434,-0.122,-0.556,-0.156,0.493,-0.342,-0.942,-0.39,1.191,1.108,0.844,0.556
0.934,0.322,-0.2,-0.522,-0.059,0.42,-0.361,-0.947,-0.727,0.688,0.688,0.556,0.429
0.936,0.254,-0.2,-0.454,-0.024,0.351,-0.327,-0.917,-0.976,0.234,0.342,0.317,0.317
0.938,0.171,-0.244,-0.415,0.039,0.293,-0.332,-0.927,-1.142,-0.161,0.015,0.093,0.229
0.94,0.127,-0.288,-0.415,0.083,0.268,-0.351,-0.942,-1.303,-0.615,-0.337,-0.102,0.146
0.942,0.102,-0.312,-0.415,0.107,0.259,-0.366,-0.942,-1.376,-0.903,-0.576,-0.234,0.098
0.944,0.068,-0.356,-0.425,0.146,0.244,-0.39,-0.903,-1.298,-0.927,-0.615,-0.268,0.068
0.946,0.044,-0.346,-0.39,0.151,0.215,-0.371,-0.815,-1.166,-0.849,-0.571,-0.268,0.054
0.948,0.02,-0.317,-0.337,0.151,0.176,-0.327,-0.708,-1.015,-0.752,-0.522,-0.264,0.044
0.95,-0.01,-0.307,-0.298,0.161,0.142,-0.303,-0.634,-0.922,-0.688,-0.498,-0.268,0.02
0.952,-0.024,-0.288,-0.264,0.156,0.117,-0.278,-0.571,-0.839,-0.634,-0.459,-0.254,0.015
0.954,-0.024,-0.273,-0.249,0.151,0.112,-0.264,-0.508,-0.761,-0.581,-0.429,-0.239,0.02
0.956,-0.02,-0.254,-0.234,0.137,0.107,-0.244,-0.459,-0.708,-0.547,-0.4,-0.229,0.01
0.958,-0.034,-0.254,-0.22,0.146,0.093,-0.239,-0.395,-0.644,-0.508,-0.376,-0.224,0.0
0.96,-0.049,-0.254,-0.205,0.151,0.078,-0.229,-0.332,-0.576,-0.468,-0.356,-0.21,-0.005
0.962,-0.068,-0.254,-0.185,0.161,0.059,-0.22,-0.278,-0.512,-0.449,-0.342,-0.21,-0.01
0.964,-0.054,-0.2,-0.146,0.127,0.044,-0.176,-0.195,-0.425,-0.39,-0.298,-0.185,0.005
0.966,-0.063,-0.181,-0.117,0.122,0.024,-0.151,-0.151,-0.366,-0.356,-0.273,-0.176,0.005
0.968,-0.078,-0.181,-0.102,0.132,0.01,-0.142,-0.098,-0.307,-0.322,-0.249,-0.161,0.0
0.97,-0.063,-0.151,-0.088,0.107,0.01,-0.122,-0.049,-0.254,-0.283,-0.215,-0.142,0.015
0.972,-0.054,-0.112,-0.059,0.083,0.0,-0.088,-0.005,-0.2,-0.229,-0.176,-0.107,0.029
0.974,-0.049,-0.088,-0.039,0.068,-0.005,-0.063,0.024,-0.161,-0.2,-0.151,-0.093,0.049
0.976,-0.044,-0.078,-0.034,0.063,-0.005,-0.059,0.049,-0.132,-0.181,-0.137,-0.088,0.049
0.978,-0.039,-0.068,-0.029,0.054,-0.005,-0.049,0.063,-0.117,-0.171,-0.127,-0.078,0.049
0.98,-0.049,-0.078,-0.029,0.063,-0.01,-0.054,0.068,-0.102,-0.171,-0.127,-0.078,0.054
0.982,-0.054,-0.078,-0.024,0.068,-0.015,-0.054,0.073,-0.098,-0.176,-0.132,-0.083,0.049
0.984,-0.068,-0.073,-0.005,0.073,-0.034,-0.039,0.078,-0.088,-0.161,-0.127,-0.078,0.049
0.986,-0.073,-0.073,0.0,0.073,-0.039,-0.039,0.068,-0.083,-0.161,-0.132,-0.078,0.044
0.988,-0.044,-0.044,0.0,0.044,-0.024,-0.024,0.078,-0.068,-0.156,-0.112,-0.068,0.054
0.99,-0.049,-0.029,0.02,0.039,-0.034,-0.005,0.083,-0.063,-0.137,-0.107,-0.063,0.063
0.992,-0.044,-0.049,-0.005,0.049,-0.02,-0.029,0.083,-0.059,-0.127,-0.098,-0.054,0.063
0.994,-0.054,-0.054,0.0,0.054,-0.029,-0.029,0.088,-0.063,-0.132,-0.107,-0.063,0.054
0.996,-0.088,-0.073,0.015,0.083,-0.054,-0.029,0.098,-0.063,-0.137,-0.112,-0.073,0.039
0.998,-0.078,-0.063,0.015,0.073,-0.049,-0.024,0.107,-0.049,-0.127,-0.102,-0.063,0.049
1.0,-0.068,-0.054,0.015,0.063,-0.044,-0.02,0.127,-0.034,-0.112,-0.088,-0.054,0.054
1.002,-0.068,-0.059,0.01,0.063,-0.039,-0.024,0.127,-0.029,-0.117,-0.098,-0.059,0.059
1.004,-0.054,-0.049,0.005,0.054,-0.029,-0.024,0.122,-0.024,-0.107,-0.083,-0.049,0.059
1.006,-0.078,-0.063,0.015,0.073,-0.049,-0.024,0.102,-0.029,-0.117,-0.093,-0.059,0.054
1.008,-0.083,-0.068,0.015,0.078,-0.049,-0.029,0.107,-0.029,-0.117,-0.088,-0.054,0.054
1.01,-0.068,-0.063,0.005,0.068,-0.039,-0.029,0.112,-0.029,-0.117,-0.088,-0.054,0.063
1.012,-0.073,-0.063,0.01,0.068,-0.044,-0.029,0.102,-0.034,-0.107,-0.078,-0.044,0.063
1.014,-0.073,-0.059,0.015,0.068,-0.044,-0.024,0.107,-0.029,-0.098,-0.073,-0.044,0.068
1.016,-0.068,-0.059,0.01,0.063,-0.039,-0.024,0.107,-0.039,-0.102,-0.078,-0.049,0.063
1.018,-0.044,-0.039,0.005,0.044,-0.024,-0.02,0.112,-0.034,-0.102,-0.078,-0.049,0.068
1.02,-0.039,-0.02,0.02,0.029,-0.029,0.0,0.122,-0.024,-0.102,-0.073,-0.039,0.068
1.022,-0.039,-0.015,0.024,0.029,-0.034,0.005,0.132,-0.01,-0.098,-0.073,-0.039,0.073
1.024,-0.063,-0.044,0.02,0.054,-0.044,-0.015,0.127,0.0,-0.088,-0.068,-0.044,0.073
1.026,-0.054,-0.034,0.02,0.044,-0.039,-0.01,0.112,-0.01,-0.102,-0.078,-0.054,0.068
1.028,-0.049,-0.029,0.02,0.039,-0.034,-0.005,0.117,-0.005,-0.098,-0.063,-0.044,0.068
1.03,-0.059,-0.044,0.015,0.054,-0.039,-0.015,0.112,-0.015,-0.102,-0.073,-0.059,0.063
1.032,-0.063,-0.039,0.024,0.054,-0.044,-0.01,0.102,-0.015,-0.093,-0.063,-0.044,0.054
1.034,-0.068,-0.039,0.029,0.054,-0.049,-0.005,0.102,-0.015,-0.098,-0.063,-0.049,0.054
1.036,-0.059,-0.044,0.015,0.054,-0.039,-0.015,0.102,-0.029,-0.102,-0.073,-0.054,0.049
1.038,-0.049,-0.034,0.015,0.044,-0.034,-0.01,0.112,-0.029,-0.093,-0.068,-0.049,0.054
1.04,-0.063,-0.039,0.024,0.054,-0.044,-0.01,0.112,-0.015,-0.083,-0.063,-0.044,0.049
1.042,-0.054,-0.039,0.015,0.049,-0.034,-0.015,0.117,-0.01,-0.088,-0.073,-0.049,0.059
1.044,-0.054,-0.039,0.015,0.049,-0.034,-0.015,0.112,-0.01,-0.088,-0.073,-0.049,0.054
1.046,-0.044,-0.024,0.02,0.034,-0.034,-0.005,0.117,-0.005,-0.078,-0.068,-0.039,0.063
1.048,-0.054,-0.024,0.029,0.039,-0.044,0.0,0.117,0.005,-0.083,-0.068,-0.039,0.059
1.05,-0.059,-0.029,0.029,0.044,-0.044,0.0,0.107,0.0,-0.078,-0.073,-0.044,0.054
1.052,-0.068,-0.039,0.029,0.054,-0.049,-0.005,0.112,0.005,-0.063,-0.054,-0.029,0.059
1.054,-0.063,-0.049,0.015,0.059,-0.039,-0.02,0.112,0.0,-0.073,-0.059,-0.034,0.063
1.056,-0.049,-0.039,0.01,0.044,-0.029,-0.015,0.117,-0.005,-0.078,-0.059,-0.034,0.059
1.058,-0.029,-0.024,0.005,0.029,-0.02,-0.01,0.117,-0.005,-0.073,-0.054,-0.034,0.063
1.06,-0.044,-0.034,0.01,0.039,-0.029,-0.015,0.112,-0.005,-0.073,-0.054,-0.029,0.054
1.062,-0.054,-0.039,0.015,0.049,-0.034,-0.015,0.112,0.005,-0.078,-0.059,-0.039,0.054
1.064,-0.054,-0.039,0.015,0.049,-0.034,-0.015,0.112,0.01,-0.068,-0.054,-0.034,0.054
1.066,-0.054,-0.044,0.01,0.049,-0.034,-0.02,0.102,0.005,-0.068,-0.059,-0.039,0.054
1.068,-0.039,-0.034,0.005,0.039,-0.024,-0.015,0.107,0.015,-0.059,-0.044,-0.034,0.054
1.07,-0.034,-0.034,0.0,0.034,-0.02,-0.02,0.107,0.015,-0.059,-0.044,-0.029,0.063
1.072,-0.029,-0.024,0.005,0.029,-0.02,-0.01,0.102,0.015,-0.049,-0.039,-0.029,0.059
1.074,-0.024,-0.02,0.005,0.024,-0.015,-0.01,0.112,0.024,-0.039,-0.029,-0.02,0.073
1.076,-0.029,-0.02,0.01,0.024,-0.02,-0.005,0.122,0.034,-0.029,-0.024,-0.015,0.083
1.078,-0.024,-0.015,0.01,0.02,-0.02,-0.005,0.122,0.034,-0.034,-0.029,-0.02,0.083
1.08,-0.034,-0.02,0.015,0.029,-0.024,-0.005,0.117,0.029,-0.044,-0.029,-0.015,0.073
1.082,-0.049,-0.034,0.015,0.044,-0.034,-0.01,0.117,0.034,-0.044,-0.034,-0.02,0.078
1.084,-0.049,-0.034,0.015,0.044,-0.034,-0.01,0.117,0.039,-0.034,-0.024,-0.015,0.073
1.086,-0.044,-0.024,0.02,0.034,-0.034,-0.005,0.117,0.039,-0.034,-0.029,-0.015,0.068
1.088,-0.01,0.005,0.015,0.005,-0.015,0.01,0.127,0.059,-0.01,-0.01,0.005,0.083
1.09,0.015,0.034,0.02,-0.024,-0.005,0.024,0.132,0.063,-0.005,0.0,0.01,0.098
1.092,-0.034,-0.01,0.024,0.024,-0.029,0.005,0.107,0.034,-0.024,-0.005,0.0,0.083
1.094,-0.039,-0.029,0.01,0.034,-0.024,-0.01,0.102,0.029,-0.034,-0.01,0.0,0.088
1.096,0.0,0.0,0.0,0.0,0.0,0.0,0.107,0.039,-0.02,0.0,0.005,0.093
1.098,-0.015,-0.015,0.0,0.015,-0.01,-0.01,0.098,0.024,-0.029,-0.015,-0.01,0.083
1.1,-0.024,-0.024,0.0,0.024,-0.015,-0.015,0.098,0.039,-0.024,-0.01,-0.005,0.083
1.102,-0.034,-0.024,0.01,0.029,-0.024,-0.01,0.093,0.034,-0.029,-0.02,-0.01,0.073
1.104,-0.034,-0.02,0.015,0.029,-0.024,-0.005,0.102,0.054,-0.01,0.0,0.0,0.083
1.106,-0.02,-0.01,0.01,0.015,-0.015,0.0,0.102,0.063,-0.005,0.005,0.005,0.088
1.108,-0.015,-0.005,0.01,0.01,-0.015,0.0,0.107,0.068,0.005,0.015,0.015,0.088
1.11,-0.01,0.005,0.015,0.005,-0.015,0.01,0.093,0.063,0.005,0.015,0.01,0.088
1.112,0.005,0.015,0.01,-0.01,-0.005,0.01,0.098,0.068,0.02,0.024,0.02,0.093
1.114,0.024,0.039,0.015,-0.029,0.005,0.024,0.102,0.078,0.034,0.034,0.034,0.107
1.116,0.01,0.034,0.024,-0.02,-0.01,0.029,0.102,0.073,0.039,0.044,0.039,0.112
1.118,0.0,0.015,0.015,-0.005,-0.01,0.015,0.098,0.068,0.034,0.039,0.039,0.112
1.12,0.005,0.015,0.01,-0.01,-0.005,0.01,0.107,0.073,0.039,0.044,0.044,0.107
1.122,0.01,0.02,0.01,-0.015,0.0,0.015,0.102,0.073,0.039,0.039,0.044,0.107
1.124,0.005,0.015,0.01,-0.01,-0.005,0.01,0.098,0.078,0.054,0.049,0.054,0.107
1.126,0.005,0.01,0.005,-0.005,0.0,0.005,0.088,0.083,0.054,0.049,0.049,0.112
1.128,0.015,0.02,0.005,-0.015,0.005,0.01,0.093,0.088,0.063,0.063,0.059,0.117
1.13,0.029,0.039,0.01,-0.034,0.01,0.024,0.102,0.093,0.078,0.073,0.073,0.127
1.132,0.024,0.034,0.01,-0.029,0.005,0.02,0.083,0.093,0.083,0.078,0.068,0.127
1.134,0.02,0.034,0.015,-0.024,0.0,0.024,0.088,0.093,0.078,0.078,0.073,0.132
1.136,0.024,0.044,0.02,-0.034,0.0,0.029,0.098,0.098,0.098,0.093,0.083,0.137
1.138,0.029,0.044,0.015,-0.034,0.005,0.029,0.093,0.102,0.107,0.098,0.088,0.137
1.14,0.024,0.039,0.015,-0.029,0.005,0.024,0.088,0.107,0.107,0.098,0.093,0.142
1.142,0.02,0.034,0.015,-0.024,0.0,0.024,0.083,0.102,0.107,0.098,0.088,0.142
1.144,0.044,0.049,0.005,-0.044,0.02,0.024,0.083,0.112,0.127,0.112,0.102,0.146
1.146,0.054,0.059,0.005,-0.054,0.024,0.029,0.088,0.132,0.142,0.132,0.117,0.166
1.148,0.044,0.063,0.02,-0.054,0.01,0.039,0.083,0.146,0.156,0.142,0.127,0.176
1.15,0.039,0.059,0.02,-0.049,0.01,0.039,0.078,0.137,0.161,0.151,0.132,0.176
1.152,0.029,0.044,0.015,-0.034,0.005,0.029,0.063,0.127,0.161,0.151,0.132,0.171
1.154,0.044,0.059,0.015,-0.049,0.015,0.034,0.063,0.132,0.161,0.161,0.142,0.181
1.156,0.059,0.078,0.02,-0.068,0.02,0.049,0.068,0.142,0.181,0.181,0.156,0.19
1.158,0.078,0.093,0.015,-0.083,0.029,0.054,0.073,0.156,0.205,0.19,0.166,0.2
1.16,0.083,0.098,0.015,-0.088,0.034,0.054,0.073,0.161,0.21,0.2,0.176,0.205
1.162,0.063,0.083,0.02,-0.073,0.02,0.049,0.059,0.161,0.215,0.195,0.171,0.205
1.164,0.083,0.093,0.01,-0.088,0.034,0.049,0.063,0.176,0.234,0.21,0.185,0.21
1.166,0.083,0.088,0.005,-0.083,0.039,0.044,0.049,0.185,0.244,0.224,0.195,0.22
1.168,0.059,0.073,0.015,-0.063,0.02,0.044,0.039,0.176,0.249,0.224,0.195,0.22
1.17,0.059,0.083,0.024,-0.068,0.015,0.054,0.039,0.181,0.259,0.234,0.205,0.224
1.172,0.078,0.102,0.024,-0.088,0.024,0.063,0.044,0.19,0.278,0.254,0.215,0.234
1.174,0.102,0.127,0.024,-0.112,0.039,0.073,0.044,0.2,0.293,0.264,0.234,0.244
1.176,0.117,0.137,0.02,-0.127,0.049,0.078,0.039,0.2,0.298,0.278,0.234,0.244
1.178,0.117,0.127,0.01,-0.122,0.054,0.068,0.039,0.21,0.312,0.278,0.244,0.249
1.18,0.112,0.117,0.005,-0.112,0.054,0.059,0.039,0.215,0.327,0.288,0.249,0.254
1.182,0.107,0.112,0.005,-0.107,0.049,0.059,0.034,0.215,0.332,0.293,0.254,0.254
1.184,0.122,0.146,0.024,-0.132,0.049,0.083,0.039,0.234,0.356,0.312,0.273,0.264
1.186,0.122,0.151,0.029,-0.137,0.044,0.088,0.034,0.244,0.366,0.322,0.283,0.273
1.188,0.112,0.127,0.015,-0.117,0.049,0.068,0.02,0.234,0.361,0.317,0.278,0.268
1.19,0.122,0.142,0.02,-0.132,0.049,0.078,0.02,0.239,0.371,0.332,0.288,0.273
1.192,0.112,0.137,0.024,-0.122,0.044,0.078,0.02,0.239,0.386,0.346,0.303,0.278
1.194,0.112,0.137,0.024,-0.122,0.044,0.078,0.015,0.234,0.386,0.342,0.303,0.283
1.196,0.117,0.142,0.024,-0.127,0.044,0.083,0.02,0.239,0.39,0.351,0.307,0.288
1.198,0.132,0.151,0.02,-0.142,0.054,0.083,0.02,0.244,0.395,0.351,0.312,0.293
1.2,0.142,0.132,-0.01,-0.137,0.073,0.059,0.0,0.239,0.386,0.342,0.303,0.283
1.202,0.142,0.132,-0.01,-0.137,0.073,0.059,-0.005,0.239,0.386,0.337,0.298,0.278
1.204,0.132,0.122,-0.01,-0.127,0.068,0.054,0.005,0.249,0.41,0.356,0.312,0.293
1.206,0.137,0.137,0.0,-0.137,0.068,0.068,0.0,0.249,0.42,0.361,0.317,0.293
1.208,0.142,0.146,0.005,-0.142,0.068,0.073,0.0,0.254,0.42,0.361,0.322,0.298
1.21,0.156,0.161,0.005,-0.156,0.073,0.083,0.0,0.254,0.429,0.371,0.322,0.293
1.212,0.146,0.151,0.005,-0.146,0.068,0.078,0.005,0.264,0.439,0.381,0.327,0.298
1.214,0.146,0.137,-0.01,-0.142,0.078,0.063,0.0,0.259,0.439,0.376,0.327,0.303
1.216,0.151,0.137,-0.015,-0.142,0.083,0.059,0.0,0.264,0.449,0.386,0.332,0.303
1.218,0.137,0.132,-0.005,-0.132,0.068,0.063,0.005,0.268,0.449,0.386,0.337,0.298
1.22,0.132,0.127,-0.005,-0.127,0.068,0.059,0.0,0.273,0.449,0.381,0.332,0.293
1.222,0.161,0.137,-0.024,-0.146,0.093,0.054,0.0,0.268,0.434,0.371,0.327,0.298
1.224,0.146,0.127,-0.02,-0.137,0.083,0.054,0.0,0.268,0.439,0.376,0.327,0.288
1.226,0.142,0.142,0.0,-0.142,0.068,0.068,-0.005,0.268,0.454,0.376,0.327,0.288
1.228,0.146,0.156,0.01,-0.151,0.068,0.083,-0.005,0.278,0.459,0.376,0.332,0.293
1.23,0.146,0.146,0.0,-0.146,0.073,0.073,0.0,0.268,0.459,0.381,0.327,0.293
1.232,0.142,0.127,-0.015,-0.132,0.078,0.054,-0.01,0.268,0.464,0.381,0.322,0.288
1.234,0.137,0.122,-0.015,-0.127,0.073,0.054,-0.005,0.268,0.459,0.376,0.332,0.288
1.236,0.142,0.122,-0.02,-0.132,0.078,0.049,0.0,0.273,0.459,0.371,0.327,0.288
1.238,0.161,0.122,-0.039,-0.142,0.098,0.039,0.0,0.273,0.449,0.371,0.322,0.288
1.24,0.166,0.127,-0.039,-0.146,0.102,0.044,0.005,0.288,0.468,0.376,0.332,0.293
1.242,0.146,0.127,-0.02,-0.137,0.083,0.054,0.015,0.293,0.464,0.376,0.337,0.293
1.244,0.142,0.117,-0.024,-0.127,0.083,0.044,0.015,0.288,0.459,0.376,0.322,0.278
1.246,0.156,0.117,-0.039,-0.137,0.098,0.039,0.005,0.283,0.454,0.366,0.317,0.273
1.248,0.176,0.132,-0.044,-0.151,0.107,0.044,0.02,0.283,0.454,0.361,0.317,0.278
1.25,0.176,0.142,-0.034,-0.156,0.102,0.054,0.02,0.268,0.429,0.346,0.307,0.264
1.252,0.146,0.112,-0.034,-0.127,0.088,0.039,0.015,0.264,0.434,0.337,0.298,0.259
1.254,0.127,0.107,-0.02,-0.117,0.073,0.044,0.024,0.268,0.425,0.337,0.303,0.264
1.256,0.112,0.093,-0.02,-0.102,0.063,0.034,0.034,0.268,0.415,0.327,0.293,0.254
1.258,0.112,0.083,-0.029,-0.098,0.068,0.024,0.024,0.244,0.386,0.312,0.273,0.234
1.26,0.112,0.083,-0.029,-0.098,0.068,0.024,0.034,0.249,0.381,0.307,0.268,0.239
1.262,0.102,0.068,-0.034,-0.083,0.068,0.015,0.029,0.244,0.361,0.288,0.254,0.229
1.264,0.093,0.059,-0.034,-0.073,0.063,0.01,0.039,0.244,0.361,0.293,0.249,0.224
1.266,0.117,0.078,-0.039,-0.098,0.078,0.02,0.034,0.234,0.346,0.278,0.239,0.22
1.268,0.107,0.068,-0.039,-0.088,0.073,0.015,0.029,0.22,0.327,0.264,0.234,0.21
1.27,0.073,0.049,-0.024,-0.059,0.049,0.01,0.02,0.2,0.312,0.239,0.215,0.2
1.272,0.073,0.049,-0.024,-0.059,0.049,0.01,0.034,0.2,0.298,0.234,0.21,0.2
1.274,0.098,0.068,-0.029,-0.083,0.063,0.02,0.044,0.2,0.293,0.229,0.21,0.205
1.276,0.093,0.068,-0.024,-0.078,0.059,0.02,0.044,0.185,0.268,0.205,0.195,0.19
1.278,0.088,0.059,-0.029,-0.073,0.059,0.015,0.044,0.176,0.244,0.19,0.176,0.181
1.28,0.073,0.034,-0.039,-0.054,0.054,-0.005,0.044,0.161,0.22,0.176,0.161,0.171
1.282,0.063,0.029,-0.034,-0.044,0.049,-0.005,0.054,0.156,0.205,0.161,0.146,0.171
1.284,0.068,0.039,-0.029,-0.054,0.049,0.005,0.059,0.151,0.2,0.151,0.137,0.166
1.286,0.054,0.034,-0.02,-0.044,0.034,0.005,0.059,0.146,0.176,0.132,0.127,0.156
1.288,0.039,0.02,-0.02,-0.029,0.029,0.0,0.054,0.137,0.156,0.122,0.117,0.146
1.29,0.034,0.01,-0.024,-0.02,0.029,-0.01,0.049,0.117,0.142,0.102,0.098,0.132
1.292,0.034,0.01,-0.024,-0.02,0.029,-0.01,0.054,0.107,0.122,0.093,0.093,0.122
1.294,0.054,0.029,-0.024,-0.039,0.039,0.0,0.063,0.112,0.117,0.093,0.093,0.127
1.296,0.039,0.024,-0.015,-0.029,0.024,0.005,0.063,0.093,0.093,0.068,0.078,0.112
1.298,0.015,0.005,-0.01,-0.01,0.01,-0.005,0.063,0.078,0.068,0.054,0.059,0.098
1.3,0.01,-0.005,-0.015,0.0,0.01,-0.01,0.063,0.073,0.063,0.049,0.054,0.093
1.302,0.01,0.01,0.0,-0.01,0.005,0.005,0.068,0.068,0.044,0.034,0.044,0.088
1.304,-0.005,-0.005,0.0,0.005,-0.005,-0.005,0.063,0.054,0.034,0.029,0.034,0.073
1.306,0.02,-0.01,-0.029,-0.005,0.024,-0.02,0.063,0.054,0.024,0.02,0.024,0.073
1.308,0.024,-0.005,-0.029,-0.01,0.024,-0.02,0.059,0.039,0.0,0.0,0.01,0.059
1.31,0.0,-0.01,-0.01,0.005,0.005,-0.01,0.054,0.024,-0.01,-0.015,-0.005,0.049
1.312,-0.005,-0.015,-0.01,0.01,0.0,-0.015,0.063,0.029,-0.005,-0.01,0.0,0.059
1.314,0.005,-0.01,-0.015,0.005,0.01,-0.015,0.063,0.024,-0.024,-0.02,-0.015,0.054
1.316,-0.015,-0.049,-0.034,0.034,0.01,-0.044,0.054,0.01,-0.044,-0.044,-0.029,0.044
1.318,-0.005,-0.054,-0.049,0.029,0.02,-0.054,0.049,0.005,-0.054,-0.054,-0.034,0.034
1.32,-0.005,-0.044,-0.039,0.024,0.015,-0.044,0.054,0.0,-0.054,-0.049,-0.034,0.039
1.322,-0.015,-0.034,-0.02,0.024,0.0,-0.029,0.054,0.0,-0.063,-0.059,-0.039,0.034
1.324,-0.015,-0.039,-0.024,0.029,0.005,-0.034,0.054,-0.005,-0.068,-0.059,-0.039,0.024
1.326,-0.024,-0.054,-0.029,0.039,0.0,-0.044,0.049,-0.01,-0.078,-0.073,-0.049,0.024
1.328,-0.015,-0.044,-0.029,0.029,0.005,-0.039,0.054,-0.01,-0.078,-0.073,-0.054,0.024
1.33,-0.024,-0.049,-0.024,0.039,0.0,-0.039,0.049,-0.02,-0.088,-0.078,-0.059,0.02
1.332,-0.02,-0.054,-0.034,0.039,0.005,-0.044,0.049,-0.02,-0.083,-0.073,-0.054,0.02
1.334,-0.01,-0.039,-0.029,0.024,0.01,-0.034,0.059,-0.015,-0.083,-0.068,-0.049,0.029
1.336,-0.02,-0.044,-0.024,0.034,0.0,-0.034,0.059,-0.02,-0.093,-0.073,-0.054,0.024
1.338,-0.034,-0.054,-0.02,0.044,-0.01,-0.039,0.049,-0.029,-0.102,-0.093,-0.063,0.015
1.34,-0.034,-0.049,-0.015,0.044,-0.01,-0.034,0.049,-0.024,-0.107,-0.093,-0.059,0.015
1.342,-0.029,-0.044,-0.015,0.039,-0.01,-0.029,0.049,-0.024,-0.112,-0.098,-0.068,0.01
1.344,-0.02,-0.034,-0.015,0.029,-0.005,-0.024,0.059,-0.02,-0.098,-0.088,-0.059,0.02
1.346,-0.024,-0.029,-0.005,0.029,-0.01,-0.02,0.054,-0.02,-0.102,-0.088,-0.059,0.02
1.348,-0.029,-0.034,-0.005,0.034,-0.015,-0.02,0.054,-0.024,-0.112,-0.088,-0.063,0.015
1.35,-0.015,-0.02,-0.005,0.02,-0.005,-0.015,0.054,-0.024,-0.107,-0.083,-0.063,0.015
1.352,-0.02,-0.029,-0.01,0.024,-0.005,-0.02,0.059,-0.02,-0.098,-0.078,-0.059,0.02
1.354,-0.024,-0.02,0.005,0.024,-0.015,-0.01,0.059,-0.02,-0.102,-0.088,-0.059,0.015
1.356,-0.01,-0.015,-0.005,0.015,-0.005,-0.01,0.054,-0.02,-0.102,-0.088,-0.059,0.015
1.358,-0.024,-0.034,-0.01,0.029,-0.01,-0.024,0.049,-0.029,-0.117,-0.102,-0.068,0.01
1.36,-0.029,-0.034,-0.005,0.034,-0.015,-0.02,0.054,-0.024,-0.112,-0.098,-0.059,0.015
1.362,-0.01,0.0,0.01,0.005,-0.01,0.005,0.063,-0.01,-0.107,-0.083,-0.049,0.024
1.364,-0.02,-0.015,0.005,0.02,-0.015,-0.005,0.063,-0.01,-0.098,-0.068,-0.044,0.029
1.366,-0.059,-0.054,0.005,0.059,-0.034,-0.024,0.049,-0.02,-0.107,-0.083,-0.054,0.015
1.368,-0.054,-0.049,0.005,0.054,-0.029,-0.024,0.054,-0.005,-0.093,-0.068,-0.044,0.029
1.37,-0.02,-0.024,-0.005,0.024,-0.01,-0.015,0.054,-0.005,-0.083,-0.059,-0.034,0.034
1.372,0.0,-0.005,-0.005,0.005,0.0,-0.005,0.068,0.005,-0.068,-0.044,-0.015,0.044
1.374,-0.015,-0.005,0.01,0.01,-0.015,0.0,0.063,-0.005,-0.083,-0.054,-0.029,0.044
1.376,-0.02,-0.02,0.0,0.02,-0.01,-0.01,0.054,-0.02,-0.098,-0.068,-0.034,0.029
1.378,-0.015,-0.02,-0.005,0.02,-0.005,-0.015,0.049,-0.02,-0.093,-0.063,-0.034,0.039
1.38,-0.024,-0.02,0.005,0.024,-0.015,-0.01,0.049,-0.015,-0.093,-0.059,-0.034,0.039
1.382,-0.02,-0.01,0.01,0.015,-0.015,0.0,0.054,-0.01,-0.093,-0.063,-0.034,0.039
1.384,-0.015,-0.015,0.0,0.015,-0.01,-0.01,0.044,-0.02,-0.098,-0.063,-0.034,0.039
1.386,-0.02,-0.01,0.01,0.015,-0.015,0.0,0.049,-0.015,-0.093,-0.059,-0.034,0.034
1.388,-0.02,-0.01,0.01,0.015,-0.015,0.0,0.054,0.0,-0.083,-0.049,-0.024,0.039
1.39,-0.015,0.005,0.02,0.005,-0.02,0.01,0.059,0.005,-0.073,-0.039,-0.02,0.049
1.392,-0.01,0.015,0.024,0.0,-0.02,0.02,0.063,0.015,-0.059,-0.029,-0.005,0.059
1.394,-0.02,0.015,0.034,0.005,-0.029,0.024,0.068,0.02,-0.059,-0.029,-0.005,0.059
1.396,-0.01,0.015,0.024,0.0,-0.02,0.02,0.059,0.01,-0.063,-0.034,0.0,0.059
1.398,0.0,0.015,0.015,-0.005,-0.01,0.015,0.054,0.01,-0.059,-0.034,-0.01,0.059
1.4,-0.005,0.015,0.02,-0.005,-0.015,0.015,0.059,0.02,-0.049,-0.024,0.0,0.063
1.402,0.0,0.034,0.034,-0.015,-0.02,0.034,0.049,0.02,-0.049,-0.024,0.0,0.063
1.404,0.005,0.049,0.044,-0.024,-0.02,0.044,0.054,0.029,-0.044,-0.015,0.005,0.059
1.406,0.0,0.039,0.039,-0.02,-0.02,0.039,0.049,0.024,-0.039,-0.015,0.0,0.054
1.408,0.0,0.024,0.024,-0.01,-0.015,0.024,0.044,0.024,-0.044,-0.01,0.0,0.059
1.41,-0.005,0.02,0.024,-0.005,-0.015,0.02,0.044,0.02,-0.049,-0.02,-0.005,0.049
1.412,-0.01,0.015,0.024,0.0,-0.02,0.02,0.044,0.024,-0.039,-0.01,0.0,0.054
1.414,0.0,0.029,0.029,-0.015,-0.015,0.029,0.054,0.039,-0.024,0.0,0.005,0.059
1.416,-0.01,0.034,0.044,-0.01,-0.029,0.039,0.054,0.039,-0.024,0.0,0.015,0.068
1.418,-0.005,0.029,0.034,-0.01,-0.02,0.029,0.063,0.039,-0.02,0.01,0.015,0.068
1.42,0.01,0.034,0.024,-0.02,-0.01,0.029,0.054,0.039,-0.024,0.005,0.015,0.063
1.422,0.01,0.044,0.034,-0.024,-0.015,0.039,0.054,0.044,-0.015,0.005,0.02,0.068
1.424,-0.01,0.02,0.029,-0.005,-0.02,0.024,0.049,0.044,-0.015,0.005,0.02,0.068
1.426,0.01,0.034,0.024,-0.02,-0.01,0.029,0.049,0.039,-0.015,0.01,0.015,0.068
1.428,0.01,0.044,0.034,-0.024,-0.015,0.039,0.049,0.044,-0.02,0.015,0.02,0.078
1.43,-0.005,0.044,0.049,-0.02,-0.029,0.044,0.044,0.034,-0.02,0.005,0.02,0.068
1.432,-0.005,0.029,0.034,-0.01,-0.02,0.029,0.049,0.034,-0.015,0.005,0.02,0.068
1.434,0.005,0.029,0.024,-0.015,-0.01,0.024,0.044,0.034,-0.015,0.005,0.015,0.068
1.436,0.0,0.015,0.015,-0.005,-0.01,0.015,0.044,0.024,-0.02,0.0,0.015,0.059
1.438,0.01,0.024,0.015,-0.015,-0.005,0.02,0.054,0.034,-0.015,0.005,0.015,0.063
1.44,0.015,0.039,0.024,-0.024,-0.005,0.029,0.059,0.044,-0.01,0.015,0.024,0.068
1.442,0.01,0.039,0.029,-0.024,-0.01,0.034,0.054,0.034,-0.024,0.0,0.01,0.059
1.444,0.0,0.024,0.024,-0.01,-0.015,0.024,0.044,0.02,-0.034,-0.005,0.005,0.054
1.446,-0.02,0.02,0.039,0.0,-0.029,0.029,0.034,0.015,-0.039,-0.02,-0.01,0.039
1.448,-0.02,0.015,0.034,0.005,-0.029,0.024,0.034,0.02,-0.034,-0.015,0.0,0.044
1.45,-0.005,0.015,0.02,-0.005,-0.015,0.015,0.034,0.015,-0.034,-0.01,-0.005,0.044
1.452,0.0,0.024,0.024,-0.01,-0.015,0.024,0.034,0.01,-0.034,-0.015,-0.005,0.034
1.454,0.015,0.029,0.015,-0.02,0.0,0.02,0.034,0.005,-0.034,-0.01,-0.005,0.039
1.456,0.015,0.024,0.01,-0.02,0.0,0.015,0.029,0.01,-0.039,-0.01,-0.005,0.034
1.458,0.0,0.02,0.02,-0.01,-0.01,0.02,0.029,0.005,-0.039,-0.015,-0.01,0.029
1.46,-0.005,0.02,0.024,-0.005,-0.015,0.02,0.034,0.01,-0.039,-0.01,-0.005,0.039
1.462,-0.024,0.005,0.029,0.01,-0.029,0.015,0.039,0.01,-0.039,-0.015,-0.01,0.044
1.464,-0.02,0.005,0.024,0.01,-0.024,0.015,0.024,0.005,-0.049,-0.024,-0.015,0.034
1.466,-0.02,0.01,0.029,0.005,-0.024,0.02,0.02,-0.005,-0.054,-0.029,-0.024,0.029
1.468,-0.02,0.005,0.024,0.01,-0.024,0.015,0.015,-0.005,-0.059,-0.039,-0.024,0.02
1.47,-0.015,0.0,0.015,0.01,-0.015,0.005,0.024,-0.005,-0.049,-0.034,-0.024,0.024
1.472,-0.005,0.0,0.005,0.005,-0.005,0.0,0.029,0.0,-0.044,-0.024,-0.015,0.029
1.474,-0.024,-0.005,0.02,0.015,-0.024,0.005,0.024,-0.01,-0.049,-0.034,-0.024,0.024
1.476,-0.044,-0.015,0.029,0.029,-0.039,0.005,0.02,-0.02,-0.059,-0.039,-0.024,0.02
1.478,-0.024,-0.01,0.015,0.02,-0.02,0.0,0.024,-0.02,-0.063,-0.039,-0.029,0.029
1.48,-0.02,-0.01,0.01,0.015,-0.015,0.0,0.015,-0.039,-0.078,-0.049,-0.034,0.02
1.482,-0.005,0.005,0.01,0.0,-0.01,0.005,0.024,-0.02,-0.068,-0.044,-0.029,0.029
1.484,0.005,0.015,0.01,-0.01,-0.005,0.01,0.029,-0.01,-0.059,-0.039,-0.024,0.029
1.486,-0.015,0.0,0.015,0.01,-0.015,0.005,0.029,-0.02,-0.059,-0.044,-0.034,0.02
1.488,-0.029,-0.005,0.024,0.02,-0.029,0.01,0.024,-0.02,-0.068,-0.044,-0.029,0.024
1.49,-0.015,0.015,0.029,0.0,-0.024,0.02,0.02,-0.024,-0.063,-0.049,-0.034,0.024
1.492,-0.005,0.015,0.02,-0.005,-0.015,0.015,0.029,-0.02,-0.059,-0.039,-0.029,0.029
1.494,-0.01,-0.005,0.005,0.01,-0.01,0.0,0.024,-0.015,-0.059,-0.039,-0.029,0.029
1.496,-0.029,-0.029,0.0,0.029,-0.015,-0.015,0.015,-0.034,-0.073,-0.054,-0.039,0.024
1.498,-0.015,-0.01,0.005,0.015,-0.01,-0.005,0.02,-0.044,-0.078,-0.059,-0.039,0.02
1.5,-0.02,-0.01,0.01,0.015,-0.015,0.0,0.02,-0.034,-0.073,-0.049,-0.039,0.02
1.502,-0.034,-0.034,0.0,0.034,-0.02,-0.02,0.02,-0.039,-0.078,-0.054,-0.044,0.015
1.504,-0.015,-0.02,-0.005,0.02,-0.005,-0.015,0.02,-0.039,-0.078,-0.059,-0.044,0.015
1.506,-0.02,-0.029,-0.01,0.024,-0.005,-0.02,0.01,-0.039,-0.083,-0.068,-0.054,0.015
1.508,-0.024,-0.01,0.015,0.02,-0.02,0.0,0.015,-0.034,-0.078,-0.059,-0.044,0.015
1.51,-0.01,0.005,0.015,0.005,-0.015,0.01,0.015,-0.034,-0.073,-0.059,-0.044,0.015
1.512,-0.02,-0.015,0.005,0.02,-0.015,-0.005,0.005,-0.039,-0.083,-0.068,-0.054,0.01
1.514,-0.024,-0.02,0.005,0.024,-0.015,-0.01,0.01,-0.049,-0.088,-0.068,-0.059,0.005
1.516,-0.034,-0.039,-0.005,0.039,-0.015,-0.024,0.0,-0.054,-0.102,-0.078,-0.063,-0.005
1.518,-0.02,-0.024,-0.005,0.024,-0.01,-0.015,0.01,-0.054,-0.093,-0.073,-0.063,0.0
1.52,-0.015,-0.015,0.0,0.015,-0.01,-0.01,0.015,-0.039,-0.088,-0.063,-0.049,0.01
1.522,-0.049,-0.029,0.02,0.039,-0.034,-0.005,0.01,-0.049,-0.093,-0.068,-0.059,0.005
1.524,-0.059,-0.044,0.015,0.054,-0.039,-0.015,0.005,-0.049,-0.098,-0.073,-0.059,0.0
1.526,-0.049,-0.034,0.015,0.044,-0.034,-0.01,0.0,-0.044,-0.098,-0.073,-0.059,0.0
1.528,-0.049,-0.015,0.034,0.034,-0.044,0.01,0.0,-0.044,-0.088,-0.068,-0.054,0.0
1.53,-0.044,-0.01,0.034,0.029,-0.039,0.01,0.005,-0.049,-0.088,-0.068,-0.059,-0.005
1.532,-0.034,-0.01,0.024,0.024,-0.029,0.005,0.005,-0.054,-0.088,-0.068,-0.054,0.0
1.534,-0.034,-0.024,0.01,0.029,-0.024,-0.01,0.0,-0.063,-0.098,-0.078,-0.063,-0.005
1.536,-0.034,-0.034,0.0,0.034,-0.02,-0.02,0.0,-0.059,-0.107,-0.083,-0.063,-0.005
1.538,-0.039,-0.044,-0.005,0.044,-0.02,-0.024,0.0,-0.059,-0.102,-0.083,-0.068,-0.01
1.54,-0.034,-0.039,-0.005,0.039,-0.015,-0.024,0.0,-0.049,-0.098,-0.078,-0.059,0.0
1.542,-0.034,-0.02,0.015,0.029,-0.024,-0.005,0.005,-0.049,-0.093,-0.078,-0.059,0.005
1.544,-0.034,-0.029,0.005,0.034,-0.02,-0.015,0.005,-0.044,-0.098,-0.073,-0.054,0.005
1.546,-0.024,-0.029,-0.005,0.029,-0.01,-0.02,-0.005,-0.049,-0.093,-0.073,-0.059,-0.005
1.548,-0.029,-0.029,0.0,0.029,-0.015,-0.015,-0.01,-0.049,-0.093,-0.078,-0.059,-0.01
1.55,-0.029,-0.039,-0.01,0.034,-0.01,-0.024,-0.005,-0.049,-0.088,-0.068,-0.059,0.0
1.552,-0.015,-0.029,-0.015,0.024,0.0,-0.024,-0.01,-0.054,-0.093,-0.068,-0.054,0.0
1.554,-0.029,-0.029,0.0,0.029,-0.015,-0.015,-0.01,-0.059,-0.093,-0.073,-0.059,-0.005
1.556,-0.029,-0.029,0.0,0.029,-0.015,-0.015,-0.005,-0.059,-0.093,-0.068,-0.059,0.0
1.558,-0.029,-0.039,-0.01,0.034,-0.01,-0.024,-0.01,-0.063,-0.098,-0.078,-0.063,0.0
1.56,-0.034,-0.054,-0.02,0.044,-0.01,-0.039,-0.01,-0.054,-0.098,-0.073,-0.059,-0.005
1.562,-0.029,-0.034,-0.005,0.034,-0.015,-0.02,-0.005,-0.054,-0.098,-0.078,-0.063,-0.01
1.564,-0.034,-0.034,0.0,0.034,-0.02,-0.02,0.0,-0.049,-0.088,-0.073,-0.059,-0.005
1.566,-0.049,-0.044,0.005,0.049,-0.029,-0.02,-0.015,-0.054,-0.093,-0.083,-0.063,-0.015
1.568,-0.049,-0.044,0.005,0.049,-0.029,-0.02,-0.01,-0.049,-0.088,-0.078,-0.068,-0.01
1.57,-0.029,-0.02,0.01,0.024,-0.02,-0.005,-0.01,-0.054,-0.093,-0.073,-0.063,-0.01
1.572,-0.01,-0.01,0.0,0.01,-0.005,-0.005,-0.01,-0.059,-0.093,-0.068,-0.059,-0.005
1.574,-0.015,-0.015,0.0,0.015,-0.01,-0.01,-0.01,-0.059,-0.093,-0.068,-0.059,-0.005
1.576,-0.024,-0.024,0.0,0.024,-0.015,-0.015,-0.015,-0.073,-0.102,-0.088,-0.068,-0.02
1.578,-0.039,-0.034,0.005,0.039,-0.024,-0.015,-0.015,-0.063,-0.093,-0.083,-0.063,-0.015
1.58,-0.029,-0.029,0.0,0.029,-0.015,-0.015,-0.015,-0.059,-0.098,-0.083,-0.063,-0.02
1.582,-0.029,-0.034,-0.005,0.034,-0.015,-0.02,-0.01,-0.059,-0.088,-0.083,-0.068,-0.02
1.584,-0.039,-0.044,-0.005,0.044,-0.02,-0.024,-0.005,-0.054,-0.088,-0.083,-0.063,-0.02
1.586,-0.044,-0.044,0.0,0.044,-0.024,-0.024,-0.01,-0.049,-0.088,-0.068,-0.059,-0.015
1.588,-0.034,-0.029,0.005,0.034,-0.02,-0.015,-0.01,-0.044,-0.083,-0.073,-0.054,-0.015
1.59,-0.039,-0.039,0.0,0.039,-0.02,-0.02,-0.01,-0.054,-0.088,-0.073,-0.063,-0.015
1.592,-0.039,-0.044,-0.005,0.044,-0.02,-0.024,-0.024,-0.068,-0.102,-0.083,-0.068,-0.029
1.594,-0.034,-0.034,0.0,0.034,-0.02,-0.02,-0.02,-0.073,-0.102,-0.083,-0.068,-0.024
1.596,-0.034,-0.029,0.005,0.034,-0.02,-0.015,-0.024,-0.068,-0.102,-0.083,-0.073,-0.02
1.598,-0.044,-0.049,-0.005,0.049,-0.02,-0.029,-0.02,-0.068,-0.098,-0.073,-0.073,-0.02
1.6,-0.034,-0.039,-0.005,0.039,-0.015,-0.024,-0.015,-0.059,-0.088,-0.073,-0.068,-0.015
1.602,-0.029,-0.034,-0.005,0.034,-0.015,-0.02,-0.02,-0.063,-0.093,-0.078,-0.073,-0.02
1.604,-0.024,-0.044,-0.02,0.034,-0.005,-0.034,-0.034,-0.073,-0.098,-0.083,-0.078,-0.029
1.606,-0.044,-0.054,-0.01,0.049,-0.02,-0.034,-0.044,-0.073,-0.102,-0.083,-0.083,-0.039
1.608,-0.049,-0.059,-0.01,0.054,-0.02,-0.034,-0.039,-0.063,-0.098,-0.088,-0.088,-0.039
1.61,-0.039,-0.054,-0.015,0.049,-0.015,-0.034,-0.034,-0.063,-0.093,-0.078,-0.078,-0.039
1.612,-0.054,-0.068,-0.015,0.063,-0.02,-0.044,-0.039,-0.068,-0.098,-0.078,-0.078,-0.039
1.614,-0.049,-0.063,-0.015,0.059,-0.02,-0.039,-0.029,-0.059,-0.083,-0.073,-0.073,-0.034
1.616,-0.034,-0.039,-0.005,0.039,-0.015,-0.024,-0.029,-0.054,-0.083,-0.068,-0.063,-0.024
1.618,-0.024,-0.029,-0.005,0.029,-0.01,-0.02,-0.029,-0.063,-0.083,-0.073,-0.073,-0.029
1.62,-0.01,-0.029,-0.02,0.02,0.005,-0.024,-0.034,-0.063,-0.093,-0.078,-0.073,-0.024
1.622,-0.02,-0.034,-0.015,0.029,-0.005,-0.024,-0.034,-0.068,-0.098,-0.083,-0.078,-0.039
1.624,-0.039,-0.044,-0.005,0.044,-0.02,-0.024,-0.044,-0.078,-0.102,-0.083,-0.088,-0.044
1.626,-0.049,-0.049,0.0,0.049,-0.024,-0.024,-0.044,-0.078,-0.102,-0.078,-0.088,-0.039
1.628,-0.039,-0.029,0.01,0.034,-0.024,-0.01,-0.044,-0.063,-0.098,-0.078,-0.078,-0.034
1.63,-0.044,-0.024,0.02,0.034,-0.034,-0.005,-0.044,-0.068,-0.098,-0.078,-0.083,-0.039
1.632,-0.054,-0.034,0.02,0.044,-0.039,-0.01,-0.039,-0.054,-0.088,-0.073,-0.073,-0.034
1.634,-0.054,-0.024,0.029,0.039,-0.044,0.0,-0.024,-0.049,-0.078,-0.068,-0.068,-0.029
1.636,-0.005,-0.005,0.0,0.005,-0.005,-0.005,-0.029,-0.054,-0.083,-0.068,-0.068,-0.029
1.638,-0.01,-0.02,-0.01,0.015,0.0,-0.015,-0.024,-0.063,-0.083,-0.073,-0.068,-0.029
1.64,-0.024,-0.034,-0.01,0.029,-0.01,-0.024,-0.039,-0.073,-0.098,-0.083,-0.078,-0.039
1.642,-0.039,-0.039,0.0,0.039,-0.02,-0.02,-0.039,-0.068,-0.098,-0.083,-0.078,-0.039
1.644,-0.034,-0.049,-0.015,0.044,-0.01,-0.034,-0.039,-0.063,-0.102,-0.083,-0.078,-0.039
1.646,-0.039,-0.044,-0.005,0.044,-0.02,-0.024,-0.044,-0.073,-0.102,-0.083,-0.073,-0.039
1.648,-0.029,-0.034,-0.005,0.034,-0.015,-0.02,-0.044,-0.068,-0.098,-0.083,-0.073,-0.039
1.65,-0.029,-0.029,0.0,0.029,-0.015,-0.015,-0.039,-0.063,-0.088,-0.078,-0.073,-0.034
1.652,-0.034,-0.034,0.0,0.034,-0.02,-0.02,-0.044,-0.068,-0.093,-0.078,-0.073,-0.039
1.654,-0.044,-0.044,0.0,0.044,-0.024,-0.024,-0.049,-0.068,-0.088,-0.083,-0.078,-0.049
1.656,-0.044,-0.039,0.005,0.044,-0.024,-0.02,-0.044,-0.068,-0.088,-0.078,-0.078,-0.044
1.658,-0.039,-0.02,0.02,0.029,-0.029,0.0,-0.039,-0.059,-0.083,-0.078,-0.078,-0.044
1.66,-0.029,-0.015,0.015,0.024,-0.024,0.0,-0.044,-0.063,-0.088,-0.083,-0.078,-0.049
1.662,-0.015,-0.015,0.0,0.015,-0.01,-0.01,-0.049,-0.068,-0.088,-0.088,-0.093,-0.054
1.664,-0.01,-0.015,-0.005,0.015,-0.005,-0.01,-0.044,-0.054,-0.083,-0.073,-0.083,-0.049
1.666,-0.034,-0.02,0.015,0.029,-0.024,-0.005,-0.044,-0.063,-0.083,-0.068,-0.078,-0.054
1.668,-0.034,-0.02,0.015,0.029,-0.024,-0.005,-0.044,-0.059,-0.078,-0.063,-0.078,-0.049
1.67,-0.039,-0.034,0.005,0.039,-0.024,-0.015,-0.049,-0.068,-0.078,-0.073,-0.083,-0.059
1.672,-0.039,-0.044,-0.005,0.044,-0.02,-0.024,-0.049,-0.073,-0.083,-0.073,-0.078,-0.059
1.674,-0.059,-0.044,0.015,0.054,-0.039,-0.015,-0.054,-0.088,-0.098,-0.083,-0.088,-0.063
1.676,-0.054,-0.049,0.005,0.054,-0.029,-0.024,-0.054,-0.083,-0.098,-0.083,-0.093,-0.063
1.678,-0.044,-0.044,0.0,0.044,-0.024,-0.024,-0.049,-0.073,-0.093,-0.078,-0.088,-0.059
1.68,-0.02,-0.034,-0.015,0.029,-0.005,-0.024,-0.049,-0.063,-0.083,-0.068,-0.073,-0.049
1.682,-0.02,-0.029,-0.01,0.024,-0.005,-0.02,-0.049,-0.059,-0.078,-0.068,-0.073,-0.044
1.684,-0.029,-0.029,0.0,0.029,-0.015,-0.015,-0.039,-0.054,-0.083,-0.068,-0.073,-0.049
1.686,-0.029,-0.024,0.005,0.029,-0.02,-0.01,-0.039,-0.054,-0.078,-0.063,-0.068,-0.044
1.688,-0.039,-0.044,-0.005,0.044,-0.02,-0.024,-0.054,-0.059,-0.093,-0.073,-0.078,-0.054
1.69,-0.044,-0.044,0.0,0.044,-0.024,-0.024,-0.054,-0.063,-0.088,-0.073,-0.083,-0.054
1.692,-0.029,-0.024,0.005,0.029,-0.02,-0.01,-0.049,-0.059,-0.078,-0.063,-0.068,-0.049
1.694,-0.005,-0.015,-0.01,0.01,0.0,-0.015,-0.044,-0.049,-0.073,-0.054,-0.063,-0.034
1.696,-0.039,-0.044,-0.005,0.044,-0.02,-0.024,-0.054,-0.063,-0.088,-0.068,-0.073,-0.054
1.698,-0.034,-0.044,-0.01,0.039,-0.015,-0.029,-0.049,-0.063,-0.083,-0.068,-0.073,-0.054
1.7,-0.02,-0.024,-0.005,0.024,-0.01,-0.015,-0.049,-0.059,-0.083,-0.063,-0.073,-0.054
1.702,-0.049,-0.034,0.015,0.044,-0.034,-0.01,-0.044,-0.059,-0.083,-0.073,-0.078,-0.054
1.704,-0.049,-0.044,0.005,0.049,-0.029,-0.02,-0.044,-0.059,-0.088,-0.073,-0.078,-0.054
1.706,-0.02,-0.02,0.0,0.02,-0.01,-0.01,-0.039,-0.059,-0.088,-0.073,-0.078,-0.049
1.708,-0.02,-0.034,-0.015,0.029,-0.005,-0.024,-0.049,-0.063,-0.093,-0.083,-0.078,-0.054
1.71,-0.02,-0.024,-0.005,0.024,-0.01,-0.015,-0.049,-0.063,-0.088,-0.083,-0.078,-0.049
1.712,-0.015,-0.029,-0.015,0.024,0.0,-0.024,-0.044,-0.059,-0.083,-0.073,-0.073,-0.054
1.714,-0.029,-0.029,0.0,0.029,-0.015,-0.015,-0.044,-0.063,-0.088,-0.078,-0.078,-0.054
1.716,-0.034,-0.024,0.01,0.029,-0.024,-0.01,-0.044,-0.059,-0.088,-0.078,-0.073,-0.059
1.718,-0.034,-0.034,0.0,0.034,-0.02,-0.02,-0.039,-0.059,-0.083,-0.078,-0.073,-0.054
1.72,-0.039,-0.049,-0.01,0.044,-0.015,-0.029,-0.049,-0.059,-0.088,-0.083,-0.078,-0.063
1.722,-0.044,-0.049,-0.005,0.049,-0.02,-0.029,-0.044,-0.059,-0.088,-0.083,-0.083,-0.059
1.724,-0.029,-0.049,-0.02,0.039,-0.005,-0.034,-0.044,-0.063,-0.088,-0.083,-0.083,-0.054
1.726,-0.015,-0.034,-0.02,0.024,0.0,-0.029,-0.039,-0.054,-0.083,-0.078,-0.083,-0.054
1.728,-0.029,-0.049,-0.02,0.039,-0.005,-0.034,-0.049,-0.059,-0.098,-0.083,-0.088,-0.054
1.73,-0.049,-0.063,-0.015,0.059,-0.02,-0.039,-0.049,-0.068,-0.098,-0.088,-0.098,-0.059
1.732,-0.029,-0.039,-0.01,0.034,-0.01,-0.024,-0.044,-0.063,-0.093,-0.083,-0.083,-0.049
1.734,-0.044,-0.049,-0.005,0.049,-0.02,-0.029,-0.044,-0.063,-0.093,-0.083,-0.083,-0.054
1.736,-0.039,-0.049,-0.01,0.044,-0.015,-0.029,-0.049,-0.073,-0.102,-0.088,-0.088,-0.054
1.738,-0.034,-0.039,-0.005,0.039,-0.015,-0.024,-0.039,-0.068,-0.093,-0.083,-0.083,-0.054
1.74,-0.039,-0.044,-0.005,0.044,-0.02,-0.024,-0.039,-0.068,-0.098,-0.078,-0.083,-0.059
1.742,-0.039,-0.039,0.0,0.039,-0.02,-0.02,-0.039,-0.068,-0.102,-0.088,-0.093,-0.063
1.744,-0.039,-0.054,-0.015,0.049,-0.015,-0.034,-0.039,-0.073,-0.102,-0.088,-0.093,-0.059
1.746,-0.034,-0.044,-0.01,0.039,-0.015,-0.029,-0.044,-0.063,-0.098,-0.083,-0.088,-0.059
1.748,-0.024,-0.039,-0.015,0.034,-0.005,-0.029,-0.039,-0.059,-0.102,-0.078,-0.083,-0.054
1.75,-0.024,-0.039,-0.015,0.034,-0.005,-0.029,-0.039,-0.059,-0.098,-0.083,-0.088,-0.054
1.752,-0.034,-0.049,-0.015,0.044,-0.01,-0.034,-0.039,-0.068,-0.098,-0.078,-0.088,-0.059
1.754,-0.044,-0.059,-0.015,0.054,-0.015,-0.039,-0.039,-0.063,-0.098,-0.088,-0.088,-0.059
1.756,-0.029,-0.049,-0.02,0.039,-0.005,-0.034,-0.034,-0.068,-0.102,-0.088,-0.088,-0.059
1.758,-0.039,-0.054,-0.015,0.049,-0.015,-0.034,-0.034,-0.073,-0.102,-0.093,-0.088,-0.054
1.76,-0.049,-0.068,-0.02,0.059,-0.015,-0.044,-0.039,-0.078,-0.112,-0.098,-0.088,-0.059
1.762,-0.054,-0.054,0.0,0.054,-0.029,-0.029,-0.034,-0.078,-0.107,-0.098,-0.088,-0.054
1.764,-0.029,-0.029,0.0,0.029,-0.015,-0.015,-0.029,-0.063,-0.098,-0.088,-0.083,-0.044
1.766,-0.01,-0.015,-0.005,0.015,-0.005,-0.01,-0.024,-0.054,-0.098,-0.088,-0.073,-0.039
1.768,-0.02,-0.024,-0.005,0.024,-0.01,-0.015,-0.029,-0.059,-0.102,-0.093,-0.083,-0.044
1.77,-0.029,-0.024,0.005,0.029,-0.02,-0.01,-0.029,-0.059,-0.098,-0.088,-0.078,-0.039
1.772,-0.054,-0.044,0.01,0.049,-0.034,-0.02,-0.039,-0.068,-0.102,-0.088,-0.083,-0.044
1.774,-0.049,-0.034,0.015,0.044,-0.034,-0.01,-0.034,-0.073,-0.107,-0.098,-0.088,-0.044
1.776,-0.034,-0.024,0.01,0.029,-0.024,-0.01,-0.029,-0.068,-0.102,-0.093,-0.083,-0.044
1.778,-0.02,-0.02,0.0,0.02,-0.01,-0.01,-0.024,-0.063,-0.093,-0.083,-0.078,-0.039
1.78,-0.029,-0.024,0.005,0.029,-0.02,-0.01,-0.024,-0.059,-0.093,-0.088,-0.078,-0.039
1.782,-0.034,-0.034,0.0,0.034,-0.02,-0.02,-0.024,-0.063,-0.098,-0.093,-0.083,-0.044
1.784,-0.034,-0.034,0.0,0.034,-0.02,-0.02,-0.024,-0.059,-0.093,-0.088,-0.083,-0.039
1.786,-0.034,-0.029,0.005,0.034,-0.02,-0.015,-0.029,-0.059,-0.107,-0.093,-0.083,-0.044
1.788,-0.034,-0.039,-0.005,0.039,-0.015,-0.024,-0.034,-0.068,-0.117,-0.093,-0.088,-0.049
1.79,-0.039,-0.02,0.02,0.029,-0.029,0.0,-0.02,-0.059,-0.102,-0.078,-0.078,-0.039
1.792,-0.049,-0.034,0.015,0.044,-0.034,-0.01,-0.015,-0.054,-0.098,-0.073,-0.073,-0.039
1.794,-0.034,-0.029,0.005,0.034,-0.02,-0.015,-0.02,-0.059,-0.107,-0.083,-0.083,-0.044
1.796,-0.024,-0.029,-0.005,0.029,-0.01,-0.02,-0.015,-0.068,-0.107,-0.083,-0.078,-0.039
1.798,-0.044,-0.039,0.005,0.044,-0.024,-0.02,-0.02,-0.068,-0.102,-0.093,-0.083,-0.044
1.8,-0.073,-0.059,0.015,0.068,-0.044,-0.024,-0.024,-0.073,-0.112,-0.098,-0.093,-0.049
1.802,-0.059,-0.059,0.0,0.059,-0.029,-0.029,-0.02,-0.073,-0.117,-0.098,-0.093,-0.049
1.804,-0.059,-0.044,0.015,0.054,-0.039,-0.015,-0.015,-0.068,-0.112,-0.093,-0.083,-0.039
1.806,-0.059,-0.039,0.02,0.049,-0.039,-0.01,-0.015,-0.063,-0.112,-0.093,-0.088,-0.044
1.808,-0.059,-0.049,0.01,0.054,-0.034,-0.02,-0.02,-0.068,-0.117,-0.093,-0.093,-0.049
1.81,-0.039,-0.044,-0.005,0.044,-0.02,-0.024,-0.02,-0.073,-0.117,-0.098,-0.098,-0.049
1.812,-0.02,-0.029,-0.01,0.024,-0.005,-0.02,-0.02,-0.068,-0.107,-0.093,-0.093,-0.044
1.814,-0.024,-0.029,-0.005,0.029,-0.01,-0.02,-0.015,-0.068,-0.112,-0.093,-0.093,-0.044
1.816,-0.029,-0.02,0.01,0.024,-0.02,-0.005,-0.005,-0.063,-0.102,-0.088,-0.083,-0.039
1.818,-0.039,-0.024,0.015,0.034,-0.029,-0.005,-0.01,-0.068,-0.107,-0.093,-0.088,-0.049
1.82,-0.039,-0.034,0.005,0.039,-0.024,-0.015,-0.02,-0.073,-0.107,-0.102,-0.098,-0.054
1.822,-0.039,-0.039,0.0,0.039,-0.02,-0.02,-0.015,-0.073,-0.112,-0.112,-0.102,-0.054
1.824,-0.059,-0.049,0.01,0.054,-0.034,-0.02,-0.015,-0.073,-0.117,-0.112,-0.102,-0.054
1.826,-0.044,-0.034,0.01,0.039,-0.029,-0.015,-0.005,-0.063,-0.112,-0.098,-0.093,-0.044
1.828,-0.034,-0.02,0.015,0.029,-0.024,-0.005,-0.01,-0.063,-0.112,-0.098,-0.088,-0.039
1.83,-0.039,-0.029,0.01,0.034,-0.024,-0.01,-0.005,-0.068,-0.112,-0.098,-0.088,-0.044
1.832,-0.02,-0.01,0.01,0.015,-0.015,0.0,0.0,-0.054,-0.107,-0.088,-0.073,-0.034
1.834,-0.024,-0.01,0.015,0.02,-0.02,0.0,0.01,-0.049,-0.098,-0.078,-0.073,-0.029
1.836,-0.034,-0.005,0.029,0.02,-0.034,0.01,0.01,-0.049,-0.098,-0.078,-0.068,-0.029
1.838,-0.034,0.01,0.044,0.015,-0.039,0.024,0.01,-0.049,-0.093,-0.078,-0.068,-0.029
1.84,-0.059,0.0,0.059,0.029,-0.059,0.029,0.01,-0.044,-0.093,-0.083,-0.068,-0.024
1.842,-0.044,0.005,0.049,0.02,-0.049,0.024,0.015,-0.049,-0.098,-0.078,-0.073,-0.02
1.844,-0.024,0.02,0.044,0.005,-0.034,0.029,0.02,-0.039,-0.098,-0.078,-0.063,-0.015
1.846,-0.044,-0.005,0.039,0.024,-0.044,0.015,0.024,-0.039,-0.098,-0.073,-0.063,-0.01
1.848,-0.024,0.01,0.034,0.01,-0.029,0.02,0.029,-0.029,-0.088,-0.068,-0.059,-0.01
1.85,-0.005,0.02,0.024,-0.005,-0.015,0.02,0.024,-0.034,-0.093,-0.073,-0.068,-0.015
1.852,-0.005,0.015,0.02,-0.005,-0.015,0.015,0.015,-0.049,-0.102,-0.083,-0.078,-0.024
1.854,0.015,0.039,0.024,-0.024,-0.005,0.029,0.024,-0.044,-0.093,-0.068,-0.063,-0.01
1.856,0.0,0.029,0.029,-0.015,-0.015,0.029,0.029,-0.034,-0.088,-0.068,-0.063,-0.005
1.858,-0.039,-0.015,0.024,0.029,-0.034,0.005,0.024,-0.039,-0.093,-0.073,-0.073,-0.024
1.86,-0.044,-0.01,0.034,0.029,-0.039,0.01,0.024,-0.029,-0.083,-0.073,-0.073,-0.02
1.862,-0.029,0.005,0.034,0.015,-0.034,0.02,0.02,-0.029,-0.083,-0.068,-0.068,-0.01
1.864,0.01,0.034,0.024,-0.02,-0.01,0.029,0.01,-0.029,-0.088,-0.063,-0.063,-0.005
1.866,0.029,0.059,0.029,-0.044,0.0,0.044,0.015,-0.029,-0.078,-0.059,-0.049,0.01
1.868,0.01,0.034,0.024,-0.02,-0.01,0.029,0.01,-0.024,-0.088,-0.059,-0.054,0.0
1.87,-0.01,0.01,0.02,0.0,-0.015,0.015,0.005,-0.024,-0.088,-0.059,-0.059,0.005
1.872,-0.02,0.015,0.034,0.005,-0.029,0.024,0.015,-0.024,-0.078,-0.059,-0.049,0.005
1.874,-0.01,0.015,0.024,0.0,-0.02,0.02,0.015,-0.034,-0.083,-0.059,-0.054,0.0
1.876,0.005,0.024,0.02,-0.015,-0.01,0.02,0.015,-0.029,-0.083,-0.059,-0.049,0.005
1.878,-0.005,-0.005,0.0,0.005,-0.005,-0.005,0.0,-0.044,-0.088,-0.068,-0.063,-0.01
1.88,-0.029,-0.029,0.0,0.029,-0.015,-0.015,-0.01,-0.044,-0.093,-0.078,-0.068,-0.015
1.882,-0.02,-0.029,-0.01,0.024,-0.005,-0.02,-0.01,-0.049,-0.098,-0.073,-0.073,-0.02
1.884,0.024,0.01,-0.015,-0.015,0.02,-0.005,-0.01,-0.044,-0.093,-0.078,-0.068,-0.01
1.886,0.02,0.02,0.0,-0.02,0.01,0.01,0.0,-0.049,-0.093,-0.063,-0.059,0.0
1.888,-0.015,0.01,0.024,0.005,-0.02,0.015,-0.015,-0.054,-0.102,-0.083,-0.063,-0.01
1.89,-0.029,-0.01,0.02,0.02,-0.024,0.005,-0.005,-0.054,-0.102,-0.078,-0.063,-0.005
1.892,-0.024,-0.015,0.01,0.02,-0.02,-0.005,-0.005,-0.059,-0.102,-0.088,-0.068,-0.01
1.894,-0.01,-0.029,-0.02,0.02,0.005,-0.024,-0.01,-0.068,-0.117,-0.098,-0.078,-0.015
1.896,0.015,-0.005,-0.02,-0.005,0.015,-0.015,-0.01,-0.063,-0.117,-0.098,-0.068,-0.01
1.898,0.015,-0.01,-0.024,0.0,0.02,-0.02,-0.01,-0.068,-0.117,-0.102,-0.078,-0.015
1.9,-0.005,-0.02,-0.015,0.015,0.005,-0.02,-0.005,-0.068,-0.117,-0.102,-0.078,-0.02
1.902,-0.02,-0.015,0.005,0.02,-0.015,-0.005,-0.01,-0.068,-0.117,-0.098,-0.078,-0.02
1.904,-0.01,-0.015,-0.005,0.015,-0.005,-0.01,-0.005,-0.063,-0.112,-0.098,-0.073,-0.015
1.906,-0.024,-0.02,0.005,0.024,-0.015,-0.01,0.0,-0.068,-0.122,-0.098,-0.083,-0.024
1.908,-0.049,-0.044,0.005,0.049,-0.029,-0.02,-0.005,-0.073,-0.127,-0.112,-0.093,-0.039
1.91,-0.049,-0.034,0.015,0.044,-0.034,-0.01,-0.005,-0.073,-0.122,-0.102,-0.093,-0.029
1.912,-0.039,-0.02,0.02,0.029,-0.029,0.0,0.005,-0.068,-0.117,-0.102,-0.083,-0.024
1.914,-0.029,-0.015,0.015,0.024,-0.024,0.0,0.005,-0.073,-0.122,-0.107,-0.093,-0.029
1.916,-0.044,-0.029,0.015,0.039,-0.029,-0.01,0.005,-0.073,-0.127,-0.107,-0.102,-0.034
1.918,-0.063,-0.034,0.029,0.049,-0.049,-0.005,0.005,-0.078,-0.132,-0.112,-0.102,-0.034
1.92,-0.059,-0.034,0.024,0.049,-0.044,-0.005,0.005,-0.078,-0.127,-0.107,-0.098,-0.034
1.922,-0.073,-0.054,0.02,0.063,-0.049,-0.02,0.005,-0.078,-0.127,-0.102,-0.102,-0.029
1.924,-0.068,-0.049,0.02,0.059,-0.044,-0.015,0.01,-0.083,-0.132,-0.107,-0.098,-0.029
1.926,-0.044,-0.034,0.01,0.039,-0.029,-0.015,0.01,-0.078,-0.137,-0.098,-0.093,-0.024
1.928,-0.024,-0.02,0.005,0.024,-0.015,-0.01,0.0,-0.078,-0.142,-0.102,-0.093,-0.024
1.93,-0.049,-0.049,0.0,0.049,-0.024,-0.024,-0.01,-0.093,-0.156,-0.117,-0.107,-0.034
1.932,-0.059,-0.059,0.0,0.059,-0.029,-0.029,-0.005,-0.093,-0.151,-0.117,-0.112,-0.034
1.934,-0.073,-0.073,0.0,0.073,-0.039,-0.039,0.0,-0.083,-0.142,-0.107,-0.102,-0.029
1.936,-0.078,-0.078,0.0,0.078,-0.039,-0.039,-0.005,-0.088,-0.151,-0.117,-0.102,-0.034
1.938,-0.068,-0.063,0.005,0.068,-0.039,-0.029,0.01,-0.083,-0.137,-0.112,-0.093,-0.024
1.94,-0.039,-0.029,0.01,0.034,-0.024,-0.01,0.015,-0.073,-0.127,-0.107,-0.088,-0.02
1.942,-0.049,-0.044,0.005,0.049,-0.029,-0.02,0.005,-0.078,-0.142,-0.112,-0.102,-0.029
1.944,-0.044,-0.044,0.0,0.044,-0.024,-0.024,0.005,-0.078,-0.137,-0.117,-0.098,-0.029
1.946,-0.059,-0.044,0.015,0.054,-0.039,-0.015,0.0,-0.083,-0.142,-0.122,-0.102,-0.034
1.948,-0.068,-0.059,0.01,0.063,-0.039,-0.024,0.005,-0.078,-0.142,-0.117,-0.107,-0.034
1.95,-0.063,-0.059,0.005,0.063,-0.034,-0.029,0.01,-0.078,-0.132,-0.107,-0.098,-0.024
1.952,-0.068,-0.054,0.015,0.063,-0.044,-0.02,0.01,-0.078,-0.132,-0.112,-0.093,-0.024
1.954,-0.059,-0.044,0.015,0.054,-0.039,-0.015,0.01,-0.073,-0.137,-0.112,-0.098,-0.024
1.956,-0.059,-0.039,0.02,0.049,-0.039,-0.01,0.01,-0.083,-0.137,-0.112,-0.098,-0.024
1.958,-0.063,-0.039,0.024,0.054,-0.044,-0.01,0.015,-0.088,-0.146,-0.122,-0.102,-0.029
1.96,-0.063,-0.029,0.034,0.049,-0.049,0.0,0.024,-0.073,-0.146,-0.117,-0.102,-0.034
1.962,-0.083,-0.029,0.054,0.059,-0.068,0.01,0.054,-0.049,-0.142,-0.117,-0.107,-0.039
1.964,-0.093,-0.02,0.073,0.059,-0.083,0.024,0.098,-0.024,-0.151,-0.122,-0.112,-0.044
1.966,-0.098,0.02,0.117,0.039,-0.107,0.068,0.127,-0.005,-0.161,-0.122,-0.127,-0.049
1.968,-0.112,0.034,0.146,0.039,-0.132,0.088,0.146,0.005,-0.156,-0.117,-0.117,-0.049
1.97,-0.107,0.039,0.146,0.034,-0.127,0.093,0.156,0.02,-0.127,-0.083,-0.098,-0.029
1.972,-0.098,0.049,0.146,0.024,-0.122,0.098,0.142,0.02,-0.107,-0.059,-0.083,-0.024
1.974,-0.107,0.054,0.161,0.029,-0.137,0.107,0.137,0.034,-0.063,-0.01,-0.044,0.005
1.976,-0.107,0.054,0.161,0.029,-0.137,0.107,0.142,0.063,-0.01,0.049,0.0,0.029
1.978,-0.098,0.034,0.132,0.034,-0.117,0.083,0.146,0.142,0.068,0.098,0.02,0.029
1.98,-0.068,0.034,0.102,0.02,-0.088,0.068,0.171,0.22,0.161,0.151,0.063,0.044
1.982,-0.044,0.059,0.102,-0.005,-0.073,0.078,0.151,0.278,0.249,0.234,0.132,0.088
1.984,0.015,0.093,0.078,-0.054,-0.034,0.083,0.068,0.381,0.425,0.371,0.239,0.156
1.986,0.112,0.146,0.034,-0.127,0.039,0.088,-0.054,0.542,0.693,0.576,0.42,0.268
1.988,0.239,0.244,0.005,-0.239,0.117,0.122,-0.181,0.683,1.005,0.839,0.63,0.41
1.99,0.327,0.317,-0.01,-0.322,0.166,0.151,-0.307,0.737,1.283,1.078,0.834,0.537
1.992,0.386,0.371,-0.015,-0.376,0.2,0.176,-0.41,0.717,1.503,1.293,1.0,0.649
1.994,0.454,0.434,-0.02,-0.444,0.234,0.205,-0.556,0.586,1.664,1.474,1.152,0.761
1.996,0.537,0.478,-0.059,-0.508,0.298,0.21,-0.776,0.41,1.781,1.61,1.259,0.83
1.998,0.62,0.429,-0.19,-0.522,0.405,0.117,-0.937,0.322,1.903,1.669,1.288,0.83
2.0,0.639,0.298,-0.342,-0.468,0.488,-0.024,-1.03,0.249,1.952,1.62,1.225,0.761
2.002,0.615,0.171,-0.444,-0.39,0.527,-0.137,-1.118,0.098,1.835,1.454,1.103,0.683
2.004,0.556,0.068,-0.488,-0.312,0.522,-0.21,-1.157,-0.171,1.542,1.157,0.893,0.566
2.006,0.429,-0.02,-0.449,-0.205,0.439,-0.234,-1.132,-0.527,1.074,0.766,0.639,0.429
2.008,0.337,-0.098,-0.434,-0.117,0.386,-0.268,-1.118,-0.81,0.63,0.434,0.39,0.303
2.01,0.283,-0.181,-0.464,-0.049,0.371,-0.322,-1.122,-0.971,0.229,0.127,0.171,0.181
2.012,0.249,-0.244,-0.493,0.0,0.371,-0.371,-1.118,-1.157,-0.234,-0.185,-0.029,0.102
2.014,0.19,-0.303,-0.493,0.059,0.342,-0.4,-1.098,-1.327,-0.669,-0.464,-0.19,0.034
2.016,0.142,-0.356,-0.498,0.107,0.317,-0.429,-1.059,-1.352,-0.839,-0.581,-0.273,-0.02
2.018,0.137,-0.332,-0.468,0.098,0.303,-0.4,-0.961,-1.225,-0.805,-0.561,-0.283,-0.034
2.02,0.078,-0.317,-0.395,0.122,0.234,-0.356,-0.844,-1.078,-0.717,-0.517,-0.283,-0.044
2.022,0.02,-0.298,-0.317,0.142,0.166,-0.307,-0.752,-0.956,-0.644,-0.468,-0.268,-0.049
2.024,0.01,-0.264,-0.273,0.127,0.142,-0.268,-0.678,-0.844,-0.576,-0.425,-0.249,-0.054
2.026,0.005,-0.249,-0.254,0.122,0.127,-0.254,-0.615,-0.771,-0.532,-0.395,-0.239,-0.054
2.028,-0.01,-0.244,-0.234,0.127,0.112,-0.239,-0.537,-0.698,-0.488,-0.366,-0.229,-0.059
2.03,-0.01,-0.22,-0.21,0.117,0.098,-0.215,-0.483,-0.62,-0.449,-0.342,-0.215,-0.059
2.032,-0.015,-0.19,-0.176,0.102,0.078,-0.185,-0.41,-0.547,-0.405,-0.312,-0.205,-0.059
2.034,-0.024,-0.176,-0.151,0.102,0.063,-0.166,-0.327,-0.454,-0.361,-0.283,-0.185,-0.054
2.036,-0.024,-0.156,-0.132,0.093,0.054,-0.146,-0.239,-0.371,-0.317,-0.244,-0.171,-0.049
2.038,-0.029,-0.122,-0.093,0.078,0.029,-0.107,-0.181,-0.298,-0.288,-0.22,-0.151,-0.044
2.04,-0.039,-0.102,-0.063,0.073,0.01,-0.083,-0.127,-0.244,-0.254,-0.2,-0.137,-0.039
2.042,-0.039,-0.093,-0.054,0.068,0.005,-0.073,-0.093,-0.2,-0.224,-0.181,-0.122,-0.024
2.044,-0.054,-0.078,-0.024,0.068,-0.015,-0.054,-0.063,-0.171,-0.195,-0.146,-0.102,-0.02
2.046,-0.063,-0.068,-0.005,0.068,-0.029,-0.039,-0.044,-0.146,-0.176,-0.137,-0.098,-0.015
2.048,-0.034,-0.049,-0.015,0.044,-0.01,-0.034,-0.02,-0.127,-0.161,-0.122,-0.102,-0.015
2.05,-0.024,-0.039,-0.015,0.034,-0.005,-0.029,0.005,-0.098,-0.142,-0.107,-0.083,0.0
2.052,-0.044,-0.044,0.0,0.044,-0.024,-0.024,0.02,-0.083,-0.132,-0.098,-0.078,0.0
2.054,-0.029,-0.02,0.01,0.024,-0.02,-0.005,0.024,-0.073,-0.132,-0.102,-0.078,0.0
2.056,-0.01,0.005,0.015,0.005,-0.015,0.01,0.034,-0.063,-0.137,-0.098,-0.078,0.005
2.058,-0.029,-0.024,0.005,0.029,-0.02,-0.01,0.029,-0.059,-0.137,-0.102,-0.083,-0.005
2.06,-0.049,-0.039,0.01,0.044,-0.029,-0.015,0.029,-0.059,-0.132,-0.102,-0.088,-0.005
2.062,-0.044,-0.029,0.015,0.039,-0.029,-0.01,0.039,-0.044,-0.117,-0.098,-0.078,0.0
2.064,-0.054,-0.024,0.029,0.039,-0.044,0.0,0.039,-0.034,-0.107,-0.083,-0.068,0.005
2.066,-0.044,-0.01,0.034,0.029,-0.039,0.01,0.039,-0.034,-0.102,-0.078,-0.068,0.005
2.068,-0.049,-0.015,0.034,0.034,-0.044,0.01,0.044,-0.034,-0.102,-0.083,-0.068,0.0
2.07,-0.063,-0.024,0.039,0.044,-0.054,0.005,0.054,-0.024,-0.098,-0.073,-0.063,0.0
2.072,-0.054,-0.02,0.034,0.039,-0.044,0.005,0.059,-0.02,-0.098,-0.063,-0.059,0.005
2.074,-0.059,-0.024,0.034,0.044,-0.049,0.005,0.054,-0.024,-0.112,-0.083,-0.073,-0.005
2.076,-0.063,-0.039,0.024,0.054,-0.044,-0.01,0.054,-0.02,-0.112,-0.088,-0.073,-0.005
2.078,-0.059,-0.034,0.024,0.049,-0.044,-0.005,0.054,-0.015,-0.107,-0.083,-0.073,-0.005
2.08,-0.044,-0.034,0.01,0.039,-0.029,-0.015,0.054,-0.015,-0.102,-0.078,-0.073,-0.005
2.082,-0.015,0.0,0.015,0.01,-0.015,0.005,0.068,0.005,-0.088,-0.068,-0.059,0.005
2.084,-0.024,0.0,0.024,0.015,-0.024,0.01,0.059,0.005,-0.078,-0.063,-0.059,0.005
2.086,-0.059,-0.024,0.034,0.044,-0.049,0.005,0.059,-0.005,-0.083,-0.063,-0.063,0.0
2.088,-0.054,-0.024,0.029,0.039,-0.044,0.0,0.063,0.005,-0.078,-0.068,-0.059,0.0
2.09,-0.054,-0.039,0.015,0.049,-0.034,-0.015,0.063,0.0,-0.078,-0.068,-0.059,-0.005
2.092,-0.044,-0.02,0.024,0.034,-0.034,0.0,0.063,0.005,-0.078,-0.063,-0.059,0.005
2.094,-0.02,0.01,0.029,0.005,-0.024,0.02,0.073,0.015,-0.078,-0.063,-0.054,0.01
2.096,-0.029,0.0,0.029,0.015,-0.029,0.015,0.083,0.02,-0.078,-0.063,-0.054,0.01
2.098,-0.059,-0.029,0.029,0.044,-0.044,0.0,0.078,0.02,-0.078,-0.068,-0.059,0.0
2.1,-0.063,-0.029,0.034,0.049,-0.049,0.0,0.073,0.02,-0.078,-0.068,-0.063,-0.005
2.102,-0.049,-0.02,0.029,0.034,-0.039,0.005,0.073,0.015,-0.078,-0.068,-0.059,0.0
2.104,-0.063,-0.024,0.039,0.044,-0.054,0.005,0.078,0.024,-0.063,-0.054,-0.054,0.01
2.106,-0.059,-0.029,0.029,0.044,-0.044,0.0,0.078,0.015,-0.063,-0.049,-0.049,0.01
2.108,-0.029,-0.02,0.01,0.024,-0.02,-0.005,0.073,0.01,-0.068,-0.059,-0.054,0.005
2.11,-0.034,-0.024,0.01,0.029,-0.024,-0.01,0.083,0.015,-0.068,-0.054,-0.044,0.01
2.112,-0.044,-0.029,0.015,0.039,-0.029,-0.01,0.083,0.02,-0.063,-0.054,-0.049,0.01
2.114,-0.044,-0.02,0.024,0.034,-0.034,0.0,0.088,0.024,-0.068,-0.059,-0.054,0.01
2.116,-0.044,-0.024,0.02,0.034,-0.034,-0.005,0.088,0.034,-0.063,-0.054,-0.049,0.01
2.118,-0.039,-0.015,0.024,0.029,-0.034,0.005,0.093,0.044,-0.054,-0.044,-0.039,0.015
2.12,-0.049,-0.024,0.024,0.039,-0.039,0.0,0.088,0.039,-0.054,-0.049,-0.049,0.015
2.122,-0.063,-0.034,0.029,0.049,-0.049,-0.005,0.078,0.029,-0.059,-0.059,-0.054,0.0
2.124,-0.049,-0.015,0.034,0.034,-0.044,0.01,0.078,0.039,-0.049,-0.044,-0.034,0.015
2.126,-0.054,-0.02,0.034,0.039,-0.044,0.005,0.083,0.029,-0.044,-0.039,-0.039,0.02
2.128,-0.054,-0.024,0.029,0.039,-0.044,0.0,0.083,0.034,-0.044,-0.039,-0.039,0.02
2.13,-0.044,-0.005,0.039,0.024,-0.044,0.015,0.088,0.034,-0.039,-0.034,-0.039,0.02
2.132,-0.034,-0.01,0.024,0.024,-0.029,0.005,0.093,0.039,-0.034,-0.029,-0.039,0.024
2.134,-0.029,-0.015,0.015,0.024,-0.024,0.0,0.093,0.039,-0.044,-0.039,-0.044,0.02
2.136,-0.039,-0.034,0.005,0.039,-0.024,-0.015,0.093,0.039,-0.049,-0.044,-0.044,0.015
2.138,-0.034,-0.024,0.01,0.029,-0.024,-0.01,0.093,0.044,-0.039,-0.039,-0.039,0.02
2.14,-0.039,-0.024,0.015,0.034,-0.029,-0.005,0.083,0.044,-0.039,-0.044,-0.049,0.015
2.142,-0.049,-0.02,0.029,0.034,-0.039,0.005,0.078,0.044,-0.039,-0.044,-0.044,0.015
2.144,-0.044,-0.024,0.02,0.034,-0.034,-0.005,0.078,0.049,-0.029,-0.029,-0.039,0.02
2.146,-0.049,-0.039,0.01,0.044,-0.029,-0.015,0.073,0.039,-0.029,-0.034,-0.044,0.015
2.148,-0.049,-0.034,0.015,0.044,-0.034,-0.01,0.078,0.044,-0.024,-0.034,-0.039,0.015
2.15,-0.059,-0.034,0.024,0.049,-0.044,-0.005,0.088,0.049,-0.02,-0.024,-0.034,0.02
2.152,-0.044,-0.024,0.02,0.034,-0.034,-0.005,0.093,0.059,-0.01,-0.015,-0.024,0.024
2.154,-0.054,-0.034,0.02,0.044,-0.039,-0.01,0.093,0.059,-0.024,-0.024,-0.024,0.02
2.156,-0.044,-0.015,0.029,0.029,-0.039,0.005,0.098,0.078,-0.01,-0.02,-0.02,0.029
2.158,-0.02,0.024,0.044,0.0,-0.034,0.034,0.112,0.098,0.01,0.005,0.0,0.044
2.16,-0.02,0.01,0.029,0.005,-0.024,0.02,0.098,0.093,0.005,-0.005,-0.01,0.034
2.162,-0.02,0.02,0.039,0.0,-0.029,0.029,0.093,0.088,0.005,-0.005,-0.015,0.034
2.164,-0.039,-0.005,0.034,0.024,-0.039,0.015,0.088,0.083,0.01,0.0,-0.005,0.034
2.166,-0.029,-0.005,0.024,0.02,-0.029,0.01,0.088,0.078,0.01,0.0,0.0,0.039
2.168,-0.02,0.005,0.024,0.01,-0.024,0.015,0.098,0.083,0.02,0.005,0.0,0.044
2.17,-0.02,-0.01,0.01,0.015,-0.015,0.0,0.098,0.078,0.015,0.005,0.0,0.039
2.172,-0.01,-0.005,0.005,0.01,-0.01,0.0,0.093,0.083,0.02,0.01,0.0,0.039
2.174,-0.02,-0.01,0.01,0.015,-0.015,0.0,0.093,0.093,0.02,0.005,0.0,0.039
2.176,-0.02,0.005,0.024,0.01,-0.024,0.015,0.098,0.098,0.029,0.015,0.005,0.049
2.178,-0.015,0.02,0.034,0.0,-0.024,0.024,0.098,0.107,0.044,0.024,0.02,0.059
2.18,-0.02,0.01,0.029,0.005,-0.024,0.02,0.093,0.102,0.039,0.024,0.015,0.059
2.182,-0.005,0.039,0.044,-0.015,-0.024,0.039,0.102,0.112,0.049,0.034,0.024,0.068
2.184,0.01,0.039,0.029,-0.024,-0.01,0.034,0.093,0.102,0.054,0.039,0.024,0.068
2.186,-0.01,0.024,0.034,-0.005,-0.024,0.029,0.078,0.093,0.044,0.034,0.02,0.059
2.188,0.005,0.034,0.029,-0.02,-0.015,0.029,0.083,0.098,0.049,0.034,0.024,0.063
2.19,-0.005,0.02,0.024,-0.005,-0.015,0.02,0.078,0.098,0.049,0.034,0.024,0.063
2.192,-0.005,0.024,0.029,-0.01,-0.02,0.024,0.083,0.102,0.063,0.049,0.034,0.068
2.194,0.005,0.029,0.024,-0.015,-0.01,0.024,0.083,0.107,0.068,0.044,0.034,0.068
2.196,-0.02,0.005,0.024,0.01,-0.024,0.015,0.073,0.107,0.063,0.044,0.029,0.063
2.198,-0.005,0.029,0.034,-0.01,-0.02,0.029,0.078,0.127,0.083,0.059,0.044,0.073
2.2,0.015,0.044,0.029,-0.029,-0.01,0.034,0.073,0.132,0.093,0.068,0.044,0.073
2.202,0.02,0.034,0.015,-0.024,0.0,0.024,0.078,0.142,0.102,0.078,0.059,0.088
2.204,0.02,0.063,0.044,-0.039,-0.015,0.054,0.078,0.137,0.112,0.088,0.063,0.093
2.206,-0.015,0.049,0.063,-0.015,-0.039,0.054,0.063,0.132,0.107,0.083,0.063,0.088
2.208,-0.02,0.024,0.044,0.0,-0.034,0.034,0.059,0.127,0.117,0.083,0.068,0.088
2.21,-0.005,0.044,0.049,-0.02,-0.029,0.044,0.063,0.132,0.122,0.098,0.078,0.098
2.212,0.015,0.054,0.039,-0.034,-0.015,0.044,0.068,0.146,0.132,0.107,0.088,0.098
2.214,0.044,0.068,0.024,-0.054,0.01,0.044,0.073,0.156,0.146,0.112,0.098,0.107
2.216,0.039,0.078,0.039,-0.059,0.0,0.059,0.068,0.161,0.146,0.117,0.102,0.112
2.218,0.034,0.073,0.039,-0.054,-0.005,0.054,0.068,0.166,0.156,0.122,0.107,0.117
2.22,0.054,0.088,0.034,-0.068,0.01,0.059,0.068,0.171,0.166,0.137,0.112,0.122
2.222,0.054,0.078,0.024,-0.063,0.015,0.049,0.054,0.166,0.166,0.132,0.112,0.117
2.224,0.034,0.068,0.034,-0.049,0.0,0.049,0.044,0.166,0.176,0.142,0.112,0.112
2.226,0.034,0.073,0.039,-0.054,-0.005,0.054,0.044,0.171,0.195,0.156,0.122,0.122
2.228,0.039,0.068,0.029,-0.054,0.005,0.049,0.049,0.181,0.215,0.171,0.137,0.132
2.23,0.073,0.088,0.015,-0.078,0.029,0.049,0.059,0.195,0.224,0.185,0.161,0.151
2.232,0.073,0.107,0.034,-0.088,0.02,0.068,0.068,0.205,0.244,0.205,0.171,0.161
2.234,0.059,0.083,0.024,-0.068,0.015,0.054,0.063,0.205,0.244,0.195,0.171,0.156
2.236,0.063,0.088,0.024,-0.073,0.02,0.054,0.054,0.205,0.239,0.195,0.171,0.156
2.238,0.073,0.098,0.024,-0.083,0.024,0.059,0.049,0.21,0.259,0.205,0.181,0.161
2.24,0.078,0.102,0.024,-0.088,0.024,0.063,0.044,0.224,0.273,0.22,0.185,0.166
2.242,0.088,0.122,0.034,-0.102,0.024,0.078,0.044,0.229,0.288,0.234,0.2,0.171
2.244,0.088,0.117,0.029,-0.102,0.029,0.073,0.034,0.224,0.303,0.244,0.22,0.181
2.246,0.093,0.117,0.024,-0.102,0.034,0.068,0.029,0.224,0.307,0.254,0.22,0.181
2.248,0.107,0.127,0.02,-0.117,0.044,0.073,0.039,0.244,0.332,0.273,0.239,0.2
2.25,0.102,0.117,0.015,-0.107,0.044,0.063,0.039,0.244,0.337,0.278,0.244,0.215
2.252,0.102,0.122,0.02,-0.112,0.039,0.068,0.029,0.244,0.342,0.283,0.244,0.21
2.254,0.122,0.127,0.005,-0.122,0.059,0.063,0.029,0.259,0.356,0.283,0.254,0.215
2.256,0.137,0.156,0.02,-0.146,0.059,0.088,0.034,0.264,0.366,0.303,0.264,0.224
2.258,0.132,0.156,0.024,-0.142,0.054,0.088,0.029,0.268,0.376,0.307,0.268,0.229
2.26,0.137,0.171,0.034,-0.151,0.049,0.102,0.024,0.278,0.395,0.317,0.273,0.239
2.262,0.137,0.166,0.029,-0.151,0.054,0.098,0.02,0.278,0.4,0.327,0.283,0.239
2.264,0.127,0.156,0.029,-0.142,0.049,0.093,0.005,0.268,0.41,0.337,0.288,0.239
2.266,0.142,0.156,0.015,-0.146,0.063,0.083,0.005,0.278,0.42,0.346,0.303,0.249
2.268,0.156,0.171,0.015,-0.161,0.068,0.093,0.01,0.288,0.434,0.356,0.312,0.259
2.27,0.161,0.171,0.01,-0.166,0.073,0.088,0.005,0.288,0.429,0.356,0.307,0.264
2.272,0.142,0.151,0.01,-0.146,0.063,0.078,0.005,0.288,0.449,0.361,0.312,0.264
2.274,0.132,0.156,0.024,-0.142,0.054,0.088,0.01,0.293,0.449,0.356,0.317,0.264
2.276,0.132,0.142,0.01,-0.137,0.059,0.073,0.01,0.293,0.444,0.356,0.312,0.259
2.278,0.161,0.156,-0.005,-0.156,0.083,0.073,0.01,0.307,0.459,0.376,0.322,0.268
2.28,0.151,0.161,0.01,-0.156,0.068,0.083,0.005,0.307,0.464,0.371,0.327,0.264
2.282,0.151,0.151,0.0,-0.151,0.073,0.073,-0.005,0.303,0.468,0.371,0.327,0.264
2.284,0.171,0.176,0.005,-0.171,0.083,0.088,0.0,0.312,0.488,0.386,0.342,0.273
2.286,0.156,0.166,0.01,-0.161,0.073,0.088,-0.005,0.312,0.488,0.386,0.337,0.273
2.288,0.156,0.166,0.01,-0.161,0.073,0.088,0.0,0.312,0.493,0.386,0.342,0.273
2.29,0.166,0.176,0.01,-0.171,0.078,0.093,0.005,0.322,0.503,0.4,0.351,0.283
2.292,0.151,0.166,0.015,-0.156,0.068,0.088,0.01,0.322,0.508,0.4,0.346,0.278
2.294,0.166,0.156,-0.01,-0.161,0.088,0.073,0.005,0.312,0.498,0.386,0.342,0.273
2.296,0.176,0.156,-0.02,-0.166,0.098,0.068,0.005,0.317,0.493,0.39,0.342,0.268
2.298,0.171,0.166,-0.005,-0.166,0.088,0.078,0.005,0.332,0.512,0.405,0.351,0.278
2.3,0.151,0.161,0.01,-0.156,0.068,0.083,0.0,0.337,0.508,0.395,0.346,0.273
2.302,0.161,0.161,0.0,-0.161,0.078,0.078,0.0,0.332,0.508,0.395,0.342,0.268
2.304,0.176,0.156,-0.02,-0.166,0.098,0.068,-0.015,0.317,0.503,0.395,0.337,0.264
2.306,0.185,0.156,-0.029,-0.171,0.107,0.063,-0.01,0.327,0.512,0.395,0.337,0.264
2.308,0.171,0.137,-0.034,-0.151,0.102,0.049,-0.005,0.332,0.512,0.395,0.337,0.268
2.31,0.176,0.127,-0.049,-0.151,0.112,0.039,-0.005,0.322,0.508,0.39,0.337,0.264
2.312,0.166,0.127,-0.039,-0.146,0.102,0.044,-0.005,0.322,0.508,0.39,0.342,0.268
2.314,0.156,0.117,-0.039,-0.137,0.098,0.039,0.0,0.332,0.508,0.381,0.332,0.264
2.316,0.161,0.117,-0.044,-0.137,0.102,0.034,0.015,0.337,0.503,0.386,0.332,0.268
2.318,0.171,0.132,-0.039,-0.151,0.102,0.044,0.01,0.342,0.503,0.386,0.332,0.264
2.32,0.166,0.132,-0.034,-0.146,0.098,0.049,0.01,0.337,0.498,0.376,0.322,0.254
2.322,0.161,0.117,-0.044,-0.137,0.102,0.034,0.01,0.332,0.488,0.361,0.312,0.244
2.324,0.142,0.112,-0.029,-0.127,0.083,0.039,0.005,0.322,0.483,0.361,0.312,0.239
2.326,0.137,0.117,-0.02,-0.127,0.078,0.049,0.015,0.327,0.493,0.361,0.317,0.239
2.328,0.146,0.117,-0.029,-0.132,0.088,0.044,0.039,0.327,0.488,0.361,0.312,0.244
2.33,0.156,0.137,-0.02,-0.146,0.088,0.059,0.044,0.327,0.478,0.361,0.307,0.239
2.332,0.181,0.161,-0.02,-0.171,0.098,0.068,0.044,0.322,0.468,0.351,0.303,0.239
2.334,0.156,0.122,-0.034,-0.137,0.093,0.044,0.044,0.312,0.444,0.327,0.283,0.224
2.336,0.117,0.093,-0.024,-0.102,0.068,0.034,0.049,0.307,0.429,0.317,0.273,0.22
2.338,0.132,0.102,-0.029,-0.117,0.078,0.034,0.049,0.298,0.415,0.303,0.264,0.21
2.34,0.132,0.093,-0.039,-0.112,0.083,0.024,0.034,0.273,0.386,0.283,0.239,0.19
2.342,0.127,0.098,-0.029,-0.112,0.078,0.034,0.039,0.268,0.376,0.278,0.234,0.185
2.344,0.117,0.083,-0.034,-0.098,0.073,0.024,0.044,0.264,0.366,0.273,0.229,0.185
2.346,0.102,0.073,-0.029,-0.088,0.063,0.02,0.054,0.259,0.361,0.268,0.224,0.181
2.348,0.102,0.068,-0.034,-0.083,0.068,0.015,0.049,0.249,0.342,0.254,0.21,0.171
2.35,0.098,0.063,-0.034,-0.078,0.063,0.015,0.059,0.239,0.327,0.244,0.2,0.161
2.352,0.102,0.068,-0.034,-0.083,0.068,0.015,0.054,0.22,0.303,0.224,0.185,0.156
2.354,0.088,0.063,-0.024,-0.073,0.054,0.02,0.054,0.21,0.278,0.205,0.171,0.146
2.356,0.059,0.034,-0.024,-0.044,0.039,0.005,0.054,0.195,0.249,0.185,0.156,0.132
2.358,0.049,0.029,-0.02,-0.039,0.034,0.005,0.054,0.19,0.229,0.171,0.142,0.122
2.36,0.049,0.034,-0.015,-0.039,0.029,0.01,0.063,0.181,0.22,0.166,0.132,0.122
2.362,0.063,0.044,-0.02,-0.054,0.039,0.01,0.063,0.171,0.2,0.151,0.122,0.112
2.364,0.063,0.054,-0.01,-0.059,0.034,0.02,0.063,0.161,0.19,0.146,0.112,0.112
2.366,0.054,0.049,-0.005,-0.049,0.029,0.02,0.063,0.142,0.171,0.127,0.102,0.102
2.368,0.049,0.034,-0.015,-0.039,0.029,0.01,0.059,0.132,0.151,0.107,0.088,0.088
2.37,0.029,0.01,-0.02,-0.02,0.024,-0.005,0.063,0.117,0.132,0.093,0.078,0.078
2.372,0.015,-0.01,-0.024,0.0,0.02,-0.02,0.068,0.112,0.117,0.073,0.068,0.073
2.374,0.01,-0.01,-0.02,0.0,0.015,-0.015,0.078,0.107,0.102,0.068,0.054,0.068
2.376,0.015,-0.015,-0.029,0.0,0.02,-0.024,0.073,0.098,0.083,0.054,0.049,0.059
2.378,0.024,0.005,-0.02,-0.015,0.02,-0.01,0.073,0.107,0.078,0.059,0.044,0.059
2.38,0.02,0.005,-0.015,-0.01,0.015,-0.005,0.073,0.098,0.073,0.049,0.039,0.054
2.382,0.005,-0.005,-0.01,0.0,0.005,-0.01,0.083,0.102,0.068,0.044,0.034,0.054
2.384,0.005,-0.005,-0.01,0.0,0.005,-0.01,0.073,0.088,0.059,0.044,0.034,0.054
2.386,0.02,-0.005,-0.024,-0.005,0.02,-0.015,0.073,0.068,0.034,0.029,0.024,0.049
2.388,0.015,-0.015,-0.029,0.0,0.02,-0.024,0.073,0.059,0.02,0.02,0.015,0.044
2.39,-0.015,-0.044,-0.029,0.029,0.005,-0.039,0.068,0.044,0.0,0.005,0.0,0.029
2.392,-0.034,-0.063,-0.029,0.049,-0.005,-0.049,0.068,0.039,-0.005,-0.01,-0.005,0.024
2.394,-0.034,-0.059,-0.024,0.049,-0.005,-0.044,0.078,0.049,0.0,-0.005,-0.005,0.024
2.396,-0.034,-0.059,-0.024,0.049,-0.005,-0.044,0.078,0.044,-0.015,-0.01,-0.005,0.02
2.398,-0.024,-0.049,-0.024,0.039,0.0,-0.039,0.073,0.044,-0.02,-0.02,-0.01,0.01
2.4,-0.01,-0.029,-0.02,0.02,0.005,-0.024,0.078,0.039,-0.024,-0.024,-0.02,0.005
2.402,-0.01,-0.029,-0.02,0.02,0.005,-0.024,0.068,0.034,-0.034,-0.029,-0.02,0.01
2.404,-0.005,-0.029,-0.024,0.02,0.01,-0.029,0.073,0.034,-0.034,-0.02,-0.02,0.015
2.406,-0.01,-0.044,-0.034,0.029,0.01,-0.039,0.073,0.024,-0.039,-0.034,-0.024,0.01
2.408,-0.024,-0.044,-0.02,0.034,-0.005,-0.034,0.073,0.024,-0.044,-0.034,-0.029,0.005
2.41,-0.015,-0.039,-0.024,0.029,0.005,-0.034,0.078,0.024,-0.049,-0.039,-0.034,0.0
2.412,-0.034,-0.059,-0.024,0.049,-0.005,-0.044,0.078,0.01,-0.059,-0.049,-0.044,-0.005
2.414,-0.049,-0.078,-0.029,0.063,-0.01,-0.054,0.078,0.015,-0.068,-0.063,-0.049,-0.005
2.416,-0.049,-0.078,-0.029,0.063,-0.01,-0.054,0.083,0.024,-0.063,-0.054,-0.044,0.0
2.418,-0.054,-0.078,-0.024,0.068,-0.015,-0.054,0.083,0.02,-0.068,-0.059,-0.049,0.0
2.42,-0.044,-0.068,-0.024,0.059,-0.01,-0.049,0.078,0.015,-0.068,-0.054,-0.049,-0.005
2.422,-0.049,-0.068,-0.02,0.059,-0.015,-0.044,0.068,0.01,-0.078,-0.063,-0.054,-0.005
2.424,-0.039,-0.049,-0.01,0.044,-0.015,-0.029,0.078,0.015,-0.073,-0.049,-0.044,0.0
2.426,-0.029,-0.044,-0.015,0.039,-0.01,-0.029,0.088,0.024,-0.063,-0.044,-0.034,0.01
2.428,-0.029,-0.039,-0.01,0.034,-0.01,-0.024,0.093,0.024,-0.068,-0.049,-0.044,0.005
2.43,-0.034,-0.034,0.0,0.034,-0.02,-0.02,0.093,0.02,-0.073,-0.054,-0.049,0.0
2.432,-0.029,-0.044,-0.015,0.039,-0.01,-0.029,0.093,0.015,-0.078,-0.049,-0.044,-0.005
2.434,-0.034,-0.049,-0.015,0.044,-0.01,-0.034,0.088,0.015,-0.083,-0.063,-0.054,-0.01
2.436,-0.02,-0.029,-0.01,0.024,-0.005,-0.02,0.093,0.024,-0.078,-0.054,-0.044,-0.005
2.438,-0.024,-0.034,-0.01,0.029,-0.01,-0.024,0.093,0.029,-0.078,-0.049,-0.039,0.005
2.44,-0.024,-0.029,-0.005,0.029,-0.01,-0.02,0.088,0.029,-0.078,-0.049,-0.039,0.005
2.442,-0.034,-0.034,0.0,0.034,-0.02,-0.02,0.088,0.024,-0.083,-0.054,-0.039,0.005
2.444,-0.039,-0.034,0.005,0.039,-0.024,-0.015,0.088,0.02,-0.083,-0.044,-0.039,0.01
2.446,-0.044,-0.039,0.005,0.044,-0.024,-0.02,0.083,0.015,-0.088,-0.049,-0.039,0.005
2.448,-0.024,-0.02,0.005,0.024,-0.015,-0.01,0.093,0.02,-0.078,-0.044,-0.034,0.015
2.45,-0.02,-0.015,0.005,0.02,-0.015,-0.005,0.093,0.02,-0.078,-0.044,-0.034,0.01
2.452,-0.029,-0.015,0.015,0.024,-0.024,0.0,0.098,0.015,-0.078,-0.039,-0.034,0.015
2.454,-0.02,-0.02,0.0,0.02,-0.01,-0.01,0.107,0.029,-0.073,-0.039,-0.029,0.02
2.456,-0.044,-0.029,0.015,0.039,-0.029,-0.01,0.107,0.034,-0.073,-0.034,-0.029,0.015
2.458,-0.049,-0.029,0.02,0.039,-0.034,-0.005,0.098,0.024,-0.078,-0.034,-0.024,0.015
2.46,-0.02,-0.015,0.005,0.02,-0.015,-0.005,0.093,0.02,-0.083,-0.034,-0.024,0.02
2.462,-0.034,-0.015,0.02,0.024,-0.029,0.0,0.098,0.029,-0.073,-0.024,-0.02,0.024
2.464,-0.029,-0.005,0.024,0.02,-0.029,0.01,0.102,0.034,-0.063,-0.015,-0.01,0.029
2.466,-0.024,0.01,0.034,0.01,-0.029,0.02,0.098,0.02,-0.068,-0.02,-0.01,0.029
2.468,-0.02,0.015,0.034,0.005,-0.029,0.024,0.098,0.015,-0.073,-0.024,-0.015,0.029
2.47,-0.029,0.005,0.034,0.015,-0.034,0.02,0.093,0.015,-0.078,-0.024,-0.02,0.024
2.472,-0.039,-0.015,0.024,0.029,-0.034,0.005,0.088,0.01,-0.083,-0.029,-0.02,0.015
2.474,-0.02,-0.005,0.015,0.015,-0.02,0.005,0.093,0.015,-0.073,-0.034,-0.02,0.015
2.476,-0.02,0.015,0.034,0.005,-0.029,0.024,0.098,0.024,-0.068,-0.02,-0.01,0.024
2.478,-0.02,0.005,0.024,0.01,-0.024,0.015,0.098,0.024,-0.068,-0.015,-0.01,0.024
2.48,-0.02,0.01,0.029,0.005,-0.024,0.02,0.093,0.02,-0.063,-0.015,-0.005,0.024
2.482,-0.034,0.0,0.034,0.02,-0.034,0.015,0.093,0.024,-0.059,-0.01,-0.005,0.029
2.484,-0.029,0.015,0.044,0.01,-0.039,0.029,0.088,0.029,-0.049,-0.005,0.005,0.039
2.486,-0.015,0.01,0.024,0.005,-0.02,0.015,0.078,0.02,-0.054,-0.01,0.0,0.034
2.488,-0.029,-0.01,0.02,0.02,-0.024,0.005,0.073,0.015,-0.054,-0.015,-0.01,0.024
2.49,-0.005,0.015,0.02,-0.005,-0.015,0.015,0.088,0.024,-0.044,-0.005,0.0,0.029
2.492,0.005,0.034,0.029,-0.02,-0.015,0.029,0.093,0.029,-0.044,0.0,0.005,0.029
2.494,-0.01,0.01,0.02,0.0,-0.015,0.015,0.093,0.024,-0.044,-0.01,-0.005,0.024
2.496,0.005,0.034,0.029,-0.02,-0.015,0.029,0.093,0.034,-0.044,0.0,0.0,0.029
2.498,-0.015,0.024,0.039,-0.005,-0.029,0.029,0.093,0.034,-0.034,0.005,0.01,0.029
2.5,-0.024,0.02,0.044,0.005,-0.034,0.029,0.088,0.034,-0.034,0.0,0.005,0.029
2.502,-0.02,0.02,0.039,0.0,-0.029,0.029,0.083,0.024,-0.044,-0.01,-0.005,0.02
2.504,-0.02,0.01,0.029,0.005,-0.024,0.02,0.078,0.015,-0.049,-0.01,-0.01,0.02
2.506,-0.015,0.015,0.029,0.0,-0.024,0.02,0.083,0.02,-0.044,-0.005,-0.005,0.02
2.508,-0.029,0.01,0.039,0.01,-0.034,0.024,0.083,0.015,-0.039,-0.005,-0.005,0.02
2.51,-0.059,-0.015,0.044,0.039,-0.054,0.015,0.078,0.005,-0.054,-0.015,-0.02,0.01
2.512,-0.034,-0.005,0.029,0.02,-0.034,0.01,0.078,0.01,-0.044,-0.01,-0.005,0.024
2.514,0.0,0.02,0.02,-0.01,-0.01,0.02,0.088,0.024,-0.039,-0.005,0.0,0.029
2.516,0.005,0.029,0.024,-0.015,-0.01,0.024,0.098,0.029,-0.034,0.005,0.005,0.039
2.518,-0.024,0.015,0.039,0.005,-0.034,0.024,0.088,0.02,-0.044,0.0,0.0,0.029
2.52,-0.044,-0.005,0.039,0.024,-0.044,0.015,0.083,0.01,-0.049,-0.01,-0.015,0.02
2.522,-0.02,0.01,0.029,0.005,-0.024,0.02,0.088,0.015,-0.054,-0.01,-0.01,0.02
2.524,-0.024,0.015,0.039,0.005,-0.034,0.024,0.083,0.01,-0.054,-0.005,-0.01,0.02
2.526,-0.039,-0.005,0.034,0.024,-0.039,0.015,0.073,0.0,-0.059,-0.015,-0.02,0.015
2.528,-0.01,0.024,0.034,-0.005,-0.024,0.029,0.083,0.01,-0.044,-0.005,-0.01,0.029
2.53,-0.01,0.02,0.029,-0.005,-0.02,0.024,0.088,0.01,-0.049,-0.005,-0.005,0.024
2.532,-0.02,0.0,0.02,0.01,-0.02,0.01,0.078,0.005,-0.054,-0.01,-0.01,0.02
2.534,-0.005,0.01,0.015,0.0,-0.01,0.01,0.088,0.01,-0.049,-0.01,-0.01,0.024
2.536,-0.005,0.02,0.024,-0.005,-0.015,0.02,0.088,0.01,-0.049,-0.01,-0.005,0.024
2.538,-0.015,0.01,0.024,0.005,-0.02,0.015,0.078,0.005,-0.063,-0.02,-0.015,0.015
2.54,-0.039,-0.005,0.034,0.024,-0.039,0.015,0.063,-0.01,-0.073,-0.029,-0.02,0.01
2.542,-0.024,0.005,0.029,0.01,-0.029,0.015,0.073,0.005,-0.059,-0.02,-0.01,0.02
2.544,-0.02,0.0,0.02,0.01,-0.02,0.01,0.073,0.005,-0.054,-0.015,-0.01,0.024
2.546,-0.029,-0.005,0.024,0.02,-0.029,0.01,0.073,0.0,-0.054,-0.02,-0.01,0.02
2.548,-0.044,-0.01,0.034,0.029,-0.039,0.01,0.083,0.005,-0.054,-0.015,-0.005,0.02
2.55,-0.044,-0.024,0.02,0.034,-0.034,-0.005,0.073,-0.015,-0.073,-0.024,-0.02,0.01
2.552,-0.024,-0.015,0.01,0.02,-0.02,-0.005,0.063,-0.024,-0.083,-0.029,-0.02,0.01
2.554,-0.01,-0.015,-0.005,0.015,-0.005,-0.01,0.068,-0.024,-0.088,-0.039,-0.024,0.01
2.556,-0.029,-0.029,0.0,0.029,-0.015,-0.015,0.063,-0.034,-0.102,-0.044,-0.034,-0.005
2.558,-0.049,-0.044,0.005,0.049,-0.029,-0.02,0.059,-0.039,-0.102,-0.049,-0.039,-0.01
2.56,-0.029,-0.02,0.01,0.024,-0.02,-0.005,0.063,-0.034,-0.093,-0.039,-0.029,0.0
2.562,-0.044,-0.029,0.015,0.039,-0.029,-0.01,0.049,-0.039,-0.102,-0.044,-0.039,-0.005
2.564,-0.029,-0.005,0.024,0.02,-0.029,0.01,0.059,-0.029,-0.093,-0.034,-0.029,0.0
2.566,-0.02,0.01,0.029,0.005,-0.024,0.02,0.059,-0.029,-0.088,-0.034,-0.024,0.005
2.568,-0.034,-0.01,0.024,0.024,-0.029,0.005,0.049,-0.044,-0.098,-0.044,-0.039,-0.01
2.57,-0.039,-0.015,0.024,0.029,-0.034,0.005,0.059,-0.039,-0.093,-0.039,-0.034,-0.005
2.572,-0.039,-0.01,0.029,0.024,-0.034,0.01,0.068,-0.024,-0.088,-0.034,-0.029,-0.005
2.574,-0.049,-0.029,0.02,0.039,-0.034,-0.005,0.068,-0.029,-0.093,-0.039,-0.034,-0.015
2.576,-0.039,-0.029,0.01,0.034,-0.024,-0.01,0.068,-0.044,-0.102,-0.049,-0.044,-0.02
2.578,-0.049,-0.049,0.0,0.049,-0.024,-0.024,0.063,-0.049,-0.112,-0.059,-0.049,-0.02
2.58,-0.054,-0.049,0.005,0.054,-0.029,-0.024,0.059,-0.049,-0.112,-0.059,-0.044,-0.015
2.582,-0.024,-0.02,0.005,0.024,-0.015,-0.01,0.059,-0.049,-0.112,-0.059,-0.044,-0.015
2.584,-0.029,-0.015,0.015,0.024,-0.024,0.0,0.059,-0.049,-0.112,-0.054,-0.049,-0.015
2.586,-0.039,-0.02,0.02,0.029,-0.029,0.0,0.054,-0.049,-0.112,-0.059,-0.049,-0.015
2.588,-0.044,-0.024,0.02,0.034,-0.034,-0.005,0.063,-0.044,-0.107,-0.054,-0.044,-0.01
2.59,-0.059,-0.02,0.039,0.039,-0.049,0.01,0.073,-0.044,-0.102,-0.049,-0.039,-0.01
2.592,-0.049,-0.015,0.034,0.034,-0.044,0.01,0.063,-0.044,-0.107,-0.054,-0.044,-0.01
2.594,-0.024,-0.01,0.015,0.02,-0.02,0.0,0.059,-0.044,-0.112,-0.054,-0.044,-0.01
2.596,-0.024,-0.01,0.015,0.02,-0.02,0.0,0.059,-0.049,-0.112,-0.059,-0.049,-0.015
2.598,-0.039,-0.015,0.024,0.029,-0.034,0.005,0.054,-0.054,-0.122,-0.068,-0.054,-0.024
2.6,-0.063,-0.049,0.015,0.059,-0.039,-0.02,0.049,-0.059,-0.127,-0.078,-0.059,-0.029
2.602,-0.039,-0.049,-0.01,0.044,-0.015,-0.029,0.044,-0.068,-0.132,-0.083,-0.068,-0.034
2.604,-0.034,-0.039,-0.005,0.039,-0.015,-0.024,0.044,-0.063,-0.137,-0.088,-0.073,-0.034
2.606,-0.049,-0.039,0.01,0.044,-0.029,-0.015,0.049,-0.059,-0.132,-0.083,-0.068,-0.029
2.608,-0.059,-0.049,0.01,0.054,-0.034,-0.02,0.063,-0.054,-0.117,-0.073,-0.059,-0.02
2.61,-0.049,-0.034,0.015,0.044,-0.034,-0.01,0.059,-0.059,-0.122,-0.073,-0.059,-0.024
2.612,-0.024,-0.015,0.01,0.02,-0.02,-0.005,0.063,-0.054,-0.117,-0.068,-0.054,-0.02
2.614,-0.034,-0.015,0.02,0.024,-0.029,0.0,0.063,-0.044,-0.117,-0.068,-0.054,-0.024
2.616,-0.063,-0.059,0.005,0.063,-0.034,-0.029,0.063,-0.049,-0.122,-0.068,-0.063,-0.034
2.618,-0.054,-0.044,0.01,0.049,-0.034,-0.02,0.063,-0.049,-0.127,-0.073,-0.063,-0.039
2.62,-0.049,-0.039,0.01,0.044,-0.029,-0.015,0.059,-0.059,-0.132,-0.083,-0.068,-0.049
2.622,-0.044,-0.034,0.01,0.039,-0.029,-0.015,0.059,-0.059,-0.132,-0.083,-0.073,-0.049
2.624,-0.034,-0.015,0.02,0.024,-0.029,0.0,0.068,-0.049,-0.117,-0.068,-0.063,-0.039
2.626,-0.054,-0.034,0.02,0.044,-0.039,-0.01,0.059,-0.049,-0.122,-0.073,-0.063,-0.039
2.628,-0.059,-0.049,0.01,0.054,-0.034,-0.02,0.054,-0.063,-0.127,-0.083,-0.068,-0.039
2.63,-0.044,-0.039,0.005,0.044,-0.024,-0.02,0.054,-0.068,-0.132,-0.083,-0.073,-0.044
2.632,-0.044,-0.039,0.005,0.044,-0.024,-0.02,0.054,-0.068,-0.137,-0.088,-0.073,-0.049
2.634,-0.044,-0.034,0.01,0.039,-0.029,-0.015,0.054,-0.068,-0.137,-0.093,-0.078,-0.054
2.636,-0.044,-0.034,0.01,0.039,-0.029,-0.015,0.054,-0.073,-0.146,-0.093,-0.083,-0.054
2.638,-0.049,-0.054,-0.005,0.054,-0.024,-0.029,0.049,-0.073,-0.146,-0.093,-0.088,-0.054
2.64,-0.039,-0.049,-0.01,0.044,-0.015,-0.029,0.049,-0.068,-0.146,-0.093,-0.078,-0.049
2.642,-0.054,-0.054,0.0,0.054,-0.029,-0.029,0.049,-0.068,-0.137,-0.088,-0.078,-0.049
2.644,-0.078,-0.054,0.024,0.068,-0.054,-0.015,0.049,-0.073,-0.142,-0.093,-0.078,-0.049
2.646,-0.063,-0.039,0.024,0.054,-0.044,-0.01,0.049,-0.068,-0.137,-0.083,-0.073,-0.044
2.648,-0.054,-0.044,0.01,0.049,-0.034,-0.02,0.039,-0.083,-0.142,-0.093,-0.078,-0.049
2.65,-0.044,-0.039,0.005,0.044,-0.024,-0.02,0.044,-0.088,-0.146,-0.093,-0.078,-0.049
2.652,-0.034,-0.034,0.0,0.034,-0.02,-0.02,0.044,-0.083,-0.142,-0.093,-0.073,-0.044
2.654,-0.039,-0.054,-0.015,0.049,-0.015,-0.034,0.049,-0.068,-0.137,-0.093,-0.073,-0.044
2.656,-0.024,-0.034,-0.01,0.029,-0.01,-0.024,0.059,-0.059,-0.127,-0.078,-0.063,-0.034
2.658,-0.034,-0.024,0.01,0.029,-0.024,-0.01,0.059,-0.054,-0.127,-0.078,-0.059,-0.029
2.66,-0.059,-0.029,0.029,0.044,-0.044,0.0,0.054,-0.049,-0.122,-0.073,-0.054,-0.029
2.662,-0.059,-0.024,0.034,0.044,-0.049,0.005,0.063,-0.049,-0.117,-0.073,-0.059,-0.034
2.664,-0.049,-0.024,0.024,0.039,-0.039,0.0,0.059,-0.059,-0.127,-0.073,-0.059,-0.034
2.666,-0.034,-0.029,0.005,0.034,-0.02,-0.015,0.044,-0.078,-0.146,-0.088,-0.068,-0.039
2.668,-0.044,-0.039,0.005,0.044,-0.024,-0.02,0.044,-0.093,-0.151,-0.093,-0.073,-0.044
2.67,-0.044,-0.044,0.0,0.044,-0.024,-0.024,0.044,-0.093,-0.151,-0.098,-0.078,-0.049
2.672,-0.039,-0.049,-0.01,0.044,-0.015,-0.029,0.044,-0.088,-0.146,-0.098,-0.073,-0.049
2.674,-0.044,-0.059,-0.015,0.054,-0.015,-0.039,0.044,-0.078,-0.142,-0.098,-0.073,-0.049
2.676,-0.034,-0.039,-0.005,0.039,-0.015,-0.024,0.054,-0.073,-0.137,-0.088,-0.073,-0.044
2.678,-0.049,-0.044,0.005,0.049,-0.029,-0.02,0.044,-0.073,-0.146,-0.093,-0.078,-0.049
2.68,-0.044,-0.044,0.0,0.044,-0.024,-0.024,0.054,-0.073,-0.142,-0.093,-0.078,-0.049
2.682,-0.044,-0.039,0.005,0.044,-0.024,-0.02,0.049,-0.073,-0.146,-0.093,-0.083,-0.054
2.684,-0.049,-0.044,0.005,0.049,-0.029,-0.02,0.044,-0.078,-0.151,-0.098,-0.083,-0.059
2.686,-0.054,-0.059,-0.005,0.059,-0.024,-0.034,0.049,-0.073,-0.151,-0.098,-0.083,-0.054
2.688,-0.049,-0.049,0.0,0.049,-0.024,-0.024,0.044,-0.083,-0.146,-0.102,-0.088,-0.063
2.69,-0.049,-0.049,0.0,0.049,-0.024,-0.024,0.054,-0.073,-0.142,-0.093,-0.083,-0.059
2.692,-0.054,-0.049,0.005,0.054,-0.029,-0.024,0.054,-0.068,-0.137,-0.093,-0.078,-0.054
2.694,-0.059,-0.054,0.005,0.059,-0.034,-0.024,0.049,-0.068,-0.137,-0.093,-0.083,-0.054
2.696,-0.059,-0.054,0.005,0.059,-0.034,-0.024,0.054,-0.068,-0.142,-0.088,-0.083,-0.054
2.698,-0.054,-0.059,-0.005,0.059,-0.024,-0.034,0.054,-0.068,-0.146,-0.093,-0.083,-0.059
2.7,-0.063,-0.063,0.0,0.063,-0.034,-0.034,0.049,-0.073,-0.151,-0.098,-0.083,-0.059
2.702,-0.049,-0.049,0.0,0.049,-0.024,-0.024,0.054,-0.068,-0.146,-0.093,-0.083,-0.054
2.704,-0.024,-0.039,-0.015,0.034,-0.005,-0.029,0.054,-0.068,-0.146,-0.093,-0.078,-0.059
2.706,-0.039,-0.049,-0.01,0.044,-0.015,-0.029,0.049,-0.068,-0.146,-0.098,-0.078,-0.059
2.708,-0.039,-0.059,-0.02,0.049,-0.01,-0.039,0.044,-0.083,-0.142,-0.102,-0.083,-0.063
2.71,-0.049,-0.049,0.0,0.049,-0.024,-0.024,0.054,-0.073,-0.137,-0.093,-0.078,-0.059
2.712,-0.054,-0.039,0.015,0.049,-0.034,-0.015,0.049,-0.068,-0.142,-0.098,-0.078,-0.063
2.714,-0.063,-0.044,0.02,0.054,-0.044,-0.015,0.054,-0.073,-0.142,-0.093,-0.078,-0.063
2.716,-0.054,-0.044,0.01,0.049,-0.034,-0.02,0.044,-0.088,-0.151,-0.102,-0.088,-0.073
2.718,-0.029,-0.034,-0.005,0.034,-0.015,-0.02,0.039,-0.088,-0.161,-0.107,-0.093,-0.078
2.72,-0.034,-0.034,0.0,0.034,-0.02,-0.02,0.039,-0.088,-0.156,-0.107,-0.088,-0.068
2.722,-0.054,-0.049,0.005,0.054,-0.029,-0.024,0.034,-0.083,-0.156,-0.098,-0.088,-0.073
2.724,-0.049,-0.049,0.0,0.049,-0.024,-0.024,0.034,-0.083,-0.151,-0.098,-0.083,-0.078
2.726,-0.049,-0.044,0.005,0.049,-0.029,-0.02,0.034,-0.083,-0.151,-0.098,-0.083,-0.073
2.728,-0.039,-0.039,0.0,0.039,-0.02,-0.02,0.039,-0.083,-0.142,-0.093,-0.083,-0.073
2.73,-0.029,-0.024,0.005,0.029,-0.02,-0.01,0.044,-0.073,-0.142,-0.093,-0.078,-0.068
2.732,-0.034,-0.039,-0.005,0.039,-0.015,-0.024,0.044,-0.078,-0.142,-0.093,-0.078,-0.068
2.734,-0.049,-0.054,-0.005,0.054,-0.024,-0.029,0.039,-0.083,-0.146,-0.098,-0.088,-0.073
2.736,-0.054,-0.049,0.005,0.054,-0.029,-0.024,0.049,-0.078,-0.151,-0.098,-0.088,-0.068
2.738,-0.049,-0.049,0.0,0.049,-0.024,-0.024,0.049,-0.068,-0.146,-0.098,-0.088,-0.073
2.74,-0.044,-0.044,0.0,0.044,-0.024,-0.024,0.044,-0.063,-0.146,-0.098,-0.083,-0.073
2.742,-0.049,-0.054,-0.005,0.054,-0.024,-0.029,0.049,-0.068,-0.146,-0.093,-0.083,-0.068
2.744,-0.054,-0.054,0.0,0.054,-0.029,-0.029,0.039,-0.078,-0.151,-0.102,-0.083,-0.073
2.746,-0.029,-0.034,-0.005,0.034,-0.015,-0.02,0.034,-0.083,-0.151,-0.102,-0.083,-0.073
2.748,-0.034,-0.039,-0.005,0.039,-0.015,-0.024,0.039,-0.088,-0.151,-0.102,-0.088,-0.078
2.75,-0.049,-0.054,-0.005,0.054,-0.024,-0.029,0.039,-0.083,-0.151,-0.102,-0.088,-0.078
2.752,-0.039,-0.044,-0.005,0.044,-0.02,-0.024,0.039,-0.083,-0.151,-0.102,-0.083,-0.073
2.754,-0.034,-0.054,-0.02,0.044,-0.01,-0.039,0.034,-0.083,-0.151,-0.098,-0.088,-0.078
2.756,-0.063,-0.073,-0.01,0.068,-0.029,-0.044,0.034,-0.088,-0.156,-0.112,-0.093,-0.088
2.758,-0.068,-0.063,0.005,0.068,-0.039,-0.029,0.034,-0.083,-0.156,-0.112,-0.093,-0.083
2.76,-0.034,-0.029,0.005,0.034,-0.02,-0.015,0.039,-0.078,-0.151,-0.112,-0.088,-0.078
2.762,-0.044,-0.034,0.01,0.039,-0.029,-0.015,0.034,-0.078,-0.156,-0.112,-0.093,-0.088
2.764,-0.063,-0.059,0.005,0.063,-0.034,-0.029,0.034,-0.078,-0.156,-0.117,-0.088,-0.083
2.766,-0.063,-0.059,0.005,0.063,-0.034,-0.029,0.039,-0.073,-0.156,-0.112,-0.088,-0.078
2.768,-0.039,-0.034,0.005,0.039,-0.024,-0.015,0.049,-0.073,-0.151,-0.107,-0.093,-0.078
2.77,-0.049,-0.044,0.005,0.049,-0.029,-0.02,0.049,-0.068,-0.151,-0.107,-0.093,-0.078
2.772,-0.034,-0.029,0.005,0.034,-0.02,-0.015,0.044,-0.073,-0.146,-0.107,-0.083,-0.083
2.774,-0.039,-0.044,-0.005,0.044,-0.02,-0.024,0.044,-0.073,-0.146,-0.107,-0.083,-0.083
2.776,-0.024,-0.02,0.005,0.024,-0.015,-0.01,0.044,-0.078,-0.151,-0.107,-0.093,-0.088
2.778,-0.024,-0.029,-0.005,0.029,-0.01,-0.02,0.044,-0.083,-0.156,-0.107,-0.093,-0.093
2.78,-0.049,-0.054,-0.005,0.054,-0.024,-0.029,0.044,-0.093,-0.161,-0.117,-0.098,-0.098
2.782,-0.059,-0.063,-0.005,0.063,-0.029,-0.034,0.044,-0.083,-0.156,-0.107,-0.093,-0.098
2.784,-0.059,-0.049,0.01,0.054,-0.034,-0.02,0.044,-0.083,-0.156,-0.107,-0.093,-0.098
2.786,-0.063,-0.049,0.015,0.059,-0.039,-0.02,0.049,-0.083,-0.156,-0.107,-0.088,-0.098
2.788,-0.039,-0.044,-0.005,0.044,-0.02,-0.024,0.044,-0.083,-0.151,-0.102,-0.083,-0.093
2.79,-0.039,-0.054,-0.015,0.049,-0.015,-0.034,0.039,-0.088,-0.156,-0.107,-0.093,-0.098
2.792,-0.029,-0.039,-0.01,0.034,-0.01,-0.024,0.054,-0.073,-0.137,-0.098,-0.073,-0.083
2.794,-0.029,-0.029,0.0,0.029,-0.015,-0.015,0.054,-0.068,-0.137,-0.098,-0.078,-0.078
2.796,-0.039,-0.039,0.0,0.039,-0.02,-0.02,0.054,-0.068,-0.137,-0.093,-0.083,-0.083
2.798,-0.054,-0.049,0.005,0.054,-0.029,-0.024,0.049,-0.073,-0.156,-0.102,-0.088,-0.093
2.8,-0.059,-0.063,-0.005,0.063,-0.029,-0.034,0.034,-0.088,-0.166,-0.112,-0.098,-0.102
2.802,-0.059,-0.049,0.01,0.054,-0.034,-0.02,0.029,-0.088,-0.166,-0.117,-0.098,-0.112
2.804,-0.059,-0.039,0.02,0.049,-0.039,-0.01,0.039,-0.083,-0.161,-0.107,-0.093,-0.102
2.806,-0.049,-0.039,0.01,0.044,-0.029,-0.015,0.034,-0.083,-0.156,-0.112,-0.093,-0.102
2.808,-0.044,-0.034,0.01,0.039,-0.029,-0.015,0.034,-0.088,-0.156,-0.107,-0.093,-0.107
2.81,-0.039,-0.034,0.005,0.039,-0.024,-0.015,0.039,-0.083,-0.151,-0.102,-0.088,-0.098
2.812,-0.054,-0.039,0.015,0.049,-0.034,-0.015,0.034,-0.083,-0.151,-0.107,-0.088,-0.093
2.814,-0.059,-0.049,0.01,0.054,-0.034,-0.02,0.034,-0.078,-0.161,-0.112,-0.088,-0.098
2.816,-0.054,-0.044,0.01,0.049,-0.034,-0.02,0.034,-0.073,-0.156,-0.102,-0.088,-0.102
2.818,-0.039,-0.034,0.005,0.039,-0.024,-0.015,0.039,-0.068,-0.146,-0.102,-0.083,-0.102
2.82,-0.044,-0.054,-0.01,0.049,-0.02,-0.034,0.039,-0.063,-0.146,-0.107,-0.088,-0.102
2.822,-0.059,-0.059,0.0,0.059,-0.029,-0.029,0.029,-0.073,-0.151,-0.112,-0.093,-0.112
2.824,-0.073,-0.063,0.01,0.068,-0.044,-0.029,0.034,-0.073,-0.146,-0.107,-0.093,-0.102
2.826,-0.063,-0.044,0.02,0.054,-0.044,-0.015,0.034,-0.078,-0.146,-0.117,-0.098,-0.102
2.828,-0.034,-0.02,0.015,0.029,-0.024,-0.005,0.039,-0.078,-0.146,-0.107,-0.093,-0.098
2.83,-0.044,-0.034,0.01,0.039,-0.029,-0.015,0.044,-0.078,-0.156,-0.107,-0.093,-0.107
2.832,-0.054,-0.049,0.005,0.054,-0.029,-0.024,0.044,-0.073,-0.156,-0.107,-0.093,-0.107
2.834,-0.039,-0.039,0.0,0.039,-0.02,-0.02,0.034,-0.078,-0.171,-0.117,-0.098,-0.122
2.836,-0.024,-0.029,-0.005,0.029,-0.01,-0.02,0.039,-0.078,-0.161,-0.102,-0.088,-0.117
2.838,-0.029,-0.02,0.01,0.024,-0.02,-0.005,0.044,-0.073,-0.156,-0.107,-0.093,-0.112
2.84,-0.039,-0.029,0.01,0.034,-0.024,-0.01,0.044,-0.063,-0.146,-0.102,-0.088,-0.112
2.842,-0.01,0.0,0.01,0.005,-0.01,0.005,0.049,-0.059,-0.142,-0.093,-0.078,-0.102
2.844,-0.029,-0.024,0.005,0.029,-0.02,-0.01,0.039,-0.073,-0.151,-0.102,-0.093,-0.112
2.846,-0.044,-0.039,0.005,0.044,-0.024,-0.02,0.034,-0.078,-0.156,-0.107,-0.102,-0.122
2.848,-0.059,-0.039,0.02,0.049,-0.039,-0.01,0.029,-0.078,-0.151,-0.112,-0.112,-0.122
2.85,-0.063,-0.039,0.024,0.054,-0.044,-0.01,0.034,-0.073,-0.151,-0.107,-0.102,-0.127
2.852,-0.059,-0.044,0.015,0.054,-0.039,-0.015,0.034,-0.083,-0.161,-0.117,-0.102,-0.127
2.854,-0.059,-0.059,0.0,0.059,-0.029,-0.029,0.034,-0.083,-0.166,-0.122,-0.107,-0.132
2.856,-0.054,-0.068,-0.015,0.063,-0.02,-0.044,0.039,-0.078,-0.166,-0.122,-0.107,-0.127
2.858,-0.059,-0.073,-0.015,0.068,-0.024,-0.044,0.034,-0.078,-0.161,-0.117,-0.102,-0.127
2.86,-0.044,-0.059,-0.015,0.054,-0.015,-0.039,0.024,-0.088,-0.166,-0.122,-0.112,-0.137
2.862,-0.039,-0.044,-0.005,0.044,-0.02,-0.024,0.034,-0.073,-0.156,-0.107,-0.107,-0.132
2.864,-0.044,-0.039,0.005,0.044,-0.024,-0.02,0.034,-0.078,-0.166,-0.117,-0.112,-0.137
2.866,-0.054,-0.054,0.0,0.054,-0.029,-0.029,0.029,-0.083,-0.166,-0.127,-0.112,-0.137
2.868,-0.044,-0.049,-0.005,0.049,-0.02,-0.029,0.044,-0.063,-0.142,-0.112,-0.098,-0.122
2.87,-0.015,-0.01,0.005,0.015,-0.01,-0.005,0.054,-0.049,-0.137,-0.098,-0.088,-0.117
2.872,-0.02,-0.005,0.015,0.015,-0.02,0.005,0.049,-0.054,-0.137,-0.107,-0.088,-0.122
2.874,-0.044,-0.034,0.01,0.039,-0.029,-0.015,0.034,-0.078,-0.161,-0.127,-0.102,-0.132
2.876,-0.059,-0.059,0.0,0.059,-0.029,-0.029,0.015,-0.098,-0.185,-0.146,-0.127,-0.151
2.878,-0.044,-0.044,0.0,0.044,-0.024,-0.024,0.02,-0.098,-0.185,-0.142,-0.122,-0.146
2.88,-0.044,-0.044,0.0,0.044,-0.024,-0.024,0.024,-0.088,-0.181,-0.137,-0.117,-0.146
2.882,-0.044,-0.029,0.015,0.039,-0.029,-0.01,0.034,-0.068,-0.161,-0.117,-0.098,-0.137
2.884,-0.034,-0.01,0.024,0.024,-0.029,0.005,0.044,-0.063,-0.146,-0.107,-0.093,-0.132
2.886,-0.039,-0.039,0.0,0.039,-0.02,-0.02,0.039,-0.073,-0.151,-0.122,-0.102,-0.137
2.888,-0.044,-0.063,-0.02,0.054,-0.015,-0.044,0.029,-0.078,-0.156,-0.122,-0.112,-0.151
2.89,-0.044,-0.054,-0.01,0.049,-0.02,-0.034,0.029,-0.078,-0.156,-0.122,-0.107,-0.146
2.892,-0.034,-0.044,-0.01,0.039,-0.015,-0.029,0.039,-0.068,-0.151,-0.122,-0.102,-0.142
2.894,-0.049,-0.044,0.005,0.049,-0.029,-0.02,0.029,-0.073,-0.161,-0.122,-0.112,-0.151
2.896,-0.039,-0.039,0.0,0.039,-0.02,-0.02,0.029,-0.073,-0.161,-0.122,-0.112,-0.146
2.898,-0.029,-0.034,-0.005,0.034,-0.015,-0.02,0.034,-0.073,-0.161,-0.117,-0.107,-0.142
2.9,-0.029,-0.024,0.005,0.029,-0.02,-0.01,0.029,-0.068,-0.156,-0.122,-0.112,-0.151
2.902,-0.049,-0.039,0.01,0.044,-0.029,-0.015,0.029,-0.073,-0.161,-0.117,-0.112,-0.156
2.904,-0.049,-0.044,0.005,0.049,-0.029,-0.02,0.034,-0.068,-0.156,-0.117,-0.107,-0.151
2.906,-0.034,-0.034,0.0,0.034,-0.02,-0.02,0.034,-0.068,-0.156,-0.117,-0.107,-0.151
2.908,-0.029,-0.034,-0.005,0.034,-0.015,-0.02,0.044,-0.063,-0.146,-0.112,-0.102,-0.151
2.91,-0.015,-0.02,-0.005,0.02,-0.005,-0.015,0.044,-0.059,-0.146,-0.102,-0.093,-0.146
2.912,-0.034,-0.034,0.0,0.034,-0.02,-0.02,0.054,-0.059,-0.142,-0.107,-0.098,-0.146
