time,I,II,III,aVR,aVL,aVF,V1,V2,V3,V4,V5,V6
0.0,-0.059,-0.029,0.029,0.044,-0.044,0.0,0.146,0.137,0.146,0.068,-0.01,-0.088
0.002,-0.059,-0.029,0.029,0.044,-0.044,0.0,0.146,0.137,0.146,0.068,-0.01,-0.088
0.004,-0.059,-0.029,0.029,0.044,-0.044,0.0,0.146,0.137,0.146,0.068,-0.01,-0.088
0.006,-0.059,-0.029,0.029,0.044,-0.044,0.0,0.146,0.137,0.146,0.068,-0.01,-0.088
0.008,0.0,0.01,0.01,-0.005,-0.005,0.01,0.127,0.22,0.278,0.19,0.107,0.0
0.01,0.049,0.039,-0.01,-0.044,0.029,0.015,0.117,0.293,0.4,0.312,0.215,0.078
0.012,0.098,0.068,-0.029,-0.083,0.063,0.02,0.107,0.366,0.522,0.434,0.322,0.156
0.014,0.146,0.098,-0.049,-0.122,0.098,0.024,0.098,0.439,0.644,0.556,0.429,0.234
0.016,0.298,0.185,-0.112,-0.239,0.205,0.034,-0.01,0.478,0.8,0.766,0.659,0.429
0.018,0.439,0.264,-0.176,-0.351,0.307,0.044,-0.107,0.508,0.956,0.976,0.888,0.625
0.02,0.581,0.342,-0.239,-0.459,0.41,0.049,-0.205,0.537,1.113,1.186,1.118,0.82
0.022,0.722,0.42,-0.303,-0.571,0.512,0.059,-0.303,0.566,1.269,1.396,1.347,1.015
0.024,0.859,0.517,-0.342,-0.688,0.6,0.088,-0.41,0.532,1.327,1.518,1.503,1.181
0.026,0.986,0.615,-0.371,-0.8,0.678,0.122,-0.517,0.498,1.376,1.63,1.649,1.337
0.028,1.113,0.712,-0.4,-0.913,0.756,0.156,-0.625,0.464,1.425,1.742,1.796,1.493
0.03,1.24,0.81,-0.429,-1.025,0.834,0.19,-0.732,0.429,1.474,1.854,1.942,1.649
0.032,1.161,0.786,-0.376,-0.971,0.766,0.205,-0.747,0.176,1.088,1.488,1.654,1.503
0.034,1.093,0.771,-0.322,-0.932,0.708,0.224,-0.752,-0.078,0.703,1.132,1.376,1.357
0.036,1.025,0.756,-0.268,-0.888,0.644,0.244,-0.756,-0.332,0.317,0.776,1.098,1.21
0.038,0.956,0.742,-0.215,-0.849,0.586,0.264,-0.761,-0.586,-0.068,0.42,0.82,1.064
0.04,0.81,0.659,-0.151,-0.732,0.478,0.254,-0.698,-0.673,-0.244,0.205,0.615,0.888
0.042,0.673,0.586,-0.088,-0.63,0.381,0.249,-0.644,-0.761,-0.41,0.0,0.41,0.722
0.044,0.537,0.512,-0.024,-0.522,0.278,0.244,-0.59,-0.849,-0.576,-0.205,0.205,0.556
0.046,0.4,0.439,0.039,-0.42,0.181,0.239,-0.537,-0.937,-0.742,-0.41,0.0,0.39
0.048,0.322,0.346,0.024,-0.332,0.146,0.185,-0.508,-0.869,-0.712,-0.429,-0.078,0.264
0.05,0.254,0.254,0.0,-0.254,0.127,0.127,-0.478,-0.8,-0.683,-0.449,-0.156,0.146
0.052,0.185,0.161,-0.024,-0.171,0.102,0.068,-0.449,-0.732,-0.654,-0.468,-0.234,0.029
0.054,0.117,0.068,-0.049,-0.093,0.083,0.01,-0.42,-0.664,-0.625,-0.488,-0.312,-0.088
0.056,0.088,0.039,-0.049,-0.063,0.068,-0.005,-0.376,-0.586,-0.547,-0.439,-0.298,-0.112
0.058,0.068,0.02,-0.049,-0.044,0.059,-0.015,-0.332,-0.508,-0.478,-0.4,-0.283,-0.127
0.06,0.049,0.0,-0.049,-0.024,0.049,-0.024,-0.288,-0.429,-0.41,-0.361,-0.268,-0.142
0.062,0.029,-0.02,-0.049,-0.005,0.039,-0.034,-0.244,-0.351,-0.342,-0.322,-0.254,-0.156
0.064,0.015,-0.024,-0.039,0.005,0.024,-0.034,-0.185,-0.288,-0.273,-0.278,-0.229,-0.146
0.066,0.0,-0.029,-0.029,0.015,0.015,-0.029,-0.137,-0.234,-0.215,-0.234,-0.205,-0.146
0.068,-0.015,-0.034,-0.02,0.024,0.0,-0.029,-0.088,-0.181,-0.156,-0.19,-0.181,-0.146
0.07,-0.029,-0.039,-0.01,0.034,-0.01,-0.024,-0.039,-0.127,-0.098,-0.146,-0.156,-0.146
0.072,-0.039,-0.039,0.0,0.039,-0.02,-0.02,-0.029,-0.107,-0.073,-0.127,-0.142,-0.132
0.074,-0.039,-0.039,0.0,0.039,-0.02,-0.02,-0.02,-0.098,-0.059,-0.107,-0.127,-0.127
0.076,-0.039,-0.039,0.0,0.039,-0.02,-0.02,-0.01,-0.088,-0.044,-0.088,-0.112,-0.122
0.078,-0.039,-0.039,0.0,0.039,-0.02,-0.02,0.0,-0.078,-0.029,-0.068,-0.098,-0.117
0.08,-0.049,-0.039,0.01,0.044,-0.029,-0.015,0.0,-0.083,-0.029,-0.073,-0.102,-0.122
0.082,-0.049,-0.039,0.01,0.044,-0.029,-0.015,0.0,-0.088,-0.029,-0.078,-0.107,-0.127
0.084,-0.049,-0.039,0.01,0.044,-0.029,-0.015,0.0,-0.093,-0.029,-0.083,-0.112,-0.132
0.086,-0.049,-0.039,0.01,0.044,-0.029,-0.015,0.0,-0.098,-0.029,-0.088,-0.117,-0.137
0.088,-0.054,-0.039,0.015,0.049,-0.034,-0.015,0.015,-0.083,-0.024,-0.083,-0.107,-0.137
0.09,-0.059,-0.039,0.02,0.049,-0.039,-0.01,0.02,-0.078,-0.02,-0.078,-0.107,-0.137
0.092,-0.063,-0.039,0.024,0.054,-0.044,-0.01,0.024,-0.073,-0.015,-0.073,-0.107,-0.137
0.094,-0.068,-0.039,0.029,0.054,-0.049,-0.005,0.029,-0.068,-0.01,-0.068,-0.107,-0.137
0.096,-0.059,-0.039,0.02,0.049,-0.039,-0.01,0.029,-0.068,0.0,-0.059,-0.098,-0.127
0.098,-0.059,-0.039,0.02,0.049,-0.039,-0.01,0.029,-0.068,0.0,-0.059,-0.098,-0.127
0.1,-0.059,-0.039,0.02,0.049,-0.039,-0.01,0.029,-0.068,0.0,-0.059,-0.098,-0.127
0.102,-0.059,-0.039,0.02,0.049,-0.039,-0.01,0.029,-0.068,0.0,-0.059,-0.098,-0.127
0.104,-0.059,-0.039,0.02,0.049,-0.039,-0.01,0.029,-0.059,0.01,-0.049,-0.098,-0.127
0.106,-0.059,-0.039,0.02,0.049,-0.039,-0.01,0.029,-0.059,0.01,-0.049,-0.098,-0.127
0.108,-0.059,-0.039,0.02,0.049,-0.039,-0.01,0.029,-0.059,0.01,-0.049,-0.098,-0.127
0.11,-0.059,-0.039,0.02,0.049,-0.039,-0.01,0.029,-0.059,0.01,-0.049,-0.098,-0.127
0.112,-0.068,-0.039,0.029,0.054,-0.049,-0.005,0.039,-0.049,0.01,-0.049,-0.088,-0.127
0.114,-0.068,-0.039,0.029,0.054,-0.049,-0.005,0.039,-0.049,0.01,-0.049,-0.088,-0.127
0.116,-0.068,-0.039,0.029,0.054,-0.049,-0.005,0.039,-0.049,0.01,-0.049,-0.088,-0.127
0.118,-0.068,-0.039,0.029,0.054,-0.049,-0.005,0.039,-0.049,0.01,-0.049,-0.088,-0.127
0.12,-0.068,-0.039,0.029,0.054,-0.049,-0.005,0.039,-0.049,0.01,-0.049,-0.088,-0.137
0.122,-0.068,-0.039,0.029,0.054,-0.049,-0.005,0.039,-0.049,0.01,-0.049,-0.088,-0.137
0.124,-0.068,-0.039,0.029,0.054,-0.049,-0.005,0.039,-0.049,0.01,-0.049,-0.088,-0.137
0.126,-0.068,-0.039,0.029,0.054,-0.049,-0.005,0.039,-0.049,0.01,-0.049,-0.088,-0.137
0.128,-0.068,-0.049,0.02,0.059,-0.044,-0.015,0.039,-0.049,0.02,-0.049,-0.088,-0.137
0.13,-0.068,-0.049,0.02,0.059,-0.044,-0.015,0.039,-0.049,0.02,-0.049,-0.088,-0.137
0.132,-0.068,-0.049,0.02,0.059,-0.044,-0.015,0.039,-0.049,0.02,-0.049,-0.088,-0.137
0.134,-0.068,-0.049,0.02,0.059,-0.044,-0.015,0.039,-0.049,0.02,-0.049,-0.088,-0.137
0.136,-0.063,-0.039,0.024,0.054,-0.044,-0.01,0.029,-0.059,0.02,-0.049,-0.078,-0.137
0.138,-0.059,-0.039,0.02,0.049,-0.039,-0.01,0.029,-0.059,0.02,-0.049,-0.078,-0.137
0.14,-0.054,-0.039,0.015,0.049,-0.034,-0.015,0.029,-0.059,0.02,-0.049,-0.078,-0.137
0.142,-0.049,-0.039,0.01,0.044,-0.029,-0.015,0.029,-0.059,0.02,-0.049,-0.078,-0.137
0.144,-0.059,-0.049,0.01,0.054,-0.034,-0.02,0.039,-0.054,0.029,-0.044,-0.073,-0.132
0.146,-0.059,-0.049,0.01,0.054,-0.034,-0.02,0.039,-0.049,0.029,-0.039,-0.068,-0.127
0.148,-0.059,-0.049,0.01,0.054,-0.034,-0.02,0.039,-0.044,0.029,-0.034,-0.063,-0.122
0.15,-0.059,-0.049,0.01,0.054,-0.034,-0.02,0.039,-0.039,0.029,-0.029,-0.059,-0.117
0.152,-0.059,-0.039,0.02,0.049,-0.039,-0.01,0.039,-0.049,0.029,-0.039,-0.068,-0.107
0.154,-0.059,-0.039,0.02,0.049,-0.039,-0.01,0.039,-0.049,0.029,-0.039,-0.068,-0.107
0.156,-0.059,-0.039,0.02,0.049,-0.039,-0.01,0.039,-0.049,0.029,-0.039,-0.068,-0.107
0.158,-0.059,-0.039,0.02,0.049,-0.039,-0.01,0.039,-0.049,0.029,-0.039,-0.068,-0.107
0.16,-0.059,-0.029,0.029,0.044,-0.044,0.0,0.039,-0.039,0.02,-0.039,-0.068,-0.117
0.162,-0.059,-0.029,0.029,0.044,-0.044,0.0,0.039,-0.039,0.02,-0.039,-0.068,-0.117
0.164,-0.059,-0.029,0.029,0.044,-0.044,0.0,0.039,-0.039,0.02,-0.039,-0.068,-0.117
0.166,-0.059,-0.029,0.029,0.044,-0.044,0.0,0.039,-0.039,0.02,-0.039,-0.068,-0.117
0.168,-0.059,-0.039,0.02,0.049,-0.039,-0.01,0.039,-0.029,0.029,-0.039,-0.068,-0.127
0.17,-0.059,-0.039,0.02,0.049,-0.039,-0.01,0.039,-0.029,0.029,-0.039,-0.068,-0.127
0.172,-0.059,-0.039,0.02,0.049,-0.039,-0.01,0.039,-0.029,0.029,-0.039,-0.068,-0.127
0.174,-0.059,-0.039,0.02,0.049,-0.039,-0.01,0.039,-0.029,0.029,-0.039,-0.068,-0.127
0.176,-0.049,-0.039,0.01,0.044,-0.029,-0.015,0.039,-0.029,0.039,-0.039,-0.068,-0.117
0.178,-0.049,-0.039,0.01,0.044,-0.029,-0.015,0.039,-0.029,0.039,-0.039,-0.068,-0.117
0.18,-0.049,-0.039,0.01,0.044,-0.029,-0.015,0.039,-0.029,0.039,-0.039,-0.068,-0.117
0.182,-0.049,-0.039,0.01,0.044,-0.029,-0.015,0.039,-0.029,0.039,-0.039,-0.068,-0.117
0.184,-0.059,-0.039,0.02,0.049,-0.039,-0.01,0.039,-0.02,0.039,-0.039,-0.059,-0.117
0.186,-0.059,-0.039,0.02,0.049,-0.039,-0.01,0.039,-0.02,0.039,-0.039,-0.059,-0.117
0.188,-0.059,-0.039,0.02,0.049,-0.039,-0.01,0.039,-0.02,0.039,-0.039,-0.059,-0.117
0.19,-0.059,-0.039,0.02,0.049,-0.039,-0.01,0.039,-0.02,0.039,-0.039,-0.059,-0.117
0.192,-0.059,-0.029,0.029,0.044,-0.044,0.0,0.029,-0.02,0.039,-0.039,-0.068,-0.117
0.194,-0.059,-0.029,0.029,0.044,-0.044,0.0,0.029,-0.02,0.039,-0.039,-0.068,-0.117
0.196,-0.059,-0.029,0.029,0.044,-0.044,0.0,0.029,-0.02,0.039,-0.039,-0.068,-0.117
0.198,-0.059,-0.029,0.029,0.044,-0.044,0.0,0.029,-0.02,0.039,-0.039,-0.068,-0.117
0.2,-0.059,-0.039,0.02,0.049,-0.039,-0.01,0.029,-0.02,0.039,-0.049,-0.078,-0.117
0.202,-0.059,-0.039,0.02,0.049,-0.039,-0.01,0.029,-0.02,0.039,-0.049,-0.078,-0.117
0.204,-0.059,-0.039,0.02,0.049,-0.039,-0.01,0.029,-0.02,0.039,-0.049,-0.078,-0.117
0.206,-0.059,-0.039,0.02,0.049,-0.039,-0.01,0.029,-0.02,0.039,-0.049,-0.078,-0.117
0.208,-0.059,-0.049,0.01,0.054,-0.034,-0.02,0.034,-0.029,0.049,-0.039,-0.078,-0.107
0.21,-0.059,-0.049,0.01,0.054,-0.034,-0.02,0.039,-0.029,0.049,-0.039,-0.078,-0.107
0.212,-0.059,-0.049,0.01,0.054,-0.034,-0.02,0.044,-0.029,0.049,-0.039,-0.078,-0.107
0.214,-0.059,-0.049,0.01,0.054,-0.034,-0.02,0.049,-0.029,0.049,-0.039,-0.078,-0.107
0.216,-0.049,-0.044,0.005,0.049,-0.029,-0.02,0.039,-0.02,0.039,-0.039,-0.078,-0.098
0.218,-0.049,-0.039,0.01,0.044,-0.029,-0.015,0.039,-0.02,0.039,-0.039,-0.078,-0.098
0.22,-0.049,-0.034,0.015,0.044,-0.034,-0.01,0.039,-0.02,0.039,-0.039,-0.078,-0.098
0.222,-0.049,-0.029,0.02,0.039,-0.034,-0.005,0.039,-0.02,0.039,-0.039,-0.078,-0.098
0.224,-0.059,-0.029,0.029,0.044,-0.044,0.0,0.039,-0.02,0.049,-0.039,-0.078,-0.098
0.226,-0.059,-0.029,0.029,0.044,-0.044,0.0,0.039,-0.02,0.049,-0.039,-0.078,-0.098
0.228,-0.059,-0.029,0.029,0.044,-0.044,0.0,0.039,-0.02,0.049,-0.039,-0.078,-0.098
0.23,-0.059,-0.029,0.029,0.044,-0.044,0.0,0.039,-0.02,0.049,-0.039,-0.078,-0.098
0.232,-0.059,-0.034,0.024,0.049,-0.044,-0.005,0.049,-0.01,0.049,-0.039,-0.088,-0.098
0.234,-0.059,-0.039,0.02,0.049,-0.039,-0.01,0.049,-0.01,0.049,-0.039,-0.088,-0.098
0.236,-0.059,-0.044,0.015,0.054,-0.039,-0.015,0.049,-0.01,0.049,-0.039,-0.088,-0.098
0.238,-0.059,-0.049,0.01,0.054,-0.034,-0.02,0.049,-0.01,0.049,-0.039,-0.088,-0.098
0.24,-0.059,-0.049,0.01,0.054,-0.034,-0.02,0.049,0.0,0.059,-0.039,-0.078,-0.098
0.242,-0.059,-0.049,0.01,0.054,-0.034,-0.02,0.049,0.0,0.059,-0.039,-0.078,-0.098
0.244,-0.059,-0.049,0.01,0.054,-0.034,-0.02,0.049,0.0,0.059,-0.039,-0.078,-0.098
0.246,-0.059,-0.049,0.01,0.054,-0.034,-0.02,0.049,0.0,0.059,-0.039,-0.078,-0.098
0.248,-0.059,-0.049,0.01,0.054,-0.034,-0.02,0.039,0.01,0.068,-0.029,-0.078,-0.088
0.25,-0.059,-0.049,0.01,0.054,-0.034,-0.02,0.039,0.01,0.068,-0.029,-0.078,-0.088
0.252,-0.059,-0.049,0.01,0.054,-0.034,-0.02,0.039,0.01,0.068,-0.029,-0.078,-0.088
0.254,-0.059,-0.049,0.01,0.054,-0.034,-0.02,0.039,0.01,0.068,-0.029,-0.078,-0.088
0.256,-0.054,-0.039,0.015,0.049,-0.034,-0.015,0.039,0.01,0.068,-0.029,-0.078,-0.088
0.258,-0.049,-0.039,0.01,0.044,-0.029,-0.015,0.039,0.01,0.068,-0.029,-0.078,-0.088
0.26,-0.044,-0.039,0.005,0.044,-0.024,-0.02,0.039,0.01,0.068,-0.029,-0.078,-0.088
0.262,-0.039,-0.039,0.0,0.039,-0.02,-0.02,0.039,0.01,0.068,-0.029,-0.078,-0.088
0.264,-0.049,-0.039,0.01,0.044,-0.029,-0.015,0.049,0.015,0.078,-0.029,-0.078,-0.088
0.266,-0.049,-0.039,0.01,0.044,-0.029,-0.015,0.049,0.02,0.078,-0.029,-0.078,-0.088
0.268,-0.049,-0.039,0.01,0.044,-0.029,-0.015,0.049,0.024,0.078,-0.029,-0.078,-0.088
0.27,-0.049,-0.039,0.01,0.044,-0.029,-0.015,0.049,0.029,0.078,-0.029,-0.078,-0.088
0.272,-0.039,-0.039,0.0,0.039,-0.02,-0.02,0.049,0.034,0.078,-0.029,-0.078,-0.088
0.274,-0.039,-0.039,0.0,0.039,-0.02,-0.02,0.049,0.039,0.078,-0.029,-0.078,-0.088
0.276,-0.039,-0.039,0.0,0.039,-0.02,-0.02,0.049,0.044,0.078,-0.029,-0.078,-0.088
0.278,-0.039,-0.039,0.0,0.039,-0.02,-0.02,0.049,0.049,0.078,-0.029,-0.078,-0.088
0.28,-0.039,-0.029,0.01,0.034,-0.024,-0.01,0.049,0.059,0.088,-0.039,-0.088,-0.088
0.282,-0.039,-0.029,0.01,0.034,-0.024,-0.01,0.049,0.059,0.088,-0.039,-0.088,-0.088
0.284,-0.039,-0.029,0.01,0.034,-0.024,-0.01,0.049,0.059,0.088,-0.039,-0.088,-0.088
0.286,-0.039,-0.029,0.01,0.034,-0.024,-0.01,0.049,0.059,0.088,-0.039,-0.088,-0.088
0.288,-0.029,-0.02,0.01,0.024,-0.02,-0.005,0.039,0.068,0.098,-0.039,-0.098,-0.088
0.29,-0.029,-0.02,0.01,0.024,-0.02,-0.005,0.039,0.068,0.098,-0.039,-0.098,-0.088
0.292,-0.029,-0.02,0.01,0.024,-0.02,-0.005,0.039,0.068,0.098,-0.039,-0.098,-0.088
0.294,-0.029,-0.02,0.01,0.024,-0.02,-0.005,0.039,0.068,0.098,-0.039,-0.098,-0.088
0.296,-0.024,-0.015,0.01,0.02,-0.02,-0.005,0.029,0.068,0.098,-0.049,-0.107,-0.088
0.298,-0.02,-0.01,0.01,0.015,-0.015,0.0,0.029,0.068,0.098,-0.049,-0.107,-0.088
0.3,-0.015,-0.005,0.01,0.01,-0.015,0.0,0.029,0.068,0.098,-0.049,-0.107,-0.088
0.302,-0.01,0.0,0.01,0.005,-0.01,0.005,0.029,0.068,0.098,-0.049,-0.107,-0.088
0.304,-0.01,0.0,0.01,0.005,-0.01,0.005,0.02,0.078,0.098,-0.039,-0.098,-0.078
0.306,-0.01,0.0,0.01,0.005,-0.01,0.005,0.02,0.078,0.098,-0.039,-0.098,-0.078
0.308,-0.01,0.0,0.01,0.005,-0.01,0.005,0.02,0.078,0.098,-0.039,-0.098,-0.078
0.31,-0.01,0.0,0.01,0.005,-0.01,0.005,0.02,0.078,0.098,-0.039,-0.098,-0.078
0.312,-0.005,0.01,0.015,0.0,-0.01,0.01,0.01,0.088,0.088,-0.039,-0.088,-0.068
0.314,0.0,0.01,0.01,-0.005,-0.005,0.01,0.01,0.088,0.088,-0.039,-0.088,-0.068
0.316,0.005,0.01,0.005,-0.005,0.0,0.005,0.01,0.088,0.088,-0.039,-0.088,-0.068
0.318,0.01,0.01,0.0,-0.01,0.005,0.005,0.01,0.088,0.088,-0.039,-0.088,-0.068
0.32,0.02,0.02,0.0,-0.02,0.01,0.01,0.0,0.088,0.088,-0.039,-0.088,-0.059
0.322,0.02,0.02,0.0,-0.02,0.01,0.01,0.0,0.088,0.088,-0.039,-0.088,-0.059
0.324,0.02,0.02,0.0,-0.02,0.01,0.01,0.0,0.088,0.088,-0.039,-0.088,-0.059
0.326,0.02,0.02,0.0,-0.02,0.01,0.01,0.0,0.088,0.088,-0.039,-0.088,-0.059
0.328,0.024,0.024,0.0,-0.024,0.01,0.01,-0.01,0.078,0.098,-0.029,-0.078,-0.049
0.33,0.029,0.029,0.0,-0.029,0.015,0.015,-0.01,0.078,0.098,-0.029,-0.078,-0.049
0.332,0.034,0.034,0.0,-0.034,0.015,0.015,-0.01,0.078,0.098,-0.029,-0.078,-0.049
0.334,0.039,0.039,0.0,-0.039,0.02,0.02,-0.01,0.078,0.098,-0.029,-0.078,-0.049
0.336,0.044,0.049,0.005,-0.044,0.02,0.024,-0.02,0.078,0.102,-0.024,-0.073,-0.034
0.338,0.049,0.049,0.0,-0.049,0.024,0.024,-0.02,0.078,0.107,-0.02,-0.068,-0.029
0.34,0.054,0.049,-0.005,-0.049,0.029,0.02,-0.02,0.078,0.112,-0.015,-0.063,-0.024
0.342,0.059,0.049,-0.01,-0.054,0.034,0.02,-0.02,0.078,0.117,-0.01,-0.059,-0.02
0.344,0.059,0.049,-0.01,-0.054,0.034,0.02,-0.029,0.078,0.127,0.005,-0.044,-0.005
0.346,0.059,0.049,-0.01,-0.054,0.034,0.02,-0.029,0.078,0.127,0.01,-0.039,0.0
0.348,0.059,0.049,-0.01,-0.054,0.034,0.02,-0.029,0.078,0.127,0.015,-0.034,0.005
0.35,0.059,0.049,-0.01,-0.054,0.034,0.02,-0.029,0.078,0.127,0.02,-0.029,0.01
0.352,0.059,0.044,-0.015,-0.049,0.034,0.015,-0.02,0.073,0.132,0.024,-0.024,0.015
0.354,0.059,0.039,-0.02,-0.049,0.039,0.01,-0.02,0.068,0.137,0.029,-0.02,0.02
0.356,0.059,0.034,-0.024,-0.044,0.039,0.005,-0.02,0.063,0.142,0.034,-0.015,0.024
0.358,0.059,0.029,-0.029,-0.044,0.044,0.0,-0.02,0.059,0.146,0.039,-0.01,0.029
0.36,0.049,0.02,-0.029,-0.034,0.039,-0.005,-0.01,0.054,0.137,0.049,0.0,0.029
0.362,0.049,0.02,-0.029,-0.034,0.039,-0.005,-0.01,0.049,0.137,0.049,0.0,0.029
0.364,0.049,0.02,-0.029,-0.034,0.039,-0.005,-0.01,0.044,0.137,0.049,0.0,0.029
0.366,0.049,0.02,-0.029,-0.034,0.039,-0.005,-0.01,0.039,0.137,0.049,0.0,0.029
0.368,0.039,0.015,-0.024,-0.024,0.029,-0.005,-0.005,0.034,0.122,0.039,-0.01,0.02
0.37,0.039,0.01,-0.029,-0.024,0.034,-0.01,0.0,0.029,0.117,0.039,-0.01,0.02
0.372,0.039,0.005,-0.034,-0.02,0.034,-0.015,0.005,0.024,0.112,0.039,-0.01,0.02
0.374,0.039,0.0,-0.039,-0.02,0.039,-0.02,0.01,0.02,0.107,0.039,-0.01,0.02
0.376,0.029,-0.005,-0.034,-0.01,0.029,-0.02,0.02,0.015,0.098,0.029,-0.02,0.01
0.378,0.029,-0.01,-0.039,-0.01,0.034,-0.024,0.02,0.01,0.098,0.029,-0.02,0.01
0.38,0.029,-0.015,-0.044,-0.005,0.034,-0.029,0.02,0.005,0.098,0.029,-0.02,0.01
0.382,0.029,-0.02,-0.049,-0.005,0.039,-0.034,0.02,0.0,0.098,0.029,-0.02,0.01
0.384,0.024,-0.029,-0.054,0.005,0.039,-0.044,0.02,-0.005,0.093,0.024,-0.024,0.005
0.386,0.02,-0.029,-0.049,0.005,0.034,-0.039,0.02,-0.01,0.088,0.02,-0.029,0.0
0.388,0.015,-0.029,-0.044,0.01,0.029,-0.039,0.02,-0.015,0.083,0.015,-0.034,-0.005
0.39,0.01,-0.029,-0.039,0.01,0.024,-0.034,0.02,-0.02,0.078,0.01,-0.039,-0.01
0.392,0.01,-0.034,-0.044,0.015,0.024,-0.039,0.02,-0.029,0.073,0.0,-0.049,-0.01
0.394,0.01,-0.039,-0.049,0.015,0.029,-0.044,0.02,-0.029,0.068,0.0,-0.049,-0.01
0.396,0.01,-0.044,-0.054,0.02,0.029,-0.049,0.02,-0.029,0.063,0.0,-0.049,-0.01
0.398,0.01,-0.049,-0.059,0.02,0.034,-0.054,0.02,-0.029,0.059,0.0,-0.049,-0.01
0.4,0.0,-0.059,-0.059,0.029,0.029,-0.059,0.029,-0.029,0.059,0.0,-0.059,-0.02
0.402,0.0,-0.059,-0.059,0.029,0.029,-0.059,0.029,-0.029,0.059,0.0,-0.059,-0.02
0.404,0.0,-0.059,-0.059,0.029,0.029,-0.059,0.029,-0.029,0.059,0.0,-0.059,-0.02
0.406,0.0,-0.059,-0.059,0.029,0.029,-0.059,0.029,-0.029,0.059,0.0,-0.059,-0.02
0.408,-0.01,-0.059,-0.049,0.034,0.02,-0.054,0.029,-0.039,0.059,-0.01,-0.059,-0.029
0.41,-0.01,-0.059,-0.049,0.034,0.02,-0.054,0.029,-0.039,0.059,-0.01,-0.059,-0.029
0.412,-0.01,-0.059,-0.049,0.034,0.02,-0.054,0.029,-0.039,0.059,-0.01,-0.059,-0.029
0.414,-0.01,-0.059,-0.049,0.034,0.02,-0.054,0.029,-0.039,0.059,-0.01,-0.059,-0.029
0.416,0.0,-0.059,-0.059,0.029,0.029,-0.059,0.029,-0.039,0.059,0.0,-0.049,-0.024
0.418,0.0,-0.059,-0.059,0.029,0.029,-0.059,0.029,-0.039,0.059,0.0,-0.049,-0.02
0.42,0.0,-0.059,-0.059,0.029,0.029,-0.059,0.029,-0.039,0.059,0.0,-0.049,-0.015
0.422,0.0,-0.059,-0.059,0.029,0.029,-0.059,0.029,-0.039,0.059,0.0,-0.049,-0.01
0.424,-0.005,-0.059,-0.054,0.034,0.024,-0.059,0.039,-0.039,0.059,-0.01,-0.049,-0.02
0.426,-0.01,-0.059,-0.049,0.034,0.02,-0.054,0.039,-0.039,0.059,-0.01,-0.049,-0.02
0.428,-0.015,-0.059,-0.044,0.039,0.015,-0.054,0.039,-0.039,0.059,-0.01,-0.049,-0.02
0.43,-0.02,-0.059,-0.039,0.039,0.01,-0.049,0.039,-0.039,0.059,-0.01,-0.049,-0.02
0.432,-0.01,-0.059,-0.049,0.034,0.02,-0.054,0.029,-0.049,0.049,-0.02,-0.054,-0.029
0.434,-0.01,-0.059,-0.049,0.034,0.02,-0.054,0.029,-0.049,0.049,-0.02,-0.059,-0.029
0.436,-0.01,-0.059,-0.049,0.034,0.02,-0.054,0.029,-0.049,0.049,-0.02,-0.063,-0.029
0.438,-0.01,-0.059,-0.049,0.034,0.02,-0.054,0.029,-0.049,0.049,-0.02,-0.068,-0.029
0.44,-0.02,-0.068,-0.049,0.044,0.015,-0.059,0.029,-0.049,0.059,-0.01,-0.059,-0.02
0.442,-0.02,-0.068,-0.049,0.044,0.015,-0.059,0.029,-0.049,0.059,-0.01,-0.059,-0.02
0.444,-0.02,-0.068,-0.049,0.044,0.015,-0.059,0.029,-0.049,0.059,-0.01,-0.059,-0.02
0.446,-0.02,-0.068,-0.049,0.044,0.015,-0.059,0.029,-0.049,0.059,-0.01,-0.059,-0.02
0.448,-0.02,-0.059,-0.039,0.039,0.01,-0.049,0.029,-0.049,0.059,-0.02,-0.059,-0.029
0.45,-0.02,-0.059,-0.039,0.039,0.01,-0.049,0.029,-0.049,0.059,-0.02,-0.059,-0.029
0.452,-0.02,-0.059,-0.039,0.039,0.01,-0.049,0.029,-0.049,0.059,-0.02,-0.059,-0.029
0.454,-0.02,-0.059,-0.039,0.039,0.01,-0.049,0.029,-0.049,0.059,-0.02,-0.059,-0.029
0.456,-0.01,-0.068,-0.059,0.039,0.024,-0.063,0.029,-0.049,0.059,-0.02,-0.059,-0.029
0.458,-0.01,-0.068,-0.059,0.039,0.024,-0.063,0.029,-0.049,0.059,-0.02,-0.059,-0.029
0.46,-0.01,-0.068,-0.059,0.039,0.024,-0.063,0.029,-0.049,0.059,-0.02,-0.059,-0.029
0.462,-0.01,-0.068,-0.059,0.039,0.024,-0.063,0.029,-0.049,0.059,-0.02,-0.059,-0.029
0.464,-0.02,-0.068,-0.049,0.044,0.015,-0.059,0.039,-0.049,0.068,-0.02,-0.059,-0.029
0.466,-0.02,-0.068,-0.049,0.044,0.015,-0.059,0.039,-0.049,0.068,-0.02,-0.059,-0.029
0.468,-0.02,-0.068,-0.049,0.044,0.015,-0.059,0.039,-0.049,0.068,-0.02,-0.059,-0.029
0.47,-0.02,-0.068,-0.049,0.044,0.015,-0.059,0.039,-0.049,0.068,-0.02,-0.059,-0.029
0.472,-0.01,-0.063,-0.054,0.039,0.02,-0.059,0.029,-0.059,0.068,-0.02,-0.068,-0.039
0.474,-0.01,-0.059,-0.049,0.034,0.02,-0.054,0.029,-0.059,0.068,-0.02,-0.068,-0.039
0.476,-0.01,-0.054,-0.044,0.034,0.015,-0.049,0.029,-0.059,0.068,-0.02,-0.068,-0.039
0.478,-0.01,-0.049,-0.039,0.029,0.015,-0.044,0.029,-0.059,0.068,-0.02,-0.068,-0.039
0.48,-0.02,-0.049,-0.029,0.034,0.005,-0.039,0.039,-0.059,0.073,-0.02,-0.059,-0.029
0.482,-0.02,-0.049,-0.029,0.034,0.005,-0.039,0.039,-0.059,0.078,-0.02,-0.059,-0.029
0.484,-0.02,-0.049,-0.029,0.034,0.005,-0.039,0.039,-0.059,0.083,-0.02,-0.059,-0.029
0.486,-0.02,-0.049,-0.029,0.034,0.005,-0.039,0.039,-0.059,0.088,-0.02,-0.059,-0.029
0.488,-0.02,-0.049,-0.029,0.034,0.005,-0.039,0.029,-0.059,0.088,-0.02,-0.068,-0.039
0.49,-0.02,-0.049,-0.029,0.034,0.005,-0.039,0.029,-0.059,0.088,-0.02,-0.068,-0.039
0.492,-0.02,-0.049,-0.029,0.034,0.005,-0.039,0.029,-0.059,0.088,-0.02,-0.068,-0.039
0.494,-0.02,-0.049,-0.029,0.034,0.005,-0.039,0.029,-0.059,0.088,-0.02,-0.068,-0.039
0.496,-0.01,-0.049,-0.039,0.029,0.015,-0.044,0.02,-0.059,0.088,-0.02,-0.059,-0.039
0.498,-0.01,-0.049,-0.039,0.029,0.015,-0.044,0.02,-0.059,0.088,-0.02,-0.059,-0.039
0.5,-0.01,-0.049,-0.039,0.029,0.015,-0.044,0.02,-0.059,0.088,-0.02,-0.059,-0.039
0.502,-0.01,-0.049,-0.039,0.029,0.015,-0.044,0.02,-0.059,0.088,-0.02,-0.059,-0.039
0.504,-0.01,-0.039,-0.029,0.024,0.01,-0.034,0.02,-0.059,0.098,-0.01,-0.049,-0.029
0.506,-0.01,-0.039,-0.029,0.024,0.01,-0.034,0.02,-0.059,0.098,-0.01,-0.049,-0.029
0.508,-0.01,-0.039,-0.029,0.024,0.01,-0.034,0.02,-0.059,0.098,-0.01,-0.049,-0.029
0.51,-0.01,-0.039,-0.029,0.024,0.01,-0.034,0.02,-0.059,0.098,-0.01,-0.049,-0.029
0.512,-0.01,-0.039,-0.029,0.024,0.01,-0.034,0.02,-0.059,0.107,0.0,-0.049,-0.029
0.514,-0.01,-0.039,-0.029,0.024,0.01,-0.034,0.02,-0.059,0.107,0.0,-0.049,-0.029
0.516,-0.01,-0.039,-0.029,0.024,0.01,-0.034,0.02,-0.059,0.107,0.0,-0.049,-0.029
0.518,-0.01,-0.039,-0.029,0.024,0.01,-0.034,0.02,-0.059,0.107,0.0,-0.049,-0.029
0.52,-0.01,-0.039,-0.029,0.024,0.01,-0.034,0.02,-0.049,0.117,0.01,-0.039,-0.029
0.522,-0.01,-0.039,-0.029,0.024,0.01,-0.034,0.02,-0.049,0.117,0.01,-0.039,-0.029
0.524,-0.01,-0.039,-0.029,0.024,0.01,-0.034,0.02,-0.049,0.117,0.01,-0.039,-0.029
0.526,-0.01,-0.039,-0.029,0.024,0.01,-0.034,0.02,-0.049,0.117,0.01,-0.039,-0.029
0.528,-0.01,-0.029,-0.02,0.02,0.005,-0.024,0.01,-0.049,0.127,0.01,-0.039,-0.029
0.53,-0.01,-0.029,-0.02,0.02,0.005,-0.024,0.01,-0.049,0.127,0.01,-0.039,-0.029
0.532,-0.01,-0.029,-0.02,0.02,0.005,-0.024,0.01,-0.049,0.127,0.01,-0.039,-0.029
0.534,-0.01,-0.029,-0.02,0.02,0.005,-0.024,0.01,-0.049,0.127,0.01,-0.039,-0.029
0.536,-0.005,-0.02,-0.015,0.015,0.005,-0.02,0.01,-0.059,0.127,0.01,-0.039,-0.029
0.538,0.0,-0.02,-0.02,0.01,0.01,-0.02,0.01,-0.059,0.127,0.01,-0.039,-0.029
0.54,0.005,-0.02,-0.024,0.01,0.015,-0.024,0.01,-0.059,0.127,0.01,-0.039,-0.029
0.542,0.01,-0.02,-0.029,0.005,0.02,-0.024,0.01,-0.059,0.127,0.01,-0.039,-0.029
0.544,0.0,-0.02,-0.02,0.01,0.01,-0.02,0.01,-0.059,0.137,0.02,-0.039,-0.02
0.546,0.0,-0.02,-0.02,0.01,0.01,-0.02,0.01,-0.059,0.137,0.02,-0.039,-0.02
0.548,0.0,-0.02,-0.02,0.01,0.01,-0.02,0.01,-0.059,0.137,0.02,-0.039,-0.02
0.55,0.0,-0.02,-0.02,0.01,0.01,-0.02,0.01,-0.059,0.137,0.02,-0.039,-0.02
0.552,0.0,-0.01,-0.01,0.005,0.005,-0.01,0.0,-0.059,0.137,0.02,-0.039,-0.029
0.554,0.0,-0.01,-0.01,0.005,0.005,-0.01,0.0,-0.059,0.137,0.02,-0.039,-0.029
0.556,0.0,-0.01,-0.01,0.005,0.005,-0.01,0.0,-0.059,0.137,0.02,-0.039,-0.029
0.558,0.0,-0.01,-0.01,0.005,0.005,-0.01,0.0,-0.059,0.137,0.02,-0.039,-0.029
0.56,0.0,-0.015,-0.015,0.01,0.005,-0.015,0.01,-0.049,0.146,0.02,-0.039,-0.02
0.562,0.0,-0.02,-0.02,0.01,0.01,-0.02,0.01,-0.049,0.146,0.02,-0.039,-0.02
0.564,0.0,-0.024,-0.024,0.015,0.01,-0.024,0.01,-0.049,0.146,0.02,-0.039,-0.02
0.566,0.0,-0.029,-0.029,0.015,0.015,-0.029,0.01,-0.049,0.146,0.02,-0.039,-0.02
0.568,0.0,-0.02,-0.02,0.01,0.01,-0.02,0.01,-0.059,0.146,0.02,-0.039,-0.029
0.57,0.0,-0.02,-0.02,0.01,0.01,-0.02,0.01,-0.059,0.146,0.02,-0.039,-0.029
0.572,0.0,-0.02,-0.02,0.01,0.01,-0.02,0.01,-0.059,0.146,0.02,-0.039,-0.029
0.574,0.0,-0.02,-0.02,0.01,0.01,-0.02,0.01,-0.059,0.146,0.02,-0.039,-0.029
0.576,0.01,-0.02,-0.029,0.005,0.02,-0.024,0.0,-0.059,0.146,0.02,-0.049,-0.039
0.578,0.01,-0.02,-0.029,0.005,0.02,-0.024,0.0,-0.059,0.146,0.02,-0.049,-0.039
0.58,0.01,-0.02,-0.029,0.005,0.02,-0.024,0.0,-0.059,0.146,0.02,-0.049,-0.039
0.582,0.01,-0.02,-0.029,0.005,0.02,-0.024,0.0,-0.059,0.146,0.02,-0.049,-0.039
0.584,0.0,-0.02,-0.02,0.01,0.01,-0.02,0.0,-0.059,0.156,0.02,-0.049,-0.039
0.586,0.0,-0.02,-0.02,0.01,0.01,-0.02,0.0,-0.059,0.156,0.02,-0.049,-0.039
0.588,0.0,-0.02,-0.02,0.01,0.01,-0.02,0.0,-0.059,0.156,0.02,-0.049,-0.039
0.59,0.0,-0.02,-0.02,0.01,0.01,-0.02,0.0,-0.059,0.156,0.02,-0.049,-0.039
0.592,0.0,-0.02,-0.02,0.01,0.01,-0.02,0.0,-0.068,0.146,0.01,-0.049,-0.049
0.594,0.0,-0.02,-0.02,0.01,0.01,-0.02,0.0,-0.068,0.146,0.01,-0.049,-0.049
0.596,0.0,-0.02,-0.02,0.01,0.01,-0.02,0.0,-0.068,0.146,0.01,-0.049,-0.049
0.598,0.0,-0.02,-0.02,0.01,0.01,-0.02,0.0,-0.068,0.146,0.01,-0.049,-0.049
0.6,0.0,-0.024,-0.024,0.015,0.01,-0.024,0.0,-0.068,0.156,0.01,-0.049,-0.049
0.602,0.0,-0.029,-0.029,0.015,0.015,-0.029,0.0,-0.068,0.156,0.01,-0.049,-0.049
0.604,0.0,-0.034,-0.034,0.02,0.015,-0.034,0.0,-0.068,0.156,0.01,-0.049,-0.049
0.606,0.0,-0.039,-0.039,0.02,0.02,-0.039,0.0,-0.068,0.156,0.01,-0.049,-0.049
0.608,-0.01,-0.029,-0.02,0.02,0.005,-0.024,0.0,-0.078,0.156,0.0,-0.049,-0.049
0.61,-0.01,-0.029,-0.02,0.02,0.005,-0.024,0.0,-0.078,0.156,0.0,-0.049,-0.049
0.612,-0.01,-0.029,-0.02,0.02,0.005,-0.024,0.0,-0.078,0.156,0.0,-0.049,-0.049
0.614,-0.01,-0.029,-0.02,0.02,0.005,-0.024,0.0,-0.078,0.156,0.0,-0.049,-0.049
0.616,0.0,-0.029,-0.029,0.015,0.015,-0.029,-0.01,-0.078,0.156,-0.01,-0.059,-0.059
0.618,0.0,-0.029,-0.029,0.015,0.015,-0.029,-0.01,-0.078,0.156,-0.01,-0.059,-0.059
0.62,0.0,-0.029,-0.029,0.015,0.015,-0.029,-0.01,-0.078,0.156,-0.01,-0.059,-0.059
0.622,0.0,-0.029,-0.029,0.015,0.015,-0.029,-0.01,-0.078,0.156,-0.01,-0.059,-0.059
0.624,-0.01,-0.039,-0.029,0.024,0.01,-0.034,0.0,-0.078,0.166,0.0,-0.059,-0.059
0.626,-0.01,-0.039,-0.029,0.024,0.01,-0.034,0.0,-0.078,0.166,0.0,-0.059,-0.059
0.628,-0.01,-0.039,-0.029,0.024,0.01,-0.034,0.0,-0.078,0.166,0.0,-0.059,-0.059
0.63,-0.01,-0.039,-0.029,0.024,0.01,-0.034,0.0,-0.078,0.166,0.0,-0.059,-0.059
0.632,-0.01,-0.029,-0.02,0.02,0.005,-0.024,-0.01,-0.078,0.176,-0.01,-0.059,-0.059
0.634,-0.01,-0.029,-0.02,0.02,0.005,-0.024,-0.01,-0.078,0.176,-0.01,-0.059,-0.059
0.636,-0.01,-0.029,-0.02,0.02,0.005,-0.024,-0.01,-0.078,0.176,-0.01,-0.059,-0.059
0.638,-0.01,-0.029,-0.02,0.02,0.005,-0.024,-0.01,-0.078,0.176,-0.01,-0.059,-0.059
0.64,-0.01,-0.039,-0.029,0.024,0.01,-0.034,-0.01,-0.073,0.176,-0.01,-0.059,-0.059
0.642,-0.01,-0.039,-0.029,0.024,0.01,-0.034,-0.01,-0.068,0.176,-0.01,-0.059,-0.059
0.644,-0.01,-0.039,-0.029,0.024,0.01,-0.034,-0.01,-0.063,0.176,-0.01,-0.059,-0.059
0.646,-0.01,-0.039,-0.029,0.024,0.01,-0.034,-0.01,-0.059,0.176,-0.01,-0.059,-0.059
0.648,-0.02,-0.039,-0.02,0.029,0.0,-0.029,-0.01,-0.044,0.185,-0.01,-0.059,-0.059
0.65,-0.02,-0.039,-0.02,0.029,0.0,-0.029,-0.01,-0.039,0.185,-0.01,-0.059,-0.059
0.652,-0.02,-0.039,-0.02,0.029,0.0,-0.029,-0.01,-0.034,0.185,-0.01,-0.059,-0.059
0.654,-0.02,-0.039,-0.02,0.029,0.0,-0.029,-0.01,-0.029,0.185,-0.01,-0.059,-0.059
0.656,-0.01,-0.039,-0.029,0.024,0.01,-0.034,-0.01,-0.02,0.185,-0.01,-0.059,-0.068
0.658,-0.01,-0.039,-0.029,0.024,0.01,-0.034,-0.01,-0.02,0.185,-0.01,-0.059,-0.068
0.66,-0.01,-0.039,-0.029,0.024,0.01,-0.034,-0.01,-0.02,0.185,-0.01,-0.059,-0.068
0.662,-0.01,-0.039,-0.029,0.024,0.01,-0.034,-0.01,-0.02,0.185,-0.01,-0.059,-0.068
0.664,-0.02,-0.039,-0.02,0.029,0.0,-0.029,-0.01,-0.01,0.185,-0.01,-0.059,-0.059
0.666,-0.02,-0.039,-0.02,0.029,0.0,-0.029,-0.01,-0.01,0.185,-0.01,-0.059,-0.059
0.668,-0.02,-0.039,-0.02,0.029,0.0,-0.029,-0.01,-0.01,0.185,-0.01,-0.059,-0.059
0.67,-0.02,-0.039,-0.02,0.029,0.0,-0.029,-0.01,-0.01,0.185,-0.01,-0.059,-0.059
0.672,-0.02,-0.049,-0.029,0.034,0.005,-0.039,-0.01,-0.005,0.185,-0.02,-0.059,-0.059
0.674,-0.02,-0.049,-0.029,0.034,0.005,-0.039,-0.01,0.0,0.185,-0.02,-0.059,-0.059
0.676,-0.02,-0.049,-0.029,0.034,0.005,-0.039,-0.01,0.005,0.185,-0.02,-0.059,-0.059
0.678,-0.02,-0.049,-0.029,0.034,0.005,-0.039,-0.01,0.01,0.185,-0.02,-0.059,-0.059
0.68,-0.02,-0.039,-0.02,0.029,0.0,-0.029,-0.01,0.02,0.195,-0.02,-0.059,-0.059
0.682,-0.02,-0.039,-0.02,0.029,0.0,-0.029,-0.01,0.02,0.195,-0.02,-0.059,-0.059
0.684,-0.02,-0.039,-0.02,0.029,0.0,-0.029,-0.01,0.02,0.195,-0.02,-0.059,-0.059
0.686,-0.02,-0.039,-0.02,0.029,0.0,-0.029,-0.01,0.02,0.195,-0.02,-0.059,-0.059
0.688,-0.024,-0.039,-0.015,0.034,-0.005,-0.029,0.0,0.029,0.205,-0.01,-0.049,-0.059
0.69,-0.029,-0.039,-0.01,0.034,-0.01,-0.024,0.0,0.029,0.205,-0.01,-0.049,-0.059
0.692,-0.034,-0.039,-0.005,0.039,-0.015,-0.024,0.0,0.029,0.205,-0.01,-0.049,-0.059
0.694,-0.039,-0.039,0.0,0.039,-0.02,-0.02,0.0,0.029,0.205,-0.01,-0.049,-0.059
0.696,-0.029,-0.039,-0.01,0.034,-0.01,-0.024,0.0,0.029,0.205,-0.02,-0.059,-0.059
0.698,-0.029,-0.039,-0.01,0.034,-0.01,-0.024,0.0,0.029,0.205,-0.02,-0.059,-0.059
0.7,-0.029,-0.039,-0.01,0.034,-0.01,-0.024,0.0,0.029,0.205,-0.02,-0.059,-0.059
0.702,-0.029,-0.039,-0.01,0.034,-0.01,-0.024,0.0,0.029,0.205,-0.02,-0.059,-0.059
0.704,-0.029,-0.039,-0.01,0.034,-0.01,-0.024,0.0,0.039,0.215,-0.02,-0.059,-0.049
0.706,-0.029,-0.039,-0.01,0.034,-0.01,-0.024,0.0,0.039,0.215,-0.02,-0.059,-0.049
0.708,-0.029,-0.039,-0.01,0.034,-0.01,-0.024,0.0,0.039,0.215,-0.02,-0.059,-0.049
0.71,-0.029,-0.039,-0.01,0.034,-0.01,-0.024,0.0,0.039,0.215,-0.02,-0.059,-0.049
0.712,-0.029,-0.039,-0.01,0.034,-0.01,-0.024,0.0,0.039,0.215,-0.02,-0.059,-0.049
0.714,-0.029,-0.039,-0.01,0.034,-0.01,-0.024,0.0,0.039,0.215,-0.02,-0.059,-0.049
0.716,-0.029,-0.039,-0.01,0.034,-0.01,-0.024,0.0,0.039,0.215,-0.02,-0.059,-0.049
0.718,-0.029,-0.039,-0.01,0.034,-0.01,-0.024,0.0,0.039,0.215,-0.02,-0.059,-0.049
0.72,-0.029,-0.039,-0.01,0.034,-0.01,-0.024,0.0,0.049,0.224,-0.02,-0.049,-0.049
0.722,-0.029,-0.039,-0.01,0.034,-0.01,-0.024,0.0,0.049,0.224,-0.02,-0.049,-0.049
0.724,-0.029,-0.039,-0.01,0.034,-0.01,-0.024,0.0,0.049,0.224,-0.02,-0.049,-0.049
0.726,-0.029,-0.039,-0.01,0.034,-0.01,-0.024,0.0,0.049,0.224,-0.02,-0.049,-0.049
0.728,-0.029,-0.039,-0.01,0.034,-0.01,-0.024,0.0,0.049,0.234,-0.02,-0.059,-0.049
0.73,-0.029,-0.039,-0.01,0.034,-0.01,-0.024,0.0,0.049,0.234,-0.02,-0.059,-0.049
0.732,-0.029,-0.039,-0.01,0.034,-0.01,-0.024,0.0,0.049,0.234,-0.02,-0.059,-0.049
0.734,-0.029,-0.039,-0.01,0.034,-0.01,-0.024,0.0,0.049,0.234,-0.02,-0.059,-0.049
0.736,-0.029,-0.029,0.0,0.029,-0.015,-0.015,-0.01,0.059,0.234,-0.029,-0.059,-0.049
0.738,-0.029,-0.029,0.0,0.029,-0.015,-0.015,-0.01,0.059,0.234,-0.029,-0.059,-0.049
0.74,-0.029,-0.029,0.0,0.029,-0.015,-0.015,-0.01,0.059,0.234,-0.029,-0.059,-0.049
0.742,-0.029,-0.029,0.0,0.029,-0.015,-0.015,-0.01,0.059,0.234,-0.029,-0.059,-0.049
0.744,-0.029,-0.039,-0.01,0.034,-0.01,-0.024,-0.01,0.059,0.234,-0.029,-0.059,-0.049
0.746,-0.029,-0.039,-0.01,0.034,-0.01,-0.024,-0.01,0.059,0.234,-0.029,-0.059,-0.049
0.748,-0.029,-0.039,-0.01,0.034,-0.01,-0.024,-0.01,0.059,0.234,-0.029,-0.059,-0.049
0.75,-0.029,-0.039,-0.01,0.034,-0.01,-0.024,-0.01,0.059,0.234,-0.029,-0.059,-0.049
0.752,-0.029,-0.039,-0.01,0.034,-0.01,-0.024,-0.01,0.068,0.244,-0.02,-0.059,-0.049
0.754,-0.029,-0.039,-0.01,0.034,-0.01,-0.024,-0.01,0.068,0.244,-0.02,-0.059,-0.049
0.756,-0.029,-0.039,-0.01,0.034,-0.01,-0.024,-0.01,0.068,0.244,-0.02,-0.059,-0.049
0.758,-0.029,-0.039,-0.01,0.034,-0.01,-0.024,-0.01,0.068,0.244,-0.02,-0.059,-0.049
0.76,-0.029,-0.049,-0.02,0.039,-0.005,-0.034,-0.01,0.078,0.254,-0.02,-0.059,-0.049
0.762,-0.029,-0.049,-0.02,0.039,-0.005,-0.034,-0.01,0.078,0.254,-0.02,-0.059,-0.049
0.764,-0.029,-0.049,-0.02,0.039,-0.005,-0.034,-0.01,0.078,0.254,-0.02,-0.059,-0.049
0.766,-0.029,-0.049,-0.02,0.039,-0.005,-0.034,-0.01,0.078,0.254,-0.02,-0.059,-0.049
0.768,-0.029,-0.039,-0.01,0.034,-0.01,-0.024,-0.01,0.078,0.273,-0.029,-0.059,-0.039
0.77,-0.029,-0.039,-0.01,0.034,-0.01,-0.024,-0.01,0.078,0.283,-0.029,-0.059,-0.039
0.772,-0.029,-0.039,-0.01,0.034,-0.01,-0.024,-0.01,0.078,0.293,-0.029,-0.059,-0.039
0.774,-0.029,-0.039,-0.01,0.034,-0.01,-0.024,-0.01,0.078,0.303,-0.029,-0.059,-0.039
0.776,-0.029,-0.049,-0.02,0.039,-0.005,-0.034,-0.01,0.078,0.312,-0.029,-0.059,-0.039
0.778,-0.029,-0.049,-0.02,0.039,-0.005,-0.034,-0.01,0.078,0.322,-0.029,-0.059,-0.039
0.78,-0.029,-0.049,-0.02,0.039,-0.005,-0.034,-0.01,0.078,0.332,-0.029,-0.059,-0.039
0.782,-0.029,-0.049,-0.02,0.039,-0.005,-0.034,-0.01,0.078,0.342,-0.029,-0.059,-0.039
0.784,-0.039,-0.049,-0.01,0.044,-0.015,-0.029,-0.01,0.088,0.356,-0.029,-0.059,-0.039
0.786,-0.039,-0.049,-0.01,0.044,-0.015,-0.029,-0.01,0.088,0.361,-0.029,-0.059,-0.039
0.788,-0.039,-0.049,-0.01,0.044,-0.015,-0.029,-0.01,0.088,0.366,-0.029,-0.059,-0.039
0.79,-0.039,-0.049,-0.01,0.044,-0.015,-0.029,-0.01,0.088,0.371,-0.029,-0.059,-0.039
0.792,-0.039,-0.039,0.0,0.039,-0.02,-0.02,-0.01,0.088,0.371,-0.029,-0.068,-0.049
0.794,-0.039,-0.039,0.0,0.039,-0.02,-0.02,-0.01,0.088,0.371,-0.029,-0.068,-0.049
0.796,-0.039,-0.039,0.0,0.039,-0.02,-0.02,-0.01,0.088,0.371,-0.029,-0.068,-0.049
0.798,-0.039,-0.039,0.0,0.039,-0.02,-0.02,-0.01,0.088,0.371,-0.029,-0.068,-0.049
0.8,-0.039,-0.049,-0.01,0.044,-0.015,-0.029,0.0,0.088,0.381,-0.029,-0.068,-0.049
0.802,-0.039,-0.049,-0.01,0.044,-0.015,-0.029,0.0,0.088,0.381,-0.029,-0.068,-0.049
0.804,-0.039,-0.049,-0.01,0.044,-0.015,-0.029,0.0,0.088,0.381,-0.029,-0.068,-0.049
0.806,-0.039,-0.049,-0.01,0.044,-0.015,-0.029,0.0,0.088,0.381,-0.029,-0.068,-0.049
0.808,-0.039,-0.049,-0.01,0.044,-0.015,-0.029,0.0,0.088,0.39,-0.029,-0.068,-0.059
0.81,-0.039,-0.049,-0.01,0.044,-0.015,-0.029,0.0,0.088,0.39,-0.029,-0.068,-0.059
0.812,-0.039,-0.049,-0.01,0.044,-0.015,-0.029,0.0,0.088,0.39,-0.029,-0.068,-0.059
0.814,-0.039,-0.049,-0.01,0.044,-0.015,-0.029,0.0,0.088,0.39,-0.029,-0.068,-0.059
0.816,-0.029,-0.049,-0.02,0.039,-0.005,-0.034,-0.01,0.098,0.4,-0.039,-0.068,-0.068
0.818,-0.029,-0.049,-0.02,0.039,-0.005,-0.034,-0.01,0.098,0.4,-0.039,-0.068,-0.068
0.82,-0.029,-0.049,-0.02,0.039,-0.005,-0.034,-0.01,0.098,0.4,-0.039,-0.068,-0.068
0.822,-0.029,-0.049,-0.02,0.039,-0.005,-0.034,-0.01,0.098,0.4,-0.039,-0.068,-0.068
0.824,-0.039,-0.049,-0.01,0.044,-0.015,-0.029,0.0,0.098,0.41,-0.039,-0.059,-0.063
0.826,-0.039,-0.049,-0.01,0.044,-0.015,-0.029,0.0,0.098,0.415,-0.039,-0.059,-0.059
0.828,-0.039,-0.049,-0.01,0.044,-0.015,-0.029,0.0,0.098,0.42,-0.034,-0.059,-0.054
0.83,-0.039,-0.049,-0.01,0.044,-0.015,-0.029,0.0,0.098,0.42,-0.034,-0.059,-0.049
0.832,-0.039,-0.049,-0.01,0.044,-0.015,-0.029,-0.01,0.098,0.42,-0.034,-0.054,-0.044
0.834,-0.039,-0.049,-0.01,0.044,-0.015,-0.029,-0.01,0.098,0.425,-0.034,-0.054,-0.044
0.836,-0.039,-0.049,-0.01,0.044,-0.015,-0.029,-0.005,0.098,0.425,-0.034,-0.054,-0.049
0.838,-0.039,-0.049,-0.01,0.044,-0.015,-0.029,-0.005,0.093,0.425,-0.039,-0.054,-0.049
0.84,-0.029,-0.049,-0.02,0.039,-0.005,-0.034,-0.005,0.102,0.425,-0.039,-0.044,-0.049
0.842,-0.029,-0.044,-0.015,0.039,-0.01,-0.029,-0.005,0.102,0.429,-0.039,-0.039,-0.049
0.844,-0.029,-0.044,-0.015,0.039,-0.01,-0.029,-0.005,0.102,0.434,-0.034,-0.039,-0.049
0.846,-0.029,-0.044,-0.015,0.039,-0.01,-0.029,-0.005,0.107,0.439,-0.034,-0.039,-0.049
0.848,-0.039,-0.034,0.005,0.039,-0.024,-0.015,0.005,0.102,0.444,-0.034,-0.029,-0.049
0.85,-0.039,-0.034,0.005,0.039,-0.024,-0.015,0.005,0.098,0.449,-0.034,-0.029,-0.049
0.852,-0.039,-0.034,0.005,0.039,-0.024,-0.015,0.005,0.093,0.449,-0.034,-0.029,-0.049
0.854,-0.039,-0.029,0.01,0.034,-0.024,-0.01,0.005,0.093,0.449,-0.034,-0.029,-0.049
0.856,-0.024,-0.024,0.0,0.024,-0.015,-0.015,0.01,0.093,0.449,-0.039,-0.024,-0.059
0.858,-0.02,-0.024,-0.005,0.024,-0.01,-0.015,0.01,0.088,0.449,-0.039,-0.024,-0.054
0.86,-0.02,-0.02,0.0,0.02,-0.01,-0.01,0.02,0.093,0.449,-0.029,-0.02,-0.054
0.862,-0.015,-0.01,0.005,0.015,-0.01,-0.005,0.029,0.088,0.459,-0.029,-0.01,-0.049
0.864,-0.02,-0.005,0.015,0.015,-0.02,0.005,0.029,0.098,0.473,-0.024,-0.01,-0.034
0.866,-0.02,-0.005,0.015,0.015,-0.02,0.005,0.034,0.107,0.478,-0.024,-0.005,-0.034
0.868,-0.01,-0.005,0.005,0.01,-0.01,0.0,0.044,0.117,0.483,-0.015,0.005,-0.024
0.87,-0.005,0.005,0.01,0.0,-0.01,0.005,0.049,0.122,0.483,-0.01,0.01,-0.024
0.872,-0.005,-0.005,0.0,0.005,-0.005,-0.005,0.049,0.127,0.488,0.005,0.01,-0.015
0.874,-0.005,-0.005,0.0,0.005,-0.005,-0.005,0.049,0.132,0.498,0.01,0.015,-0.01
0.876,0.0,-0.01,-0.01,0.005,0.005,-0.01,0.054,0.137,0.508,0.015,0.015,-0.01
0.878,0.0,-0.01,-0.01,0.005,0.005,-0.01,0.054,0.142,0.517,0.015,0.015,-0.005
0.88,0.005,-0.015,-0.02,0.005,0.01,-0.02,0.054,0.142,0.532,0.024,0.015,-0.005
0.882,0.01,-0.015,-0.024,0.005,0.015,-0.02,0.054,0.142,0.537,0.029,0.02,-0.005
0.884,0.01,-0.02,-0.029,0.005,0.02,-0.024,0.059,0.142,0.537,0.029,0.02,0.0
0.886,0.01,-0.02,-0.029,0.005,0.02,-0.024,0.063,0.142,0.537,0.034,0.024,0.0
0.888,0.02,-0.02,-0.039,0.0,0.029,-0.029,0.063,0.161,0.551,0.044,0.044,0.005
0.89,0.024,-0.015,-0.039,-0.005,0.029,-0.029,0.063,0.161,0.556,0.049,0.049,0.01
0.892,0.029,-0.015,-0.044,-0.005,0.034,-0.029,0.054,0.166,0.556,0.049,0.049,0.01
0.894,0.029,-0.024,-0.054,0.0,0.039,-0.039,0.054,0.166,0.556,0.049,0.049,0.015
0.896,0.039,-0.039,-0.078,0.0,0.059,-0.059,0.039,0.142,0.556,0.044,0.039,0.005
0.898,0.039,-0.054,-0.093,0.01,0.063,-0.073,0.024,0.112,0.547,0.034,0.034,0.0
0.9,0.034,-0.059,-0.093,0.015,0.063,-0.078,0.005,0.088,0.542,0.024,0.029,0.0
0.902,0.029,-0.068,-0.098,0.02,0.063,-0.083,-0.01,0.054,0.532,0.005,0.024,-0.01
0.904,0.015,-0.073,-0.088,0.029,0.049,-0.083,-0.01,0.029,0.517,0.0,0.02,-0.02
0.906,0.015,-0.073,-0.088,0.029,0.049,-0.083,-0.024,0.01,0.503,-0.01,0.01,-0.029
0.908,0.015,-0.063,-0.078,0.024,0.044,-0.073,-0.034,-0.01,0.493,-0.015,0.0,-0.029
0.91,0.015,-0.063,-0.078,0.024,0.044,-0.073,-0.034,-0.015,0.478,-0.024,-0.01,-0.034
0.912,0.024,-0.068,-0.093,0.024,0.059,-0.083,-0.024,-0.015,0.483,-0.034,-0.015,-0.034
0.914,0.029,-0.068,-0.098,0.02,0.063,-0.083,-0.024,-0.005,0.493,-0.024,-0.015,-0.034
0.916,0.029,-0.068,-0.098,0.02,0.063,-0.083,-0.02,-0.005,0.503,-0.024,-0.01,-0.029
0.918,0.029,-0.063,-0.093,0.02,0.059,-0.078,-0.015,0.005,0.508,-0.02,-0.005,-0.024
0.92,0.015,-0.059,-0.073,0.024,0.044,-0.068,-0.01,-0.005,0.512,-0.02,-0.01,-0.034
0.922,0.01,-0.059,-0.068,0.024,0.039,-0.063,-0.01,-0.005,0.512,-0.02,-0.01,-0.034
0.924,0.0,-0.059,-0.059,0.029,0.029,-0.059,-0.005,-0.01,0.508,-0.02,-0.015,-0.034
0.926,-0.01,-0.059,-0.049,0.034,0.02,-0.054,0.0,-0.015,0.503,-0.029,-0.02,-0.039
0.928,-0.02,-0.059,-0.039,0.039,0.01,-0.049,-0.01,-0.029,0.503,-0.029,-0.015,-0.044
0.93,-0.024,-0.068,-0.044,0.049,0.01,-0.059,-0.01,-0.029,0.498,-0.034,-0.02,-0.049
0.932,-0.024,-0.068,-0.044,0.049,0.01,-0.059,-0.01,-0.029,0.498,-0.034,-0.02,-0.049
0.934,-0.02,-0.068,-0.049,0.044,0.015,-0.059,-0.01,-0.029,0.498,-0.034,-0.015,-0.049
0.936,-0.015,-0.059,-0.044,0.039,0.015,-0.054,-0.024,-0.039,0.498,-0.044,-0.02,-0.054
0.938,-0.005,-0.054,-0.049,0.029,0.02,-0.054,-0.024,-0.039,0.493,-0.044,-0.024,-0.054
0.94,0.01,-0.049,-0.059,0.02,0.034,-0.054,-0.029,-0.044,0.493,-0.049,-0.034,-0.054
0.942,0.02,-0.049,-0.068,0.015,0.044,-0.059,-0.034,-0.044,0.493,-0.049,-0.039,-0.054
0.944,0.02,-0.054,-0.073,0.02,0.044,-0.063,-0.024,-0.044,0.483,-0.049,-0.039,-0.054
0.946,0.02,-0.054,-0.073,0.02,0.044,-0.063,-0.02,-0.044,0.493,-0.049,-0.039,-0.054
0.948,0.01,-0.059,-0.068,0.024,0.039,-0.063,-0.02,-0.044,0.493,-0.054,-0.039,-0.054
0.95,0.0,-0.068,-0.068,0.034,0.034,-0.068,-0.015,-0.049,0.483,-0.059,-0.049,-0.054
0.952,-0.02,-0.078,-0.059,0.049,0.02,-0.068,-0.015,-0.063,0.473,-0.063,-0.049,-0.059
0.954,-0.034,-0.078,-0.044,0.059,0.005,-0.063,-0.005,-0.063,0.464,-0.063,-0.049,-0.063
0.956,-0.039,-0.078,-0.039,0.059,0.0,-0.059,-0.005,-0.063,0.454,-0.068,-0.049,-0.063
0.958,-0.049,-0.078,-0.029,0.063,-0.01,-0.054,-0.005,-0.068,0.449,-0.073,-0.054,-0.068
0.96,-0.039,-0.078,-0.039,0.059,0.0,-0.059,-0.01,-0.068,0.429,-0.073,-0.063,-0.083
0.962,-0.039,-0.078,-0.039,0.059,0.0,-0.059,-0.01,-0.068,0.42,-0.073,-0.063,-0.088
0.964,-0.039,-0.078,-0.039,0.059,0.0,-0.059,-0.01,-0.068,0.405,-0.073,-0.068,-0.088
0.966,-0.039,-0.078,-0.039,0.059,0.0,-0.059,-0.01,-0.068,0.395,-0.073,-0.068,-0.088
0.968,-0.039,-0.068,-0.029,0.054,-0.005,-0.049,-0.01,-0.068,0.381,-0.083,-0.068,-0.083
0.97,-0.039,-0.063,-0.024,0.054,-0.01,-0.044,-0.01,-0.068,0.366,-0.078,-0.068,-0.083
0.972,-0.034,-0.063,-0.029,0.049,-0.005,-0.049,-0.01,-0.068,0.351,-0.078,-0.068,-0.083
0.974,-0.034,-0.063,-0.029,0.049,-0.005,-0.049,-0.01,-0.068,0.337,-0.078,-0.068,-0.083
0.976,-0.034,-0.073,-0.039,0.054,0.0,-0.059,-0.01,-0.059,0.317,-0.073,-0.059,-0.078
0.978,-0.039,-0.068,-0.029,0.054,-0.005,-0.049,-0.005,-0.059,0.298,-0.073,-0.059,-0.078
0.98,-0.039,-0.068,-0.029,0.054,-0.005,-0.049,-0.005,-0.059,0.278,-0.073,-0.059,-0.078
0.982,-0.039,-0.068,-0.029,0.054,-0.005,-0.049,-0.005,-0.054,0.264,-0.073,-0.054,-0.078
0.984,-0.039,-0.068,-0.029,0.054,-0.005,-0.049,-0.005,-0.054,0.239,-0.073,-0.063,-0.068
0.986,-0.044,-0.068,-0.024,0.059,-0.01,-0.049,-0.005,-0.054,0.224,-0.073,-0.063,-0.068
0.988,-0.044,-0.073,-0.029,0.059,-0.01,-0.054,-0.005,-0.054,0.21,-0.073,-0.063,-0.068
0.99,-0.039,-0.073,-0.034,0.059,-0.005,-0.054,-0.005,-0.054,0.195,-0.073,-0.063,-0.068
0.992,-0.049,-0.073,-0.024,0.063,-0.015,-0.049,0.005,-0.054,0.166,-0.073,-0.054,-0.068
0.994,-0.039,-0.068,-0.029,0.054,-0.005,-0.049,0.0,-0.063,0.146,-0.073,-0.059,-0.068
0.996,-0.029,-0.059,-0.029,0.044,0.0,-0.044,0.0,-0.059,0.117,-0.083,-0.068,-0.078
0.998,-0.049,-0.068,-0.02,0.059,-0.015,-0.044,0.01,-0.049,0.107,-0.073,-0.059,-0.078
1.0,-0.063,-0.063,0.0,0.063,-0.034,-0.034,0.024,-0.039,0.107,-0.063,-0.054,-0.073
1.002,-0.063,-0.044,0.02,0.054,-0.044,-0.015,0.044,-0.015,0.107,-0.068,-0.063,-0.083
1.004,-0.078,-0.044,0.034,0.063,-0.059,-0.005,0.078,0.024,0.112,-0.054,-0.054,-0.093
1.006,-0.088,-0.054,0.034,0.073,-0.063,-0.01,0.107,0.068,0.137,-0.024,-0.044,-0.083
1.008,-0.059,-0.034,0.024,0.049,-0.044,-0.005,0.117,0.117,0.171,0.01,-0.02,-0.073
1.01,-0.02,-0.02,0.0,0.02,-0.01,-0.01,0.132,0.205,0.254,0.098,0.044,-0.044
1.012,0.005,-0.005,-0.01,0.0,0.005,-0.01,0.156,0.327,0.4,0.224,0.146,0.029
1.014,0.054,0.039,-0.015,-0.044,0.034,0.01,0.146,0.415,0.527,0.366,0.264,0.107
1.016,0.142,0.093,-0.049,-0.117,0.093,0.02,0.102,0.439,0.625,0.498,0.405,0.224
1.018,0.239,0.137,-0.102,-0.185,0.171,0.015,0.005,0.425,0.698,0.639,0.581,0.376
1.02,0.386,0.2,-0.185,-0.293,0.283,0.005,-0.127,0.425,0.81,0.82,0.795,0.561
1.022,0.561,0.303,-0.259,-0.429,0.41,0.02,-0.244,0.483,0.981,1.069,1.049,0.791
1.024,0.727,0.405,-0.322,-0.566,0.522,0.039,-0.332,0.566,1.196,1.352,1.347,1.025
1.026,0.869,0.503,-0.366,-0.683,0.615,0.068,-0.429,0.62,1.381,1.61,1.615,1.259
1.028,1.035,0.634,-0.4,-0.834,0.717,0.117,-0.561,0.634,1.508,1.815,1.84,1.479
1.03,1.181,0.752,-0.429,-0.966,0.805,0.161,-0.683,0.59,1.557,1.957,2.03,1.659
1.032,1.264,0.834,-0.429,-1.049,0.844,0.2,-0.771,0.512,1.508,1.976,2.098,1.767
1.034,1.293,0.888,-0.405,-1.088,0.849,0.239,-0.825,0.327,1.269,1.776,1.967,1.737
1.036,1.259,0.878,-0.381,-1.069,0.82,0.249,-0.869,0.015,0.805,1.357,1.654,1.571
1.038,1.152,0.81,-0.342,-0.981,0.747,0.234,-0.849,-0.332,0.249,0.849,1.249,1.352
1.04,1.015,0.717,-0.298,-0.864,0.654,0.21,-0.815,-0.62,-0.244,0.346,0.839,1.113
1.042,0.82,0.644,-0.176,-0.732,0.498,0.234,-0.742,-0.815,-0.605,-0.039,0.508,0.893
1.044,0.595,0.61,0.015,-0.6,0.288,0.312,-0.644,-0.927,-0.805,-0.259,0.303,0.727
1.046,0.449,0.551,0.102,-0.498,0.171,0.327,-0.595,-0.986,-0.903,-0.371,0.166,0.595
1.048,0.4,0.459,0.059,-0.429,0.171,0.259,-0.605,-0.976,-0.942,-0.473,0.024,0.439
1.05,0.346,0.337,-0.01,-0.342,0.176,0.161,-0.595,-0.932,-0.937,-0.517,-0.078,0.298
1.052,0.259,0.234,-0.024,-0.244,0.142,0.102,-0.581,-0.864,-0.903,-0.532,-0.156,0.171
1.054,0.19,0.156,-0.034,-0.171,0.112,0.059,-0.561,-0.795,-0.864,-0.547,-0.244,0.059
1.056,0.156,0.073,-0.083,-0.112,0.117,-0.005,-0.483,-0.683,-0.8,-0.537,-0.288,-0.049
1.058,0.102,0.005,-0.098,-0.054,0.098,-0.049,-0.4,-0.556,-0.703,-0.483,-0.278,-0.093
1.06,0.068,-0.01,-0.078,-0.029,0.073,-0.044,-0.371,-0.473,-0.644,-0.439,-0.254,-0.093
1.062,0.083,0.01,-0.073,-0.044,0.078,-0.034,-0.356,-0.415,-0.6,-0.395,-0.234,-0.093
1.064,0.068,0.0,-0.068,-0.034,0.068,-0.034,-0.283,-0.307,-0.512,-0.342,-0.19,-0.088
1.066,0.039,0.0,-0.039,-0.02,0.039,-0.02,-0.195,-0.205,-0.425,-0.278,-0.156,-0.083
1.068,0.024,0.005,-0.02,-0.015,0.02,-0.01,-0.151,-0.166,-0.39,-0.239,-0.142,-0.093
1.07,0.01,-0.02,-0.029,0.005,0.02,-0.024,-0.112,-0.142,-0.356,-0.21,-0.137,-0.102
1.072,-0.015,-0.049,-0.034,0.034,0.01,-0.044,-0.049,-0.088,-0.298,-0.156,-0.107,-0.093
1.074,-0.015,-0.059,-0.044,0.039,0.015,-0.054,-0.02,-0.068,-0.259,-0.122,-0.078,-0.093
1.076,-0.005,-0.049,-0.044,0.029,0.02,-0.049,-0.015,-0.059,-0.244,-0.112,-0.063,-0.083
1.078,-0.015,-0.044,-0.029,0.029,0.005,-0.039,-0.005,-0.054,-0.229,-0.098,-0.059,-0.073
1.08,-0.024,-0.034,-0.01,0.029,-0.01,-0.024,-0.015,-0.054,-0.234,-0.093,-0.059,-0.083
1.082,-0.029,-0.029,0.0,0.029,-0.015,-0.015,-0.015,-0.059,-0.244,-0.093,-0.068,-0.078
1.084,-0.029,-0.029,0.0,0.029,-0.015,-0.015,-0.015,-0.059,-0.249,-0.098,-0.068,-0.078
1.086,-0.034,-0.029,0.005,0.034,-0.02,-0.015,-0.015,-0.054,-0.254,-0.102,-0.068,-0.078
1.088,-0.044,-0.044,0.0,0.044,-0.024,-0.024,-0.01,-0.054,-0.254,-0.093,-0.068,-0.088
1.09,-0.049,-0.049,0.0,0.049,-0.024,-0.024,-0.005,-0.054,-0.249,-0.093,-0.068,-0.098
1.092,-0.049,-0.049,0.0,0.049,-0.024,-0.024,-0.005,-0.044,-0.249,-0.088,-0.068,-0.098
1.094,-0.054,-0.049,0.005,0.054,-0.029,-0.024,0.005,-0.044,-0.244,-0.078,-0.068,-0.093
1.096,-0.044,-0.054,-0.01,0.049,-0.02,-0.034,0.005,-0.054,-0.254,-0.088,-0.059,-0.093
1.098,-0.039,-0.054,-0.015,0.049,-0.015,-0.034,0.005,-0.049,-0.254,-0.088,-0.054,-0.098
1.1,-0.039,-0.054,-0.015,0.049,-0.015,-0.034,0.01,-0.049,-0.259,-0.088,-0.054,-0.098
1.102,-0.039,-0.054,-0.015,0.049,-0.015,-0.034,0.01,-0.044,-0.259,-0.083,-0.054,-0.098
1.104,-0.049,-0.044,0.005,0.049,-0.029,-0.02,0.005,-0.034,-0.259,-0.083,-0.054,-0.107
1.106,-0.054,-0.039,0.015,0.049,-0.034,-0.015,0.005,-0.034,-0.259,-0.083,-0.054,-0.107
1.108,-0.054,-0.039,0.015,0.049,-0.034,-0.015,0.005,-0.029,-0.259,-0.083,-0.054,-0.107
1.11,-0.059,-0.039,0.02,0.049,-0.039,-0.01,0.005,-0.029,-0.254,-0.078,-0.049,-0.102
1.112,-0.049,-0.044,0.005,0.049,-0.029,-0.02,0.01,-0.029,-0.264,-0.078,-0.059,-0.112
1.114,-0.049,-0.049,0.0,0.049,-0.024,-0.024,0.01,-0.024,-0.254,-0.078,-0.059,-0.112
1.116,-0.049,-0.054,-0.005,0.054,-0.024,-0.029,0.01,-0.024,-0.254,-0.073,-0.059,-0.112
1.118,-0.044,-0.059,-0.015,0.054,-0.015,-0.039,0.01,-0.02,-0.254,-0.073,-0.054,-0.112
1.12,-0.044,-0.044,0.0,0.044,-0.024,-0.024,0.01,-0.02,-0.264,-0.073,-0.063,-0.122
1.122,-0.049,-0.044,0.005,0.049,-0.029,-0.02,0.01,-0.02,-0.264,-0.073,-0.063,-0.122
1.124,-0.054,-0.044,0.01,0.049,-0.034,-0.02,0.01,-0.02,-0.264,-0.073,-0.063,-0.122
1.126,-0.059,-0.044,0.015,0.054,-0.039,-0.015,0.01,-0.02,-0.264,-0.068,-0.063,-0.122
1.128,-0.059,-0.044,0.015,0.054,-0.039,-0.015,0.01,-0.01,-0.264,-0.068,-0.063,-0.112
1.13,-0.059,-0.044,0.015,0.054,-0.039,-0.015,0.01,-0.005,-0.264,-0.068,-0.063,-0.107
1.132,-0.059,-0.044,0.015,0.054,-0.039,-0.015,0.01,-0.005,-0.264,-0.068,-0.063,-0.107
1.134,-0.059,-0.044,0.015,0.054,-0.039,-0.015,0.01,-0.005,-0.259,-0.068,-0.059,-0.107
1.136,-0.049,-0.044,0.005,0.049,-0.029,-0.02,0.01,-0.015,-0.268,-0.068,-0.068,-0.117
1.138,-0.049,-0.044,0.005,0.049,-0.029,-0.02,0.01,-0.015,-0.268,-0.068,-0.068,-0.117
1.14,-0.044,-0.044,0.0,0.044,-0.024,-0.024,0.01,-0.015,-0.273,-0.068,-0.068,-0.117
1.142,-0.044,-0.044,0.0,0.044,-0.024,-0.024,0.01,-0.015,-0.273,-0.063,-0.068,-0.117
1.144,-0.054,-0.034,0.02,0.044,-0.039,-0.01,0.01,-0.01,-0.264,-0.073,-0.059,-0.117
1.146,-0.059,-0.034,0.024,0.049,-0.044,-0.005,0.01,-0.01,-0.264,-0.073,-0.059,-0.117
1.148,-0.059,-0.034,0.024,0.049,-0.044,-0.005,0.01,-0.01,-0.259,-0.073,-0.059,-0.117
1.15,-0.059,-0.034,0.024,0.049,-0.044,-0.005,0.01,-0.005,-0.259,-0.068,-0.059,-0.117
1.152,-0.049,-0.039,0.01,0.044,-0.029,-0.015,0.01,0.005,-0.259,-0.068,-0.068,-0.117
1.154,-0.049,-0.039,0.01,0.044,-0.029,-0.015,0.005,0.005,-0.259,-0.073,-0.068,-0.122
1.156,-0.049,-0.039,0.01,0.044,-0.029,-0.015,0.005,0.005,-0.259,-0.073,-0.068,-0.122
1.158,-0.044,-0.039,0.005,0.044,-0.024,-0.02,0.005,0.005,-0.264,-0.073,-0.068,-0.122
1.16,-0.054,-0.039,0.015,0.049,-0.034,-0.015,0.015,0.005,-0.264,-0.063,-0.063,-0.122
1.162,-0.054,-0.039,0.015,0.049,-0.034,-0.015,0.015,0.005,-0.264,-0.063,-0.063,-0.122
1.164,-0.054,-0.039,0.015,0.049,-0.034,-0.015,0.015,0.005,-0.264,-0.063,-0.063,-0.122
1.166,-0.054,-0.039,0.015,0.049,-0.034,-0.015,0.015,0.01,-0.264,-0.059,-0.063,-0.117
1.168,-0.054,-0.039,0.015,0.049,-0.034,-0.015,0.015,0.0,-0.259,-0.059,-0.063,-0.107
1.17,-0.054,-0.039,0.015,0.049,-0.034,-0.015,0.015,0.005,-0.259,-0.059,-0.063,-0.107
1.172,-0.054,-0.034,0.02,0.044,-0.039,-0.01,0.015,0.005,-0.259,-0.059,-0.063,-0.107
1.174,-0.054,-0.034,0.02,0.044,-0.039,-0.01,0.015,0.0,-0.259,-0.059,-0.063,-0.107
1.176,-0.044,-0.034,0.01,0.039,-0.029,-0.015,0.005,0.0,-0.268,-0.059,-0.073,-0.117
1.178,-0.044,-0.034,0.01,0.039,-0.029,-0.015,0.005,0.0,-0.268,-0.059,-0.073,-0.117
1.18,-0.044,-0.034,0.01,0.039,-0.029,-0.015,0.005,0.0,-0.268,-0.059,-0.073,-0.117
1.182,-0.044,-0.034,0.01,0.039,-0.029,-0.015,0.005,0.0,-0.264,-0.059,-0.073,-0.122
1.184,-0.044,-0.034,0.01,0.039,-0.029,-0.015,0.005,0.01,-0.264,-0.068,-0.073,-0.112
1.186,-0.044,-0.039,0.005,0.044,-0.024,-0.02,0.005,0.01,-0.264,-0.068,-0.073,-0.112
1.188,-0.044,-0.039,0.005,0.044,-0.024,-0.02,0.005,0.01,-0.264,-0.068,-0.073,-0.112
1.19,-0.044,-0.039,0.005,0.044,-0.024,-0.02,0.005,0.01,-0.264,-0.068,-0.073,-0.112
1.192,-0.044,-0.034,0.01,0.039,-0.029,-0.015,0.005,0.0,-0.254,-0.068,-0.073,-0.117
1.194,-0.044,-0.034,0.01,0.039,-0.029,-0.015,0.005,0.0,-0.254,-0.068,-0.073,-0.117
1.196,-0.044,-0.034,0.01,0.039,-0.029,-0.015,0.005,0.0,-0.254,-0.068,-0.073,-0.117
1.198,-0.044,-0.034,0.01,0.039,-0.029,-0.015,0.005,0.005,-0.254,-0.068,-0.073,-0.117
1.2,-0.054,-0.034,0.02,0.044,-0.039,-0.01,0.005,0.015,-0.254,-0.068,-0.073,-0.127
1.202,-0.049,-0.039,0.01,0.044,-0.029,-0.015,0.005,0.015,-0.249,-0.068,-0.073,-0.127
1.204,-0.049,-0.039,0.01,0.044,-0.029,-0.015,0.005,0.015,-0.249,-0.068,-0.073,-0.127
1.206,-0.049,-0.039,0.01,0.044,-0.029,-0.015,0.005,0.015,-0.249,-0.068,-0.073,-0.127
1.208,-0.039,-0.034,0.005,0.039,-0.024,-0.015,0.005,0.01,-0.249,-0.059,-0.083,-0.117
1.21,-0.039,-0.034,0.005,0.039,-0.024,-0.015,0.005,0.01,-0.254,-0.059,-0.083,-0.117
1.212,-0.044,-0.034,0.01,0.039,-0.029,-0.015,0.005,0.01,-0.254,-0.059,-0.083,-0.117
1.214,-0.044,-0.034,0.01,0.039,-0.029,-0.015,0.01,0.01,-0.254,-0.059,-0.083,-0.117
1.216,-0.039,-0.034,0.005,0.039,-0.024,-0.015,0.01,0.01,-0.254,-0.068,-0.083,-0.107
1.218,-0.034,-0.034,0.0,0.034,-0.02,-0.02,0.01,0.01,-0.254,-0.068,-0.083,-0.112
1.22,-0.034,-0.034,0.0,0.034,-0.02,-0.02,0.01,0.01,-0.249,-0.068,-0.083,-0.112
1.222,-0.039,-0.034,0.005,0.039,-0.024,-0.015,0.01,0.015,-0.249,-0.068,-0.088,-0.112
1.224,-0.044,-0.039,0.005,0.044,-0.024,-0.02,0.01,0.015,-0.249,-0.059,-0.088,-0.112
1.226,-0.044,-0.039,0.005,0.044,-0.024,-0.02,0.01,0.015,-0.244,-0.059,-0.088,-0.112
1.228,-0.049,-0.039,0.01,0.044,-0.029,-0.015,0.01,0.015,-0.244,-0.059,-0.088,-0.117
1.23,-0.044,-0.039,0.005,0.044,-0.024,-0.02,0.005,0.015,-0.254,-0.059,-0.093,-0.117
1.232,-0.044,-0.034,0.01,0.039,-0.029,-0.015,0.015,0.015,-0.244,-0.059,-0.093,-0.117
1.234,-0.044,-0.034,0.01,0.039,-0.029,-0.015,0.015,0.015,-0.244,-0.063,-0.088,-0.117
1.236,-0.044,-0.034,0.01,0.039,-0.029,-0.015,0.015,0.015,-0.239,-0.063,-0.088,-0.122
1.238,-0.044,-0.034,0.01,0.039,-0.029,-0.015,0.015,0.015,-0.239,-0.063,-0.093,-0.122
1.24,-0.044,-0.034,0.01,0.039,-0.029,-0.015,0.015,0.024,-0.239,-0.059,-0.088,-0.117
1.242,-0.044,-0.039,0.005,0.044,-0.024,-0.02,0.015,0.024,-0.234,-0.059,-0.083,-0.112
1.244,-0.044,-0.039,0.005,0.044,-0.024,-0.02,0.015,0.029,-0.234,-0.059,-0.078,-0.107
1.246,-0.044,-0.039,0.005,0.044,-0.024,-0.02,0.015,0.029,-0.234,-0.059,-0.073,-0.102
1.248,-0.049,-0.039,0.01,0.044,-0.029,-0.015,0.02,0.029,-0.229,-0.049,-0.073,-0.102
1.25,-0.049,-0.039,0.01,0.044,-0.029,-0.015,0.02,0.034,-0.229,-0.049,-0.073,-0.102
1.252,-0.049,-0.034,0.015,0.044,-0.034,-0.01,0.02,0.034,-0.229,-0.049,-0.073,-0.107
1.254,-0.044,-0.029,0.015,0.039,-0.029,-0.01,0.02,0.039,-0.229,-0.049,-0.073,-0.107
1.256,-0.039,-0.039,0.0,0.039,-0.02,-0.02,0.02,0.029,-0.215,-0.049,-0.083,-0.107
1.258,-0.034,-0.039,-0.005,0.039,-0.015,-0.024,0.015,0.034,-0.215,-0.049,-0.083,-0.107
1.26,-0.029,-0.039,-0.01,0.034,-0.01,-0.024,0.015,0.034,-0.22,-0.049,-0.093,-0.107
1.262,-0.029,-0.044,-0.015,0.039,-0.01,-0.029,0.02,0.044,-0.22,-0.049,-0.083,-0.107
1.264,-0.039,-0.034,0.005,0.039,-0.024,-0.015,0.02,0.054,-0.215,-0.049,-0.083,-0.098
1.266,-0.039,-0.034,0.005,0.039,-0.024,-0.015,0.02,0.059,-0.21,-0.049,-0.083,-0.098
1.268,-0.034,-0.034,0.0,0.034,-0.02,-0.02,0.02,0.059,-0.2,-0.044,-0.083,-0.098
1.27,-0.034,-0.034,0.0,0.034,-0.02,-0.02,0.015,0.068,-0.19,-0.044,-0.083,-0.098
1.272,-0.034,-0.034,0.0,0.034,-0.02,-0.02,0.015,0.059,-0.2,-0.054,-0.088,-0.107
1.274,-0.034,-0.034,0.0,0.034,-0.02,-0.02,0.015,0.063,-0.2,-0.054,-0.093,-0.107
1.276,-0.034,-0.034,0.0,0.034,-0.02,-0.02,0.015,0.063,-0.195,-0.054,-0.093,-0.107
1.278,-0.034,-0.034,0.0,0.034,-0.02,-0.02,0.015,0.068,-0.195,-0.059,-0.093,-0.107
1.28,-0.024,-0.034,-0.01,0.029,-0.01,-0.024,0.015,0.068,-0.185,-0.049,-0.083,-0.107
1.282,-0.024,-0.034,-0.01,0.029,-0.01,-0.024,0.015,0.078,-0.181,-0.049,-0.088,-0.107
1.284,-0.024,-0.034,-0.01,0.029,-0.01,-0.024,0.015,0.078,-0.181,-0.049,-0.088,-0.107
1.286,-0.024,-0.034,-0.01,0.029,-0.01,-0.024,0.02,0.078,-0.181,-0.049,-0.093,-0.107
1.288,-0.029,-0.02,0.01,0.024,-0.02,-0.005,0.02,0.088,-0.181,-0.049,-0.093,-0.098
1.29,-0.024,-0.02,0.005,0.024,-0.015,-0.01,0.02,0.088,-0.176,-0.049,-0.093,-0.102
1.292,-0.024,-0.02,0.005,0.024,-0.015,-0.01,0.02,0.088,-0.176,-0.054,-0.093,-0.102
1.294,-0.024,-0.02,0.005,0.024,-0.015,-0.01,0.015,0.093,-0.176,-0.054,-0.098,-0.102
1.296,-0.015,-0.02,-0.005,0.02,-0.005,-0.015,0.01,0.083,-0.176,-0.054,-0.098,-0.112
1.298,-0.015,-0.01,0.005,0.015,-0.01,-0.005,0.01,0.083,-0.176,-0.054,-0.098,-0.112
1.3,-0.015,-0.005,0.01,0.01,-0.015,0.0,0.015,0.088,-0.181,-0.059,-0.098,-0.112
1.302,-0.015,0.0,0.015,0.01,-0.015,0.005,0.015,0.093,-0.181,-0.059,-0.098,-0.117
1.304,-0.024,0.0,0.024,0.015,-0.024,0.01,0.02,0.093,-0.176,-0.049,-0.088,-0.107
1.306,-0.015,0.0,0.015,0.01,-0.015,0.005,0.015,0.102,-0.171,-0.049,-0.088,-0.102
1.308,-0.015,0.005,0.02,0.005,-0.02,0.01,0.015,0.102,-0.166,-0.049,-0.088,-0.102
1.31,-0.01,0.01,0.02,0.0,-0.015,0.015,0.015,0.102,-0.161,-0.049,-0.088,-0.102
1.312,-0.01,0.01,0.02,0.0,-0.015,0.015,0.015,0.102,-0.151,-0.054,-0.093,-0.093
1.314,-0.01,0.01,0.02,0.0,-0.015,0.015,0.015,0.107,-0.151,-0.054,-0.093,-0.093
1.316,-0.01,0.01,0.02,0.0,-0.015,0.015,0.015,0.107,-0.151,-0.054,-0.093,-0.093
1.318,-0.005,0.02,0.024,-0.005,-0.015,0.02,0.015,0.107,-0.151,-0.054,-0.093,-0.093
1.32,0.005,0.029,0.024,-0.015,-0.01,0.024,0.015,0.107,-0.156,-0.063,-0.093,-0.093
1.322,0.005,0.029,0.024,-0.015,-0.01,0.024,0.005,0.107,-0.156,-0.063,-0.093,-0.088
1.324,0.01,0.034,0.024,-0.02,-0.01,0.029,0.005,0.107,-0.161,-0.063,-0.093,-0.088
1.326,0.015,0.034,0.02,-0.024,-0.005,0.024,0.005,0.107,-0.161,-0.068,-0.093,-0.083
1.328,0.005,0.044,0.039,-0.024,-0.02,0.039,0.005,0.107,-0.151,-0.059,-0.083,-0.073
1.33,0.015,0.049,0.034,-0.029,-0.01,0.039,-0.005,0.107,-0.151,-0.059,-0.083,-0.073
1.332,0.015,0.049,0.034,-0.029,-0.01,0.039,-0.005,0.102,-0.151,-0.059,-0.083,-0.073
1.334,0.015,0.049,0.034,-0.029,-0.01,0.039,-0.01,0.102,-0.151,-0.059,-0.083,-0.068
1.336,0.02,0.049,0.029,-0.034,-0.005,0.039,-0.02,0.102,-0.151,-0.049,-0.078,-0.049
1.338,0.029,0.059,0.029,-0.044,0.0,0.044,-0.02,0.102,-0.146,-0.049,-0.078,-0.044
1.34,0.034,0.063,0.029,-0.049,0.0,0.044,-0.02,0.102,-0.146,-0.044,-0.068,-0.039
1.342,0.039,0.063,0.024,-0.049,0.005,0.044,-0.024,0.098,-0.142,-0.039,-0.063,-0.034
1.344,0.039,0.059,0.02,-0.049,0.01,0.039,-0.024,0.098,-0.127,-0.024,-0.044,-0.024
1.346,0.044,0.068,0.024,-0.054,0.01,0.044,-0.024,0.098,-0.127,-0.02,-0.039,-0.02
1.348,0.044,0.059,0.015,-0.049,0.015,0.034,-0.029,0.098,-0.122,-0.01,-0.029,-0.015
1.35,0.054,0.059,0.005,-0.054,0.024,0.029,-0.029,0.093,-0.117,-0.005,-0.015,-0.005
1.352,0.049,0.073,0.024,-0.059,0.01,0.049,-0.029,0.078,-0.122,0.0,-0.015,0.0
1.354,0.054,0.073,0.02,-0.063,0.015,0.044,-0.029,0.078,-0.117,0.01,-0.005,0.005
1.356,0.054,0.063,0.01,-0.059,0.02,0.034,-0.029,0.073,-0.117,0.015,-0.005,0.015
1.358,0.054,0.063,0.01,-0.059,0.02,0.034,-0.029,0.068,-0.112,0.02,0.005,0.02
1.36,0.054,0.054,0.0,-0.054,0.024,0.024,-0.024,0.063,-0.112,0.02,0.0,0.024
1.362,0.049,0.054,0.005,-0.049,0.02,0.029,-0.024,0.059,-0.112,0.024,0.005,0.024
1.364,0.049,0.049,0.0,-0.049,0.024,0.024,-0.024,0.054,-0.112,0.024,0.01,0.024
1.366,0.049,0.049,0.0,-0.049,0.024,0.024,-0.024,0.039,-0.112,0.024,0.015,0.024
1.368,0.039,0.039,0.0,-0.039,0.02,0.02,-0.015,0.039,-0.122,0.02,0.005,0.015
1.37,0.039,0.034,-0.005,-0.034,0.02,0.015,-0.015,0.034,-0.122,0.02,0.005,0.02
1.372,0.029,0.034,0.005,-0.029,0.01,0.02,-0.01,0.024,-0.132,0.02,0.01,0.02
1.374,0.024,0.029,0.005,-0.024,0.01,0.015,-0.01,0.02,-0.132,0.02,0.01,0.02
1.376,0.034,0.015,-0.02,-0.024,0.024,-0.005,-0.01,0.015,-0.146,0.015,0.0,0.005
1.378,0.029,0.015,-0.015,-0.02,0.02,0.0,-0.005,0.01,-0.151,0.01,0.0,0.005
1.38,0.029,0.01,-0.02,-0.02,0.024,-0.005,-0.005,0.005,-0.151,0.005,-0.005,0.0
1.382,0.024,0.01,-0.015,-0.015,0.02,-0.005,0.0,0.0,-0.151,0.0,-0.01,-0.005
1.384,0.01,0.005,-0.005,-0.005,0.005,0.0,0.0,-0.005,-0.146,-0.01,-0.02,-0.005
1.386,0.005,0.0,-0.005,0.0,0.005,-0.005,0.0,-0.01,-0.156,-0.01,-0.02,-0.005
1.388,0.0,-0.01,-0.01,0.005,0.005,-0.01,0.005,-0.015,-0.161,-0.01,-0.02,-0.005
1.39,0.0,-0.015,-0.015,0.01,0.005,-0.015,0.005,-0.02,-0.166,-0.01,-0.024,-0.01
1.392,0.005,-0.01,-0.015,0.005,0.01,-0.015,0.01,-0.034,-0.171,-0.015,-0.029,-0.024
1.394,0.0,-0.01,-0.01,0.005,0.005,-0.01,0.01,-0.039,-0.171,-0.02,-0.034,-0.024
1.396,0.0,-0.01,-0.01,0.005,0.005,-0.01,0.01,-0.039,-0.176,-0.024,-0.034,-0.024
1.398,0.01,-0.005,-0.015,0.0,0.01,-0.01,0.01,-0.044,-0.176,-0.024,-0.034,-0.024
1.4,0.0,-0.015,-0.015,0.01,0.005,-0.015,0.01,-0.049,-0.176,-0.029,-0.049,-0.024
1.402,0.0,-0.015,-0.015,0.01,0.005,-0.015,0.01,-0.049,-0.181,-0.029,-0.049,-0.029
1.404,0.0,-0.015,-0.015,0.01,0.005,-0.015,0.01,-0.054,-0.185,-0.029,-0.049,-0.029
1.406,-0.005,-0.02,-0.015,0.015,0.005,-0.02,0.01,-0.054,-0.185,-0.034,-0.049,-0.029
1.408,-0.005,-0.015,-0.01,0.01,0.0,-0.015,0.01,-0.054,-0.176,-0.044,-0.049,-0.029
1.41,-0.01,-0.015,-0.005,0.015,-0.005,-0.01,0.015,-0.059,-0.185,-0.039,-0.054,-0.034
1.412,-0.01,-0.015,-0.005,0.015,-0.005,-0.01,0.015,-0.063,-0.185,-0.039,-0.054,-0.039
1.414,-0.005,-0.015,-0.01,0.01,0.0,-0.015,0.015,-0.063,-0.185,-0.039,-0.054,-0.039
1.416,0.005,-0.015,-0.02,0.005,0.01,-0.02,0.01,-0.073,-0.195,-0.044,-0.054,-0.039
1.418,0.005,-0.015,-0.02,0.005,0.01,-0.02,0.01,-0.073,-0.195,-0.044,-0.063,-0.039
1.42,0.0,-0.02,-0.02,0.01,0.01,-0.02,0.01,-0.073,-0.195,-0.044,-0.063,-0.039
1.422,0.0,-0.02,-0.02,0.01,0.01,-0.02,0.01,-0.073,-0.195,-0.044,-0.063,-0.039
1.424,0.0,-0.02,-0.02,0.01,0.01,-0.02,0.02,-0.073,-0.19,-0.044,-0.063,-0.039
1.426,0.0,-0.02,-0.02,0.01,0.01,-0.02,0.02,-0.073,-0.195,-0.044,-0.063,-0.039
1.428,0.0,-0.02,-0.02,0.01,0.01,-0.02,0.02,-0.073,-0.195,-0.044,-0.063,-0.044
1.43,0.0,-0.02,-0.02,0.01,0.01,-0.02,0.015,-0.078,-0.195,-0.044,-0.063,-0.044
1.432,-0.005,-0.02,-0.015,0.015,0.005,-0.02,0.015,-0.068,-0.19,-0.044,-0.063,-0.044
1.434,-0.005,-0.02,-0.015,0.015,0.005,-0.02,0.015,-0.068,-0.19,-0.044,-0.063,-0.044
1.436,-0.01,-0.02,-0.01,0.015,0.0,-0.015,0.015,-0.078,-0.19,-0.049,-0.068,-0.044
1.438,-0.01,-0.015,-0.005,0.015,-0.005,-0.01,0.015,-0.078,-0.19,-0.049,-0.068,-0.049
1.44,0.0,-0.024,-0.024,0.015,0.01,-0.024,0.015,-0.078,-0.185,-0.049,-0.059,-0.049
1.442,-0.005,-0.024,-0.02,0.015,0.005,-0.024,0.015,-0.078,-0.185,-0.049,-0.059,-0.049
1.444,-0.005,-0.024,-0.02,0.015,0.005,-0.024,0.015,-0.078,-0.185,-0.049,-0.059,-0.049
1.446,-0.005,-0.024,-0.02,0.015,0.005,-0.024,0.015,-0.078,-0.185,-0.049,-0.059,-0.049
1.448,0.0,-0.02,-0.02,0.01,0.01,-0.02,0.005,-0.088,-0.195,-0.049,-0.068,-0.059
1.45,0.0,-0.015,-0.015,0.01,0.005,-0.015,0.0,-0.088,-0.195,-0.049,-0.068,-0.063
1.452,0.0,-0.01,-0.01,0.005,0.005,-0.01,0.0,-0.088,-0.195,-0.049,-0.068,-0.068
1.454,0.0,-0.005,-0.005,0.005,0.0,-0.005,0.0,-0.088,-0.195,-0.049,-0.063,-0.073
1.456,0.0,-0.01,-0.01,0.005,0.005,-0.01,0.0,-0.088,-0.195,-0.054,-0.073,-0.078
1.458,0.0,-0.01,-0.01,0.005,0.005,-0.01,0.0,-0.088,-0.195,-0.054,-0.073,-0.078
1.46,0.0,-0.005,-0.005,0.005,0.0,-0.005,0.005,-0.088,-0.195,-0.049,-0.073,-0.078
1.462,-0.01,-0.005,0.005,0.01,-0.01,0.0,0.005,-0.083,-0.195,-0.049,-0.073,-0.078
1.464,-0.01,-0.005,0.005,0.01,-0.01,0.0,0.005,-0.073,-0.19,-0.039,-0.073,-0.083
1.466,-0.005,-0.005,0.0,0.005,-0.005,-0.005,0.005,-0.073,-0.19,-0.044,-0.068,-0.083
1.468,-0.005,-0.005,0.0,0.005,-0.005,-0.005,0.005,-0.073,-0.19,-0.044,-0.063,-0.083
1.47,-0.005,-0.005,0.0,0.005,-0.005,-0.005,0.005,-0.073,-0.19,-0.044,-0.059,-0.083
1.472,-0.005,0.0,0.005,0.005,-0.005,0.0,0.005,-0.083,-0.2,-0.054,-0.059,-0.083
1.474,-0.005,0.0,0.005,0.005,-0.005,0.0,0.005,-0.088,-0.2,-0.054,-0.059,-0.083
1.476,-0.005,0.0,0.005,0.005,-0.005,0.0,0.005,-0.088,-0.195,-0.049,-0.059,-0.083
1.478,-0.005,0.0,0.005,0.005,-0.005,0.0,0.005,-0.083,-0.195,-0.049,-0.059,-0.078
1.48,-0.015,0.0,0.015,0.01,-0.015,0.005,0.005,-0.073,-0.195,-0.039,-0.054,-0.088
1.482,-0.015,0.0,0.015,0.01,-0.015,0.005,0.01,-0.068,-0.19,-0.034,-0.054,-0.083
1.484,-0.015,0.0,0.015,0.01,-0.015,0.005,0.01,-0.068,-0.19,-0.034,-0.059,-0.083
1.486,-0.015,0.0,0.015,0.01,-0.015,0.005,0.005,-0.068,-0.19,-0.034,-0.059,-0.083
1.488,-0.01,0.0,0.01,0.005,-0.01,0.005,0.005,-0.078,-0.19,-0.044,-0.059,-0.078
1.49,-0.01,0.0,0.01,0.005,-0.01,0.005,0.005,-0.078,-0.19,-0.044,-0.059,-0.078
1.492,-0.01,0.0,0.01,0.005,-0.01,0.005,0.005,-0.078,-0.195,-0.044,-0.059,-0.078
1.494,-0.01,0.0,0.01,0.005,-0.01,0.005,0.005,-0.078,-0.195,-0.044,-0.054,-0.078
1.496,0.0,0.0,0.0,0.0,0.0,0.0,0.005,-0.078,-0.195,-0.034,-0.059,-0.068
1.498,-0.005,0.005,0.01,0.0,-0.01,0.005,0.0,-0.073,-0.195,-0.034,-0.059,-0.073
1.5,-0.005,0.01,0.015,0.0,-0.01,0.01,0.0,-0.073,-0.195,-0.034,-0.059,-0.073
1.502,-0.005,0.01,0.015,0.0,-0.01,0.01,0.0,-0.073,-0.195,-0.034,-0.059,-0.073
1.504,-0.015,0.01,0.024,0.005,-0.02,0.015,0.01,-0.073,-0.185,-0.034,-0.049,-0.063
1.506,-0.015,0.01,0.024,0.005,-0.02,0.015,0.01,-0.073,-0.181,-0.034,-0.054,-0.059
1.508,-0.005,0.005,0.01,0.0,-0.01,0.005,0.01,-0.073,-0.181,-0.029,-0.054,-0.054
1.51,-0.005,0.0,0.005,0.005,-0.005,0.0,0.01,-0.073,-0.181,-0.024,-0.054,-0.054
1.512,-0.005,0.01,0.015,0.0,-0.01,0.01,0.0,-0.068,-0.181,-0.029,-0.063,-0.063
1.514,-0.005,0.01,0.015,0.0,-0.01,0.01,0.0,-0.068,-0.181,-0.029,-0.063,-0.063
1.516,-0.005,0.01,0.015,0.0,-0.01,0.01,0.0,-0.068,-0.181,-0.029,-0.059,-0.063
1.518,-0.015,0.015,0.029,0.0,-0.024,0.02,0.0,-0.068,-0.176,-0.029,-0.059,-0.068
1.52,-0.005,0.015,0.02,-0.005,-0.015,0.015,-0.01,-0.059,-0.181,-0.029,-0.059,-0.068
1.522,-0.005,0.015,0.02,-0.005,-0.015,0.015,-0.01,-0.059,-0.176,-0.029,-0.054,-0.068
1.524,-0.005,0.015,0.02,-0.005,-0.015,0.015,-0.01,-0.059,-0.176,-0.029,-0.054,-0.068
1.526,0.0,0.015,0.015,-0.005,-0.01,0.015,-0.01,-0.059,-0.181,-0.029,-0.059,-0.063
1.528,-0.005,0.015,0.02,-0.005,-0.015,0.015,0.0,-0.054,-0.181,-0.024,-0.049,-0.063
1.53,-0.005,0.015,0.02,-0.005,-0.015,0.015,0.0,-0.054,-0.176,-0.024,-0.049,-0.063
1.532,-0.005,0.02,0.024,-0.005,-0.015,0.02,0.0,-0.054,-0.176,-0.024,-0.049,-0.063
1.534,-0.005,0.02,0.024,-0.005,-0.015,0.02,0.0,-0.054,-0.176,-0.024,-0.044,-0.063
1.536,0.005,0.024,0.02,-0.015,-0.01,0.02,-0.01,-0.063,-0.181,-0.024,-0.049,-0.049
1.538,0.005,0.024,0.02,-0.015,-0.01,0.02,-0.005,-0.063,-0.176,-0.024,-0.049,-0.049
1.54,0.005,0.024,0.02,-0.015,-0.01,0.02,-0.005,-0.059,-0.176,-0.024,-0.049,-0.049
1.542,0.005,0.024,0.02,-0.015,-0.01,0.02,-0.01,-0.059,-0.171,-0.024,-0.049,-0.054
1.544,-0.01,0.024,0.034,-0.005,-0.024,0.029,-0.01,-0.059,-0.171,-0.01,-0.044,-0.044
1.546,-0.01,0.024,0.034,-0.005,-0.024,0.029,-0.01,-0.059,-0.171,-0.01,-0.044,-0.044
1.548,0.0,0.024,0.024,-0.01,-0.015,0.024,-0.01,-0.059,-0.171,-0.01,-0.044,-0.044
1.55,0.0,0.029,0.029,-0.015,-0.015,0.029,-0.01,-0.059,-0.171,-0.01,-0.044,-0.044
1.552,0.0,0.029,0.029,-0.015,-0.015,0.029,-0.01,-0.059,-0.161,-0.01,-0.044,-0.054
1.554,0.0,0.029,0.029,-0.015,-0.015,0.029,-0.01,-0.059,-0.166,-0.01,-0.044,-0.054
1.556,0.0,0.029,0.029,-0.015,-0.015,0.029,-0.01,-0.059,-0.166,-0.015,-0.044,-0.054
1.558,0.0,0.029,0.029,-0.015,-0.015,0.029,-0.01,-0.059,-0.161,-0.015,-0.044,-0.059
1.56,0.0,0.02,0.02,-0.01,-0.01,0.02,-0.01,-0.049,-0.142,-0.015,-0.044,-0.059
1.562,0.0,0.015,0.015,-0.005,-0.01,0.015,-0.01,-0.049,-0.122,-0.015,-0.044,-0.059
1.564,-0.005,0.015,0.02,-0.005,-0.015,0.015,-0.01,-0.049,-0.102,-0.01,-0.044,-0.059
1.566,-0.005,0.02,0.024,-0.005,-0.015,0.02,-0.01,-0.049,-0.088,-0.01,-0.044,-0.059
1.568,-0.005,0.02,0.024,-0.005,-0.015,0.02,-0.005,-0.049,-0.078,-0.01,-0.044,-0.054
1.57,-0.005,0.02,0.024,-0.005,-0.015,0.02,-0.005,-0.049,-0.068,-0.01,-0.044,-0.054
1.572,-0.005,0.02,0.024,-0.005,-0.015,0.02,-0.005,-0.049,-0.059,-0.01,-0.044,-0.054
1.574,-0.005,0.02,0.024,-0.005,-0.015,0.02,-0.005,-0.049,-0.049,-0.01,-0.044,-0.054
1.576,0.005,0.029,0.024,-0.015,-0.01,0.024,-0.01,-0.059,-0.059,-0.02,-0.049,-0.068
1.578,0.005,0.034,0.029,-0.02,-0.015,0.029,-0.01,-0.059,-0.054,-0.02,-0.049,-0.068
1.58,0.005,0.034,0.029,-0.02,-0.015,0.029,-0.01,-0.059,-0.054,-0.02,-0.044,-0.068
1.582,0.005,0.029,0.024,-0.015,-0.01,0.024,-0.01,-0.059,-0.054,-0.024,-0.044,-0.073
1.584,-0.01,0.02,0.029,-0.005,-0.02,0.024,-0.01,-0.059,-0.044,-0.015,-0.034,-0.068
1.586,-0.01,0.02,0.029,-0.005,-0.02,0.024,-0.01,-0.059,-0.044,-0.015,-0.039,-0.063
1.588,-0.01,0.015,0.024,0.0,-0.02,0.02,-0.01,-0.059,-0.049,-0.015,-0.039,-0.063
1.59,-0.01,0.015,0.024,0.0,-0.02,0.02,-0.01,-0.063,-0.049,-0.02,-0.039,-0.059
1.592,0.0,0.02,0.02,-0.01,-0.01,0.02,-0.01,-0.063,-0.049,-0.02,-0.049,-0.059
1.594,0.0,0.02,0.02,-0.01,-0.01,0.02,-0.015,-0.063,-0.049,-0.02,-0.049,-0.059
1.596,0.005,0.015,0.01,-0.01,-0.005,0.01,-0.015,-0.063,-0.049,-0.02,-0.049,-0.063
1.598,0.005,0.015,0.01,-0.01,-0.005,0.01,-0.01,-0.063,-0.049,-0.02,-0.049,-0.063
1.6,0.0,0.01,0.01,-0.005,-0.005,0.01,-0.02,-0.063,-0.054,-0.02,-0.049,-0.063
1.602,0.0,0.01,0.01,-0.005,-0.005,0.01,-0.02,-0.063,-0.054,-0.02,-0.049,-0.063
1.604,-0.005,0.01,0.015,0.0,-0.01,0.01,-0.02,-0.063,-0.054,-0.02,-0.054,-0.063
1.606,-0.005,0.01,0.015,0.0,-0.01,0.01,-0.02,-0.063,-0.054,-0.02,-0.054,-0.063
1.608,-0.01,0.01,0.02,0.0,-0.015,0.015,-0.024,-0.063,-0.054,-0.02,-0.044,-0.059
1.61,-0.01,0.015,0.024,0.0,-0.02,0.02,-0.024,-0.063,-0.054,-0.02,-0.044,-0.059
1.612,-0.01,0.02,0.029,-0.005,-0.02,0.024,-0.024,-0.068,-0.054,-0.02,-0.044,-0.063
1.614,-0.01,0.02,0.029,-0.005,-0.02,0.024,-0.024,-0.068,-0.059,-0.02,-0.044,-0.063
1.616,-0.005,0.01,0.015,0.0,-0.01,0.01,-0.024,-0.059,-0.068,-0.024,-0.044,-0.054
1.618,-0.005,0.01,0.015,0.0,-0.01,0.01,-0.024,-0.059,-0.063,-0.024,-0.049,-0.054
1.62,-0.005,0.01,0.015,0.0,-0.01,0.01,-0.024,-0.059,-0.063,-0.029,-0.049,-0.049
1.622,0.0,0.01,0.01,-0.005,-0.005,0.01,-0.024,-0.059,-0.063,-0.029,-0.049,-0.049
1.624,-0.015,0.01,0.024,0.005,-0.02,0.015,-0.015,-0.059,-0.059,-0.024,-0.049,-0.049
1.626,-0.015,0.01,0.024,0.005,-0.02,0.015,-0.015,-0.059,-0.054,-0.024,-0.049,-0.049
1.628,-0.01,0.005,0.015,0.005,-0.015,0.01,-0.015,-0.059,-0.049,-0.02,-0.049,-0.049
1.63,-0.005,0.005,0.01,0.0,-0.01,0.005,-0.015,-0.063,-0.044,-0.02,-0.049,-0.049
1.632,-0.005,0.005,0.01,0.0,-0.01,0.005,-0.029,-0.063,-0.049,-0.02,-0.049,-0.049
1.634,-0.005,0.01,0.015,0.0,-0.01,0.01,-0.029,-0.063,-0.054,-0.024,-0.049,-0.049
1.636,-0.005,0.01,0.015,0.0,-0.01,0.01,-0.024,-0.063,-0.054,-0.029,-0.049,-0.054
1.638,-0.005,0.01,0.015,0.0,-0.01,0.01,-0.024,-0.063,-0.054,-0.029,-0.049,-0.054
1.64,0.0,-0.005,-0.005,0.005,0.0,-0.005,-0.024,-0.063,-0.044,-0.029,-0.039,-0.049
1.642,0.0,-0.005,-0.005,0.005,0.0,-0.005,-0.024,-0.063,-0.044,-0.029,-0.039,-0.044
1.644,-0.01,0.005,0.015,0.005,-0.015,0.01,-0.024,-0.063,-0.044,-0.029,-0.039,-0.044
1.646,-0.01,0.005,0.015,0.005,-0.015,0.01,-0.029,-0.063,-0.044,-0.029,-0.039,-0.044
1.648,-0.005,0.01,0.015,0.0,-0.01,0.01,-0.029,-0.063,-0.044,-0.029,-0.039,-0.034
1.65,-0.01,0.005,0.015,0.005,-0.015,0.01,-0.024,-0.063,-0.044,-0.029,-0.034,-0.034
1.652,-0.01,0.005,0.015,0.005,-0.015,0.01,-0.024,-0.063,-0.044,-0.029,-0.034,-0.034
1.654,-0.015,0.005,0.02,0.005,-0.02,0.01,-0.029,-0.068,-0.049,-0.034,-0.039,-0.034
1.656,-0.01,0.0,0.01,0.005,-0.01,0.005,-0.029,-0.068,-0.059,-0.034,-0.049,-0.034
1.658,-0.01,0.0,0.01,0.005,-0.01,0.005,-0.029,-0.068,-0.059,-0.034,-0.049,-0.034
1.66,-0.005,0.0,0.005,0.005,-0.005,0.0,-0.034,-0.068,-0.059,-0.034,-0.049,-0.034
1.662,-0.005,0.0,0.005,0.005,-0.005,0.0,-0.034,-0.068,-0.059,-0.034,-0.049,-0.034
1.664,-0.015,0.01,0.024,0.005,-0.02,0.015,-0.02,-0.063,-0.059,-0.024,-0.049,-0.044
1.666,-0.02,0.01,0.029,0.005,-0.024,0.02,-0.02,-0.063,-0.059,-0.024,-0.049,-0.044
1.668,-0.01,0.005,0.015,0.005,-0.015,0.01,-0.02,-0.063,-0.059,-0.024,-0.049,-0.044
1.67,-0.015,0.005,0.02,0.005,-0.02,0.01,-0.02,-0.063,-0.054,-0.024,-0.049,-0.044
1.672,-0.015,0.0,0.015,0.01,-0.015,0.005,-0.024,-0.063,-0.063,-0.034,-0.049,-0.044
1.674,-0.01,0.0,0.01,0.005,-0.01,0.005,-0.029,-0.068,-0.068,-0.034,-0.049,-0.049
1.676,-0.01,0.0,0.01,0.005,-0.01,0.005,-0.029,-0.068,-0.068,-0.034,-0.054,-0.049
1.678,-0.02,0.0,0.02,0.01,-0.02,0.01,-0.024,-0.068,-0.063,-0.034,-0.054,-0.049
1.68,-0.01,0.0,0.01,0.005,-0.01,0.005,-0.024,-0.068,-0.063,-0.029,-0.054,-0.049
1.682,-0.01,-0.005,0.005,0.01,-0.01,0.0,-0.024,-0.073,-0.063,-0.029,-0.054,-0.049
1.684,-0.015,-0.005,0.01,0.01,-0.015,0.0,-0.024,-0.073,-0.063,-0.029,-0.054,-0.049
1.686,-0.015,-0.005,0.01,0.01,-0.015,0.0,-0.024,-0.073,-0.063,-0.029,-0.059,-0.049
1.688,-0.015,0.005,0.02,0.005,-0.02,0.01,-0.024,-0.063,-0.068,-0.029,-0.059,-0.049
1.69,-0.015,0.005,0.02,0.005,-0.02,0.01,-0.024,-0.063,-0.063,-0.024,-0.059,-0.049
1.692,-0.015,0.005,0.02,0.005,-0.02,0.01,-0.024,-0.063,-0.063,-0.024,-0.059,-0.049
1.694,-0.015,0.005,0.02,0.005,-0.02,0.01,-0.024,-0.068,-0.068,-0.029,-0.059,-0.049
1.696,-0.015,-0.005,0.01,0.01,-0.015,0.0,-0.024,-0.068,-0.068,-0.029,-0.059,-0.049
1.698,-0.015,-0.005,0.01,0.01,-0.015,0.0,-0.024,-0.068,-0.068,-0.029,-0.059,-0.049
1.7,-0.01,0.0,0.01,0.005,-0.01,0.005,-0.029,-0.068,-0.073,-0.029,-0.059,-0.049
1.702,-0.005,0.0,0.005,0.005,-0.005,0.0,-0.029,-0.068,-0.073,-0.029,-0.059,-0.049
1.704,-0.015,0.01,0.024,0.005,-0.02,0.015,-0.02,-0.063,-0.068,-0.029,-0.059,-0.044
1.706,-0.015,0.01,0.024,0.005,-0.02,0.015,-0.024,-0.063,-0.068,-0.029,-0.059,-0.044
1.708,-0.01,0.005,0.015,0.005,-0.015,0.01,-0.024,-0.068,-0.068,-0.029,-0.059,-0.044
1.71,-0.005,0.0,0.005,0.005,-0.005,0.0,-0.02,-0.068,-0.063,-0.029,-0.059,-0.044
1.712,-0.015,0.0,0.015,0.01,-0.015,0.005,-0.02,-0.068,-0.054,-0.029,-0.059,-0.044
1.714,-0.02,0.0,0.02,0.01,-0.02,0.01,-0.02,-0.068,-0.054,-0.029,-0.059,-0.044
1.716,-0.02,0.0,0.02,0.01,-0.02,0.01,-0.015,-0.068,-0.049,-0.029,-0.059,-0.044
1.718,-0.024,0.005,0.029,0.01,-0.029,0.015,-0.015,-0.068,-0.044,-0.029,-0.059,-0.044
1.72,-0.015,-0.005,0.01,0.01,-0.015,0.0,-0.015,-0.078,-0.054,-0.034,-0.059,-0.049
1.722,-0.015,-0.01,0.005,0.015,-0.01,-0.005,-0.015,-0.078,-0.054,-0.034,-0.059,-0.054
1.724,-0.015,-0.01,0.005,0.015,-0.01,-0.005,-0.015,-0.078,-0.054,-0.034,-0.059,-0.054
1.726,-0.015,-0.01,0.005,0.015,-0.01,-0.005,-0.015,-0.073,-0.054,-0.034,-0.059,-0.049
1.728,-0.015,0.0,0.015,0.01,-0.015,0.005,-0.02,-0.073,-0.044,-0.034,-0.059,-0.054
1.73,-0.015,0.0,0.015,0.01,-0.015,0.005,-0.02,-0.073,-0.044,-0.034,-0.059,-0.054
1.732,-0.01,0.0,0.01,0.005,-0.01,0.005,-0.02,-0.073,-0.044,-0.034,-0.059,-0.054
1.734,-0.01,0.0,0.01,0.005,-0.01,0.005,-0.02,-0.073,-0.044,-0.034,-0.059,-0.059
1.736,-0.01,0.0,0.01,0.005,-0.01,0.005,-0.02,-0.068,-0.034,-0.049,-0.068,-0.054
1.738,-0.01,0.0,0.01,0.005,-0.01,0.005,-0.015,-0.073,-0.029,-0.049,-0.068,-0.054
1.74,-0.01,0.0,0.01,0.005,-0.01,0.005,-0.015,-0.073,-0.029,-0.049,-0.068,-0.054
1.742,-0.01,0.0,0.01,0.005,-0.01,0.005,-0.015,-0.073,-0.029,-0.049,-0.068,-0.054
1.744,-0.01,0.0,0.01,0.005,-0.01,0.005,-0.015,-0.073,-0.029,-0.039,-0.059,-0.059
1.746,-0.024,-0.005,0.02,0.015,-0.024,0.005,-0.01,-0.068,-0.02,-0.039,-0.049,-0.054
1.748,-0.01,0.0,0.01,0.005,-0.01,0.005,-0.01,-0.078,-0.029,-0.039,-0.059,-0.059
1.75,-0.01,0.0,0.01,0.005,-0.01,0.005,-0.02,-0.078,-0.029,-0.049,-0.068,-0.059
1.752,-0.01,0.0,0.01,0.005,-0.01,0.005,-0.02,-0.078,-0.029,-0.049,-0.068,-0.059
1.754,-0.01,0.0,0.01,0.005,-0.01,0.005,-0.02,-0.078,-0.029,-0.049,-0.068,-0.059
1.756,-0.01,0.0,0.01,0.005,-0.01,0.005,-0.02,-0.078,-0.029,-0.049,-0.068,-0.059
1.758,-0.01,-0.01,0.0,0.01,-0.005,-0.005,-0.01,-0.078,-0.02,-0.039,-0.068,-0.059
1.76,-0.01,-0.01,0.0,0.01,-0.005,-0.005,-0.01,-0.078,-0.02,-0.039,-0.068,-0.059
1.762,-0.01,-0.01,0.0,0.01,-0.005,-0.005,-0.01,-0.078,-0.02,-0.039,-0.068,-0.059
1.764,-0.01,-0.01,0.0,0.01,-0.005,-0.005,-0.01,-0.078,-0.02,-0.039,-0.068,-0.059
1.766,-0.01,0.0,0.01,0.005,-0.01,0.005,-0.01,-0.068,-0.029,-0.049,-0.078,-0.059
1.768,-0.01,0.0,0.01,0.005,-0.01,0.005,-0.01,-0.068,-0.029,-0.049,-0.078,-0.059
1.77,-0.01,0.0,0.01,0.005,-0.01,0.005,-0.01,-0.068,-0.029,-0.049,-0.078,-0.059
1.772,-0.01,0.0,0.01,0.005,-0.01,0.005,-0.01,-0.068,-0.029,-0.049,-0.078,-0.059
1.774,-0.01,-0.01,0.0,0.01,-0.005,-0.005,-0.01,-0.068,-0.029,-0.049,-0.078,-0.059
1.776,-0.01,-0.01,0.0,0.01,-0.005,-0.005,-0.01,-0.068,-0.029,-0.049,-0.078,-0.059
1.778,-0.01,-0.01,0.0,0.01,-0.005,-0.005,-0.01,-0.068,-0.029,-0.049,-0.078,-0.059
1.78,-0.01,-0.01,0.0,0.01,-0.005,-0.005,-0.01,-0.068,-0.029,-0.049,-0.078,-0.059
1.782,-0.02,0.0,0.02,0.01,-0.02,0.01,-0.01,-0.059,-0.02,-0.039,-0.078,-0.049
1.784,-0.02,0.0,0.02,0.01,-0.02,0.01,-0.01,-0.059,-0.02,-0.039,-0.078,-0.049
1.786,-0.02,0.0,0.02,0.01,-0.02,0.01,-0.01,-0.059,-0.02,-0.039,-0.078,-0.049
1.788,-0.02,0.0,0.02,0.01,-0.02,0.01,-0.01,-0.059,-0.02,-0.039,-0.078,-0.049
1.79,-0.01,0.01,0.02,0.0,-0.015,0.015,-0.01,-0.059,-0.02,-0.049,-0.088,-0.059
1.792,-0.01,0.01,0.02,0.0,-0.015,0.015,-0.01,-0.059,-0.02,-0.049,-0.088,-0.059
1.794,-0.01,0.01,0.02,0.0,-0.015,0.015,-0.01,-0.059,-0.02,-0.049,-0.088,-0.059
1.796,-0.01,0.01,0.02,0.0,-0.015,0.015,-0.01,-0.059,-0.02,-0.049,-0.088,-0.059
1.798,-0.02,0.0,0.02,0.01,-0.02,0.01,-0.01,-0.059,-0.01,-0.049,-0.078,-0.049
1.8,-0.02,0.0,0.02,0.01,-0.02,0.01,-0.01,-0.059,-0.01,-0.049,-0.078,-0.049
1.802,-0.02,0.0,0.02,0.01,-0.02,0.01,-0.01,-0.059,-0.01,-0.049,-0.078,-0.049
1.804,-0.02,0.0,0.02,0.01,-0.02,0.01,-0.01,-0.059,-0.01,-0.049,-0.078,-0.049
1.806,-0.01,0.0,0.01,0.005,-0.01,0.005,-0.01,-0.059,-0.01,-0.049,-0.088,-0.059
1.808,-0.01,0.0,0.01,0.005,-0.01,0.005,-0.01,-0.059,-0.01,-0.049,-0.088,-0.059
1.81,-0.01,0.0,0.01,0.005,-0.01,0.005,-0.01,-0.059,-0.01,-0.049,-0.088,-0.059
1.812,-0.01,0.0,0.01,0.005,-0.01,0.005,-0.01,-0.059,-0.01,-0.049,-0.088,-0.059
1.814,-0.01,0.0,0.01,0.005,-0.01,0.005,-0.01,-0.059,-0.01,-0.049,-0.098,-0.068
1.816,-0.01,0.0,0.01,0.005,-0.01,0.005,-0.01,-0.059,-0.01,-0.049,-0.098,-0.068
1.818,-0.01,0.0,0.01,0.005,-0.01,0.005,-0.01,-0.059,-0.01,-0.049,-0.098,-0.068
1.82,-0.01,0.0,0.01,0.005,-0.01,0.005,-0.01,-0.059,-0.01,-0.049,-0.098,-0.068
1.822,-0.01,-0.01,0.0,0.01,-0.005,-0.005,-0.01,-0.049,0.0,-0.049,-0.088,-0.068
1.824,-0.01,-0.01,0.0,0.01,-0.005,-0.005,-0.01,-0.049,0.0,-0.049,-0.088,-0.068
1.826,-0.01,-0.01,0.0,0.01,-0.005,-0.005,-0.01,-0.049,0.0,-0.049,-0.088,-0.068
1.828,-0.01,-0.01,0.0,0.01,-0.005,-0.005,-0.01,-0.049,0.0,-0.049,-0.088,-0.068
1.83,0.0,-0.005,-0.005,0.005,0.0,-0.005,-0.02,-0.049,0.0,-0.049,-0.098,-0.078
1.832,0.0,0.0,0.0,0.0,0.0,0.0,-0.02,-0.049,0.0,-0.049,-0.098,-0.078
1.834,0.0,0.005,0.005,0.0,-0.005,0.005,-0.02,-0.049,0.0,-0.049,-0.098,-0.078
1.836,0.0,0.01,0.01,-0.005,-0.005,0.01,-0.02,-0.049,0.0,-0.049,-0.098,-0.078
1.838,-0.01,0.0,0.01,0.005,-0.01,0.005,-0.02,-0.049,0.0,-0.039,-0.098,-0.078
1.84,-0.01,0.0,0.01,0.005,-0.01,0.005,-0.02,-0.049,0.0,-0.039,-0.098,-0.078
1.842,-0.01,0.0,0.01,0.005,-0.01,0.005,-0.02,-0.049,0.0,-0.039,-0.098,-0.078
1.844,-0.01,0.0,0.01,0.005,-0.01,0.005,-0.02,-0.049,0.0,-0.039,-0.098,-0.078
1.846,-0.01,0.0,0.01,0.005,-0.01,0.005,-0.02,-0.059,0.01,-0.049,-0.098,-0.078
1.848,-0.01,0.0,0.01,0.005,-0.01,0.005,-0.02,-0.059,0.01,-0.049,-0.098,-0.078
1.85,-0.01,0.0,0.01,0.005,-0.01,0.005,-0.02,-0.059,0.01,-0.049,-0.098,-0.078
1.852,-0.01,0.0,0.01,0.005,-0.01,0.005,-0.02,-0.059,0.01,-0.049,-0.098,-0.078
1.854,-0.01,0.0,0.01,0.005,-0.01,0.005,-0.02,-0.049,0.01,-0.049,-0.098,-0.078
1.856,-0.01,0.0,0.01,0.005,-0.01,0.005,-0.02,-0.049,0.01,-0.049,-0.098,-0.078
1.858,-0.01,0.0,0.01,0.005,-0.01,0.005,-0.02,-0.049,0.01,-0.049,-0.098,-0.078
1.86,-0.01,0.0,0.01,0.005,-0.01,0.005,-0.02,-0.049,0.01,-0.049,-0.098,-0.078
1.862,-0.02,0.0,0.02,0.01,-0.02,0.01,-0.02,-0.049,0.02,-0.049,-0.088,-0.078
1.864,-0.02,0.0,0.02,0.01,-0.02,0.01,-0.02,-0.049,0.02,-0.049,-0.088,-0.078
1.866,-0.02,0.0,0.02,0.01,-0.02,0.01,-0.02,-0.049,0.024,-0.049,-0.088,-0.078
1.868,-0.02,0.0,0.02,0.01,-0.02,0.01,-0.02,-0.049,0.029,-0.044,-0.088,-0.078
1.87,-0.01,0.01,0.02,0.0,-0.015,0.015,-0.029,-0.049,0.029,-0.044,-0.098,-0.078
1.872,-0.01,0.01,0.02,0.0,-0.015,0.015,-0.029,-0.049,0.029,-0.044,-0.102,-0.073
1.874,-0.01,0.01,0.02,0.0,-0.015,0.015,-0.029,-0.049,0.034,-0.044,-0.102,-0.073
1.876,-0.01,0.01,0.02,0.0,-0.015,0.015,-0.024,-0.049,0.034,-0.044,-0.102,-0.078
1.878,-0.02,0.0,0.02,0.01,-0.02,0.01,-0.024,-0.044,0.044,-0.039,-0.093,-0.068
1.88,-0.02,0.0,0.02,0.01,-0.02,0.01,-0.024,-0.044,0.039,-0.039,-0.093,-0.068
1.882,-0.02,0.005,0.024,0.01,-0.024,0.015,-0.024,-0.044,0.039,-0.039,-0.088,-0.068
1.884,-0.02,0.005,0.024,0.01,-0.024,0.015,-0.024,-0.044,0.039,-0.034,-0.088,-0.068
1.886,-0.02,0.005,0.024,0.01,-0.024,0.015,-0.024,-0.049,0.029,-0.044,-0.088,-0.068
1.888,-0.02,0.005,0.024,0.01,-0.024,0.015,-0.024,-0.049,0.034,-0.044,-0.088,-0.068
1.89,-0.02,0.005,0.024,0.01,-0.024,0.015,-0.024,-0.049,0.039,-0.044,-0.088,-0.068
1.892,-0.02,0.005,0.024,0.01,-0.024,0.015,-0.024,-0.049,0.039,-0.044,-0.088,-0.068
1.894,-0.01,0.0,0.01,0.005,-0.01,0.005,-0.024,-0.044,0.024,-0.034,-0.078,-0.059
1.896,-0.005,0.005,0.01,0.0,-0.01,0.005,-0.02,-0.039,0.02,-0.029,-0.073,-0.059
1.898,0.0,0.005,0.005,0.0,-0.005,0.005,-0.02,-0.039,0.015,-0.029,-0.073,-0.054
1.9,0.0,0.01,0.01,-0.005,-0.005,0.01,-0.01,-0.029,0.01,-0.02,-0.068,-0.054
1.902,-0.005,0.029,0.034,-0.01,-0.02,0.029,0.0,-0.02,-0.029,-0.02,-0.049,-0.049
1.904,0.0,0.034,0.034,-0.015,-0.02,0.034,0.0,-0.02,-0.073,-0.015,-0.049,-0.044
1.906,0.0,0.034,0.034,-0.015,-0.02,0.034,0.005,-0.01,-0.117,-0.015,-0.044,-0.044
1.908,0.01,0.034,0.024,-0.02,-0.01,0.029,0.015,0.0,-0.161,-0.005,-0.034,-0.034
1.91,0.02,0.054,0.034,-0.034,-0.01,0.044,0.02,0.005,-0.185,-0.01,-0.039,-0.034
1.912,0.024,0.054,0.029,-0.039,-0.005,0.039,0.02,0.01,-0.21,-0.005,-0.039,-0.034
1.914,0.029,0.054,0.024,-0.039,0.0,0.039,0.02,0.015,-0.229,0.0,-0.034,-0.029
1.916,0.039,0.049,0.01,-0.044,0.015,0.029,0.024,0.02,-0.249,0.005,-0.034,-0.029
1.918,0.034,0.039,0.005,-0.034,0.015,0.02,0.034,0.024,-0.259,0.015,-0.024,-0.034
1.92,0.034,0.034,0.0,-0.034,0.015,0.015,0.034,0.034,-0.259,0.015,-0.024,-0.034
1.922,0.034,0.034,0.0,-0.034,0.015,0.015,0.034,0.034,-0.259,0.02,-0.02,-0.034
1.924,0.029,0.029,0.0,-0.029,0.015,0.015,0.039,0.034,-0.264,0.02,-0.02,-0.029
1.926,0.039,0.029,-0.01,-0.034,0.024,0.01,0.044,0.034,-0.273,0.015,-0.015,-0.039
1.928,0.049,0.029,-0.02,-0.039,0.034,0.005,0.044,0.054,-0.259,0.024,-0.005,-0.034
1.93,0.054,0.034,-0.02,-0.044,0.034,0.005,0.044,0.054,-0.254,0.029,0.0,-0.029
1.932,0.059,0.034,-0.024,-0.044,0.039,0.005,0.034,0.059,-0.254,0.029,0.0,-0.029
1.934,0.049,0.034,-0.015,-0.039,0.029,0.01,0.034,0.068,-0.254,0.029,0.0,-0.034
1.936,0.049,0.029,-0.02,-0.039,0.034,0.005,0.029,0.068,-0.254,0.029,0.0,-0.034
1.938,0.049,0.015,-0.034,-0.029,0.039,-0.01,0.015,0.054,-0.264,0.024,-0.005,-0.039
1.94,0.044,0.01,-0.034,-0.024,0.039,-0.015,-0.005,0.044,-0.268,0.02,-0.01,-0.039
1.942,0.039,-0.01,-0.049,-0.015,0.044,-0.029,-0.01,0.024,-0.278,0.005,-0.005,-0.039
1.944,0.034,-0.024,-0.059,-0.005,0.044,-0.044,-0.02,0.005,-0.293,-0.01,-0.02,-0.049
1.946,0.034,-0.024,-0.059,-0.005,0.044,-0.044,-0.034,-0.01,-0.307,-0.02,-0.029,-0.059
1.948,0.034,-0.015,-0.049,-0.01,0.039,-0.034,-0.044,-0.024,-0.317,-0.024,-0.039,-0.059
1.95,0.044,-0.005,-0.049,-0.02,0.044,-0.029,-0.049,-0.034,-0.342,-0.044,-0.059,-0.073
1.952,0.044,-0.01,-0.054,-0.015,0.049,-0.034,-0.054,-0.044,-0.342,-0.054,-0.063,-0.083
1.954,0.049,-0.01,-0.059,-0.02,0.054,-0.034,-0.059,-0.034,-0.337,-0.044,-0.063,-0.083
1.956,0.049,-0.01,-0.059,-0.02,0.054,-0.034,-0.059,-0.034,-0.332,-0.044,-0.059,-0.078
1.958,0.039,-0.015,-0.054,-0.01,0.044,-0.034,-0.044,-0.02,-0.322,-0.029,-0.044,-0.073
1.96,0.034,-0.01,-0.044,-0.01,0.039,-0.029,-0.039,-0.015,-0.317,-0.029,-0.039,-0.073
1.962,0.029,-0.01,-0.039,-0.01,0.034,-0.024,-0.039,-0.01,-0.317,-0.029,-0.039,-0.073
1.964,0.02,-0.01,-0.029,-0.005,0.024,-0.02,-0.034,-0.01,-0.322,-0.029,-0.044,-0.073
1.966,0.01,-0.01,-0.02,0.0,0.015,-0.015,-0.029,-0.02,-0.327,-0.049,-0.059,-0.078
1.968,0.0,-0.01,-0.01,0.005,0.005,-0.01,-0.029,-0.029,-0.327,-0.049,-0.063,-0.083
1.97,-0.005,-0.02,-0.015,0.015,0.005,-0.02,-0.029,-0.034,-0.332,-0.054,-0.068,-0.088
1.972,-0.005,-0.02,-0.015,0.015,0.005,-0.02,-0.029,-0.039,-0.332,-0.054,-0.068,-0.088
1.974,0.0,-0.02,-0.02,0.01,0.01,-0.02,-0.029,-0.039,-0.332,-0.054,-0.063,-0.098
1.976,0.0,-0.02,-0.02,0.01,0.01,-0.02,-0.034,-0.039,-0.332,-0.054,-0.063,-0.102
1.978,0.005,-0.015,-0.02,0.005,0.01,-0.02,-0.034,-0.039,-0.337,-0.054,-0.063,-0.102
1.98,0.015,-0.01,-0.024,0.0,0.02,-0.02,-0.039,-0.044,-0.337,-0.059,-0.068,-0.102
1.982,0.02,-0.02,-0.039,0.0,0.029,-0.029,-0.034,-0.034,-0.327,-0.059,-0.059,-0.093
1.984,0.02,-0.015,-0.034,0.0,0.024,-0.024,-0.034,-0.034,-0.337,-0.059,-0.059,-0.093
1.986,0.02,-0.015,-0.034,0.0,0.024,-0.024,-0.029,-0.034,-0.327,-0.059,-0.059,-0.093
1.988,0.01,-0.02,-0.029,0.005,0.02,-0.024,-0.029,-0.034,-0.327,-0.063,-0.059,-0.093
1.99,0.0,-0.034,-0.034,0.02,0.015,-0.034,-0.024,-0.039,-0.327,-0.068,-0.068,-0.093
1.992,-0.02,-0.049,-0.029,0.034,0.005,-0.039,-0.024,-0.044,-0.332,-0.073,-0.068,-0.098
1.994,-0.034,-0.054,-0.02,0.044,-0.01,-0.039,-0.015,-0.044,-0.337,-0.073,-0.068,-0.102
1.996,-0.039,-0.059,-0.02,0.049,-0.01,-0.039,-0.015,-0.044,-0.342,-0.078,-0.068,-0.102
1.998,-0.059,-0.063,-0.005,0.063,-0.029,-0.034,-0.01,-0.039,-0.337,-0.078,-0.063,-0.098
2.0,-0.059,-0.068,-0.01,0.063,-0.024,-0.039,0.0,-0.039,-0.332,-0.073,-0.063,-0.102
2.002,-0.059,-0.073,-0.015,0.068,-0.024,-0.044,0.005,-0.039,-0.327,-0.068,-0.063,-0.107
2.004,-0.059,-0.078,-0.02,0.068,-0.02,-0.049,0.01,-0.039,-0.327,-0.063,-0.068,-0.107
2.006,-0.059,-0.078,-0.02,0.068,-0.02,-0.049,0.0,-0.029,-0.327,-0.063,-0.068,-0.107
2.008,-0.059,-0.078,-0.02,0.068,-0.02,-0.049,0.0,-0.029,-0.327,-0.063,-0.068,-0.102
2.01,-0.059,-0.073,-0.015,0.068,-0.024,-0.044,0.0,-0.029,-0.327,-0.059,-0.068,-0.102
2.012,-0.054,-0.073,-0.02,0.063,-0.02,-0.049,0.0,-0.029,-0.327,-0.059,-0.068,-0.102
2.014,-0.054,-0.083,-0.029,0.068,-0.015,-0.059,0.0,-0.029,-0.317,-0.059,-0.068,-0.102
2.016,-0.054,-0.083,-0.029,0.068,-0.015,-0.059,0.0,-0.029,-0.317,-0.054,-0.068,-0.098
2.018,-0.059,-0.078,-0.02,0.068,-0.02,-0.049,0.005,-0.029,-0.317,-0.054,-0.068,-0.098
2.02,-0.059,-0.078,-0.02,0.068,-0.02,-0.049,0.005,-0.029,-0.317,-0.054,-0.068,-0.098
2.022,-0.068,-0.078,-0.01,0.073,-0.029,-0.044,0.005,-0.024,-0.312,-0.063,-0.063,-0.088
2.024,-0.068,-0.078,-0.01,0.073,-0.029,-0.044,0.005,-0.024,-0.312,-0.063,-0.063,-0.088
2.026,-0.073,-0.078,-0.005,0.078,-0.034,-0.044,0.005,-0.024,-0.312,-0.063,-0.063,-0.088
2.028,-0.073,-0.083,-0.01,0.078,-0.034,-0.049,0.005,-0.024,-0.312,-0.063,-0.063,-0.088
2.03,-0.059,-0.083,-0.024,0.073,-0.02,-0.054,0.005,-0.024,-0.312,-0.063,-0.063,-0.098
2.032,-0.059,-0.083,-0.024,0.073,-0.02,-0.054,0.005,-0.024,-0.312,-0.063,-0.063,-0.098
2.034,-0.059,-0.078,-0.02,0.068,-0.02,-0.049,0.01,-0.024,-0.312,-0.063,-0.068,-0.098
2.036,-0.068,-0.078,-0.01,0.073,-0.029,-0.044,0.01,-0.02,-0.312,-0.063,-0.068,-0.098
2.038,-0.068,-0.078,-0.01,0.073,-0.029,-0.044,0.02,-0.01,-0.303,-0.063,-0.059,-0.088
2.04,-0.083,-0.073,0.01,0.078,-0.049,-0.034,0.034,-0.01,-0.293,-0.054,-0.054,-0.093
2.042,-0.083,-0.063,0.02,0.073,-0.054,-0.024,0.054,-0.005,-0.283,-0.059,-0.063,-0.102
2.044,-0.107,-0.063,0.044,0.088,-0.078,-0.01,0.078,0.034,-0.259,-0.044,-0.054,-0.102
2.046,-0.127,-0.063,0.063,0.098,-0.098,0.0,0.107,0.078,-0.224,-0.024,-0.044,-0.093
2.048,-0.098,-0.054,0.044,0.078,-0.073,-0.005,0.127,0.117,-0.2,0.0,-0.029,-0.093
2.05,-0.068,-0.039,0.029,0.054,-0.049,-0.005,0.142,0.185,-0.127,0.049,0.015,-0.073
2.052,-0.054,-0.034,0.02,0.044,-0.039,-0.01,0.156,0.298,0.0,0.166,0.098,-0.029
2.054,-0.005,0.01,0.015,0.0,-0.01,0.01,0.156,0.405,0.146,0.288,0.205,0.049
2.056,0.073,0.063,-0.01,-0.068,0.039,0.024,0.142,0.468,0.273,0.429,0.327,0.137
2.058,0.161,0.107,-0.054,-0.132,0.107,0.024,0.083,0.464,0.356,0.551,0.473,0.268
2.06,0.278,0.161,-0.117,-0.22,0.195,0.02,-0.039,0.434,0.429,0.693,0.649,0.434
2.062,0.454,0.244,-0.21,-0.346,0.332,0.015,-0.166,0.464,0.571,0.883,0.874,0.625
2.064,0.63,0.337,-0.293,-0.483,0.459,0.02,-0.264,0.527,0.776,1.137,1.142,0.859
2.066,0.771,0.425,-0.346,-0.595,0.556,0.039,-0.361,0.581,0.981,1.405,1.43,1.093
2.068,0.947,0.537,-0.41,-0.742,0.678,0.063,-0.483,0.605,1.137,1.63,1.684,1.313
2.07,1.113,0.654,-0.459,-0.883,0.786,0.098,-0.625,0.581,1.244,1.81,1.903,1.523
2.072,1.235,0.747,-0.488,-0.991,0.859,0.127,-0.732,0.532,1.283,1.918,2.059,1.688
2.074,1.313,0.839,-0.473,-1.074,0.893,0.181,-0.805,0.415,1.161,1.854,2.045,1.747
2.076,1.318,0.869,-0.449,-1.093,0.883,0.21,-0.859,0.171,0.825,1.562,1.83,1.649
2.078,1.23,0.82,-0.41,-1.025,0.82,0.205,-0.859,-0.156,0.307,1.093,1.454,1.459
2.08,1.113,0.727,-0.386,-0.917,0.747,0.171,-0.844,-0.473,-0.215,0.581,1.035,1.21
2.082,0.976,0.644,-0.332,-0.81,0.654,0.156,-0.8,-0.717,-0.634,0.117,0.644,0.971
2.084,0.742,0.581,-0.161,-0.659,0.449,0.21,-0.693,-0.869,-0.903,-0.181,0.381,0.786
2.086,0.527,0.542,0.015,-0.532,0.254,0.278,-0.605,-0.956,-1.039,-0.342,0.215,0.634
2.088,0.439,0.478,0.039,-0.459,0.2,0.259,-0.605,-1.005,-1.118,-0.454,0.073,0.498
2.09,0.386,0.366,-0.02,-0.376,0.2,0.171,-0.625,-0.971,-1.122,-0.517,-0.039,0.366
2.092,0.307,0.254,-0.054,-0.278,0.181,0.098,-0.61,-0.913,-1.078,-0.532,-0.117,0.249
2.094,0.229,0.176,-0.054,-0.2,0.142,0.059,-0.61,-0.844,-1.049,-0.547,-0.195,0.117
2.096,0.166,0.102,-0.063,-0.132,0.112,0.02,-0.542,-0.742,-0.996,-0.556,-0.268,0.0
2.098,0.093,0.024,-0.068,-0.059,0.078,-0.024,-0.429,-0.595,-0.888,-0.512,-0.288,-0.063
2.1,0.059,-0.01,-0.068,-0.024,0.063,-0.039,-0.371,-0.483,-0.8,-0.449,-0.264,-0.083
2.102,0.063,-0.01,-0.073,-0.024,0.068,-0.044,-0.366,-0.405,-0.737,-0.415,-0.244,-0.083
2.104,0.059,-0.01,-0.068,-0.024,0.063,-0.039,-0.293,-0.317,-0.659,-0.351,-0.2,-0.078
2.106,0.039,-0.01,-0.049,-0.015,0.044,-0.029,-0.205,-0.205,-0.551,-0.288,-0.166,-0.063
2.108,0.024,-0.005,-0.029,-0.01,0.024,-0.02,-0.151,-0.156,-0.498,-0.249,-0.151,-0.073
2.11,0.0,-0.029,-0.029,0.015,0.015,-0.029,-0.112,-0.142,-0.464,-0.22,-0.146,-0.093
2.112,-0.034,-0.059,-0.024,0.049,-0.005,-0.044,-0.059,-0.098,-0.395,-0.176,-0.117,-0.083
2.114,-0.044,-0.068,-0.024,0.059,-0.01,-0.049,-0.02,-0.049,-0.337,-0.122,-0.078,-0.083
2.116,-0.044,-0.059,-0.015,0.054,-0.015,-0.039,-0.005,-0.02,-0.312,-0.093,-0.063,-0.073
2.118,-0.054,-0.063,-0.01,0.059,-0.024,-0.039,0.015,-0.005,-0.298,-0.078,-0.059,-0.063
2.12,-0.054,-0.063,-0.01,0.059,-0.024,-0.039,0.015,-0.005,-0.298,-0.083,-0.059,-0.073
2.122,-0.059,-0.059,0.0,0.059,-0.029,-0.029,0.015,-0.01,-0.303,-0.083,-0.068,-0.068
2.124,-0.059,-0.059,0.0,0.059,-0.029,-0.029,0.015,-0.01,-0.303,-0.088,-0.068,-0.068
2.126,-0.063,-0.059,0.005,0.063,-0.034,-0.029,0.015,-0.005,-0.303,-0.093,-0.068,-0.068
2.128,-0.063,-0.054,0.01,0.059,-0.039,-0.024,0.01,-0.01,-0.307,-0.093,-0.068,-0.068
2.13,-0.068,-0.059,0.01,0.063,-0.039,-0.024,0.015,-0.015,-0.298,-0.093,-0.068,-0.078
2.132,-0.068,-0.059,0.01,0.063,-0.039,-0.024,0.015,-0.01,-0.293,-0.088,-0.068,-0.078
2.134,-0.073,-0.059,0.015,0.068,-0.044,-0.024,0.024,-0.015,-0.283,-0.078,-0.068,-0.073
2.136,-0.083,-0.054,0.029,0.068,-0.059,-0.015,0.034,-0.005,-0.278,-0.068,-0.078,-0.073
2.138,-0.078,-0.054,0.024,0.068,-0.054,-0.015,0.034,0.0,-0.273,-0.068,-0.073,-0.078
2.14,-0.078,-0.054,0.024,0.068,-0.054,-0.015,0.039,0.0,-0.273,-0.068,-0.073,-0.078
2.142,-0.078,-0.054,0.024,0.068,-0.054,-0.015,0.039,0.005,-0.268,-0.063,-0.073,-0.078
2.144,-0.068,-0.054,0.015,0.063,-0.044,-0.02,0.044,0.005,-0.259,-0.073,-0.073,-0.088
2.146,-0.073,-0.049,0.024,0.063,-0.049,-0.015,0.044,0.005,-0.259,-0.073,-0.073,-0.088
2.148,-0.073,-0.049,0.024,0.063,-0.049,-0.015,0.044,0.01,-0.259,-0.073,-0.073,-0.088
2.15,-0.078,-0.049,0.029,0.063,-0.054,-0.01,0.044,0.01,-0.254,-0.068,-0.068,-0.083
2.152,-0.078,-0.054,0.024,0.068,-0.054,-0.015,0.049,0.01,-0.254,-0.068,-0.059,-0.073
2.154,-0.078,-0.059,0.02,0.068,-0.049,-0.02,0.049,0.015,-0.244,-0.068,-0.059,-0.073
2.156,-0.078,-0.063,0.015,0.073,-0.049,-0.024,0.049,0.015,-0.244,-0.063,-0.059,-0.073
2.158,-0.073,-0.068,0.005,0.073,-0.039,-0.034,0.049,0.02,-0.244,-0.063,-0.054,-0.073
2.16,-0.078,-0.063,0.015,0.073,-0.049,-0.024,0.059,0.02,-0.244,-0.063,-0.054,-0.073
2.162,-0.078,-0.063,0.015,0.073,-0.049,-0.024,0.059,0.02,-0.244,-0.063,-0.054,-0.073
2.164,-0.078,-0.063,0.015,0.073,-0.049,-0.024,0.059,0.02,-0.244,-0.063,-0.054,-0.073
2.166,-0.078,-0.063,0.015,0.073,-0.049,-0.024,0.059,0.02,-0.244,-0.059,-0.054,-0.073
2.168,-0.068,-0.054,0.015,0.063,-0.044,-0.02,0.049,0.01,-0.234,-0.059,-0.054,-0.083
2.17,-0.068,-0.054,0.015,0.063,-0.044,-0.02,0.049,0.015,-0.234,-0.059,-0.054,-0.078
2.172,-0.068,-0.054,0.015,0.063,-0.044,-0.02,0.049,0.015,-0.234,-0.059,-0.054,-0.078
2.174,-0.068,-0.054,0.015,0.063,-0.044,-0.02,0.049,0.015,-0.229,-0.059,-0.049,-0.078
2.176,-0.078,-0.054,0.024,0.068,-0.054,-0.015,0.059,0.015,-0.229,-0.059,-0.049,-0.068
2.178,-0.078,-0.054,0.024,0.068,-0.054,-0.015,0.059,0.015,-0.229,-0.059,-0.049,-0.068
2.18,-0.073,-0.054,0.02,0.063,-0.049,-0.02,0.059,0.015,-0.234,-0.059,-0.049,-0.068
2.182,-0.073,-0.054,0.02,0.063,-0.049,-0.02,0.059,0.015,-0.234,-0.054,-0.049,-0.068
2.184,-0.073,-0.044,0.029,0.059,-0.054,-0.01,0.059,0.02,-0.224,-0.063,-0.059,-0.078
2.186,-0.078,-0.044,0.034,0.063,-0.059,-0.005,0.059,0.02,-0.224,-0.063,-0.059,-0.078
2.188,-0.078,-0.044,0.034,0.063,-0.059,-0.005,0.059,0.02,-0.22,-0.063,-0.059,-0.078
2.19,-0.078,-0.044,0.034,0.063,-0.059,-0.005,0.059,0.024,-0.22,-0.059,-0.059,-0.078
2.192,-0.068,-0.039,0.029,0.054,-0.049,-0.005,0.059,0.015,-0.22,-0.049,-0.049,-0.078
2.194,-0.068,-0.039,0.029,0.054,-0.049,-0.005,0.054,0.015,-0.22,-0.054,-0.049,-0.083
2.196,-0.068,-0.039,0.029,0.054,-0.049,-0.005,0.054,0.015,-0.22,-0.054,-0.049,-0.083
2.198,-0.063,-0.039,0.024,0.054,-0.044,-0.01,0.054,0.015,-0.224,-0.054,-0.049,-0.083
2.2,-0.068,-0.049,0.02,0.059,-0.044,-0.015,0.054,0.024,-0.215,-0.054,-0.044,-0.073
2.202,-0.073,-0.049,0.024,0.063,-0.049,-0.015,0.054,0.024,-0.215,-0.054,-0.044,-0.073
2.204,-0.078,-0.049,0.029,0.063,-0.054,-0.01,0.054,0.024,-0.215,-0.054,-0.044,-0.073
2.206,-0.083,-0.049,0.034,0.068,-0.059,-0.01,0.054,0.029,-0.215,-0.049,-0.044,-0.068
2.208,-0.073,-0.039,0.034,0.059,-0.054,-0.005,0.054,0.02,-0.21,-0.049,-0.054,-0.073
2.21,-0.073,-0.039,0.034,0.059,-0.054,-0.005,0.054,0.024,-0.21,-0.049,-0.054,-0.078
2.212,-0.073,-0.034,0.039,0.054,-0.059,0.0,0.054,0.024,-0.21,-0.049,-0.054,-0.083
2.214,-0.073,-0.034,0.039,0.054,-0.059,0.0,0.054,0.02,-0.21,-0.049,-0.054,-0.088
2.216,-0.073,-0.044,0.029,0.059,-0.054,-0.01,0.054,0.029,-0.2,-0.049,-0.044,-0.098
2.218,-0.073,-0.044,0.029,0.059,-0.054,-0.01,0.054,0.029,-0.2,-0.049,-0.044,-0.098
2.22,-0.073,-0.044,0.029,0.059,-0.054,-0.01,0.054,0.029,-0.2,-0.049,-0.044,-0.098
2.222,-0.073,-0.044,0.029,0.059,-0.054,-0.01,0.054,0.029,-0.195,-0.049,-0.044,-0.102
2.224,-0.083,-0.044,0.039,0.063,-0.063,-0.005,0.063,0.039,-0.195,-0.049,-0.044,-0.112
2.226,-0.083,-0.049,0.034,0.068,-0.059,-0.01,0.063,0.039,-0.195,-0.049,-0.044,-0.112
2.228,-0.083,-0.049,0.034,0.068,-0.059,-0.01,0.063,0.039,-0.195,-0.049,-0.044,-0.112
2.23,-0.083,-0.049,0.034,0.068,-0.059,-0.01,0.063,0.039,-0.195,-0.049,-0.044,-0.112
2.232,-0.073,-0.044,0.029,0.059,-0.054,-0.01,0.054,0.029,-0.195,-0.049,-0.044,-0.122
2.234,-0.073,-0.044,0.029,0.059,-0.054,-0.01,0.054,0.029,-0.195,-0.049,-0.044,-0.127
2.236,-0.073,-0.044,0.029,0.059,-0.054,-0.01,0.054,0.029,-0.195,-0.049,-0.044,-0.132
2.238,-0.073,-0.044,0.029,0.059,-0.054,-0.01,0.054,0.034,-0.195,-0.049,-0.044,-0.137
2.24,-0.078,-0.044,0.034,0.063,-0.059,-0.005,0.063,0.044,-0.185,-0.049,-0.034,-0.137
2.242,-0.078,-0.049,0.029,0.063,-0.054,-0.01,0.063,0.044,-0.181,-0.049,-0.034,-0.137
2.244,-0.083,-0.049,0.034,0.068,-0.059,-0.01,0.063,0.044,-0.181,-0.049,-0.034,-0.137
2.246,-0.088,-0.049,0.039,0.068,-0.063,-0.005,0.063,0.044,-0.181,-0.049,-0.034,-0.137
2.248,-0.078,-0.044,0.034,0.063,-0.059,-0.005,0.063,0.039,-0.171,-0.049,-0.044,-0.146
2.25,-0.078,-0.044,0.034,0.063,-0.059,-0.005,0.063,0.039,-0.176,-0.049,-0.044,-0.146
2.252,-0.083,-0.044,0.039,0.063,-0.063,-0.005,0.063,0.039,-0.176,-0.049,-0.044,-0.146
2.254,-0.083,-0.044,0.039,0.063,-0.063,-0.005,0.068,0.039,-0.176,-0.049,-0.044,-0.146
2.256,-0.078,-0.054,0.024,0.068,-0.054,-0.015,0.068,0.039,-0.176,-0.049,-0.034,-0.156
2.258,-0.073,-0.054,0.02,0.063,-0.049,-0.02,0.068,0.039,-0.176,-0.049,-0.034,-0.161
2.26,-0.073,-0.054,0.02,0.063,-0.049,-0.02,0.068,0.039,-0.171,-0.049,-0.034,-0.161
2.262,-0.078,-0.054,0.024,0.068,-0.054,-0.015,0.068,0.044,-0.171,-0.049,-0.039,-0.161
2.264,-0.088,-0.049,0.039,0.068,-0.063,-0.005,0.078,0.054,-0.161,-0.049,-0.039,-0.151
2.266,-0.083,-0.049,0.034,0.068,-0.059,-0.01,0.078,0.054,-0.156,-0.049,-0.039,-0.151
2.268,-0.083,-0.049,0.034,0.068,-0.059,-0.01,0.078,0.054,-0.156,-0.049,-0.039,-0.156
2.27,-0.073,-0.049,0.024,0.063,-0.049,-0.015,0.073,0.054,-0.166,-0.049,-0.044,-0.156
2.272,-0.073,-0.054,0.02,0.063,-0.049,-0.02,0.073,0.054,-0.166,-0.049,-0.044,-0.146
2.274,-0.073,-0.054,0.02,0.063,-0.049,-0.02,0.073,0.054,-0.166,-0.054,-0.039,-0.146
2.276,-0.073,-0.054,0.02,0.063,-0.049,-0.02,0.073,0.054,-0.161,-0.054,-0.039,-0.151
2.278,-0.073,-0.054,0.02,0.063,-0.049,-0.02,0.073,0.054,-0.161,-0.054,-0.044,-0.151
2.28,-0.083,-0.054,0.029,0.068,-0.059,-0.015,0.073,0.063,-0.151,-0.039,-0.034,-0.142
2.282,-0.083,-0.059,0.024,0.073,-0.054,-0.02,0.073,0.063,-0.146,-0.039,-0.034,-0.142
2.284,-0.083,-0.059,0.024,0.073,-0.054,-0.02,0.073,0.068,-0.146,-0.039,-0.034,-0.142
2.286,-0.083,-0.059,0.024,0.073,-0.054,-0.02,0.073,0.068,-0.146,-0.039,-0.034,-0.142
2.288,-0.078,-0.059,0.02,0.068,-0.049,-0.02,0.078,0.068,-0.151,-0.039,-0.024,-0.142
2.29,-0.078,-0.059,0.02,0.068,-0.049,-0.02,0.078,0.073,-0.151,-0.039,-0.024,-0.142
2.292,-0.078,-0.054,0.024,0.068,-0.054,-0.015,0.078,0.073,-0.151,-0.039,-0.024,-0.146
2.294,-0.073,-0.049,0.024,0.063,-0.049,-0.015,0.078,0.078,-0.151,-0.039,-0.024,-0.146
2.296,-0.073,-0.049,0.024,0.063,-0.049,-0.015,0.078,0.068,-0.137,-0.039,-0.024,-0.146
2.298,-0.073,-0.049,0.024,0.063,-0.049,-0.015,0.073,0.073,-0.137,-0.039,-0.024,-0.146
2.3,-0.073,-0.049,0.024,0.063,-0.049,-0.015,0.073,0.073,-0.142,-0.039,-0.034,-0.146
2.302,-0.078,-0.054,0.024,0.068,-0.054,-0.015,0.078,0.083,-0.142,-0.039,-0.024,-0.146
2.304,-0.078,-0.054,0.024,0.068,-0.054,-0.015,0.078,0.093,-0.132,-0.039,-0.024,-0.146
2.306,-0.078,-0.054,0.024,0.068,-0.054,-0.015,0.078,0.098,-0.132,-0.039,-0.024,-0.146
2.308,-0.073,-0.054,0.02,0.063,-0.049,-0.02,0.078,0.098,-0.127,-0.034,-0.024,-0.146
2.31,-0.073,-0.054,0.02,0.063,-0.049,-0.02,0.073,0.107,-0.122,-0.034,-0.024,-0.146
2.312,-0.063,-0.044,0.02,0.054,-0.044,-0.015,0.073,0.107,-0.122,-0.044,-0.029,-0.156
2.314,-0.063,-0.044,0.02,0.054,-0.044,-0.015,0.073,0.112,-0.122,-0.044,-0.034,-0.156
2.316,-0.063,-0.044,0.02,0.054,-0.044,-0.015,0.073,0.112,-0.117,-0.044,-0.034,-0.156
2.318,-0.063,-0.044,0.02,0.054,-0.044,-0.015,0.073,0.117,-0.117,-0.049,-0.034,-0.156
2.32,-0.073,-0.044,0.029,0.059,-0.054,-0.01,0.083,0.127,-0.107,-0.039,-0.024,-0.146
2.322,-0.073,-0.044,0.029,0.059,-0.054,-0.01,0.083,0.137,-0.102,-0.039,-0.029,-0.146
2.324,-0.073,-0.044,0.029,0.059,-0.054,-0.01,0.083,0.137,-0.102,-0.039,-0.029,-0.146
2.326,-0.073,-0.044,0.029,0.059,-0.054,-0.01,0.088,0.137,-0.102,-0.039,-0.034,-0.146
2.328,-0.068,-0.039,0.029,0.054,-0.049,-0.005,0.078,0.137,-0.112,-0.039,-0.044,-0.146
2.33,-0.063,-0.039,0.024,0.054,-0.044,-0.01,0.078,0.137,-0.107,-0.039,-0.044,-0.151
2.332,-0.063,-0.039,0.024,0.054,-0.044,-0.01,0.078,0.137,-0.107,-0.044,-0.044,-0.151
2.334,-0.063,-0.039,0.024,0.054,-0.044,-0.01,0.073,0.142,-0.107,-0.044,-0.049,-0.151
2.336,-0.054,-0.039,0.015,0.049,-0.034,-0.015,0.068,0.142,-0.098,-0.044,-0.049,-0.142
2.338,-0.054,-0.029,0.024,0.044,-0.039,-0.005,0.068,0.142,-0.098,-0.044,-0.049,-0.142
2.34,-0.054,-0.024,0.029,0.039,-0.044,0.0,0.073,0.146,-0.102,-0.049,-0.049,-0.142
2.342,-0.054,-0.02,0.034,0.039,-0.044,0.005,0.073,0.151,-0.102,-0.049,-0.049,-0.146
2.344,-0.063,-0.02,0.044,0.044,-0.054,0.01,0.078,0.161,-0.093,-0.049,-0.049,-0.137
2.346,-0.054,-0.02,0.034,0.039,-0.044,0.005,0.073,0.171,-0.093,-0.049,-0.049,-0.132
2.348,-0.054,-0.015,0.039,0.034,-0.049,0.01,0.073,0.171,-0.093,-0.049,-0.049,-0.132
2.35,-0.049,-0.01,0.039,0.029,-0.044,0.015,0.073,0.171,-0.093,-0.049,-0.049,-0.132
2.352,-0.039,-0.01,0.029,0.024,-0.034,0.01,0.073,0.171,-0.093,-0.054,-0.054,-0.122
2.354,-0.039,-0.01,0.029,0.024,-0.034,0.01,0.073,0.176,-0.093,-0.054,-0.054,-0.122
2.356,-0.039,-0.01,0.029,0.024,-0.034,0.01,0.073,0.176,-0.093,-0.054,-0.054,-0.122
2.358,-0.034,0.0,0.034,0.02,-0.034,0.015,0.073,0.176,-0.093,-0.054,-0.054,-0.122
2.36,-0.044,0.0,0.044,0.024,-0.044,0.02,0.073,0.176,-0.088,-0.054,-0.054,-0.117
2.362,-0.044,0.0,0.044,0.024,-0.044,0.02,0.063,0.176,-0.088,-0.054,-0.054,-0.107
2.364,-0.039,0.005,0.044,0.02,-0.044,0.024,0.063,0.176,-0.093,-0.054,-0.054,-0.102
2.366,-0.034,0.005,0.039,0.015,-0.039,0.02,0.063,0.176,-0.093,-0.059,-0.054,-0.093
2.368,-0.034,0.024,0.059,0.005,-0.049,0.039,0.063,0.166,-0.093,-0.049,-0.054,-0.093
2.37,-0.024,0.029,0.054,0.0,-0.039,0.039,0.054,0.166,-0.093,-0.049,-0.054,-0.093
2.372,-0.024,0.029,0.054,0.0,-0.039,0.039,0.054,0.161,-0.093,-0.049,-0.054,-0.093
2.374,-0.024,0.029,0.054,0.0,-0.039,0.039,0.049,0.161,-0.093,-0.049,-0.054,-0.088
2.376,-0.02,0.029,0.049,-0.005,-0.034,0.039,0.039,0.151,-0.102,-0.059,-0.059,-0.078
2.378,-0.01,0.039,0.049,-0.015,-0.029,0.044,0.039,0.151,-0.098,-0.059,-0.059,-0.073
2.38,-0.005,0.044,0.049,-0.02,-0.029,0.044,0.039,0.151,-0.098,-0.054,-0.049,-0.068
2.382,0.0,0.044,0.044,-0.02,-0.024,0.044,0.034,0.146,-0.093,-0.049,-0.044,-0.063
2.384,0.01,0.039,0.029,-0.024,-0.01,0.034,0.024,0.146,-0.078,-0.044,-0.044,-0.054
2.386,0.015,0.049,0.034,-0.029,-0.01,0.039,0.024,0.146,-0.078,-0.039,-0.039,-0.049
2.388,0.015,0.039,0.024,-0.024,-0.005,0.029,0.02,0.146,-0.073,-0.029,-0.029,-0.044
2.39,0.024,0.039,0.015,-0.029,0.005,0.024,0.02,0.142,-0.068,-0.024,-0.015,-0.034
2.392,0.02,0.054,0.034,-0.034,-0.01,0.044,0.02,0.137,-0.073,-0.02,-0.005,-0.029
2.394,0.024,0.054,0.029,-0.039,-0.005,0.039,0.02,0.137,-0.068,-0.01,0.005,-0.024
2.396,0.024,0.044,0.02,-0.034,0.0,0.029,0.02,0.132,-0.068,-0.005,0.005,-0.015
2.398,0.024,0.044,0.02,-0.034,0.0,0.029,0.02,0.127,-0.063,0.0,0.015,-0.01
2.4,0.034,0.034,0.0,-0.034,0.015,0.015,0.024,0.117,-0.063,0.01,0.02,-0.005
2.402,0.029,0.034,0.005,-0.029,0.01,0.02,0.024,0.107,-0.063,0.015,0.024,-0.005
2.404,0.029,0.029,0.0,-0.029,0.015,0.015,0.024,0.098,-0.063,0.015,0.029,-0.005
2.406,0.029,0.029,0.0,-0.029,0.015,0.015,0.024,0.078,-0.063,0.015,0.034,-0.005
2.408,0.029,0.02,-0.01,-0.024,0.02,0.005,0.015,0.078,-0.054,0.01,0.034,-0.005
2.41,0.029,0.015,-0.015,-0.02,0.02,0.0,0.015,0.073,-0.054,0.01,0.034,0.0
2.412,0.02,0.015,-0.005,-0.015,0.01,0.005,0.02,0.063,-0.063,0.01,0.039,0.0
2.414,0.015,0.01,-0.005,-0.01,0.01,0.0,0.02,0.059,-0.063,0.01,0.039,0.0
2.416,0.015,0.005,-0.01,-0.01,0.01,-0.005,0.029,0.063,-0.068,0.01,0.039,-0.005
2.418,0.01,0.005,-0.005,-0.005,0.005,0.0,0.034,0.059,-0.073,0.01,0.039,-0.005
2.42,0.01,0.0,-0.01,-0.005,0.01,-0.005,0.034,0.054,-0.073,0.01,0.034,-0.01
2.422,0.005,0.0,-0.005,0.0,0.005,-0.005,0.039,0.049,-0.073,0.01,0.029,-0.015
2.424,0.0,-0.005,-0.005,0.005,0.0,-0.005,0.039,0.044,-0.078,0.0,0.029,-0.015
2.426,-0.005,-0.01,-0.005,0.01,0.0,-0.01,0.039,0.039,-0.088,0.0,0.029,-0.015
2.428,-0.01,-0.02,-0.01,0.015,0.0,-0.015,0.044,0.034,-0.093,0.0,0.029,-0.015
2.43,-0.01,-0.024,-0.015,0.02,0.0,-0.02,0.044,0.029,-0.098,0.0,0.024,-0.02
2.432,-0.005,-0.015,-0.01,0.01,0.0,-0.015,0.039,0.024,-0.102,-0.005,0.02,-0.024
2.434,-0.01,-0.02,-0.01,0.015,0.0,-0.015,0.039,0.02,-0.102,-0.01,0.015,-0.024
2.436,-0.01,-0.024,-0.015,0.02,0.0,-0.02,0.039,0.02,-0.107,-0.015,0.015,-0.024
2.438,0.0,-0.024,-0.024,0.015,0.01,-0.024,0.039,0.015,-0.107,-0.015,0.015,-0.024
2.44,-0.015,-0.034,-0.02,0.024,0.0,-0.029,0.049,0.02,-0.098,-0.01,0.01,-0.015
2.442,-0.02,-0.034,-0.015,0.029,-0.005,-0.024,0.049,0.02,-0.102,-0.01,0.01,-0.02
2.444,-0.024,-0.034,-0.01,0.029,-0.01,-0.024,0.049,0.015,-0.107,-0.01,0.01,-0.02
2.446,-0.034,-0.039,-0.005,0.039,-0.015,-0.024,0.049,0.015,-0.107,-0.015,0.01,-0.02
2.448,-0.024,-0.034,-0.01,0.029,-0.01,-0.024,0.044,0.005,-0.117,-0.024,0.0,-0.02
2.45,-0.029,-0.034,-0.005,0.034,-0.015,-0.02,0.044,0.0,-0.127,-0.02,-0.005,-0.024
2.452,-0.029,-0.034,-0.005,0.034,-0.015,-0.02,0.039,-0.005,-0.127,-0.02,-0.005,-0.029
2.454,-0.024,-0.034,-0.01,0.029,-0.01,-0.024,0.034,-0.005,-0.127,-0.02,-0.005,-0.029
2.456,-0.034,-0.034,0.0,0.034,-0.02,-0.02,0.039,-0.005,-0.117,-0.024,0.005,-0.02
2.458,-0.034,-0.034,0.0,0.034,-0.02,-0.02,0.039,-0.005,-0.117,-0.024,-0.005,-0.02
2.46,-0.039,-0.039,0.0,0.039,-0.02,-0.02,0.039,-0.005,-0.117,-0.024,-0.005,-0.02
2.462,-0.039,-0.039,0.0,0.039,-0.02,-0.02,0.039,-0.005,-0.117,-0.024,-0.005,-0.02
2.464,-0.039,-0.039,0.0,0.039,-0.02,-0.02,0.049,-0.005,-0.112,-0.024,0.005,-0.02
2.466,-0.039,-0.039,0.0,0.039,-0.02,-0.02,0.049,-0.005,-0.117,-0.024,0.005,-0.02
2.468,-0.039,-0.039,0.0,0.039,-0.02,-0.02,0.049,-0.005,-0.117,-0.024,0.005,-0.024
2.47,-0.039,-0.039,0.0,0.039,-0.02,-0.02,0.044,-0.01,-0.117,-0.024,0.005,-0.024
2.472,-0.034,-0.039,-0.005,0.039,-0.015,-0.024,0.044,-0.01,-0.122,-0.024,0.005,-0.024
2.474,-0.034,-0.039,-0.005,0.039,-0.015,-0.024,0.044,-0.01,-0.122,-0.024,0.005,-0.024
2.476,-0.039,-0.039,0.0,0.039,-0.02,-0.02,0.044,-0.02,-0.122,-0.029,0.0,-0.024
2.478,-0.039,-0.034,0.005,0.039,-0.024,-0.015,0.044,-0.02,-0.122,-0.029,0.0,-0.029
2.48,-0.039,-0.044,-0.005,0.044,-0.02,-0.024,0.044,-0.01,-0.107,-0.029,0.0,-0.02
2.482,-0.044,-0.044,0.0,0.044,-0.024,-0.024,0.044,-0.01,-0.107,-0.029,0.0,-0.02
2.484,-0.044,-0.044,0.0,0.044,-0.024,-0.024,0.044,-0.01,-0.107,-0.029,0.0,-0.02
2.486,-0.044,-0.044,0.0,0.044,-0.024,-0.024,0.044,-0.01,-0.107,-0.029,0.0,-0.02
2.488,-0.029,-0.034,-0.005,0.034,-0.015,-0.02,0.044,-0.01,-0.107,-0.02,-0.01,-0.024
2.49,-0.029,-0.034,-0.005,0.034,-0.015,-0.02,0.039,-0.01,-0.107,-0.02,-0.01,-0.024
2.492,-0.029,-0.034,-0.005,0.034,-0.015,-0.02,0.039,-0.01,-0.107,-0.02,-0.01,-0.024
2.494,-0.029,-0.034,-0.005,0.034,-0.015,-0.02,0.039,-0.01,-0.107,-0.02,-0.005,-0.024
2.496,-0.029,-0.039,-0.01,0.034,-0.01,-0.024,0.039,-0.01,-0.107,-0.024,-0.005,-0.02
2.498,-0.029,-0.039,-0.01,0.034,-0.01,-0.024,0.039,-0.01,-0.107,-0.024,-0.005,-0.02
2.5,-0.029,-0.034,-0.005,0.034,-0.015,-0.02,0.044,-0.01,-0.107,-0.02,-0.005,-0.02
2.502,-0.039,-0.034,0.005,0.039,-0.024,-0.015,0.044,-0.005,-0.107,-0.02,-0.005,-0.02
2.504,-0.039,-0.034,0.005,0.039,-0.024,-0.015,0.054,-0.005,-0.102,-0.02,-0.01,-0.024
2.506,-0.034,-0.034,0.0,0.034,-0.02,-0.02,0.054,-0.005,-0.102,-0.024,-0.01,-0.024
2.508,-0.034,-0.034,0.0,0.034,-0.02,-0.02,0.054,-0.005,-0.102,-0.024,-0.01,-0.024
2.51,-0.034,-0.034,0.0,0.034,-0.02,-0.02,0.054,-0.005,-0.102,-0.024,-0.01,-0.024
2.512,-0.034,-0.029,0.005,0.034,-0.02,-0.015,0.044,-0.005,-0.102,-0.024,-0.01,-0.024
2.514,-0.034,-0.029,0.005,0.034,-0.02,-0.015,0.044,-0.01,-0.102,-0.024,-0.01,-0.024
2.516,-0.034,-0.029,0.005,0.034,-0.02,-0.015,0.044,-0.01,-0.098,-0.02,-0.01,-0.024
2.518,-0.034,-0.029,0.005,0.034,-0.02,-0.015,0.044,-0.005,-0.098,-0.02,-0.01,-0.02
2.52,-0.034,-0.029,0.005,0.034,-0.02,-0.015,0.054,0.005,-0.098,-0.02,0.005,-0.02
2.522,-0.034,-0.029,0.005,0.034,-0.02,-0.015,0.059,0.01,-0.093,-0.015,0.005,-0.015
2.524,-0.034,-0.029,0.005,0.034,-0.02,-0.015,0.059,0.01,-0.093,-0.015,0.0,-0.015
2.526,-0.034,-0.029,0.005,0.034,-0.02,-0.015,0.054,0.01,-0.093,-0.015,0.0,-0.015
2.528,-0.02,-0.02,0.0,0.02,-0.01,-0.01,0.054,0.0,-0.093,-0.015,-0.01,-0.02
2.53,-0.02,-0.02,0.0,0.02,-0.01,-0.01,0.054,0.0,-0.093,-0.015,-0.01,-0.02
2.532,-0.02,-0.02,0.0,0.02,-0.01,-0.01,0.054,0.0,-0.098,-0.015,-0.01,-0.02
2.534,-0.02,-0.02,0.0,0.02,-0.01,-0.01,0.054,0.0,-0.098,-0.015,-0.005,-0.02
2.536,-0.02,-0.029,-0.01,0.024,-0.005,-0.02,0.054,0.01,-0.088,-0.015,0.0,-0.01
2.538,-0.024,-0.024,0.0,0.024,-0.015,-0.015,0.049,0.015,-0.088,-0.015,0.0,-0.015
2.54,-0.024,-0.02,0.005,0.024,-0.015,-0.01,0.049,0.015,-0.088,-0.015,0.0,-0.015
2.542,-0.024,-0.02,0.005,0.024,-0.015,-0.01,0.049,0.015,-0.088,-0.015,0.0,-0.015
2.544,-0.034,-0.02,0.015,0.029,-0.024,-0.005,0.049,0.015,-0.088,-0.015,0.0,-0.015
2.546,-0.034,-0.02,0.015,0.029,-0.024,-0.005,0.049,0.015,-0.083,-0.015,-0.005,-0.01
2.548,-0.024,-0.024,0.0,0.024,-0.015,-0.015,0.049,0.015,-0.083,-0.01,-0.005,-0.005
2.55,-0.024,-0.029,-0.005,0.029,-0.01,-0.02,0.049,0.015,-0.083,-0.005,-0.005,-0.005
2.552,-0.024,-0.02,0.005,0.024,-0.015,-0.01,0.049,0.01,-0.093,-0.01,-0.005,-0.005
2.554,-0.024,-0.02,0.005,0.024,-0.015,-0.01,0.049,0.01,-0.093,-0.01,-0.005,-0.005
2.556,-0.024,-0.02,0.005,0.024,-0.015,-0.01,0.049,0.01,-0.093,-0.01,0.0,-0.005
2.558,-0.034,-0.015,0.02,0.024,-0.029,0.0,0.049,0.01,-0.088,-0.01,0.0,-0.01
2.56,-0.034,-0.024,0.01,0.029,-0.024,-0.01,0.059,0.02,-0.073,0.0,0.0,0.0
2.562,-0.034,-0.024,0.01,0.029,-0.024,-0.01,0.059,0.02,-0.068,0.0,0.005,0.0
2.564,-0.034,-0.024,0.01,0.029,-0.024,-0.01,0.059,0.02,-0.068,0.0,0.005,0.0
2.566,-0.029,-0.024,0.005,0.029,-0.02,-0.01,0.059,0.02,-0.073,0.0,0.0,0.005
2.568,-0.024,-0.015,0.01,0.02,-0.02,-0.005,0.059,0.015,-0.073,-0.005,-0.01,-0.005
2.57,-0.024,-0.015,0.01,0.02,-0.02,-0.005,0.059,0.015,-0.068,-0.005,-0.01,-0.005
2.572,-0.024,-0.01,0.015,0.02,-0.02,0.0,0.059,0.015,-0.068,-0.005,-0.01,-0.005
2.574,-0.024,-0.01,0.015,0.02,-0.02,0.0,0.059,0.015,-0.068,-0.005,-0.005,-0.005
2.576,-0.024,-0.005,0.02,0.015,-0.024,0.005,0.059,0.015,-0.073,0.005,0.0,0.0
2.578,-0.024,-0.005,0.02,0.015,-0.024,0.005,0.063,0.015,-0.068,0.005,0.0,0.0
2.58,-0.024,-0.005,0.02,0.015,-0.024,0.005,0.063,0.02,-0.068,0.005,0.0,0.0
2.582,-0.024,-0.005,0.02,0.015,-0.024,0.005,0.059,0.02,-0.063,0.005,0.0,-0.005
2.584,-0.039,-0.015,0.024,0.029,-0.034,0.005,0.059,0.02,-0.063,0.01,0.005,0.005
2.586,-0.039,-0.015,0.024,0.029,-0.034,0.005,0.059,0.02,-0.063,0.01,0.005,0.005
2.588,-0.029,-0.015,0.015,0.024,-0.024,0.0,0.059,0.02,-0.063,0.01,0.005,0.005
2.59,-0.029,-0.01,0.02,0.02,-0.024,0.005,0.059,0.02,-0.063,0.01,0.005,0.005
2.592,-0.02,-0.01,0.01,0.015,-0.015,0.0,0.059,0.02,-0.063,0.01,0.005,0.005
2.594,-0.02,-0.01,0.01,0.015,-0.015,0.0,0.059,0.02,-0.068,0.01,0.005,0.005
2.596,-0.02,-0.01,0.01,0.015,-0.015,0.0,0.059,0.02,-0.068,0.005,0.005,0.005
2.598,-0.02,-0.01,0.01,0.015,-0.015,0.0,0.059,0.02,-0.063,0.005,0.005,0.0
2.6,-0.024,-0.02,0.005,0.024,-0.015,-0.01,0.068,0.029,-0.059,0.005,0.005,0.01
2.602,-0.029,-0.024,0.005,0.029,-0.02,-0.01,0.068,0.029,-0.054,0.005,0.005,0.01
2.604,-0.039,-0.024,0.015,0.034,-0.029,-0.005,0.068,0.029,-0.049,0.01,0.005,0.01
2.606,-0.044,-0.02,0.024,0.034,-0.034,0.0,0.068,0.029,-0.049,0.01,0.005,0.01
2.608,-0.039,-0.02,0.02,0.029,-0.029,0.0,0.054,0.02,-0.049,0.01,0.005,0.005
2.61,-0.034,-0.02,0.015,0.029,-0.024,-0.005,0.054,0.02,-0.049,0.01,0.005,0.005
2.612,-0.029,-0.02,0.01,0.024,-0.02,-0.005,0.054,0.02,-0.049,0.01,0.005,0.005
2.614,-0.024,-0.02,0.005,0.024,-0.015,-0.01,0.054,0.02,-0.049,0.01,0.005,0.005
2.616,-0.034,-0.02,0.015,0.029,-0.024,-0.005,0.059,0.02,-0.049,0.01,0.0,0.0
2.618,-0.034,-0.015,0.02,0.024,-0.029,0.0,0.059,0.02,-0.044,0.01,0.0,0.0
2.62,-0.034,-0.015,0.02,0.024,-0.029,0.0,0.059,0.02,-0.044,0.01,0.005,0.0
2.622,-0.034,-0.02,0.015,0.029,-0.024,-0.005,0.059,0.02,-0.044,0.005,0.005,-0.005
2.624,-0.029,-0.02,0.01,0.024,-0.02,-0.005,0.059,0.02,-0.044,0.005,0.005,0.0
2.626,-0.029,-0.02,0.01,0.024,-0.02,-0.005,0.059,0.02,-0.044,0.005,0.0,0.005
2.628,-0.029,-0.024,0.005,0.029,-0.02,-0.01,0.059,0.02,-0.049,0.005,0.0,0.005
2.63,-0.029,-0.024,0.005,0.029,-0.02,-0.01,0.059,0.015,-0.049,0.0,0.0,0.01
2.632,-0.02,-0.02,0.0,0.02,-0.01,-0.01,0.049,0.015,-0.049,0.0,-0.005,0.01
2.634,-0.02,-0.02,0.0,0.02,-0.01,-0.01,0.044,0.015,-0.049,0.0,-0.01,0.01
2.636,-0.015,-0.024,-0.01,0.02,-0.005,-0.02,0.044,0.015,-0.049,0.0,-0.015,0.005
2.638,-0.015,-0.024,-0.01,0.02,-0.005,-0.02,0.049,0.015,-0.049,0.0,-0.02,0.005
2.64,-0.024,-0.029,-0.005,0.029,-0.01,-0.02,0.059,0.024,-0.049,0.01,-0.015,0.005
2.642,-0.029,-0.029,0.0,0.029,-0.015,-0.015,0.059,0.024,-0.044,0.01,-0.01,0.005
2.644,-0.039,-0.029,0.01,0.034,-0.024,-0.01,0.059,0.024,-0.039,0.01,-0.01,0.005
2.646,-0.044,-0.029,0.015,0.039,-0.029,-0.01,0.059,0.024,-0.034,0.01,-0.005,0.005
2.648,-0.029,-0.024,0.005,0.029,-0.02,-0.01,0.054,0.015,-0.044,0.0,-0.015,0.0
2.65,-0.029,-0.024,0.005,0.029,-0.02,-0.01,0.054,0.015,-0.044,0.0,-0.015,0.0
2.652,-0.029,-0.024,0.005,0.029,-0.02,-0.01,0.054,0.01,-0.044,0.0,-0.015,-0.005
2.654,-0.029,-0.029,0.0,0.029,-0.015,-0.015,0.054,0.01,-0.049,0.0,-0.015,-0.005
2.656,-0.029,-0.029,0.0,0.029,-0.015,-0.015,0.054,0.01,-0.049,0.005,-0.005,-0.015
2.658,-0.034,-0.029,0.005,0.034,-0.02,-0.015,0.054,0.01,-0.044,0.005,-0.01,-0.015
2.66,-0.039,-0.029,0.01,0.034,-0.024,-0.01,0.054,0.01,-0.044,0.0,-0.01,-0.01
2.662,-0.039,-0.029,0.01,0.034,-0.024,-0.01,0.054,0.01,-0.044,0.0,-0.01,-0.01
2.664,-0.044,-0.029,0.015,0.039,-0.029,-0.01,0.044,0.01,-0.044,-0.005,-0.01,-0.02
2.666,-0.044,-0.029,0.015,0.039,-0.029,-0.01,0.044,0.01,-0.044,-0.005,-0.01,-0.02
2.668,-0.039,-0.034,0.005,0.039,-0.024,-0.015,0.044,0.01,-0.044,0.0,-0.01,-0.02
2.67,-0.034,-0.034,0.0,0.034,-0.02,-0.02,0.044,0.005,-0.044,0.0,-0.01,-0.02
2.672,-0.034,-0.034,0.0,0.034,-0.02,-0.02,0.049,0.005,-0.039,0.0,-0.02,-0.02
2.674,-0.034,-0.029,0.005,0.034,-0.02,-0.015,0.049,0.005,-0.044,-0.005,-0.02,-0.02
2.676,-0.034,-0.029,0.005,0.034,-0.02,-0.015,0.054,0.005,-0.044,-0.01,-0.02,-0.024
2.678,-0.034,-0.029,0.005,0.034,-0.02,-0.015,0.054,0.005,-0.044,-0.01,-0.02,-0.024
2.68,-0.039,-0.044,-0.005,0.044,-0.02,-0.024,0.054,0.005,-0.044,0.0,-0.01,-0.02
2.682,-0.039,-0.044,-0.005,0.044,-0.02,-0.024,0.054,0.005,-0.044,0.0,-0.01,-0.015
2.684,-0.049,-0.034,0.015,0.044,-0.034,-0.01,0.054,0.005,-0.044,0.0,-0.01,-0.015
2.686,-0.049,-0.034,0.015,0.044,-0.034,-0.01,0.049,0.005,-0.044,0.0,-0.01,-0.015
2.688,-0.029,-0.029,0.0,0.029,-0.015,-0.015,0.049,-0.005,-0.044,-0.01,-0.02,-0.015
2.69,-0.029,-0.034,-0.005,0.034,-0.015,-0.02,0.054,-0.005,-0.044,-0.01,-0.015,-0.015
2.692,-0.024,-0.034,-0.01,0.029,-0.01,-0.024,0.054,-0.005,-0.044,-0.01,-0.015,-0.015
2.694,-0.024,-0.034,-0.01,0.029,-0.01,-0.024,0.049,-0.01,-0.049,-0.015,-0.02,-0.015
2.696,-0.034,-0.029,0.005,0.034,-0.02,-0.015,0.049,0.0,-0.039,-0.015,-0.02,-0.015
2.698,-0.039,-0.029,0.01,0.034,-0.024,-0.01,0.049,0.0,-0.039,-0.015,-0.02,-0.015
2.7,-0.039,-0.029,0.01,0.034,-0.024,-0.01,0.044,0.0,-0.039,-0.015,-0.02,-0.015
2.702,-0.044,-0.029,0.015,0.039,-0.029,-0.01,0.044,0.0,-0.039,-0.015,-0.02,-0.015
2.704,-0.049,-0.034,0.015,0.044,-0.034,-0.01,0.049,0.005,-0.039,-0.005,-0.01,-0.005
2.706,-0.049,-0.039,0.01,0.044,-0.029,-0.015,0.049,0.005,-0.039,-0.005,-0.01,-0.005
2.708,-0.034,-0.049,-0.015,0.044,-0.01,-0.034,0.049,0.005,-0.039,-0.005,-0.01,-0.005
2.71,-0.034,-0.054,-0.02,0.044,-0.01,-0.039,0.049,0.005,-0.034,-0.005,-0.01,-0.005
2.712,-0.034,-0.039,-0.005,0.039,-0.015,-0.024,0.044,-0.005,-0.044,-0.015,-0.005,-0.015
2.714,-0.029,-0.039,-0.01,0.034,-0.01,-0.024,0.039,-0.01,-0.049,-0.015,-0.01,-0.02
2.716,-0.029,-0.039,-0.01,0.034,-0.01,-0.024,0.039,-0.01,-0.049,-0.015,-0.02,-0.02
2.718,-0.039,-0.039,0.0,0.039,-0.02,-0.02,0.044,-0.01,-0.044,-0.015,-0.024,-0.02
2.72,-0.049,-0.039,0.01,0.044,-0.029,-0.015,0.034,0.0,-0.044,-0.02,-0.015,-0.01
2.722,-0.049,-0.044,0.005,0.049,-0.029,-0.02,0.034,-0.005,-0.044,-0.02,-0.015,-0.01
2.724,-0.054,-0.044,0.01,0.049,-0.034,-0.02,0.034,-0.005,-0.044,-0.02,-0.015,-0.01
2.726,-0.054,-0.044,0.01,0.049,-0.034,-0.02,0.034,-0.005,-0.044,-0.02,-0.02,-0.01
2.728,-0.034,-0.044,-0.01,0.039,-0.015,-0.029,0.034,-0.01,-0.044,-0.029,-0.02,-0.02
2.73,-0.034,-0.044,-0.01,0.039,-0.015,-0.029,0.034,-0.015,-0.044,-0.024,-0.02,-0.02
2.732,-0.034,-0.044,-0.01,0.039,-0.015,-0.029,0.034,-0.02,-0.049,-0.024,-0.02,-0.02
2.734,-0.034,-0.044,-0.01,0.039,-0.015,-0.029,0.034,-0.029,-0.059,-0.029,-0.02,-0.02
2.736,-0.039,-0.044,-0.005,0.044,-0.02,-0.024,0.034,-0.02,-0.049,-0.029,-0.01,-0.01
2.738,-0.044,-0.044,0.0,0.044,-0.024,-0.024,0.034,-0.02,-0.049,-0.029,-0.01,-0.01
2.74,-0.044,-0.039,0.005,0.044,-0.024,-0.02,0.029,-0.02,-0.054,-0.029,-0.01,-0.01
2.742,-0.044,-0.039,0.005,0.044,-0.024,-0.02,0.029,-0.02,-0.054,-0.029,-0.01,-0.01
2.744,-0.044,-0.039,0.005,0.044,-0.024,-0.02,0.029,-0.015,-0.044,-0.029,-0.01,-0.005
2.746,-0.044,-0.039,0.005,0.044,-0.024,-0.02,0.024,-0.015,-0.049,-0.029,-0.01,-0.005
2.748,-0.039,-0.044,-0.005,0.044,-0.02,-0.024,0.024,-0.02,-0.054,-0.029,-0.01,-0.005
2.75,-0.034,-0.049,-0.015,0.044,-0.01,-0.034,0.029,-0.02,-0.054,-0.029,-0.01,-0.005
2.752,-0.024,-0.039,-0.015,0.034,-0.005,-0.029,0.02,-0.02,-0.063,-0.029,-0.01,-0.005
2.754,-0.029,-0.039,-0.01,0.034,-0.01,-0.024,0.02,-0.02,-0.063,-0.029,-0.01,-0.005
2.756,-0.029,-0.039,-0.01,0.034,-0.01,-0.024,0.024,-0.02,-0.059,-0.029,-0.01,-0.005
2.758,-0.034,-0.034,0.0,0.034,-0.02,-0.02,0.024,-0.02,-0.054,-0.029,-0.01,-0.005
2.76,-0.039,-0.044,-0.005,0.044,-0.02,-0.024,0.034,-0.02,-0.054,-0.024,0.0,-0.005
2.762,-0.044,-0.049,-0.005,0.049,-0.02,-0.029,0.034,-0.02,-0.054,-0.024,0.0,-0.005
2.764,-0.049,-0.049,0.0,0.049,-0.024,-0.024,0.034,-0.02,-0.054,-0.024,0.0,0.0
2.766,-0.054,-0.049,0.005,0.054,-0.029,-0.024,0.034,-0.015,-0.054,-0.024,0.0,0.01
2.768,-0.039,-0.039,0.0,0.039,-0.02,-0.02,0.02,-0.024,-0.063,-0.024,-0.01,0.0
2.77,-0.034,-0.039,-0.005,0.039,-0.015,-0.024,0.02,-0.024,-0.063,-0.024,-0.01,-0.005
2.772,-0.024,-0.039,-0.015,0.034,-0.005,-0.029,0.02,-0.024,-0.063,-0.024,-0.01,-0.01
2.774,-0.02,-0.039,-0.02,0.029,0.0,-0.029,0.02,-0.024,-0.063,-0.024,-0.01,-0.02
2.776,-0.024,-0.049,-0.024,0.039,0.0,-0.039,0.02,-0.02,-0.054,-0.029,-0.01,-0.01
2.778,-0.029,-0.049,-0.02,0.039,-0.005,-0.034,0.024,-0.024,-0.049,-0.029,-0.01,-0.005
2.78,-0.034,-0.049,-0.015,0.044,-0.01,-0.034,0.024,-0.024,-0.049,-0.029,-0.01,0.0
2.782,-0.039,-0.049,-0.01,0.044,-0.015,-0.029,0.024,-0.024,-0.049,-0.029,-0.01,0.005
2.784,-0.049,-0.049,0.0,0.049,-0.024,-0.024,0.034,-0.015,-0.039,-0.02,0.0,0.02
2.786,-0.054,-0.054,0.0,0.054,-0.029,-0.029,0.029,-0.01,-0.049,-0.02,0.0,0.015
2.788,-0.029,-0.039,-0.01,0.034,-0.01,-0.024,0.02,-0.02,-0.059,-0.029,-0.01,0.01
2.79,-0.029,-0.049,-0.02,0.039,-0.005,-0.034,0.02,-0.02,-0.059,-0.029,-0.02,0.01
2.792,-0.029,-0.049,-0.02,0.039,-0.005,-0.034,0.02,-0.02,-0.059,-0.029,-0.02,0.01
2.794,-0.029,-0.049,-0.02,0.039,-0.005,-0.034,0.02,-0.02,-0.059,-0.029,-0.02,0.01
2.796,-0.029,-0.049,-0.02,0.039,-0.005,-0.034,0.02,-0.02,-0.059,-0.029,-0.02,0.01
2.798,-0.034,-0.049,-0.015,0.044,-0.01,-0.034,0.029,-0.02,-0.059,-0.029,-0.01,0.015
2.8,-0.039,-0.049,-0.01,0.044,-0.015,-0.029,0.029,-0.02,-0.059,-0.029,-0.01,0.02
2.802,-0.044,-0.049,-0.005,0.049,-0.02,-0.029,0.029,-0.02,-0.059,-0.029,-0.01,0.024
2.804,-0.049,-0.049,0.0,0.049,-0.024,-0.024,0.029,-0.02,-0.059,-0.029,-0.01,0.029
2.806,-0.039,-0.049,-0.01,0.044,-0.015,-0.029,0.02,-0.02,-0.059,-0.029,-0.01,0.02
2.808,-0.039,-0.049,-0.01,0.044,-0.015,-0.029,0.02,-0.02,-0.059,-0.029,-0.01,0.02
2.81,-0.039,-0.049,-0.01,0.044,-0.015,-0.029,0.02,-0.02,-0.059,-0.029,-0.01,0.02
2.812,-0.039,-0.049,-0.01,0.044,-0.015,-0.029,0.02,-0.02,-0.059,-0.029,-0.01,0.02
2.814,-0.039,-0.049,-0.01,0.044,-0.015,-0.029,0.02,-0.02,-0.059,-0.029,-0.015,0.01
2.816,-0.039,-0.049,-0.01,0.044,-0.015,-0.029,0.02,-0.02,-0.059,-0.029,-0.02,0.01
2.818,-0.039,-0.049,-0.01,0.044,-0.015,-0.029,0.02,-0.02,-0.059,-0.029,-0.024,0.01
2.82,-0.039,-0.049,-0.01,0.044,-0.015,-0.029,0.02,-0.02,-0.059,-0.029,-0.029,0.01
2.822,-0.039,-0.059,-0.02,0.049,-0.01,-0.039,0.029,-0.02,-0.059,-0.029,-0.029,0.02
2.824,-0.039,-0.059,-0.02,0.049,-0.01,-0.039,0.029,-0.02,-0.059,-0.029,-0.029,0.02
2.826,-0.039,-0.059,-0.02,0.049,-0.01,-0.039,0.029,-0.02,-0.059,-0.029,-0.029,0.02
2.828,-0.039,-0.059,-0.02,0.049,-0.01,-0.039,0.029,-0.02,-0.059,-0.029,-0.029,0.02
2.83,-0.029,-0.049,-0.02,0.039,-0.005,-0.034,0.02,-0.02,-0.068,-0.029,-0.039,0.02
2.832,-0.029,-0.049,-0.02,0.039,-0.005,-0.034,0.02,-0.02,-0.068,-0.029,-0.039,0.02
2.834,-0.029,-0.049,-0.02,0.039,-0.005,-0.034,0.02,-0.02,-0.068,-0.029,-0.039,0.02
2.836,-0.029,-0.049,-0.02,0.039,-0.005,-0.034,0.02,-0.02,-0.068,-0.029,-0.039,0.02
2.838,-0.039,-0.049,-0.01,0.044,-0.015,-0.029,0.029,-0.02,-0.068,-0.039,-0.029,0.02
2.84,-0.039,-0.049,-0.01,0.044,-0.015,-0.029,0.029,-0.02,-0.068,-0.039,-0.029,0.02
2.842,-0.039,-0.049,-0.01,0.044,-0.015,-0.029,0.029,-0.02,-0.068,-0.039,-0.029,0.02
2.844,-0.039,-0.049,-0.01,0.044,-0.015,-0.029,0.029,-0.02,-0.068,-0.039,-0.029,0.02
2.846,-0.039,-0.049,-0.01,0.044,-0.015,-0.029,0.02,-0.029,-0.059,-0.029,-0.029,0.02
2.848,-0.039,-0.049,-0.01,0.044,-0.015,-0.029,0.02,-0.029,-0.059,-0.029,-0.029,0.02
2.85,-0.039,-0.049,-0.01,0.044,-0.015,-0.029,0.02,-0.029,-0.059,-0.029,-0.029,0.02
2.852,-0.039,-0.049,-0.01,0.044,-0.015,-0.029,0.02,-0.029,-0.059,-0.029,-0.029,0.02
2.854,-0.029,-0.049,-0.02,0.039,-0.005,-0.034,0.02,-0.02,-0.068,-0.029,-0.029,0.02
2.856,-0.029,-0.049,-0.02,0.039,-0.005,-0.034,0.02,-0.02,-0.068,-0.029,-0.029,0.02
2.858,-0.029,-0.049,-0.02,0.039,-0.005,-0.034,0.02,-0.02,-0.068,-0.029,-0.029,0.02
2.86,-0.029,-0.049,-0.02,0.039,-0.005,-0.034,0.02,-0.02,-0.068,-0.029,-0.029,0.02
2.862,-0.039,-0.049,-0.01,0.044,-0.015,-0.029,0.02,-0.02,-0.059,-0.029,-0.029,0.029
2.864,-0.039,-0.049,-0.01,0.044,-0.015,-0.029,0.02,-0.02,-0.059,-0.029,-0.029,0.029
2.866,-0.039,-0.049,-0.01,0.044,-0.015,-0.029,0.02,-0.02,-0.059,-0.029,-0.029,0.029
2.868,-0.039,-0.049,-0.01,0.044,-0.015,-0.029,0.02,-0.02,-0.059,-0.029,-0.029,0.029
2.87,-0.029,-0.049,-0.02,0.039,-0.005,-0.034,0.02,-0.029,-0.068,-0.029,-0.029,0.02
2.872,-0.029,-0.049,-0.02,0.039,-0.005,-0.034,0.02,-0.029,-0.068,-0.029,-0.029,0.02
2.874,-0.029,-0.049,-0.02,0.039,-0.005,-0.034,0.02,-0.029,-0.068,-0.029,-0.029,0.02
2.876,-0.029,-0.049,-0.02,0.039,-0.005,-0.034,0.02,-0.029,-0.068,-0.029,-0.029,0.02
2.878,-0.039,-0.049,-0.01,0.044,-0.015,-0.029,0.02,-0.02,-0.059,-0.029,-0.029,0.02
2.88,-0.039,-0.049,-0.01,0.044,-0.015,-0.029,0.02,-0.02,-0.059,-0.029,-0.029,0.02
2.882,-0.039,-0.049,-0.01,0.044,-0.015,-0.029,0.02,-0.02,-0.059,-0.029,-0.029,0.02
2.884,-0.039,-0.049,-0.01,0.044,-0.015,-0.029,0.02,-0.02,-0.059,-0.029,-0.029,0.02
2.886,-0.039,-0.049,-0.01,0.044,-0.015,-0.029,0.02,-0.02,-0.068,-0.029,-0.029,0.02
2.888,-0.039,-0.049,-0.01,0.044,-0.015,-0.029,0.02,-0.02,-0.068,-0.029,-0.029,0.02
2.89,-0.039,-0.049,-0.01,0.044,-0.015,-0.029,0.02,-0.02,-0.068,-0.029,-0.029,0.02
2.892,-0.039,-0.049,-0.01,0.044,-0.015,-0.029,0.02,-0.02,-0.068,-0.029,-0.029,0.02
2.894,-0.029,-0.049,-0.02,0.039,-0.005,-0.034,0.02,-0.02,-0.078,-0.029,-0.029,0.01
2.896,-0.029,-0.049,-0.02,0.039,-0.005,-0.034,0.02,-0.02,-0.078,-0.029,-0.029,0.01
2.898,-0.029,-0.049,-0.02,0.039,-0.005,-0.034,0.02,-0.02,-0.078,-0.029,-0.029,0.01
2.9,-0.029,-0.049,-0.02,0.039,-0.005,-0.034,0.02,-0.02,-0.078,-0.029,-0.029,0.01
2.902,-0.034,-0.049,-0.015,0.044,-0.01,-0.034,0.02,-0.02,-0.078,-0.039,-0.029,0.02
2.904,-0.039,-0.049,-0.01,0.044,-0.015,-0.029,0.02,-0.02,-0.078,-0.039,-0.029,0.02
2.906,-0.044,-0.049,-0.005,0.049,-0.02,-0.029,0.02,-0.02,-0.078,-0.039,-0.029,0.02
2.908,-0.049,-0.049,0.0,0.049,-0.024,-0.024,0.02,-0.02,-0.078,-0.039,-0.029,0.02
2.91,-0.044,-0.039,0.005,0.044,-0.024,-0.02,0.01,-0.029,-0.088,-0.039,-0.039,0.02
2.912,-0.039,-0.039,0.0,0.039,-0.02,-0.02,0.01,-0.029,-0.088,-0.039,-0.039,0.02
2.914,-0.034,-0.039,-0.005,0.039,-0.015,-0.024,0.01,-0.029,-0.088,-0.039,-0.039,0.02
2.916,-0.029,-0.039,-0.01,0.034,-0.01,-0.024,0.01,-0.029,-0.088,-0.039,-0.039,0.02
2.918,-0.039,-0.049,-0.01,0.044,-0.015,-0.029,0.02,-0.02,-0.078,-0.039,-0.029,0.02
2.92,-0.039,-0.049,-0.01,0.044,-0.015,-0.029,0.02,-0.02,-0.073,-0.039,-0.029,0.02
2.922,-0.039,-0.049,-0.01,0.044,-0.015,-0.029,0.02,-0.02,-0.068,-0.034,-0.029,0.02
2.924,-0.039,-0.049,-0.01,0.044,-0.015,-0.029,0.02,-0.02,-0.068,-0.034,-0.029,0.02
2.926,-0.039,-0.049,-0.01,0.044,-0.015,-0.029,0.02,-0.02,-0.078,-0.034,-0.024,0.024
2.928,-0.039,-0.049,-0.01,0.044,-0.015,-0.029,0.02,-0.02,-0.073,-0.034,-0.024,0.024
2.93,-0.039,-0.049,-0.01,0.044,-0.015,-0.029,0.024,-0.02,-0.073,-0.034,-0.024,0.02
