time,I,II,III,aVR,aVL,aVF,V1,V2,V3,V4,V5,V6
0.0,-0.059,0.039,0.098,0.01,-0.078,0.068,-0.078,-0.01,-0.156,-0.117,-0.176,-0.117
0.002,-0.059,0.039,0.098,0.01,-0.078,0.068,-0.078,-0.01,-0.156,-0.117,-0.176,-0.117
0.004,-0.059,0.039,0.098,0.01,-0.078,0.068,-0.078,-0.01,-0.156,-0.117,-0.176,-0.117
0.006,-0.059,0.039,0.098,0.01,-0.078,0.068,-0.078,-0.01,-0.156,-0.117,-0.176,-0.117
0.008,-0.049,0.049,0.098,0.0,-0.073,0.073,-0.088,-0.02,-0.161,-0.117,-0.185,-0.127
0.01,-0.049,0.049,0.098,0.0,-0.073,0.073,-0.088,-0.02,-0.166,-0.117,-0.185,-0.127
0.012,-0.049,0.049,0.098,0.0,-0.073,0.073,-0.088,-0.02,-0.171,-0.117,-0.185,-0.127
0.014,-0.049,0.049,0.098,0.0,-0.073,0.073,-0.088,-0.02,-0.176,-0.117,-0.185,-0.127
0.016,-0.054,0.049,0.102,0.005,-0.078,0.073,-0.078,-0.02,-0.166,-0.127,-0.185,-0.137
0.018,-0.059,0.049,0.107,0.005,-0.083,0.078,-0.078,-0.02,-0.166,-0.127,-0.185,-0.137
0.02,-0.063,0.049,0.112,0.01,-0.088,0.078,-0.078,-0.02,-0.166,-0.127,-0.185,-0.137
0.022,-0.068,0.049,0.117,0.01,-0.093,0.083,-0.078,-0.02,-0.166,-0.127,-0.185,-0.137
0.024,-0.059,0.039,0.098,0.01,-0.078,0.068,-0.078,-0.029,-0.176,-0.127,-0.185,-0.137
0.026,-0.059,0.039,0.098,0.01,-0.078,0.068,-0.078,-0.029,-0.176,-0.127,-0.185,-0.137
0.028,-0.059,0.039,0.098,0.01,-0.078,0.068,-0.078,-0.029,-0.176,-0.127,-0.185,-0.137
0.03,-0.059,0.039,0.098,0.01,-0.078,0.068,-0.078,-0.029,-0.176,-0.127,-0.185,-0.137
0.032,-0.068,0.039,0.107,0.015,-0.088,0.073,-0.078,-0.02,-0.176,-0.127,-0.185,-0.127
0.034,-0.068,0.039,0.107,0.015,-0.088,0.073,-0.078,-0.02,-0.176,-0.127,-0.185,-0.127
0.036,-0.068,0.039,0.107,0.015,-0.088,0.073,-0.078,-0.02,-0.176,-0.127,-0.185,-0.127
0.038,-0.068,0.039,0.107,0.015,-0.088,0.073,-0.078,-0.02,-0.176,-0.127,-0.185,-0.127
0.04,-0.059,0.039,0.098,0.01,-0.078,0.068,-0.078,-0.02,-0.176,-0.127,-0.185,-0.127
0.042,-0.059,0.039,0.098,0.01,-0.078,0.068,-0.078,-0.02,-0.176,-0.127,-0.185,-0.127
0.044,-0.059,0.039,0.098,0.01,-0.078,0.068,-0.078,-0.02,-0.176,-0.127,-0.185,-0.127
0.046,-0.059,0.039,0.098,0.01,-0.078,0.068,-0.078,-0.02,-0.176,-0.127,-0.185,-0.127
0.048,-0.059,0.049,0.107,0.005,-0.083,0.078,-0.088,-0.029,-0.185,-0.127,-0.185,-0.137
0.05,-0.059,0.049,0.107,0.005,-0.083,0.078,-0.088,-0.029,-0.185,-0.127,-0.185,-0.137
0.052,-0.059,0.049,0.107,0.005,-0.083,0.078,-0.088,-0.029,-0.185,-0.127,-0.185,-0.137
0.054,-0.059,0.049,0.107,0.005,-0.083,0.078,-0.088,-0.029,-0.185,-0.127,-0.185,-0.137
0.056,-0.068,0.049,0.117,0.01,-0.093,0.083,-0.078,-0.029,-0.195,-0.127,-0.195,-0.137
0.058,-0.068,0.049,0.117,0.01,-0.093,0.083,-0.078,-0.029,-0.195,-0.127,-0.195,-0.137
0.06,-0.068,0.049,0.117,0.01,-0.093,0.083,-0.078,-0.029,-0.195,-0.127,-0.195,-0.137
0.062,-0.068,0.049,0.117,0.01,-0.093,0.083,-0.078,-0.029,-0.195,-0.127,-0.195,-0.137
0.064,-0.059,0.044,0.102,0.01,-0.083,0.073,-0.068,-0.039,-0.195,-0.137,-0.185,-0.146
0.066,-0.059,0.039,0.098,0.01,-0.078,0.068,-0.068,-0.039,-0.195,-0.137,-0.185,-0.146
0.068,-0.059,0.034,0.093,0.015,-0.078,0.063,-0.068,-0.039,-0.195,-0.137,-0.185,-0.146
0.07,-0.059,0.029,0.088,0.015,-0.073,0.059,-0.068,-0.039,-0.195,-0.137,-0.185,-0.146
0.072,-0.059,0.039,0.098,0.01,-0.078,0.068,-0.078,-0.039,-0.195,-0.137,-0.195,-0.146
0.074,-0.059,0.039,0.098,0.01,-0.078,0.068,-0.078,-0.039,-0.195,-0.137,-0.195,-0.146
0.076,-0.059,0.039,0.098,0.01,-0.078,0.068,-0.078,-0.039,-0.195,-0.137,-0.195,-0.146
0.078,-0.059,0.039,0.098,0.01,-0.078,0.068,-0.078,-0.039,-0.195,-0.137,-0.195,-0.146
0.08,-0.059,0.039,0.098,0.01,-0.078,0.068,-0.068,-0.039,-0.205,-0.146,-0.205,-0.146
0.082,-0.059,0.039,0.098,0.01,-0.078,0.068,-0.068,-0.039,-0.205,-0.146,-0.205,-0.146
0.084,-0.059,0.039,0.098,0.01,-0.078,0.068,-0.068,-0.039,-0.205,-0.146,-0.205,-0.146
0.086,-0.059,0.039,0.098,0.01,-0.078,0.068,-0.068,-0.039,-0.205,-0.146,-0.205,-0.146
0.088,-0.049,0.039,0.088,0.005,-0.068,0.063,-0.068,-0.049,-0.205,-0.146,-0.195,-0.146
0.09,-0.049,0.039,0.088,0.005,-0.068,0.063,-0.068,-0.049,-0.205,-0.146,-0.195,-0.146
0.092,-0.049,0.039,0.088,0.005,-0.068,0.063,-0.068,-0.049,-0.205,-0.146,-0.195,-0.146
0.094,-0.049,0.039,0.088,0.005,-0.068,0.063,-0.068,-0.049,-0.205,-0.146,-0.195,-0.146
0.096,-0.059,0.029,0.088,0.015,-0.073,0.059,-0.059,-0.039,-0.205,-0.142,-0.185,-0.137
0.098,-0.059,0.029,0.088,0.015,-0.073,0.059,-0.059,-0.039,-0.205,-0.137,-0.185,-0.137
0.1,-0.059,0.029,0.088,0.015,-0.073,0.059,-0.059,-0.039,-0.205,-0.132,-0.185,-0.137
0.102,-0.059,0.029,0.088,0.015,-0.073,0.059,-0.059,-0.039,-0.205,-0.127,-0.185,-0.137
0.104,-0.068,0.039,0.107,0.015,-0.088,0.073,-0.068,-0.049,-0.215,-0.132,-0.195,-0.146
0.106,-0.068,0.039,0.107,0.015,-0.088,0.073,-0.068,-0.049,-0.215,-0.137,-0.195,-0.146
0.108,-0.068,0.039,0.107,0.015,-0.088,0.073,-0.068,-0.049,-0.215,-0.142,-0.195,-0.146
0.11,-0.068,0.039,0.107,0.015,-0.088,0.073,-0.068,-0.049,-0.215,-0.146,-0.195,-0.146
0.112,-0.059,0.029,0.088,0.015,-0.073,0.059,-0.059,-0.049,-0.215,-0.137,-0.195,-0.137
0.114,-0.059,0.029,0.088,0.015,-0.073,0.059,-0.059,-0.049,-0.215,-0.137,-0.195,-0.137
0.116,-0.059,0.029,0.088,0.015,-0.073,0.059,-0.059,-0.049,-0.215,-0.137,-0.195,-0.137
0.118,-0.059,0.029,0.088,0.015,-0.073,0.059,-0.059,-0.049,-0.215,-0.137,-0.195,-0.137
0.12,-0.059,0.029,0.088,0.015,-0.073,0.059,-0.068,-0.049,-0.215,-0.146,-0.195,-0.146
0.122,-0.059,0.029,0.088,0.015,-0.073,0.059,-0.068,-0.049,-0.215,-0.146,-0.195,-0.146
0.124,-0.059,0.029,0.088,0.015,-0.073,0.059,-0.068,-0.049,-0.215,-0.146,-0.195,-0.146
0.126,-0.059,0.029,0.088,0.015,-0.073,0.059,-0.068,-0.049,-0.215,-0.146,-0.195,-0.146
0.128,-0.059,0.029,0.088,0.015,-0.073,0.059,-0.059,-0.049,-0.215,-0.146,-0.195,-0.146
0.13,-0.059,0.029,0.088,0.015,-0.073,0.059,-0.059,-0.049,-0.215,-0.146,-0.195,-0.146
0.132,-0.059,0.029,0.088,0.015,-0.073,0.059,-0.059,-0.049,-0.215,-0.146,-0.195,-0.146
0.134,-0.059,0.029,0.088,0.015,-0.073,0.059,-0.059,-0.049,-0.215,-0.146,-0.195,-0.146
0.136,-0.059,0.039,0.098,0.01,-0.078,0.068,-0.068,-0.049,-0.215,-0.146,-0.195,-0.146
0.138,-0.059,0.039,0.098,0.01,-0.078,0.068,-0.068,-0.049,-0.215,-0.146,-0.195,-0.146
0.14,-0.059,0.039,0.098,0.01,-0.078,0.068,-0.068,-0.049,-0.215,-0.146,-0.195,-0.146
0.142,-0.059,0.039,0.098,0.01,-0.078,0.068,-0.068,-0.049,-0.215,-0.146,-0.195,-0.146
0.144,-0.049,0.049,0.098,0.0,-0.073,0.073,-0.068,-0.049,-0.205,-0.146,-0.195,-0.146
0.146,-0.049,0.049,0.098,0.0,-0.073,0.073,-0.068,-0.049,-0.205,-0.146,-0.195,-0.146
0.148,-0.049,0.049,0.098,0.0,-0.073,0.073,-0.068,-0.049,-0.205,-0.146,-0.195,-0.146
0.15,-0.049,0.049,0.098,0.0,-0.073,0.073,-0.068,-0.049,-0.205,-0.146,-0.195,-0.146
0.152,-0.059,0.039,0.098,0.01,-0.078,0.068,-0.059,-0.039,-0.205,-0.137,-0.185,-0.146
0.154,-0.059,0.039,0.098,0.01,-0.078,0.068,-0.059,-0.039,-0.205,-0.137,-0.185,-0.146
0.156,-0.059,0.039,0.098,0.01,-0.078,0.068,-0.059,-0.039,-0.205,-0.137,-0.185,-0.146
0.158,-0.059,0.039,0.098,0.01,-0.078,0.068,-0.059,-0.039,-0.205,-0.137,-0.185,-0.146
0.16,-0.059,0.039,0.098,0.01,-0.078,0.068,-0.068,-0.049,-0.205,-0.146,-0.185,-0.156
0.162,-0.059,0.039,0.098,0.01,-0.078,0.068,-0.068,-0.049,-0.205,-0.146,-0.185,-0.156
0.164,-0.059,0.039,0.098,0.01,-0.078,0.068,-0.068,-0.049,-0.205,-0.146,-0.185,-0.156
0.166,-0.059,0.039,0.098,0.01,-0.078,0.068,-0.068,-0.049,-0.205,-0.146,-0.185,-0.156
0.168,-0.049,0.029,0.078,0.01,-0.063,0.054,-0.059,-0.049,-0.215,-0.156,-0.19,-0.156
0.17,-0.049,0.029,0.078,0.01,-0.063,0.054,-0.059,-0.049,-0.215,-0.156,-0.195,-0.156
0.172,-0.049,0.029,0.078,0.01,-0.063,0.054,-0.059,-0.049,-0.215,-0.156,-0.2,-0.156
0.174,-0.049,0.029,0.078,0.01,-0.063,0.054,-0.059,-0.049,-0.215,-0.156,-0.205,-0.156
0.176,-0.054,0.039,0.093,0.01,-0.073,0.063,-0.049,-0.039,-0.21,-0.151,-0.2,-0.146
0.178,-0.059,0.039,0.098,0.01,-0.078,0.068,-0.049,-0.039,-0.205,-0.146,-0.195,-0.146
0.18,-0.063,0.039,0.102,0.015,-0.083,0.068,-0.049,-0.039,-0.2,-0.142,-0.19,-0.146
0.182,-0.068,0.039,0.107,0.015,-0.088,0.073,-0.049,-0.039,-0.195,-0.137,-0.185,-0.146
0.184,-0.059,0.029,0.088,0.015,-0.073,0.059,-0.054,-0.049,-0.205,-0.146,-0.195,-0.146
0.186,-0.059,0.029,0.088,0.015,-0.073,0.059,-0.059,-0.049,-0.205,-0.146,-0.195,-0.146
0.188,-0.059,0.029,0.088,0.015,-0.073,0.059,-0.063,-0.049,-0.205,-0.146,-0.195,-0.146
0.19,-0.059,0.029,0.088,0.015,-0.073,0.059,-0.068,-0.049,-0.205,-0.146,-0.195,-0.146
0.192,-0.049,0.029,0.078,0.01,-0.063,0.054,-0.068,-0.049,-0.205,-0.146,-0.195,-0.146
0.194,-0.049,0.029,0.078,0.01,-0.063,0.054,-0.068,-0.049,-0.205,-0.146,-0.195,-0.146
0.196,-0.049,0.029,0.078,0.01,-0.063,0.054,-0.068,-0.049,-0.205,-0.146,-0.195,-0.146
0.198,-0.049,0.029,0.078,0.01,-0.063,0.054,-0.068,-0.049,-0.205,-0.146,-0.195,-0.146
0.2,-0.049,0.039,0.088,0.005,-0.068,0.063,-0.068,-0.049,-0.195,-0.146,-0.185,-0.156
0.202,-0.049,0.039,0.088,0.005,-0.068,0.063,-0.068,-0.049,-0.195,-0.146,-0.185,-0.156
0.204,-0.049,0.039,0.088,0.005,-0.068,0.063,-0.068,-0.049,-0.195,-0.146,-0.185,-0.156
0.206,-0.049,0.039,0.088,0.005,-0.068,0.063,-0.068,-0.049,-0.195,-0.146,-0.185,-0.156
0.208,-0.049,0.039,0.088,0.005,-0.068,0.063,-0.068,-0.049,-0.205,-0.146,-0.195,-0.146
0.21,-0.049,0.039,0.088,0.005,-0.068,0.063,-0.068,-0.049,-0.205,-0.146,-0.195,-0.146
0.212,-0.049,0.039,0.088,0.005,-0.068,0.063,-0.068,-0.049,-0.205,-0.146,-0.195,-0.146
0.214,-0.049,0.039,0.088,0.005,-0.068,0.063,-0.068,-0.049,-0.205,-0.146,-0.195,-0.146
0.216,-0.049,0.029,0.078,0.01,-0.063,0.054,-0.068,-0.049,-0.195,-0.137,-0.185,-0.156
0.218,-0.049,0.029,0.078,0.01,-0.063,0.054,-0.068,-0.049,-0.195,-0.137,-0.185,-0.156
0.22,-0.049,0.029,0.078,0.01,-0.063,0.054,-0.068,-0.049,-0.195,-0.137,-0.185,-0.156
0.222,-0.049,0.029,0.078,0.01,-0.063,0.054,-0.068,-0.049,-0.195,-0.137,-0.185,-0.156
0.224,-0.059,0.029,0.088,0.015,-0.073,0.059,-0.068,-0.049,-0.185,-0.146,-0.176,-0.146
0.226,-0.059,0.029,0.088,0.015,-0.073,0.059,-0.068,-0.049,-0.185,-0.146,-0.176,-0.146
0.228,-0.059,0.029,0.088,0.015,-0.073,0.059,-0.068,-0.049,-0.185,-0.146,-0.176,-0.146
0.23,-0.059,0.029,0.088,0.015,-0.073,0.059,-0.068,-0.049,-0.185,-0.146,-0.176,-0.146
0.232,-0.049,0.029,0.078,0.01,-0.063,0.054,-0.068,-0.049,-0.195,-0.146,-0.185,-0.146
0.234,-0.049,0.029,0.078,0.01,-0.063,0.054,-0.068,-0.049,-0.195,-0.146,-0.185,-0.146
0.236,-0.049,0.029,0.078,0.01,-0.063,0.054,-0.068,-0.049,-0.195,-0.146,-0.185,-0.146
0.238,-0.049,0.029,0.078,0.01,-0.063,0.054,-0.068,-0.049,-0.195,-0.146,-0.185,-0.146
0.24,-0.049,0.029,0.078,0.01,-0.063,0.054,-0.068,-0.049,-0.185,-0.146,-0.185,-0.156
0.242,-0.049,0.029,0.078,0.01,-0.063,0.054,-0.068,-0.049,-0.185,-0.146,-0.185,-0.156
0.244,-0.049,0.029,0.078,0.01,-0.063,0.054,-0.068,-0.049,-0.185,-0.146,-0.185,-0.156
0.246,-0.049,0.029,0.078,0.01,-0.063,0.054,-0.068,-0.049,-0.185,-0.146,-0.185,-0.156
0.248,-0.059,0.029,0.088,0.015,-0.073,0.059,-0.059,-0.039,-0.176,-0.137,-0.176,-0.151
0.25,-0.059,0.029,0.088,0.015,-0.073,0.059,-0.059,-0.039,-0.176,-0.137,-0.176,-0.146
0.252,-0.059,0.029,0.088,0.015,-0.073,0.059,-0.059,-0.039,-0.176,-0.137,-0.176,-0.142
0.254,-0.059,0.029,0.088,0.015,-0.073,0.059,-0.059,-0.039,-0.176,-0.137,-0.176,-0.137
0.256,-0.059,0.029,0.088,0.015,-0.073,0.059,-0.068,-0.039,-0.185,-0.146,-0.176,-0.146
0.258,-0.059,0.029,0.088,0.015,-0.073,0.059,-0.068,-0.039,-0.185,-0.146,-0.176,-0.146
0.26,-0.059,0.029,0.088,0.015,-0.073,0.059,-0.068,-0.039,-0.185,-0.146,-0.176,-0.146
0.262,-0.059,0.029,0.088,0.015,-0.073,0.059,-0.068,-0.039,-0.185,-0.146,-0.176,-0.146
0.264,-0.049,0.029,0.078,0.01,-0.063,0.054,-0.068,-0.039,-0.185,-0.146,-0.185,-0.156
0.266,-0.049,0.029,0.078,0.01,-0.063,0.054,-0.068,-0.039,-0.185,-0.146,-0.185,-0.156
0.268,-0.049,0.029,0.078,0.01,-0.063,0.054,-0.068,-0.039,-0.185,-0.146,-0.185,-0.156
0.27,-0.049,0.029,0.078,0.01,-0.063,0.054,-0.068,-0.039,-0.185,-0.146,-0.185,-0.156
0.272,-0.059,0.02,0.078,0.02,-0.068,0.049,-0.078,-0.049,-0.176,-0.146,-0.176,-0.146
0.274,-0.059,0.02,0.078,0.02,-0.068,0.049,-0.078,-0.049,-0.176,-0.146,-0.176,-0.146
0.276,-0.059,0.02,0.078,0.02,-0.068,0.049,-0.078,-0.049,-0.176,-0.146,-0.176,-0.146
0.278,-0.059,0.02,0.078,0.02,-0.068,0.049,-0.078,-0.049,-0.176,-0.146,-0.176,-0.146
0.28,-0.049,0.029,0.078,0.01,-0.063,0.054,-0.073,-0.049,-0.185,-0.146,-0.185,-0.156
0.282,-0.049,0.029,0.078,0.01,-0.063,0.054,-0.068,-0.049,-0.185,-0.146,-0.185,-0.156
0.284,-0.049,0.029,0.078,0.01,-0.063,0.054,-0.063,-0.049,-0.185,-0.146,-0.185,-0.156
0.286,-0.049,0.029,0.078,0.01,-0.063,0.054,-0.059,-0.049,-0.185,-0.146,-0.185,-0.156
0.288,-0.039,0.039,0.078,0.0,-0.059,0.059,-0.068,-0.049,-0.176,-0.146,-0.185,-0.146
0.29,-0.039,0.039,0.078,0.0,-0.059,0.059,-0.068,-0.049,-0.176,-0.146,-0.185,-0.146
0.292,-0.039,0.039,0.078,0.0,-0.059,0.059,-0.068,-0.049,-0.176,-0.146,-0.185,-0.146
0.294,-0.039,0.039,0.078,0.0,-0.059,0.059,-0.068,-0.049,-0.176,-0.146,-0.185,-0.146
0.296,-0.049,0.029,0.078,0.01,-0.063,0.054,-0.068,-0.049,-0.185,-0.156,-0.185,-0.156
0.298,-0.049,0.029,0.078,0.01,-0.063,0.054,-0.068,-0.049,-0.185,-0.156,-0.185,-0.156
0.3,-0.049,0.029,0.078,0.01,-0.063,0.054,-0.068,-0.049,-0.185,-0.156,-0.185,-0.156
0.302,-0.049,0.029,0.078,0.01,-0.063,0.054,-0.068,-0.049,-0.185,-0.156,-0.185,-0.156
0.304,-0.049,0.029,0.078,0.01,-0.063,0.054,-0.068,-0.049,-0.185,-0.156,-0.195,-0.156
0.306,-0.049,0.029,0.078,0.01,-0.063,0.054,-0.068,-0.049,-0.185,-0.156,-0.195,-0.156
0.308,-0.049,0.029,0.078,0.01,-0.063,0.054,-0.068,-0.049,-0.185,-0.156,-0.195,-0.156
0.31,-0.049,0.029,0.078,0.01,-0.063,0.054,-0.068,-0.049,-0.185,-0.156,-0.195,-0.156
0.312,-0.049,0.029,0.078,0.01,-0.063,0.054,-0.078,-0.049,-0.185,-0.156,-0.185,-0.156
0.314,-0.049,0.029,0.078,0.01,-0.063,0.054,-0.078,-0.049,-0.185,-0.156,-0.185,-0.156
0.316,-0.049,0.029,0.078,0.01,-0.063,0.054,-0.078,-0.049,-0.185,-0.156,-0.185,-0.156
0.318,-0.049,0.029,0.078,0.01,-0.063,0.054,-0.078,-0.049,-0.185,-0.156,-0.185,-0.156
0.32,-0.049,0.029,0.078,0.01,-0.063,0.054,-0.068,-0.039,-0.195,-0.146,-0.185,-0.146
0.322,-0.049,0.029,0.078,0.01,-0.063,0.054,-0.068,-0.039,-0.195,-0.146,-0.185,-0.146
0.324,-0.049,0.029,0.078,0.01,-0.063,0.054,-0.068,-0.039,-0.195,-0.146,-0.185,-0.146
0.326,-0.049,0.029,0.078,0.01,-0.063,0.054,-0.068,-0.039,-0.195,-0.146,-0.185,-0.146
0.328,-0.039,0.029,0.068,0.005,-0.054,0.049,-0.068,-0.049,-0.195,-0.146,-0.176,-0.146
0.33,-0.039,0.029,0.068,0.005,-0.054,0.049,-0.068,-0.049,-0.195,-0.146,-0.176,-0.146
0.332,-0.039,0.029,0.068,0.005,-0.054,0.049,-0.068,-0.049,-0.195,-0.146,-0.176,-0.146
0.334,-0.039,0.029,0.068,0.005,-0.054,0.049,-0.068,-0.049,-0.195,-0.146,-0.176,-0.146
0.336,-0.039,0.034,0.073,0.005,-0.059,0.054,-0.059,-0.044,-0.19,-0.137,-0.171,-0.137
0.338,-0.039,0.039,0.078,0.0,-0.059,0.059,-0.059,-0.039,-0.185,-0.137,-0.166,-0.137
0.34,-0.039,0.044,0.083,0.0,-0.063,0.063,-0.059,-0.034,-0.181,-0.137,-0.161,-0.137
0.342,-0.039,0.049,0.088,-0.005,-0.063,0.068,-0.059,-0.029,-0.176,-0.137,-0.156,-0.137
0.344,-0.029,0.059,0.088,-0.015,-0.059,0.073,-0.054,-0.02,-0.166,-0.127,-0.156,-0.127
0.346,-0.029,0.068,0.098,-0.02,-0.063,0.083,-0.049,-0.02,-0.166,-0.127,-0.156,-0.127
0.348,-0.029,0.078,0.107,-0.024,-0.068,0.093,-0.044,-0.02,-0.166,-0.127,-0.156,-0.127
0.35,-0.029,0.088,0.117,-0.029,-0.073,0.102,-0.039,-0.02,-0.166,-0.127,-0.156,-0.127
0.352,-0.02,0.102,0.122,-0.039,-0.073,0.112,-0.024,-0.02,-0.161,-0.122,-0.151,-0.117
0.354,-0.02,0.107,0.127,-0.044,-0.073,0.117,-0.02,-0.02,-0.156,-0.117,-0.146,-0.117
0.356,-0.02,0.112,0.132,-0.044,-0.078,0.122,-0.015,-0.02,-0.151,-0.112,-0.142,-0.117
0.358,-0.015,0.127,0.142,-0.054,-0.078,0.132,0.0,-0.02,-0.146,-0.107,-0.137,-0.117
0.36,-0.02,0.132,0.151,-0.054,-0.088,0.142,0.015,-0.005,-0.137,-0.098,-0.127,-0.107
0.362,-0.024,0.132,0.156,-0.054,-0.093,0.142,0.024,0.0,-0.127,-0.093,-0.122,-0.107
0.364,-0.029,0.132,0.161,-0.049,-0.098,0.146,0.024,0.005,-0.127,-0.093,-0.117,-0.102
0.366,-0.034,0.137,0.171,-0.049,-0.102,0.151,0.029,0.01,-0.132,-0.093,-0.117,-0.098
0.368,-0.034,0.137,0.171,-0.049,-0.102,0.151,0.029,0.0,-0.132,-0.093,-0.127,-0.102
0.37,-0.024,0.137,0.161,-0.054,-0.093,0.146,0.029,0.0,-0.132,-0.093,-0.122,-0.107
0.372,-0.024,0.142,0.166,-0.059,-0.098,0.151,0.029,0.0,-0.122,-0.088,-0.122,-0.112
0.374,-0.024,0.151,0.176,-0.063,-0.102,0.161,0.02,0.0,-0.122,-0.078,-0.122,-0.112
0.376,-0.005,0.171,0.176,-0.083,-0.093,0.171,0.015,0.0,-0.132,-0.088,-0.117,-0.112
0.378,0.0,0.171,0.171,-0.083,-0.088,0.171,0.005,0.0,-0.127,-0.088,-0.117,-0.112
0.38,0.005,0.171,0.166,-0.088,-0.083,0.166,0.0,-0.005,-0.127,-0.088,-0.117,-0.112
0.382,0.015,0.171,0.156,-0.093,-0.073,0.161,-0.015,-0.005,-0.127,-0.088,-0.112,-0.107
0.384,0.01,0.161,0.151,-0.083,-0.073,0.156,-0.044,-0.015,-0.132,-0.078,-0.112,-0.098
0.386,0.005,0.146,0.142,-0.073,-0.068,0.142,-0.063,-0.024,-0.142,-0.083,-0.112,-0.098
0.388,0.005,0.146,0.142,-0.073,-0.068,0.142,-0.093,-0.039,-0.151,-0.088,-0.122,-0.098
0.39,0.0,0.146,0.146,-0.073,-0.073,0.146,-0.098,-0.049,-0.161,-0.093,-0.127,-0.102
0.392,0.0,0.132,0.132,-0.063,-0.068,0.132,-0.098,-0.059,-0.176,-0.102,-0.132,-0.102
0.394,-0.005,0.117,0.122,-0.054,-0.063,0.117,-0.098,-0.063,-0.185,-0.107,-0.137,-0.107
0.396,-0.005,0.117,0.122,-0.054,-0.063,0.117,-0.107,-0.068,-0.195,-0.117,-0.142,-0.112
0.398,-0.01,0.117,0.127,-0.054,-0.068,0.122,-0.107,-0.083,-0.205,-0.127,-0.156,-0.117
0.4,-0.01,0.098,0.107,-0.044,-0.059,0.102,-0.098,-0.093,-0.224,-0.146,-0.166,-0.127
0.402,-0.01,0.093,0.102,-0.039,-0.059,0.098,-0.098,-0.098,-0.229,-0.156,-0.166,-0.127
0.404,-0.01,0.093,0.102,-0.039,-0.059,0.098,-0.102,-0.102,-0.229,-0.156,-0.166,-0.127
0.406,0.0,0.088,0.088,-0.044,-0.044,0.088,-0.107,-0.102,-0.229,-0.146,-0.166,-0.127
0.408,0.0,0.078,0.078,-0.039,-0.039,0.078,-0.112,-0.098,-0.215,-0.137,-0.161,-0.117
0.41,0.005,0.078,0.073,-0.039,-0.034,0.073,-0.117,-0.093,-0.215,-0.137,-0.161,-0.112
0.412,0.01,0.078,0.068,-0.044,-0.029,0.073,-0.127,-0.098,-0.215,-0.137,-0.166,-0.112
0.414,0.015,0.073,0.059,-0.044,-0.024,0.063,-0.137,-0.093,-0.224,-0.137,-0.166,-0.112
0.416,0.02,0.078,0.059,-0.049,-0.02,0.068,-0.142,-0.098,-0.224,-0.137,-0.161,-0.117
0.418,0.02,0.078,0.059,-0.049,-0.02,0.068,-0.146,-0.098,-0.224,-0.137,-0.156,-0.117
0.42,0.02,0.078,0.059,-0.049,-0.02,0.068,-0.146,-0.098,-0.224,-0.137,-0.156,-0.107
0.422,0.02,0.073,0.054,-0.044,-0.02,0.063,-0.146,-0.102,-0.234,-0.137,-0.156,-0.117
0.424,0.01,0.068,0.059,-0.039,-0.024,0.063,-0.142,-0.093,-0.229,-0.156,-0.161,-0.107
0.426,0.0,0.054,0.054,-0.024,-0.029,0.054,-0.132,-0.102,-0.234,-0.161,-0.161,-0.117
0.428,0.0,0.039,0.039,-0.02,-0.02,0.039,-0.127,-0.102,-0.239,-0.171,-0.171,-0.127
0.43,-0.024,0.029,0.054,0.0,-0.039,0.039,-0.122,-0.102,-0.239,-0.171,-0.166,-0.127
0.432,-0.029,0.034,0.063,0.0,-0.049,0.049,-0.117,-0.102,-0.239,-0.166,-0.181,-0.132
0.434,-0.039,0.034,0.073,0.005,-0.059,0.054,-0.107,-0.098,-0.239,-0.166,-0.181,-0.132
0.436,-0.054,0.024,0.078,0.015,-0.068,0.049,-0.102,-0.093,-0.234,-0.166,-0.181,-0.132
0.438,-0.054,0.024,0.078,0.015,-0.068,0.049,-0.102,-0.093,-0.234,-0.166,-0.181,-0.137
0.44,-0.059,0.02,0.078,0.02,-0.068,0.049,-0.093,-0.098,-0.249,-0.176,-0.19,-0.142
0.442,-0.063,0.005,0.068,0.029,-0.068,0.034,-0.088,-0.102,-0.249,-0.181,-0.19,-0.146
0.444,-0.068,0.0,0.068,0.034,-0.068,0.034,-0.083,-0.107,-0.249,-0.181,-0.19,-0.156
0.446,-0.073,0.0,0.073,0.039,-0.073,0.034,-0.078,-0.112,-0.249,-0.181,-0.2,-0.161
0.448,-0.073,-0.015,0.059,0.044,-0.068,0.02,-0.088,-0.112,-0.249,-0.181,-0.19,-0.161
0.45,-0.073,-0.015,0.059,0.044,-0.068,0.02,-0.088,-0.112,-0.254,-0.185,-0.195,-0.166
0.452,-0.073,-0.015,0.059,0.044,-0.068,0.02,-0.088,-0.112,-0.254,-0.19,-0.2,-0.176
0.454,-0.073,-0.015,0.059,0.044,-0.068,0.02,-0.088,-0.112,-0.254,-0.19,-0.205,-0.176
0.456,-0.073,-0.02,0.054,0.049,-0.063,0.015,-0.088,-0.112,-0.254,-0.2,-0.21,-0.176
0.458,-0.078,-0.02,0.059,0.049,-0.068,0.02,-0.093,-0.117,-0.254,-0.205,-0.215,-0.176
0.46,-0.078,-0.024,0.054,0.054,-0.068,0.015,-0.093,-0.117,-0.259,-0.205,-0.215,-0.176
0.462,-0.078,-0.029,0.049,0.054,-0.063,0.01,-0.088,-0.117,-0.264,-0.205,-0.205,-0.176
0.464,-0.088,-0.02,0.068,0.054,-0.078,0.024,-0.088,-0.112,-0.254,-0.195,-0.215,-0.181
0.466,-0.088,-0.015,0.073,0.054,-0.083,0.029,-0.088,-0.112,-0.249,-0.195,-0.215,-0.181
0.468,-0.088,-0.015,0.073,0.054,-0.083,0.029,-0.088,-0.112,-0.249,-0.19,-0.215,-0.181
0.47,-0.088,-0.015,0.073,0.054,-0.083,0.029,-0.088,-0.107,-0.244,-0.19,-0.215,-0.181
0.472,-0.073,-0.015,0.059,0.044,-0.068,0.02,-0.088,-0.107,-0.254,-0.2,-0.205,-0.171
0.474,-0.073,-0.02,0.054,0.049,-0.063,0.015,-0.088,-0.107,-0.254,-0.2,-0.205,-0.171
0.476,-0.073,-0.02,0.054,0.049,-0.063,0.015,-0.088,-0.112,-0.254,-0.2,-0.205,-0.171
0.478,-0.073,-0.02,0.054,0.049,-0.063,0.015,-0.088,-0.112,-0.259,-0.2,-0.205,-0.171
0.48,-0.073,-0.02,0.054,0.049,-0.063,0.015,-0.073,-0.107,-0.249,-0.195,-0.205,-0.181
0.482,-0.073,-0.02,0.054,0.049,-0.063,0.015,-0.073,-0.107,-0.249,-0.195,-0.21,-0.181
0.484,-0.078,-0.015,0.063,0.049,-0.073,0.024,-0.078,-0.107,-0.249,-0.195,-0.21,-0.181
0.486,-0.078,-0.01,0.068,0.044,-0.073,0.029,-0.078,-0.107,-0.249,-0.195,-0.21,-0.181
0.488,-0.078,-0.01,0.068,0.044,-0.073,0.029,-0.083,-0.117,-0.249,-0.195,-0.205,-0.181
0.49,-0.073,-0.01,0.063,0.044,-0.068,0.024,-0.083,-0.112,-0.239,-0.19,-0.2,-0.181
0.492,-0.073,-0.01,0.063,0.044,-0.068,0.024,-0.083,-0.112,-0.234,-0.185,-0.195,-0.176
0.494,-0.073,-0.01,0.063,0.044,-0.068,0.024,-0.088,-0.112,-0.234,-0.181,-0.195,-0.176
0.496,-0.078,-0.015,0.063,0.049,-0.073,0.024,-0.088,-0.112,-0.234,-0.181,-0.195,-0.176
0.498,-0.078,-0.015,0.063,0.049,-0.073,0.024,-0.088,-0.112,-0.239,-0.185,-0.195,-0.176
0.5,-0.078,-0.015,0.063,0.049,-0.073,0.024,-0.083,-0.112,-0.244,-0.185,-0.195,-0.176
0.502,-0.078,-0.015,0.063,0.049,-0.073,0.024,-0.083,-0.107,-0.254,-0.185,-0.195,-0.176
0.504,-0.059,0.01,0.068,0.024,-0.063,0.039,-0.083,-0.107,-0.234,-0.195,-0.195,-0.166
0.506,-0.059,0.01,0.068,0.024,-0.063,0.039,-0.073,-0.098,-0.234,-0.185,-0.19,-0.156
0.508,-0.068,0.01,0.078,0.029,-0.073,0.044,-0.073,-0.093,-0.224,-0.176,-0.19,-0.156
0.51,-0.083,0.01,0.093,0.039,-0.088,0.049,-0.059,-0.083,-0.21,-0.171,-0.19,-0.156
0.512,-0.078,-0.005,0.073,0.044,-0.078,0.034,-0.034,-0.054,-0.2,-0.171,-0.19,-0.166
0.514,-0.083,-0.02,0.063,0.054,-0.073,0.02,-0.01,-0.02,-0.185,-0.171,-0.195,-0.176
0.516,-0.088,-0.02,0.068,0.054,-0.078,0.024,0.02,0.015,-0.166,-0.171,-0.21,-0.195
0.518,-0.107,-0.024,0.083,0.068,-0.098,0.029,0.044,0.044,-0.146,-0.161,-0.21,-0.2
0.52,-0.122,-0.024,0.098,0.073,-0.112,0.034,0.059,0.063,-0.117,-0.156,-0.21,-0.2
0.522,-0.132,-0.024,0.107,0.078,-0.122,0.039,0.073,0.078,-0.088,-0.146,-0.205,-0.21
0.524,-0.132,-0.01,0.122,0.073,-0.127,0.054,0.093,0.093,-0.049,-0.127,-0.195,-0.2
0.526,-0.137,0.015,0.151,0.063,-0.146,0.083,0.127,0.112,0.005,-0.093,-0.171,-0.2
0.528,-0.137,0.054,0.19,0.044,-0.166,0.122,0.181,0.161,0.078,-0.044,-0.142,-0.19
0.53,-0.137,0.054,0.19,0.044,-0.166,0.122,0.264,0.249,0.176,0.039,-0.098,-0.176
0.532,-0.127,0.049,0.176,0.039,-0.151,0.112,0.346,0.381,0.293,0.142,-0.044,-0.151
0.534,-0.112,0.098,0.21,0.01,-0.161,0.151,0.381,0.483,0.41,0.244,0.039,-0.107
0.536,-0.063,0.156,0.22,-0.044,-0.142,0.185,0.351,0.508,0.493,0.371,0.137,-0.039
0.538,-0.01,0.2,0.21,-0.093,-0.112,0.205,0.264,0.498,0.571,0.512,0.278,0.063
0.54,0.059,0.254,0.195,-0.156,-0.068,0.224,0.137,0.468,0.683,0.683,0.444,0.171
0.542,0.156,0.332,0.176,-0.244,-0.01,0.254,-0.039,0.415,0.776,0.849,0.59,0.278
0.544,0.273,0.41,0.137,-0.342,0.068,0.273,-0.234,0.283,0.8,0.991,0.737,0.381
0.546,0.361,0.454,0.093,-0.405,0.132,0.273,-0.449,0.093,0.756,1.093,0.854,0.468
0.548,0.42,0.478,0.059,-0.449,0.181,0.268,-0.634,-0.102,0.683,1.137,0.917,0.522
0.55,0.493,0.503,0.01,-0.498,0.239,0.254,-0.786,-0.298,0.561,1.118,0.913,0.561
0.552,0.532,0.493,-0.039,-0.512,0.283,0.224,-0.888,-0.483,0.415,1.049,0.898,0.581
0.554,0.522,0.454,-0.068,-0.488,0.293,0.19,-0.927,-0.654,0.205,0.883,0.795,0.542
0.556,0.483,0.386,-0.098,-0.434,0.288,0.142,-0.942,-0.849,-0.102,0.615,0.6,0.464
0.558,0.459,0.327,-0.132,-0.39,0.293,0.098,-0.961,-1.078,-0.454,0.298,0.4,0.395
0.56,0.425,0.283,-0.142,-0.351,0.283,0.068,-0.971,-1.274,-0.771,0.015,0.249,0.337
0.562,0.39,0.229,-0.161,-0.307,0.273,0.034,-0.981,-1.357,-0.991,-0.21,0.122,0.278
0.564,0.376,0.156,-0.22,-0.264,0.298,-0.034,-0.981,-1.337,-1.088,-0.356,0.005,0.215
0.566,0.361,0.098,-0.264,-0.229,0.312,-0.083,-0.947,-1.308,-1.118,-0.464,-0.078,0.156
0.568,0.312,0.054,-0.259,-0.181,0.283,-0.102,-0.898,-1.274,-1.122,-0.527,-0.146,0.098
0.57,0.268,0.02,-0.249,-0.142,0.259,-0.117,-0.874,-1.23,-1.127,-0.586,-0.215,0.039
0.572,0.22,0.0,-0.22,-0.107,0.22,-0.112,-0.864,-1.215,-1.157,-0.649,-0.283,-0.01
0.574,0.171,0.0,-0.171,-0.083,0.171,-0.088,-0.825,-1.21,-1.181,-0.698,-0.332,-0.044
0.576,0.122,-0.015,-0.137,-0.054,0.127,-0.078,-0.776,-1.171,-1.181,-0.712,-0.351,-0.073
0.578,0.102,-0.049,-0.151,-0.024,0.127,-0.102,-0.717,-1.108,-1.152,-0.703,-0.361,-0.098
0.58,0.068,-0.078,-0.146,0.005,0.107,-0.112,-0.644,-1.025,-1.122,-0.683,-0.371,-0.127
0.582,0.039,-0.088,-0.127,0.024,0.083,-0.107,-0.566,-0.937,-1.049,-0.669,-0.371,-0.137
0.584,0.02,-0.102,-0.122,0.044,0.068,-0.112,-0.468,-0.82,-0.952,-0.625,-0.361,-0.146
0.586,0.005,-0.122,-0.127,0.059,0.063,-0.127,-0.366,-0.693,-0.82,-0.566,-0.342,-0.151
0.588,-0.02,-0.132,-0.112,0.078,0.044,-0.122,-0.293,-0.576,-0.708,-0.512,-0.342,-0.176
0.59,-0.044,-0.142,-0.098,0.093,0.024,-0.122,-0.224,-0.483,-0.605,-0.464,-0.327,-0.2
0.592,-0.054,-0.137,-0.083,0.098,0.015,-0.112,-0.176,-0.371,-0.498,-0.386,-0.303,-0.2
0.594,-0.063,-0.112,-0.049,0.088,-0.01,-0.083,-0.137,-0.264,-0.39,-0.303,-0.254,-0.19
0.596,-0.078,-0.078,0.0,0.078,-0.039,-0.039,-0.107,-0.176,-0.312,-0.234,-0.21,-0.171
0.598,-0.063,-0.068,-0.005,0.068,-0.029,-0.039,-0.083,-0.107,-0.273,-0.185,-0.176,-0.151
0.6,-0.044,-0.063,-0.02,0.054,-0.015,-0.044,-0.063,-0.078,-0.244,-0.161,-0.156,-0.146
0.602,-0.044,-0.054,-0.01,0.049,-0.02,-0.034,-0.044,-0.063,-0.244,-0.161,-0.151,-0.137
0.604,-0.054,-0.044,0.01,0.049,-0.034,-0.02,-0.029,-0.059,-0.234,-0.176,-0.161,-0.137
0.606,-0.044,-0.024,0.02,0.034,-0.034,-0.005,-0.029,-0.059,-0.21,-0.176,-0.166,-0.137
0.608,-0.044,0.01,0.054,0.02,-0.049,0.029,-0.029,-0.049,-0.181,-0.176,-0.171,-0.146
0.61,-0.044,0.015,0.059,0.015,-0.054,0.034,-0.029,-0.049,-0.156,-0.166,-0.171,-0.146
0.612,-0.059,0.005,0.063,0.029,-0.063,0.034,-0.039,-0.039,-0.142,-0.161,-0.176,-0.156
0.614,-0.054,0.02,0.073,0.02,-0.063,0.044,-0.049,-0.029,-0.142,-0.142,-0.161,-0.146
0.616,-0.054,0.02,0.073,0.02,-0.063,0.044,-0.039,-0.024,-0.142,-0.132,-0.156,-0.142
0.618,-0.049,0.02,0.068,0.015,-0.059,0.044,-0.024,-0.015,-0.137,-0.122,-0.151,-0.142
0.62,-0.044,0.02,0.063,0.015,-0.054,0.039,-0.024,-0.005,-0.142,-0.117,-0.151,-0.142
0.622,-0.054,0.015,0.068,0.02,-0.063,0.039,-0.01,-0.005,-0.137,-0.122,-0.146,-0.132
0.624,-0.059,0.01,0.068,0.024,-0.063,0.039,0.0,0.0,-0.137,-0.122,-0.142,-0.132
0.626,-0.059,0.005,0.063,0.029,-0.063,0.034,0.0,0.01,-0.127,-0.122,-0.137,-0.132
0.628,-0.054,0.0,0.054,0.029,-0.054,0.024,0.0,0.015,-0.122,-0.127,-0.137,-0.142
0.63,-0.063,0.01,0.073,0.029,-0.068,0.039,0.0,0.015,-0.107,-0.137,-0.151,-0.151
0.632,-0.063,0.015,0.078,0.024,-0.073,0.044,0.0,0.015,-0.102,-0.132,-0.151,-0.146
0.634,-0.063,0.015,0.078,0.024,-0.073,0.044,-0.005,0.015,-0.098,-0.132,-0.146,-0.146
0.636,-0.063,0.015,0.078,0.024,-0.073,0.044,-0.005,0.02,-0.098,-0.122,-0.142,-0.146
0.638,-0.054,0.015,0.068,0.02,-0.063,0.039,0.005,0.029,-0.098,-0.117,-0.132,-0.137
0.64,-0.059,0.015,0.073,0.024,-0.068,0.044,0.005,0.029,-0.102,-0.117,-0.132,-0.137
0.642,-0.059,0.02,0.078,0.02,-0.068,0.049,0.005,0.034,-0.107,-0.112,-0.127,-0.137
0.644,-0.059,0.02,0.078,0.02,-0.068,0.049,0.01,0.034,-0.112,-0.102,-0.127,-0.137
0.646,-0.049,0.015,0.063,0.02,-0.059,0.039,0.01,0.024,-0.102,-0.107,-0.132,-0.137
0.648,-0.049,0.015,0.063,0.02,-0.059,0.039,0.01,0.034,-0.102,-0.107,-0.132,-0.137
0.65,-0.044,0.015,0.059,0.015,-0.054,0.034,0.01,0.034,-0.098,-0.107,-0.132,-0.137
0.652,-0.044,0.02,0.063,0.015,-0.054,0.039,0.01,0.034,-0.088,-0.107,-0.132,-0.137
0.654,-0.049,0.02,0.068,0.015,-0.059,0.044,0.0,0.034,-0.098,-0.102,-0.142,-0.146
0.656,-0.049,0.02,0.068,0.015,-0.059,0.044,0.005,0.039,-0.093,-0.102,-0.142,-0.146
0.658,-0.049,0.02,0.068,0.015,-0.059,0.044,0.01,0.039,-0.093,-0.102,-0.142,-0.142
0.66,-0.044,0.02,0.063,0.015,-0.054,0.039,0.01,0.039,-0.093,-0.098,-0.142,-0.142
0.662,-0.054,0.02,0.073,0.02,-0.063,0.044,0.015,0.039,-0.093,-0.098,-0.132,-0.142
0.664,-0.054,0.02,0.073,0.02,-0.063,0.044,0.015,0.044,-0.093,-0.098,-0.132,-0.142
0.666,-0.054,0.02,0.073,0.02,-0.063,0.044,0.015,0.044,-0.088,-0.098,-0.127,-0.142
0.668,-0.054,0.02,0.073,0.02,-0.063,0.044,0.015,0.044,-0.088,-0.098,-0.127,-0.142
0.67,-0.054,0.01,0.063,0.024,-0.059,0.034,0.01,0.049,-0.078,-0.088,-0.127,-0.132
0.672,-0.054,0.01,0.063,0.024,-0.059,0.034,0.01,0.049,-0.078,-0.088,-0.127,-0.132
0.674,-0.054,0.01,0.063,0.024,-0.059,0.034,0.005,0.049,-0.073,-0.083,-0.127,-0.132
0.676,-0.059,0.01,0.068,0.024,-0.063,0.039,0.005,0.049,-0.073,-0.083,-0.127,-0.127
0.678,-0.059,0.01,0.068,0.024,-0.063,0.039,0.005,0.049,-0.073,-0.093,-0.127,-0.137
0.68,-0.054,0.01,0.063,0.024,-0.059,0.034,0.005,0.049,-0.078,-0.093,-0.127,-0.137
0.682,-0.054,0.01,0.063,0.024,-0.059,0.034,0.005,0.054,-0.083,-0.088,-0.127,-0.137
0.684,-0.059,0.01,0.068,0.024,-0.063,0.039,0.01,0.059,-0.083,-0.083,-0.122,-0.137
0.686,-0.054,0.015,0.068,0.02,-0.063,0.039,0.015,0.059,-0.083,-0.083,-0.122,-0.137
0.688,-0.044,0.02,0.063,0.015,-0.054,0.039,0.02,0.059,-0.083,-0.083,-0.122,-0.137
0.69,-0.039,0.029,0.068,0.005,-0.054,0.049,0.024,0.063,-0.073,-0.083,-0.122,-0.137
0.692,-0.034,0.034,0.068,0.0,-0.054,0.049,0.029,0.068,-0.073,-0.083,-0.122,-0.137
0.694,-0.044,0.024,0.068,0.01,-0.059,0.044,0.02,0.068,-0.063,-0.073,-0.122,-0.127
0.696,-0.044,0.024,0.068,0.01,-0.059,0.044,0.024,0.068,-0.063,-0.073,-0.122,-0.127
0.698,-0.044,0.024,0.068,0.01,-0.059,0.044,0.024,0.073,-0.059,-0.068,-0.117,-0.127
0.7,-0.044,0.024,0.068,0.01,-0.059,0.044,0.024,0.073,-0.059,-0.068,-0.117,-0.122
0.702,-0.054,0.015,0.068,0.02,-0.063,0.039,0.015,0.088,-0.059,-0.073,-0.117,-0.132
0.704,-0.049,0.015,0.063,0.02,-0.059,0.039,0.015,0.088,-0.054,-0.073,-0.117,-0.132
0.706,-0.049,0.015,0.063,0.02,-0.059,0.039,0.015,0.088,-0.054,-0.073,-0.112,-0.132
0.708,-0.049,0.015,0.063,0.02,-0.059,0.039,0.015,0.088,-0.054,-0.073,-0.112,-0.132
0.71,-0.039,0.02,0.059,0.01,-0.049,0.039,0.02,0.093,-0.044,-0.059,-0.107,-0.117
0.712,-0.039,0.029,0.068,0.005,-0.054,0.049,0.024,0.093,-0.044,-0.059,-0.107,-0.117
0.714,-0.039,0.034,0.073,0.005,-0.059,0.054,0.024,0.093,-0.044,-0.049,-0.102,-0.117
0.716,-0.039,0.039,0.078,0.0,-0.059,0.059,0.02,0.098,-0.039,-0.049,-0.102,-0.117
0.718,-0.039,0.029,0.068,0.005,-0.054,0.049,0.02,0.098,-0.029,-0.039,-0.102,-0.117
0.72,-0.039,0.029,0.068,0.005,-0.054,0.049,0.02,0.098,-0.029,-0.039,-0.102,-0.117
0.722,-0.034,0.034,0.068,0.0,-0.054,0.049,0.02,0.102,-0.024,-0.034,-0.102,-0.117
0.724,-0.034,0.034,0.068,0.0,-0.054,0.049,0.02,0.102,-0.024,-0.034,-0.102,-0.112
0.726,-0.034,0.024,0.059,0.005,-0.049,0.039,0.02,0.102,-0.029,-0.039,-0.102,-0.112
0.728,-0.034,0.024,0.059,0.005,-0.049,0.039,0.02,0.107,-0.024,-0.039,-0.102,-0.112
0.73,-0.034,0.024,0.059,0.005,-0.049,0.039,0.024,0.112,-0.02,-0.034,-0.098,-0.112
0.732,-0.029,0.024,0.054,0.005,-0.044,0.039,0.024,0.117,-0.02,-0.034,-0.098,-0.112
0.734,-0.029,0.034,0.063,0.0,-0.049,0.049,0.034,0.117,-0.02,-0.034,-0.098,-0.112
0.736,-0.029,0.039,0.068,-0.005,-0.049,0.054,0.034,0.127,-0.01,-0.029,-0.093,-0.107
0.738,-0.029,0.039,0.068,-0.005,-0.049,0.054,0.029,0.127,-0.005,-0.029,-0.083,-0.102
0.74,-0.029,0.039,0.068,-0.005,-0.049,0.054,0.029,0.127,-0.005,-0.029,-0.083,-0.102
0.742,-0.034,0.039,0.073,0.0,-0.054,0.054,0.029,0.127,-0.005,-0.029,-0.088,-0.112
0.744,-0.034,0.039,0.073,0.0,-0.054,0.054,0.034,0.137,0.005,-0.024,-0.088,-0.112
0.746,-0.034,0.039,0.073,0.0,-0.054,0.054,0.039,0.142,0.01,-0.015,-0.088,-0.112
0.748,-0.034,0.044,0.078,-0.005,-0.059,0.059,0.044,0.146,0.015,-0.015,-0.083,-0.107
0.75,-0.034,0.034,0.068,0.0,-0.054,0.049,0.049,0.137,0.02,-0.01,-0.078,-0.107
0.752,-0.029,0.034,0.063,0.0,-0.049,0.049,0.049,0.137,0.02,-0.01,-0.078,-0.107
0.754,-0.029,0.039,0.068,-0.005,-0.049,0.054,0.049,0.146,0.024,-0.005,-0.078,-0.102
0.756,-0.029,0.039,0.068,-0.005,-0.049,0.054,0.044,0.151,0.034,0.0,-0.068,-0.102
0.758,-0.02,0.049,0.068,-0.015,-0.044,0.059,0.039,0.161,0.044,0.01,-0.068,-0.093
0.76,-0.01,0.054,0.063,-0.02,-0.039,0.059,0.039,0.166,0.049,0.015,-0.063,-0.088
0.762,-0.01,0.054,0.063,-0.02,-0.039,0.059,0.044,0.171,0.049,0.02,-0.063,-0.088
0.764,-0.01,0.059,0.068,-0.024,-0.039,0.063,0.044,0.176,0.054,0.02,-0.063,-0.088
0.766,-0.015,0.068,0.083,-0.024,-0.049,0.073,0.044,0.181,0.054,0.02,-0.054,-0.083
0.768,-0.015,0.073,0.088,-0.029,-0.054,0.078,0.049,0.181,0.063,0.024,-0.054,-0.083
0.77,-0.015,0.078,0.093,-0.029,-0.054,0.083,0.054,0.181,0.068,0.024,-0.054,-0.083
0.772,-0.015,0.078,0.093,-0.029,-0.054,0.083,0.054,0.19,0.078,0.034,-0.044,-0.078
0.774,0.0,0.068,0.068,-0.034,-0.034,0.068,0.063,0.205,0.083,0.044,-0.029,-0.073
0.776,0.0,0.073,0.073,-0.034,-0.039,0.073,0.059,0.205,0.083,0.049,-0.024,-0.073
0.778,0.0,0.073,0.073,-0.034,-0.039,0.073,0.059,0.21,0.088,0.063,-0.02,-0.073
0.78,0.005,0.073,0.068,-0.039,-0.034,0.068,0.059,0.215,0.093,0.078,-0.015,-0.063
0.782,0.005,0.073,0.068,-0.039,-0.034,0.068,0.059,0.22,0.098,0.083,-0.015,-0.059
0.784,0.005,0.078,0.073,-0.039,-0.034,0.073,0.059,0.22,0.107,0.083,-0.015,-0.059
0.786,0.015,0.078,0.063,-0.044,-0.024,0.068,0.054,0.22,0.107,0.083,-0.015,-0.059
0.788,0.015,0.083,0.068,-0.049,-0.029,0.073,0.044,0.22,0.112,0.083,-0.01,-0.059
0.79,0.015,0.083,0.068,-0.049,-0.029,0.073,0.054,0.224,0.122,0.083,-0.02,-0.059
0.792,0.02,0.088,0.068,-0.054,-0.024,0.078,0.044,0.229,0.127,0.083,-0.015,-0.054
0.794,0.024,0.093,0.068,-0.059,-0.024,0.078,0.044,0.234,0.132,0.088,-0.01,-0.049
0.796,0.024,0.093,0.068,-0.059,-0.024,0.078,0.044,0.244,0.137,0.098,-0.005,-0.044
0.798,0.015,0.088,0.073,-0.049,-0.029,0.078,0.049,0.249,0.146,0.112,0.005,-0.054
0.8,0.02,0.088,0.068,-0.054,-0.024,0.078,0.049,0.254,0.151,0.122,0.01,-0.044
0.802,0.024,0.088,0.063,-0.054,-0.02,0.073,0.049,0.264,0.156,0.127,0.02,-0.039
0.804,0.024,0.088,0.063,-0.054,-0.02,0.073,0.049,0.278,0.166,0.142,0.024,-0.034
0.806,0.044,0.107,0.063,-0.073,-0.01,0.083,0.049,0.278,0.171,0.132,0.029,-0.034
0.808,0.049,0.112,0.063,-0.078,-0.01,0.088,0.054,0.278,0.185,0.142,0.029,-0.029
0.81,0.049,0.117,0.068,-0.083,-0.01,0.093,0.054,0.283,0.19,0.146,0.034,-0.024
0.812,0.049,0.117,0.068,-0.083,-0.01,0.093,0.054,0.288,0.195,0.151,0.044,-0.024
0.814,0.059,0.137,0.078,-0.098,-0.01,0.107,0.059,0.312,0.21,0.166,0.059,-0.015
0.816,0.063,0.142,0.078,-0.102,-0.01,0.107,0.054,0.322,0.215,0.181,0.063,-0.01
0.818,0.063,0.142,0.078,-0.102,-0.01,0.107,0.049,0.327,0.229,0.19,0.068,-0.005
0.82,0.063,0.142,0.078,-0.102,-0.01,0.107,0.049,0.337,0.239,0.2,0.078,0.005
0.822,0.068,0.137,0.068,-0.102,0.0,0.102,0.049,0.337,0.234,0.205,0.073,0.0
0.824,0.063,0.137,0.073,-0.098,-0.005,0.102,0.054,0.337,0.244,0.21,0.078,0.005
0.826,0.063,0.132,0.068,-0.098,-0.005,0.098,0.059,0.346,0.254,0.229,0.093,0.01
0.828,0.063,0.132,0.068,-0.098,-0.005,0.098,0.059,0.346,0.259,0.239,0.098,0.02
0.83,0.083,0.132,0.049,-0.107,0.015,0.088,0.054,0.356,0.273,0.239,0.102,0.029
0.832,0.083,0.137,0.054,-0.107,0.015,0.093,0.049,0.361,0.278,0.249,0.107,0.034
0.834,0.088,0.137,0.049,-0.112,0.02,0.093,0.044,0.371,0.288,0.259,0.112,0.039
0.836,0.098,0.146,0.049,-0.122,0.024,0.098,0.039,0.376,0.293,0.259,0.117,0.044
0.838,0.102,0.161,0.059,-0.132,0.02,0.107,0.039,0.371,0.293,0.259,0.127,0.034
0.84,0.102,0.161,0.059,-0.132,0.02,0.107,0.039,0.376,0.303,0.273,0.132,0.039
0.842,0.107,0.161,0.054,-0.132,0.024,0.107,0.039,0.381,0.303,0.278,0.137,0.044
0.844,0.107,0.166,0.059,-0.137,0.024,0.112,0.039,0.386,0.303,0.288,0.146,0.049
0.846,0.102,0.176,0.073,-0.137,0.015,0.122,0.039,0.386,0.307,0.298,0.146,0.049
0.848,0.107,0.181,0.073,-0.142,0.015,0.127,0.039,0.39,0.317,0.303,0.146,0.049
0.85,0.107,0.181,0.073,-0.142,0.015,0.127,0.039,0.395,0.327,0.312,0.161,0.059
0.852,0.107,0.185,0.078,-0.146,0.015,0.132,0.044,0.405,0.337,0.327,0.166,0.068
0.854,0.127,0.176,0.049,-0.151,0.039,0.112,0.034,0.42,0.346,0.327,0.171,0.083
0.856,0.127,0.176,0.049,-0.151,0.039,0.112,0.024,0.42,0.351,0.327,0.176,0.083
0.858,0.127,0.185,0.059,-0.156,0.034,0.122,0.024,0.42,0.351,0.332,0.181,0.083
0.86,0.137,0.19,0.054,-0.161,0.039,0.122,0.024,0.425,0.351,0.332,0.185,0.088
0.862,0.137,0.19,0.054,-0.161,0.039,0.122,0.034,0.425,0.351,0.342,0.19,0.088
0.864,0.137,0.19,0.054,-0.161,0.039,0.122,0.024,0.425,0.356,0.351,0.19,0.093
0.866,0.142,0.19,0.049,-0.166,0.044,0.117,0.024,0.429,0.356,0.351,0.2,0.102
0.868,0.146,0.19,0.044,-0.166,0.049,0.117,0.02,0.429,0.361,0.361,0.205,0.107
0.87,0.156,0.2,0.044,-0.176,0.054,0.122,0.01,0.42,0.361,0.361,0.21,0.098
0.872,0.156,0.205,0.049,-0.181,0.054,0.127,0.01,0.42,0.371,0.366,0.215,0.102
0.874,0.166,0.205,0.039,-0.185,0.063,0.122,0.005,0.42,0.371,0.371,0.224,0.112
0.876,0.171,0.21,0.039,-0.19,0.063,0.122,0.005,0.42,0.371,0.376,0.224,0.112
0.878,0.171,0.21,0.039,-0.19,0.063,0.122,-0.01,0.429,0.361,0.381,0.22,0.117
0.88,0.171,0.21,0.039,-0.19,0.063,0.122,-0.01,0.429,0.366,0.386,0.224,0.117
0.882,0.171,0.21,0.039,-0.19,0.063,0.122,-0.015,0.429,0.366,0.39,0.229,0.117
0.884,0.181,0.205,0.024,-0.19,0.078,0.112,-0.02,0.429,0.366,0.39,0.229,0.122
0.886,0.176,0.205,0.029,-0.19,0.073,0.117,-0.015,0.429,0.366,0.39,0.229,0.122
0.888,0.176,0.21,0.034,-0.19,0.068,0.122,-0.02,0.429,0.371,0.39,0.234,0.127
0.89,0.176,0.22,0.044,-0.195,0.063,0.132,-0.024,0.429,0.371,0.39,0.244,0.127
0.892,0.181,0.22,0.039,-0.2,0.068,0.127,-0.024,0.429,0.371,0.395,0.244,0.137
0.894,0.19,0.22,0.029,-0.205,0.078,0.122,-0.034,0.425,0.366,0.405,0.259,0.142
0.896,0.19,0.215,0.024,-0.2,0.083,0.117,-0.034,0.425,0.366,0.41,0.264,0.142
0.898,0.195,0.215,0.02,-0.205,0.088,0.117,-0.034,0.42,0.366,0.41,0.264,0.146
0.9,0.195,0.224,0.029,-0.21,0.083,0.127,-0.039,0.415,0.366,0.4,0.264,0.146
0.902,0.185,0.224,0.039,-0.205,0.073,0.132,-0.029,0.41,0.376,0.4,0.264,0.146
0.904,0.181,0.224,0.044,-0.2,0.068,0.132,-0.029,0.405,0.371,0.4,0.264,0.146
0.906,0.181,0.229,0.049,-0.205,0.063,0.137,-0.034,0.4,0.366,0.39,0.254,0.146
0.908,0.181,0.229,0.049,-0.205,0.063,0.137,-0.034,0.386,0.356,0.386,0.254,0.142
0.91,0.181,0.234,0.054,-0.205,0.063,0.142,-0.029,0.386,0.337,0.366,0.244,0.127
0.912,0.181,0.234,0.054,-0.205,0.063,0.142,-0.029,0.376,0.327,0.361,0.239,0.127
0.914,0.171,0.234,0.063,-0.2,0.054,0.146,-0.024,0.366,0.317,0.351,0.234,0.122
0.916,0.166,0.234,0.068,-0.2,0.049,0.151,-0.024,0.356,0.312,0.342,0.22,0.117
0.918,0.161,0.234,0.073,-0.195,0.044,0.151,-0.034,0.342,0.293,0.332,0.215,0.122
0.92,0.161,0.234,0.073,-0.195,0.044,0.151,-0.024,0.327,0.283,0.317,0.2,0.112
0.922,0.156,0.234,0.078,-0.195,0.039,0.156,-0.024,0.312,0.273,0.307,0.19,0.107
0.924,0.146,0.229,0.083,-0.185,0.029,0.156,-0.024,0.293,0.259,0.293,0.181,0.102
0.926,0.137,0.215,0.078,-0.176,0.029,0.146,-0.01,0.288,0.259,0.288,0.181,0.107
0.928,0.132,0.215,0.083,-0.171,0.024,0.146,-0.01,0.273,0.239,0.273,0.176,0.093
0.93,0.117,0.205,0.088,-0.161,0.015,0.146,-0.01,0.264,0.229,0.259,0.161,0.083
0.932,0.112,0.2,0.088,-0.156,0.01,0.142,-0.005,0.259,0.215,0.239,0.146,0.073
0.934,0.102,0.2,0.098,-0.151,0.0,0.146,0.005,0.244,0.2,0.215,0.137,0.063
0.936,0.098,0.195,0.098,-0.146,0.0,0.146,0.005,0.234,0.185,0.2,0.127,0.063
0.938,0.098,0.19,0.093,-0.142,0.0,0.142,0.005,0.229,0.176,0.185,0.117,0.049
0.94,0.083,0.185,0.102,-0.132,-0.01,0.142,0.005,0.215,0.161,0.166,0.102,0.039
0.942,0.073,0.171,0.098,-0.122,-0.015,0.132,0.01,0.185,0.137,0.146,0.083,0.024
0.944,0.073,0.171,0.098,-0.122,-0.015,0.132,0.015,0.176,0.127,0.137,0.068,0.015
0.946,0.059,0.166,0.107,-0.112,-0.024,0.137,0.015,0.171,0.112,0.122,0.063,0.005
0.948,0.054,0.161,0.107,-0.107,-0.029,0.132,0.02,0.151,0.098,0.107,0.044,0.005
0.95,0.054,0.156,0.102,-0.102,-0.024,0.127,0.02,0.156,0.093,0.093,0.049,0.0
0.952,0.044,0.146,0.102,-0.093,-0.029,0.122,0.015,0.137,0.078,0.088,0.034,-0.01
0.954,0.034,0.142,0.107,-0.088,-0.039,0.122,0.01,0.122,0.063,0.068,0.024,-0.02
0.956,0.034,0.132,0.098,-0.083,-0.034,0.112,0.005,0.117,0.059,0.054,0.015,-0.02
0.958,0.034,0.132,0.098,-0.083,-0.034,0.112,0.015,0.107,0.039,0.039,0.005,-0.029
0.96,0.024,0.122,0.098,-0.073,-0.039,0.107,0.015,0.098,0.02,0.029,-0.005,-0.039
0.962,0.015,0.117,0.102,-0.063,-0.044,0.107,0.015,0.083,0.005,0.015,-0.015,-0.039
0.964,0.01,0.112,0.102,-0.059,-0.049,0.107,0.015,0.078,0.0,0.005,-0.024,-0.044
0.966,0.015,0.102,0.088,-0.059,-0.039,0.093,0.01,0.068,-0.005,0.0,-0.039,-0.059
0.968,0.01,0.102,0.093,-0.054,-0.044,0.098,0.01,0.063,-0.015,-0.01,-0.049,-0.068
0.97,0.01,0.102,0.093,-0.054,-0.044,0.098,0.005,0.063,-0.029,-0.02,-0.049,-0.073
0.972,0.01,0.088,0.078,-0.049,-0.034,0.083,0.005,0.049,-0.044,-0.029,-0.054,-0.078
0.974,0.005,0.093,0.088,-0.049,-0.044,0.088,0.015,0.044,-0.049,-0.02,-0.054,-0.068
0.976,-0.005,0.088,0.093,-0.039,-0.049,0.088,0.01,0.034,-0.049,-0.029,-0.059,-0.073
0.978,-0.01,0.088,0.098,-0.039,-0.054,0.093,0.005,0.034,-0.054,-0.029,-0.063,-0.078
0.98,-0.02,0.083,0.102,-0.029,-0.063,0.093,0.005,0.029,-0.054,-0.039,-0.068,-0.078
0.982,-0.015,0.068,0.083,-0.024,-0.049,0.073,0.01,0.02,-0.063,-0.039,-0.073,-0.078
0.984,-0.015,0.063,0.078,-0.024,-0.049,0.068,0.01,0.015,-0.073,-0.049,-0.078,-0.083
0.986,-0.02,0.063,0.083,-0.02,-0.054,0.073,0.01,0.015,-0.078,-0.054,-0.078,-0.088
0.988,-0.02,0.059,0.078,-0.02,-0.049,0.068,0.01,0.015,-0.083,-0.059,-0.083,-0.093
0.99,-0.02,0.068,0.088,-0.024,-0.054,0.078,0.0,0.01,-0.088,-0.063,-0.088,-0.093
0.992,-0.02,0.068,0.088,-0.024,-0.054,0.078,0.0,0.005,-0.093,-0.068,-0.093,-0.098
0.994,-0.02,0.068,0.088,-0.024,-0.054,0.078,0.005,0.0,-0.098,-0.073,-0.093,-0.098
0.996,-0.024,0.063,0.088,-0.02,-0.059,0.073,0.01,0.0,-0.098,-0.078,-0.098,-0.098
0.998,-0.024,0.063,0.088,-0.02,-0.059,0.073,0.0,0.0,-0.102,-0.083,-0.112,-0.112
1.0,-0.024,0.063,0.088,-0.02,-0.059,0.073,-0.01,0.0,-0.102,-0.083,-0.112,-0.112
1.002,-0.024,0.063,0.088,-0.02,-0.059,0.073,-0.01,-0.005,-0.102,-0.083,-0.112,-0.112
1.004,-0.024,0.059,0.083,-0.015,-0.054,0.068,-0.01,-0.005,-0.102,-0.083,-0.112,-0.112
1.006,-0.024,0.049,0.073,-0.01,-0.049,0.059,0.005,-0.005,-0.102,-0.093,-0.102,-0.102
1.008,-0.024,0.049,0.073,-0.01,-0.049,0.059,0.01,-0.005,-0.107,-0.093,-0.107,-0.107
1.01,-0.024,0.054,0.078,-0.015,-0.054,0.063,0.01,-0.01,-0.112,-0.102,-0.117,-0.107
1.012,-0.029,0.054,0.083,-0.01,-0.059,0.068,0.01,-0.01,-0.117,-0.102,-0.117,-0.107
1.014,-0.029,0.044,0.073,-0.005,-0.054,0.059,0.02,-0.01,-0.117,-0.093,-0.107,-0.107
1.016,-0.029,0.044,0.073,-0.005,-0.054,0.059,0.015,-0.01,-0.117,-0.093,-0.107,-0.107
1.018,-0.029,0.044,0.073,-0.005,-0.054,0.059,0.015,-0.01,-0.117,-0.093,-0.107,-0.102
1.02,-0.029,0.044,0.073,-0.005,-0.054,0.059,0.02,-0.01,-0.117,-0.093,-0.107,-0.102
1.022,-0.024,0.054,0.078,-0.015,-0.054,0.063,0.024,0.0,-0.117,-0.102,-0.112,-0.107
1.024,-0.024,0.054,0.078,-0.015,-0.054,0.063,0.024,0.0,-0.117,-0.102,-0.112,-0.112
1.026,-0.024,0.044,0.068,-0.01,-0.049,0.054,0.024,0.005,-0.117,-0.102,-0.112,-0.117
1.028,-0.034,0.044,0.078,-0.005,-0.059,0.059,0.029,0.01,-0.112,-0.102,-0.112,-0.122
1.03,-0.034,0.044,0.078,-0.005,-0.059,0.059,0.02,0.0,-0.112,-0.093,-0.107,-0.107
1.032,-0.034,0.044,0.078,-0.005,-0.059,0.059,0.02,0.005,-0.112,-0.093,-0.107,-0.107
1.034,-0.029,0.044,0.073,-0.005,-0.054,0.059,0.02,0.005,-0.112,-0.098,-0.107,-0.112
1.036,-0.029,0.044,0.073,-0.005,-0.054,0.059,0.02,0.0,-0.112,-0.107,-0.112,-0.112
1.038,-0.029,0.044,0.073,-0.005,-0.054,0.059,0.024,-0.005,-0.112,-0.098,-0.122,-0.122
1.04,-0.034,0.044,0.078,-0.005,-0.059,0.059,0.024,-0.005,-0.112,-0.098,-0.122,-0.117
1.042,-0.034,0.044,0.078,-0.005,-0.059,0.059,0.02,-0.005,-0.112,-0.098,-0.122,-0.117
1.044,-0.034,0.044,0.078,-0.005,-0.059,0.059,0.02,0.0,-0.112,-0.102,-0.127,-0.122
1.046,-0.029,0.049,0.078,-0.01,-0.054,0.063,0.02,0.0,-0.107,-0.102,-0.117,-0.122
1.048,-0.029,0.049,0.078,-0.01,-0.054,0.063,0.02,0.0,-0.102,-0.102,-0.117,-0.122
1.05,-0.029,0.049,0.078,-0.01,-0.054,0.063,0.02,0.0,-0.102,-0.102,-0.117,-0.122
1.052,-0.029,0.059,0.088,-0.015,-0.059,0.073,0.024,0.0,-0.107,-0.098,-0.117,-0.122
1.054,-0.029,0.039,0.068,-0.005,-0.049,0.054,0.024,0.005,-0.098,-0.107,-0.122,-0.122
1.056,-0.029,0.039,0.068,-0.005,-0.049,0.054,0.024,0.005,-0.098,-0.102,-0.122,-0.122
1.058,-0.034,0.039,0.073,0.0,-0.054,0.054,0.024,0.005,-0.098,-0.102,-0.122,-0.122
1.06,-0.034,0.039,0.073,0.0,-0.054,0.054,0.024,0.005,-0.098,-0.107,-0.122,-0.122
1.062,-0.034,0.039,0.073,0.0,-0.054,0.054,0.034,0.015,-0.107,-0.098,-0.117,-0.112
1.064,-0.039,0.039,0.078,0.0,-0.059,0.059,0.034,0.015,-0.102,-0.098,-0.117,-0.112
1.066,-0.039,0.044,0.083,0.0,-0.063,0.063,0.034,0.015,-0.102,-0.093,-0.117,-0.112
1.068,-0.039,0.044,0.083,0.0,-0.063,0.063,0.034,0.02,-0.098,-0.093,-0.117,-0.112
1.07,-0.039,0.054,0.093,-0.005,-0.068,0.073,0.024,0.015,-0.098,-0.093,-0.107,-0.112
1.072,-0.039,0.054,0.093,-0.005,-0.068,0.073,0.024,0.015,-0.102,-0.093,-0.107,-0.112
1.074,-0.034,0.059,0.093,-0.01,-0.063,0.073,0.024,0.015,-0.102,-0.093,-0.107,-0.112
1.076,-0.034,0.059,0.093,-0.01,-0.063,0.073,0.024,0.01,-0.098,-0.093,-0.107,-0.112
1.078,-0.034,0.049,0.083,-0.005,-0.059,0.063,0.029,0.01,-0.107,-0.093,-0.117,-0.117
1.08,-0.034,0.049,0.083,-0.005,-0.059,0.063,0.034,0.01,-0.107,-0.093,-0.117,-0.117
1.082,-0.034,0.049,0.083,-0.005,-0.059,0.063,0.034,0.005,-0.107,-0.098,-0.117,-0.117
1.084,-0.034,0.049,0.083,-0.005,-0.059,0.063,0.034,0.005,-0.107,-0.098,-0.117,-0.117
1.086,-0.034,0.049,0.083,-0.005,-0.059,0.063,0.044,0.01,-0.098,-0.098,-0.117,-0.107
1.088,-0.034,0.044,0.078,-0.005,-0.059,0.059,0.044,0.01,-0.098,-0.093,-0.117,-0.107
1.09,-0.039,0.044,0.083,0.0,-0.063,0.063,0.044,0.01,-0.098,-0.093,-0.117,-0.107
1.092,-0.039,0.044,0.083,0.0,-0.063,0.063,0.039,0.01,-0.098,-0.093,-0.112,-0.107
1.094,-0.039,0.054,0.093,-0.005,-0.068,0.073,0.039,0.005,-0.107,-0.093,-0.112,-0.117
1.096,-0.029,0.059,0.088,-0.015,-0.059,0.073,0.039,0.005,-0.107,-0.098,-0.117,-0.117
1.098,-0.039,0.059,0.098,-0.01,-0.068,0.078,0.029,0.005,-0.107,-0.098,-0.117,-0.117
1.1,-0.039,0.049,0.088,-0.005,-0.063,0.068,0.039,0.005,-0.102,-0.098,-0.117,-0.117
1.102,-0.034,0.039,0.073,0.0,-0.054,0.054,0.039,0.005,-0.107,-0.098,-0.117,-0.117
1.104,-0.034,0.044,0.078,-0.005,-0.059,0.059,0.039,0.0,-0.107,-0.098,-0.112,-0.117
1.106,-0.034,0.044,0.078,-0.005,-0.059,0.059,0.039,0.0,-0.107,-0.102,-0.112,-0.117
1.108,-0.034,0.044,0.078,-0.005,-0.059,0.059,0.034,0.0,-0.107,-0.102,-0.112,-0.117
1.11,-0.044,0.034,0.078,0.005,-0.063,0.054,0.039,0.005,-0.107,-0.102,-0.112,-0.107
1.112,-0.049,0.034,0.083,0.01,-0.068,0.059,0.029,0.005,-0.117,-0.107,-0.117,-0.112
1.114,-0.049,0.034,0.083,0.01,-0.068,0.059,0.029,0.005,-0.117,-0.107,-0.117,-0.112
1.116,-0.044,0.039,0.083,0.005,-0.063,0.059,0.029,0.0,-0.117,-0.107,-0.117,-0.112
1.118,-0.034,0.039,0.073,0.0,-0.054,0.054,0.039,-0.01,-0.127,-0.117,-0.117,-0.117
1.12,-0.039,0.039,0.078,0.0,-0.059,0.059,0.029,-0.01,-0.132,-0.117,-0.117,-0.117
1.122,-0.039,0.039,0.078,0.0,-0.059,0.059,0.029,-0.01,-0.132,-0.117,-0.117,-0.117
1.124,-0.034,0.034,0.068,0.0,-0.054,0.049,0.039,-0.02,-0.127,-0.117,-0.112,-0.117
1.126,-0.044,0.044,0.088,0.0,-0.068,0.063,0.039,-0.02,-0.132,-0.117,-0.122,-0.122
1.128,-0.044,0.044,0.088,0.0,-0.068,0.063,0.039,-0.02,-0.132,-0.117,-0.122,-0.122
1.13,-0.039,0.034,0.073,0.005,-0.059,0.054,0.034,-0.02,-0.132,-0.117,-0.122,-0.122
1.132,-0.039,0.034,0.073,0.005,-0.059,0.054,0.029,-0.02,-0.137,-0.117,-0.122,-0.122
1.134,-0.039,0.044,0.083,0.0,-0.063,0.063,0.024,-0.02,-0.137,-0.117,-0.122,-0.122
1.136,-0.039,0.044,0.083,0.0,-0.063,0.063,0.02,-0.02,-0.137,-0.117,-0.122,-0.122
1.138,-0.034,0.049,0.083,-0.005,-0.059,0.063,0.02,-0.02,-0.137,-0.117,-0.127,-0.122
1.14,-0.034,0.049,0.083,-0.005,-0.059,0.063,0.024,-0.024,-0.137,-0.117,-0.127,-0.122
1.142,-0.044,0.044,0.088,0.0,-0.068,0.063,0.029,-0.024,-0.146,-0.122,-0.127,-0.127
1.144,-0.049,0.039,0.088,0.005,-0.068,0.063,0.029,-0.029,-0.146,-0.122,-0.127,-0.127
1.146,-0.049,0.034,0.083,0.01,-0.068,0.059,0.024,-0.029,-0.146,-0.122,-0.127,-0.127
1.148,-0.044,0.029,0.073,0.01,-0.059,0.049,0.02,-0.029,-0.146,-0.117,-0.127,-0.127
1.15,-0.044,0.024,0.068,0.01,-0.059,0.044,0.029,-0.029,-0.146,-0.117,-0.117,-0.117
1.152,-0.049,0.029,0.078,0.01,-0.063,0.054,0.024,-0.029,-0.142,-0.122,-0.117,-0.117
1.154,-0.049,0.034,0.083,0.01,-0.068,0.059,0.024,-0.029,-0.142,-0.122,-0.117,-0.112
1.156,-0.049,0.039,0.088,0.005,-0.068,0.063,0.024,-0.029,-0.142,-0.122,-0.117,-0.112
1.158,-0.039,0.034,0.073,0.005,-0.059,0.054,0.024,-0.029,-0.146,-0.127,-0.122,-0.117
1.16,-0.039,0.029,0.068,0.005,-0.054,0.049,0.024,-0.039,-0.151,-0.127,-0.122,-0.117
1.162,-0.039,0.024,0.063,0.01,-0.054,0.044,0.02,-0.044,-0.161,-0.127,-0.122,-0.117
1.164,-0.039,0.02,0.059,0.01,-0.049,0.039,0.02,-0.044,-0.161,-0.127,-0.127,-0.117
1.166,-0.039,0.029,0.068,0.005,-0.054,0.049,0.02,-0.034,-0.161,-0.127,-0.127,-0.122
1.168,-0.039,0.02,0.059,0.01,-0.049,0.039,0.02,-0.034,-0.161,-0.127,-0.127,-0.122
1.17,-0.039,0.02,0.059,0.01,-0.049,0.039,0.02,-0.034,-0.166,-0.132,-0.127,-0.127
1.172,-0.044,0.024,0.068,0.01,-0.059,0.044,0.02,-0.034,-0.166,-0.132,-0.132,-0.127
1.174,-0.044,0.024,0.068,0.01,-0.059,0.044,0.015,-0.044,-0.166,-0.132,-0.142,-0.127
1.176,-0.044,0.02,0.063,0.015,-0.054,0.039,0.015,-0.044,-0.166,-0.132,-0.137,-0.122
1.178,-0.054,0.02,0.073,0.02,-0.063,0.044,0.015,-0.049,-0.166,-0.132,-0.137,-0.122
1.18,-0.044,0.02,0.063,0.015,-0.054,0.039,0.015,-0.054,-0.171,-0.132,-0.137,-0.127
1.182,-0.034,0.02,0.054,0.01,-0.044,0.034,0.005,-0.059,-0.185,-0.132,-0.137,-0.127
1.184,-0.034,0.02,0.054,0.01,-0.044,0.034,0.01,-0.059,-0.185,-0.132,-0.137,-0.127
1.186,-0.039,0.01,0.049,0.015,-0.044,0.029,0.01,-0.059,-0.185,-0.132,-0.137,-0.127
1.188,-0.039,0.01,0.049,0.015,-0.044,0.029,0.01,-0.059,-0.185,-0.132,-0.137,-0.127
1.19,-0.049,0.02,0.068,0.015,-0.059,0.044,0.015,-0.059,-0.181,-0.137,-0.137,-0.127
1.192,-0.049,0.02,0.068,0.015,-0.059,0.044,0.02,-0.059,-0.181,-0.137,-0.137,-0.122
1.194,-0.049,0.02,0.068,0.015,-0.059,0.044,0.02,-0.054,-0.176,-0.137,-0.137,-0.117
1.196,-0.044,0.02,0.063,0.015,-0.054,0.039,0.02,-0.054,-0.176,-0.137,-0.137,-0.117
1.198,-0.044,0.01,0.054,0.02,-0.049,0.029,0.01,-0.054,-0.176,-0.137,-0.142,-0.127
1.2,-0.049,0.01,0.059,0.02,-0.054,0.034,0.01,-0.054,-0.176,-0.137,-0.142,-0.127
1.202,-0.049,0.01,0.059,0.02,-0.054,0.034,0.02,-0.059,-0.176,-0.137,-0.142,-0.127
1.204,-0.049,0.01,0.059,0.02,-0.054,0.034,0.01,-0.059,-0.181,-0.142,-0.146,-0.132
1.206,-0.044,0.02,0.063,0.015,-0.054,0.039,0.015,-0.063,-0.181,-0.142,-0.142,-0.132
1.208,-0.044,0.02,0.063,0.015,-0.054,0.039,0.015,-0.063,-0.181,-0.142,-0.137,-0.132
1.21,-0.044,0.02,0.063,0.015,-0.054,0.039,0.02,-0.063,-0.181,-0.142,-0.132,-0.127
1.212,-0.044,0.02,0.063,0.015,-0.054,0.039,0.02,-0.059,-0.181,-0.142,-0.127,-0.122
1.214,-0.054,0.01,0.063,0.024,-0.059,0.034,0.015,-0.059,-0.185,-0.142,-0.137,-0.122
1.216,-0.054,0.01,0.063,0.024,-0.059,0.034,0.01,-0.063,-0.185,-0.142,-0.137,-0.122
1.218,-0.054,0.015,0.068,0.02,-0.063,0.039,0.01,-0.063,-0.185,-0.142,-0.137,-0.127
1.22,-0.054,0.015,0.068,0.02,-0.063,0.039,0.01,-0.063,-0.185,-0.142,-0.137,-0.127
1.222,-0.054,0.005,0.059,0.024,-0.059,0.029,0.015,-0.063,-0.19,-0.151,-0.137,-0.137
1.224,-0.054,0.005,0.059,0.024,-0.059,0.029,0.015,-0.063,-0.19,-0.151,-0.137,-0.137
1.226,-0.054,0.01,0.063,0.024,-0.059,0.034,0.015,-0.068,-0.19,-0.151,-0.137,-0.132
1.228,-0.054,0.015,0.068,0.02,-0.063,0.039,0.01,-0.073,-0.19,-0.156,-0.137,-0.132
1.23,-0.063,0.015,0.078,0.024,-0.073,0.044,0.01,-0.078,-0.195,-0.156,-0.137,-0.132
1.232,-0.063,0.005,0.068,0.029,-0.068,0.034,0.01,-0.078,-0.2,-0.156,-0.137,-0.137
1.234,-0.063,0.005,0.068,0.029,-0.068,0.034,0.01,-0.073,-0.2,-0.156,-0.137,-0.142
1.236,-0.063,0.005,0.068,0.029,-0.068,0.034,0.005,-0.073,-0.2,-0.156,-0.137,-0.142
1.238,-0.059,0.015,0.073,0.024,-0.068,0.044,0.015,-0.063,-0.2,-0.156,-0.137,-0.132
1.24,-0.059,0.015,0.073,0.024,-0.068,0.044,0.015,-0.063,-0.2,-0.161,-0.137,-0.132
1.242,-0.054,0.015,0.068,0.02,-0.063,0.039,0.005,-0.059,-0.2,-0.161,-0.137,-0.132
1.244,-0.054,0.015,0.068,0.02,-0.063,0.039,-0.005,-0.059,-0.2,-0.161,-0.137,-0.137
1.246,-0.054,0.015,0.068,0.02,-0.063,0.039,0.0,-0.068,-0.2,-0.161,-0.146,-0.137
1.248,-0.054,0.01,0.063,0.024,-0.059,0.034,0.005,-0.068,-0.2,-0.166,-0.146,-0.132
1.25,-0.049,0.01,0.059,0.02,-0.054,0.034,0.01,-0.073,-0.2,-0.166,-0.146,-0.132
1.252,-0.039,0.01,0.049,0.015,-0.044,0.029,0.01,-0.073,-0.2,-0.161,-0.151,-0.137
1.254,-0.049,0.005,0.054,0.024,-0.054,0.029,0.02,-0.073,-0.2,-0.161,-0.146,-0.137
1.256,-0.044,0.005,0.049,0.02,-0.049,0.024,0.015,-0.073,-0.2,-0.156,-0.142,-0.132
1.258,-0.044,-0.005,0.039,0.024,-0.044,0.015,0.01,-0.068,-0.195,-0.156,-0.137,-0.132
1.26,-0.049,-0.005,0.044,0.029,-0.049,0.02,0.005,-0.068,-0.195,-0.161,-0.132,-0.127
1.262,-0.059,-0.005,0.054,0.034,-0.059,0.024,0.015,-0.073,-0.2,-0.166,-0.142,-0.127
1.264,-0.059,0.005,0.063,0.029,-0.063,0.034,0.015,-0.073,-0.205,-0.166,-0.142,-0.127
1.266,-0.059,0.005,0.063,0.029,-0.063,0.034,0.015,-0.073,-0.205,-0.166,-0.142,-0.127
1.268,-0.059,0.005,0.063,0.029,-0.063,0.034,0.0,-0.073,-0.205,-0.166,-0.142,-0.127
1.27,-0.049,0.005,0.054,0.024,-0.054,0.029,0.0,-0.073,-0.21,-0.166,-0.142,-0.132
1.272,-0.049,0.005,0.054,0.024,-0.054,0.029,0.0,-0.073,-0.21,-0.166,-0.142,-0.132
1.274,-0.049,0.005,0.054,0.024,-0.054,0.029,0.0,-0.073,-0.205,-0.161,-0.142,-0.137
1.276,-0.054,0.005,0.059,0.024,-0.059,0.029,0.0,-0.073,-0.205,-0.161,-0.142,-0.137
1.278,-0.049,0.0,0.049,0.024,-0.049,0.024,0.02,-0.073,-0.205,-0.166,-0.132,-0.137
1.28,-0.039,0.01,0.049,0.015,-0.044,0.029,0.02,-0.068,-0.205,-0.156,-0.137,-0.127
1.282,-0.049,0.0,0.049,0.024,-0.049,0.024,0.01,-0.068,-0.205,-0.156,-0.137,-0.127
1.284,-0.049,0.0,0.049,0.024,-0.049,0.024,0.01,-0.068,-0.205,-0.156,-0.137,-0.127
1.286,-0.049,0.0,0.049,0.024,-0.049,0.024,0.01,-0.068,-0.205,-0.156,-0.137,-0.127
1.288,-0.049,0.0,0.049,0.024,-0.049,0.024,0.01,-0.068,-0.205,-0.156,-0.137,-0.127
1.29,-0.059,0.01,0.068,0.024,-0.063,0.039,0.02,-0.068,-0.205,-0.166,-0.127,-0.127
1.292,-0.059,0.01,0.068,0.024,-0.063,0.039,0.02,-0.068,-0.205,-0.166,-0.127,-0.127
1.294,-0.059,0.01,0.068,0.024,-0.063,0.039,0.02,-0.068,-0.205,-0.166,-0.127,-0.127
1.296,-0.059,0.01,0.068,0.024,-0.063,0.039,0.02,-0.068,-0.205,-0.166,-0.127,-0.127
1.298,-0.059,0.01,0.068,0.024,-0.063,0.039,0.01,-0.078,-0.205,-0.156,-0.127,-0.127
1.3,-0.059,0.01,0.068,0.024,-0.063,0.039,0.01,-0.078,-0.205,-0.156,-0.127,-0.127
1.302,-0.059,0.01,0.068,0.024,-0.063,0.039,0.01,-0.078,-0.205,-0.156,-0.127,-0.127
1.304,-0.059,0.01,0.068,0.024,-0.063,0.039,0.01,-0.078,-0.205,-0.156,-0.127,-0.127
1.306,-0.059,0.005,0.063,0.029,-0.063,0.034,0.01,-0.078,-0.205,-0.166,-0.127,-0.127
1.308,-0.059,0.0,0.059,0.029,-0.059,0.029,0.01,-0.078,-0.205,-0.166,-0.127,-0.127
1.31,-0.059,-0.005,0.054,0.034,-0.059,0.024,0.01,-0.078,-0.205,-0.166,-0.127,-0.127
1.312,-0.059,-0.01,0.049,0.034,-0.054,0.02,0.01,-0.078,-0.205,-0.166,-0.127,-0.127
1.314,-0.049,0.0,0.049,0.024,-0.049,0.024,0.0,-0.078,-0.215,-0.166,-0.117,-0.127
1.316,-0.049,0.0,0.049,0.024,-0.049,0.024,0.0,-0.078,-0.215,-0.166,-0.117,-0.127
1.318,-0.049,0.0,0.049,0.024,-0.049,0.024,0.0,-0.078,-0.215,-0.166,-0.117,-0.127
1.32,-0.049,0.0,0.049,0.024,-0.049,0.024,0.0,-0.078,-0.215,-0.166,-0.117,-0.127
1.322,-0.049,0.01,0.059,0.02,-0.054,0.034,0.01,-0.078,-0.205,-0.166,-0.117,-0.127
1.324,-0.049,0.01,0.059,0.02,-0.054,0.034,0.01,-0.078,-0.205,-0.166,-0.117,-0.127
1.326,-0.049,0.01,0.059,0.02,-0.054,0.034,0.01,-0.078,-0.205,-0.166,-0.117,-0.127
1.328,-0.049,0.01,0.059,0.02,-0.054,0.034,0.01,-0.078,-0.205,-0.166,-0.117,-0.127
1.33,-0.049,0.01,0.059,0.02,-0.054,0.034,0.01,-0.068,-0.205,-0.166,-0.107,-0.127
1.332,-0.049,0.01,0.059,0.02,-0.054,0.034,0.01,-0.068,-0.205,-0.166,-0.107,-0.127
1.334,-0.049,0.01,0.059,0.02,-0.054,0.034,0.01,-0.068,-0.205,-0.166,-0.107,-0.127
1.336,-0.049,0.01,0.059,0.02,-0.054,0.034,0.01,-0.068,-0.205,-0.166,-0.107,-0.127
1.338,-0.059,0.005,0.063,0.029,-0.063,0.034,0.01,-0.078,-0.205,-0.166,-0.107,-0.137
1.34,-0.059,0.0,0.059,0.029,-0.059,0.029,0.01,-0.078,-0.205,-0.166,-0.107,-0.137
1.342,-0.059,-0.005,0.054,0.034,-0.059,0.024,0.01,-0.078,-0.205,-0.166,-0.107,-0.137
1.344,-0.059,-0.01,0.049,0.034,-0.054,0.02,0.01,-0.078,-0.205,-0.166,-0.107,-0.137
1.346,-0.059,0.0,0.059,0.029,-0.059,0.029,0.01,-0.078,-0.205,-0.166,-0.098,-0.127
1.348,-0.059,0.0,0.059,0.029,-0.059,0.029,0.01,-0.078,-0.205,-0.166,-0.098,-0.127
1.35,-0.059,0.0,0.059,0.029,-0.059,0.029,0.01,-0.078,-0.205,-0.166,-0.098,-0.127
1.352,-0.059,0.0,0.059,0.029,-0.059,0.029,0.01,-0.078,-0.205,-0.166,-0.098,-0.127
1.354,-0.059,0.01,0.068,0.024,-0.063,0.039,0.01,-0.078,-0.205,-0.166,-0.098,-0.127
1.356,-0.059,0.01,0.068,0.024,-0.063,0.039,0.01,-0.078,-0.205,-0.166,-0.098,-0.127
1.358,-0.059,0.01,0.068,0.024,-0.063,0.039,0.01,-0.078,-0.205,-0.166,-0.098,-0.127
1.36,-0.059,0.01,0.068,0.024,-0.063,0.039,0.01,-0.078,-0.205,-0.166,-0.098,-0.127
1.362,-0.049,0.0,0.049,0.024,-0.049,0.024,0.0,-0.078,-0.195,-0.166,-0.098,-0.127
1.364,-0.049,0.0,0.049,0.024,-0.049,0.024,0.0,-0.078,-0.195,-0.166,-0.098,-0.127
1.366,-0.049,0.0,0.049,0.024,-0.049,0.024,0.0,-0.078,-0.195,-0.166,-0.098,-0.127
1.368,-0.049,0.0,0.049,0.024,-0.049,0.024,0.0,-0.078,-0.195,-0.166,-0.098,-0.127
1.37,-0.059,-0.01,0.049,0.034,-0.054,0.02,0.01,-0.078,-0.195,-0.156,-0.088,-0.127
1.372,-0.059,-0.01,0.049,0.034,-0.054,0.02,0.01,-0.078,-0.195,-0.156,-0.088,-0.127
1.374,-0.059,-0.01,0.049,0.034,-0.054,0.02,0.01,-0.078,-0.195,-0.156,-0.088,-0.127
1.376,-0.059,-0.01,0.049,0.034,-0.054,0.02,0.01,-0.078,-0.195,-0.156,-0.088,-0.127
1.378,-0.059,-0.01,0.049,0.034,-0.054,0.02,0.01,-0.088,-0.195,-0.156,-0.088,-0.127
1.38,-0.059,-0.01,0.049,0.034,-0.054,0.02,0.01,-0.088,-0.195,-0.156,-0.088,-0.127
1.382,-0.059,-0.01,0.049,0.034,-0.054,0.02,0.01,-0.088,-0.195,-0.156,-0.088,-0.127
1.384,-0.059,-0.01,0.049,0.034,-0.054,0.02,0.01,-0.088,-0.195,-0.156,-0.088,-0.127
1.386,-0.049,0.0,0.049,0.024,-0.049,0.024,0.0,-0.088,-0.195,-0.166,-0.088,-0.127
1.388,-0.049,0.0,0.049,0.024,-0.049,0.024,0.0,-0.088,-0.195,-0.166,-0.088,-0.127
1.39,-0.049,0.0,0.049,0.024,-0.049,0.024,0.0,-0.088,-0.195,-0.166,-0.088,-0.127
1.392,-0.049,0.0,0.049,0.024,-0.049,0.024,0.0,-0.088,-0.195,-0.166,-0.088,-0.127
1.394,-0.049,0.01,0.059,0.02,-0.054,0.034,0.0,-0.078,-0.185,-0.166,-0.088,-0.127
1.396,-0.049,0.01,0.059,0.02,-0.054,0.034,0.0,-0.078,-0.185,-0.166,-0.088,-0.127
1.398,-0.049,0.01,0.059,0.02,-0.054,0.034,0.0,-0.078,-0.185,-0.166,-0.088,-0.127
1.4,-0.049,0.01,0.059,0.02,-0.054,0.034,0.0,-0.078,-0.185,-0.166,-0.088,-0.127
1.402,-0.049,0.0,0.049,0.024,-0.049,0.024,0.01,-0.088,-0.185,-0.166,-0.078,-0.127
1.404,-0.049,0.0,0.049,0.024,-0.049,0.024,0.01,-0.088,-0.185,-0.166,-0.078,-0.127
1.406,-0.049,0.0,0.049,0.024,-0.049,0.024,0.01,-0.088,-0.185,-0.166,-0.078,-0.127
1.408,-0.049,0.0,0.049,0.024,-0.049,0.024,0.01,-0.088,-0.185,-0.166,-0.078,-0.127
1.41,-0.059,-0.01,0.049,0.034,-0.054,0.02,0.0,-0.078,-0.185,-0.156,-0.078,-0.127
1.412,-0.059,-0.01,0.049,0.034,-0.054,0.02,0.0,-0.078,-0.185,-0.156,-0.078,-0.127
1.414,-0.059,-0.01,0.049,0.034,-0.054,0.02,0.0,-0.078,-0.185,-0.156,-0.078,-0.127
1.416,-0.059,-0.01,0.049,0.034,-0.054,0.02,0.0,-0.078,-0.185,-0.156,-0.078,-0.127
1.418,-0.049,0.0,0.049,0.024,-0.049,0.024,0.01,-0.078,-0.185,-0.156,-0.078,-0.127
1.42,-0.049,0.0,0.049,0.024,-0.049,0.024,0.01,-0.078,-0.185,-0.156,-0.078,-0.127
1.422,-0.049,0.0,0.049,0.024,-0.049,0.024,0.01,-0.078,-0.185,-0.156,-0.078,-0.127
1.424,-0.049,0.0,0.049,0.024,-0.049,0.024,0.01,-0.078,-0.185,-0.156,-0.078,-0.127
1.426,-0.059,0.01,0.068,0.024,-0.063,0.039,0.02,-0.088,-0.185,-0.166,-0.078,-0.127
1.428,-0.059,0.01,0.068,0.024,-0.063,0.039,0.02,-0.088,-0.185,-0.166,-0.078,-0.127
1.43,-0.059,0.01,0.068,0.024,-0.063,0.039,0.02,-0.088,-0.185,-0.166,-0.078,-0.127
1.432,-0.059,0.01,0.068,0.024,-0.063,0.039,0.02,-0.088,-0.185,-0.166,-0.078,-0.127
1.434,-0.059,0.005,0.063,0.029,-0.063,0.034,0.02,-0.078,-0.176,-0.156,-0.068,-0.117
1.436,-0.059,0.0,0.059,0.029,-0.059,0.029,0.02,-0.078,-0.176,-0.156,-0.068,-0.117
1.438,-0.059,-0.005,0.054,0.034,-0.059,0.024,0.02,-0.078,-0.176,-0.156,-0.068,-0.117
1.44,-0.059,-0.01,0.049,0.034,-0.054,0.02,0.02,-0.078,-0.176,-0.156,-0.068,-0.117
1.442,-0.049,0.0,0.049,0.024,-0.049,0.024,0.01,-0.078,-0.176,-0.156,-0.068,-0.117
1.444,-0.049,0.0,0.049,0.024,-0.049,0.024,0.01,-0.078,-0.176,-0.156,-0.068,-0.117
1.446,-0.049,0.0,0.049,0.024,-0.049,0.024,0.01,-0.078,-0.176,-0.156,-0.068,-0.117
1.448,-0.049,0.0,0.049,0.024,-0.049,0.024,0.01,-0.078,-0.176,-0.156,-0.068,-0.117
1.45,-0.059,0.0,0.059,0.029,-0.059,0.029,0.01,-0.078,-0.185,-0.156,-0.078,-0.117
1.452,-0.059,0.0,0.059,0.029,-0.059,0.029,0.01,-0.078,-0.185,-0.156,-0.078,-0.117
1.454,-0.059,0.0,0.059,0.029,-0.059,0.029,0.01,-0.078,-0.185,-0.156,-0.078,-0.117
1.456,-0.059,0.0,0.059,0.029,-0.059,0.029,0.01,-0.078,-0.185,-0.156,-0.078,-0.117
1.458,-0.049,-0.01,0.039,0.029,-0.044,0.015,0.01,-0.078,-0.176,-0.156,-0.068,-0.117
1.46,-0.049,-0.01,0.039,0.029,-0.044,0.015,0.01,-0.078,-0.176,-0.156,-0.068,-0.117
1.462,-0.049,-0.01,0.039,0.029,-0.044,0.015,0.01,-0.078,-0.176,-0.156,-0.068,-0.117
1.464,-0.049,-0.01,0.039,0.029,-0.044,0.015,0.01,-0.078,-0.176,-0.156,-0.068,-0.117
1.466,-0.059,0.0,0.059,0.029,-0.059,0.029,0.0,-0.078,-0.166,-0.156,-0.078,-0.107
1.468,-0.059,0.0,0.059,0.029,-0.059,0.029,0.0,-0.078,-0.166,-0.156,-0.078,-0.107
1.47,-0.059,0.0,0.059,0.029,-0.059,0.029,0.0,-0.078,-0.166,-0.156,-0.078,-0.107
1.472,-0.059,0.0,0.059,0.029,-0.059,0.029,0.0,-0.078,-0.166,-0.156,-0.078,-0.107
1.474,-0.049,0.0,0.049,0.024,-0.049,0.024,0.0,-0.068,-0.171,-0.156,-0.068,-0.117
1.476,-0.049,0.0,0.049,0.024,-0.049,0.024,0.0,-0.068,-0.176,-0.156,-0.068,-0.117
1.478,-0.049,0.0,0.049,0.024,-0.049,0.024,0.0,-0.068,-0.181,-0.156,-0.068,-0.117
1.48,-0.049,0.0,0.049,0.024,-0.049,0.024,0.0,-0.068,-0.185,-0.156,-0.068,-0.117
1.482,-0.059,-0.01,0.049,0.034,-0.054,0.02,0.01,-0.078,-0.176,-0.166,-0.068,-0.107
1.484,-0.059,-0.01,0.049,0.034,-0.054,0.02,0.01,-0.078,-0.176,-0.166,-0.068,-0.107
1.486,-0.059,-0.01,0.049,0.034,-0.054,0.02,0.01,-0.078,-0.176,-0.166,-0.068,-0.107
1.488,-0.059,-0.01,0.049,0.034,-0.054,0.02,0.01,-0.078,-0.176,-0.166,-0.068,-0.107
1.49,-0.059,-0.01,0.049,0.034,-0.054,0.02,0.0,-0.078,-0.185,-0.176,-0.078,-0.107
1.492,-0.059,-0.01,0.049,0.034,-0.054,0.02,0.0,-0.078,-0.185,-0.176,-0.078,-0.107
1.494,-0.059,-0.01,0.049,0.034,-0.054,0.02,0.0,-0.078,-0.185,-0.176,-0.078,-0.107
1.496,-0.059,-0.01,0.049,0.034,-0.054,0.02,0.0,-0.078,-0.185,-0.176,-0.078,-0.107
1.498,-0.049,0.0,0.049,0.024,-0.049,0.024,0.0,-0.078,-0.185,-0.166,-0.068,-0.107
1.5,-0.049,0.0,0.049,0.024,-0.049,0.024,0.0,-0.078,-0.185,-0.166,-0.068,-0.107
1.502,-0.049,0.0,0.049,0.024,-0.049,0.024,0.0,-0.078,-0.185,-0.166,-0.068,-0.107
1.504,-0.049,0.0,0.049,0.024,-0.049,0.024,0.0,-0.078,-0.185,-0.166,-0.068,-0.107
1.506,-0.049,0.01,0.059,0.02,-0.054,0.034,-0.01,-0.078,-0.185,-0.156,-0.059,-0.098
1.508,-0.049,0.01,0.059,0.02,-0.054,0.034,-0.01,-0.078,-0.185,-0.156,-0.059,-0.098
1.51,-0.049,0.01,0.059,0.02,-0.054,0.034,-0.01,-0.078,-0.185,-0.156,-0.059,-0.098
1.512,-0.049,0.01,0.059,0.02,-0.054,0.034,-0.01,-0.078,-0.185,-0.156,-0.059,-0.098
1.514,-0.054,0.0,0.054,0.029,-0.054,0.024,-0.01,-0.068,-0.185,-0.166,-0.059,-0.107
1.516,-0.059,0.0,0.059,0.029,-0.059,0.029,-0.01,-0.068,-0.185,-0.166,-0.059,-0.107
1.518,-0.063,0.0,0.063,0.034,-0.063,0.029,-0.01,-0.068,-0.185,-0.166,-0.059,-0.107
1.52,-0.068,0.0,0.068,0.034,-0.068,0.034,-0.01,-0.068,-0.185,-0.166,-0.059,-0.107
1.522,-0.059,-0.01,0.049,0.034,-0.054,0.02,-0.01,-0.078,-0.185,-0.166,-0.068,-0.098
1.524,-0.059,-0.01,0.049,0.034,-0.054,0.02,-0.01,-0.078,-0.185,-0.166,-0.068,-0.098
1.526,-0.059,-0.01,0.049,0.034,-0.054,0.02,-0.01,-0.078,-0.185,-0.166,-0.068,-0.098
1.528,-0.059,-0.01,0.049,0.034,-0.054,0.02,-0.01,-0.078,-0.185,-0.166,-0.068,-0.098
1.53,-0.059,-0.005,0.054,0.034,-0.059,0.024,0.0,-0.073,-0.185,-0.161,-0.059,-0.098
1.532,-0.059,0.0,0.059,0.029,-0.059,0.029,0.0,-0.068,-0.185,-0.156,-0.059,-0.098
1.534,-0.059,0.005,0.063,0.029,-0.063,0.034,0.0,-0.063,-0.185,-0.151,-0.059,-0.098
1.536,-0.059,0.01,0.068,0.024,-0.063,0.039,0.0,-0.059,-0.185,-0.146,-0.059,-0.098
1.538,-0.049,0.02,0.068,0.015,-0.059,0.044,0.005,-0.049,-0.181,-0.137,-0.054,-0.093
1.54,-0.049,0.029,0.078,0.01,-0.063,0.054,0.01,-0.049,-0.176,-0.137,-0.049,-0.088
1.542,-0.049,0.039,0.088,0.005,-0.068,0.063,0.015,-0.049,-0.171,-0.137,-0.044,-0.083
1.544,-0.049,0.049,0.098,0.0,-0.073,0.073,0.02,-0.049,-0.166,-0.137,-0.039,-0.078
1.546,-0.039,0.059,0.098,-0.01,-0.068,0.078,0.034,-0.039,-0.161,-0.132,-0.029,-0.068
1.548,-0.039,0.068,0.107,-0.015,-0.073,0.088,0.039,-0.039,-0.156,-0.127,-0.029,-0.068
1.55,-0.039,0.078,0.117,-0.02,-0.078,0.098,0.044,-0.039,-0.151,-0.122,-0.029,-0.068
1.552,-0.039,0.088,0.127,-0.024,-0.083,0.107,0.049,-0.039,-0.146,-0.117,-0.029,-0.068
1.554,-0.039,0.088,0.127,-0.024,-0.083,0.107,0.063,-0.029,-0.137,-0.107,-0.02,-0.068
1.556,-0.044,0.093,0.137,-0.024,-0.093,0.112,0.073,-0.024,-0.137,-0.107,-0.02,-0.068
1.558,-0.049,0.093,0.142,-0.02,-0.098,0.117,0.088,-0.02,-0.127,-0.102,-0.015,-0.068
1.56,-0.054,0.093,0.146,-0.02,-0.102,0.117,0.093,-0.015,-0.127,-0.102,-0.01,-0.063
1.562,-0.044,0.098,0.142,-0.024,-0.093,0.117,0.088,-0.01,-0.122,-0.102,-0.01,-0.059
1.564,-0.044,0.098,0.142,-0.024,-0.093,0.117,0.088,-0.01,-0.122,-0.102,-0.01,-0.059
1.566,-0.034,0.098,0.132,-0.029,-0.083,0.112,0.088,-0.01,-0.122,-0.102,-0.005,-0.059
1.568,-0.034,0.102,0.137,-0.034,-0.088,0.117,0.088,-0.01,-0.112,-0.098,-0.005,-0.059
1.57,-0.024,0.117,0.142,-0.044,-0.083,0.127,0.068,-0.01,-0.122,-0.088,-0.005,-0.054
1.572,-0.015,0.132,0.146,-0.059,-0.083,0.137,0.054,-0.01,-0.122,-0.088,0.0,-0.054
1.574,-0.01,0.137,0.146,-0.063,-0.078,0.142,0.044,-0.01,-0.117,-0.088,0.0,-0.054
1.576,-0.005,0.142,0.146,-0.068,-0.078,0.142,0.039,-0.015,-0.117,-0.088,0.0,-0.054
1.578,0.0,0.137,0.137,-0.068,-0.068,0.137,0.034,-0.015,-0.107,-0.088,0.005,-0.039
1.58,-0.005,0.132,0.137,-0.063,-0.073,0.132,0.015,-0.024,-0.112,-0.088,0.005,-0.039
1.582,-0.01,0.112,0.122,-0.049,-0.068,0.117,-0.005,-0.034,-0.122,-0.093,0.005,-0.039
1.584,-0.01,0.107,0.117,-0.049,-0.063,0.112,-0.034,-0.049,-0.132,-0.098,-0.005,-0.039
1.586,0.0,0.107,0.107,-0.054,-0.054,0.107,-0.039,-0.059,-0.151,-0.112,-0.01,-0.054
1.588,-0.01,0.088,0.098,-0.039,-0.054,0.093,-0.039,-0.068,-0.166,-0.122,-0.015,-0.054
1.59,-0.015,0.068,0.083,-0.024,-0.049,0.073,-0.039,-0.073,-0.176,-0.127,-0.02,-0.059
1.592,-0.015,0.063,0.078,-0.024,-0.049,0.068,-0.049,-0.078,-0.185,-0.137,-0.024,-0.063
1.594,-0.02,0.059,0.078,-0.02,-0.049,0.068,-0.059,-0.093,-0.195,-0.137,-0.039,-0.068
1.596,-0.02,0.044,0.063,-0.01,-0.044,0.054,-0.059,-0.093,-0.205,-0.146,-0.039,-0.068
1.598,-0.02,0.044,0.063,-0.01,-0.044,0.054,-0.059,-0.098,-0.21,-0.156,-0.039,-0.068
1.6,-0.02,0.049,0.068,-0.015,-0.044,0.059,-0.063,-0.102,-0.21,-0.156,-0.039,-0.068
1.602,0.0,0.059,0.059,-0.029,-0.029,0.059,-0.059,-0.102,-0.2,-0.156,-0.039,-0.068
1.604,0.0,0.059,0.059,-0.029,-0.029,0.059,-0.063,-0.102,-0.195,-0.156,-0.034,-0.068
1.606,0.005,0.059,0.054,-0.029,-0.024,0.054,-0.068,-0.102,-0.195,-0.156,-0.034,-0.063
1.608,0.01,0.059,0.049,-0.034,-0.02,0.054,-0.078,-0.112,-0.195,-0.156,-0.039,-0.063
1.61,0.005,0.044,0.039,-0.024,-0.02,0.039,-0.088,-0.112,-0.205,-0.146,-0.039,-0.054
1.612,0.01,0.039,0.029,-0.024,-0.01,0.034,-0.093,-0.107,-0.205,-0.146,-0.034,-0.049
1.614,0.01,0.039,0.029,-0.024,-0.01,0.034,-0.098,-0.107,-0.205,-0.146,-0.029,-0.049
1.616,0.01,0.039,0.029,-0.024,-0.01,0.034,-0.098,-0.107,-0.205,-0.146,-0.029,-0.039
1.618,0.02,0.034,0.015,-0.024,0.0,0.024,-0.107,-0.112,-0.215,-0.146,-0.029,-0.049
1.62,0.01,0.029,0.02,-0.02,-0.005,0.024,-0.102,-0.112,-0.22,-0.156,-0.039,-0.049
1.622,0.0,0.015,0.015,-0.005,-0.01,0.015,-0.093,-0.122,-0.224,-0.161,-0.044,-0.059
1.624,0.0,0.0,0.0,0.0,0.0,0.0,-0.088,-0.122,-0.229,-0.171,-0.059,-0.068
1.626,-0.029,-0.01,0.02,0.02,-0.024,0.005,-0.073,-0.112,-0.229,-0.171,-0.049,-0.068
1.628,-0.039,-0.015,0.024,0.029,-0.034,0.005,-0.068,-0.112,-0.229,-0.176,-0.054,-0.073
1.63,-0.054,-0.015,0.039,0.034,-0.049,0.01,-0.059,-0.107,-0.229,-0.176,-0.054,-0.073
1.632,-0.073,-0.024,0.049,0.049,-0.063,0.01,-0.054,-0.102,-0.224,-0.176,-0.054,-0.073
1.634,-0.068,-0.015,0.054,0.044,-0.063,0.02,-0.054,-0.102,-0.224,-0.176,-0.054,-0.068
1.636,-0.068,-0.02,0.049,0.044,-0.059,0.015,-0.054,-0.102,-0.229,-0.176,-0.063,-0.073
1.638,-0.068,-0.034,0.034,0.054,-0.054,0.0,-0.049,-0.102,-0.229,-0.181,-0.063,-0.078
1.64,-0.068,-0.039,0.029,0.054,-0.049,-0.005,-0.044,-0.102,-0.229,-0.181,-0.063,-0.088
1.642,-0.083,-0.049,0.034,0.068,-0.059,-0.01,-0.039,-0.112,-0.229,-0.19,-0.083,-0.102
1.644,-0.083,-0.063,0.02,0.073,-0.054,-0.024,-0.039,-0.112,-0.239,-0.2,-0.083,-0.102
1.646,-0.083,-0.063,0.02,0.073,-0.054,-0.024,-0.039,-0.112,-0.244,-0.205,-0.088,-0.107
1.648,-0.083,-0.063,0.02,0.073,-0.054,-0.024,-0.039,-0.112,-0.244,-0.21,-0.093,-0.117
1.65,-0.088,-0.063,0.024,0.078,-0.059,-0.02,-0.039,-0.102,-0.234,-0.205,-0.088,-0.107
1.652,-0.093,-0.063,0.029,0.078,-0.063,-0.02,-0.039,-0.102,-0.234,-0.2,-0.093,-0.107
1.654,-0.102,-0.059,0.044,0.083,-0.073,-0.01,-0.044,-0.107,-0.234,-0.2,-0.098,-0.107
1.656,-0.107,-0.059,0.049,0.083,-0.078,-0.005,-0.044,-0.107,-0.239,-0.195,-0.098,-0.107
1.658,-0.102,-0.049,0.054,0.078,-0.078,0.0,-0.044,-0.117,-0.254,-0.205,-0.098,-0.117
1.66,-0.098,-0.049,0.049,0.073,-0.073,0.0,-0.049,-0.122,-0.254,-0.205,-0.098,-0.112
1.662,-0.093,-0.044,0.049,0.068,-0.073,0.0,-0.054,-0.122,-0.249,-0.205,-0.098,-0.112
1.664,-0.088,-0.044,0.044,0.068,-0.068,0.0,-0.059,-0.122,-0.249,-0.2,-0.098,-0.112
1.666,-0.088,-0.054,0.034,0.073,-0.063,-0.01,-0.049,-0.117,-0.244,-0.2,-0.098,-0.112
1.668,-0.083,-0.054,0.029,0.068,-0.059,-0.015,-0.049,-0.117,-0.244,-0.2,-0.098,-0.112
1.67,-0.083,-0.059,0.024,0.073,-0.054,-0.02,-0.049,-0.117,-0.244,-0.2,-0.098,-0.112
1.672,-0.083,-0.059,0.024,0.073,-0.054,-0.02,-0.049,-0.122,-0.244,-0.2,-0.098,-0.112
1.674,-0.093,-0.059,0.034,0.078,-0.063,-0.015,-0.049,-0.112,-0.239,-0.19,-0.088,-0.102
1.676,-0.093,-0.059,0.034,0.078,-0.063,-0.015,-0.044,-0.107,-0.239,-0.195,-0.088,-0.102
1.678,-0.093,-0.059,0.034,0.078,-0.063,-0.015,-0.044,-0.107,-0.239,-0.195,-0.093,-0.102
1.68,-0.098,-0.054,0.044,0.078,-0.073,-0.005,-0.049,-0.107,-0.239,-0.195,-0.093,-0.102
1.682,-0.098,-0.049,0.049,0.073,-0.073,0.0,-0.049,-0.117,-0.239,-0.205,-0.093,-0.102
1.684,-0.098,-0.049,0.049,0.073,-0.073,0.0,-0.044,-0.117,-0.239,-0.205,-0.088,-0.102
1.686,-0.093,-0.049,0.044,0.073,-0.068,-0.005,-0.044,-0.112,-0.229,-0.2,-0.083,-0.102
1.688,-0.093,-0.049,0.044,0.073,-0.068,-0.005,-0.044,-0.112,-0.224,-0.195,-0.078,-0.098
1.69,-0.083,-0.039,0.044,0.063,-0.063,0.0,-0.049,-0.112,-0.224,-0.19,-0.078,-0.098
1.692,-0.088,-0.044,0.044,0.068,-0.068,0.0,-0.049,-0.112,-0.22,-0.19,-0.078,-0.098
1.694,-0.088,-0.044,0.044,0.068,-0.068,0.0,-0.049,-0.112,-0.22,-0.195,-0.078,-0.098
1.696,-0.088,-0.044,0.044,0.068,-0.068,0.0,-0.044,-0.112,-0.22,-0.195,-0.078,-0.098
1.698,-0.088,-0.054,0.034,0.073,-0.063,-0.01,-0.044,-0.107,-0.224,-0.185,-0.078,-0.098
1.7,-0.088,-0.049,0.039,0.068,-0.063,-0.005,-0.044,-0.107,-0.224,-0.185,-0.078,-0.098
1.702,-0.088,-0.049,0.039,0.068,-0.063,-0.005,-0.044,-0.107,-0.224,-0.185,-0.083,-0.098
1.704,-0.088,-0.049,0.039,0.068,-0.063,-0.005,-0.044,-0.102,-0.215,-0.185,-0.083,-0.098
1.706,-0.083,-0.049,0.034,0.068,-0.059,-0.01,-0.02,-0.073,-0.2,-0.171,-0.073,-0.098
1.708,-0.107,-0.054,0.054,0.083,-0.083,0.0,0.005,-0.054,-0.181,-0.171,-0.083,-0.107
1.71,-0.122,-0.059,0.063,0.093,-0.093,0.0,0.029,-0.02,-0.156,-0.171,-0.088,-0.117
1.712,-0.127,-0.059,0.068,0.093,-0.098,0.005,0.068,0.024,-0.137,-0.171,-0.093,-0.117
1.714,-0.137,-0.063,0.073,0.102,-0.107,0.005,0.083,0.044,-0.127,-0.161,-0.093,-0.132
1.716,-0.142,-0.073,0.068,0.107,-0.107,-0.005,0.098,0.063,-0.107,-0.156,-0.093,-0.132
1.718,-0.142,-0.054,0.088,0.098,-0.117,0.015,0.132,0.098,-0.059,-0.127,-0.078,-0.122
1.72,-0.161,-0.01,0.151,0.088,-0.156,0.068,0.171,0.122,-0.02,-0.098,-0.068,-0.112
1.722,-0.166,0.005,0.171,0.083,-0.171,0.088,0.195,0.132,0.024,-0.073,-0.054,-0.112
1.724,-0.176,0.015,0.19,0.083,-0.185,0.102,0.249,0.19,0.088,-0.034,-0.024,-0.102
1.726,-0.166,0.015,0.181,0.078,-0.176,0.098,0.322,0.298,0.205,0.049,0.02,-0.078
1.728,-0.156,0.029,0.185,0.063,-0.171,0.107,0.386,0.42,0.332,0.151,0.093,-0.044
1.73,-0.122,0.049,0.171,0.039,-0.146,0.107,0.41,0.493,0.429,0.254,0.176,0.0
1.732,-0.073,0.098,0.171,-0.01,-0.122,0.132,0.361,0.508,0.512,0.381,0.273,0.068
1.734,-0.01,0.171,0.181,-0.078,-0.098,0.176,0.264,0.508,0.62,0.542,0.425,0.151
1.736,0.088,0.254,0.166,-0.171,-0.039,0.21,0.127,0.498,0.752,0.722,0.581,0.268
1.738,0.195,0.332,0.137,-0.264,0.029,0.234,-0.068,0.415,0.825,0.888,0.717,0.366
1.74,0.283,0.39,0.107,-0.337,0.088,0.249,-0.283,0.254,0.83,1.02,0.844,0.459
1.742,0.371,0.454,0.083,-0.41,0.142,0.268,-0.488,0.073,0.795,1.093,0.932,0.537
1.744,0.459,0.488,0.029,-0.473,0.215,0.259,-0.664,-0.102,0.722,1.118,0.986,0.6
1.746,0.503,0.473,-0.029,-0.488,0.264,0.22,-0.815,-0.288,0.61,1.078,0.991,0.63
1.748,0.522,0.444,-0.078,-0.483,0.298,0.181,-0.878,-0.483,0.434,0.971,0.937,0.63
1.75,0.522,0.386,-0.137,-0.454,0.327,0.122,-0.888,-0.693,0.195,0.776,0.815,0.59
1.752,0.483,0.298,-0.185,-0.39,0.332,0.054,-0.913,-0.927,-0.132,0.478,0.62,0.512
1.754,0.439,0.259,-0.181,-0.346,0.307,0.039,-0.952,-1.196,-0.493,0.171,0.439,0.444
1.756,0.425,0.234,-0.19,-0.327,0.307,0.02,-0.971,-1.371,-0.8,-0.083,0.298,0.386
1.758,0.41,0.181,-0.229,-0.293,0.317,-0.024,-0.981,-1.415,-0.991,-0.259,0.181,0.337
1.76,0.386,0.107,-0.278,-0.244,0.332,-0.088,-0.971,-1.386,-1.069,-0.376,0.083,0.283
1.762,0.351,0.059,-0.293,-0.205,0.322,-0.117,-0.947,-1.357,-1.108,-0.473,0.0,0.215
1.764,0.312,0.005,-0.307,-0.156,0.307,-0.151,-0.917,-1.313,-1.122,-0.547,-0.059,0.166
1.766,0.278,-0.029,-0.307,-0.122,0.293,-0.171,-0.903,-1.288,-1.137,-0.605,-0.127,0.117
1.768,0.239,-0.039,-0.278,-0.098,0.259,-0.161,-0.883,-1.293,-1.176,-0.678,-0.185,0.078
1.77,0.181,-0.049,-0.229,-0.063,0.205,-0.142,-0.825,-1.288,-1.181,-0.708,-0.215,0.054
1.772,0.122,-0.073,-0.195,-0.024,0.156,-0.137,-0.747,-1.22,-1.152,-0.693,-0.215,0.034
1.774,0.073,-0.098,-0.171,0.015,0.122,-0.137,-0.678,-1.137,-1.103,-0.673,-0.224,0.0
1.776,0.059,-0.117,-0.176,0.029,0.117,-0.146,-0.605,-1.054,-1.054,-0.654,-0.244,-0.02
1.778,0.049,-0.127,-0.176,0.039,0.112,-0.151,-0.517,-0.937,-0.981,-0.63,-0.234,-0.039
1.78,0.02,-0.132,-0.151,0.059,0.083,-0.142,-0.41,-0.791,-0.864,-0.566,-0.224,-0.049
1.782,-0.034,-0.161,-0.127,0.098,0.044,-0.146,-0.327,-0.664,-0.761,-0.517,-0.215,-0.063
1.784,-0.049,-0.181,-0.132,0.117,0.039,-0.156,-0.264,-0.566,-0.669,-0.473,-0.215,-0.088
1.786,-0.054,-0.171,-0.117,0.112,0.029,-0.146,-0.205,-0.473,-0.566,-0.415,-0.19,-0.093
1.788,-0.083,-0.166,-0.083,0.127,0.0,-0.127,-0.137,-0.351,-0.449,-0.337,-0.146,-0.093
1.79,-0.093,-0.151,-0.059,0.122,-0.02,-0.107,-0.098,-0.244,-0.351,-0.264,-0.098,-0.073
1.792,-0.078,-0.117,-0.039,0.098,-0.02,-0.078,-0.068,-0.176,-0.283,-0.195,-0.063,-0.054
1.794,-0.063,-0.088,-0.024,0.078,-0.02,-0.059,-0.054,-0.117,-0.244,-0.156,-0.039,-0.044
1.796,-0.054,-0.063,-0.01,0.059,-0.024,-0.039,-0.024,-0.088,-0.224,-0.142,-0.029,-0.049
1.798,-0.044,-0.044,0.0,0.044,-0.024,-0.024,-0.005,-0.083,-0.224,-0.151,-0.034,-0.039
1.8,-0.063,-0.044,0.02,0.054,-0.044,-0.015,0.01,-0.078,-0.224,-0.166,-0.044,-0.049
1.802,-0.073,-0.034,0.039,0.054,-0.059,0.0,0.02,-0.078,-0.22,-0.166,-0.059,-0.059
1.804,-0.063,-0.02,0.044,0.044,-0.054,0.01,0.01,-0.068,-0.19,-0.166,-0.054,-0.049
1.806,-0.063,-0.015,0.049,0.039,-0.059,0.015,0.01,-0.059,-0.176,-0.156,-0.044,-0.049
1.808,-0.059,-0.015,0.044,0.039,-0.054,0.015,0.0,-0.059,-0.161,-0.151,-0.049,-0.049
1.81,-0.068,-0.015,0.054,0.044,-0.063,0.02,0.0,-0.059,-0.151,-0.132,-0.024,-0.049
1.812,-0.073,-0.02,0.054,0.049,-0.063,0.015,0.01,-0.054,-0.151,-0.122,-0.02,-0.044
1.814,-0.073,-0.024,0.049,0.049,-0.063,0.01,0.024,-0.044,-0.146,-0.112,-0.015,-0.044
1.816,-0.073,-0.029,0.044,0.054,-0.059,0.005,0.024,-0.034,-0.151,-0.107,-0.015,-0.044
1.818,-0.073,-0.029,0.044,0.054,-0.059,0.005,0.02,-0.024,-0.156,-0.112,-0.015,-0.054
1.82,-0.078,-0.029,0.049,0.054,-0.063,0.01,0.029,-0.02,-0.156,-0.112,-0.015,-0.054
1.822,-0.078,-0.029,0.049,0.054,-0.063,0.01,0.029,-0.01,-0.146,-0.112,-0.015,-0.054
1.824,-0.073,-0.029,0.044,0.054,-0.059,0.005,0.029,-0.005,-0.142,-0.117,-0.02,-0.063
1.826,-0.083,-0.039,0.044,0.063,-0.063,0.0,0.039,-0.005,-0.127,-0.117,-0.015,-0.054
1.828,-0.083,-0.034,0.049,0.059,-0.068,0.005,0.039,-0.005,-0.122,-0.112,-0.015,-0.049
1.83,-0.083,-0.034,0.049,0.059,-0.068,0.005,0.034,-0.005,-0.117,-0.112,-0.01,-0.049
1.832,-0.083,-0.034,0.049,0.059,-0.068,0.005,0.034,0.0,-0.117,-0.102,-0.005,-0.049
1.834,-0.073,-0.024,0.049,0.049,-0.063,0.01,0.034,0.0,-0.117,-0.093,0.005,-0.049
1.836,-0.078,-0.024,0.054,0.054,-0.068,0.015,0.034,0.0,-0.122,-0.098,0.005,-0.049
1.838,-0.078,-0.02,0.059,0.049,-0.068,0.02,0.034,0.005,-0.127,-0.098,0.01,-0.049
1.84,-0.078,-0.02,0.059,0.049,-0.068,0.02,0.039,0.005,-0.132,-0.093,0.01,-0.049
1.842,-0.078,-0.015,0.063,0.049,-0.073,0.024,0.029,-0.005,-0.122,-0.098,0.005,-0.049
1.844,-0.078,-0.015,0.063,0.049,-0.073,0.024,0.029,0.005,-0.122,-0.098,0.005,-0.049
1.846,-0.073,-0.015,0.059,0.044,-0.068,0.02,0.029,0.005,-0.117,-0.098,0.005,-0.049
1.848,-0.073,-0.01,0.063,0.044,-0.068,0.024,0.029,0.005,-0.107,-0.098,0.005,-0.049
1.85,-0.078,-0.02,0.059,0.049,-0.068,0.02,0.029,0.005,-0.107,-0.093,0.015,-0.049
1.852,-0.078,-0.02,0.059,0.049,-0.068,0.02,0.034,0.01,-0.102,-0.093,0.015,-0.049
1.854,-0.078,-0.02,0.059,0.049,-0.068,0.02,0.039,0.01,-0.102,-0.093,0.015,-0.044
1.856,-0.073,-0.02,0.054,0.049,-0.063,0.015,0.039,0.01,-0.102,-0.088,0.015,-0.044
1.858,-0.083,-0.02,0.063,0.054,-0.073,0.02,0.044,0.01,-0.112,-0.078,0.015,-0.044
1.86,-0.083,-0.02,0.063,0.054,-0.073,0.02,0.044,0.015,-0.112,-0.078,0.015,-0.044
1.862,-0.083,-0.02,0.063,0.054,-0.073,0.02,0.044,0.015,-0.107,-0.078,0.02,-0.044
1.864,-0.083,-0.02,0.063,0.054,-0.073,0.02,0.044,0.015,-0.107,-0.078,0.02,-0.044
1.866,-0.073,-0.029,0.044,0.054,-0.059,0.005,0.059,0.029,-0.098,-0.078,0.02,-0.044
1.868,-0.073,-0.029,0.044,0.054,-0.059,0.005,0.059,0.029,-0.098,-0.078,0.02,-0.044
1.87,-0.073,-0.029,0.044,0.054,-0.059,0.005,0.054,0.029,-0.093,-0.073,0.02,-0.044
1.872,-0.078,-0.029,0.049,0.054,-0.063,0.01,0.054,0.029,-0.093,-0.073,0.02,-0.039
1.874,-0.078,-0.02,0.059,0.049,-0.068,0.02,0.054,0.029,-0.098,-0.073,0.02,-0.039
1.876,-0.073,-0.02,0.054,0.049,-0.063,0.015,0.054,0.029,-0.098,-0.073,0.02,-0.039
1.878,-0.073,-0.02,0.054,0.049,-0.063,0.015,0.054,0.034,-0.098,-0.068,0.02,-0.039
1.88,-0.078,-0.02,0.059,0.049,-0.068,0.02,0.059,0.039,-0.093,-0.063,0.024,-0.039
1.882,-0.078,-0.02,0.059,0.049,-0.068,0.02,0.049,0.029,-0.093,-0.063,0.024,-0.039
1.884,-0.073,-0.02,0.054,0.049,-0.063,0.015,0.049,0.029,-0.093,-0.063,0.024,-0.039
1.886,-0.073,-0.015,0.059,0.044,-0.068,0.02,0.049,0.034,-0.083,-0.063,0.024,-0.039
1.888,-0.073,-0.015,0.059,0.044,-0.068,0.02,0.049,0.039,-0.083,-0.063,0.024,-0.039
1.89,-0.073,-0.015,0.059,0.044,-0.068,0.02,0.059,0.039,-0.083,-0.063,0.034,-0.029
1.892,-0.073,-0.015,0.059,0.044,-0.068,0.02,0.063,0.039,-0.083,-0.063,0.034,-0.029
1.894,-0.073,-0.015,0.059,0.044,-0.068,0.02,0.063,0.044,-0.078,-0.059,0.039,-0.029
1.896,-0.073,-0.015,0.059,0.044,-0.068,0.02,0.063,0.044,-0.078,-0.059,0.039,-0.024
1.898,-0.073,-0.015,0.059,0.044,-0.068,0.02,0.063,0.049,-0.078,-0.063,0.029,-0.024
1.9,-0.068,-0.015,0.054,0.044,-0.063,0.02,0.063,0.049,-0.073,-0.063,0.029,-0.024
1.902,-0.068,-0.015,0.054,0.044,-0.063,0.02,0.063,0.049,-0.073,-0.063,0.034,-0.024
1.904,-0.068,-0.015,0.054,0.044,-0.063,0.02,0.063,0.049,-0.073,-0.063,0.034,-0.024
1.906,-0.059,-0.024,0.034,0.044,-0.049,0.005,0.059,0.054,-0.054,-0.049,0.049,-0.02
1.908,-0.059,-0.02,0.039,0.039,-0.049,0.01,0.063,0.054,-0.054,-0.049,0.049,-0.02
1.91,-0.059,-0.02,0.039,0.039,-0.049,0.01,0.063,0.054,-0.054,-0.039,0.054,-0.02
1.912,-0.059,-0.02,0.039,0.039,-0.049,0.01,0.059,0.059,-0.049,-0.039,0.054,-0.02
1.914,-0.068,-0.02,0.049,0.044,-0.059,0.015,0.068,0.068,-0.059,-0.049,0.044,-0.029
1.916,-0.068,-0.02,0.049,0.044,-0.059,0.015,0.068,0.068,-0.059,-0.049,0.044,-0.029
1.918,-0.063,-0.015,0.049,0.039,-0.059,0.015,0.068,0.073,-0.054,-0.044,0.044,-0.029
1.92,-0.063,-0.015,0.049,0.039,-0.059,0.015,0.068,0.073,-0.054,-0.044,0.044,-0.024
1.922,-0.073,-0.005,0.068,0.039,-0.073,0.029,0.068,0.083,-0.039,-0.029,0.054,-0.024
1.924,-0.073,-0.005,0.068,0.039,-0.073,0.029,0.068,0.088,-0.034,-0.029,0.054,-0.024
1.926,-0.073,-0.005,0.068,0.039,-0.073,0.029,0.073,0.093,-0.029,-0.024,0.059,-0.024
1.928,-0.068,-0.005,0.063,0.039,-0.068,0.029,0.073,0.098,-0.029,-0.024,0.059,-0.024
1.93,-0.063,-0.005,0.059,0.034,-0.063,0.024,0.083,0.098,-0.039,-0.024,0.059,-0.024
1.932,-0.059,0.0,0.059,0.029,-0.059,0.029,0.083,0.107,-0.029,-0.02,0.063,-0.02
1.934,-0.054,0.0,0.054,0.029,-0.054,0.024,0.078,0.107,-0.024,-0.02,0.073,-0.015
1.936,-0.049,0.0,0.049,0.024,-0.049,0.024,0.078,0.107,-0.024,-0.02,0.073,-0.015
1.938,-0.054,0.0,0.054,0.029,-0.054,0.024,0.088,0.107,-0.024,-0.01,0.078,-0.005
1.94,-0.054,0.0,0.054,0.029,-0.054,0.024,0.093,0.117,-0.015,-0.005,0.078,-0.005
1.942,-0.054,0.0,0.054,0.029,-0.054,0.024,0.098,0.122,-0.01,0.005,0.078,-0.005
1.944,-0.054,0.005,0.059,0.024,-0.059,0.029,0.102,0.127,-0.005,0.005,0.083,0.0
1.946,-0.054,-0.005,0.049,0.029,-0.054,0.02,0.102,0.127,0.0,0.0,0.088,0.0
1.948,-0.049,-0.005,0.044,0.029,-0.049,0.02,0.098,0.127,0.0,0.0,0.088,0.0
1.95,-0.049,0.0,0.049,0.024,-0.049,0.024,0.093,0.137,0.005,0.005,0.088,0.005
1.952,-0.049,0.0,0.049,0.024,-0.049,0.024,0.083,0.142,0.015,0.01,0.098,0.005
1.954,-0.049,0.0,0.049,0.024,-0.049,0.024,0.088,0.132,0.005,0.01,0.098,-0.005
1.956,-0.039,0.005,0.044,0.02,-0.044,0.024,0.088,0.137,0.01,0.015,0.102,0.0
1.958,-0.039,0.005,0.044,0.02,-0.044,0.024,0.093,0.142,0.01,0.02,0.102,0.0
1.96,-0.039,0.01,0.049,0.015,-0.044,0.029,0.093,0.146,0.015,0.02,0.102,0.0
1.962,-0.034,0.01,0.044,0.015,-0.039,0.024,0.083,0.161,0.024,0.024,0.102,0.005
1.964,-0.034,0.015,0.049,0.01,-0.044,0.029,0.088,0.161,0.034,0.034,0.102,0.005
1.966,-0.034,0.02,0.054,0.01,-0.044,0.034,0.093,0.161,0.039,0.039,0.102,0.005
1.968,-0.034,0.02,0.054,0.01,-0.044,0.034,0.093,0.171,0.049,0.054,0.112,0.01
1.97,-0.029,0.029,0.059,0.0,-0.044,0.044,0.093,0.185,0.054,0.059,0.117,0.024
1.972,-0.029,0.034,0.063,0.0,-0.049,0.049,0.088,0.185,0.054,0.059,0.122,0.024
1.974,-0.029,0.034,0.063,0.0,-0.049,0.049,0.088,0.19,0.059,0.068,0.127,0.024
1.976,-0.024,0.034,0.059,-0.005,-0.044,0.044,0.088,0.195,0.063,0.078,0.132,0.034
1.978,-0.015,0.024,0.039,-0.005,-0.029,0.029,0.093,0.205,0.068,0.078,0.142,0.039
1.98,-0.015,0.029,0.044,-0.005,-0.029,0.034,0.098,0.21,0.078,0.083,0.142,0.039
1.982,-0.005,0.029,0.034,-0.01,-0.02,0.029,0.098,0.215,0.078,0.088,0.142,0.039
1.984,-0.005,0.034,0.039,-0.015,-0.024,0.034,0.093,0.22,0.083,0.093,0.146,0.039
1.986,-0.01,0.034,0.044,-0.01,-0.029,0.039,0.102,0.224,0.093,0.098,0.146,0.039
1.988,-0.01,0.039,0.049,-0.015,-0.029,0.044,0.093,0.229,0.098,0.102,0.151,0.044
1.99,-0.01,0.044,0.054,-0.015,-0.034,0.049,0.093,0.234,0.102,0.112,0.156,0.049
1.992,-0.015,0.044,0.059,-0.015,-0.039,0.049,0.093,0.244,0.107,0.127,0.161,0.054
1.994,-0.005,0.059,0.063,-0.024,-0.034,0.059,0.098,0.249,0.117,0.132,0.171,0.044
1.996,0.0,0.059,0.059,-0.029,-0.029,0.059,0.098,0.254,0.122,0.142,0.176,0.054
1.998,0.005,0.059,0.054,-0.029,-0.024,0.054,0.098,0.264,0.127,0.146,0.185,0.059
2.0,0.005,0.059,0.054,-0.029,-0.024,0.054,0.098,0.278,0.137,0.161,0.19,0.063
2.002,0.005,0.068,0.063,-0.034,-0.029,0.063,0.088,0.278,0.132,0.161,0.185,0.063
2.004,0.01,0.073,0.063,-0.039,-0.029,0.068,0.093,0.278,0.146,0.171,0.185,0.068
2.006,0.01,0.078,0.068,-0.044,-0.029,0.073,0.093,0.283,0.151,0.176,0.19,0.073
2.008,0.01,0.078,0.068,-0.044,-0.029,0.073,0.093,0.288,0.156,0.181,0.2,0.073
2.01,0.024,0.088,0.063,-0.054,-0.02,0.073,0.098,0.303,0.161,0.176,0.205,0.073
2.012,0.034,0.093,0.059,-0.063,-0.015,0.073,0.093,0.312,0.166,0.19,0.21,0.078
2.014,0.039,0.093,0.054,-0.063,-0.01,0.073,0.088,0.317,0.181,0.2,0.215,0.083
2.016,0.044,0.093,0.049,-0.068,-0.005,0.068,0.088,0.327,0.19,0.21,0.224,0.093
2.018,0.044,0.093,0.049,-0.068,-0.005,0.068,0.088,0.332,0.205,0.224,0.229,0.098
2.02,0.044,0.098,0.054,-0.068,-0.005,0.073,0.093,0.337,0.215,0.229,0.234,0.102
2.022,0.049,0.098,0.049,-0.073,0.0,0.073,0.098,0.351,0.224,0.249,0.249,0.107
2.024,0.054,0.102,0.049,-0.078,0.0,0.073,0.098,0.356,0.229,0.259,0.254,0.117
2.026,0.054,0.093,0.039,-0.073,0.005,0.063,0.102,0.356,0.224,0.249,0.259,0.107
2.028,0.054,0.098,0.044,-0.073,0.005,0.068,0.098,0.361,0.229,0.259,0.264,0.112
2.03,0.059,0.098,0.039,-0.078,0.01,0.068,0.093,0.371,0.239,0.268,0.268,0.117
2.032,0.068,0.107,0.039,-0.088,0.015,0.073,0.088,0.376,0.244,0.268,0.273,0.122
2.034,0.083,0.112,0.029,-0.098,0.024,0.068,0.078,0.386,0.259,0.288,0.283,0.132
2.036,0.083,0.112,0.029,-0.098,0.024,0.068,0.078,0.395,0.273,0.303,0.288,0.137
2.038,0.088,0.112,0.024,-0.098,0.029,0.068,0.078,0.405,0.278,0.307,0.293,0.142
2.04,0.088,0.117,0.029,-0.102,0.029,0.073,0.078,0.415,0.283,0.317,0.303,0.146
2.042,0.098,0.127,0.029,-0.112,0.034,0.078,0.078,0.405,0.283,0.307,0.303,0.146
2.044,0.107,0.132,0.024,-0.117,0.039,0.078,0.078,0.41,0.288,0.312,0.303,0.146
2.046,0.112,0.132,0.02,-0.122,0.044,0.073,0.078,0.415,0.293,0.322,0.317,0.156
2.048,0.117,0.137,0.02,-0.127,0.049,0.078,0.083,0.425,0.298,0.337,0.322,0.166
2.05,0.122,0.137,0.015,-0.127,0.054,0.073,0.073,0.429,0.307,0.356,0.327,0.181
2.052,0.117,0.137,0.02,-0.127,0.049,0.078,0.063,0.429,0.312,0.356,0.332,0.181
2.054,0.112,0.146,0.034,-0.127,0.039,0.088,0.063,0.429,0.312,0.361,0.337,0.181
2.056,0.117,0.151,0.034,-0.132,0.039,0.093,0.063,0.434,0.312,0.361,0.342,0.185
2.058,0.127,0.161,0.034,-0.142,0.044,0.098,0.063,0.434,0.303,0.351,0.337,0.181
2.06,0.127,0.161,0.034,-0.142,0.044,0.098,0.054,0.434,0.307,0.361,0.337,0.181
2.062,0.132,0.161,0.029,-0.146,0.049,0.093,0.054,0.439,0.307,0.361,0.346,0.185
2.064,0.137,0.161,0.024,-0.146,0.054,0.093,0.049,0.439,0.312,0.371,0.351,0.185
2.066,0.137,0.161,0.024,-0.146,0.054,0.093,0.049,0.449,0.312,0.381,0.356,0.195
2.068,0.137,0.166,0.029,-0.151,0.054,0.098,0.049,0.449,0.322,0.386,0.361,0.2
2.07,0.146,0.166,0.02,-0.156,0.063,0.093,0.044,0.449,0.322,0.39,0.371,0.21
2.072,0.151,0.171,0.02,-0.161,0.063,0.093,0.044,0.449,0.322,0.395,0.371,0.21
2.074,0.151,0.171,0.02,-0.161,0.063,0.093,0.034,0.449,0.332,0.41,0.386,0.224
2.076,0.151,0.171,0.02,-0.161,0.063,0.093,0.029,0.449,0.337,0.415,0.39,0.224
2.078,0.151,0.171,0.02,-0.161,0.063,0.093,0.02,0.449,0.337,0.42,0.395,0.224
2.08,0.161,0.166,0.005,-0.161,0.078,0.083,0.01,0.449,0.337,0.42,0.395,0.229
2.082,0.166,0.176,0.01,-0.171,0.078,0.093,0.01,0.459,0.327,0.41,0.386,0.224
2.084,0.166,0.181,0.015,-0.171,0.073,0.098,0.01,0.459,0.332,0.41,0.39,0.224
2.086,0.166,0.19,0.024,-0.176,0.068,0.107,0.01,0.459,0.332,0.41,0.4,0.22
2.088,0.171,0.19,0.02,-0.181,0.073,0.102,0.015,0.459,0.332,0.415,0.4,0.224
2.09,0.181,0.19,0.01,-0.185,0.083,0.098,0.005,0.444,0.327,0.415,0.4,0.229
2.092,0.181,0.185,0.005,-0.181,0.088,0.093,0.005,0.444,0.327,0.42,0.4,0.229
2.094,0.185,0.185,0.0,-0.185,0.093,0.093,0.005,0.439,0.327,0.42,0.395,0.234
2.096,0.185,0.195,0.01,-0.19,0.088,0.102,0.0,0.434,0.327,0.41,0.39,0.234
2.098,0.185,0.195,0.01,-0.19,0.088,0.102,-0.01,0.439,0.327,0.42,0.395,0.244
2.1,0.181,0.195,0.015,-0.185,0.083,0.102,-0.01,0.434,0.322,0.42,0.4,0.244
2.102,0.181,0.2,0.02,-0.19,0.078,0.107,-0.015,0.429,0.317,0.41,0.395,0.244
2.104,0.181,0.2,0.02,-0.19,0.078,0.107,-0.015,0.415,0.307,0.405,0.4,0.239
2.106,0.171,0.195,0.024,-0.181,0.073,0.107,-0.01,0.405,0.298,0.395,0.4,0.234
2.108,0.171,0.195,0.024,-0.181,0.073,0.107,-0.01,0.395,0.288,0.39,0.395,0.234
2.11,0.161,0.195,0.034,-0.176,0.063,0.112,-0.005,0.386,0.278,0.381,0.39,0.229
2.112,0.156,0.195,0.039,-0.176,0.059,0.117,-0.005,0.376,0.273,0.371,0.376,0.224
2.114,0.142,0.185,0.044,-0.161,0.049,0.112,-0.005,0.366,0.273,0.361,0.371,0.229
2.116,0.142,0.185,0.044,-0.161,0.049,0.112,0.005,0.356,0.264,0.346,0.356,0.22
2.118,0.137,0.185,0.049,-0.161,0.044,0.117,0.005,0.346,0.254,0.337,0.346,0.215
2.12,0.127,0.181,0.054,-0.151,0.034,0.117,0.005,0.332,0.239,0.322,0.337,0.21
2.122,0.107,0.176,0.068,-0.142,0.02,0.122,0.02,0.322,0.229,0.317,0.327,0.195
2.124,0.102,0.176,0.073,-0.137,0.015,0.122,0.02,0.303,0.21,0.303,0.322,0.181
2.126,0.088,0.166,0.078,-0.127,0.005,0.122,0.02,0.288,0.2,0.288,0.307,0.171
2.128,0.083,0.161,0.078,-0.122,0.0,0.117,0.024,0.278,0.185,0.268,0.293,0.161
2.13,0.073,0.161,0.088,-0.117,-0.01,0.122,0.034,0.264,0.171,0.264,0.283,0.151
2.132,0.068,0.156,0.088,-0.112,-0.01,0.122,0.034,0.254,0.156,0.249,0.273,0.151
2.134,0.068,0.151,0.083,-0.107,-0.01,0.117,0.034,0.249,0.146,0.234,0.264,0.137
2.136,0.054,0.146,0.093,-0.098,-0.02,0.117,0.034,0.234,0.132,0.215,0.249,0.127
2.138,0.054,0.132,0.078,-0.093,-0.015,0.102,0.039,0.215,0.117,0.195,0.239,0.132
2.14,0.054,0.132,0.078,-0.093,-0.015,0.102,0.044,0.205,0.107,0.185,0.224,0.122
2.142,0.039,0.127,0.088,-0.083,-0.024,0.107,0.044,0.2,0.093,0.171,0.22,0.112
2.144,0.034,0.122,0.088,-0.078,-0.029,0.102,0.049,0.181,0.078,0.156,0.2,0.112
2.146,0.034,0.117,0.083,-0.073,-0.024,0.098,0.039,0.166,0.063,0.132,0.195,0.088
2.148,0.024,0.107,0.083,-0.063,-0.029,0.093,0.034,0.146,0.049,0.127,0.181,0.078
2.15,0.015,0.102,0.088,-0.059,-0.039,0.093,0.029,0.132,0.034,0.107,0.171,0.068
2.152,0.015,0.093,0.078,-0.054,-0.034,0.083,0.024,0.127,0.029,0.093,0.161,0.068
2.154,0.015,0.083,0.068,-0.049,-0.029,0.073,0.024,0.117,0.029,0.088,0.151,0.059
2.156,0.005,0.073,0.068,-0.039,-0.034,0.068,0.024,0.107,0.01,0.078,0.142,0.049
2.158,-0.005,0.068,0.073,-0.029,-0.039,0.068,0.024,0.093,-0.005,0.063,0.132,0.049
2.16,-0.01,0.063,0.073,-0.024,-0.044,0.068,0.024,0.088,-0.01,0.054,0.122,0.044
2.162,-0.015,0.063,0.078,-0.024,-0.049,0.068,0.039,0.088,-0.015,0.049,0.122,0.049
2.164,-0.02,0.063,0.083,-0.02,-0.054,0.073,0.039,0.083,-0.024,0.039,0.117,0.039
2.166,-0.02,0.063,0.083,-0.02,-0.054,0.073,0.034,0.083,-0.039,0.029,0.122,0.034
2.168,-0.02,0.049,0.068,-0.015,-0.044,0.059,0.034,0.068,-0.054,0.02,0.122,0.029
2.17,-0.01,0.044,0.054,-0.015,-0.034,0.049,0.034,0.054,-0.059,0.029,0.102,0.02
2.172,-0.015,0.039,0.054,-0.01,-0.034,0.044,0.029,0.044,-0.059,0.02,0.098,0.015
2.174,-0.015,0.039,0.054,-0.01,-0.034,0.044,0.024,0.044,-0.063,0.02,0.093,0.01
2.176,-0.02,0.034,0.054,-0.005,-0.039,0.044,0.024,0.039,-0.063,0.01,0.088,0.01
2.178,-0.034,0.02,0.054,0.01,-0.044,0.034,0.02,0.039,-0.073,0.01,0.083,0.01
2.18,-0.034,0.015,0.049,0.01,-0.044,0.029,0.02,0.034,-0.083,0.0,0.078,0.005
2.182,-0.039,0.015,0.054,0.015,-0.049,0.034,0.02,0.034,-0.088,-0.005,0.078,0.0
2.184,-0.039,0.01,0.049,0.015,-0.044,0.029,0.02,0.034,-0.093,-0.01,0.073,-0.005
2.186,-0.049,0.02,0.068,0.015,-0.059,0.044,0.029,0.029,-0.098,-0.024,0.078,0.005
2.188,-0.049,0.02,0.068,0.015,-0.059,0.044,0.029,0.024,-0.102,-0.029,0.073,0.0
2.19,-0.049,0.02,0.068,0.015,-0.059,0.044,0.034,0.02,-0.107,-0.034,0.073,0.0
2.192,-0.054,0.015,0.068,0.02,-0.063,0.039,0.039,0.02,-0.107,-0.039,0.068,0.0
2.194,-0.044,0.015,0.059,0.015,-0.054,0.034,0.029,0.029,-0.102,-0.044,0.063,-0.015
2.196,-0.044,0.015,0.059,0.015,-0.054,0.034,0.02,0.029,-0.102,-0.044,0.063,-0.015
2.198,-0.044,0.015,0.059,0.015,-0.054,0.034,0.02,0.024,-0.102,-0.044,0.063,-0.015
2.2,-0.044,0.01,0.054,0.02,-0.049,0.029,0.02,0.024,-0.102,-0.044,0.063,-0.015
2.202,-0.044,0.01,0.054,0.02,-0.049,0.029,0.024,0.024,-0.102,-0.044,0.063,-0.005
2.204,-0.044,0.01,0.054,0.02,-0.049,0.029,0.029,0.024,-0.107,-0.044,0.059,-0.01
2.206,-0.044,0.015,0.059,0.015,-0.054,0.034,0.029,0.02,-0.112,-0.054,0.049,-0.01
2.208,-0.049,0.015,0.063,0.02,-0.059,0.039,0.029,0.02,-0.117,-0.054,0.049,-0.01
2.21,-0.049,0.005,0.054,0.024,-0.054,0.029,0.039,0.02,-0.117,-0.054,0.049,-0.02
2.212,-0.049,0.005,0.054,0.024,-0.054,0.029,0.034,0.02,-0.117,-0.054,0.049,-0.02
2.214,-0.049,0.005,0.054,0.024,-0.054,0.029,0.034,0.02,-0.117,-0.054,0.049,-0.015
2.216,-0.049,0.005,0.054,0.024,-0.054,0.029,0.039,0.02,-0.117,-0.054,0.049,-0.015
2.218,-0.054,0.005,0.059,0.024,-0.059,0.029,0.044,0.02,-0.117,-0.044,0.044,-0.015
2.22,-0.054,0.005,0.059,0.024,-0.059,0.029,0.044,0.02,-0.117,-0.044,0.044,-0.015
2.222,-0.054,-0.005,0.049,0.029,-0.054,0.02,0.044,0.024,-0.117,-0.044,0.044,-0.015
2.224,-0.063,-0.005,0.059,0.034,-0.063,0.024,0.049,0.029,-0.112,-0.044,0.044,-0.015
2.226,-0.054,0.005,0.059,0.024,-0.059,0.029,0.039,0.02,-0.122,-0.054,0.039,-0.02
2.228,-0.054,0.005,0.059,0.024,-0.059,0.029,0.039,0.024,-0.122,-0.054,0.039,-0.02
2.23,-0.049,0.005,0.054,0.024,-0.054,0.029,0.039,0.024,-0.122,-0.059,0.039,-0.024
2.232,-0.049,0.005,0.054,0.024,-0.054,0.029,0.039,0.02,-0.122,-0.068,0.034,-0.024
2.234,-0.059,0.005,0.063,0.029,-0.063,0.034,0.049,0.024,-0.112,-0.049,0.034,-0.024
2.236,-0.063,0.005,0.068,0.029,-0.068,0.034,0.054,0.024,-0.112,-0.049,0.034,-0.02
2.238,-0.063,0.005,0.068,0.029,-0.068,0.034,0.054,0.024,-0.112,-0.049,0.034,-0.02
2.24,-0.063,0.005,0.068,0.029,-0.068,0.034,0.059,0.029,-0.112,-0.054,0.029,-0.024
2.242,-0.049,0.0,0.049,0.024,-0.049,0.024,0.059,0.029,-0.117,-0.054,0.029,-0.024
2.244,-0.049,0.0,0.049,0.024,-0.049,0.024,0.059,0.029,-0.112,-0.054,0.029,-0.024
2.246,-0.049,0.0,0.049,0.024,-0.049,0.024,0.059,0.029,-0.112,-0.054,0.029,-0.024
2.248,-0.049,0.01,0.059,0.02,-0.054,0.034,0.063,0.029,-0.117,-0.049,0.029,-0.024
2.25,-0.049,0.0,0.049,0.024,-0.049,0.024,0.054,0.024,-0.107,-0.049,0.034,-0.015
2.252,-0.049,0.0,0.049,0.024,-0.049,0.024,0.054,0.024,-0.107,-0.044,0.034,-0.015
2.254,-0.054,0.0,0.054,0.029,-0.054,0.024,0.054,0.024,-0.107,-0.044,0.034,-0.015
2.256,-0.054,0.0,0.054,0.029,-0.054,0.024,0.054,0.024,-0.107,-0.049,0.034,-0.015
2.258,-0.063,0.0,0.063,0.034,-0.063,0.029,0.063,0.034,-0.117,-0.059,0.029,-0.024
2.26,-0.068,0.0,0.068,0.034,-0.068,0.034,0.063,0.034,-0.112,-0.059,0.029,-0.024
2.262,-0.068,0.005,0.073,0.034,-0.073,0.039,0.063,0.034,-0.112,-0.054,0.029,-0.024
2.264,-0.068,0.005,0.073,0.034,-0.073,0.039,0.063,0.039,-0.107,-0.054,0.029,-0.024
2.266,-0.059,0.005,0.063,0.029,-0.063,0.034,0.063,0.044,-0.098,-0.054,0.039,-0.024
2.268,-0.059,0.005,0.063,0.029,-0.063,0.034,0.063,0.044,-0.102,-0.054,0.039,-0.024
2.27,-0.054,0.01,0.063,0.024,-0.059,0.034,0.063,0.044,-0.102,-0.054,0.039,-0.024
2.272,-0.054,0.01,0.063,0.024,-0.059,0.034,0.063,0.039,-0.098,-0.054,0.039,-0.024
2.274,-0.044,0.01,0.054,0.02,-0.049,0.029,0.059,0.029,-0.102,-0.063,0.034,-0.02
2.276,-0.044,0.01,0.054,0.02,-0.049,0.029,0.063,0.029,-0.107,-0.063,0.029,-0.02
2.278,-0.044,0.01,0.054,0.02,-0.049,0.029,0.063,0.024,-0.112,-0.068,0.024,-0.02
2.28,-0.044,0.01,0.054,0.02,-0.049,0.029,0.063,0.024,-0.117,-0.068,0.02,-0.02
2.282,-0.049,0.01,0.059,0.02,-0.054,0.034,0.073,0.039,-0.107,-0.059,0.02,-0.02
2.284,-0.054,0.005,0.059,0.024,-0.059,0.029,0.073,0.039,-0.107,-0.054,0.02,-0.02
2.286,-0.063,0.005,0.068,0.029,-0.068,0.034,0.073,0.039,-0.107,-0.054,0.02,-0.02
2.288,-0.068,0.005,0.073,0.034,-0.073,0.039,0.068,0.039,-0.107,-0.054,0.024,-0.02
2.29,-0.068,-0.005,0.063,0.039,-0.068,0.029,0.068,0.034,-0.107,-0.044,0.029,-0.02
2.292,-0.059,0.0,0.059,0.029,-0.059,0.029,0.068,0.034,-0.107,-0.049,0.029,-0.02
2.294,-0.068,0.0,0.068,0.034,-0.068,0.034,0.059,0.034,-0.107,-0.049,0.034,-0.02
2.296,-0.068,-0.01,0.059,0.039,-0.063,0.024,0.068,0.034,-0.102,-0.049,0.039,-0.02
2.298,-0.054,-0.005,0.049,0.029,-0.054,0.02,0.068,0.024,-0.102,-0.059,0.029,-0.02
2.3,-0.054,0.005,0.059,0.024,-0.059,0.029,0.068,0.02,-0.107,-0.059,0.034,-0.02
2.302,-0.054,0.01,0.063,0.024,-0.059,0.034,0.068,0.02,-0.112,-0.063,0.034,-0.02
2.304,-0.054,0.015,0.068,0.02,-0.063,0.039,0.063,0.02,-0.117,-0.063,0.034,-0.02
2.306,-0.063,0.005,0.068,0.029,-0.068,0.034,0.068,0.024,-0.112,-0.054,0.034,-0.02
2.308,-0.068,0.005,0.073,0.034,-0.073,0.039,0.059,0.024,-0.117,-0.059,0.029,-0.024
2.31,-0.068,0.005,0.073,0.034,-0.073,0.039,0.059,0.024,-0.112,-0.059,0.029,-0.024
2.312,-0.063,0.01,0.073,0.029,-0.068,0.039,0.059,0.02,-0.107,-0.059,0.029,-0.024
2.314,-0.063,0.0,0.063,0.034,-0.063,0.029,0.059,0.02,-0.107,-0.068,0.029,-0.02
2.316,-0.068,0.0,0.068,0.034,-0.068,0.034,0.049,0.02,-0.112,-0.068,0.029,-0.02
2.318,-0.068,0.0,0.068,0.034,-0.068,0.034,0.049,0.02,-0.112,-0.068,0.029,-0.02
2.32,-0.063,-0.005,0.059,0.034,-0.063,0.024,0.059,0.01,-0.107,-0.068,0.034,-0.02
2.322,-0.063,0.005,0.068,0.029,-0.068,0.034,0.059,0.01,-0.107,-0.078,0.024,-0.024
2.324,-0.063,0.005,0.068,0.029,-0.068,0.034,0.059,0.01,-0.112,-0.078,0.024,-0.024
2.326,-0.059,-0.005,0.054,0.034,-0.059,0.024,0.054,0.01,-0.117,-0.078,0.024,-0.024
2.328,-0.059,-0.005,0.054,0.034,-0.059,0.024,0.049,0.01,-0.127,-0.078,0.024,-0.024
2.33,-0.059,-0.005,0.054,0.034,-0.059,0.024,0.054,0.0,-0.137,-0.078,0.015,-0.024
2.332,-0.059,-0.005,0.054,0.034,-0.059,0.024,0.049,0.0,-0.137,-0.078,0.015,-0.024
2.334,-0.054,0.0,0.054,0.029,-0.054,0.024,0.049,0.0,-0.137,-0.078,0.01,-0.024
2.336,-0.054,0.0,0.054,0.029,-0.054,0.024,0.054,-0.005,-0.137,-0.078,0.01,-0.024
2.338,-0.054,-0.01,0.044,0.034,-0.049,0.015,0.059,-0.005,-0.127,-0.078,0.02,-0.02
2.34,-0.059,-0.01,0.049,0.034,-0.054,0.02,0.059,-0.01,-0.127,-0.073,0.02,-0.02
2.342,-0.059,-0.01,0.049,0.034,-0.054,0.02,0.054,-0.01,-0.127,-0.068,0.02,-0.02
2.344,-0.054,-0.01,0.044,0.034,-0.049,0.015,0.049,-0.01,-0.127,-0.059,0.02,-0.02
2.346,-0.054,-0.01,0.044,0.034,-0.049,0.015,0.049,-0.01,-0.127,-0.068,0.02,-0.02
2.348,-0.059,-0.01,0.049,0.034,-0.054,0.02,0.044,-0.01,-0.122,-0.073,0.02,-0.02
2.35,-0.059,-0.01,0.049,0.034,-0.054,0.02,0.044,-0.01,-0.122,-0.073,0.02,-0.015
2.352,-0.059,-0.01,0.049,0.034,-0.054,0.02,0.044,-0.01,-0.122,-0.073,0.02,-0.015
2.354,-0.059,-0.02,0.039,0.039,-0.049,0.01,0.044,-0.01,-0.127,-0.068,0.015,-0.02
2.356,-0.059,-0.02,0.039,0.039,-0.049,0.01,0.044,-0.02,-0.132,-0.068,0.015,-0.02
2.358,-0.059,-0.02,0.039,0.039,-0.049,0.01,0.039,-0.024,-0.142,-0.068,0.015,-0.02
2.36,-0.059,-0.02,0.039,0.039,-0.049,0.01,0.039,-0.024,-0.142,-0.068,0.01,-0.02
2.362,-0.049,0.0,0.049,0.024,-0.049,0.024,0.049,-0.034,-0.142,-0.078,0.01,-0.034
2.364,-0.049,-0.01,0.039,0.029,-0.044,0.015,0.049,-0.034,-0.142,-0.078,0.01,-0.034
2.366,-0.049,-0.01,0.039,0.029,-0.044,0.015,0.049,-0.034,-0.146,-0.083,0.01,-0.039
2.368,-0.054,-0.005,0.049,0.029,-0.054,0.02,0.049,-0.034,-0.146,-0.083,0.005,-0.039
2.37,-0.063,-0.015,0.049,0.039,-0.059,0.015,0.054,-0.024,-0.137,-0.083,-0.005,-0.039
2.372,-0.063,-0.02,0.044,0.044,-0.054,0.01,0.054,-0.024,-0.137,-0.083,0.0,-0.034
2.374,-0.073,-0.02,0.054,0.049,-0.063,0.015,0.054,-0.029,-0.137,-0.083,0.0,-0.034
2.376,-0.063,-0.02,0.044,0.044,-0.054,0.01,0.054,-0.034,-0.142,-0.083,0.0,-0.039
2.378,-0.054,-0.01,0.044,0.034,-0.049,0.015,0.049,-0.039,-0.146,-0.083,0.0,-0.039
2.38,-0.054,-0.01,0.044,0.034,-0.049,0.015,0.049,-0.039,-0.146,-0.083,0.0,-0.039
2.382,-0.059,-0.02,0.039,0.039,-0.049,0.01,0.044,-0.039,-0.146,-0.083,0.0,-0.039
2.384,-0.059,-0.02,0.039,0.039,-0.049,0.01,0.039,-0.039,-0.146,-0.083,0.0,-0.039
2.386,-0.068,-0.02,0.049,0.044,-0.059,0.015,0.049,-0.039,-0.142,-0.078,0.01,-0.039
2.388,-0.068,-0.02,0.049,0.044,-0.059,0.015,0.049,-0.039,-0.142,-0.078,0.01,-0.034
2.39,-0.068,-0.02,0.049,0.044,-0.059,0.015,0.044,-0.034,-0.137,-0.078,0.01,-0.029
2.392,-0.063,-0.02,0.044,0.044,-0.054,0.01,0.039,-0.034,-0.137,-0.078,0.01,-0.029
2.394,-0.054,-0.02,0.034,0.039,-0.044,0.005,0.039,-0.034,-0.146,-0.078,0.005,-0.039
2.396,-0.059,-0.02,0.039,0.039,-0.049,0.01,0.039,-0.034,-0.146,-0.078,0.005,-0.039
2.398,-0.059,-0.02,0.039,0.039,-0.049,0.01,0.049,-0.039,-0.146,-0.078,0.005,-0.039
2.4,-0.059,-0.02,0.039,0.039,-0.049,0.01,0.039,-0.039,-0.151,-0.083,0.0,-0.044
2.402,-0.063,-0.029,0.034,0.049,-0.049,0.0,0.034,-0.044,-0.151,-0.083,0.0,-0.044
2.404,-0.063,-0.029,0.034,0.049,-0.049,0.0,0.034,-0.044,-0.151,-0.083,0.0,-0.044
2.406,-0.063,-0.029,0.034,0.049,-0.049,0.0,0.039,-0.044,-0.151,-0.083,0.0,-0.039
2.408,-0.063,-0.029,0.034,0.049,-0.049,0.0,0.039,-0.039,-0.151,-0.083,0.0,-0.034
2.41,-0.063,-0.02,0.044,0.044,-0.054,0.01,0.044,-0.049,-0.146,-0.093,-0.01,-0.044
2.412,-0.063,-0.02,0.044,0.044,-0.054,0.01,0.039,-0.054,-0.146,-0.093,-0.01,-0.044
2.414,-0.063,-0.015,0.049,0.039,-0.059,0.015,0.039,-0.054,-0.146,-0.093,-0.01,-0.049
2.416,-0.063,-0.015,0.049,0.039,-0.059,0.015,0.039,-0.054,-0.146,-0.093,-0.01,-0.049
2.418,-0.063,-0.024,0.039,0.044,-0.054,0.005,0.034,-0.044,-0.151,-0.093,-0.02,-0.049
2.42,-0.063,-0.024,0.039,0.044,-0.054,0.005,0.034,-0.044,-0.151,-0.093,-0.02,-0.049
2.422,-0.063,-0.02,0.044,0.044,-0.054,0.01,0.034,-0.049,-0.151,-0.093,-0.02,-0.044
2.424,-0.063,-0.015,0.049,0.039,-0.059,0.015,0.029,-0.054,-0.151,-0.098,-0.02,-0.044
2.426,-0.054,-0.015,0.039,0.034,-0.049,0.01,0.039,-0.059,-0.151,-0.088,-0.01,-0.034
2.428,-0.054,-0.024,0.029,0.039,-0.044,0.0,0.039,-0.059,-0.151,-0.088,-0.01,-0.039
2.43,-0.054,-0.024,0.029,0.039,-0.044,0.0,0.039,-0.054,-0.146,-0.088,-0.01,-0.044
2.432,-0.054,-0.024,0.029,0.039,-0.044,0.0,0.034,-0.054,-0.142,-0.088,-0.01,-0.044
2.434,-0.068,-0.034,0.034,0.054,-0.054,0.0,0.039,-0.054,-0.142,-0.078,0.0,-0.034
2.436,-0.068,-0.034,0.034,0.054,-0.054,0.0,0.044,-0.054,-0.142,-0.083,0.0,-0.034
2.438,-0.063,-0.034,0.029,0.049,-0.049,-0.005,0.039,-0.049,-0.142,-0.083,0.0,-0.034
2.44,-0.063,-0.034,0.029,0.049,-0.049,-0.005,0.034,-0.049,-0.142,-0.083,0.0,-0.039
2.442,-0.068,-0.034,0.034,0.054,-0.054,0.0,0.034,-0.039,-0.132,-0.083,0.0,-0.039
2.444,-0.073,-0.039,0.034,0.059,-0.054,-0.005,0.044,-0.039,-0.132,-0.088,0.0,-0.034
2.446,-0.073,-0.039,0.034,0.059,-0.054,-0.005,0.054,-0.044,-0.132,-0.088,0.0,-0.034
2.448,-0.068,-0.039,0.029,0.054,-0.049,-0.005,0.059,-0.044,-0.132,-0.083,-0.005,-0.039
2.45,-0.059,-0.024,0.034,0.044,-0.049,0.005,0.049,-0.054,-0.142,-0.093,-0.005,-0.049
2.452,-0.054,-0.024,0.029,0.039,-0.044,0.0,0.044,-0.054,-0.142,-0.088,-0.005,-0.044
2.454,-0.054,-0.034,0.02,0.044,-0.039,-0.01,0.039,-0.049,-0.137,-0.088,-0.005,-0.044
2.456,-0.059,-0.034,0.024,0.049,-0.044,-0.005,0.034,-0.049,-0.137,-0.093,-0.005,-0.039
2.458,-0.068,-0.044,0.024,0.059,-0.049,-0.01,0.039,-0.054,-0.142,-0.088,-0.015,-0.049
2.46,-0.068,-0.034,0.034,0.054,-0.054,0.0,0.044,-0.054,-0.146,-0.088,-0.015,-0.049
2.462,-0.068,-0.034,0.034,0.054,-0.054,0.0,0.049,-0.054,-0.146,-0.088,-0.015,-0.049
2.464,-0.068,-0.034,0.034,0.054,-0.054,0.0,0.039,-0.054,-0.146,-0.088,-0.015,-0.049
2.466,-0.068,-0.034,0.034,0.054,-0.054,0.0,0.044,-0.054,-0.142,-0.088,-0.015,-0.044
2.468,-0.068,-0.034,0.034,0.054,-0.054,0.0,0.049,-0.054,-0.142,-0.088,-0.015,-0.044
2.47,-0.068,-0.034,0.034,0.054,-0.054,0.0,0.054,-0.054,-0.137,-0.083,-0.015,-0.049
2.472,-0.073,-0.034,0.039,0.054,-0.059,0.0,0.059,-0.054,-0.137,-0.083,-0.015,-0.049
2.474,-0.039,-0.029,0.01,0.034,-0.024,-0.01,0.059,-0.054,-0.146,-0.088,-0.015,-0.049
2.476,-0.059,-0.039,0.02,0.049,-0.039,-0.01,0.049,-0.049,-0.146,-0.088,-0.02,-0.049
2.478,-0.059,-0.029,0.029,0.044,-0.044,0.0,0.039,-0.049,-0.137,-0.088,-0.01,-0.039
2.48,-0.059,-0.029,0.029,0.044,-0.044,0.0,0.039,-0.049,-0.137,-0.088,-0.01,-0.039
2.482,-0.059,-0.029,0.029,0.044,-0.044,0.0,0.039,-0.049,-0.137,-0.088,-0.01,-0.039
2.484,-0.059,-0.029,0.029,0.044,-0.044,0.0,0.039,-0.049,-0.137,-0.088,-0.01,-0.039
2.486,-0.068,-0.029,0.039,0.049,-0.054,0.005,0.049,-0.059,-0.137,-0.088,-0.01,-0.039
2.488,-0.068,-0.029,0.039,0.049,-0.054,0.005,0.049,-0.059,-0.137,-0.088,-0.01,-0.039
2.49,-0.068,-0.029,0.039,0.049,-0.054,0.005,0.049,-0.059,-0.137,-0.088,-0.01,-0.039
2.492,-0.068,-0.029,0.039,0.049,-0.054,0.005,0.049,-0.059,-0.137,-0.088,-0.01,-0.039
2.494,-0.059,-0.039,0.02,0.049,-0.039,-0.01,0.049,-0.059,-0.146,-0.098,-0.01,-0.049
2.496,-0.059,-0.039,0.02,0.049,-0.039,-0.01,0.049,-0.059,-0.146,-0.098,-0.01,-0.049
2.498,-0.059,-0.039,0.02,0.049,-0.039,-0.01,0.049,-0.059,-0.146,-0.098,-0.01,-0.049
2.5,-0.059,-0.039,0.02,0.049,-0.039,-0.01,0.049,-0.059,-0.146,-0.098,-0.01,-0.049
2.502,-0.068,-0.029,0.039,0.049,-0.054,0.005,0.049,-0.059,-0.146,-0.107,-0.01,-0.049
2.504,-0.068,-0.029,0.039,0.049,-0.054,0.005,0.049,-0.059,-0.146,-0.107,-0.01,-0.049
2.506,-0.068,-0.029,0.039,0.049,-0.054,0.005,0.049,-0.059,-0.146,-0.107,-0.01,-0.049
2.508,-0.068,-0.029,0.039,0.049,-0.054,0.005,0.049,-0.059,-0.146,-0.107,-0.01,-0.049
2.51,-0.068,-0.029,0.039,0.049,-0.054,0.005,0.049,-0.059,-0.137,-0.098,-0.02,-0.059
2.512,-0.068,-0.029,0.039,0.049,-0.054,0.005,0.049,-0.059,-0.137,-0.098,-0.02,-0.059
2.514,-0.068,-0.029,0.039,0.049,-0.054,0.005,0.049,-0.059,-0.137,-0.098,-0.02,-0.059
2.516,-0.068,-0.029,0.039,0.049,-0.054,0.005,0.049,-0.059,-0.137,-0.098,-0.02,-0.059
2.518,-0.068,-0.039,0.029,0.054,-0.049,-0.005,0.049,-0.059,-0.137,-0.098,-0.02,-0.059
2.52,-0.068,-0.039,0.029,0.054,-0.049,-0.005,0.049,-0.059,-0.137,-0.098,-0.02,-0.059
2.522,-0.068,-0.039,0.029,0.054,-0.049,-0.005,0.049,-0.059,-0.137,-0.098,-0.02,-0.059
2.524,-0.068,-0.039,0.029,0.054,-0.049,-0.005,0.049,-0.059,-0.137,-0.098,-0.02,-0.059
2.526,-0.059,-0.029,0.029,0.044,-0.044,0.0,0.049,-0.049,-0.137,-0.098,-0.02,-0.059
2.528,-0.059,-0.029,0.029,0.044,-0.044,0.0,0.049,-0.049,-0.137,-0.098,-0.02,-0.059
2.53,-0.059,-0.029,0.029,0.044,-0.044,0.0,0.049,-0.049,-0.137,-0.098,-0.02,-0.059
2.532,-0.059,-0.029,0.029,0.044,-0.044,0.0,0.049,-0.049,-0.137,-0.098,-0.02,-0.059
2.534,-0.059,-0.02,0.039,0.039,-0.049,0.01,0.049,-0.059,-0.146,-0.098,-0.02,-0.059
2.536,-0.059,-0.02,0.039,0.039,-0.049,0.01,0.049,-0.059,-0.146,-0.098,-0.02,-0.059
2.538,-0.059,-0.02,0.039,0.039,-0.049,0.01,0.049,-0.059,-0.146,-0.098,-0.02,-0.059
2.54,-0.059,-0.02,0.039,0.039,-0.049,0.01,0.049,-0.059,-0.146,-0.098,-0.02,-0.059
2.542,-0.059,-0.029,0.029,0.044,-0.044,0.0,0.049,-0.059,-0.146,-0.088,-0.01,-0.049
2.544,-0.059,-0.029,0.029,0.044,-0.044,0.0,0.049,-0.059,-0.146,-0.088,-0.01,-0.049
2.546,-0.059,-0.029,0.029,0.044,-0.044,0.0,0.049,-0.059,-0.146,-0.088,-0.01,-0.049
2.548,-0.059,-0.029,0.029,0.044,-0.044,0.0,0.049,-0.059,-0.146,-0.088,-0.01,-0.049
2.55,-0.068,-0.029,0.039,0.049,-0.054,0.005,0.049,-0.049,-0.137,-0.098,-0.01,-0.049
2.552,-0.068,-0.029,0.039,0.049,-0.054,0.005,0.049,-0.049,-0.137,-0.098,-0.01,-0.049
2.554,-0.068,-0.029,0.039,0.049,-0.054,0.005,0.049,-0.049,-0.137,-0.098,-0.01,-0.049
2.556,-0.068,-0.029,0.039,0.049,-0.054,0.005,0.049,-0.049,-0.137,-0.098,-0.01,-0.049
2.558,-0.059,-0.029,0.029,0.044,-0.044,0.0,0.049,-0.049,-0.137,-0.098,-0.01,-0.059
2.56,-0.059,-0.029,0.029,0.044,-0.044,0.0,0.049,-0.049,-0.137,-0.098,-0.01,-0.059
2.562,-0.059,-0.029,0.029,0.044,-0.044,0.0,0.049,-0.049,-0.137,-0.098,-0.01,-0.059
2.564,-0.059,-0.029,0.029,0.044,-0.044,0.0,0.049,-0.049,-0.137,-0.098,-0.01,-0.059
2.566,-0.068,-0.029,0.039,0.049,-0.054,0.005,0.059,-0.049,-0.137,-0.098,-0.02,-0.059
2.568,-0.068,-0.029,0.039,0.049,-0.054,0.005,0.059,-0.049,-0.137,-0.098,-0.02,-0.059
2.57,-0.068,-0.029,0.039,0.049,-0.054,0.005,0.059,-0.049,-0.137,-0.098,-0.02,-0.059
2.572,-0.068,-0.029,0.039,0.049,-0.054,0.005,0.059,-0.049,-0.137,-0.098,-0.02,-0.059
2.574,-0.068,-0.039,0.029,0.054,-0.049,-0.005,0.068,-0.039,-0.137,-0.098,-0.02,-0.059
2.576,-0.068,-0.039,0.029,0.054,-0.049,-0.005,0.068,-0.039,-0.137,-0.098,-0.02,-0.059
2.578,-0.068,-0.039,0.029,0.054,-0.049,-0.005,0.068,-0.039,-0.137,-0.098,-0.02,-0.059
2.58,-0.068,-0.039,0.029,0.054,-0.049,-0.005,0.068,-0.039,-0.137,-0.098,-0.02,-0.059
2.582,-0.059,-0.029,0.029,0.044,-0.044,0.0,0.059,-0.049,-0.137,-0.098,-0.02,-0.059
2.584,-0.059,-0.029,0.029,0.044,-0.044,0.0,0.059,-0.049,-0.137,-0.098,-0.02,-0.059
2.586,-0.059,-0.029,0.029,0.044,-0.044,0.0,0.059,-0.049,-0.137,-0.098,-0.02,-0.059
2.588,-0.059,-0.029,0.029,0.044,-0.044,0.0,0.059,-0.049,-0.137,-0.098,-0.02,-0.059
2.59,-0.068,-0.029,0.039,0.049,-0.054,0.005,0.068,-0.039,-0.137,-0.098,-0.02,-0.059
2.592,-0.068,-0.029,0.039,0.049,-0.054,0.005,0.068,-0.039,-0.137,-0.098,-0.02,-0.059
2.594,-0.068,-0.029,0.039,0.049,-0.054,0.005,0.068,-0.039,-0.137,-0.098,-0.02,-0.059
2.596,-0.068,-0.029,0.039,0.049,-0.054,0.005,0.068,-0.039,-0.137,-0.098,-0.02,-0.059
2.598,-0.059,-0.029,0.029,0.044,-0.044,0.0,0.059,-0.049,-0.137,-0.098,-0.02,-0.068
2.6,-0.059,-0.029,0.029,0.044,-0.044,0.0,0.059,-0.049,-0.137,-0.098,-0.02,-0.068
2.602,-0.059,-0.029,0.029,0.044,-0.044,0.0,0.059,-0.049,-0.137,-0.098,-0.02,-0.068
2.604,-0.059,-0.029,0.029,0.044,-0.044,0.0,0.059,-0.049,-0.137,-0.098,-0.02,-0.068
2.606,-0.049,-0.02,0.029,0.034,-0.039,0.005,0.059,-0.049,-0.127,-0.098,-0.02,-0.059
2.608,-0.049,-0.02,0.029,0.034,-0.039,0.005,0.059,-0.049,-0.127,-0.098,-0.02,-0.059
2.61,-0.049,-0.02,0.029,0.034,-0.039,0.005,0.059,-0.049,-0.127,-0.098,-0.02,-0.059
2.612,-0.049,-0.02,0.029,0.034,-0.039,0.005,0.059,-0.049,-0.127,-0.098,-0.02,-0.059
2.614,-0.059,-0.029,0.029,0.044,-0.044,0.0,0.059,-0.039,-0.127,-0.098,-0.02,-0.059
2.616,-0.059,-0.029,0.029,0.044,-0.044,0.0,0.059,-0.039,-0.127,-0.098,-0.02,-0.059
2.618,-0.059,-0.029,0.029,0.044,-0.044,0.0,0.059,-0.039,-0.127,-0.098,-0.02,-0.059
2.62,-0.059,-0.029,0.029,0.044,-0.044,0.0,0.059,-0.039,-0.127,-0.098,-0.02,-0.059
2.622,-0.049,-0.029,0.02,0.039,-0.034,-0.005,0.059,-0.039,-0.137,-0.107,-0.02,-0.059
2.624,-0.049,-0.029,0.02,0.039,-0.034,-0.005,0.059,-0.039,-0.137,-0.107,-0.02,-0.059
2.626,-0.049,-0.029,0.02,0.039,-0.034,-0.005,0.059,-0.039,-0.137,-0.107,-0.02,-0.059
2.628,-0.049,-0.029,0.02,0.039,-0.034,-0.005,0.059,-0.039,-0.137,-0.107,-0.02,-0.059
2.63,-0.059,-0.039,0.02,0.049,-0.039,-0.01,0.059,-0.029,-0.127,-0.098,-0.029,-0.068
2.632,-0.059,-0.039,0.02,0.049,-0.039,-0.01,0.059,-0.029,-0.127,-0.098,-0.029,-0.068
2.634,-0.059,-0.039,0.02,0.049,-0.039,-0.01,0.059,-0.029,-0.127,-0.098,-0.029,-0.068
2.636,-0.059,-0.039,0.02,0.049,-0.039,-0.01,0.059,-0.029,-0.127,-0.098,-0.029,-0.068
2.638,-0.059,-0.029,0.029,0.044,-0.044,0.0,0.068,-0.02,-0.117,-0.098,-0.02,-0.059
2.64,-0.059,-0.029,0.029,0.044,-0.044,0.0,0.068,-0.02,-0.117,-0.098,-0.02,-0.059
2.642,-0.059,-0.029,0.029,0.044,-0.044,0.0,0.068,-0.02,-0.117,-0.098,-0.02,-0.059
2.644,-0.059,-0.029,0.029,0.044,-0.044,0.0,0.068,-0.02,-0.117,-0.098,-0.02,-0.059
2.646,-0.059,-0.029,0.029,0.044,-0.044,0.0,0.068,-0.029,-0.117,-0.098,-0.02,-0.059
2.648,-0.059,-0.029,0.029,0.044,-0.044,0.0,0.068,-0.029,-0.117,-0.098,-0.02,-0.059
2.65,-0.059,-0.029,0.029,0.044,-0.044,0.0,0.068,-0.029,-0.117,-0.098,-0.02,-0.059
2.652,-0.059,-0.029,0.029,0.044,-0.044,0.0,0.068,-0.029,-0.117,-0.098,-0.02,-0.059
2.654,-0.059,-0.029,0.029,0.044,-0.044,0.0,0.068,-0.029,-0.117,-0.107,-0.029,-0.059
2.656,-0.059,-0.029,0.029,0.044,-0.044,0.0,0.068,-0.029,-0.117,-0.107,-0.029,-0.059
2.658,-0.059,-0.029,0.029,0.044,-0.044,0.0,0.068,-0.029,-0.117,-0.107,-0.029,-0.059
2.66,-0.059,-0.029,0.029,0.044,-0.044,0.0,0.068,-0.029,-0.117,-0.107,-0.029,-0.059
2.662,-0.059,-0.029,0.029,0.044,-0.044,0.0,0.068,-0.02,-0.117,-0.107,-0.029,-0.068
2.664,-0.059,-0.029,0.029,0.044,-0.044,0.0,0.068,-0.02,-0.117,-0.107,-0.029,-0.068
2.666,-0.059,-0.029,0.029,0.044,-0.044,0.0,0.068,-0.02,-0.117,-0.107,-0.029,-0.068
2.668,-0.059,-0.029,0.029,0.044,-0.044,0.0,0.068,-0.02,-0.117,-0.107,-0.029,-0.068
2.67,-0.049,-0.02,0.029,0.034,-0.039,0.005,0.059,-0.02,-0.117,-0.098,-0.029,-0.059
2.672,-0.049,-0.02,0.029,0.034,-0.039,0.005,0.059,-0.02,-0.117,-0.098,-0.029,-0.059
2.674,-0.049,-0.02,0.029,0.034,-0.039,0.005,0.059,-0.02,-0.117,-0.098,-0.029,-0.059
2.676,-0.049,-0.02,0.029,0.034,-0.039,0.005,0.059,-0.02,-0.117,-0.098,-0.029,-0.059
2.678,-0.049,-0.029,0.02,0.039,-0.034,-0.005,0.059,-0.01,-0.107,-0.088,-0.02,-0.059
2.68,-0.049,-0.029,0.02,0.039,-0.034,-0.005,0.059,-0.01,-0.107,-0.088,-0.02,-0.059
2.682,-0.049,-0.029,0.02,0.039,-0.034,-0.005,0.059,-0.01,-0.107,-0.088,-0.02,-0.059
2.684,-0.049,-0.029,0.02,0.039,-0.034,-0.005,0.059,-0.01,-0.107,-0.088,-0.02,-0.059
2.686,-0.049,-0.029,0.02,0.039,-0.034,-0.005,0.059,-0.02,-0.107,-0.093,-0.024,-0.063
2.688,-0.049,-0.029,0.02,0.039,-0.034,-0.005,0.059,-0.02,-0.107,-0.098,-0.029,-0.068
2.69,-0.049,-0.029,0.02,0.039,-0.034,-0.005,0.059,-0.02,-0.107,-0.102,-0.034,-0.073
2.692,-0.049,-0.029,0.02,0.039,-0.034,-0.005,0.059,-0.02,-0.107,-0.107,-0.039,-0.078
2.694,-0.059,-0.029,0.029,0.044,-0.044,0.0,0.068,-0.02,-0.098,-0.107,-0.039,-0.078
2.696,-0.059,-0.029,0.029,0.044,-0.044,0.0,0.068,-0.02,-0.098,-0.107,-0.039,-0.078
2.698,-0.059,-0.029,0.029,0.044,-0.044,0.0,0.068,-0.02,-0.098,-0.107,-0.039,-0.078
2.7,-0.059,-0.029,0.029,0.044,-0.044,0.0,0.068,-0.02,-0.098,-0.107,-0.039,-0.078
2.702,-0.049,-0.029,0.02,0.039,-0.034,-0.005,0.068,-0.02,-0.088,-0.098,-0.029,-0.068
2.704,-0.049,-0.029,0.02,0.039,-0.034,-0.005,0.068,-0.02,-0.088,-0.098,-0.029,-0.068
2.706,-0.049,-0.029,0.02,0.039,-0.034,-0.005,0.068,-0.02,-0.088,-0.098,-0.029,-0.068
2.708,-0.049,-0.029,0.02,0.039,-0.034,-0.005,0.068,-0.02,-0.088,-0.098,-0.029,-0.068
2.71,-0.059,-0.029,0.029,0.044,-0.044,0.0,0.068,-0.01,-0.078,-0.107,-0.039,-0.059
2.712,-0.059,-0.029,0.029,0.044,-0.044,0.0,0.068,-0.01,-0.078,-0.107,-0.039,-0.059
2.714,-0.059,-0.029,0.029,0.044,-0.044,0.0,0.068,-0.01,-0.078,-0.107,-0.039,-0.059
2.716,-0.059,-0.029,0.029,0.044,-0.044,0.0,0.068,-0.01,-0.078,-0.107,-0.039,-0.059
2.718,-0.054,-0.024,0.029,0.039,-0.044,0.0,0.078,0.0,-0.068,-0.107,-0.039,-0.068
2.72,-0.049,-0.02,0.029,0.034,-0.039,0.005,0.078,0.0,-0.068,-0.107,-0.039,-0.068
2.722,-0.044,-0.015,0.029,0.029,-0.039,0.005,0.078,0.0,-0.068,-0.107,-0.039,-0.068
2.724,-0.039,-0.01,0.029,0.024,-0.034,0.01,0.078,0.0,-0.068,-0.107,-0.039,-0.068
2.726,-0.039,0.005,0.044,0.02,-0.044,0.024,0.093,0.01,-0.054,-0.093,-0.034,-0.063
2.728,-0.039,0.01,0.049,0.015,-0.044,0.029,0.098,0.01,-0.049,-0.088,-0.029,-0.059
2.73,-0.039,0.015,0.054,0.015,-0.049,0.034,0.102,0.01,-0.044,-0.083,-0.024,-0.054
2.732,-0.039,0.02,0.059,0.01,-0.049,0.039,0.107,0.01,-0.039,-0.078,-0.02,-0.049
2.734,-0.029,0.029,0.059,0.0,-0.044,0.044,0.122,0.02,-0.034,-0.068,-0.01,-0.039
2.736,-0.029,0.039,0.068,-0.005,-0.049,0.054,0.127,0.02,-0.029,-0.068,-0.01,-0.039
2.738,-0.029,0.049,0.078,-0.01,-0.054,0.063,0.132,0.02,-0.024,-0.068,-0.01,-0.039
2.74,-0.029,0.059,0.088,-0.015,-0.059,0.073,0.137,0.02,-0.02,-0.068,-0.01,-0.039
2.742,-0.034,0.068,0.102,-0.015,-0.068,0.083,0.146,0.024,-0.015,-0.059,0.0,-0.029
2.744,-0.034,0.073,0.107,-0.02,-0.073,0.088,0.151,0.034,-0.01,-0.059,0.0,-0.029
2.746,-0.034,0.073,0.107,-0.02,-0.073,0.088,0.161,0.044,0.005,-0.054,0.005,-0.029
2.748,-0.034,0.073,0.107,-0.02,-0.073,0.088,0.161,0.054,0.01,-0.054,0.01,-0.024
2.75,-0.034,0.083,0.117,-0.024,-0.078,0.098,0.166,0.049,0.015,-0.054,0.0,-0.029
2.752,-0.034,0.088,0.122,-0.024,-0.078,0.102,0.166,0.049,0.015,-0.054,0.0,-0.029
2.754,-0.024,0.093,0.117,-0.034,-0.073,0.102,0.166,0.049,0.015,-0.054,0.005,-0.029
2.756,-0.024,0.102,0.127,-0.039,-0.078,0.112,0.166,0.049,0.024,-0.049,0.005,-0.029
2.758,-0.015,0.107,0.122,-0.044,-0.068,0.112,0.166,0.054,0.029,-0.034,0.01,-0.015
2.76,-0.005,0.112,0.117,-0.054,-0.063,0.112,0.151,0.059,0.034,-0.029,0.02,-0.015
2.762,0.0,0.107,0.107,-0.054,-0.054,0.107,0.142,0.063,0.044,-0.024,0.024,-0.015
2.764,0.005,0.102,0.098,-0.054,-0.049,0.098,0.137,0.063,0.049,-0.02,0.029,-0.015
2.766,0.015,0.112,0.098,-0.063,-0.044,0.102,0.112,0.054,0.039,-0.029,0.024,-0.01
2.768,0.015,0.112,0.098,-0.063,-0.044,0.102,0.093,0.044,0.034,-0.029,0.024,-0.01
2.77,0.015,0.098,0.083,-0.054,-0.034,0.088,0.073,0.034,0.024,-0.034,0.024,-0.01
2.772,0.02,0.098,0.078,-0.059,-0.029,0.088,0.044,0.02,0.015,-0.039,0.015,-0.01
2.774,0.01,0.093,0.083,-0.049,-0.039,0.088,0.039,0.01,0.015,-0.044,0.01,-0.015
2.776,0.0,0.068,0.068,-0.034,-0.034,0.068,0.039,0.0,0.0,-0.054,0.005,-0.015
2.778,-0.005,0.044,0.049,-0.02,-0.029,0.044,0.039,-0.005,-0.01,-0.059,0.0,-0.02
2.78,-0.005,0.034,0.039,-0.015,-0.024,0.034,0.029,-0.01,-0.02,-0.068,-0.005,-0.024
2.782,-0.02,0.034,0.054,-0.005,-0.039,0.044,0.029,-0.015,-0.029,-0.078,-0.02,-0.039
2.784,-0.02,0.024,0.044,0.0,-0.034,0.034,0.029,-0.015,-0.039,-0.088,-0.02,-0.039
2.786,-0.02,0.029,0.049,-0.005,-0.034,0.039,0.029,-0.02,-0.044,-0.098,-0.02,-0.039
2.788,-0.02,0.039,0.059,-0.01,-0.039,0.049,0.024,-0.024,-0.044,-0.098,-0.02,-0.039
2.79,0.0,0.049,0.049,-0.024,-0.024,0.049,0.02,-0.024,-0.044,-0.093,-0.029,-0.039
2.792,0.0,0.049,0.049,-0.024,-0.024,0.049,0.015,-0.024,-0.039,-0.098,-0.024,-0.039
2.794,0.005,0.049,0.044,-0.024,-0.02,0.044,0.01,-0.024,-0.039,-0.102,-0.024,-0.034
2.796,0.01,0.049,0.039,-0.029,-0.015,0.044,0.0,-0.034,-0.039,-0.107,-0.029,-0.034
2.798,0.015,0.034,0.02,-0.024,-0.005,0.024,0.0,-0.024,-0.039,-0.102,-0.02,-0.024
2.8,0.02,0.029,0.01,-0.024,0.005,0.02,-0.005,-0.02,-0.039,-0.098,-0.015,-0.02
2.802,0.02,0.029,0.01,-0.024,0.005,0.02,-0.01,-0.02,-0.039,-0.093,-0.01,-0.02
2.804,0.02,0.029,0.01,-0.024,0.005,0.02,-0.01,-0.02,-0.039,-0.088,-0.01,-0.01
2.806,0.02,0.024,0.005,-0.02,0.005,0.015,-0.015,-0.034,-0.059,-0.098,-0.015,-0.024
2.808,0.01,0.02,0.01,-0.015,0.0,0.015,-0.015,-0.034,-0.063,-0.107,-0.029,-0.029
2.81,0.0,0.005,0.005,0.0,-0.005,0.005,-0.01,-0.044,-0.068,-0.112,-0.039,-0.044
2.812,0.0,-0.01,-0.01,0.005,0.005,-0.01,-0.01,-0.044,-0.073,-0.122,-0.059,-0.059
2.814,-0.024,-0.029,-0.005,0.029,-0.01,-0.02,0.005,-0.034,-0.063,-0.122,-0.059,-0.059
2.816,-0.029,-0.034,-0.005,0.034,-0.015,-0.02,0.01,-0.034,-0.063,-0.127,-0.063,-0.063
2.818,-0.039,-0.034,0.005,0.039,-0.024,-0.015,0.02,-0.029,-0.063,-0.127,-0.063,-0.063
2.82,-0.054,-0.044,0.01,0.049,-0.034,-0.02,0.024,-0.024,-0.059,-0.127,-0.063,-0.063
2.822,-0.054,-0.044,0.01,0.049,-0.034,-0.02,0.034,-0.024,-0.059,-0.117,-0.063,-0.059
2.824,-0.059,-0.049,0.01,0.054,-0.034,-0.02,0.034,-0.024,-0.063,-0.117,-0.073,-0.063
2.826,-0.063,-0.063,0.0,0.063,-0.034,-0.034,0.039,-0.024,-0.063,-0.122,-0.073,-0.068
2.828,-0.068,-0.068,0.0,0.068,-0.034,-0.034,0.044,-0.024,-0.063,-0.122,-0.073,-0.078
2.83,-0.073,-0.059,0.015,0.068,-0.044,-0.024,0.039,-0.015,-0.063,-0.132,-0.073,-0.093
2.832,-0.073,-0.073,0.0,0.073,-0.039,-0.039,0.039,-0.015,-0.073,-0.142,-0.073,-0.093
2.834,-0.073,-0.073,0.0,0.073,-0.039,-0.039,0.039,-0.015,-0.078,-0.146,-0.078,-0.098
2.836,-0.073,-0.073,0.0,0.073,-0.039,-0.039,0.039,-0.015,-0.078,-0.151,-0.083,-0.107
2.838,-0.073,-0.063,0.01,0.068,-0.044,-0.029,0.034,-0.024,-0.078,-0.151,-0.088,-0.098
2.84,-0.073,-0.063,0.01,0.068,-0.044,-0.029,0.029,-0.024,-0.078,-0.151,-0.093,-0.098
2.842,-0.078,-0.059,0.02,0.068,-0.049,-0.02,0.02,-0.029,-0.078,-0.156,-0.098,-0.098
2.844,-0.078,-0.059,0.02,0.068,-0.049,-0.02,0.015,-0.029,-0.083,-0.156,-0.098,-0.098
2.846,-0.088,-0.073,0.015,0.083,-0.054,-0.029,0.034,-0.024,-0.078,-0.146,-0.098,-0.098
2.848,-0.088,-0.078,0.01,0.083,-0.049,-0.034,0.039,-0.024,-0.078,-0.146,-0.098,-0.093
2.85,-0.088,-0.078,0.01,0.083,-0.049,-0.034,0.044,-0.02,-0.073,-0.146,-0.098,-0.093
2.852,-0.088,-0.083,0.005,0.088,-0.049,-0.039,0.049,-0.015,-0.073,-0.142,-0.098,-0.093
2.854,-0.078,-0.068,0.01,0.073,-0.044,-0.029,0.044,-0.01,-0.078,-0.151,-0.098,-0.102
2.856,-0.073,-0.063,0.01,0.068,-0.044,-0.029,0.039,-0.01,-0.078,-0.151,-0.098,-0.102
2.858,-0.073,-0.063,0.01,0.068,-0.044,-0.029,0.034,-0.01,-0.078,-0.151,-0.098,-0.102
2.86,-0.073,-0.059,0.015,0.068,-0.044,-0.024,0.029,-0.015,-0.078,-0.151,-0.098,-0.102
2.862,-0.083,-0.068,0.015,0.078,-0.049,-0.029,0.039,-0.015,-0.083,-0.151,-0.098,-0.102
2.864,-0.083,-0.068,0.015,0.078,-0.049,-0.029,0.044,-0.01,-0.083,-0.156,-0.098,-0.102
2.866,-0.083,-0.068,0.015,0.078,-0.049,-0.029,0.044,-0.01,-0.083,-0.156,-0.102,-0.102
2.868,-0.088,-0.063,0.024,0.078,-0.059,-0.02,0.039,-0.01,-0.083,-0.156,-0.102,-0.102
2.87,-0.078,-0.059,0.02,0.068,-0.049,-0.02,0.039,-0.01,-0.073,-0.156,-0.093,-0.093
2.872,-0.078,-0.059,0.02,0.068,-0.049,-0.02,0.044,-0.01,-0.073,-0.156,-0.088,-0.093
2.874,-0.073,-0.059,0.015,0.068,-0.044,-0.024,0.044,-0.005,-0.063,-0.151,-0.083,-0.093
2.876,-0.073,-0.059,0.015,0.068,-0.044,-0.024,0.044,-0.005,-0.059,-0.146,-0.078,-0.088
2.878,-0.083,-0.059,0.024,0.073,-0.054,-0.02,0.039,0.005,-0.059,-0.151,-0.088,-0.088
2.88,-0.088,-0.063,0.024,0.078,-0.059,-0.02,0.039,0.005,-0.054,-0.151,-0.088,-0.088
2.882,-0.088,-0.063,0.024,0.078,-0.059,-0.02,0.039,0.005,-0.054,-0.156,-0.088,-0.088
2.884,-0.088,-0.063,0.024,0.078,-0.059,-0.02,0.044,0.005,-0.054,-0.156,-0.088,-0.088
2.886,-0.078,-0.063,0.015,0.073,-0.049,-0.024,0.039,0.01,-0.059,-0.156,-0.098,-0.098
2.888,-0.078,-0.059,0.02,0.068,-0.049,-0.02,0.034,0.01,-0.059,-0.156,-0.098,-0.098
2.89,-0.078,-0.059,0.02,0.068,-0.049,-0.02,0.029,0.01,-0.059,-0.156,-0.102,-0.098
2.892,-0.078,-0.059,0.02,0.068,-0.049,-0.02,0.024,0.015,-0.049,-0.156,-0.102,-0.098
2.894,-0.102,-0.068,0.034,0.088,-0.068,-0.02,0.049,0.044,-0.034,-0.142,-0.102,-0.098
2.896,-0.107,-0.083,0.024,0.098,-0.068,-0.029,0.073,0.063,-0.024,-0.151,-0.102,-0.107
2.898,-0.102,-0.078,0.024,0.093,-0.063,-0.029,0.107,0.107,0.0,-0.151,-0.107,-0.117
2.9,-0.098,-0.049,0.049,0.073,-0.073,0.0,0.146,0.151,0.029,-0.151,-0.112,-0.127
2.902,-0.107,-0.044,0.063,0.078,-0.088,0.01,0.171,0.181,0.059,-0.142,-0.122,-0.132
2.904,-0.122,-0.063,0.059,0.093,-0.093,-0.005,0.185,0.2,0.078,-0.127,-0.122,-0.132
2.906,-0.142,-0.063,0.078,0.102,-0.112,0.005,0.2,0.215,0.107,-0.117,-0.117,-0.132
