time,I,II,III,aVR,aVL,aVF,V1,V2,V3,V4,V5,V6
0.0,0.0016015923102578845,0.0055726636548699,0.003971071344612015,-0.0035322789308427317,-0.0011847395171770653,0.0047170184480197965,-0.0033128827239580897,0.0042782260342505134,0.008249297378862529,0.00899524448227031,0.007174255965127784,0.005879818344508399
0.002,0.012152986498172369,0.04000190949211154,0.027826983373250708,-0.02574915858152476,-0.00783699843753917,0.03358615701906393,-0.0231415633064366,0.029775102192949314,0.057624025186888486,0.0628347083154901,0.05022420936969906,0.041182141587713904
0.004,0.042797814864222614,0.13045646843227213,0.08752733780260263,-0.08575374494665994,-0.022364761469190007,0.10811850641584994,-0.07269153946180189,0.09285554195184201,0.1807335917267762,0.19707652289355912,0.15805651890288447,0.12969672658405523
0.006,0.09341547518405888,0.25852424976837085,0.16480329514505396,-0.17451924115958678,-0.03570487979084177,0.21022412095042856,-0.13716150596214327,0.17266273032898402,0.33941375687809183,0.37023496350517554,0.2982130044751933,0.24502920249349303
0.008,0.14191782418814314,0.3532072225138871,0.21099810887481274,-0.24565632767466436,-0.034594830415714,0.28027309771106684,-0.17760463884548974,0.21635612863086087,0.43365734076186946,0.4739332071461782,0.38322609460247187,0.31564391145791953
0.01,0.15844914755665213,0.36207015726896147,0.20369288810088684,-0.25789095756668334,-0.022719921919367177,0.2807641348721859,-0.17715413010106218,0.20031170969674156,0.4176661092626713,0.45916529554307023,0.3714502782987334,0.3071512403674826
0.012,0.13212267294745875,0.3058809027600756,0.17418456886844422,-0.21623614728635565,-0.021089510849052834,0.2377843929608019,-0.15916418555235914,0.15827233777506777,0.3516168329210798,0.39081497254975706,0.31465943296363197,0.2611834437613798
0.014,0.08318106236945316,0.24899150723296185,0.16605852675542107,-0.16342648779913374,-0.04143182761354708,0.2056083396890055,-0.15076217638818984,0.137574757579097,0.3177929576943265,0.3559206822400808,0.2860386379573661,0.23676728505941275
0.016,0.051849466661902266,0.23440713230852708,0.18213647307131056,-0.14132942165201293,-0.06522129374130325,0.2072288612810634,-0.15287800246306588,0.14886336493734045,0.3321648138334813,0.3711730998404747,0.3005905441901005,0.2459977114563545
0.018,0.06751018601437234,0.25451268525277787,0.18606054843524136,-0.16038820744157978,-0.0595244738926029,0.22014254854541404,-0.15321174956485867,0.1672731336638456,0.35408459733539643,0.395071707993553,0.3217221864497481,0.2603487145178501
0.02,0.11656913519176422,0.2744503408897228,0.15708342577747206,-0.19538503984988367,-0.020528648206706464,0.21574221798977367,-0.14715714197267502,0.17080553827165562,0.3526873020015283,0.3954125008609793,0.32051119389938143,0.2584482774370049
0.022,0.15125226834648953,0.2735628007692709,0.122124633993346,-0.21146285807402798,0.014233344708962259,0.19704244066885862,-0.13717162848527242,0.16320469234097548,0.3372162737896287,0.37958983189949985,0.3048407698483443,0.24726570393992536
0.024,0.14285910289057918,0.2610331224954389,0.11843151379927296,-0.19946436726260128,0.011351946343149209,0.1882485905155314,-0.12653390374771561,0.1591067587659811,0.3288579367873219,0.36853058977153635,0.2956192224058969,0.24179298369717708
0.026,0.11065271770749087,0.2562814821987553,0.14585525633774174,-0.18008868895010904,-0.019183013624503847,0.19983298564268953,-0.12055007407331128,0.16106081137161318,0.32927594511994523,0.36663050743253145,0.29670528921242484,0.24320025636006048
0.028,0.08973059639077706,0.26355305969366394,0.17380112241436863,-0.17355071226030916,-0.04377625618458754,0.21815751180279702,-0.12428967828306349,0.15968647698603142,0.32534148891995635,0.3641615452300745,0.29637900122614647,0.2422391890413049
0.03,0.09237626709938757,0.27192459831347776,0.17941789851477308,-0.17983919170606943,-0.0449166458456921,0.22553785453824596,-0.13435366779960786,0.15013621752377693,0.3111954190663216,0.355057688749648,0.2876585303673722,0.23453140223321023
0.032,0.10985517224770464,0.2731873791855426,0.16330319943539995,-0.1898320052895939,-0.02788827174340464,0.2181448806251312,-0.13905723184752278,0.13902086337820382,0.29434796630807686,0.34222699989560146,0.27608855221315753,0.2248618924795795
0.034,0.12946901876652314,0.26631621043396736,0.1370467467576798,-0.19682049946666375,-0.004949842501910837,0.2013800184351895,-0.1318223208809045,0.1335032310729949,0.2816358142025475,0.3289389271284928,0.2672574599088179,0.21689784150441188
0.036,0.13677686035249317,0.24789785948047824,0.1116294989422351,-0.19199861298040413,0.01126754878455196,0.1788546640429106,-0.11965682520468586,0.13079084858988443,0.26943617230898353,0.31355843361512353,0.25660790157720115,0.20617800256979954
0.038,0.11857233652269365,0.21444798531015855,0.09662419409870553,-0.16639499934084898,0.009252903596852735,0.15393883031584865,-0.11209942868330473,0.12475838074435942,0.2532960690017532,0.2953044242439996,0.23883641917777373,0.1888533851405128
0.04,0.07972249509025876,0.17544344298643402,0.09634931584234405,-0.12657060717122406,-0.010388572014623279,0.13423437644364347,-0.10715243551464473,0.11705153114363984,0.23787008259582731,0.27854775643607277,0.21938055842219287,0.17091898938162578
0.042,0.047637238969269934,0.15203727259271743,0.10450804151224177,-0.09731958401202188,-0.03012507379739116,0.12700509509131383,-0.09519798714508557,0.1138951241760299,0.22919415478913396,0.26717402241093996,0.2076938602782577,0.16181765081146582
0.044,0.047438513452163766,0.16039353662978548,0.11259667817861659,-0.10054837668069329,-0.03331539135340607,0.13527018815670266,-0.07144927816152914,0.11762510982116942,0.22603795114975758,0.26089143510812723,0.20596528494881494,0.16419719634633578
0.046,0.07734465181840465,0.1986648132307712,0.12102718202973624,-0.13500102058871147,-0.022204603437976637,0.1583236197709439,-0.041128447146030415,0.12598580481004326,0.2246825459171226,0.2586581286917557,0.20943336410665322,0.1731553019591913
0.048,0.1127860518937042,0.24357851692283147,0.1309427662015901,-0.17619274027530402,-0.010323628979202292,0.1858187580640413,-0.018510598396002945,0.13248624205514745,0.22177150269695614,0.25678909623397195,0.20980928592725523,0.1789560116558563
0.05,0.12819558733989347,0.26113150515858524,0.13329177211332788,-0.19344388925744652,-0.005186745834605694,0.19631907300479376,-0.01795999269136929,0.12806648211493418,0.2112599050608818,0.24613919206906199,0.19876770115315143,0.17175314305805556
0.052,0.11450687521438876,0.2357320727550186,0.12126955762802397,-0.17382308153516193,-0.006612264237209728,0.1780326829895047,-0.03751849464983034,0.11138530393610671,0.19061032697239935,0.2228027129157638,0.17665824674569028,0.151657688519194
0.054,0.08167922782622347,0.18653163835104,0.1044167772983723,-0.13195250371573758,-0.0138687012800306,0.1448881553658047,-0.05651743575967391,0.09308862531448292,0.16733636044594052,0.1962523104149612,0.15395772552056217,0.13007347969520014
0.056,0.044413378738698835,0.1409187266410894,0.09593098984910849,-0.08972426960666036,-0.026827353390904092,0.11716915171840424,-0.056176009778467706,0.0822777699693311,0.14948365803174055,0.17664338863303902,0.1382341151455257,0.1148691699895774
0.058,0.008181537483969433,0.10377977364134955,0.09534806291459995,-0.05320035154844424,-0.0437190601767192,0.09742825385081033,-0.03702162732807461,0.07656468324033482,0.13610983822493336,0.16259996542410643,0.1265678485248229,0.10207461782008322
0.06,-0.023957373604452444,0.07051929965036616,0.09468609549039946,-0.021498209615375016,-0.05976439399982531,0.08005587881136125,-0.012670983533621654,0.07203057103935659,0.12428851693457182,0.14976343492134453,0.1150625722315616,0.08799586163551733
0.062,-0.03988735084423522,0.053006340959835724,0.09328038927925622,-0.005479728458086133,-0.06805737063743324,0.07109275094120948,0.006517903387155304,0.07288014104917229,0.11728245062525819,0.14120893536236837,0.10735965397865704,0.0796792426618143
0.064,-0.028257859703072253,0.06919058164884821,0.09758780344364482,-0.018930109417310118,-0.06500244661552036,0.08226819394167588,0.019171433771800923,0.08251579203999274,0.11912687610065395,0.14120925039713705,0.10839784294213135,0.08514357214268879
0.066,0.005504286621792824,0.11480851258438222,0.10907945197201134,-0.05746038962634431,-0.0536666575646545,0.11124200258375092,0.026816680001827634,0.09226982523671401,0.12549466664380945,0.1452848832625758,0.1150449184566895,0.09915548401099222
0.068,0.04178784550197202,0.15926717552334932,0.11728932119309962,-0.09715323215562678,-0.03918463570871079,0.13726745979691152,0.027936971748881836,0.0882188521403012,0.12469971097098045,0.14243737659064315,0.11667064070730225,0.10597973525966797
0.07,0.0616192476256752,0.16923788438888865,0.10797068247084311,-0.11249152212019427,-0.02440154892153296,0.1373121661615006,0.019908424969084123,0.06680929161543306,0.10845465362152895,0.12538958392701172,0.10395375823174928,0.09469538700991259
0.072,0.05774796329771252,0.13733136645755378,0.08045613570618743,-0.0957762546520827,-0.0124009476308721,0.10788676350593156,0.005627391837768409,0.0382148612381791,0.08080859920036709,0.097485530284862,0.07827459553171465,0.06900610369208446
0.074,0.035495146065753186,0.08905465957613869,0.05438077865900978,-0.061531653709791745,-0.010033017890506373,0.07111022945162768,-0.004410334614443783,0.01650145378392732,0.055449876370437766,0.07093255501292901,0.05297129598171128,0.043888429642585935
0.076,0.003247597068596246,0.0546720534407016,0.05177970100616606,-0.028595303719284957,-0.024503546744690696,0.052555006280597304,-0.0010981926753153507,0.008791566098558357,0.04295497167646923,0.056395162715083255,0.04091941157131865,0.03219753525406655
0.078,-0.034302908645576426,0.03582973775204462,0.07019819661581905,-0.0004061423700382593,-0.05274262968425342,0.05202955133031805,0.01116754289230497,0.01011676227126201,0.040223824253639254,0.052232468646307276,0.03995307360560373,0.03185000663836825
0.08,-0.06717072526298647,0.014999659320711978,0.0822229663681769,0.026349393897377647,-0.07561340062249666,0.04767467783287488,0.018721759329682345,0.009222896532261998,0.035772988029198885,0.04824749418046904,0.037310407846900984,0.030300444605757742
0.082,-0.07356511784090129,-0.004710386779326834,0.06881073284214649,0.039127886916804855,-0.07186915714817138,0.03166355270742592,0.01766146558915278,0.003202664227044755,0.02668117306127034,0.04186337236237556,0.02923661392617,0.024136185570062856
0.084,-0.03827625946625572,0.005448060441967252,0.043537087862788544,0.016143604433939498,-0.04078986751763957,0.02466728812959054,0.01834447623470453,0.0009112292177194275,0.022544171183087196,0.04161960667939556,0.02596231334413208,0.024622374967137196
0.086,0.02358438519112719,0.05630648395020727,0.03270718984479985,-0.04024571645082059,-0.003986255660627713,0.04480646674744937,0.026907960323264802,0.007117959473754216,0.028617345994029448,0.05030510063000547,0.03371791312675671,0.03811356468270235
0.088,0.0713353024076755,0.11365567905285945,0.042685312656830066,-0.09244736570472595,0.014457519328966807,0.0782831215268423,0.03468829663906153,0.013143757474159232,0.03540602535977306,0.056481588739533364,0.04307215453599827,0.052340075577681555
0.09,0.0739382274459296,0.13217647610990996,0.05876488950796397,-0.10232430107348023,0.006785004344544657,0.09537882187755793,0.03193675810121194,0.009629316349965365,0.03179124132235252,0.04996267565555723,0.04177210414070036,0.05163976350255602
0.092,0.04264413934686008,0.1072138165598029,0.06501103018765478,-0.07346202401007565,-0.012449341172197242,0.08567512311193654,0.02146877072793073,-0.0008465793684885558,0.019824620436360442,0.03554789650358507,0.030592151492061667,0.037686559710501506
0.094,0.01850166481044248,0.07534117327763444,0.057209214411494416,-0.04489038767674251,-0.020303513294019575,0.06516708658691715,0.013482351538454288,-0.009293180063419892,0.010054356850211313,0.02509620751950765,0.02017866373262665,0.02557275654466089
0.096,0.01912621453260499,0.06246906512856676,0.04368139125080383,-0.03835989602406535,-0.012814161162642744,0.05128956920389909,0.013098276704581973,-0.012881992821632639,0.006817064387135443,0.022437376717361547,0.01660834714232998,0.022782500576488066
0.098,0.016074752694869777,0.05267666313794289,0.03684510921174469,-0.03176551475117711,-0.010914004000625714,0.042661558980628,0.01664908041109895,-0.016827417521494633,0.0044115775445878105,0.02138149223299949,0.015673624679184366,0.02174097347448413
0.1,-0.019160655209875473,0.02319620406229462,0.042585905423810216,0.0002470515378425269,-0.031600691488983125,0.030798754173073203,0.018876026889810455,-0.02407544332588137,-0.0016791634345289302,0.01680126355227976,0.012121530792295793,0.015358561233657034
0.102,-0.06930901752031626,-0.013296593391192069,0.056446974710378565,0.04261359952351227,-0.0637990659517642,0.019713879346216084,0.02012065791626004,-0.03046351341302629,-0.007699702172609352,0.011423885397287153,0.008416217681466023,0.009098539908831109
0.104,-0.09055705483644264,-0.02433082748513311,0.06679899140212314,0.057718075822805776,-0.07984431874939366,0.019770469173331584,0.02302598672111955,-0.03375009897451791,-0.01026678753229916,0.008951631114982728,0.008932771258096694,0.010694330840950285
0.106,-0.06126785064035972,0.0012098010056127736,0.06281573318297068,0.030084711742113964,-0.0636412073139654,0.030921536671651286,0.02546704010676579,-0.03885195503316117,-0.013092251960301948,0.006998692809323276,0.010973592771077149,0.017297863989382704
0.108,-0.003513896816363833,0.042533958368696445,0.045990298278508895,-0.018516595756304738,-0.026987035506843886,0.04350969255600717,0.02279317268212848,-0.049208319186442646,-0.019550019952595126,0.0016234680770232976,0.008801429996844606,0.020200499532859507
0.11,0.03706384789779832,0.06867861952868397,0.03142632320017644,-0.05060064058905121,0.00012845088667339167,0.049772242684470086,0.01567511738898309,-0.059802595219424506,-0.026207286396515178,-0.005909735482927066,0.0028317938934531352,0.01633446372736932
0.112,0.038391400063711736,0.06764386330244722,0.029304374035513635,-0.05046951170801666,0.00221024837394852,0.04862895361105102,0.010846528460453217,-0.06293058369323686,-0.027966357441524602,-0.010722269442508207,-0.001123136932993761,0.010136977894366921
0.114,0.02141461030652033,0.05315648916367926,0.03214257586523007,-0.03585937382214571,-0.006454909337100052,0.04285619782263429,0.012955691569454442,-0.05793794808831784,-0.02555790372446177,-0.010871124045142379,-4.738444236403159e-05,0.006445557798454864
0.116,0.00907608841064738,0.03848830130640066,0.029913270628452435,-0.023652188533473305,-0.010436133578865428,0.034161867928889804,0.017201148072838256,-0.05273043253851472,-0.025200684380870975,-0.010421249838937222,0.002054246370158844,0.004469013937733383
0.118,-0.008851722621687388,0.01709332941126161,0.026220532509039825,-0.003936252899095952,-0.017875511412033203,0.021444971832551906,0.013508874208664742,-0.05493447816119265,-0.0308265340823215,-0.01444777253473833,-0.0012120977677046985,-9.384569425449735e-05
0.12,-0.04692417542583464,-0.01753254382040486,0.029453671179695842,0.03370681424612843,-0.039894366706331306,0.005585817950307204,7.490764907699963e-05,-0.06278457972432175,-0.038540711135332056,-0.021422546987795325,-0.010186772831076548,-0.007504533542305298
0.122,-0.08522352221054698,-0.0468402382607447,0.03854516145834082,0.06842501422703245,-0.06433077586671751,-0.005125491069793967,-0.011066940498242517,-0.06749983998426674,-0.040900245243313225,-0.024127890691049314,-0.017175537833824035,-0.011115131533736146
0.124,-0.0864304605940106,-0.0402397080547929,0.04656448098553128,0.06524768571142035,-0.06826620464809034,0.001237934773858635,-0.006120325772744267,-0.06420787789067613,-0.03537581736077414,-0.018295631780290325,-0.014282188770818372,-0.004323581900903128
0.126,-0.04406807716203175,0.0070500135790482294,0.05143737821048258,0.01925142289850291,-0.048282917790300646,0.02686182474941724,0.014108725255274299,-0.057872925873454516,-0.027352882233561176,-0.007856276025032206,-0.002879231701863012,0.009978464230852597
0.128,0.006181357764648809,0.060213792415909045,0.05406376983395808,-0.033138510368428076,-0.023939362702657428,0.05524141048124308,0.032952605798228146,-0.0582241207060719,-0.025822677747398225,-0.002270656496605423,0.005993379362102728,0.01968626435681909
0.13,0.02863935245076586,0.07909282348086255,0.050322444402785084,-0.053712204061304586,-0.01146705829521049,0.0637178617151546,0.03448922878932383,-0.06886777186211385,-0.034644970121102354,-0.008187592323226833,0.002704187874987924,0.01563266959554261
0.132,0.02327737729413159,0.05994690002522131,0.03670323827269723,-0.04100000965935124,-0.008397999480435837,0.04799756579145337,0.020272885371680992,-0.08225023537784695,-0.0471956822893276,-0.022136140475532643,-0.010327879316232623,0.0017588614083606077
0.134,0.007831035455245702,0.02936612954776029,0.021896134093976168,-0.01774466806605325,-0.00908613955910425,0.025508118526078972,0.006652973589543713,-0.08839688322320201,-0.053293327471491896,-0.03377155788714918,-0.022292104721161533,-0.009894990767921231
0.136,-0.01009521772907709,0.007882951296950429,0.01846996316339019,0.001621071766008197,-0.01579047375873552,0.01283580971235372,0.006616049664217986,-0.08627832299067546,-0.05109382690577255,-0.037162339068436266,-0.02656777220667633,-0.01241334895657011
0.138,-0.027578276072809046,-0.004379944265759026,0.02346895311033471,0.01585302750054199,-0.026260123367812523,0.008862952390780443,0.017990361220888887,-0.08230581042610839,-0.047848732931447056,-0.03636372431064842,-0.026002451259402745,-0.009574553141840794
0.14,-0.040254652199380785,-0.016204815194351345,0.023993759637417074,0.027812781751927255,-0.0324882416967048,0.003225237696961247,0.029957148815047376,-0.08049644525482232,-0.04927936727763544,-0.038467455172241385,-0.026137852053449633,-0.008647225913773326
0.142,-0.04811876305876085,-0.02816066431616474,0.01978955297428363,0.03812713329094456,-0.03452833882981973,-0.0044564433038734065,0.03760571417080513,-0.07739175609332523,-0.05169508925825829,-0.042391291691302395,-0.02597415583992515,-0.009125152309516308
0.144,-0.045672180893485556,-0.02469125711400527,0.020923415455873423,0.03612625306783867,-0.03446086652322371,-0.0020001848876601814,0.04440307167596307,-0.06707604507396894,-0.047243939045867586,-0.039705271591264225,-0.019549382328917706,-0.0034616079487205884
0.146,-0.018750138284184814,0.00923562536970108,0.028047027602230476,0.0065900670249443615,-0.025059429210794973,0.017890898548545118,0.051003759113574326,-0.050987741161965174,-0.03566801613123485,-0.028012168613401337,-0.006828097615832153,0.00988254957584677
0.148,0.026231738756908537,0.05947208463415835,0.03330087839328514,-0.040938478793471005,-0.005390856710201882,0.04466924660601525,0.049657106585161113,-0.03939939399177078,-0.026504249773222948,-0.016759546554760835,0.002825351277936959,0.021296575655139063
0.15,0.04982967561998067,0.084918209275729,0.035084401865221784,-0.06614395426613293,0.005345297972811057,0.05794268860251998,0.03284307828023067,-0.04099711636460747,-0.028750572108143527,-0.01681579887146096,0.00043648883464917547,0.020154153796437
0.152,0.023498239742378062,0.061128188502704885,0.037595092209550304,-0.041703503805592276,-0.009413567033977117,0.04763949040062158,0.005207223263148573,-0.053579355860404486,-0.040961813809557435,-0.02861301591293692,-0.012490936368334279,0.006400197651850724
0.154,-0.02946500198893852,0.010241886892080427,0.03969249663630366,0.010273698876489861,-0.03718084300400985,0.023596761612132613,-0.015711782024495177,-0.06732032709460764,-0.053767995150404896,-0.0434668922158742,-0.02621867204012333,-0.009323819791416069
0.156,-0.06266758180122538,-0.027546332286900194,0.03513337817695525,0.04647993112979979,-0.051303471713436126,0.002596905658235467,-0.014585830058232257,-0.07559624118663825,-0.06096753299803843,-0.05407360298825735,-0.03372539130511758,-0.017326762004720275
0.158,-0.062391281574087555,-0.040105755943888856,0.022299166242953826,0.05351395138873204,-0.044259460586694714,-0.009927629318330878,0.005334222687019196,-0.07972694579902122,-0.06467211396244642,-0.05996906538281722,-0.03665173973168402,-0.019016642039959432
0.16,-0.0530879181248196,-0.04548590854968203,0.007601906236606203,0.05183194524622103,-0.03209320394961386,-0.01990411686190634,0.025664712725108473,-0.08350519378018138,-0.06966562914000694,-0.06395754670197759,-0.04048436113153065,-0.02251511830408193
0.162,-0.056955960083345386,-0.05538013954052609,0.0015683280974967053,0.057953455145427296,-0.03147574545660408,-0.028162044408124566,0.03431957038381579,-0.0853680216443946,-0.07453603216366664,-0.06551566867950061,-0.044707877162281494,-0.028667682313081415
0.164,-0.06278675554912219,-0.051263717971841906,0.011541455102903471,0.05770522022424862,-0.0399653991891264,-0.021591884559437682,0.037843513377117985,-0.07821168891542886,-0.07031082057241679,-0.05850902281404476,-0.040212571933377086,-0.026765714012957815
0.166,-0.04119346456980909,-0.008272030945070777,0.033055155836815016,0.025003326683115293,-0.039929808169210226,0.010541187621926563,0.04797436367122997,-0.05957992950539753,-0.05203331785171671,-0.03966236186854668,-0.021830663831479497,-0.009271881366206226
0.168,0.009058670969884214,0.059776911510549,0.05104873109646764,-0.03387636889385661,-0.02309596957158429,0.05389790758339918,0.06210770357818877,-0.03995862231341529,-0.029963358015708912,-0.018684731398367873,-0.0003397065105714885,0.013759222632523058
0.17,0.04951708864145214,0.10259621465552576,0.05350188507691275,-0.07518915681990629,-0.003063877182887049,0.07676536421260365,0.06578687976085602,-0.03465562120250027,-0.021507778321740483,-0.01125168415501884,0.00718205533863628,0.02351588186276107
0.172,0.05044419736037677,0.09122399451049641,0.04103373512090379,-0.06953607080280011,0.004536017765482011,0.06447531178588985,0.05255466687345915,-0.046456807885840404,-0.03142295652077402,-0.02085545945728774,-0.002984018179104675,0.013997421609624118
0.174,0.027261000170929812,0.050750626560703595,0.023463103436583397,-0.03690395881995517,0.0021894339629268504,0.034683125889318246,0.03284821556015791,-0.061915177247574144,-0.04683355715489524,-0.03530770601964565,-0.018600948738234913,-0.0025152346307554117
0.176,0.00987632548129696,0.02068072429272723,0.010681010692743397,-0.012493251460130278,-0.0003388726524725677,0.01289816786202331,0.021805917226024586,-0.06713430559092406,-0.05386582157242113,-0.04240495576930354,-0.02689665008598753,-0.011839395638577676
0.178,0.00047343978851796054,0.0070950721333933415,0.006668480324232576,-0.0011836864096449642,-0.004011809337719312,0.004670666639848543,0.025500570986478795,-0.06125116035927975,-0.051625826875794104,-0.04146715840912671,-0.026139059715045522,-0.012410432492590441
0.18,-0.0177761050581304,-0.007023956541638003,0.01101639388898241,0.013914826749536365,-0.016435668264397327,0.0007621630183026829,0.04006794029668736,-0.051703547478416545,-0.04622989433849656,-0.037734782243609225,-0.021891370072681722,-0.01042090897958217
0.182,-0.04900565963437293,-0.02616317982309842,0.023103119873433896,0.03784029465881665,-0.038367915677830246,-0.002316519931409837,0.05605831111955524,-0.04384897581215487,-0.04059006540598795,-0.03415180079216814,-0.018513525649475733,-0.008681548123982204
0.184,-0.07254445618599756,-0.03334861014962187,0.03922684366817369,0.05259584719193532,-0.05742471867702479,0.001861277821681304,0.06379033386851285,-0.03834062583165044,-0.03444824772186045,-0.03074461575065048,-0.0159572796732176,-0.0052037660154088455
0.186,-0.056453809217607134,-0.006744509152680021,0.0494937555285914,0.03157330565301928,-0.053537141408132656,0.019763089170235178,0.06103948890431064,-0.03300089409401959,-0.027086251107295813,-0.025779441912649925,-0.010788907547400578,0.0023023391281612117
0.188,0.003137794181774914,0.05102860039692302,0.04758845313596183,-0.02626987544740839,-0.022573344053887875,0.04731717811714808,0.0536223121697969,-0.026544681886122322,-0.019141060178842102,-0.018815385923917814,-0.001859477328369334,0.011911687572957743
0.19,0.05817168608047664,0.09793399032865684,0.039550576646407584,-0.07660525944065705,0.00812469192065217,0.06664639154707919,0.04613238888000886,-0.02270434754471639,-0.015249099512180515,-0.015060840317071335,0.003816230421341396,0.01612050939462965
0.192,0.05674714661849267,0.09083040174365867,0.03395365605679411,-0.0722998784769985,0.009024616821240691,0.060536849615029274,0.03710299370857653,-0.026849811030564358,-0.020327180602419576,-0.020863570036485098,-0.00249490666927678,0.008944908608568294
0.194,0.009203765905389395,0.039817431126067206,0.030380256369772398,-0.023262534534330963,-0.01329692461777121,0.03362359396368243,0.0249097092348447,-0.036901957204030736,-0.03132001997741211,-0.03354537520420599,-0.018028097699484186,-0.005230448495127953
0.196,-0.030825287137848364,-0.005088217023007082,0.025363280835560324,0.019324039958494563,-0.02998689391339247,0.008885796258518621,0.013642748229933888,-0.044027612506700786,-0.03924532024184594,-0.04250987673739005,-0.030207041082947136,-0.01562622247633732
0.198,-0.04135044518482264,-0.018789366919939245,0.02228044064952816,0.031919627720422575,-0.03276344970750693,0.0007296006153663743,0.011127557733124772,-0.0439611854859423,-0.040058189537651404,-0.04188066621922927,-0.03202354547277337,-0.01771980950509388
0.2,-0.048319836214478246,-0.02066159734662595,0.02764563725484041,0.03635688498351246,-0.038791357024921834,0.002785122862925234,0.02210475499157761,-0.040028895227631714,-0.0370212370779808,-0.03588732568906562,-0.027408185014663806,-0.015606802070281945
0.202,-0.07031568018686886,-0.028754747461152162,0.041723825357218844,0.05063712611437675,-0.05721673954408213,0.0055702515426534465,0.04225349385098098,-0.03439096195334206,-0.03272106319490704,-0.029751938359779368,-0.021179474541152984,-0.012032909114406517
0.204,-0.08283073326754962,-0.025711806329984255,0.057353835620275795,0.05473067122228679,-0.07149335526484185,0.0140331656321682,0.05934836301832114,-0.025049684473006307,-0.02529409463115522,-0.0219742225798699,-0.012148772639679532,-0.0038221677046466453
0.206,-0.05197634407872164,0.012952262533261672,0.06535264735505485,0.02026706406325565,-0.060062044002924884,0.03679056523291977,0.06260980958329526,-0.012971443477274093,-0.01460496544077055,-0.010681465545466715,0.0006491667015582381,0.009859261573750867
0.208,0.011489959336135518,0.07197633270143551,0.06117539267696009,-0.040067584839389436,-0.02632458785026586,0.06467246398806673,0.05086291223302138,-0.005266267019732601,-0.007489682957920899,-0.002016817623389629,0.01083536030297686,0.020963842174734296
0.21,0.05697618605464522,0.10537367177664765,0.04906504515745093,-0.0789425104361291,0.0025615028519470513,0.07623517680124743,0.03281222031372441,-0.00763854695973238,-0.010788375732574166,-0.0038634301549823904,0.01046763163026149,0.020612714240857234
0.212,0.05500518887564584,0.09245690517658625,0.03770966850330334,-0.07185821163617043,0.007891761044495457,0.06454101799021508,0.020897010784477872,-0.01694740230657013,-0.021103633879645024,-0.013932171265016292,0.0007079192188541574,0.01057503449564355
0.214,0.023792453245452677,0.05530301769014832,0.03135828360013479,-0.03855476214953232,-0.003712861311600096,0.04261459400815608,0.021368622258913225,-0.025909345415933132,-0.029372491966470043,-0.02283678071240838,-0.01034577114410346,-0.00019223933418731546
0.216,-0.009051578715956252,0.020016402817380943,0.02885282691526375,-0.0049289686410280645,-0.018591414736415963,0.023403706619580262,0.02936320721262488,-0.03156767751166653,-0.03257884124058829,-0.026316579430961485,-0.017580041320081567,-0.007156780776792989
0.218,-0.03915681019539795,-0.008547957229727399,0.030556428500315636,0.024835371421985924,-0.034986429499144725,0.00991702551974743,0.03633366914233365,-0.03378957405227876,-0.03289145656441399,-0.026437927505439725,-0.0201913942711623,-0.01141595883771029
0.22,-0.07341542626506703,-0.033015961502602,0.04036764909466897,0.05504159036933207,-0.057988430359669385,0.002898408048360797,0.0395719071306928,-0.03072895738467291,-0.03031925380644893,-0.024413587808423003,-0.01803163280867843,-0.013085034352953695
0.222,-0.10293573186173341,-0.044770054628365245,0.05790269295011354,0.07620144778413451,-0.08240233282699315,0.0063038985155383625,0.04249660954899639,-0.020350074458322816,-0.022518992682767275,-0.018358898176027903,-0.011065595356190703,-0.009139135883583572
0.224,-0.09689972808695012,-0.024390535957980616,0.07206360219753555,0.06280495685484687,-0.08665265540911088,0.023922824073310187,0.048751542123644596,-0.004110125191546615,-0.009297360281190993,-0.0068847397132755,0.00025474834037380673,0.0027314249492950493
0.226,-0.03687727360475407,0.034072631596376864,0.0706483752766767,0.002701365972439262,-0.05518775915834001,0.05233444869961668,0.05636249935435472,0.010718958821921221,0.004037373432715237,0.0064114711709956605,0.012908415347505814,0.018803934259656995
0.228,0.041732477066254436,0.09943836250009713,0.057722118790738984,-0.07037517978091369,-0.008413018134712649,0.0779496814039905,0.05699538864408388,0.013905806164046396,0.008670241752052558,0.013281541727671218,0.01940671202878536,0.029020762933079047
0.23,0.07491495434679196,0.12454731448146664,0.04979871938069192,-0.09998667315645196,0.012409407502273104,0.08559967631681707,0.04355920355044359,0.0022748162718806936,0.000767556630287277,0.008691182487740961,0.013819583554351684,0.025480023823527133
0.232,0.04628815505227053,0.09866887917562495,0.052458906540885,-0.071966666637333,-0.003715636794326556,0.07316805055139411,0.020354016819478477,-0.01502742216101561,-0.013004390810026828,-0.0025415958436523192,0.0003197523103826078,0.011688730780716961
0.234,0.002513088026937816,0.05684278893494346,0.05427949935730181,-0.027702066874625952,-0.02697939144742935,0.053187497112135156,0.0032198686957467066,-0.02646810751030011,-0.022590220653201584,-0.011014984284245662,-0.010039150172453657,-0.0006552930480490902
0.236,-0.01575025712060682,0.03100295011182035,0.046686677619826554,-0.004881268198917839,-0.032424841689759294,0.03758808274527023,0.006063389334596108,-0.030069696289375433,-0.025551983958138378,-0.013554903480443107,-0.011373484661830139,-0.00443073951374191
0.238,-0.02007315267715288,0.017349783446441402,0.03741816756544809,0.0033471229194977905,-0.029800563944712342,0.02753486092138326,0.026994017095829326,-0.03026821942513993,-0.025960635023692395,-0.01408099717023492,-0.007121695887497252,-0.002046220866937945
0.24,-0.03881558539148067,-0.0001963984594664218,0.038653065203368926,0.019821709468390614,-0.03955739272784809,0.019767859778053763,0.0495422271432745,-0.028377551662329668,-0.025521199462784677,-0.015080230763210047,-0.0027712525179593227,0.0014719256571444066
0.242,-0.06633593949735497,-0.016747211701987244,0.04962944944268999,0.04072196181782264,-0.05890752590623643,0.015853112521738558,0.0592520796336343,-0.02244542072411702,-0.02183058094844186,-0.013414705258505076,0.0012374000505189424,0.005204695592844636
0.244,-0.06743488644302598,-0.008639528027370742,0.058917176131808774,0.037417318500506495,-0.06467950893178706,0.023020552633665373,0.05751002791600883,-0.012323066916263148,-0.0130737743823277,-0.005024810804590364,0.008329210210379426,0.011814284724197583
0.246,-0.0236942217304379,0.036681121624364994,0.060666043088731296,-0.006066717119488865,-0.04423674694432043,0.0463163546485656,0.05461942268914685,-0.0007226997245098012,-0.0008370534361129519,0.009074311752208374,0.019407556407337087,0.022654366670530193
0.248,0.039542750139868896,0.09903216043293596,0.059778823405970696,-0.06801130300843951,-0.012307298091294461,0.07820208811205027,0.052666683704592356,0.00850195875406325,0.010185882984338085,0.022324022427063765,0.029905230301473542,0.034339066571208304
0.25,0.07826484798737654,0.13931729054538072,0.06100967226553722,-0.1074248898396708,0.006713446716696773,0.09979137854715864,0.044380281869062926,0.01230938520865716,0.01474102832503463,0.027787451860729184,0.033909768313397835,0.04056751200935166
0.252,0.07284154313485011,0.13502011190797258,0.06186605356748792,-0.10301055822639611,0.004218248168186225,0.09751339438479671,0.028154548642008732,0.009952475431082582,0.010645043650676728,0.0238135972047539,0.029611665277963158,0.03737283788903526
0.254,0.03749820024511443,0.09588813863667388,0.05831423264678683,-0.06625040477808813,-0.011043256354090855,0.07519085825233049,0.014452558874526159,0.0020544858116873363,-0.0005120851484613629,0.01372617825826381,0.019334918791669632,0.025948756633780653
0.256,-0.002840568130544803,0.047402937323544996,0.05062528742731932,-0.021966400771252826,-0.027519471308658554,0.047068221030980614,0.013165641752544978,-0.010556897951261334,-0.015203222506277137,0.0012133993572342964,0.006330515601194225,0.01091537466645469
0.258,-0.03151723461961406,0.010888619740507501,0.042874669506141536,0.011113409961421822,-0.038960086322953,0.02588995888795411,0.02175832589208481,-0.02365209112761999,-0.027469713834221733,-0.009779681357053918,-0.004715359723187049,-0.0013683949858050884
0.26,-0.04205667060335341,-0.0014721269221072064,0.040833267538213654,0.023371506952314335,-0.043870454276248985,0.019674316266843656,0.031514742459118596,-0.0277879665020552,-0.029382334911135826,-0.012675579195808355,-0.006579856300593934,-0.0036757817825040953
0.262,-0.037219304774193177,0.010570531301090166,0.048059848654546905,0.015079085397923225,-0.04443662186909669,0.02960419217984082,0.038517679461064075,-0.01720777323819075,-0.018537548541924485,-0.003754457091942253,0.003872646425803956,0.006463121549797497
0.264,-0.027207833522714817,0.03472756018817347,0.06253585351546073,-0.002900409891200413,-0.04527667816938341,0.048580632635583196,0.04374469813612546,0.001089543428491784,-0.0030560532306865233,0.011029111604068095,0.019741304995293436,0.022188448526730926
0.266,-0.01751285340732974,0.06023920422047109,0.07845812957613237,-0.021338481370889652,-0.04759261388396676,0.06865304109227158,0.04814397407790699,0.014322637984120222,0.006681610386108872,0.022004023515673304,0.031153601461772918,0.03425704795410073
0.268,0.0009139678107984459,0.08806801695520848,0.08747859253747035,-0.043961645581100696,-0.04315392286252776,0.08630637504947948,0.04965470728037402,0.017123944411697144,0.00809689160477743,0.026014876907644594,0.03490541851238507,0.040025626650493314
0.27,0.03504337241328276,0.11675300842492738,0.08154658656560404,-0.07375366760334692,-0.023765914079019283,0.09713419014398768,0.043953663578908064,0.0128436709453817,0.00476267302014637,0.02552407897181918,0.03311646868637804,0.04153376395040365
0.272,0.06405499596210407,0.1280749800271567,0.06364266026086857,-0.0926797769917053,-0.0006878634888365019,0.0939335822021014,0.02983520836251058,0.005278528093901284,-0.0011162108458226136,0.021418472300545558,0.027150110471453655,0.038873224583631495
0.274,0.05491762331506348,0.10322665068370587,0.04793029317365949,-0.07591327267638207,0.002500672060863039,0.07406836829278286,0.012195374663211769,-0.005649374123507865,-0.010934074363232894,0.011633674801809312,0.016681531671259534,0.02959449636437806
0.276,0.007495242048748798,0.050236383066635165,0.0424249051216143,-0.026996537102708162,-0.018417402760735824,0.0448325555907194,-0.0015459390934527417,-0.018983326916544432,-0.024445918734550046,-0.003187309804770231,0.0035183471327291833,0.014454101768825073
0.278,-0.0443209031775593,-0.00107047315669995,0.04307396592467767,0.023524024858030672,-0.044427499699506816,0.019198438765684417,-0.00611169499912256,-0.028831369895683318,-0.0360068175405311,-0.016330260492880225,-0.006805773980878352,0.0005303988906596186
0.28,-0.07517933582860105,-0.030805961825125898,0.04435736816412331,0.05363558350888306,-0.06023404443320641,0.005034484555887179,-0.0018583695825886495,-0.03106320542127399,-0.04059803897532773,-0.02133579473920049,-0.010171758126122333,-0.004985672107519696
0.282,-0.0815811559041908,-0.037991060691332824,0.04355214733778541,0.06062545721136882,-0.06328432169440437,0.0014998596170020565,0.005443761658060827,-0.02890054097237996,-0.03970399846723164,-0.01881152133387337,-0.00799379635346512,-0.0016215475626144714
0.284,-0.06103840062943353,-0.019574438253005005,0.04118547250492579,0.04126945636141008,-0.052770568255477816,0.009781621946418535,0.01244940287855474,-0.02539635917481969,-0.03523314198620332,-0.011611472086311258,-0.0019223258592892395,0.008200485382988032
0.286,-0.013044763683494342,0.030933869098742215,0.04353165952754928,-0.008032332382863246,-0.030693353011250642,0.036093390514750905,0.021937940896096218,-0.01813149578884631,-0.02496772788348949,0.0005244190123162955,0.009777575126258457,0.023940565477511465
0.288,0.039096971231080316,0.09409122689012075,0.054700480956365705,-0.06605284686220116,-0.00976638863086224,0.07329057959962496,0.03268547931274778,-0.00871797336180684,-0.01203106849688389,0.01387480249246245,0.0240616141913836,0.04030674303179685
0.29,0.058047328257489726,0.1256832745507663,0.0676782090306872,-0.09187949596995049,-0.005457959530660369,0.09611030587945622,0.03510015880253774,-0.006723596871939518,-0.007902428274567514,0.017984635587838152,0.0302339020349557,0.04525281821703535
0.292,0.03506377961479688,0.10639531852828653,0.07162681138551998,-0.07077445616002014,-0.018149207878449123,0.08911874243949125,0.024365810003871564,-0.01611345136280307,-0.017144016985838367,0.008781196082454402,0.022742769203748,0.034586180023562785
0.294,0.0017861091514588332,0.06431960732451154,0.06293572496685104,-0.032152959391443255,-0.03116279664073248,0.06399931626585152,0.00814177085073944,-0.028278312408643827,-0.030751207361784726,-0.005248165737372447,0.008261993825727886,0.018787612191343218
0.296,-0.01366324692868603,0.033489071994281513,0.04754637918396519,-0.007897003504299265,-0.03278506238447587,0.040504154565199714,-0.0030084476791287975,-0.03392524335923327,-0.03969091430793406,-0.01467318971622087,-0.0036841856721223833,0.00894107840762135
0.298,-0.021774592852515505,0.015953031798477922,0.038049663517379005,0.004888649685169791,-0.03308767675944587,0.02611526947260132,-0.005232378391376007,-0.03307542103130419,-0.04332233917970305,-0.017450664027745914,-0.009050685523151981,0.005859629150829363
0.3,-0.04424872467019959,-0.0002179191603344274,0.04432875440335032,0.023174828210508133,-0.0472438921396753,0.02046510785421033,0.00012039472347061015,-0.029692379346185092,-0.04226824178239895,-0.014262800344100216,-0.006870581259254938,0.006672429291076715
0.302,-0.06918392594962999,-0.007534858819043599,0.061981222684394495,0.03892780803106999,-0.06783379655581473,0.02581558312662329,0.011736332996432026,-0.02340476232457819,-0.034034230567125234,-0.004590945370514817,0.003776060127933808,0.012913302184556033
0.304,-0.05873913419093798,0.01572078140386425,0.07480158278401702,0.02306282443621177,-0.06858274753600509,0.044658491538950844,0.02760058376067742,-0.011896372220384224,-0.019392441304497996,0.009878442840157504,0.020559206697089473,0.026334195765459364
0.306,-0.001338554198173492,0.07165505996260628,0.07333188776377343,-0.032643133340712206,-0.038773118233084214,0.07221681648564247,0.04137158021677142,0.0019284009638316916,-0.005692068831740858,0.02330313096069483,0.03604010392948654,0.04203410244136082
0.308,0.059782662856878485,0.12584302989585297,0.06637917702293575,-0.09083284248170075,-0.004196254299113305,0.0952914884012934,0.04456558957414345,0.009257773737954137,-0.0009931607179917963,0.02875278506372649,0.04196335657404267,0.05091029629532315
0.31,0.06774362352794805,0.1338100209291551,0.0662372975089093,-0.10034359902753481,0.00011622125111405545,0.09857943661923578,0.03292539644118461,0.001097533485332982,-0.009032576141950055,0.021431404342428708,0.03396816886671777,0.046432238448730574
0.312,0.022297962775149675,0.08968808830409908,0.06727868039293439,-0.056348895330571976,-0.023335902859388136,0.07696908585810641,0.01073445184659647,-0.023001940681316908,-0.027644537783677925,0.002505278205524459,0.014794207517115394,0.029353807393184536
0.314,-0.019464097016688595,0.03511535086577735,0.05428292802604917,-0.007502902100532058,-0.037952070529861666,0.043289658195761575,-0.010444192776326142,-0.05032073126455303,-0.0481181279072561,-0.018329269502708745,-0.005538191047929564,0.008849402749411732
0.316,-0.022653374168576098,0.007581611935958182,0.03008574676149775,0.008790345836228397,-0.02749532344701582,0.017242911884141128,-0.019861588359917956,-0.06460185500167817,-0.06044142423231989,-0.029940990989520667,-0.017383723039264515,-0.004282967333688386
0.318,-0.01569339436622707,0.0005008681557777984,0.016387212446776968,0.008694748037907764,-0.017242769117988253,0.006729482551118842,-0.015979045857157946,-0.061355675795557396,-0.061391038773852345,-0.03040367110397383,-0.019195624936328887,-0.007182202990444163
0.32,-0.0341212575213021,-0.009596190043962335,0.024848032238917513,0.022118921419719894,-0.030780614232599545,0.006226582778790788,-0.005976990736895551,-0.04892624435962346,-0.05461189324769075,-0.025579622034905835,-0.014710841926651157,-0.0039820777359104356
0.322,-0.06276213865536648,-0.02028472782481452,0.042603719050282256,0.041648482184301554,-0.05377162141313724,0.010152700978463864,0.002292889657215545,-0.03625213979483705,-0.04467817494817034,-0.01944629235852573,-0.0064743094742013415,0.002605810882150628
0.324,-0.05947183086539334,-0.007670452005683467,0.05169911215163664,0.034541318744122265,-0.056285214313959775,0.020973089816411782,0.007155878843578251,-0.025107038771516148,-0.03413780111791775,-0.011299793332556079,0.004682269942023765,0.013219715060074735
0.326,-0.015819524457606177,0.037018112146261294,0.052715514999846703,-0.008829181858068464,-0.03505534358579926,0.043520921328783435,0.012178929914058317,-0.014399113363883451,-0.02478478783625067,-0.0008794475052932399,0.016716723053659083,0.02679067439660972
0.328,0.029529393999876113,0.08827737459163688,0.05874231475810083,-0.05701919130020347,-0.01596769473474317,0.07212224059859362,0.01759098377300856,-0.007508412881050519,-0.020127343946754927,0.007319590735689037,0.024651256320072673,0.037489864637756797
0.33,0.03820933930544759,0.10897917577390501,0.07083326721944692,-0.07194584272978403,-0.01776296260271868,0.08879759702897766,0.015835112998713843,-0.0106327143681029,-0.024564092187257136,0.006892862986545599,0.02287855830464882,0.038220438282528774
0.332,0.017722787466946652,0.09206409676808941,0.07437493544093611,-0.05345164184645548,-0.028932275174122876,0.08225112569884074,0.0016396424525458291,-0.023019254144430096,-0.036753541783733364,-0.0017234160844192504,0.01216803017946952,0.028555732157981663
0.334,0.007734903611080631,0.0682628618778248,0.06048761392801011,-0.036654139798452286,-0.026050711525280185,0.0630713060121024,-0.016092802425671834,-0.03396266088729087,-0.04685589416998476,-0.009342011610013336,0.002013197481132935,0.017358240934713335
0.336,0.024612558843073583,0.06380187811621887,0.03903088328500268,-0.04291748205450475,-0.006880652332589466,0.04945807058624734,-0.020722882268103582,-0.03442563641579381,-0.04704392833679632,-0.009526482506033206,0.0005895959047253372,0.013337321776457118
0.338,0.037005407651813586,0.06500165202687469,0.027665903154141365,-0.050054899747372365,0.004094428530624474,0.043992398547941805,-0.00690410189500608,-0.02834395075546606,-0.04177423887931153,-0.007123522990671824,0.005005114018229502,0.014961820551556936
0.34,0.010541465947615918,0.04444619101951355,0.033517456866682914,-0.027283709780105376,-0.012965823434968736,0.03692272504802271,0.013957991888363273,-0.026103333453967474,-0.040422896690325456,-0.009528510394628232,0.00733129070315094,0.015347812753966385
0.342,-0.03735934086433772,0.010657807055182498,0.047922855777449924,0.013097758749838045,-0.04427580248324276,0.027756236467404,0.028845609229897273,-0.02951249040502305,-0.04341989474605051,-0.014327621195220939,0.007185611891615407,0.014584157876125301
0.344,-0.05423077840869283,0.0033619851955111603,0.0580736791859565,0.025657553673116677,-0.05724805133341082,0.029314191744637525,0.03521465253061303,-0.03097668947689205,-0.04322276616894135,-0.012779570403739761,0.011046125450338014,0.01892386655499017
0.346,-0.018790826302204317,0.04082996426901017,0.060510581427251846,-0.009806123620082381,-0.0400915652967155,0.04912689966950441,0.03587720081988889,-0.026391941255617765,-0.03655568536508821,-0.00317168835176437,0.020100727470688654,0.029022642124830668
0.348,0.035234107762104054,0.09540068655472776,0.06088502658348705,-0.06364870807562317,-0.013039436620754777,0.07673226886014965,0.03235829087978334,-0.02095900552847021,-0.029233228870897507,0.0059703301545003095,0.026643231919716074,0.03760858929809773
0.35,0.061785774125323906,0.1251039188212714,0.0633733915930133,-0.09227327797214058,-0.001327258498913032,0.09319990106826287,0.026785418517741817,-0.021109726366480192,-0.02863490978467085,0.006177570251568716,0.024379763078534747,0.038657955878411525
0.352,0.05067123028034344,0.11578302304363534,0.06455836648735178,-0.08288366302726119,-0.007996892863558579,0.08910897290817532,0.022242912175500396,-0.026540189163802668,-0.035069498426916,-0.001997102127279859,0.015861822608754322,0.03285440501393479
0.354,0.02786322934706086,0.08770764930400331,0.059209997964323614,-0.05773555176187949,-0.017027584886727218,0.07172963243960807,0.019419378228855064,-0.031794813656475414,-0.04209613458716324,-0.011063110648494898,0.007859135020731127,0.025176348614688183
0.356,0.017245753680407885,0.06716462631275211,0.0496745180919956,-0.041891578908075815,-0.017587796363398238,0.05607270113157739,0.016454367420934788,-0.03240411094538077,-0.04391925844939677,-0.014728021006265732,0.004355907986579005,0.020545759918326686
0.358,0.014043275557317422,0.05803714647163357,0.04413712494825018,-0.03561591885559411,-0.01640777886118665,0.0488974982449734,0.010500083230783084,-0.028920117731935396,-0.04101372955686146,-0.013137118512032114,0.004744564303514605,0.019881833219738812
0.36,-0.0006396534849933422,0.044873478083927006,0.04570927805665856,-0.022031906469094302,-0.024686953469436192,0.04367287301814231,-0.0004558813046464508,-0.02599297839857982,-0.03858754106263763,-0.010921235562818462,0.006149237812096941,0.019804110372719248
0.362,-0.028928314438507945,0.020600846203209535,0.04955280416364717,0.004052512780132911,-0.040960338148004455,0.03362645588469232,-0.013246315590135156,-0.027311107481693707,-0.040448323088215575,-0.011226187262282531,0.0071434687132681755,0.018122629839268548
0.364,-0.05060536802561612,0.0013848447758526487,0.05187591731837169,0.025150856886218265,-0.0530134029325414,0.025064954428994896,-0.018081796688678122,-0.032409536265621805,-0.04526331739491327,-0.01342284259504725,0.00830160390781377,0.01717400671266889
0.366,-0.04713134574226015,0.008126659790493615,0.05506976950004082,0.02131726645009735,-0.0529264562332129,0.030412637106813942,-0.007061846331030009,-0.038923064424622136,-0.049444610309493306,-0.015946732832357136,0.009153950506192254,0.018987352969087417
0.368,-0.020500947437687572,0.0395289532232975,0.059725281296442424,-0.006873737623368039,-0.04228808135194496,0.049304078733298035,0.013929232384737473,-0.0453398524482555,-0.052376364072443025,-0.01852740863347297,0.007781919058268584,0.020720321281963345
0.37,0.012251620500985301,0.07201891056957599,0.05938648043232107,-0.0398174955699701,-0.02614342654650426,0.06574806279949011,0.02693074948218569,-0.05007144262831879,-0.05567142197833058,-0.021245086918906652,0.0040878490800806255,0.018945696846169945
0.372,0.029592012022434323,0.08204310565350618,0.05220307315442973,-0.05458757713394234,-0.013701401649514264,0.0665238201054474,0.02054977876934313,-0.05099773380550057,-0.05848059211924451,-0.023570137596473802,0.000460132630065961,0.015506749653315978
0.374,0.016498211977282424,0.06477682643421832,0.048263151572255206,-0.0403756553247135,-0.01736816898221579,0.055051950245917615,0.0032537344828028145,-0.0486543694600963,-0.05852044005697341,-0.0254914707216919,-0.0016644526170245867,0.014325704940440208
0.376,-0.01661148091458769,0.036147965168785816,0.05276066074385158,-0.009866215676412774,-0.03530382947508871,0.042830703556553204,-0.007590705672880848,-0.04753098113355959,-0.05745450204094609,-0.02852271742178549,-0.0037937784778375827,0.01433677440578211
0.378,-0.03915867967387928,0.01527665975670266,0.05417527541909819,0.012001303285449965,-0.04737020900250308,0.03338318557575584,-0.005764648895672695,-0.050804296639678885,-0.059794106108290945,-0.03368623164587568,-0.0077910787913239,0.010765937195516712
0.38,-0.03974175343845753,0.004597618795440499,0.043879852964107166,0.018101380264537,-0.04326996339439108,0.022779102522929476,0.0015366842711799457,-0.055046122878745156,-0.06526909002165265,-0.03828908989664368,-0.01198012962560781,0.003193583153723041
0.382,-0.04014068850935875,-0.006080339724075428,0.03375053253516076,0.02428812102314647,-0.03857787794052385,0.011796655838075126,0.0068952904876634176,-0.05422941588742959,-0.06769353263822377,-0.03748522731777275,-0.011547864066738384,-0.00214137433636883
0.384,-0.05738639132915342,-0.016565023953396686,0.04084087388891248,0.03859013161686688,-0.05000337622247386,0.009671216105722729,0.01040110384635859,-0.047453762168251264,-0.06267996516407999,-0.029502380180974612,-0.003525390818232809,0.001434290399526607
0.386,-0.07142409891678413,-0.007655559420025424,0.06394085921662253,0.04091542501557213,-0.06795576516981235,0.02583824037864037,0.015542638892410171,-0.038908026767308576,-0.052505120686474345,-0.017514917544979476,0.009013089227590938,0.014315956219069042
0.388,-0.048203061626110544,0.03380761986068958,0.08208992920361044,0.00795913923511713,-0.065508318769183,0.056244244245609615,0.02099690175822707,-0.033264408170939834,-0.044228080488917285,-0.008106048386955831,0.017872281354233976,0.02854151544970044
0.39,0.011714075437581715,0.08858335139695837,0.0768163483233654,-0.04953722602367769,-0.03301771165786421,0.08149044978300733,0.019462640960741635,-0.03214247920820099,-0.043046575548135846,-0.00635953492791354,0.018031424971545713,0.03407478338144208
0.392,0.06525043940277891,0.12221904031329751,0.05690019345467868,-0.092685727975339,0.004163360358830596,0.08846738117354581,0.007473145628820987,-0.03164975647062837,-0.045082682406009295,-0.008973345484460285,0.015470724994934317,0.03071919256594016
0.394,0.07356490266979407,0.12294034664535977,0.04937126579087106,-0.09684329085602077,0.012694412726274477,0.08507028209953925,-0.008269781654016711,-0.02722032862347426,-0.04216710159935795,-0.007895270347284756,0.019234068660913248,0.02812521765512496
0.396,0.044436322924085184,0.10482857058430141,0.060427431849991366,-0.07327553431652406,-0.007329969199951122,0.08170403727867803,-0.018622107081993872,-0.023411446365885293,-0.03610275277795516,-0.0035144636557890886,0.026299285357255103,0.030196876560845267
0.398,0.01512193792015564,0.08103816428351562,0.06593530973365516,-0.046782353300566716,-0.025443165762543563,0.07273434932774601,-0.019756374830329923,-0.030556362126817643,-0.03831107042689018,-0.005294993810538498,0.025178304038872754,0.029414853238264475
0.4,0.0019436626375796593,0.05231684079436219,0.05036311139884898,-0.025421867685163038,-0.025314130703379803,0.05053960803953335,-0.011171334158142367,-0.048543988990896285,-0.05204731909010196,-0.016622281973982564,0.013646309976059794,0.021321009385955256
0.402,-0.011664284146954702,0.020609040140419504,0.03225810852660008,-0.002093772919742965,-0.023733774269071018,0.025481834008070955,0.00478348886295424,-0.06301991490335043,-0.06549429268530686,-0.028148084089792958,0.0022570734654417737,0.01349106195335072
0.404,-0.034186591801001545,0.0015883133965235124,0.03579507056515155,0.018760644213950888,-0.036565959609609254,0.017850479109785843,0.01991896919077071,-0.06191289286249423,-0.06675169510663417,-0.029636439695026537,0.000760195039195311,0.014763962056918196
0.406,-0.039560962682544554,0.015973282244293386,0.05565107627261146,0.013256627948303273,-0.04836253307996393,0.035454770234817724,0.02591206211368363,-0.04864675772025148,-0.056904829606445245,-0.021462661581299936,0.008780107619355274,0.024356264463476374
0.408,-0.0061593675396253,0.06251300893872083,0.06887300872201195,-0.02804887414334678,-0.03750954647102815,0.06577411734016261,0.02315224383996335,-0.036070858279523686,-0.045853675692953844,-0.012189548589372311,0.01862910970886764,0.034602500036680715
0.41,0.0384924320144484,0.10559313346594935,0.0671939824143706,-0.07220757988369364,-0.01418503220554883,0.0863190695265139,0.017121874551518423,-0.0338648986628777,-0.04280024060991596,-0.010104818928117243,0.02184913198141648,0.03796626934775362
0.412,0.04832607848290581,0.1073786945134784,0.058882169951823424,-0.07691055296244703,-0.005587449385418568,0.08231941507572509,0.009085703378693698,-0.04348691865443714,-0.050600487835416444,-0.017639349112075334,0.014837383348995025,0.03157555763443031
0.414,0.01803878256356392,0.06920104711930476,0.050858535320597066,-0.04134436781787342,-0.017410566350571755,0.05849819377320272,-0.002771175627415317,-0.05939834169032969,-0.06402264396001266,-0.03046958480097868,0.0015245226590211087,0.019314940780570826
0.416,-0.022602158717107933,0.02370646655024822,0.046058756854205726,0.0019838766793524093,-0.035794079339075996,0.033024496461889666,-0.015033863776709155,-0.07281566962754198,-0.07430644980331591,-0.041172872056099846,-0.009987997605448986,0.008460973367049537
0.418,-0.05346585586324405,-0.004629007748064535,0.04859307416029281,0.030876650882138743,-0.052512561785190426,0.019956386596200953,-0.018583830407398878,-0.07644614143542114,-0.07615453198737869,-0.04399591859819236,-0.013516866727399138,0.0036877214576599648
0.42,-0.06997355597736839,-0.0121412765167047,0.057540610761193815,0.04241325713852167,-0.0647906497783434,0.02042022223900466,-0.008849153165750622,-0.06803882484425823,-0.0696998607652972,-0.03772963251725269,-0.008026015780471633,0.005565978972390301
0.422,-0.06579588451538003,-0.0019928623315565667,0.06371027796302574,0.03554665224243683,-0.0651139860349014,0.028558661594928692,0.00672296903769355,-0.05195426121998899,-0.05895336143057684,-0.026444162064600686,0.002600555725236159,0.012234102485327318
0.424,-0.03862975120813912,0.02220983743610598,0.061269573088554144,0.010251518511481239,-0.049994551710712896,0.04011264682117141,0.01452879362722471,-0.03769196345479561,-0.04987483136002801,-0.01686479890722363,0.012317064527640129,0.020368054897592854
0.426,-0.00035761591970345514,0.05418508309953255,0.055407081194017535,-0.02490061421175886,-0.028308728083894348,0.05410915133587469,0.007891487188252872,-0.03363020773230694,-0.046837019182062144,-0.013388715383921328,0.016997890729158957,0.026862365824073923
0.428,0.030892168577132246,0.08553593064236825,0.05542159842950634,-0.05639401675075829,-0.01339540704006711,0.06990562627946423,-0.005634079119058681,-0.039594868509978634,-0.04918350957037025,-0.015112174767587435,0.016809804515613976,0.0309447886248843
0.43,0.04237520932614068,0.10691862766066312,0.06488254986039897,-0.07304187046086892,-0.01287383960832334,0.08461892806659423,-0.010664210848533251,-0.04703660642750743,-0.05261679788412908,-0.017590671994402354,0.014810349727153997,0.033347050463016434
0.432,0.03371075498946285,0.1112711145987317,0.07764153161891299,-0.07124581871675509,-0.023721448819568565,0.09299396521847778,-0.0008786418582283784,-0.04839545485808038,-0.05441634062899158,-0.017949165192445056,0.013432647666792795,0.03407660831066415
0.434,0.01761814337674988,0.09963973439136962,0.08209028421176737,-0.05774974116368719,-0.033919378542433695,0.09027848930628682,0.01169727279393163,-0.044731559692005755,-0.05561152259870559,-0.017798445385401807,0.012661180994848083,0.03243763082929952
0.436,0.006020677117713287,0.07832637946578394,0.07221699484856638,-0.04143209545029498,-0.0347912885703053,0.07541541198960103,0.009437018868714234,-0.04350025113902214,-0.058481452474031366,-0.02055071975819232,0.010788668446436727,0.027368742995930805
0.438,-0.005174172297201761,0.05075905803069589,0.05547419642094548,-0.021936772444786267,-0.032235502402744115,0.05279711268044155,-0.00931826390138178,-0.05013958633249187,-0.06355692389990061,-0.026692423887155276,0.00642094241673972,0.018107466645294754
0.44,-0.02442791902917562,0.022502517838729152,0.04625676908957316,0.002224584849149296,-0.03730071461736697,0.03296878602995137,-0.026051369816264793,-0.06122451180353557,-0.06805993338385861,-0.0319900384189875,0.0015794633065040538,0.00849220002451331
0.442,-0.04252653266977319,0.008142323793487989,0.05016977399247497,0.019110331031165252,-0.04785763114941748,0.02723790835155136,-0.021827812488607982,-0.0672734019845147,-0.06789215358799565,-0.03110628986531062,0.0016160018868606701,0.006839567420460121
0.444,-0.0433785340656522,0.017178693146252793,0.06044510550174513,0.01532459604173828,-0.05286198009521134,0.0373380738203597,0.0003543618206410785,-0.06439717037990118,-0.06308820733687664,-0.024135940351197396,0.00806008713271572,0.014964450142128216
0.446,-0.03105281906379513,0.03813948118905082,0.06933566826149067,-0.0020178008078041818,-0.05107933228358526,0.05293236275791152,0.017641546920887163,-0.0597517404416235,-0.05961633582840103,-0.018316870826563414,0.013735815545395347,0.022604908279746247
0.448,-0.022200905759426244,0.05142164624447539,0.07372795953064916,-0.014388998970065877,-0.04927455775570663,0.06168543880175386,0.013260129600992425,-0.06238018928443455,-0.06323959634327671,-0.020835696698575865,0.01070365359682317,0.020001886931386843
0.45,-0.017544223122586116,0.055644919063240574,0.07304825904019124,-0.0194489416753201,-0.04686802097408431,0.06251111952386657,-0.0038192906187023558,-0.0701388616709201,-0.07072970052717659,-0.028774926544824934,0.0026232988643253878,0.012311397837733622
0.452,-0.004527441738992859,0.06587025436614627,0.06999906675830449,-0.03032366215175471,-0.03834890285792421,0.06523274241007153,-0.01025563259940026,-0.07030669731419832,-0.07091998370072303,-0.03033575444056923,0.0018556996836078892,0.013511256101433671
0.454,0.014952460460983013,0.08289759394417762,0.06747174172286582,-0.04736465914986442,-0.026414625115854365,0.07262406327790849,0.001497325709353436,-0.05715380345423209,-0.06001616487190756,-0.021273724515085007,0.01107799812521476,0.02524607862617672
0.456,0.018913734637445473,0.08341682589662175,0.06414092132037114,-0.0494258177437094,-0.022443918879715113,0.07217077538690918,0.013867655499689477,-0.04218595793106322,-0.04978385003302952,-0.013217400198650427,0.01742369812708808,0.03194738258049293
0.458,-0.008896683873501312,0.05175802121415206,0.060380361635873375,-0.020737015366073898,-0.035336802583409654,0.05503147034070703,0.00892727116584916,-0.03851332169397485,-0.05173021089835221,-0.017275784769350724,0.011313539094084921,0.02290471088483736
0.46,-0.054209483221504484,0.007096432890984615,0.061028729649933826,0.023215435249940478,-0.05975662175360332,0.03248140373964022,-0.008079315715168404,-0.0431416554757202,-0.060669871845130514,-0.027860600657677134,0.0007838936822866431,0.00835991990140964
0.462,-0.08031439319386817,-0.0129433427097594,0.06716361009869394,0.046163661953543406,-0.07679489540198764,0.024561156061843323,-0.017063579188964145,-0.044217302654531346,-0.06264985279625668,-0.031131247864089724,8.067359965310036e-05,0.005909998722386688
0.464,-0.06449312130747059,0.011015226760261183,0.07548088380643478,0.026781734314474052,-0.07307169402350441,0.04043468009561616,-0.007591176106936377,-0.038343597140307974,-0.05259348018389892,-0.02180004804172668,0.012493823807890195,0.020135887855823556
0.466,-0.020300843543311273,0.0641245271231449,0.08449771045500928,-0.021211027949063526,-0.05508486729755113,0.07213646899782247,0.011761776130315014,-0.03329509368195487,-0.03881070681230072,-0.006803255249723305,0.028805674395886445,0.040468786103903254
0.468,0.02035427755148525,0.11061133339440885,0.09019295909887413,-0.06396969684830678,-0.03721273182336243,0.09903761934809364,0.02380921094701644,-0.03905630405573569,-0.0351677524642668,0.0007281474677694325,0.035813576792581375,0.05105732439368779
0.47,0.03882474343541638,0.12181979654130301,0.08265137948386622,-0.07801240453751022,-0.02388187058039784,0.10110143381654062,0.018008946218138134,-0.05828247568445432,-0.049113506073762456,-0.008880793754134145,0.026103923779532138,0.04255512375804499
0.472,0.037038767893498095,0.09763160585003922,0.06012589750432877,-0.06480203558222394,-0.013339177837773525,0.0774369484365131,-0.0007944976448631699,-0.08119060601894805,-0.07307755163800367,-0.031274821021754474,0.005499610607513278,0.02111755486647024
0.474,0.02291127525796913,0.061804414822689224,0.03862492446542404,-0.0401671066953108,-0.00966960131752445,0.0486050667258602,-0.01700910925511974,-0.09247712296787788,-0.09057973540559934,-0.049984525401630946,-0.011113805746164405,0.003354360694984331
0.476,0.001975602998720378,0.03766509132661475,0.03573315873015278,-0.017904648536583006,-0.01868078493562429,0.035394479748403866,-0.01878222840565512,-0.08582583884582544,-0.09220972874802269,-0.053054365750933107,-0.013936634759048907,-0.00022463738473702243
0.478,-0.018281593910580228,0.032230467362985855,0.050651428916714016,-0.005088164661006494,-0.03623897790705086,0.04053066927238693,-0.006089225259073059,-0.0678190616981255,-0.08103804133652655,-0.04263729330403775,-0.004949971975919038,0.007623853938000872
0.48,-0.028982277005858606,0.03904953318042434,0.06796131540623786,-0.0032431308023977193,-0.05037947845860711,0.05258191689022387,0.013338609039885943,-0.049150459721194306,-0.06501928691432377,-0.02775878017620246,0.00812051262549627,0.018874287038900768
0.482,-0.03226045435377325,0.04601532410285323,0.07787068803414848,-0.005174455098441781,-0.057105296586987264,0.060711541978029346,0.02949459493446193,-0.03737553617104569,-0.051368405317842494,-0.015559092232591628,0.01893668458540527,0.02817361266757149
0.484,-0.04022786425067235,0.044377943580404346,0.08399218898698374,-0.0001302781321522342,-0.06419300404868225,0.06305386832971249,0.03250919145452702,-0.03599841627043799,-0.046167778199860586,-0.01038423965259892,0.023974515623117844,0.03255025064302627
0.486,-0.04557804864247942,0.043335715430929865,0.0883323157849981,0.0034293493872416636,-0.06922698708519757,0.06543994386282234,0.018581075270052344,-0.043894102471012685,-0.051163836913548415,-0.01337803930849904,0.02264357259826188,0.030911324231623377
0.488,-0.018165283241045875,0.06508224237268341,0.08290568293236489,-0.021270561582021653,-0.053041724386399924,0.07406063820362335,-0.0034188203330553103,-0.054945483999605506,-0.060493821884386664,-0.020165188645784808,0.018024608793159376,0.0265653539325894
0.49,0.04101511121517257,0.10686158996790213,0.0658830572814706,-0.07251569927155342,-0.014903117791872256,0.08574334710167499,-0.017758412224287364,-0.0627709226329678,-0.06667230008673543,-0.02466224345761035,0.013686250703666726,0.024136589630293408
0.492,0.079420791087146,0.12879206396652937,0.049798617227290724,-0.10342754213970796,0.012482317109040204,0.08744039724211174,-0.017401486142261235,-0.0665198889140244,-0.06929773931290126,-0.02679867646673781,0.009139822671068252,0.022679075798973075
0.494,0.05988802430526465,0.10412801602427557,0.044880188584792646,-0.08131311429469844,0.0050865962152603075,0.072248752934747,-0.009234855282198345,-0.06904113645039799,-0.07250046349467694,-0.030726545730362,0.0025881305113037104,0.018189521324690594
0.496,0.009109934014389831,0.05684569312795277,0.048347009916646276,-0.031733251173526184,-0.022002153290494736,0.05087257267123047,-0.003361066655743674,-0.0706139308671809,-0.07634854615068452,-0.03583657250019165,-0.0031406200499965527,0.011859383833161343
0.498,-0.028120002018412346,0.024527904586869022,0.05315689644338552,0.003297137695407278,-0.04220792754528842,0.03760827787476407,-0.0031648089092675955,-0.06911690132457568,-0.07734411090695749,-0.037426480533407004,-0.0037312410335345997,0.008226133723976714
0.5,-0.045129482630253834,0.010932682049760625,0.05660746246330926,0.01835333940781374,-0.05119143442677873,0.032737774298561624,-0.006066670688934328,-0.06478110263561587,-0.0747151593894861,-0.035018283166846124,-0.00037021846084754373,0.007916460838388402
0.502,-0.059233886088027904,0.000742296381338453,0.06064833817168782,0.030254462389248518,-0.05979327936536849,0.03011475009789944,-0.00873879379726793,-0.05959397379624162,-0.07036290731194855,-0.031693470398856456,0.0034064952665147676,0.009493694464815067
0.504,-0.07116447198047991,-0.002711112995429901,0.06904962083246804,0.03802558378253747,-0.0706517497786468,0.03319318815325574,-0.010786040124741356,-0.054141118920100206,-0.06544643042109573,-0.027562189555231917,0.00822639180078611,0.014109080841353747
0.506,-0.06279929921393777,0.018445145993291015,0.08146999933805182,0.023476204736416328,-0.07371394724881924,0.04998026448261325,-0.014437114282070963,-0.0492352453042749,-0.06121250289397282,-0.021599025233938647,0.015336248393767541,0.02248950277877425
0.508,-0.027828649696325473,0.06193546376911461,0.08961049582321261,-0.01564411506077724,-0.060920454274398184,0.07512202709379542,-0.020697631692169666,-0.048852792504655254,-0.061218438467825674,-0.017870078381737712,0.020043175238821882,0.030277709743476967
0.51,0.009619700601528045,0.09477785866818761,0.08486117273868517,-0.05065605973858328,-0.04000664659922699,0.08879035248697062,-0.026382286113417253,-0.057488571929708944,-0.06894829592594805,-0.02258883688864325,0.015397887900621889,0.030188044637861497
0.512,0.020240387225468996,0.08969597757267771,0.06925323755829789,-0.05305694855058225,-0.026907423284935703,0.07903919516070401,-0.024905890999969833,-0.0722624681411022,-0.0815856797731609,-0.03416542395573608,0.0026766125750069363,0.020738125430603063
0.514,0.007099874458322271,0.060403664596609875,0.05344755487118565,-0.03142286039366153,-0.025586337122116075,0.05742060100628316,-0.012711073615364004,-0.08126884362307436,-0.08956022709193949,-0.04267547637929227,-0.007454873671680353,0.010681763451429493
0.516,-0.005383950008559585,0.03999743279557061,0.04606376639558575,-0.015048025569879617,-0.028223823537167826,0.04357346786096925,0.0032584372056505048,-0.07578830821590091,-0.08649126136204043,-0.04151848300141473,-0.0073747311257822915,0.009169756971753314
0.518,-0.010696429714468846,0.03793923842885044,0.04964768705456893,-0.012214429592891318,-0.03282703081417459,0.043148917908907666,0.0112113608448422,-0.06010825124176177,-0.07601685084221488,-0.03336433885774846,-0.0003486918421372294,0.014797556866285092
0.52,-0.02112764644369273,0.0404430534088357,0.06232905641751417,-0.009437224653329745,-0.0443899058570459,0.04932045950558824,0.009822004678779974,-0.04414156415485735,-0.06540201113891483,-0.0236840419891341,0.00690550143456133,0.02073454426042619
0.522,-0.03967698772887355,0.038562010224786336,0.07837769233418333,0.00013858536136518066,-0.06122607806533979,0.05613702744215853,0.009246815409418576,-0.03304811202319775,-0.05761898106444619,-0.01533917475651998,0.012261759982632426,0.025041408845314184
0.524,-0.05332547670864602,0.039691762262409516,0.09273213606954965,0.006738492095500247,-0.07436564185184572,0.06508362085648316,0.016513991768231644,-0.02729501599548443,-0.05184482532304239,-0.009120356688954492,0.017015588450367027,0.0304495063529278
0.526,-0.0481430505150392,0.05852204645884329,0.10632759451583883,-0.004356054008555868,-0.0778856688125504,0.08280972835862636,0.02762294008521889,-0.025528828944822297,-0.04681446627834985,-0.004345617549471412,0.022674561071349988,0.03872006496171289
0.528,-0.021222178286370262,0.09765503032755157,0.11858359252982864,-0.03661181986134172,-0.07029704611473882,0.10875390337430965,0.03304930172576234,-0.0254968076029583,-0.04259615806715898,-0.0004954500786825399,0.028802570082626325,0.047694151948847116
0.53,0.01568645063156445,0.13599167863126352,0.12000817358048226,-0.07384420199781147,-0.052305710578930645,0.12717290122059033,0.027362056482195325,-0.026125557731744967,-0.040866029577048886,0.0005615026964987076,0.031990940416336267,0.0521343919088757
0.532,0.041433320470852346,0.14736992539661922,0.10572300846409044,-0.09214787584365045,-0.03185562067509117,0.12379276381443083,0.014883448321003379,-0.028253943679414195,-0.04275757263188047,-0.002873667340089026,0.029544705477473912,0.04854790613108562
0.534,0.04197815973588794,0.12978822077955623,0.0878097516161754,-0.08343332184290396,-0.022518985880947633,0.10550111994168497,0.005559592400151619,-0.032293250487701784,-0.046706401379249717,-0.00889368946636501,0.02351778410843577,0.03945921731548658
0.536,0.02106626039004341,0.10242586984786986,0.08159108255131971,-0.05949914110470151,-0.030370012805920565,0.09004573997759581,0.0049938069240363,-0.03670886263517595,-0.04970570054768104,-0.013749549768091621,0.01816258703501152,0.030858545283210102
0.538,-0.008182315972631686,0.07975706397673168,0.08833434394104564,-0.03418420805467856,-0.04889065563591055,0.08375522743981974,0.011450823227418978,-0.038448491550869934,-0.04969104630709467,-0.01462137646793244,0.015528256564599316,0.026495074103216887
0.54,-0.03249703962708778,0.0667665006714758,0.09964502373445565,-0.015916848548911577,-0.06673303822778674,0.08325026289820239,0.02178915431216962,-0.03346381042848329,-0.044892333614819674,-0.009085538552965382,0.016916870220437318,0.02781577491823728
0.542,-0.03924384051146605,0.07310428135050374,0.11242643139888533,-0.015353913261931206,-0.07637091645949148,0.09214280459749982,0.035447942559527004,-0.018705053912779716,-0.03258239339834749,0.004858059717129231,0.025983900873809213,0.03737595933646919
0.544,-0.02299887326567983,0.10892448358907812,0.1315584152479234,-0.040882075140237055,-0.07782853236793622,0.11932441438757058,0.05052748096554315,0.0023840345480240655,-0.013203725098417541,0.024969119452017883,0.044045014000139535,0.056086146953765056
0.546,0.004827759156559159,0.16358574538860565,0.15818689265153352,-0.08227703024320611,-0.0770837632759234,0.1602653552770715,0.05941308133000211,0.017771333800581806,0.0044969895582687,0.04238236366833399,0.06290706903272326,0.076641053627214
0.548,0.021238810254922812,0.2043867254485747,0.18271350112905424,-0.1116671355872288,-0.08074063563829655,0.19315474777257916,0.05448054713120182,0.016733838814837636,0.008714870496479095,0.04704252620849976,0.06950431684156334,0.08603246926014839
0.55,0.01331089132145338,0.20640797060723898,0.19283845748909587,-0.10957256295395174,-0.08947889940994833,0.19923565503444762,0.039467624254019854,0.001914863259425461,-0.0026041321346730218,0.037097421366201686,0.05945316822602382,0.07813673587497559
0.552,-0.007888153645917516,0.17817295186624466,0.18580880154804572,-0.085344672164085,-0.0965998225763269,0.18168449991936608,0.028844118068223703,-0.013701468082317043,-0.018504344023656815,0.021156322850498562,0.042122225404334836,0.06048877028732471
0.554,-0.022408169168074376,0.14893098376956604,0.17101454963922488,-0.06353241395194767,-0.09670631993534227,0.1597787406624947,0.03235747233983785,-0.02083116677285266,-0.02710745616519034,0.009850265207769516,0.03066274088762271,0.04587106603781558
0.556,-0.02569043724156541,0.1353927912120325,0.16070969723902068,-0.0550257054007242,-0.09358368013399221,0.1475520089834915,0.04562034502119681,-0.02027900850132684,-0.026958485188050624,0.006779142535821799,0.029343782291268918,0.04040337469700848
0.558,-0.029236310777208858,0.13033483240303437,0.159226189017891,-0.05066414155042605,-0.09520796599178002,0.14341052948905367,0.05751494379249653,-0.017167584731080536,-0.024236287812623873,0.008577822902573527,0.03260271844056805,0.041683225022959666
0.56,-0.04189353118700948,0.11931940253818317,0.16100488855675202,-0.0387790340325318,-0.10294905199343886,0.13810134780419345,0.059587735892085436,-0.01518883852233718,-0.024260530054617962,0.010303711916112502,0.033826024734304135,0.04405544502938343
0.562,-0.056201810845597354,0.10207618168202379,0.1581662221144985,-0.022831291337907574,-0.10862453202088106,0.12847117962257668,0.04829805509659905,-0.01596573888134405,-0.02763638142491946,0.00959486337172848,0.032646147431565034,0.04410914161343994
0.564,-0.05212186401204639,0.09808439190350338,0.15000586545661218,-0.022401797745433702,-0.10205934869264732,0.12366502178484136,0.02603004997166373,-0.01836569231454709,-0.03019826391595417,0.00867313549128694,0.034750171340997144,0.04443497833854304
0.566,-0.017309547732019075,0.12500010122766855,0.142065108162182,-0.052393918966104056,-0.0807717396489645,0.13406056632397714,-9.799929922191036e-05,-0.020426584936142137,-0.02845084130026931,0.010862079984092131,0.04333335133584627,0.04993596723790437
0.568,0.033342257878996515,0.1693522503338436,0.1360499469252767,-0.09888779750726465,-0.05327979237028055,0.15306890956398908,-0.023731629230520912,-0.02464201162777593,-0.027018933921879935,0.013800155354412808,0.05181919373007814,0.058518167011666206
0.57,0.06757727932795256,0.1946613619218401,0.12749171256141612,-0.12802215772528683,-0.03247726519066575,0.16060905544878795,-0.04171143508730071,-0.03519827468619943,-0.03362886771951275,0.011782478947862001,0.05135355082491553,0.06253181698417659
0.572,0.06977629992484795,0.18297457241032372,0.1135972463544957,-0.12325774885769707,-0.024060139621037778,0.147146255357019,-0.051946869911319506,-0.04947017002352068,-0.04645031052595992,0.005240605988961927,0.043286437840474,0.060437920985940564
0.574,0.051167793717421646,0.15005063859140624,0.09894129701161318,-0.09788219710381989,-0.02539217158988788,0.12336990863672871,-0.052952436077479875,-0.05972512466031133,-0.055695102898246245,0.00043439845194701964,0.03638412449735522,0.05772250076691282
0.576,0.025076668106518873,0.11784104105913812,0.09258372151410542,-0.06915716722957155,-0.03516571797494208,0.10453641081693049,-0.04573702820128376,-0.06219676037236274,-0.05654713557458982,0.0001104395915462196,0.03498663192927224,0.05688905286235135
0.578,-0.006593553196304327,0.0915922391558081,0.09806015084103387,-0.040496325463611135,-0.05376776357959544,0.09433503259922435,-0.03462668621370848,-0.059581881353147216,-0.05258636458666138,0.0012143640009275273,0.03648443667431134,0.055337846599112735
0.58,-0.03977658811910473,0.0691320782394151,0.10896555875431957,-0.012942177314696574,-0.07544481535332664,0.0883061800973282,-0.024564715305589926,-0.05676373084579127,-0.04897794089218951,0.0010263670849191043,0.03776537736077634,0.05218249833555959
0.582,-0.06023653829172818,0.05862364724063435,0.11905455764517138,0.002262190577355274,-0.09064617979961637,0.08784448542961791,-0.016871985245923052,-0.056465259163595134,-0.04826484836570492,0.0003208975275008887,0.039570245370677284,0.05133018543299859
0.584,-0.05595876115874031,0.07407065654894225,0.1302474288002991,-0.007764763740049813,-0.09488613261762652,0.10112771680470027,-0.01087289489846382,-0.0588650167575175,-0.05152999092817779,0.0002172474065418534,0.04360962786781333,0.05675569472046673
0.586,-0.03132040252450025,0.11490293542209024,0.1462827733998358,-0.04035494586482023,-0.09133549590856177,0.12958132511298118,-0.009083439790740949,-0.0642602726036735,-0.05899503846100827,-0.00027444467732916876,0.04800958907897997,0.06681198596138442
0.588,-0.0032767327849485836,0.16225793813596984,0.16533858351144926,-0.07755851699589479,-0.08661296889970553,0.16271982046745131,-0.01425525067352687,-0.0722345758026433,-0.06742031530393829,-0.0015554005820330521,0.050080011850008994,0.07615808530849309
0.59,0.014884560425962872,0.19565078151737866,0.18049063523171485,-0.10298004291583845,-0.08440330116194648,0.18681932739219245,-0.023028197821915307,-0.07872813957305971,-0.07073954042683046,-0.0016442768415691864,0.05118415199096062,0.0817659977533375
0.592,0.019745203931738984,0.20363927763180986,0.18379246960847123,-0.10992660444500398,-0.08328830132189922,0.19232426299065436,-0.029596253438755334,-0.0794821610680192,-0.06708966009378116,0.00020680163511934617,0.05328222871553089,0.08299828985876567
0.594,0.012469242976349807,0.18326834368518236,0.17088745557899013,-0.09737157864803743,-0.0802389142135296,0.175841646990134,-0.033559163102980974,-0.07608046710893913,-0.062284217886135584,0.0011493023684041193,0.05355551157914613,0.07858486473529155
0.596,-0.002803901767433787,0.1403677518519037,0.14327365185676058,-0.06904101551044707,-0.07343181809454583,0.14096851157560386,-0.039588274200973314,-0.07510361052404539,-0.06405668521578137,-0.0026937264328497465,0.04698145536360257,0.06747583092974005
0.598,-0.018951289916123947,0.09008903099285252,0.10904394915782321,-0.035090858648891145,-0.0638613102139968,0.09878505539717351,-0.04954305412704994,-0.08040405989382005,-0.07384479664623178,-0.012084732031130516,0.03390630275200814,0.05211965743131075
0.6,-0.030155538907055957,0.053409010922379076,0.08351112103908606,-0.009521573301678386,-0.056909694692605116,0.06714083914084039,-0.05560870303597956,-0.08571382324388949,-0.08322375080390397,-0.020728971653969728,0.023909314779052893,0.04107002570381886
0.602,-0.03270151509490033,0.04863202325232492,0.0813058016462222,-0.004846510467784455,-0.05753751374175073,0.06285132115831016,-0.04595545450476046,-0.07888207084028878,-0.08049077318009844,-0.01804959892619211,0.028304411479199387,0.045079324649321954
0.604,-0.021506068270849853,0.07880133972996398,0.10032316838915817,-0.025760213773977483,-0.06133636409683594,0.08694873937494414,-0.021888013808120967,-0.058764241418757295,-0.06504243737886958,-0.0024810064049364203,0.045863280705079855,0.06438899682751154
0.606,0.008188640015536097,0.12673414192163218,0.1185681453470212,-0.06547016476393797,-0.05517837766267871,0.12021387899156784,-0.002165843384060849,-0.0423289561458319,-0.05130807572619516,0.011969540806599803,0.06122806763950777,0.08362496029455872
0.608,0.05067070787122545,0.1669816709552602,0.1163131899542347,-0.10772347162796907,-0.03291367483740078,0.1399041258180129,-0.0025814690724253637,-0.04606688444473544,-0.052476829714729,0.011050103285110078,0.062017551290441265,0.08758498238113932
0.61,0.08191540635661505,0.1822423237769766,0.10031563096372524,-0.13148070067052436,-0.010064914780093914,0.14004859473466952,-0.017550556483060913,-0.06474768340634007,-0.0646476984561699,-0.0014899284911292657,0.052369797676569,0.07863501112784387
0.612,0.0759353994992134,0.17001436566653041,0.09407236074461209,-0.12207637823867794,-0.010739684639796167,0.13081164384760768,-0.0292774269767829,-0.07850495753244316,-0.07352739657922466,-0.010164947417807194,0.044483191952301125,0.07019349478004375
0.614,0.03681600412263282,0.1408309101610658,0.10403984922904856,-0.08681349313594924,-0.03576354939926435,0.12127486632209829,-0.029411502094124603,-0.07776829369617984,-0.0728647615006807,-0.00894500157903317,0.042072355625153095,0.06737069978336888
0.616,-0.004325788309175229,0.10852572001141894,0.11298786316647552,-0.04906450595013311,-0.061107597491139976,0.11022954616431829,-0.023857862541315365,-0.07113932053108088,-0.06951781042459354,-0.006068710234793344,0.03890837345719204,0.06375345977093452
0.618,-0.03252036246472545,0.07701035611965333,0.10985890543275525,-0.019174214563351284,-0.07375998844737844,0.09364266395679796,-0.01972243011884157,-0.06939553782257926,-0.07158896963709496,-0.00946222657562211,0.030468643794393666,0.05446356874513578
0.62,-0.06320517114121321,0.04299176312017772,0.10661715630192573,0.012395535146254659,-0.08727008791767814,0.07519758993014776,-0.01622121854908526,-0.07130083211651186,-0.07786739709483563,-0.017142791655846774,0.020134187771860095,0.04309472414849251
0.622,-0.1006769963452183,0.014202340805273802,0.11513332050144949,0.04473404443808501,-0.1097801872760844,0.06470917866434463,-0.010733280697468262,-0.0695024393727261,-0.08212393340550543,-0.02348977247621478,0.013178022468989753,0.035263213758602155
0.624,-0.11226095014933055,0.01202523955391879,0.12426107293751591,0.05127738605934828,-0.11948859291734426,0.06759786772625004,-0.006528033429308656,-0.06296800205163576,-0.08235584889373088,-0.027171948815965123,0.010490112542839531,0.03234966472678791
0.626,-0.07089556167420896,0.04682479191571479,0.11757567275555156,0.013438318464301897,-0.09475511984057054,0.08086791827012586,-0.008638230536120143,-0.05659112661453937,-0.08101376401730401,-0.029480550480165183,0.011108821536788707,0.033376017642879695
0.628,-0.003627428999225641,0.09576584967121082,0.09933029211238012,-0.04397672949064062,-0.051571629214504956,0.09532584793688917,-0.01786178264682357,-0.05488948072985972,-0.08208092986303665,-0.031868332812900066,0.013689550074654685,0.035928509213073154
0.63,0.03123605612685107,0.11536616796148941,0.0841757423074126,-0.07077338833146682,-0.02685236286072183,0.09707734925982031,-0.032177922601931135,-0.06146372070550783,-0.09026966385023105,-0.03823939872986599,0.012308348673728067,0.033660248144308694
0.632,0.007097393385335315,0.08322363671043137,0.07618229803058732,-0.04301612497333615,-0.035967487801081166,0.0774539262389248,-0.04696932700645641,-0.07720923930513775,-0.1061269498114548,-0.0518726205842487,0.0005346696419972639,0.021344382461534188
0.634,-0.045525709989434615,0.02639678201507265,0.07190281239888856,0.011087991341908054,-0.061339379056112225,0.04811631188531427,-0.05331884203952535,-0.09430717373083519,-0.12116427282351167,-0.06704877128752225,-0.01641423214213138,0.005105139073816655
0.636,-0.07394929656922208,-0.0030758625195026683,0.07071275814242171,0.04005645933910037,-0.07548319902557733,0.0339622916421177,-0.044193312690895346,-0.09889462629407023,-0.12385355868866449,-0.07149607314573309,-0.023427517779440507,-0.00046739449759485415
0.638,-0.062033893220750515,0.012162503636918346,0.07385372278938969,0.026860686042800168,-0.07060393968179698,0.04351789566484373,-0.024030795238045913,-0.08617364959257504,-0.1130287584817539,-0.06149430747867877,-0.014468703326234686,0.009679172655825866
0.64,-0.04489247727334558,0.03543587268215486,0.07991446182360915,0.006542387633562506,-0.06402163089544559,0.05780291625316799,-0.0072199236265644215,-0.06859463359309977,-0.10103094516422531,-0.04832731681854124,-0.0013021507593179735,0.0230251923009987
0.642,-0.055146258800525184,0.02993440310780738,0.08483760313754501,0.013792756545217277,-0.07087030752866366,0.05705085713568096,-0.0046902868107933935,-0.06178028366105987,-0.09888009393398597,-0.04453257731241224,0.002185970047880039,0.025676008797307925
0.644,-0.07569364077386331,0.01109658395185615,0.08681710315994554,0.03294875316615288,-0.08208563865924798,0.04827662119134808,-0.013839619633000915,-0.06552696149537526,-0.10272892186348939,-0.04844121667041609,-0.002820224270835056,0.019954813652183868
0.646,-0.06689063300622343,0.02199354947885159,0.08904568352303752,0.023084934958103542,-0.07911855166264255,0.05424860133912652,-0.023594494649334576,-0.06743533666927222,-0.10165983895065756,-0.04866213473170926,-0.004724406240292573,0.018466096556852208
0.648,-0.021802587870404223,0.07077803469169473,0.09277151849964704,-0.02328289567674222,-0.05874486180225407,0.07985119306623642,-0.027066669649920282,-0.06330933300376224,-0.09495734777012836,-0.04177705578821003,0.001002008302297944,0.025297206518902323
0.65,0.026883808187594484,0.11843849890812996,0.0918157063858302,-0.07081317804875759,-0.03428494452195532,0.10324715841597278,-0.024505174117967002,-0.06235431775796242,-0.09238945472549301,-0.03741717773675526,0.006544544341838472,0.0316935147117794
0.652,0.04257184779864759,0.12479124006361116,0.08245704318981209,-0.08185976371959655,-0.022311775594737772,0.10244698529347586,-0.017483751365535805,-0.07129203059342096,-0.09905361655638273,-0.04404174140956129,0.003656428619026432,0.02899886075966721
0.654,0.014057645780885083,0.08784444809730649,0.07371318130355664,-0.04982957013853269,-0.03264547326282311,0.0799516007711305,-0.009010175103116413,-0.08442038631411888,-0.10944504272740689,-0.057242379403241055,-0.005948908567560316,0.01877423519537279
0.656,-0.03700718983548225,0.0405957362835584,0.07718293615393419,-0.0013276905528828565,-0.059884019170919886,0.05749811309114495,-0.004806922305360218,-0.09029905534860823,-0.11477792651005245,-0.0647462346963421,-0.012872492677649748,0.010715295362313623
0.658,-0.07375499912263159,0.017327404095259548,0.09069552682422223,0.028685752793030667,-0.0846152735754009,0.05182946670248827,-0.006221264964327887,-0.08262878216559369,-0.11008675909521894,-0.0592892456650082,-0.009594437873449565,0.012943477576465039
0.66,-0.08372326396003152,0.018554057481603218,0.10223126749517965,0.03381218330282442,-0.09494286514778065,0.05823577858460974,-0.008308457702754625,-0.06707349914197804,-0.09855771219184738,-0.04639978390319065,0.0006704748734294405,0.022282487064570852
0.662,-0.08818255813579229,0.01748629931098547,0.10584883354954926,0.03754542724288516,-0.09861163947146545,0.06037475590977971,-0.0077877874320323,-0.05639897500698539,-0.09022359081989041,-0.03843583901077275,0.006501175232349276,0.027504624766395112
0.664,-0.09671342266008781,0.007092948556335433,0.10390300243149628,0.047447723339392185,-0.10146728606113876,0.05484806691332177,-0.005480266432478684,-0.055564009075859906,-0.09117047833237563,-0.039930488709667845,0.002861416135854732,0.024538722394057962
0.666,-0.08385138295053018,0.014571344959010885,0.09823151661237453,0.03707278164471506,-0.09161519048096392,0.055327613955995114,-0.00431549559824619,-0.058114973515337016,-0.09702700957151573,-0.04399251390375418,-0.003099018896195128,0.020656136129904943
0.668,-0.03632088702989454,0.05507700541633579,0.09085658546872465,-0.007295943776872474,-0.06361486124985292,0.07079836958361335,-0.009385665149947563,-0.05806072810260408,-0.1004327940186671,-0.04340774576132749,-0.003401259566493137,0.02239082325356729
0.67,0.009334654038234564,0.09920207105562937,0.08909828071019416,-0.0523822634987742,-0.03995948644654748,0.09139185675978424,-0.02174822367230171,-0.05632154122819314,-0.0995548066264061,-0.03887697099032794,0.0013733910126092579,0.027488508389336593
0.672,0.010323940847073648,0.10647604077537695,0.09548777754705975,-0.05664720815171981,-0.04361042217880386,0.09875706816697272,-0.032193056052249716,-0.05682554972798811,-0.09809474932425813,-0.03693194640150249,0.004539742210800737,0.028701297811384845
0.674,-0.024333032002293427,0.07374533675392722,0.09774468888629712,-0.02305644728539107,-0.06329625538600363,0.08469053609127,-0.030620919147822268,-0.06273882048148607,-0.10112653255400825,-0.04326473448497585,-8.34443938220029e-05,0.02141493632120186
0.676,-0.052407286913330894,0.03267022261986581,0.08491519960998907,0.011463564317734515,-0.07146421466062298,0.05849125965005073,-0.01904094675079822,-0.07316354475303263,-0.10973250593642164,-0.05603374602716134,-0.011856792680597496,0.008951445215471525
0.678,-0.05769469171376616,0.00959944225390581,0.06706250143414008,0.02550192372217588,-0.06470232779352862,0.03767169894512717,-0.007931068355022245,-0.08049940250254128,-0.11759593968421983,-0.06515564150397105,-0.02166655615416754,0.0006165537915561498
0.68,-0.059081108586281295,0.005354419103840029,0.06419192766008838,0.028095308297148312,-0.06283276392421173,0.03311804212565698,-0.0028146318943190313,-0.07603283645587129,-0.11563212958220921,-0.06135863137164561,-0.019976733361605048,0.0030750786949824108
0.682,-0.06914807323136625,0.011248580339001515,0.08032716490889344,0.030176282326624906,-0.07488087977471813,0.04363389462723233,0.0001962827863725741,-0.06018492440149955,-0.10177076761373684,-0.04622797221178927,-0.007053290243975618,0.014449458992796725
0.684,-0.07172009899853267,0.02713677222065589,0.09892848423151866,0.02396513097837032,-0.08514247877376421,0.061148166515714135,0.006578389816763857,-0.043201876557156335,-0.08435227230373742,-0.030830758854154688,0.007447139682638931,0.027050171073555503
0.686,-0.04891824496137138,0.05548222700668667,0.10435881197257066,-0.0009156122244999575,-0.0770379748267657,0.07849480189121405,0.01475597862351289,-0.034541364590041035,-0.07443532196785572,-0.02423978344972158,0.014906636981381869,0.03462268338287287
0.688,-0.014994190623327368,0.0867952539173688,0.10145688252344542,-0.03321077154771698,-0.05967715715750568,0.0931768084737922,0.017756805178833143,-0.03406316758526919,-0.07528389935261443,-0.02566393072693835,0.015133811543295624,0.036473017532919795
0.69,-0.0022815903756850777,0.10465080456201113,0.10643659691118179,-0.049042232014596725,-0.05649051530440847,0.1051604387036909,0.012744586973591814,-0.034236006253709726,-0.0802594977638271,-0.028101154709792547,0.013462715404821319,0.03573809152029676
0.692,-0.013656712063027808,0.10786890910767974,0.12111672887662743,-0.04621434275350793,-0.06934633867979763,0.11423521209230818,0.005173525882438507,-0.028957126423900054,-0.08028788886560302,-0.026464959015608313,0.014436649339187925,0.03607174455462597
0.694,-0.014701022123818712,0.11390052091164896,0.1283170980698688,-0.04979303443641698,-0.0730414290052455,0.12007726817318225,0.0015127997119544503,-0.019544826556998553,-0.07319410712173674,-0.021043769230325717,0.018551760256636053,0.039237439563862185
0.696,0.009974536027502803,0.12553666544516007,0.11530560670824641,-0.06794099028983988,-0.05441458880156278,0.11843419176305488,-0.0006288473184189879,-0.01475374307656195,-0.06776146281255739,-0.0175438964132594,0.02032519848211581,0.0411886179091596
0.698,0.01917252169828315,0.11101559109880342,0.09165101031349589,-0.06407423287299446,-0.03877299853228787,0.09942391027510755,-0.010393768670436107,-0.02395822213766738,-0.07613400922254786,-0.02421400122681629,0.011258011368737806,0.03280022967347277
0.7,-0.030837328775471975,0.047904596016827894,0.07871053140740567,-0.006027956953998036,-0.057830264679310794,0.06250428280797177,-0.028343993955077418,-0.04530834031256759,-0.09745162416475531,-0.04187507254360758,-0.008383626578250866,0.012623297777483108
0.702,-0.1144551559525577,-0.02778276628682053,0.08675639878496463,0.0743207567272744,-0.10337757316972009,0.029503968291884904,-0.04051541727113595,-0.06342813749265545,-0.11445572907958017,-0.057827306380376364,-0.024153161375533413,-0.004935610247974658
0.704,-0.16039901668597586,-0.053548727442904336,0.10691474688771982,0.10984517743874195,-0.13552973091157394,0.026416215994394688,-0.035641464504490135,-0.06499957409969881,-0.1132216757496628,-0.058790526873587726,-0.022330437463765864,-0.00403514043694719
0.706,-0.13655899471117017,-0.013320588180122283,0.1232264376894032,0.07691862909857183,-0.13095589651301326,0.05400437449380068,-0.01992329228521556,-0.05319949607688528,-0.09979455099287747,-0.04792151568711538,-0.006670015441626213,0.013692704852701363
0.708,-0.07750589048737452,0.05060775703960437,0.1280948059352517,0.014351484007836302,-0.10372714399653177,0.08825724255466949,-0.006404753409514694,-0.04227213824060915,-0.09043691994853538,-0.04002252856910821,0.007120771819748367,0.03201042957739817
0.71,-0.03349837777034184,0.09211293606880633,0.12572931395279818,-0.029399000706839547,-0.08104950368686559,0.10795078605525579,0.0009827462013838424,-0.041281490263421976,-0.09141974428593995,-0.042060789565086645,0.009668846473763886,0.03859738624770179
0.712,-0.01910899854743647,0.10401537175895181,0.1234675405129627,-0.04291902598224244,-0.07324077284396388,0.11252687521830378,0.005010296473890958,-0.0473826913422563,-0.09607168885514804,-0.047612912412297086,0.00452934330286957,0.03513868841964484
0.714,-0.01809120412596232,0.10454081651419231,0.12304747410977128,-0.043071462143502895,-0.07227752085050292,0.11224578923995804,0.005402771927498677,-0.054428534937955686,-0.09920704483169852,-0.05060418173126546,-0.0011635306193446828,0.029423440422998538
0.716,-0.020504587350382384,0.10381510266665,0.12444240054034503,-0.04046190340109467,-0.07314661185826958,0.11269923706788394,0.0010920786384663891,-0.0609770614382961,-0.10386152789792172,-0.052869022769383135,-0.004904333620282151,0.0251042437715937
0.718,-0.03208493588549105,0.10228387862140606,0.1339849954836798,-0.03362924332084782,-0.08291414757211585,0.11698246357960303,-0.0016851110409025316,-0.06425049951840824,-0.10921483949924941,-0.05283239047862737,-0.003843464344376085,0.024749477255731272
0.72,-0.05161887308277623,0.10631414870513445,0.15722993349596956,-0.026709799560195,-0.10478906096387222,0.13034829573121398,0.006803621183305809,-0.055671968251525386,-0.10364145606430254,-0.039853236370853244,0.009447287056222555,0.033460540308537665
0.722,-0.0656279440261712,0.12089606431664973,0.1858810172064384,-0.027888897573067582,-0.12758514137836022,0.15114499267625522,0.026849334300212368,-0.032354166750816836,-0.07941005068342606,-0.00960508711638399,0.036414129396828455,0.050202427985411725
0.724,-0.06550224668587701,0.13860073674063078,0.20375554176227853,-0.03660045617047085,-0.13745622812500694,0.16840495451386123,0.047266558974247995,-0.002815609765408611,-0.04273658558616287,0.027252110135188808,0.06570064692978672,0.06496625598693566
0.726,-0.050255975728389836,0.15481919790982493,0.2050217151576886,-0.051065995238886164,-0.1301640577798265,0.17761835126054484,0.060156416983865466,0.028642899943755695,0.00020669026926993864,0.0622206561650074,0.08729007213911405,0.07268687061586462
0.728,-0.02005669757312609,0.17816502903358317,0.19831087983022136,-0.07652227438692723,-0.11094419361220703,0.1872357426524236,0.07113035369127955,0.07022193056009325,0.05326748776600635,0.10189590738256084,0.10531841450908917,0.0802540971418862
0.73,0.01554455419804892,0.21025267855887322,0.19477735154237638,-0.10987165877123836,-0.09133150001473977,0.20277776376278495,0.08787103403867348,0.12532123364468006,0.1180058849159469,0.1546635343213188,0.1294582415178309,0.0948831015825735
0.732,0.036893139492411985,0.23509272175420035,0.19819169832039935,-0.13330326936432657,-0.08289742013235447,0.21738037851347983,0.10582993787942674,0.18188691743135904,0.1875996305171614,0.21950209053323474,0.1642664678635235,0.11657826229578007
0.734,0.0377081377175498,0.2428444696503007,0.20509762101093823,-0.1382285457043093,-0.08599826558513893,0.22432384691323207,0.11451562111095773,0.22935666241676045,0.26093418614652164,0.29607443259705346,0.2127064650503316,0.14478642667404384
0.736,0.03408236631422602,0.24467961619187806,0.21060495805173918,-0.1378303278095407,-0.0896597916261908,0.22713991665559893,0.11185531411511769,0.2736715769786823,0.3484435498999511,0.3917761845269253,0.2790137059213535,0.18166891858756815
0.738,0.041674694087366425,0.25519246898938225,0.2136630292758832,-0.14711558163227437,-0.08618861425583846,0.23307695798490422,0.10444091326462329,0.3271698908381155,0.45800408144334903,0.5128385914978417,0.3636717980877392,0.22759160927863
0.74,0.061516384334855075,0.2801993417703772,0.21902466977480134,-0.16979710410946683,-0.07850647490317392,0.24790601527160494,0.09831215519088841,0.3933230007689249,0.586397965152053,0.6590229226941836,0.46441608989794847,0.28300286416208253
0.742,0.09052232742647895,0.3249831399048269,0.23488264316024318,-0.2073040919819807,-0.0724402775278736,0.27856354802262034,0.09603535269249319,0.4695900628522414,0.7296927270040835,0.8298269471452229,0.5829301794474733,0.3538650409656281
0.744,0.12886055356876788,0.39308569242097435,0.26447252812876565,-0.2612480584982529,-0.06863303360131658,0.3280697111314037,0.10132629773475364,0.5594277201979024,0.8942614843302208,1.027162220657315,0.7214894625846301,0.4443923054798431
0.746,0.17652161100693278,0.47451974020898774,0.29799093040434727,-0.3260574008455382,-0.061578643768457536,0.3858816192793317,0.12034699742438244,0.6701789146604032,1.0889581476977261,1.2469515404292504,0.8719170935430057,0.5440044419309562
0.748,0.23062268022971497,0.5488881313241558,0.3182537632281602,-0.39000109506825203,-0.04452043310965088,0.43295753833278955,0.15403602373382952,0.7942381860291553,1.3016247608619111,1.4679047967624808,1.0128250786092645,0.6302065458867271
0.75,0.280151607542038,0.5985700556693461,0.31868587556094546,-0.4391804947060427,-0.020074816252549192,0.45775278496586924,0.19298495283694275,0.8981262044861178,1.4845092073736124,1.647347388996493,1.1164768388735522,0.6844289112538519
0.752,0.30123360474786615,0.6134274208399635,0.3126845063908083,-0.45681106383239356,-0.006784930965823593,0.4624906459928586,0.2260880058867979,0.9408487232866225,1.5719832039819248,1.7323330241797754,1.1579935890374438,0.7005264350987479
0.754,0.2702602537070445,0.5886568953898781,0.31883816443254975,-0.4286012649876427,-0.025732414250835715,0.45361996488756945,0.2503627858022406,0.9067326163818767,1.5236668634745587,1.687716399892354,1.1264887544337887,0.6820296759668688
0.756,0.1906355446533802,0.5206867988794605,0.3303543156704307,-0.3546170579653358,-0.0716997681884089,0.4251885745263375,0.2687655227229273,0.8186056786930672,1.3555284986151634,1.5177327841009094,1.0287661990909174,0.6336964670071423
0.758,0.09793854041026528,0.4024323850910833,0.30474159985121746,-0.24936392094224216,-0.1051459079007272,0.35271855502783206,0.2873894671804864,0.7220963595635723,1.1268383250871707,1.2519598227816071,0.8729926652230685,0.5508161499251244
0.76,0.024362544624498144,0.23246959987285234,0.2082847869535029,-0.12801878712994194,-0.09317036242107844,0.21934388967000223,0.3164442875272626,0.6556747723599643,0.8931912395793272,0.9175985343957994,0.6575637241155643,0.4235164912568641
0.762,-0.030665949475594916,0.04207898379410305,0.07277425552656593,-0.005537895386004233,-0.05287233489356078,0.05630005048368365,0.36074633463451633,0.6245569413499772,0.6738293257234217,0.5458516787647693,0.3956134132663687,0.2631285948197967
0.764,-0.074750423728389,-0.10200106005702217,-0.027327822813244876,0.08848665793081976,-0.025547797600409473,-0.06631881355294206,0.4089509517420502,0.6007361067619685,0.4618976870294099,0.19115823329271628,0.13610723638933872,0.11052257763654134
0.766,-0.09419227126193015,-0.152626948365454,-0.05849474642514906,0.123428614341734,-0.020146601586631025,-0.1077166347280715,0.4441240983520636,0.5532040125664686,0.2501988623717711,-0.0950510007147794,-0.07049481055671578,-0.0019185180861631523
0.768,-0.08640776950218326,-0.13469316152862112,-0.048253110117220756,0.11065596063691434,-0.020947445173688597,-0.09363272858574372,0.46396773357084414,0.4786457924199843,0.043529344908088,-0.30474132646529406,-0.2173400317615743,-0.08241415720716425
0.77,-0.08918739940816882,-0.11069660357278381,-0.021318338987813636,0.10071421289079026,-0.03491338603200308,-0.06810828613239875,0.4832365816776219,0.4045437751132941,-0.13603469193400752,-0.455124692066071,-0.3241331151367666,-0.1525377801653575
0.772,-0.13459419995522498,-0.10364466914156789,0.03142095412555665,0.12097019884982751,-0.0832752916205102,-0.03849558043345511,0.5150811698352585,0.364046958440884,-0.2556843782583379,-0.5459983812382675,-0.39286801898487184,-0.20757314305118385
0.774,-0.20032337766707634,-0.09133846273986913,0.10974255879727889,0.14842332724182167,-0.155006793205417,0.0065416216926062355,0.5543496547659899,0.3677133324938435,-0.2974516883237151,-0.5672492780187599,-0.41228448155695185,-0.22978064988529928
0.776,-0.2430796932085621,-0.06226005086274686,0.18161534195015833,0.15512381183113794,-0.21253143814609987,0.05718017828698893,0.5864891720439441,0.4013172429890858,-0.2742061667593233,-0.5318704413302445,-0.39093020018484514,-0.2231375365681801
0.778,-0.2551724833516831,-0.03285009542500713,0.22285895795345997,0.14573071485687128,-0.24001697327613092,0.09310633397148285,0.6106603051485855,0.44562365699027473,-0.21892678929596335,-0.4751083516020366,-0.35665656761801523,-0.2101077561805378
0.78,-0.2620196584016446,-0.01754938684725473,0.24459817900524886,0.14104533159851984,-0.2554697156472528,0.11243314278915201,0.6422753990175587,0.4896991743845838,-0.16560565195728305,-0.42785369067022916,-0.3303750004950796,-0.20468682790650058
0.782,-0.28395825422051146,-0.01473970956885739,0.2689627892872662,0.1507603872701184,-0.2794357242060983,0.12660734254391914,0.6921511014563758,0.5291510613415306,-0.1345715624674337,-0.401005159187071,-0.31652806666131245,-0.20509604634923334
0.784,-0.3141342116364531,-0.01388595766942835,0.2999113187393275,0.1655260954381251,-0.31003710549187585,0.14233600153684497,0.7550652335184619,0.5643478518231831,-0.12405791722918462,-0.38800210094203696,-0.3104795256871856,-0.20508742284427672
0.786,-0.32542607377980354,-0.0015342411135306322,0.32391734024661367,0.16467996572738292,-0.32710452199134693,0.15968008852061863,0.8193576544324321,0.6013921469047167,-0.1172462618142622,-0.37663853121144114,-0.30496973296711577,-0.20176565115886275
0.788,-0.301808912325506,0.024483523664679274,0.32673616220271295,0.13979129848891508,-0.31591623027831983,0.17354381405596186,0.8755086176139049,0.6411150313968403,-0.10553133857243967,-0.363569453317046,-0.2977681712975318,-0.19810575546298087
0.79,-0.26448677194784553,0.04345838138816976,0.3083669198365787,0.11228302565850745,-0.28746787012170794,0.17415488021903117,0.9160185418598628,0.6670305955557435,-0.10116429424448511,-0.3580681607239651,-0.29637043623693476,-0.2021222145036199
0.792,-0.2536565480712127,0.03279434293262325,0.2865007146581877,0.11286673537537138,-0.27096476485256965,0.15842585148843563,0.9404360330169269,0.6618297833389721,-0.11830475717524512,-0.36765636690192105,-0.30743673624367074,-0.21747104211459722
0.794,-0.2813581832712596,-0.0005353044564383558,0.2806260402319279,0.14324921141853272,-0.2822372862028433,0.1388295849270887,0.9623060148055941,0.635809133215352,-0.14788924971562292,-0.3841233358254723,-0.3237166075161956,-0.23509781349508738
0.796,-0.32089444557136887,-0.030216246662766993,0.2905496414010228,0.1772082789483982,-0.30762731176825436,0.12881441775849223,0.99859944825416,0.6196257541414278,-0.16477822042397144,-0.3907590329655362,-0.33049551347357675,-0.24207244373028458
0.798,-0.34996995520241886,-0.05090851048818967,0.29912576692775833,0.2018552555709339,-0.3268837860185105,0.1231776374832887,1.0464886115401035,0.6264859796711898,-0.1584654270872457,-0.381480681864013,-0.3235863351869925,-0.23763816811923769
0.8,-0.37575820777273866,-0.07910086719809875,0.2968787747273448,0.22924698118359896,-0.3384095521030021,0.10848506141750573,1.0823591413631075,0.6385061223938151,-0.14332090818160764,-0.3649675210699219,-0.31129364152221145,-0.2314284924026749
0.802,-0.40067919365790167,-0.1097930676443468,0.2912338402212536,0.25736342252830874,-0.3473260416385402,0.08992846985229809,1.09146704411913,0.6336685814858034,-0.13600127578554727,-0.34971000670461716,-0.2986164682656262,-0.2266969411547775
0.804,-0.39792484788589744,-0.11005920410313166,0.28824893323440554,0.2556837743394076,-0.3439274033978291,0.08723427745827093,1.0835357894908302,0.6081449865014555,-0.13777722092880063,-0.33565098750249484,-0.28276822297160836,-0.21767445439231897
0.806,-0.35054016520282977,-0.07077537951655623,0.27999048153535633,0.21157333844073364,-0.31613027202308247,0.10244652732277323,1.0704200547304585,0.5654296395199614,-0.1458427112076086,-0.3242526149127845,-0.2672561899934379,-0.20520203948733426
0.808,-0.28904994153070657,-0.029598821779276738,0.2594326277001237,0.16020209549553394,-0.2753658794277829,0.1136697845597066,1.0490780498648167,0.5047442924795292,-0.16367944813385946,-0.322439497873301,-0.26285296417860526,-0.19952419408644761
0.81,-0.25781207710027415,-0.022185348563556827,0.23550064137309942,0.141857548914298,-0.24772150950157348,0.10616299654252645,1.0174035911927548,0.4329539485609099,-0.18879240578135204,-0.32862140519315186,-0.2681321994465083,-0.2027389056530303
0.812,-0.26232723137305236,-0.04132566262439117,0.22092190836248485,0.1547480482198305,-0.24237259371642006,0.08888996912832457,0.9847945632882135,0.36891540283550733,-0.20775674051577847,-0.3295163309540148,-0.267324130767216,-0.20383695362241117
0.814,-0.277798803908544,-0.06396152842862825,0.21372201970957858,0.1740589529478009,-0.24663070918288896,0.07328310778051822,0.9572825081404812,0.3234838557884265,-0.21388111229584916,-0.3186649466841822,-0.2539693811962768,-0.19627210678530158
0.816,-0.28924156250396776,-0.08756667991811591,0.2012656842427165,0.19107714627329228,-0.24669913505054572,0.055392291315550596,0.9310749213366871,0.2893783246616584,-0.21487435003616484,-0.30451675604925144,-0.23980538489930092,-0.18665144071353676
0.818,-0.298310861188344,-0.11803764029909618,0.17952650751029064,0.21007049634292538,-0.2403368982065832,0.029895859087257837,0.9049992643396078,0.25617865012811286,-0.21703840175331884,-0.2945510815827559,-0.2344176976252794,-0.18114126131359273
0.82,-0.3093011012422518,-0.1462854945075566,0.16233409938665322,0.22909084942927171,-0.2362369280246379,0.007361594551461578,0.8822630613017834,0.2218740520383986,-0.2158921849630979,-0.2840855765032959,-0.23043279633291547,-0.17474460591740767
0.822,-0.32311095693936864,-0.15652950525650774,0.1664690105512325,0.24106134702758325,-0.2445115902057677,0.003979578852062732,0.8571307859102579,0.1876861899285902,-0.20783291049006616,-0.2671620395622102,-0.21615021951589022,-0.1601937881675517
0.824,-0.32868482011032835,-0.14261585113792366,0.18657501221239256,0.23725467596372882,-0.25810121308476686,0.020587877553344697,0.8139749009294951,0.1533317115415923,-0.19938945351126433,-0.24801117293788225,-0.19246578597828093,-0.1396642832285399
0.826,-0.30193601144103355,-0.10601160328814094,0.1965670159399092,0.20570870771828928,-0.2511485055332606,0.04360657106607412,0.7457795675069616,0.12088823167736597,-0.1971930941819238,-0.23311526636507826,-0.16881788746472656,-0.12036216341823258
0.828,-0.23639011199000923,-0.05304023419125894,0.18362384969263357,0.14615129315952682,-0.21237594444403401,0.06353022602012674,0.6662510653579475,0.09718416576907746,-0.19601143393655157,-0.21922668400186762,-0.14918545795304258,-0.10308968068385214
0.83,-0.16643403915212246,-0.0016877391505538408,0.16461272422639012,0.08521533201812043,-0.16710554096224398,0.08009637330595762,0.5960012999327592,0.08637129721749717,-0.1865988802807722,-0.1992742877411785,-0.13133114654826597,-0.0841332791485989
0.832,-0.1338416917645057,0.024811950922627578,0.15842403567901478,0.05548373984931915,-0.14665454969794117,0.09115624256840074,0.5404711784340872,0.08138532654719428,-0.17123439134594773,-0.1755231875767508,-0.1155964943840541,-0.06598872802918047
0.834,-0.1392733208814071,0.022227552805851803,0.1613351365958432,0.05909535259471145,-0.1502175365493895,0.09210238080432927,0.4897951696036897,0.07132280542983631,-0.15927193050967348,-0.1556903385089772,-0.10361284656022235,-0.0547257517888264
0.836,-0.1478755847213443,0.012319308923507475,0.15993902988552564,0.06788011275932306,-0.15369411488327317,0.0865992112866435,0.43586326234267464,0.05729096052766573,-0.1501857615049148,-0.1387290393454538,-0.09043040650346507,-0.047339795940947116
0.838,-0.1371490700277291,0.015026429245567774,0.15168492340734308,0.06103102033991919,-0.14439856777572016,0.08356949880382042,0.3793357474431768,0.05056176512947038,-0.1344865525241751,-0.11655461280050966,-0.06921898998823646,-0.03408572518727114
0.84,-0.12041582745714419,0.023977062891477347,0.14378957785900875,0.04844706156175632,-0.13238304256575942,0.08384011141541083,0.32339213306735626,0.0551501921365422,-0.1103663176200856,-0.08877565603135644,-0.04317761510125774,-0.013823545328962
0.842,-0.11841613716745426,0.022507813255959096,0.14048288570060263,0.04868832297141072,-0.1298742857829268,0.08111101368692121,0.2694902668900452,0.06197533926363621,-0.08845543110917217,-0.06491203786220262,-0.02350843913425869,0.0035742845545214397
0.844,-0.12410401039098454,0.014637315611649878,0.1386216099735811,0.05621666766187146,-0.13180915999353107,0.07561378443113445,0.218836756762958,0.060774857903704085,-0.07893452574532661,-0.05233135086300403,-0.015953897272133217,0.010852127680834864
0.846,-0.11134176847408138,0.023864327698156915,0.13531428654762104,0.04601483847847723,-0.12392285156247741,0.07795133656109683,0.17327367858425516,0.05166611552946871,-0.0796389126411623,-0.049253253965808354,-0.01564470840896822,0.012345266222921241
0.848,-0.07223283737503028,0.06168627441018394,0.13405537216590888,0.007755539908788506,-0.10397675609345064,0.0961174453273692,0.13302201284470344,0.043300393690151096,-0.07934377950235418,-0.04890916423182183,-0.014682124520942193,0.017490695782405676
0.85,-0.030498835296116394,0.10770434351374931,0.13835969815922028,-0.036881222745177106,-0.08545700694820495,0.12166077873866678,0.09557302815720105,0.04122136443455699,-0.07171869491991295,-0.04665555976970308,-0.010727486132411743,0.027807184850627265
0.852,-0.013255619964333684,0.1293914220549956,0.14304780193099614,-0.05737510959479376,-0.07950381636763426,0.13522901979155855,0.06032548809835701,0.041816937881397266,-0.06173721957865465,-0.04240694419812204,-0.006511913870628156,0.035009484286449385
0.854,-0.019222018128588775,0.119663375890065,0.13960590883563095,-0.049592319507857946,-0.0811577978779578,0.12864250858680862,0.03260045947576968,0.03967226595062784,-0.0560664869199254,-0.036994476576188984,-0.0027152585257663336,0.0339414076139609
0.856,-0.02786649686014327,0.10022365977768505,0.12878545626397647,-0.03443709685942553,-0.08002596984056384,0.11321688160341593,0.018240638714517254,0.03546741706296139,-0.0535863686666455,-0.02966632338095117,0.00358829743369739,0.030293008635832813
0.858,-0.033924525237045276,0.08666310667071371,0.12084166472811533,-0.023471687118365937,-0.07847950299280167,0.10221247305870243,0.016707342412953376,0.03367015172185982,-0.049462518202574066,-0.02061749885547793,0.013115922705443137,0.031955141860958894
0.86,-0.051133366309601865,0.07273801704289526,0.1237020994181902,-0.007922265676435917,-0.08781631903374443,0.09668081896678399,0.022843131720222967,0.03705048449106373,-0.04230317000818157,-0.011818540246766674,0.022783012274753343,0.03975657669148603
0.862,-0.07943781374237344,0.05634091584567106,0.13555759250339527,0.013151514664809643,-0.10761901010814544,0.09454659246795227,0.03138045123071997,0.04533740533284381,-0.03333973137839083,-0.0036719762033168256,0.030992377627025294,0.04999033889114874
0.864,-0.08940407507995521,0.05931149897141461,0.1486915097439173,0.015313540859398065,-0.11947221712914559,0.10254747545613445,0.03823850135819465,0.05676095055913859,-0.02230994060532275,0.006624309480616352,0.040698042037593196,0.0614982387331229
0.866,-0.05300654628910026,0.10443578530869929,0.1575481629241939,-0.025587887233615204,-0.10615523051378585,0.12932444766943108,0.04123317831517774,0.06919365429813497,-0.008072343969030414,0.021623769434503233,0.05530309150749234,0.07640980716899523
0.868,0.015393799805022515,0.17715575857585955,0.16184785346936964,-0.0952665710288523,-0.07417627483351379,0.168009005746909,0.03979714806018837,0.07885103212311184,0.006375390636199964,0.03808139582932922,0.07188042333426405,0.09344421592784878
0.87,0.06641180157332735,0.2277527040630681,0.16144554935397853,-0.1453881514748933,-0.048245898307334084,0.1938462951999112,0.032628228667928035,0.07967984200083726,0.012921706441126361,0.04661351291551419,0.08068919215668949,0.10390820461593661
0.872,0.07036202532000546,0.2219308984270126,0.15184880494325506,-0.1445441679304924,-0.04125847281686729,0.18665364488559932,0.018239153964506462,0.06822444193303676,0.005860180675734794,0.04031291792402983,0.07412949975327915,0.09906757183618248
0.874,0.04517160050298849,0.17520265009846592,0.13044550974188715,-0.10889241117372211,-0.04287300676540777,0.15209398607893648,-0.0009350578471570291,0.048537518688125,-0.011137904220337818,0.023253099866683245,0.05511457623336953,0.08047288370285698
0.876,0.021825179243027397,0.12631097162145447,0.10476333174334157,-0.07275577369379034,-0.04132026156244587,0.11380712240910736,-0.018593419329016755,0.02945816762891066,-0.027736677377660217,0.007084977098732273,0.034597105192246166,0.0591997647500195
0.878,0.005191001149178805,0.09423180551062031,0.08903007681620227,-0.04834857122777151,-0.041572955857957276,0.08973532964878489,-0.029119097357207194,0.01875202719805912,-0.034890371880804856,0.0005116118307344185,0.022989629715184257,0.04617785491444698
0.88,-0.019429334154720642,0.07312762077113531,0.09240629306880105,-0.02568619202080185,-0.055829212655325054,0.08173825253828641,-0.029170297876274478,0.019911509241956275,-0.030386003195878315,0.004533842545468132,0.024488743594993697,0.04488094194606718
0.882,-0.058127150986378835,0.055113160439028204,0.11316661669581846,0.0025405314298602554,-0.08630183901306855,0.08361452481999616,-0.018009339313265465,0.031082632442883663,-0.018845166421587203,0.015084643497856478,0.036077696648365375,0.05163567751597304
0.884,-0.09552711738763804,0.04755593022093684,0.1431268275581805,0.02508940093381338,-0.12098602966851688,0.0940705600022404,-0.0013617629201185676,0.04708245921344756,-0.0061691342439797545,0.027430344055192298,0.05077099165495949,0.06161496127162953
0.886,-0.10099494484068304,0.06872796148345926,0.1697839207632442,0.017295076483010784,-0.13763949409960777,0.11683923231256767,0.007449419990054754,0.06280380743688224,0.004319448960294391,0.03767540174285867,0.062270841817137254,0.07215847754840164
0.888,-0.05412593269929935,0.12207475467723787,0.1762063262473786,-0.03266505509702092,-0.11686019722308207,0.146340164897303,-0.003560552406398745,0.07349310745054494,0.009807185993332955,0.04182552515217318,0.06700523765512106,0.07993380744232507
0.89,0.022211862637065486,0.17798625752412328,0.1557658816368907,-0.0984636268954003,-0.06706351468545066,0.1645671397569674,-0.03219148324477912,0.07476517400759501,0.007897484771951372,0.038131868216442696,0.06454740531215668,0.08052700963882346
0.892,0.07059584511763654,0.19705110841587375,0.1265689581906965,-0.1319976047559553,-0.027311366446692433,0.16022418214409162,-0.06017733586974904,0.06572990985109593,0.0005926350771311054,0.030413056137901528,0.057690872387522706,0.07348632360042819
0.894,0.059239224786807806,0.1727357836276632,0.11385410086989213,-0.11418522805181389,-0.026841067914845293,0.14200147603803198,-0.06754879421384084,0.051459300525711876,-0.005842169856740521,0.02514331675093143,0.050973264415984015,0.06451502090007623
0.896,0.014445897800244807,0.13501955289438847,0.12114109414304702,-0.07283149484429183,-0.053635930540759054,0.12648070020959165,-0.050605082205780624,0.04126751639720073,-0.0059693534921703515,0.026023946919426697,0.04845648241848048,0.0605894710229881
0.898,-0.019588902380645635,0.11203260126999603,0.13220645455798755,-0.044007566866070255,-0.07669141619363379,0.12018682458606095,-0.024700058947981496,0.04294919217443646,0.0011340233843433998,0.03267996361765031,0.05208286055262449,0.06341783307453394
0.9,-0.028588704810773427,0.10544388558834554,0.13444503665940669,-0.03594007139052271,-0.08269512341844812,0.11838184032011656,-0.008385516659738598,0.05617972481159178,0.01160752647521929,0.04187817308023278,0.060304941558890386,0.06890852638627912
0.902,-0.02384733662863442,0.10536138890010173,0.12944563005235113,-0.03822923684329844,-0.07844066045881577,0.11682605846048957,-0.007657230015147967,0.07203632852017601,0.019630505928617797,0.04902827989711975,0.06852110252094919,0.07313758870850207
0.904,-0.009691996650485103,0.11572940925091982,0.12566145731506356,-0.0508160713667332,-0.06982802325872317,0.12083438612224176,-0.01555340460928684,0.08144375489952807,0.022984080844810666,0.05192155482209827,0.07350575456379738,0.07742245979663602
0.906,0.023573597831226187,0.15182837452578285,0.12858070959114976,-0.08619195303806425,-0.05400317947704537,0.14005811422147357,-0.0214377944944718,0.08313076012994246,0.025021648196840773,0.05350713435729062,0.0766495398532916,0.0858706064209633
0.908,0.06888512650401214,0.20698786079670017,0.13835207750463474,-0.13703588777620218,-0.03496145257595891,0.1713209541508362,-0.020654937593577984,0.08118366549189121,0.02854329512863858,0.057028633333060644,0.07951970590520194,0.09735210788611119
0.91,0.08753432580230236,0.23922859540818664,0.15171553966795082,-0.1625977332100757,-0.03178503720079468,0.19291576949021352,-0.01861483253277964,0.07755895330396147,0.030660456120861733,0.05981973855261891,0.07874583071564006,0.10267239578075597
0.912,0.05229477371567515,0.2144517600047084,0.16203703114992832,-0.13253005167895446,-0.055289879565551245,0.1855347485899497,-0.02382260304081909,0.07108284993081987,0.0273864950460066,0.05709862408795363,0.07045634932717348,0.09397406214404426
0.914,-0.00847310496623472,0.15244897901004525,0.16084598256922894,-0.0712436119042181,-0.08598449453034505,0.15491058636114247,-0.03751058251014831,0.06213235030216572,0.020418512669264456,0.04993242051321297,0.05804372937062681,0.07606649646762914
0.916,-0.04011056189524318,0.10457680363931308,0.14473530977836127,-0.03142107442177619,-0.09378650214033048,0.12397622185450813,-0.05384765870282839,0.054067038714382974,0.015435408318948775,0.04438316427820302,0.04990268597485825,0.06252337321652902
0.918,-0.02855526838499942,0.0920235093734022,0.1207639264036,-0.030543432578737425,-0.07551451410697878,0.10604504654427682,-0.06718204289972254,0.05008268803503667,0.015302102330285393,0.044023728148134274,0.049787810646593184,0.059943352387415716
0.92,-0.01029545951973422,0.09260229059771119,0.10325899908018842,-0.0397456084246816,-0.05725821513265669,0.09731298749174638,-0.07317821303614647,0.051319960829458305,0.0187064954125092,0.04760426687545909,0.05503622490349903,0.06349163499197716
0.922,-0.017341996252329687,0.08649458109539494,0.10436694467580998,-0.03318673610379331,-0.06107754723610619,0.09424985796029454,-0.06621073755787052,0.05775745533272262,0.024952337845323018,0.05361461986201773,0.06361642237942071,0.06890307703904587
0.924,-0.039421684098665984,0.08512711919344002,0.12511402641386654,-0.02122584267595989,-0.08221289770953463,0.10320730263118674,-0.04545581073586486,0.06752714785961496,0.03490669583474288,0.06215145799437041,0.07546890525174814,0.07841444367142396
0.926,-0.04310911563957268,0.11000476086891285,0.15349323254715097,-0.0314280529963242,-0.09822369310480421,0.1292156706403847,-0.022738814102957642,0.07654113976226916,0.046576112355163214,0.0719943562203711,0.08795860391116767,0.09270955798807234
0.928,-0.008558927031817641,0.1641087106777013,0.17265782312729044,-0.07588930334338079,-0.09090214504130849,0.16566948641060172,-0.013190532500177807,0.08293041384248843,0.05578862045688892,0.08078418767758412,0.09757392866143111,0.10740492032844134
0.93,0.04889231302431966,0.22276980226931622,0.17348635502240004,-0.13462741303182035,-0.06288459652466502,0.19575956932912947,-0.018860206530012108,0.08744775317464532,0.060531082433485574,0.08700567214499907,0.10319891846168766,0.11779005647205829
0.932,0.0849587724355448,0.24569347874174918,0.16033887982524642,-0.1646043534725024,-0.038060333934225796,0.2012294815334005,-0.03057582718287155,0.08726811365968842,0.05970469612365511,0.08848474751421205,0.10287233983297123,0.1195547446465232
0.934,0.06969802414470712,0.21477412086079276,0.14513708659405278,-0.14139589573583733,-0.037831118264003566,0.17838592672410275,-0.04134370342730679,0.0790029424966248,0.05291647469517184,0.08364856427838145,0.09459628795264029,0.11041730548370768
0.936,0.02291144290401102,0.15969508666895998,0.13728091720716012,-0.09008837230575957,-0.057785762487501315,0.14667912850012235,-0.04981511206260803,0.06887963610447143,0.04595382156939056,0.07711555206824704,0.0837046110282361,0.09685999432920167
0.938,-0.014167799588143015,0.12509707255008962,0.13971753026258169,-0.0540857742714695,-0.07854938530589115,0.1307197120311657,-0.05528200666618108,0.06906512906195587,0.048932415101176706,0.07775839345522245,0.08058668210221724,0.09075467426161059
0.94,-0.03026045152484424,0.12098305589982668,0.1514000511000514,-0.044170949657853176,-0.09298848419544076,0.1353511714525915,-0.055669641237964994,0.0826756068696717,0.06483663093699393,0.08849543721064579,0.08866549132045151,0.09632872624271921
0.942,-0.042062718197788514,0.12750904956027959,0.16968547617767663,-0.04185078261989215,-0.1079653386742121,0.14841840550368005,-0.04986405366006019,0.10048044009487042,0.08551287463079833,0.10349976155420049,0.10130680207768902,0.10803999816912321
