time,I,II,III,aVR,aVL,aVF,V1,V2,V3,V4,V5,V6
0.0,-0.001930686620584847,-0.001294437620619386,0.000636248999965461,0.0016015923102578845,-0.001294437620619386,-0.0003290943103269626,0.0,-0.0023475394136656664,-0.003115426137761912,-0.0028960299308772707,-0.003115426137761912,-0.0013821961033732427
0.002,-0.01348647397991007,-0.008932369678542839,0.0045541043013672304,0.011187643187879945,-0.009129826264739016,-0.0021891326885878047,0.00010969810344232086,-0.016398326316481564,-0.02176226483121852,-0.020536865659503606,-0.02176226483121852,-0.00998418363685349
0.004,-0.04240904935864525,-0.027593515388152526,0.014815533970492725,0.035089234563975155,-0.029082511966812927,-0.006443839760551064,0.0008759750341190295,-0.05123470914456193,-0.06814607324018057,-0.06559460228869919,-0.06803637513673826,-0.03310787179170991
0.006,-0.07992579291683358,-0.050670731647848674,0.029255061268984913,0.06572001915269853,-0.05578501821395051,-0.011036124603049076,0.003279347264528287,-0.09535938389076044,-0.12738973703520715,-0.1257649011036755,-0.12662346010453046,-0.06759740810726254
0.008,-0.10219042891878326,-0.06221174941882162,0.03997867949996165,0.0830613305081717,-0.0730953505837028,-0.011989931661017425,0.0074666512665015426,-0.12028072724951965,-0.1614925363460902,-0.1640115046577806,-0.15897946601223864,-0.09660206609543871
0.01,-0.09789918154003881,-0.055598240590596905,0.04230094094944191,0.07802267542209942,-0.07240399482865906,-0.008033452275140181,0.011927265453909399,-0.11503989630717186,-0.15475336245215274,-0.1599402481247885,-0.14936098910573348,-0.10491813058985622
0.012,-0.08197228508012178,-0.041698643254074616,0.04027364182604717,0.0635028951083651,-0.06294235608432837,-0.0022247490940238354,0.01670926732801308,-0.09883021421573741,-0.13218691206132502,-0.13303863384751352,-0.12322316123109349,-0.09374305533414116
0.014,-0.07422821010974104,-0.034243706130918074,0.039984503978822986,0.056131416132325654,-0.058346883688036796,0.0014949310680127835,0.02493051129314421,-0.09331935704925709,-0.1237367886159263,-0.11481393174482367,-0.11093188749787494,-0.07818521281244388
0.016,-0.076752299802424,-0.03466213407809372,0.04209016572433031,0.057482250734273134,-0.06070363805854408,0.0022928185979090143,0.03393736834000444,-0.09946473412601549,-0.13209835332441658,-0.11420012888420646,-0.11542824624999619,-0.07347943868296816
0.018,-0.08014858081880079,-0.03607421242139078,0.04407436839741004,0.0595140680790192,-0.06356887754875395,0.0023472402230839853,0.03170703926531503,-0.10570664580803989,-0.14227537240672383,-0.11832286058265697,-0.12206663757224578,-0.08300559235107616
0.02,-0.08064471029594639,-0.03597755481793777,0.04466715547800862,0.05921701664588298,-0.06356291735864225,0.0028986023269622534,0.01408682762146843,-0.10647331504177666,-0.14541231184012346,-0.11603408992146547,-0.12282575591652914,-0.09800402624780312
0.022,-0.08123792977442552,-0.03808344021247639,0.04315448956194911,0.0600102497824628,-0.06212543889433413,0.0019230010641724813,-0.0038581988451226366,-0.10529270575935336,-0.14428515952647578,-0.11070127084568249,-0.12156355211659153,-0.10877572073140213
0.024,-0.08327093392675528,-0.04494586111403028,0.03834701243341344,0.06415599538093154,-0.06030143731325967,-0.003330736043542485,-0.0056900619745585464,-0.10461039709172959,-0.14357540840232266,-0.11110599621033199,-0.12370107663580096,-0.11308972230167505
0.026,-0.08431957098163646,-0.05416223799134329,0.030288648755740052,0.06953441500324921,-0.057174523612278795,-0.012365500651772783,0.006264858128307919,-0.10168784114790202,-0.14305160938478761,-0.11765231097151023,-0.12872667985604613,-0.11287150224979307
0.028,-0.08204950298675291,-0.060823255987281145,0.021575605680106743,0.07229981390230329,-0.05240744615610974,-0.02077940992757925,0.0169129956775814,-0.0954912433572031,-0.14012182181126043,-0.12304589498917465,-0.13164812162024034,-0.1088191849153597
0.03,-0.07721298112201448,-0.061704901812709705,0.016083939911818314,0.07070470243809869,-0.047775182863271544,-0.02394167120789718,0.017399694172435358,-0.09022116295207137,-0.13499878954462574,-0.12248921434070592,-0.128961748414027,-0.10216676342912412
0.032,-0.07308880159262184,-0.05803087120119179,0.015794145508880975,0.06663990692287236,-0.045537342848419045,-0.021561854592254175,0.011252358719732417,-0.09012801164580747,-0.1309347079680353,-0.11779594195739133,-0.12252684098134273,-0.09768969120409958
0.034,-0.07254506337729676,-0.054410574291085374,0.018990155667845284,0.06384975421364163,-0.04632873254379106,-0.017784811993785173,0.00562078491526285,-0.09497840012624621,-0.13028912742413318,-0.11364828165465185,-0.11687355951342394,-0.09949260353032759
0.036,-0.07485996515274644,-0.05311610815660953,0.02260362533715191,0.06364743996522973,-0.04898011202131526,-0.01575975796119088,0.004078516659018071,-0.10064013733638229,-0.13239008566751206,-0.11273292459273403,-0.11352136566676817,-0.1043844437337955
0.038,-0.07571150416486253,-0.05098388605737294,0.025338814445570856,0.06296036125836547,-0.051296115615853684,-0.014094452379921506,0.009222353682208717,-0.10296258256131818,-0.13515220373847248,-0.114069855180551,-0.11104611703136452,-0.10606181763462096
0.04,-0.07218642791192656,-0.0456528538036779,0.02679509039840894,0.059159653062714604,-0.05116934390345792,-0.011182300854731141,0.023564210847221982,-0.10197909509432479,-0.13717910204544756,-0.1153012608410565,-0.11037261246805885,-0.10615425103932731
0.042,-0.06736610403114673,-0.041350171446388403,0.02616508419019411,0.05528276233827953,-0.04882260714878895,-0.009545313744047641,0.03955818428596567,-0.10127312544938773,-0.13842105867730298,-0.11614476469836298,-0.11478097060079656,-0.10978324581350539
0.044,-0.06743132755301116,-0.04344644245505844,0.024268708676649296,0.05655709811108682,-0.04768153663639402,-0.011843287576530647,0.039716274788434126,-0.10255989611789876,-0.1394845196025427,-0.1187616143185028,-0.12352109163097115,-0.11133122119240837
0.046,-0.07361149106327011,-0.05069509308233985,0.023312981145138266,0.06282666623544009,-0.0502114795417748,-0.016362433629083996,0.020121333339849633,-0.10315108774061521,-0.13993231593156785,-0.12357790239373885,-0.13023042289226103,-0.10185502194594008
0.048,-0.08037049492718858,-0.057554302225348825,0.023207329291479492,0.06887408121753219,-0.05393631145661267,-0.020005059719481213,0.0005640468552576222,-0.1002589501787517,-0.13841684254857614,-0.12630825364945844,-0.12986052652792313,-0.08812092701443859
0.05,-0.08328827408724702,-0.06155347204207272,0.022049405184186563,0.07188936637664643,-0.05507098154919683,-0.022204839622820344,-0.0008060794652787987,-0.09553320777927397,-0.13535709130292098,-0.12293567839593902,-0.12430557412582317,-0.08697431430577543
0.052,-0.08388175243194429,-0.06396594409907888,0.020055996680819407,0.07362145148270491,-0.053968543184893164,-0.023635398055585927,0.010907766437057122,-0.09278345451346602,-0.13322867473734615,-0.11655848451767478,-0.11855896478886158,-0.10290848230111466
0.054,-0.08464713478039679,-0.06499647706474923,0.019504883623171557,0.07525222702122918,-0.053580496357355165,-0.023833579302878525,0.01840795475443017,-0.09320043771801557,-0.13348791534642443,-0.1144373158547598,-0.1146639191095411,-0.12088718359180695
0.056,-0.084391298644905,-0.06253025214509986,0.021444028731428387,0.07477027676652916,-0.054543965749951843,-0.021683561493541587,0.013510896345077938,-0.0949011837204222,-0.13535595386854826,-0.11854118970023858,-0.11329588036544608,-0.12173597120535326
0.058,-0.08074216810994274,-0.055712273035505445,0.024565158504037135,0.07012560783041522,-0.0547028930956517,-0.017307936145002912,0.0027459071528186637,-0.09560126370540478,-0.13762959404229266,-0.12368931098108296,-0.11599907595699122,-0.10483030485949578
0.06,-0.07469648634910217,-0.04784136032115633,0.026647202232361514,0.06311122194140469,-0.052699942274907215,-0.012948370996591194,1.8809027252713814e-06,-0.09493865059382327,-0.1399106928158834,-0.12527491752758657,-0.121698991343711,-0.08891000704118827
0.062,-0.0702511169367113,-0.0443690312605419,0.02609616088583467,0.058597890399529104,-0.04954849981033325,-0.011550839391397606,0.016179528754573205,-0.09429345588692802,-0.14212690518084947,-0.12412177795353452,-0.12638733486369638,-0.08422466419153385
0.064,-0.06994696809173452,-0.04760264925682048,0.022973934268917248,0.05947858753188066,-0.04691772987770919,-0.014045102151073217,0.04488627617955311,-0.0940600360154471,-0.1437720686113024,-0.12295033478494302,-0.1288025832337412,-0.08201893809473981
0.066,-0.07259187405925441,-0.05449225013891778,0.01904858513157556,0.06399051730774519,-0.04562664496096343,-0.01861616126183033,0.05958277829436613,-0.09249822027974229,-0.1437747462012523,-0.12245712454055663,-0.131574488272075,-0.07804014256876134
0.068,-0.07528520818969102,-0.060089417197202864,0.016276452878767937,0.06840517296344376,-0.0454845528542441,-0.02267076461031067,0.0430857146992734,-0.08838615389083045,-0.14135550988183318,-0.12221906765252935,-0.13469759696403696,-0.07816505433312261
0.07,-0.07720761064896167,-0.06241625264625578,0.01569762338770487,0.07112058604728969,-0.04646170958436009,-0.024622587366435446,0.013092236312074785,-0.08352581980286088,-0.13732179355045745,-0.12237766503780019,-0.13346736679319837,-0.07976539852123869
0.072,-0.08033666800581933,-0.06296943037761756,0.01774819591412911,0.07326344010084408,-0.049624694301327425,-0.024070240553854216,-0.0014340816685362908,-0.08116932306685774,-0.1339886438001102,-0.12247304908582322,-0.12666837405849973,-0.07787929714006153
0.074,-0.08481387683967863,-0.062352458505748776,0.022185584041692862,0.07493171546508923,-0.055029896576102445,-0.021153985212590137,0.0034960493972591095,-0.08227260305298233,-0.1329702369241988,-0.12049737341980461,-0.1207765386007273,-0.0815319200018603
0.076,-0.08632218134253512,-0.057852419543483045,0.02789216205748503,0.07303555570865337,-0.05973855647778771,-0.015772647012465137,0.011375737671175067,-0.08399686884365096,-0.1330456847545034,-0.11612662553248225,-0.12091079418883029,-0.09630317093112518
0.078,-0.08096345229044358,-0.04677534841410433,0.03396815477483044,0.06485283832853987,-0.0605551745478195,-0.007440660954157521,0.012423116221738618,-0.08201097002359013,-0.13094151012308297,-0.11266358731880037,-0.12270240655018687,-0.10674638578517974
0.08,-0.07068169928600988,-0.030645195646806813,0.04057266022823393,0.052053021990887814,-0.05817098175080898,0.003438872872172198,0.011047517398481166,-0.07486192264786432,-0.12477723094528474,-0.11122185229965097,-0.11828301701225492,-0.0979058530607693
0.082,-0.0618528168314932,-0.014902038588059344,0.04803160932413659,0.039824279847060405,-0.05671929077376351,0.014607090029800448,0.013396234489580543,-0.06544202964555551,-0.1162500566136749,-0.1063305757204949,-0.10735100395105984,-0.07563847102300192
0.084,-0.058784792399936406,-0.004071765521785455,0.05564883664312438,0.03237179801510901,-0.05888977751330681,0.023703539731604575,0.019486517157753725,-0.05723953744074179,-0.1084328953811671,-0.09370370282539882,-0.09754501744795435,-0.05530708441112354
0.086,-0.05979337563506814,0.0018920833403599099,0.06178006152985565,0.02961160033396345,-0.06279962753293532,0.030283927704454768,0.027972308359878222,-0.05120175109539182,-0.1022804600511486,-0.07900292115785335,-0.09388150202500113,-0.04741513040868601
0.088,-0.06065662974908551,0.0056943387670434125,0.06547149984506809,0.02845189804597638,-0.06501962478778983,0.035057660930267166,0.04376089874722296,-0.046643733779414484,-0.09691983626720874,-0.07142599030341482,-0.09196251412498097,-0.053449755794427366
0.09,-0.06000784358709987,0.009210714974758996,0.06795882264429288,0.0264902104586692,-0.06533788554157921,0.03857875825729841,0.07259079097299986,-0.04278043263861796,-0.09208705268369387,-0.07175359198380422,-0.0847415269516667,-0.06546335956248636
0.092,-0.05874232787071039,0.013080436984841255,0.07092194926855729,0.02333640703917672,-0.06583947950318379,0.04125022260045736,0.10128201459721865,-0.03925287325209007,-0.08808938423290924,-0.0732591227956916,-0.07336446440690052,-0.07380662939317441
0.094,-0.05612009036752433,0.018126735540239042,0.07389522425703454,0.01884256064801384,-0.06647129853075026,0.04386274754919111,0.10066814469192714,-0.03561467536523437,-0.08422224578456498,-0.07123293145001237,-0.06558259271964605,-0.07319813981653418
0.096,-0.05048435824144146,0.025379643016629122,0.07576560554564175,0.012328284062959816,-0.06534084665679264,0.04770103015531828,0.06780141022823111,-0.03059375280838991,-0.07892752507236932,-0.06705974932877024,-0.06396328687817834,-0.05927230031610832
0.098,-0.0427777322590983,0.03402431564601685,0.07671990022162625,0.004445729451253686,-0.06225933390344323,0.05292421238206553,0.047385722613612194,-0.023378075520705782,-0.07166988115083991,-0.06362575447707398,-0.06315036489622547,-0.03390443152421051
0.1,-0.03597531245325352,0.04054833411383933,0.07646669282463181,-0.0020927561730731056,-0.058431600497091396,0.05705945840584463,0.08998395978491766,-0.015383871293328133,-0.06484113388558647,-0.059629964824478125,-0.05988723769512966,-0.01582670825286333
0.102,-0.03246429258830067,0.041479083614312066,0.07395818092279582,-0.004447447155578297,-0.054746265807185335,0.057270045585945756,0.19514894587591658,-0.009229064068954808,-0.06264207180883008,-0.05262075375624251,-0.057596886880202196,-0.026078422143483694
0.104,-0.03313907850860071,0.037865380802634574,0.07104975061915703,-0.0024429306086998165,-0.05288534290459755,0.054720160623215525,0.3039671990607555,-0.005388126412270109,-0.0654368671389647,-0.045758187960923506,-0.05809876338206646,-0.05829368614093473
0.106,-0.03648520798738162,0.03646568930811003,0.07294518589547937,-7.719121797921451e-06,-0.05515905052539597,0.05492776515655556,0.3477982413574932,-0.0008006214414103472,-0.06681749184542461,-0.043538134606525315,-0.0556859977154604,-0.07948293816702903
0.108,-0.03942525081080872,0.04336164876054086,0.08263859279739864,-0.0015872029188545517,-0.061688933526967124,0.06212274674825548,0.3029301834225622,0.00780241788240293,-0.05999643921727911,-0.04246221544874009,-0.044829109013750625,-0.0652171278948477
0.11,-0.040954287771759634,0.056565528279776775,0.09717506282533106,-0.0066367329204121495,-0.0699442500148316,0.0745201592099577,0.20384403392275977,0.020051266207468502,-0.04593821664133394,-0.03548181610057991,-0.030179442054652308,-0.02405522985986744
0.112,-0.04209234584307832,0.06909392512386689,0.11076453451823945,-0.01144479930115569,-0.0770413449201906,0.0869838918206282,0.11501156845988827,0.03184864982680391,-0.03267414483073099,-0.024124556807353828,-0.022473742437839773,0.01456308476315324
0.114,-0.04172830152086554,0.0782481136489149,0.11975269256434493,-0.01574323794240344,-0.0810742168040948,0.09669888263697153,0.08120981560794811,0.0381312508692722,-0.02715925442398173,-0.017160024663540177,-0.024590676532597677,0.02856802137892389
0.116,-0.037271975443986076,0.08653857076867351,0.12397179727455515,-0.022331622892988685,-0.0815032096839905,0.10393984827950223,0.09108132799678219,0.036770227606850205,-0.02932663115924394,-0.018865327477089147,-0.027703952383580803,0.018267250480032415
0.118,-0.03079595440784212,0.0934991605062354,0.12476498096643095,-0.029681122157158048,-0.07989636350308275,0.10822544530729808,0.09696983587151117,0.029642289369126492,-0.03494932001596007,-0.026577998420157366,-0.024825687482244906,-0.0009174076023652458
0.12,-0.028943610526332913,0.09293127570430801,0.12237872071495769,-0.030812212449086187,-0.07864779490850402,0.10669743597732,0.07176697208334876,0.018418887423378102,-0.04236900192459383,-0.03735043021081914,-0.022880636927260514,-0.016434927822725133
0.122,-0.033621542154568515,0.08177663650058555,0.11576079661105998,-0.023029816576990284,-0.07757306860352803,0.09780829592168996,0.03120591185086332,0.002350253517786851,-0.05318405380796765,-0.04899901096109382,-0.03318235309865216,-0.02724834334690368
0.124,-0.03815559653351993,0.06726386474651493,0.10579822360063426,-0.013760972460163844,-0.07416704241510377,0.08546451693427051,0.0034390166842484405,-0.01682223657237301,-0.06682111274358933,-0.057305074317998715,-0.05294162595167745,-0.03605296467526787
0.126,-0.03560819616137198,0.06086488579738003,0.09707618708852121,-0.012471671515076558,-0.06782894731686949,0.07746302259912409,-0.004003136674903945,-0.03193925867112393,-0.077367042476318,-0.058456405784338236,-0.06623844556999026,-0.03841775693668614
0.128,-0.026125390693365343,0.06671888640691553,0.09348815267545664,-0.02046895665463268,-0.0606571562430641,0.07829592341506876,-0.0035705532446640756,-0.036824234091845064,-0.07791670921806401,-0.05193001114047776,-0.06250634874687461,-0.025912979720101776
0.13,-0.014440012490008406,0.07807484945459636,0.09280529524434007,-0.0313988730014049,-0.05383540759460734,0.08387857847251377,-0.007204430325063248,-0.03297055764833237,-0.06856464448631226,-0.04049000531194638,-0.04653295939390993,-0.002583691485137273
0.132,-0.004362910386746452,0.08347814387020563,0.08771712063960595,-0.038137700696078566,-0.045894613397032345,0.08446709807248474,-0.015049860066528895,-0.02699008795507653,-0.05809424201626515,-0.03070673652773584,-0.031320272611425753,0.011459724674529083
0.134,0.0022110896262407444,0.07484844964797496,0.07241839508871872,-0.03658214520271484,-0.035281205163599186,0.07267459406450798,-0.02141178490114078,-0.024066426954312523,-0.05585923846291939,-0.029783568273980168,-0.026029710731350592,0.0031629926641283715
0.136,0.004009780273278585,0.05325166086006935,0.049172310172082984,-0.026869713489764552,-0.02362623195439391,0.05030164496201269,-0.024208722647873368,-0.025257789466410035,-0.06293083158290495,-0.038559356529842125,-0.03024426701570089,-0.01668605291849761
0.138,0.0012035778853612576,0.029529287042629148,0.02828778447565204,-0.014150248593215725,-0.015151312851992093,0.028168099551195844,-0.025475628813172443,-0.02843897502732375,-0.07260798035898122,-0.050350480328438425,-0.03770895149467031,-0.02999558813777478
0.14,-0.0038460447513551884,0.015152812067775674,0.018720353645434583,-0.004802767390522733,-0.012552621308383898,0.01634851227009655,-0.026833600119853654,-0.03100208134339415,-0.07861084320846178,-0.057293299133666174,-0.044046929044151584,-0.03409767599068769
0.142,-0.008314758831841252,0.011741262209987963,0.019485509520144637,-0.0007678674321290133,-0.014525615203217752,0.01511321222522586,-0.02858437365725982,-0.03246389150672232,-0.08092605385731166,-0.058009033872026695,-0.04921410096012972,-0.03845800317192118
0.144,-0.01076559135351783,0.012776130598797394,0.02289038370006495,0.00026054167692281423,-0.017450607174046773,0.017563863033478882,-0.030685227311694457,-0.034117346915257585,-0.08368959703357441,-0.05936206910998259,-0.05465767182783797,-0.047163915579183535
0.146,-0.011763728529234746,0.012553381451963655,0.02375377939270849,0.0010774620417006305,-0.018854332899670857,0.018077477003423083,-0.03135589400735435,-0.03672818412323678,-0.08888170812421414,-0.06706333753346529,-0.06071452941172956,-0.05487427583568434
0.148,-0.01350989215182996,0.009693495911423208,0.022675888194119073,0.0035185186373479114,-0.019331943047745038,0.015906747309075216,-0.027438992352102357,-0.03965164955210668,-0.09383650783590997,-0.07604303399690891,-0.06582872850403484,-0.056468771733868016
0.15,-0.017836955202550856,0.004111544390691967,0.021434940366880206,0.008670678749106903,-0.020545639638315613,0.01213444160813304,-0.01895147303785576,-0.04159182527871749,-0.09530810849933527,-0.07692518826593295,-0.06821502731008978,-0.05172298912742278
0.152,-0.023964186873204285,-0.0056442046904817324,0.0180662994372349,0.01666287134825051,-0.0215158133390629,0.005397445047506482,-0.01071853995681962,-0.04171728548552802,-0.09396491758017231,-0.06944731649367605,-0.06792751781390967,-0.04160869196875547
0.154,-0.029779526619985206,-0.019884572843634214,0.010084364157746032,0.02641763815971784,-0.020232301657908073,-0.005894669368380027,-0.007464848535658449,-0.04102875503255491,-0.0937832710402569,-0.06286131440123227,-0.06633321256089734,-0.027916068626084957
0.156,-0.03563876898885231,-0.03382572307239693,0.0021664212349797518,0.03600787538592943,-0.019419803045423824,-0.017045825478459363,-0.009111209467390583,-0.04263479867137647,-0.09827954821299871,-0.06505819847882895,-0.06623185068371197,-0.015110139172426477
0.158,-0.04408302364375194,-0.0408243477997305,0.0033097251509569244,0.04385356947674069,-0.024941184566082665,-0.01979300233732958,-0.011730253246930016,-0.04903174843777699,-0.10774491417333228,-0.07533595273184789,-0.07186346413995559,-0.007067333075420361
0.16,-0.05511303000544562,-0.041015353681984876,0.01381167950410719,0.05000980705197193,-0.036638056770927144,-0.014090001434461177,-0.012050679646080663,-0.05877817723637764,-0.11947997526417313,-0.08844333134094515,-0.08373335748049938,-0.007613650384150606
0.162,-0.06481926434582248,-0.04148232039608895,0.02322774376303465,0.05540235964880457,-0.0467945078847246,-0.009472774611598405,-0.01017240274652588,-0.06701890050492677,-0.1304343177554357,-0.10236785232875342,-0.09635428039400469,-0.02328315183317854
0.164,-0.07026728785408018,-0.04636197596535305,0.02438790041356703,0.0601961918885523,-0.05012112666559844,-0.011961914882960972,-0.007924278192396043,-0.06979722196378342,-0.1392076551875099,-0.11695843199141731,-0.1051916875398433,-0.05326806228370113
0.166,-0.0734112018853293,-0.05291054981142921,0.0212994062301659,0.06446375207686356,-0.049707968881775116,-0.017515116456375265,-0.006402219783385605,-0.06777958283554524,-0.14554343868758068,-0.12852214703025497,-0.11061348093365272,-0.08255547781657686
0.168,-0.07753026296935178,-0.05748174187216161,0.020597098333444103,0.06853729091702043,-0.05061204878395797,-0.020211679737621682,-0.005372744085256691,-0.06536804283485474,-0.1491288688484073,-0.13268557731114294,-0.1142604560270099,-0.09717607954999825
0.17,-0.0823100676628111,-0.05950638138032737,0.02298111230967048,0.0717136089224179,-0.05329017473348648,-0.019419908987313043,-0.003209893333750881,-0.06577238993294485,-0.15000235197175574,-0.12965379401948704,-0.11743951236600106,-0.09979877660348527
0.172,-0.08548192951716908,-0.060051782892640015,0.02543416303119441,0.07323767980926184,-0.05584021272899929,-0.0177208200954197,0.001459211964250814,-0.06796251486153981,-0.1496035751716662,-0.12298180443401457,-0.12123666258964998,-0.10354343869998917
0.174,-0.0859139246591662,-0.05982029251522064,0.02596563438534846,0.07345775423043534,-0.0571647161093988,-0.01694119218985354,0.006620735384269263,-0.06937968926692727,-0.15001735722391638,-0.11644702642158616,-0.12357786061107166,-0.11464991102250582
0.176,-0.08346821544796468,-0.0587507131151711,0.02451627758720694,0.0723546238655204,-0.05636749632784296,-0.017174846017974404,0.00756875012276835,-0.07014176881113691,-0.15235945801521755,-0.11401445017095516,-0.12008696743635272,-0.12594278101223788
0.178,-0.079513353774768,-0.0573889765749474,0.02214846132734588,0.07001861053549997,-0.05345403162912021,-0.01793340075109193,0.002199260319592729,-0.07269996689156785,-0.15657649880834137,-0.11907855628686291,-0.1125602148922886,-0.12722277126917245
0.18,-0.07753733192178303,-0.05836570590073691,0.01954087507754836,0.06907163684160207,-0.050630834004094176,-0.02008719467806506,-0.0061351803934516225,-0.07785864656517939,-0.16184608270441053,-0.1303243931059101,-0.11103632423772002,-0.1183192053708246
0.182,-0.08023970504181302,-0.06457303131208926,0.016053277397677226,0.0728321358921923,-0.05004041998279392,-0.02557759831068741,-0.012235002448111171,-0.08280585080631797,-0.16652842371724214,-0.14068258503887962,-0.12163905284040961,-0.10927643176229562
0.184,-0.08598888078541479,-0.07437436658105206,0.011688023501546782,0.08019257247611139,-0.051185943645041566,-0.03353620233544479,-0.013786380680213556,-0.08368600063842097,-0.16848083786310458,-0.14426240533626525,-0.13811926806931343,-0.10851106021815225
0.186,-0.09042579548184962,-0.08190420552638641,0.008355244810791442,0.08607758079559795,-0.05211376283336583,-0.03952408274242679,-0.011548387509817794,-0.07991692378417864,-0.16645095933138257,-0.14343149817105386,-0.1497037633212255,-0.11420515805807262
0.188,-0.09226089282145147,-0.08499275722119629,0.007163175162851551,0.08865348104209667,-0.05207500846280489,-0.04140691280221914,-0.007129162764042003,-0.07528668901690108,-0.1618457103755297,-0.14566517888204483,-0.1524313148898426,-0.11851028222958943
0.19,-0.09460859156100762,-0.0873211772784715,0.0074672104384850045,0.09138586364096701,-0.052355627958670284,-0.041565074792831835,-0.0020075890299508818,-0.07380432868870934,-0.15826163598110532,-0.1534214816654849,-0.15056643524814697,-0.11597334592188342
0.192,-0.09944348353641783,-0.09047177506407195,0.009512090526682782,0.09602931282884485,-0.05467145770741908,-0.04137791210669958,0.0028848278493632537,-0.07469635855563017,-0.15782762809313441,-0.16037065467708847,-0.14914301835245206,-0.10674725809470505
0.194,-0.10384712465928456,-0.09122675159662473,0.01339529057172146,0.09902580036057124,-0.05822028332228099,-0.03954544828271425,0.007011097792850798,-0.0735746068141752,-0.1592490115141349,-0.15921205036370295,-0.14797248366767676,-0.09695840147848023
0.196,-0.10335312983668338,-0.08767865124925343,0.01632012757403425,0.09686583275896032,-0.05947524118386415,-0.03641531720631156,0.00870262690240089,-0.06941589185616608,-0.16083472633556084,-0.151189885099298,-0.14498648861730726,-0.09676828063883358
0.198,-0.09766058796327677,-0.0821369308039963,0.01572442732365763,0.09114477130497314,-0.056692790801430484,-0.03438878895862952,0.0056373635700196385,-0.06686789597879411,-0.16294699393326306,-0.1449451692403888,-0.14168757977421192,-0.11033923914655423
0.2,-0.09150711142112426,-0.07878315546485583,0.01257824292743467,0.08694513639348796,-0.052507551759586296,-0.03486457645450676,-0.0016519092516128306,-0.06928407426672131,-0.16612531867960456,-0.1457130412795263,-0.14061312176182492,-0.1260695940010049
0.202,-0.09016423125509655,-0.08110159714735195,0.009024571730563133,0.08814084965749112,-0.05057361303805845,-0.03794463555066728,-0.008670708837099996,-0.07344204534490929,-0.16918550175844915,-0.1491979761499777,-0.1405208218837996,-0.12750866543953873
0.204,-0.09526183687258,-0.08908246016560184,0.006649333694647129,0.09454386631792823,-0.05220554400045467,-0.04269325959732577,-0.010362191440222216,-0.07357619311066785,-0.1697613920125142,-0.14881424313207892,-0.1385458661177178,-0.11514169235177395
0.206,-0.10412043001396458,-0.09800560500912599,0.007092099732449398,0.10240730104424553,-0.05648760421455052,-0.04650169889684833,-0.005127001633892133,-0.06775749763556599,-0.16627542955428196,-0.14517495432355457,-0.13526942435167777,-0.10359849096824862
0.208,-0.11215434903634142,-0.10277678717899931,0.01045701189972642,0.10785569510803583,-0.06132734489345374,-0.047182883161041994,0.0036917626179470042,-0.05947298325059439,-0.160499836509424,-0.14403108458196587,-0.1344497882666574,-0.09936708322973095
0.21,-0.11632311159720195,-0.10278279048517502,0.014319044681952968,0.10970288753939204,-0.0646988987137532,-0.045313760716675255,0.01061838912826467,-0.0540703459426333,-0.15691523835658577,-0.14780791963255904,-0.13784517116994188,-0.0982776133119679
0.212,-0.11621553921200524,-0.10028994665889512,0.01644924405449738,0.10866652963664857,-0.06585598598851737,-0.04268994782106387,0.013400204936711286,-0.05339201052356154,-0.15730233222018367,-0.1529426659903645,-0.1417094457011728,-0.09979183581315122
0.214,-0.11301973866807555,-0.09690430966806693,0.016779114729214267,0.1058550689367259,-0.06521270290118342,-0.04050181060920742,0.013847350783952809,-0.054884056773103346,-0.15824018432463247,-0.15408482985973324,-0.14026116082876253,-0.10637343778559084
0.216,-0.1087086574000925,-0.09324285302729471,0.016481797941593743,0.10242583483927782,-0.06362863097846048,-0.03926842302431928,0.013223953806863878,-0.05644104784569262,-0.15657906714512831,-0.14942953441643633,-0.1335847954367862,-0.11437481734379765
0.218,-0.10476716298122067,-0.08952105730675293,0.016408896806377513,0.0989368262600984,-0.06183374867154526,-0.038617888380738756,0.010494101019682664,-0.059071008219261326,-0.1544022822004494,-0.14267055538869067,-0.12917209345825473,-0.1174731121396351
0.22,-0.10083450033399415,-0.0858656474272495,0.015902565221774346,0.09503620981082793,-0.05962319429814296,-0.03794506430365519,0.005720186961634302,-0.06326017176918444,-0.1551413411454257,-0.1391409666816347,-0.13259094447143754,-0.11424040389907325
0.222,-0.0956469679524198,-0.0824086442588613,0.013701640647384699,0.09016591409571013,-0.05625219204959944,-0.03732370318074242,0.001879793871298304,-0.06624200980660606,-0.15779622693610984,-0.1392806840502527,-0.139308071538063,-0.10786967134393874
0.224,-0.08999485734729926,-0.07940887351941858,0.01060862999180247,0.0851176328141812,-0.05247452272690118,-0.03689871901515416,0.0022032621666087018,-0.06541181245651737,-0.1589369272839206,-0.13838320946923713,-0.1403017846487181,-0.10369623756919458
0.226,-0.08755792244471818,-0.07779263765467234,0.009601266546713958,0.08285098087753777,-0.050923967287566874,-0.03633506664565805,0.0069079162296140344,-0.06171725133760582,-0.157545446991083,-0.13360459427239835,-0.13461080687952315,-0.106807965216417
0.228,-0.09126549245778134,-0.0777114450422693,0.013458689758359427,0.08547257053483111,-0.053972720692849974,-0.034397423812821244,0.013294306344580006,-0.05762682005679025,-0.15424934369527676,-0.12709071536910407,-0.13042046317016695,-0.1157106419579148
0.23,-0.10024782296468412,-0.07566904105838222,0.024612314938886888,0.09034586946485403,-0.06305941113889381,-0.027690857670536664,0.019781695433409945,-0.052991222896864795,-0.14737674499866352,-0.12033866429648186,-0.131531440477112,-0.12044585123391877
0.232,-0.11136887194096455,-0.06498094860255627,0.04645315989014303,0.09123793148929667,-0.07946734978512715,-0.011076396885635872,0.029130492966730693,-0.04342670452097582,-0.13179373606862038,-0.10832373788981392,-0.12854962718587185,-0.11307776686151522
0.234,-0.12125236172739652,-0.04121740997249304,0.08004822077141877,0.0835548473860937,-0.1020248193215195,0.017663700946667714,0.044832551526432805,-0.02325266559051778,-0.1025220163822697,-0.08256992850374133,-0.1091182332404997,-0.09701304057670733
0.236,-0.12582412816866126,-0.007667253678043986,0.11810618720342486,0.06770834640248102,-0.12391037408650668,0.053004841920938725,0.06434827115721051,0.009202368710255013,-0.05960896177159425,-0.0401022670264996,-0.07159163724924086,-0.0805901262033614
0.238,-0.12042367780857136,0.026226496476509528,0.14649801354216851,0.04734221166703663,-0.1351454614267357,0.08385382121913798,0.07923492430653332,0.04931117061084696,-0.007562901794370747,0.015664266702841014,-0.02066706892062581,-0.06333103328471258
0.24,-0.10207870583539187,0.05181576959927649,0.15357276551378043,0.025674947349166557,-0.12882450164446196,0.10066205135927407,0.08210436830434521,0.08897571708129676,0.050240620163960185,0.08406299844057082,0.04490717211631725,-0.0329165810011312
0.242,-0.07044105335554138,0.06628863804228106,0.13632116431600708,0.0033237902675101413,-0.10376846421222703,0.10013158617675812,0.07203400645947812,0.12404078171232094,0.11608537471595522,0.17061535737590225,0.13254463222358698,0.0240921670548009
0.244,-0.026698446075350494,0.0726997248416166,0.09916817312932605,-0.021629200006965187,-0.06297892646732808,0.0854328305487407,0.055616521677905,0.16257575854297796,0.19861124360366328,0.2805364763211441,0.24895171707139707,0.11249232367743017
0.246,0.026626595295943075,0.07525848750029848,0.048782921005390674,-0.050327232188416476,-0.011076104027388603,0.061962797297928356,0.04310656175062622,0.22223196980471055,0.3070992925499049,0.41378735328665334,0.39587935734158897,0.2307954276420391
0.248,0.08692096722648067,0.07598149401919203,-0.010471069790577697,-0.08147097066599528,0.04850934879137901,0.032820807917034775,0.03976443752527441,0.31299270347098496,0.4407667423270139,0.5651599098737886,0.567924978197643,0.373597866550672
0.25,0.15461158080839063,0.0779472474154249,-0.07617755807244367,-0.11567804715318633,0.1148498464407698,0.0004700382114799146,0.04183941955379739,0.42599114532912064,0.5869044857354379,0.7270707725863749,0.7557604182458423,0.5243154394919934
0.252,0.23237370318417122,0.08760500540449613,-0.1445562050661095,-0.1578741262570653,0.1875081768208037,-0.029750817439702804,0.04355624307540944,0.544782884815692,0.73473589799368,0.8958192368837331,0.9536053070787975,0.6631240811028937
0.254,0.31966659584470686,0.1103901969111303,-0.2093575394920615,-0.21194495767081126,0.2632590585043954,-0.05129736314878816,0.044699350861844796,0.6616135575410356,0.886713105502034,1.0751913749508688,1.160996429313574,0.795413642762097
0.256,0.4110147662445658,0.14639052558882848,-0.26477342595335573,-0.27582646099299557,0.3364691144126645,-0.06084826773323802,0.046634071531976774,0.7727097492617075,1.047759362876485,1.2671864641105368,1.377621756505455,0.9507493938487829
0.258,0.5023966903194802,0.19211059563689376,-0.31032081003585194,-0.3449719898790642,0.40482158366839277,-0.06029477194105675,0.042030125021772495,0.8592077139534867,1.204260682393776,1.458537931614892,1.5974532843682188,1.139699848049646
0.26,0.5967868649302569,0.2464259422529294,-0.35029933248187656,-0.419386241865545,0.4720011602751091,-0.052947611619103184,0.017586140319097922,0.8908861090723046,1.327680500227106,1.6275030637126473,1.8076227620814926,1.3334616092340066
0.262,0.6980419031381137,0.31299976153188475,-0.38499387311633165,-0.502920018241641,0.5399655566244046,-0.037066308463912914,-0.028361560739594775,0.8587376742681656,1.4050401274703312,1.764681056292342,1.9928279810815224,1.4971388927372313
0.264,0.7982376314902792,0.393657903103234,-0.4045898902178452,-0.5932503677106622,0.5996856655661696,-0.006500118384545824,-0.08105670698840761,0.781276831701789,1.443741137688738,1.866914825579798,2.1328438622709474,1.6181470665024746
0.266,0.8752343223627822,0.47822813125963387,-0.3970372355306493,-0.6746423322665358,0.6342971899105915,0.039452246828394995,-0.12790228448777816,0.6662209012230623,1.4344259062484004,1.90519689271154,2.189378719493805,1.6860463894102795
0.268,0.908478999990919,0.542259256861771,-0.3662070850461147,-0.7243203038010145,0.635770426483186,0.08644077753425376,-0.17264822446278894,0.4956803528399958,1.3396928311812402,1.8261743714213403,2.1135219019061586,1.6704855591155034
0.27,0.899773420266596,0.5570633753325852,-0.34256623998565555,-0.7280268752446124,0.6201852974273291,0.10539981289475804,-0.2287019645608822,0.2615633062798736,1.1369019926846877,1.6021886307806121,1.8874107944891798,1.5483995280817417
0.272,0.872734868567034,0.5047911272803562,-0.3676052984176479,-0.68811617181368,0.6197569633078973,0.06698908878453279,-0.304937543531538,-0.012103473845430562,0.8464011118289723,1.262230470446313,1.5489595170594528,1.340529149981245
0.274,0.8443855610391471,0.3894718239353992,-0.45449268185554303,-0.6156903929132167,0.649173266717473,-0.033829501773775195,-0.39698243447684084,-0.29347224027465396,0.5047709304687902,0.8635077308887571,1.159246872806965,1.0936549901444
0.276,0.8001721672989281,0.23740503482914038,-0.5625183471704848,-0.5174710217607282,0.6806560095083851,-0.16409597177705285,-0.48935529132298367,-0.576094482162557,0.12727472226745656,0.4464503420992121,0.7509580105663297,0.8324495039774817
0.278,0.703412544048381,0.08210919368923125,-0.621331404389727,-0.39172633864833883,0.6610062782246068,-0.2717671379136805,-0.5667438225142349,-0.8808153361862963,-0.29502606170580736,0.02101215149197137,0.3191089334325125,0.549740797681297
0.28,0.5295472049542045,-0.054944958755079376,-0.5846354108547857,-0.2364409290077227,0.5552629853971253,-0.32236927742875826,-0.6227068749241369,-1.2212694069664025,-0.7639189119955978,-0.41285549102586705,-0.13948885409101658,0.2393775577972941
0.282,0.29397432072056057,-0.1693033042004102,-0.46333832378088935,-0.061677934658023764,0.376901284956521,-0.31870948876303085,-0.6600194696718524,-1.5642301490246124,-1.2380395507909323,-0.83409099247359,-0.5901355235949632,-0.0791757051957337
0.284,0.052271085536098,-0.2654179587454081,-0.3176431034902718,0.10703478235475293,0.1838302945025258,-0.2932449528385028,-0.6846510085171619,-1.8312188235496827,-1.632150789000604,-1.1912929358230944,-0.9712486329514737,-0.3674825805648695
0.286,-0.13107268282809412,-0.34727943340260303,-0.21612985647260174,0.24004517173726717,0.04196179292891485,-0.2826974583964524,-0.6949586850208528,-1.9475855610427375,-1.8625606375300898,-1.4278995154128051,-1.2309112967804536,-0.5869753120057585
0.288,-0.22327675234974556,-0.4126880820211331,-0.18927844876414102,0.31982111155110515,-0.017882937914542835,-0.3013911763413042,-0.6790269888108886,-1.8926940913531705,-1.8981788708923304,-1.5159180873129448,-1.3456967238257191,-0.7120446769711254
0.29,-0.23678710674681838,-0.452868707616415,-0.2157832734423657,0.34715862616283094,-0.012332163170784907,-0.33418695821532285,-0.631975220583951,-1.7118516549887925,-1.77558070885985,-1.4702903848146756,-1.323795938343398,-0.7390425596269211
0.292,-0.20815573279563193,-0.4583206768497156,-0.2497570863828795,0.33504524170382644,0.01851585146460491,-0.3535051527130331,-0.5713321542790308,-1.4860982650543482,-1.5733642756494035,-1.339857277571571,-1.207326048558255,-0.6931221649307966
0.294,-0.17104008183011896,-0.4281260541172371,-0.2568216186708598,0.30057940690864227,0.041044704176926315,-0.34201824316046164,-0.5204948615492668,-1.2783792873704212,-1.3635618480830083,-1.1804660822689914,-1.0570339726455025,-0.6174669344683368
0.296,-0.1448847996431754,-0.3744865328638337,-0.2296151559265415,0.26030458205490115,0.04116873036141051,-0.3021764375262797,-0.47922858025236886,-1.099112549278533,-1.1749995880920359,-1.0261919056799862,-0.9164259493060636,-0.5434641757879449
0.298,-0.13388226186233307,-0.3165062434316967,-0.18276873592335358,0.22568849420779794,0.023484326072235495,-0.25040270250136754,-0.42709015393954647,-0.9257842505171574,-1.0004832609817387,-0.8836257311796492,-0.7935677551767548,-0.477324974227244
0.3,-0.12987257212837724,-0.2695614381070717,-0.13975826846102435,0.20018455361857768,0.003816689777138664,-0.20555721529669196,-0.3547992177768602,-0.7483587238557864,-0.8322330296988473,-0.7504016974626955,-0.680048989240443,-0.41733529524488816
0.302,-0.1217782492832301,-0.23890042778355997,-0.11707957219067125,0.18125725430193573,-0.0038500430315520865,-0.17849639424969335,-0.2758256637421295,-0.5830001379612574,-0.6790015549141019,-0.6299282950257729,-0.5754140772854636,-0.36659228863243215
0.304,-0.10598552095367648,-0.21860648919729897,-0.1125628567345889,0.16403033362784272,0.0013978631248406648,-0.16591411521927338,-0.20726209481514635,-0.44786282215329226,-0.5522556054461872,-0.5269922994512323,-0.4857105741237387,-0.3232243063304459
0.306,-0.08781368280034572,-0.19658119124974152,-0.1087626156801651,0.14432981238574227,0.008513241234535887,-0.15363302685748623,-0.15283338177350816,-0.34328745591588833,-0.45089203131842154,-0.4393584666403281,-0.408967927100509,-0.27555786427183837
0.308,-0.07524268569815881,-0.16564154403991227,-0.09042808339579628,0.12239107737463423,0.00595018225324263,-0.1298734701021299,-0.10697380989978907,-0.25901534966644013,-0.3655060406919392,-0.3607637826818329,-0.3364058122092824,-0.21975851275943628
0.31,-0.07172964789712118,-0.1315036146378144,-0.059790593978197734,0.10349266207744302,-0.0074500967359123725,-0.0974156523340393,-0.06680244068517205,-0.18931581024593785,-0.29105541413116787,-0.2897767068607791,-0.2668093254125913,-0.17136868949213335
0.312,-0.0728284213956185,-0.10636954893592902,-0.03351120000538641,0.0917924836880084,-0.021563260476922308,-0.07055093772459536,-0.03514003793848806,-0.13496337538112976,-0.2301065226048284,-0.2312863249609836,-0.20969146483182005,-0.14427021968205708
0.314,-0.07071942492633741,-0.09504533353456421,-0.024181710375759478,0.08516730891353799,-0.025787053277742795,-0.059308497885015965,-0.014958337069563378,-0.09615760720436038,-0.18634364815025609,-0.1898913305703812,-0.17362251690058392,-0.1299771246769709
0.316,-0.06334798420805526,-0.09213511396817685,-0.02845791646846322,0.07946403300514404,-0.020029706964828847,-0.06042861504266057,-0.005020713585378596,-0.07032759427748281,-0.15925869359967346,-0.16534802073690033,-0.15826724733620842,-0.1137206057528028
0.318,-0.05626701396029666,-0.09128893130426322,-0.03458354483313554,0.07490913292016695,-0.012787451513234507,-0.06423521906800041,-0.001004341839315596,-0.05532521810920217,-0.14530967368423758,-0.15449850370695262,-0.1577612145001763,-0.0960301694327855
0.32,-0.055184935540005434,-0.09145522066066696,-0.03586541614603239,0.07461299894295946,-0.01083596406361283,-0.06539173840149418,0.0010550388196627894,-0.048414410260167365,-0.14063013054185936,-0.15472033737915677,-0.16485561438706622,-0.08547407776204788
0.322,-0.06025627837206197,-0.09402771721366188,-0.033336884893786486,0.07902306153827614,-0.01428666732238763,-0.06475264417377095,0.0031000439811307567,-0.04285057738347896,-0.1401361580688602,-0.16259781577523771,-0.1711983866746673,-0.08401260937271668
0.324,-0.06778946629154228,-0.09824412059929714,-0.029847570642392417,0.08508911167213289,-0.019890035938532627,-0.06421621346578925,0.005955899163065833,-0.03152184509799398,-0.13644271762981566,-0.16985942652290068,-0.17010860884729903,-0.08722516861570699
0.326,-0.07428916960812232,-0.10135727469074995,-0.026452625276345277,0.08973184990588988,-0.02521821541116292,-0.06371007579701322,0.011188562629148238,-0.013317176389332375,-0.1239243271307538,-0.16686993510796605,-0.16078710607665633,-0.09149341628567088
0.328,-0.07763889982412535,-0.10139418503728041,-0.0234586445109115,0.09140088726267787,-0.028893290059043175,-0.06261133627374538,0.020861260606695412,0.007424423212775983,-0.10419146011373825,-0.15228977984622527,-0.14707982993872162,-0.0974776533555323
0.33,-0.07674684384290027,-0.09842737296761285,-0.02166518411104809,0.08949660279152363,-0.029545646066198472,-0.06115249233369815,0.03420339339906099,0.025487614166014846,-0.08445684444189026,-0.13368427493862434,-0.13252221920114612,-0.10741318065624711
0.332,-0.0718135956957502,-0.09379590639695551,-0.021861474502852394,0.0845312175736498,-0.026635997097816003,-0.0597643621464564,0.046019713082626985,0.037128773402696234,-0.07014368667577663,-0.11769463833146492,-0.11844284895386804,-0.11848658409256561
0.334,-0.0643094503865381,-0.0885463722398721,-0.02386037854546178,0.07785081468291893,-0.021501395603434278,-0.05834603249150785,0.050248416948679736,0.04074586585625017,-0.061854805297753675,-0.10485705290371404,-0.10624769511253772,-0.12071795567027231
0.336,-0.05668793182287689,-0.08328053932884999,-0.02624968263722684,0.07106647839437462,-0.016546469004030652,-0.05677811001946479,0.045181387235091096,0.03782936851456956,-0.05854406312613155,-0.0939726897923722,-0.0987347862368824,-0.1080703026192524
0.338,-0.051755216642712,-0.07944139689318568,-0.027644723286864,0.06634733347283642,-0.013425032923606027,-0.05552584978606722,0.035641655562312344,0.033278869984285274,-0.05926900789788707,-0.08653984608903274,-0.09670954434917937,-0.09055529115836766
0.34,-0.05099083069767187,-0.07945935995834846,-0.0286294176229125,0.06581507470927406,-0.012227326118949238,-0.05575981756617195,0.029672394082794297,0.03292952724901529,-0.061505476868811464,-0.08545848477286633,-0.09643821250809377,-0.08338270283585826
0.342,-0.05331417595652923,-0.0843454629130593,-0.03113819284491671,0.06948765503511718,-0.012052455960957095,-0.058720685198097804,0.03199300467928713,0.03976562187512435,-0.06094844626823068,-0.09031866435506886,-0.09389256221278519,-0.08544455706289508
0.344,-0.05606039600694204,-0.09112524348655955,-0.03503136600101742,0.07445490231145818,-0.012004431362423146,-0.06360781177452393,0.0412741712299331,0.05312730813776738,-0.05403740814024639,-0.09468332265852665,-0.08849229621336907,-0.08254334342768463
0.346,-0.05809697202343584,-0.09541811197845115,-0.03722500621116189,0.07798982354132865,-0.012394640179698541,-0.06717779804658011,0.05299944493179771,0.06995614611296942,-0.04074982222199856,-0.09113608305653252,-0.08110065802786777,-0.06986500979541765
0.348,-0.06109876185630733,-0.09664320737681799,-0.035373642579638105,0.08058351586280846,-0.014699240758640365,-0.06714960579984418,0.06278089295510775,0.08536914604533442,-0.025507062484945723,-0.07984166383008198,-0.07329558113325041,-0.057908879178689254
0.35,-0.06571947211364171,-0.09662375955647107,-0.030477508776224446,0.08306640877737809,-0.019100467892953547,-0.0642195828782381,0.06810022096081701,0.09481851693290491,-0.013824401896835627,-0.067816417454298,-0.06748654439914732,-0.05570577670398761
0.352,-0.06853694493342125,-0.09450661716650231,-0.025244484520474272,0.08307404144554521,-0.023124012296414687,-0.06003541589403355,0.06909554663823483,0.09726248215526989,-0.007520061428945698,-0.059900243571731446,-0.0633498207435578,-0.059770205255787995
0.354,-0.06545189628577693,-0.08777300054907544,-0.02165934057721083,0.07773058397838677,-0.023868255763697093,-0.055232106990610284,0.06725688459384001,0.09470297411783173,-0.005123956282677906,-0.05528350866688231,-0.05719133816430922,-0.06344573081112291
0.356,-0.056754892054580126,-0.07709317245276287,-0.020223527454866032,0.0681227674353761,-0.020815524205908327,-0.04986530727479111,0.0630527325502235,0.0894049259467624,-0.005516744648534401,-0.05194168082615212,-0.048097199208932545,-0.06563824368632827
0.358,-0.04697187419369888,-0.06708201590120928,-0.020582385310804568,0.058789104338860934,-0.01573873520862938,-0.04502386875498625,0.056545432542627234,0.08367307181118475,-0.007696380176162532,-0.049343363510891115,-0.04203121630384474,-0.06473692989130006
0.36,-0.04007068105373798,-0.06204868319658391,-0.022484896748928184,0.05318187849898614,-0.010417946435958683,-0.04295928629379051,0.05039518032014671,0.08093372072970785,-0.008666196939744597,-0.04669479248712348,-0.04522928535957481,-0.05440779932816579
0.362,-0.03676287527419218,-0.062120660916608,-0.025308709950260504,0.051324901043446884,-0.006072198890651796,-0.04438225464325117,0.0487151227065908,0.08381487804161879,-0.0058716870045956195,-0.04236966956040532,-0.05448375011913141,-0.03394233746999194
0.364,-0.036499059047728474,-0.06433678061203041,-0.02728602749433285,0.051918708744779246,-0.004480571348106432,-0.046905696349735855,0.051968923342657354,0.0915064867933285,-0.00020274189891720612,-0.03528592028154,-0.059217549121540834,-0.01802015197980044
0.366,-0.03951688653415311,-0.06681458619976237,-0.02683424892244677,0.05472064986222974,-0.007132486973048229,-0.048015523596545796,0.05664670432378751,0.10117375100360781,0.006671346883123322,-0.025822349240973923,-0.05259613794953277,-0.023661567634273444
0.368,-0.04587800005072404,-0.07022713087406808,-0.024337818444665836,0.05990711406114943,-0.013024870872178237,-0.048253945668881824,0.06024237980677608,0.11070488617435337,0.014791098478564486,-0.01694416512266911,-0.03805363006466412,-0.047522789634465525
0.37,-0.05268584916061035,-0.07435952466450378,-0.02191187456206235,0.06540394542766272,-0.01814070663019326,-0.04940825474611184,0.06312750753911897,0.11878716885796639,0.023889727602813278,-0.012384018049600579,-0.024756188890131262,-0.06935750626711921
0.372,-0.05413765911463947,-0.0755125923095843,-0.02148043210340083,0.06665520160532111,-0.01804725212573615,-0.05080683293425591,0.06597957754807589,0.12441828068015565,0.032489470601154556,-0.01133751112342868,-0.01658308904138194,-0.07473232638519998
0.374,-0.047437520520963915,-0.07062084105784597,-0.02296459789613068,0.06125026021504113,-0.012413896152960764,-0.04996094925345703,0.06798295736248271,0.12709389276296693,0.03881736797752561,-0.008888690750682248,-0.010638963011021714,-0.06377638534595031
0.376,-0.03666196493876335,-0.06186426576795656,-0.024643020751651524,0.05200662328909539,-0.005650911392922642,-0.0461131818362966,0.0673986282378112,0.12641839907701094,0.04077180537478804,-0.002664311841417332,-0.007039696918382364,-0.0464416618490665
0.378,-0.027640464744104812,-0.05396574970799367,-0.025562576327410866,0.043288256103179545,-0.001433661235682786,-0.0412567004658755,0.06328021964381114,0.12266682076260145,0.03816984199078538,0.004920778223173994,-0.00954480012459701,-0.035034409314738925
0.38,-0.022052207681669257,-0.049009397621132406,-0.026327684456660592,0.03670760659327188,0.0007671029598502517,-0.037994180414694566,0.05731891599228786,0.11870084884365599,0.035623155270344896,0.01028564591673921,-0.016064773582548094,-0.03227402065641058
0.382,-0.019077347247421987,-0.04605144738396935,-0.026774378878924046,0.03224715111935041,0.002023035016236684,-0.036925513468118204,0.05350369059677989,0.11946539584320705,0.038845907790971065,0.012282073491937598,-0.01845970218769671,-0.029210749331506226
0.384,-0.018917977174289044,-0.04418484573028574,-0.025426212685314992,0.03065231496656381,0.0011807532745092336,-0.03649462244374851,0.054594702007839405,0.12811196984588763,0.04872538938416751,0.013813893278973517,-0.012150996137752895,-0.02142830248680153
0.386,-0.02147742693687239,-0.04420041242425175,-0.022887822663496395,0.03240545711830787,-0.0015115888926536885,-0.0359080125452725,0.059507771405826325,0.1429916137773419,0.06199851844620159,0.019724799521703067,-0.0004273793847315019,-0.017188348199687682
0.388,-0.024841138564700892,-0.047217585837393765,-0.02223627445581446,0.03646087481747832,-0.0029463747311956733,-0.03663200361047254,0.06495157463946072,0.15859259681997892,0.07518202252783215,0.030899477507077524,0.010346342856515978,-0.024213659558677506
0.39,-0.027163587543730248,-0.05192110279082206,-0.02418451391656156,0.040858688817372514,-0.001849322471086256,-0.0393679854994153,0.06850335338550335,0.16926699389627076,0.08591617312490483,0.04195937005931437,0.016343656509349297,-0.037525941031989696
0.392,-0.027697766349815738,-0.05456540716370639,-0.02591284826277746,0.04325366495494709,-0.00030353053498717694,-0.04182616989038524,0.0699712826624537,0.1724376202471986,0.09296384419704654,0.04726973523503643,0.017646463700572674,-0.043213158732452996
0.394,-0.026778212953724494,-0.0536236418491075,-0.025733790192592886,0.042574976816581935,-3.6231071433312647e-06,-0.04181422393496183,0.07071289462763806,0.16941792229571304,0.09614581471758239,0.046835163207478846,0.01634908109910582,-0.031140203526441312
0.396,-0.02601384090005521,-0.05171225014691818,-0.024758533498179205,0.04051286305703257,-0.0007701588860565963,-0.039939735275014654,0.0713850095433179,0.16448620517400647,0.09612648823826966,0.04389409989800412,0.014066218658929196,-0.007028742814679631
0.398,-0.025922894421848527,-0.0504012276545135,-0.023977012438659,0.03874648057796968,-0.001687491312272053,-0.03755145680013983,0.07111988168590744,0.16223320731387608,0.09479654070715723,0.04061233441910978,0.011941344462822018,0.007904804931272654
0.4,-0.024104903889542062,-0.047404172728640906,-0.023281099569855062,0.036143873264683234,-0.0013399895361158429,-0.03491176766103399,0.06992866493579024,0.16418499989965898,0.0949274093591343,0.03862195056787218,0.01190914263119855,-0.002099417747059357
0.402,-0.018814436554192373,-0.041065003101808016,-0.022580265481697594,0.03107308030502348,0.001119445812768428,-0.03196686762436664,0.06986508182515787,0.16915964186773147,0.09837338078700125,0.04045207513408754,0.015746674390489445,-0.026093719751851825
0.404,-0.01266907720384829,-0.034032245921381,-0.0219330885044501,0.024859438925571818,0.004145225974588164,-0.029166186892877564,0.07254887146639134,0.17706979492545474,0.10555341581607643,0.048293903270880366,0.023255676645216036,-0.034574008054160346
0.406,-0.00988038597391024,-0.031035687221262355,-0.021872695551155116,0.021197294841791375,0.005507574483195408,-0.02795051956638134,0.07746476059065537,0.18908596758214147,0.11605230113641414,0.061370247103821586,0.032161475845267136,-0.010643708043565174
0.408,-0.011164637793871056,-0.03378844877126187,-0.02322851047638358,0.022279422698037895,0.005462722445559855,-0.0297058700950434,0.08265192236505339,0.20356829880424743,0.1278370681544858,0.07485908769523164,0.04013236219937503,0.030316803840625205
0.41,-0.013558536641715776,-0.03857946724424535,-0.025233097039816854,0.026186600652044513,0.005649538858758116,-0.03315128818707259,0.08554195247873032,0.21546256922865842,0.13749684267373963,0.08304618996907157,0.047031135243188645,0.055645168891481134
0.412,-0.013883666865326246,-0.039733258132395956,-0.02573116634110456,0.028398792715477572,0.006424084041623823,-0.03464518211691471,0.08438979701844039,0.22093481176731233,0.14344256184627746,0.08456948583489828,0.05376164933974171,0.0512448581518311
0.414,-0.011293314255248361,-0.035327868112517646,-0.024003186979743137,0.025992943070225438,0.007090036268190219,-0.03200784589182932,0.07973398695525805,0.22040857625002405,0.1470904975979794,0.08315031471595734,0.059140151455544694,0.03368923813089904
0.416,-0.007419902641428923,-0.02854457867004908,-0.021539083732723077,0.02029302228513976,0.007194132100472001,-0.026882757957268258,0.07346321185213131,0.2168042006856107,0.14962895979489657,0.08240855813919278,0.06064242596384843,0.021900247648908192
0.418,-0.0038059498967106045,-0.023462456448987104,-0.02034000578231463,0.014819473626710752,0.007474631927568662,-0.022969717253570006,0.06727109876765555,0.21329426316449207,0.15059190732636732,0.0827804047457881,0.05847897428631141,0.013563327389234665
0.42,6.437527552888742e-05,-0.020761411209817462,-0.0210991203720254,0.011234874163410197,0.009468411183989481,-0.021993608011290498,0.06289601818163339,0.21286574968034563,0.15100094344820505,0.08423101071007026,0.056598970596184225,0.00039984297700145996
0.422,0.004854304317922453,-0.017749926939282876,-0.022063036192757006,0.00827129761398871,0.012780151589027304,-0.021526955041087297,0.06203896274701098,0.2174413864222818,0.15470651169790114,0.08812645163742756,0.05943481574695549,-0.011272860759708764
0.424,0.009542148804156122,-0.011985443739304835,-0.02063865263172476,0.004042912875024741,0.014754445133161426,-0.01808407448056436,0.06480441390281345,0.22689075112081242,0.16467219273001482,0.09536951363031738,0.06860250953499271,-0.009101423377201668
0.426,0.012608309826326505,-0.0050851651186449185,-0.01724727636822387,-0.001039867031175785,0.014434327157021944,-0.012513548502532085,0.06959495279851659,0.23969611480418335,0.17929960131823502,0.10448898228946848,0.08120633284753624,0.006695669718743563
0.428,0.01362228857522894,-0.0012242242094870574,-0.015018835478545382,-0.004493589137890836,0.013696070680464186,-0.009164773593187918,0.07499847885479681,0.2537727799653268,0.193741386974719,0.11281504912410675,0.0916598750960383,0.024333699550913832
0.43,0.013813359783239457,-0.0007908970729215266,-0.014950312818572124,-0.005717439034330115,0.013807185156206526,-0.009254748085198768,0.08006283445039206,0.26651514881003924,0.2047165685324512,0.12042141367474535,0.09791554207896987,0.03742211412605745
0.432,0.015377100140610375,0.0003485403434161968,-0.015253689325741775,-0.007390686579976872,0.014439469830354318,-0.009623183720622529,0.08286020954397928,0.2754536155875148,0.21283122098831572,0.13033652403220847,0.1029374397008397,0.05039042620580793
0.434,0.019161130906808065,0.004361884523677862,-0.01511932669691775,-0.011297262013633774,0.015714142843133723,-0.008088251001922207,0.08117393520317123,0.27926425976049774,0.21960165458668165,0.14191625730796767,0.10782547380509662,0.06439079497964133
0.436,0.023205352147848923,0.00888750436609528,-0.014984239962074642,-0.015528049517163254,0.017770189526541327,-0.00546434244829714,0.07501686825434045,0.27823363152362407,0.22421957711312515,0.14806788623779146,0.1098062195399879,0.07111226462130191
0.438,0.02530617081048592,0.011190243079409598,-0.014972015119218201,-0.017736096321894695,0.019655929640474877,-0.0032616798356989826,0.06724381350597051,0.27504444290542185,0.22568019693731314,0.14452718622506666,0.10899652127791042,0.06675796765807102
0.44,0.02668063040360344,0.011687395323743103,-0.01577300233717295,-0.01888387190551746,0.021141839043642783,-0.0024651672300441546,0.06147226971192195,0.27495396373493675,0.22652191068080055,0.1377152376032721,0.11019354500422097,0.05913729423643112
0.442,0.030439459600680424,0.01320255588472604,-0.017966377464086327,-0.021716422950348632,0.023403873513599426,-0.0027670231793665906,0.05965957047036548,0.2826027516892517,0.23122031351072628,0.13672755598152797,0.11649882230085286,0.05606821649311572
0.444,0.03685130473780038,0.017714674616671536,-0.019904795202934818,-0.026887977935850026,0.026674594462030327,-0.0021665335707371143,0.0617048558950709,0.2980382808608031,0.24195858135848977,0.14312149116861672,0.1264430943703339,0.05832539993359347
0.446,0.04268178389233087,0.02374365900882175,-0.019549261884119738,-0.03210356731894388,0.02926680016068035,0.0004570136231686579,0.06679273439705496,0.3172737539671272,0.2578100722645639,0.1544234083626321,0.13668729990322015,0.06571717073278083
0.448,0.04504142520916354,0.027710977237364733,-0.017520974950464337,-0.03471179153070875,0.029585185172206527,0.0034835959151642126,0.0738583040410742,0.3356426681376637,0.2757891421392744,0.170309223529796,0.14432726555208414,0.07943183691392985
0.45,0.04507970214155251,0.0289746804288186,-0.01594401444681276,-0.03521503460057223,0.02862282098894843,0.005392033387239158,0.08071926135705285,0.3495559373255327,0.29188338199912534,0.19031557818539271,0.1492019303370203,0.09639598052068937
0.452,0.04734160757186331,0.03125069539232209,-0.015927603750915665,-0.03760481581123849,0.02967340001508033,0.007023671484250458,0.08462035174699017,0.35751905891231506,0.30377253052362063,0.20936989149488128,0.1545344899887349,0.1086880242347322
0.454,0.05414701449158817,0.0370155041562508,-0.017273360209961664,-0.04434353822275377,0.034259902750785144,0.009302766636183096,0.08440872644048411,0.36111694329805216,0.3123371486810601,0.2192092580043227,0.16223208856292853,0.11152409522978171
0.456,0.06189053285586472,0.043556194098375516,-0.018863797138242024,-0.052129660866379046,0.03946224666556498,0.011377171051709241,0.08078800634986276,0.36350693897786607,0.31864199266232474,0.21630752355164462,0.16915177517622865,0.10886497520967657
0.458,0.06530303462345972,0.046157689895617866,-0.019814936244804775,-0.05523274771778625,0.04162543206386944,0.011763671679907987,0.07506937024816412,0.36692512611470895,0.32215328185200426,0.20674771873559156,0.1711750326354652,0.10924321154811466
0.46,0.06416092981544724,0.04324287664758624,-0.021243049116826732,-0.05261255539195714,0.04154165263938812,0.009748022027101552,0.06967039437728542,0.37323454415383633,0.3244499777200351,0.2002198207495051,0.16963388954633682,0.11552650050510524
0.462,0.06304808490682874,0.03821343529212266,-0.024601988306300126,-0.049294909321062834,0.042948689611384094,0.006306571377612098,0.06771072841256155,0.3845242676569976,0.3306155604219523,0.20109726022499413,0.1703265096489204,0.12047414738850147
0.464,0.06491448196040207,0.036000545050249355,-0.028481876455265717,-0.049754772526944824,0.04670034151833222,0.0037259801336328234,0.07021556899464315,0.40023087084556846,0.3435432914179586,0.20701153930271649,0.17609738842141004,0.1168517375007989
0.466,0.06855186104978687,0.03770546251998958,-0.030682409410589254,-0.0530467791345959,0.050348230202983665,0.0030781649660360996,0.0759532155088026,0.4167796470905223,0.36025708954448904,0.214551288425837,0.1843158011949871,0.11002998931800614
0.468,0.07266453039351271,0.04093783150978669,-0.03186740198299428,-0.05651059876878382,0.05284090542380606,0.003522662760992535,0.08355327561642556,0.43188806956270204,0.37606543892748895,0.22461530194651577,0.19252085994568707,0.1148327144600703
0.47,0.07795565857175343,0.04496394091135805,-0.03313071177886767,-0.06052557322235985,0.055230589378673346,0.005051326283791544,0.0914057141380092,0.4457231552018088,0.3893317695788826,0.24005341687757117,0.2019554147085884,0.1397969789108303
0.472,0.08462756131229793,0.05167729074730531,-0.03282255389961153,-0.06700880873422004,0.057591976402277006,0.009062410299395338,0.09705850469300505,0.4583023173670695,0.4011813078994686,0.25848002305888373,0.2139202142745613,0.17425854077391814
0.474,0.09107192176707045,0.06143909238805113,-0.029241895716756165,-0.07562023199995546,0.058630115809304585,0.015470361922376413,0.09862435468238173,0.4689453480581329,0.41288930304250476,0.2721561224231329,0.22617092002774894,0.1921584119923317
0.476,0.09573358136775711,0.07143954663361138,-0.023959729714539888,-0.08371184834322586,0.05801870873094493,0.021944266252660178,0.09636738468262382,0.47706754499650367,0.4242089200050777,0.2766764066316522,0.23544889769411684,0.1788632497329506
0.478,0.0990487192547604,0.07813784731579722,-0.021008670874523013,-0.08910382461244822,0.057847936457657255,0.025771231466796767,0.09258924672022197,0.4825860209039515,0.4336045591714516,0.2753906570141395,0.2425794887672822,0.15440527379860636
0.48,0.10287414058594295,0.08002214506502016,-0.023336101839276147,-0.09168937772313243,0.06096365233358578,0.02559166891896048,0.0900325562644843,0.48754664793291047,0.4404598731347064,0.2740086503099684,0.2514950332335701,0.15221433934610862
0.482,0.10808515123069891,0.07930683421167052,-0.029182634080532815,-0.09322451562134622,0.06727556630939645,0.02317090174097423,0.09021033097585641,0.4965067172431083,0.4468207440874979,0.2756491299004385,0.2618581939694023,0.17520938693116556
0.484,0.11272092960384945,0.07955987308101446,-0.0331804779381404,-0.09514538324030568,0.07266825917011224,0.022252342728013186,0.09286888973793858,0.5119457045429354,0.4558268162436232,0.2814739890121685,0.2672230076164484,0.19473180181310198
0.486,0.11348559772978262,0.08060184586773254,-0.03268154486968177,-0.09614346030669908,0.07313859520232587,0.02361194374097593,0.0968063497582629,0.5303360494752198,0.46857489120370094,0.2914187793386427,0.26427383010658084,0.1919363721356299
0.488,0.11080140405515859,0.08020383507410324,-0.030482912786015857,-0.09494255011582498,0.06978254112957824,0.02453512525827911,0.1010400881553827,0.5460472027466506,0.48316190742623266,0.3038872233953911,0.26000440206575787,0.18053626528119265
0.49,0.11083882628823599,0.08061897616204355,-0.030271806519151234,-0.09512112673277584,0.06831222430528533,0.024340055431807697,0.10476915510018787,0.5570679801931352,0.49630688537047196,0.31621938010494094,0.26449560087476487,0.18501739837157447
0.492,0.11949353088993162,0.08682812779248232,-0.03273058635445297,-0.1021628068040965,0.07340515174157171,0.02571381123801143,0.10675488497707317,0.564150025050989,0.5054775153193942,0.32503598154708835,0.27894100094303614,0.2075260715615516
0.494,0.13468156775045814,0.09819882065241771,-0.03636507669060816,-0.11539462991437578,0.08361314430295812,0.029558772275627018,0.10628595989897686,0.5675570775993855,0.5100912747295757,0.3281017261871193,0.2946697910048784,0.22741225970867227
0.496,0.14779259385872237,0.10817956665737007,-0.039244750456021084,-0.12760247712624878,0.0924710277063859,0.0331412388497554,0.10446578253813821,0.5677012085138169,0.5116108644456792,0.3278699512418024,0.3022916642540499,0.23075224826477034
0.498,0.15372738992663154,0.11312825435801067,-0.04014957711236917,-0.13390827917687784,0.09576456635673815,0.03469624252788306,0.10278338023857131,0.5670908986242602,0.5125067074131104,0.3304738815680205,0.3008562609010635,0.2245020702066126
0.5,0.15553075322413465,0.11580965699005558,-0.03947495935615142,-0.13649156618467873,0.0958070681975277,0.03593512874986703,0.10100256060175247,0.5695035023063024,0.5144661966066136,0.33832561883579493,0.29794520302527916,0.2206515426599684
0.502,0.1580961947208734,0.11936603501333115,-0.03877502616183994,-0.13920482698739006,0.09696100772446886,0.03858822331886994,0.09848042749110396,0.5769487835110116,0.5177643527769145,0.3459377086971399,0.3005761773612351,0.2218168485314778
0.504,0.16215605139810182,0.12294464536632309,-0.03936123813294355,-0.14223626416515356,0.09999517829548096,0.04133872976801115,0.09683781267981201,0.5872067556881019,0.522735661773103,0.34641923306124633,0.30885955121395026,0.2247232227216101
0.506,0.1651590371234208,0.12382504093342515,-0.04138866633212822,-0.14323490065835798,0.10259841217259733,0.0413725091992493,0.0987994414082612,0.5956725258636403,0.530252513752744,0.3404231103432666,0.3169366656144678,0.22721068527713356
0.508,0.1650218190467245,0.12113250503238007,-0.04383690035588322,-0.1411115798802205,0.10323531399969751,0.03798657844634518,0.1044106036729926,0.6010137323748578,0.5393691872179778,0.3358363733962583,0.3180646645996727,0.2295259457691459
0.51,0.16326583910018153,0.11754260873527433,-0.04566847410477286,-0.1384629212194653,0.10311813304701742,0.03397306623068197,0.11039722194686122,0.6057803172212965,0.5465570589875416,0.3391076112910538,0.3131760733233339,0.23445945169833018
0.512,0.16468878787541286,0.11770689046889174,-0.04700589891839684,-0.14010653350449684,0.10481907877380105,0.03305301495590535,0.11316971617062287,0.6097934336209666,0.5489050578362943,0.34802354400656704,0.31146475424353015,0.2466024802969285
0.514,0.17217682327945988,0.12410637380321421,-0.04825442077521838,-0.14801551443788424,0.1092327957445657,0.036419541713442825,0.11121297970128578,0.6083692206058515,0.5464128845784769,0.3542999137638287,0.31662776386003594,0.26487875663906135
0.516,0.18236659587947338,0.1343080808342907,-0.04853079390455745,-0.15836817489971142,0.11403248715863659,0.04231093427878303,0.10568545707856705,0.5995961665172667,0.5407765367919313,0.3533540329415647,0.3200104041999427,0.27523920616039144
0.518,0.18903928423886032,0.14327717670778448,-0.04650185759419132,-0.1655020316712618,0.11590870722472663,0.04807117934888963,0.09976134258528967,0.58837349374277,0.5338018915836367,0.3496683114544334,0.31360305175387254,0.263481412437882
0.52,0.1901610115471375,0.1479063957216739,-0.042942409382685634,-0.1676838311852281,0.11459808290461983,0.05167097554088114,0.0957873121634882,0.5807479369542302,0.5268877076431859,0.3510831494842749,0.3015181600126942,0.2364062398932199
0.522,0.1885248477776992,0.14806207073011093,-0.040845635162511565,-0.16668363870436403,0.11297213927950771,0.052158102497446415,0.09355998430517119,0.5781253208689074,0.5210439558804643,0.3569687023633832,0.293273153800518,0.2136112755713819
0.524,0.18660399806167835,0.1449039090056744,-0.04199393457440468,-0.16395145632891447,0.1127777602559249,0.05008275079991913,0.09307831721610071,0.5787130011160235,0.5176194605366714,0.3559952978261136,0.29283017089903157,0.20415308374883392
0.526,0.1841365451554678,0.13967279527356868,-0.04500804919455184,-0.15987688143118026,0.1129602925474263,0.04684452436005559,0.0958302009870152,0.5809481707912754,0.517757259346727,0.34145244510027145,0.29727225831313003,0.20602104961022855
0.528,0.18026148504957526,0.13351085287108105,-0.047409671231979665,-0.15512206738276907,0.11220988636032084,0.043333854030135906,0.1012677247015295,0.5834929215474398,0.5198796511189936,0.32389329167743336,0.30091222632202275,0.21333678151362254
0.53,0.17566584735692428,0.12851810038158507,-0.04747740312670527,-0.1511815543454937,0.11017693841042274,0.040567344756506404,0.10551998849275476,0.5832909705304778,0.5196812259529392,0.3189940090928009,0.30078213368928985,0.218068706012965
0.532,0.17217859184789927,0.1273826800488956,-0.04468280614412121,-0.14955057431389182,0.10689415871426279,0.040245378101951654,0.10515515333503574,0.57600727600559,0.5140571856600862,0.32540551219604996,0.3003175487266302,0.22054570927913045
0.534,0.171227523711714,0.1301689270791913,-0.04082354274467586,-0.1502564142403757,0.10368146174253047,0.04258980980044146,0.10025013344308532,0.5607732237787881,0.5037707215395173,0.3261598615537443,0.30343900453339906,0.22843770940146366
0.536,0.17286238385104624,0.13381407776594983,-0.0389870836492351,-0.15204894177540781,0.10301287435845671,0.04559529236117205,0.09322178046799322,0.5426473858539593,0.49158299750718415,0.3129854032341366,0.30535554888228794,0.2360662921603104
0.538,0.17561632882285452,0.1360556605055363,-0.03965632951682736,-0.15408880861842905,0.10530958058728045,0.04762382546743477,0.08602328618025462,0.5271190295917129,0.47912761419436245,0.2966087207475332,0.29694972900023764,0.22925838029652912
0.54,0.17747408186185185,0.1372870629079536,-0.040266369510400975,-0.15607909427413638,0.1076755022282822,0.04870310118776621,0.07949266759993302,0.5148702208018571,0.46683821718493523,0.28942519576557,0.27862297485618903,0.21331909362499415
0.542,0.17688193751315245,0.13784203246867333,-0.03902613339165921,-0.1566493703307218,0.10704207934729397,0.049126790991016536,0.0744931931858049,0.5036462927476258,0.455441594803411,0.2898151283000155,0.26200903040086043,0.20682421194208986
0.544,0.17283780980848318,0.1359267120934871,-0.03686137019199966,-0.15347842263685302,0.10330615455567328,0.04842076341289788,0.07211661922482106,0.49169328376924676,0.44558631103555735,0.28883045168171545,0.2562214197461323,0.2101662737985477
0.546,0.16527433760334911,0.12959814856817467,-0.03563799710782425,-0.14586341328419383,0.09869919796285875,0.04567295684279794,0.07262216053848239,0.47899151012959723,0.4369354598521596,0.2832178862946613,0.25862094193878366,0.2070970856531809
0.548,0.15543225629825994,0.11951646598788176,-0.03578188403144548,-0.13576593444859564,0.09457375959037735,0.04064805857355953,0.07458680911503418,0.4667614262242363,0.42835961665052125,0.27557191925883123,0.26041196936576444,0.19329059965948614
0.55,0.14526207213676165,0.10905621986219131,-0.035765222031989764,-0.1261524130783456,0.0901606062113035,0.03521297745126052,0.07570400211282191,0.4547084298118764,0.41821753314342763,0.26836999365569786,0.2562824569306882,0.18213985949008724
0.552,0.13642283376086217,0.10162457999264043,-0.03404631887915189,-0.11888408732064569,0.0848160304567768,0.03225893872072982,0.07507532930901699,0.43954111401553125,0.4049860928705775,0.2632864738870301,0.24748668151699887,0.1828360806185341
0.554,0.12956410425774825,0.09699728533084487,-0.0318778815450442,-0.11340873364629332,0.0798935776535937,0.03143958883049445,0.07340774385236483,0.41829650163901433,0.3881957385975524,0.25935180009329134,0.23725591398793777,0.18824108589628508
0.556,0.12467619229576692,0.0920759242931118,-0.03236628915403539,-0.10815815298783953,0.07741405705501841,0.029084658456498637,0.07029213336260996,0.3920638190345234,0.3685521956544502,0.2491272765229964,0.22554869153702306,0.18834758007056468
0.558,0.12140152843546737,0.08629101662231871,-0.03528590705538932,-0.10328232541317776,0.07704687342311109,0.024445427335347103,0.06433273828164408,0.3653537501424536,0.34786441257459305,0.2266063567240189,0.21206217161661867,0.18144840334772838
0.56,0.11852039136153554,0.08235156388021199,-0.03638195843567345,-0.09987191792028062,0.07587748387675108,0.021350339450627642,0.056874287886178106,0.3425888333579883,0.32857913070428685,0.19982206271353567,0.20155856586116916,0.16877510161498993
0.562,0.1145953612183065,0.08109705804965753,-0.03349327455163637,-0.09734471868245581,0.0722204387392428,0.022098187525110464,0.05210943690750336,0.32521500043353885,0.3122236766176455,0.1847938889293526,0.1990150661895343,0.15334973908178923
0.564,0.1090049056717032,0.07987305203026535,-0.02889565851208669,-0.09374247668523915,0.06720143972948586,0.02439712583553886,0.052593326790646086,0.3118725357050288,0.2987108824052563,0.18606987216004722,0.20087047308401798,0.14228152206854805
0.566,0.1017976812061342,0.07634350014759822,-0.02506716445426603,-0.08800195645277308,0.06197795119692305,0.025029962299804448,0.056794434808939254,0.3002432512736386,0.2871977075876691,0.19235689631886244,0.19743873695509262,0.13943922165469066
0.568,0.09353220827156722,0.07065487769662233,-0.022504895501343495,-0.08070389075177911,0.05670206410534948,0.023008153398976033,0.06091948502451479,0.2874226369470415,0.27637732565334805,0.19271275748101843,0.1841658321040271,0.1423280889740441
0.57,0.08516583526815787,0.06372124288157326,-0.021366222636243836,-0.0729079816375489,0.051973179879004926,0.01908567739578916,0.06196417210804881,0.27067821997929475,0.264115285178257,0.18748629372356374,0.1665351359369174,0.14712506100881553
0.572,0.0777620170056554,0.05592197925508218,-0.022177703985102087,-0.06546360516626666,0.04888789665015999,0.014444612553280892,0.05939503584822838,0.25001034146360673,0.24849246184561508,0.17985160530169547,0.1529809693638897,0.14814117225318874
0.574,0.07166160742992193,0.047246521344200466,-0.024808345092774575,-0.058562008194789635,0.04762249062541791,0.009684716321149683,0.05432371832996782,0.22823172335120964,0.22981091182532,0.16754737514674253,0.145400013460039,0.1391963849565225
0.576,0.06531035248229188,0.03786688967640166,-0.027289482067109825,-0.05104171215501896,0.046216004991188255,0.004852072410902332,0.04778426712058528,0.20748617392544477,0.21082081156904917,0.14913302230545522,0.1385150260822047,0.1228855492004687
0.578,0.056936210933878864,0.0296110788377259,-0.026508559693218126,-0.04233743034285289,0.041826371200164254,0.0010422669730066427,0.040719586210536216,0.187396103544107,0.1942087365871467,0.12968072098378175,0.12770141637413174,0.10914208487375507
0.58,0.04786678510376859,0.02510793786111762,-0.02191057639677841,-0.03476985182414091,0.034503141568588566,-3.083145217587578e-05,0.034625609488186285,0.16758877792615184,0.18007406026349562,0.11524611535779457,0.11445176452962127,0.10283592654724766
0.582,0.04151871013651624,0.02398889731246584,-0.01738980429680123,-0.030957012374810428,0.0281628830391053,0.0010123278424153455,0.03098618858994309,0.15031348329016356,0.16694961208202982,0.10748652576940648,0.10328773067507507,0.10122195696679866
0.584,0.03908460100245518,0.02283297026516647,-0.01695297795232121,-0.030012472875015957,0.026286843055251585,0.001328987272830172,0.03017815330672538,0.13801636428685968,0.15437966923598312,0.10456109896622419,0.09653694449469924,0.09923555874559657
0.586,0.038249046685063334,0.01944270677652465,-0.01985577822181728,-0.028560076201461296,0.027838686032625952,-0.0007367759766642027,0.03128345535530441,0.1290622066146559,0.14296114237728175,0.10262956249902583,0.0933621135439743,0.09130745850447537
0.588,0.035866040387210855,0.014899481565774617,-0.021787389134476844,-0.02468616255679428,0.02841279050598842,-0.003807872970925887,0.03322876941069799,0.11920102419179016,0.1332441694479855,0.0989351647803944,0.09112539338057955,0.07554579273446252
0.59,0.030594155717985915,0.011508680457850374,-0.01950027868834643,-0.019514743943097282,0.024731956252499066,-0.004937563298038079,0.035299560614698015,0.10650655763700842,0.1249802017291269,0.09474924506706799,0.08698655298448649,0.0593105026204463
0.592,0.023098962952249415,0.009533230050653922,-0.0137423359018579,-0.014730883774808462,0.01744331142372283,-0.0033329720376206354,0.036250487309085276,0.09168310870909294,0.1163808431768473,0.09099356617080509,0.08031622991062203,0.05251156924251058
0.594,0.014617351336782637,0.006316203352698448,-0.00838927465433021,-0.009560923076887237,0.009705845164908184,-0.002043905605533244,0.034605695141938765,0.07551681507322694,0.10521140731036613,0.0847706002734722,0.07422526772561477,0.056304697836725016
0.596,0.006293154274419779,-0.0004900437962420906,-0.006800822146483897,-0.0021666508068256705,0.004223111668480661,-0.004319589880781767,0.030022490862830816,0.058705722236481545,0.09092698772909026,0.0741351701765694,0.07256550642122503,0.06470821223501938
0.598,-0.0002419767543807374,-0.009217996465645596,-0.008938929076774236,0.006118402835626401,0.0020907209337260994,-0.009409961956097198,0.023428000873350674,0.04272934529365192,0.07512409929364897,0.06048330535838992,0.07375421086130728,0.06991843623506654
0.6,-0.004237109731405568,-0.016068616320007705,-0.011796885648689375,0.011873875963752735,0.002340445943705366,-0.01396484231058857,0.01672664162517273,0.03006133097367355,0.060796817856862605,0.04539456093348627,0.06972761558543776,0.0644311912061693
0.602,-0.008138135252831975,-0.021001189922565954,-0.012886003942390273,0.01576162264062551,0.0020064970280534345,-0.017023131607450462,0.012774501977740415,0.02305123823104719,0.0509159746122773,0.030599366928657307,0.05469036511375578,0.04954669496982575
0.604,-0.014810503473052926,-0.027545937203612775,-0.012886163156768287,0.022019198207014916,-0.0010612403513576248,-0.020700620675023665,0.014007797875239765,0.021252419996206213,0.04643046827336115,0.020190657824047133,0.03449741407313391,0.03836214787633094
0.606,-0.022665308381295164,-0.03588068445411755,-0.013551886272984965,0.030721232387261793,-0.005680932757122875,-0.025417555958798254,0.020235662659912283,0.020914782204998934,0.045740989899251565,0.018485074540742982,0.022163061826261026,0.04125086462619184
0.608,-0.02756670195320202,-0.04126568204127755,-0.014115457965282543,0.03657056352422495,-0.009400686101618243,-0.028225761230110034,0.02837365709819898,0.018659794730593454,0.0462591010886059,0.02505202945320779,0.023360522254500762,0.05232055805002947
0.61,-0.028778959847970326,-0.04049037266894137,-0.011959061074564327,0.03643644320363374,-0.011906235294008452,-0.026938957516387904,0.03434881759295702,0.01429494599158262,0.04587718262746522,0.03384004693228626,0.03213194642192916,0.05494376789773082
0.612,-0.029533683341425535,-0.036372278979025674,-0.006812478380972497,0.03375697779057599,-0.014394087339934336,-0.02328734963246985,0.035413261941757555,0.008692325420661848,0.04314268924954714,0.039068095126293875,0.03935369974202362,0.0413708402502954
0.614,-0.032254768827078624,-0.03484586582407775,-0.002449389854487536,0.034146277512592374,-0.01667994243606339,-0.02132512227704313,0.031682849825365136,0.0013031609304445043,0.03711936100626093,0.040245330540130415,0.03887557847620044,0.02258064712369428
0.616,-0.03618748067417374,-0.03896132913623724,-0.0027128286443755785,0.0389485813231355,-0.017554819775425938,-0.023507976599472864,0.025702158972597467,-0.0080821330686893,0.0280398870568856,0.038082463640901176,0.02922291974030682,0.012623981276647522
0.618,-0.03948946142823484,-0.046349626391997335,-0.006905112902733641,0.0446505176805231,-0.017134745220054468,-0.028330070981054747,0.020209241446211737,-0.01743316543134942,0.01813726874152646,0.029559344288154394,0.01520484129633297,0.00977763448583051
0.62,-0.04132025848879188,-0.05209178648861535,-0.010848123267742588,0.04757459007823066,-0.016591412133477125,-0.03199308020075581,0.016496172863597194,-0.024176242351043976,0.010587210945800153,0.013477121602381894,0.004309380707849728,0.0038176237810579154
0.622,-0.04277947238085379,-0.054461889474277776,-0.011837636679292688,0.04841810086527612,-0.01692810770511626,-0.033133380265022966,0.014767090472449625,-0.027214391269277098,0.00652182745573333,-0.003752330138078131,-0.0007355557006176489,-0.004484867334330466
0.624,-0.04637511460875653,-0.056985687819946514,-0.01106250967544737,0.05147579144505545,-0.01873991990299262,-0.03459167953844929,0.015399341825516688,-0.026864400568058954,0.004263732097962907,-0.014447103024024625,-0.0027352002179977975,-0.004762235874592718
0.626,-0.05250155032577366,-0.0625570228318711,-0.01094395575991796,0.05818820628885607,-0.02146995976885554,-0.03845462435809945,0.01955731518131939,-0.024113372645939175,0.0029823956785261963,-0.017226149138180612,-0.003978519887170363,0.005251581568032601
0.628,-0.05751818257526208,-0.06783621032398843,-0.011463505072846393,0.06386402262304094,-0.023568539805594854,-0.04180598439719275,0.027986909777266006,-0.019969441341054477,0.00472144635307604,-0.014733662497394618,-0.0029454183493319475,0.014478730897461916
0.63,-0.05774258095964089,-0.06726965865382432,-0.01051914327099418,0.06349170271980224,-0.024380080600442035,-0.040398084157513926,0.03823282949277471,-0.015842805373354894,0.010029409701143919,-0.008897679340625261,0.0015816007586624552,0.010179243444264874
0.632,-0.05440377286139219,-0.061055591896122655,-0.007159618547906716,0.05852212148076489,-0.02478299098650033,-0.03456727610578258,0.04437839155626577,-0.014822540391465949,0.014263364876000884,-0.0009365206511477863,0.005598786281246423,-0.00770547466814556
0.634,-0.05197370475908121,-0.05506832783705853,-0.0031093719379863428,0.05459161770749082,-0.02546588662932408,-0.029012617851440624,0.04224829858893887,-0.019739991520958976,0.011860966969189504,0.006105634451294258,0.0034692586885918023,-0.02332127469215482
0.636,-0.0513318471908398,-0.05228353522753206,-0.0007596026905469436,0.05323569616435018,-0.025506360730814824,-0.02680903673738738,0.0339639547907027,-0.029021501157656452,0.002825679672989446,0.007018476496046313,-0.004650691707998223,-0.022614407200162077
0.638,-0.04895536774386025,-0.04916470658932432,-0.00010452108922547889,0.05051203754499481,-0.02398301094913667,-0.025882474042725617,0.02492769460187796,-0.03778374591585841,-0.007608507424301051,-0.0012896824425718892,-0.01355407346331453,-0.013894122099929847
0.64,-0.04426028634822098,-0.04355475645062864,0.0006613237746888693,0.04510693255172172,-0.022232000814941966,-0.023517438931268165,0.018313083278456977,-0.0428338402140698,-0.01448845524819496,-0.015374348764501573,-0.019696354368002076,-0.015480894356364733
0.642,-0.04204267828894127,-0.04014525991940106,0.0018219176261193082,0.0419615707706291,-0.022482952338086847,-0.021241385837659173,0.01482670479981391,-0.0439500285368609,-0.016476170941281013,-0.027425608419111697,-0.023772602023744066,-0.024518880821932352
0.644,-0.046056843565066875,-0.04358985401914956,0.0024765644406022883,0.04548393927648979,-0.02540779069352971,-0.021696761282692795,0.015129133560363908,-0.04210198393658636,-0.015008059819081782,-0.03125104105361865,-0.02798863400360566,-0.02205076348786451
0.646,-0.05467352140151597,-0.051392038009300735,0.0034475745154162827,0.05381502627819272,-0.030478510988291484,-0.024074910881282736,0.019503527505926616,-0.038739920921982154,-0.012238452070620263,-0.024720532867100842,-0.03219297723185779,-0.008420635200083838
0.648,-0.06339054997730414,-0.057431722341352826,0.0063314172655418825,0.061480822400076816,-0.03663065082394295,-0.02578658903953481,0.025986993598769634,-0.03544029517645683,-0.009962916822164481,-0.01133805072709265,-0.03276147960070073,-0.004582444154756578
0.65,-0.0680972383005271,-0.058308875420766924,0.01033442578641218,0.06443542924896505,-0.04125016140637379,-0.025669200926875094,0.031177971039119037,-0.0330365597852194,-0.009049082450333956,-0.0020881308745242023,-0.026852148995881436,-0.016763130958728084
0.652,-0.06567761121099909,-0.053690559608870016,0.01255360492394007,0.0611373563409691,-0.04067953415784674,-0.02374189195408159,0.03321957271710293,-0.03181320687241725,-0.0090414278594658,-0.006572559319409263,-0.017487051340574145,-0.028029817092257728
0.654,-0.0556582732599504,-0.044744637922953745,0.01130702442204501,0.05203951642295327,-0.034086054633528,-0.02027500311585839,0.03230774419721866,-0.032465567205051095,-0.009226300665486738,-0.020007706309529215,-0.01175161857604528,-0.027690333844382898
0.656,-0.042616626403668416,-0.03456637570408516,0.008167254684154935,0.040505187511669274,-0.025770755717974915,-0.016003998150494653,0.029021966307742963,-0.03534541877230661,-0.009942799369311936,-0.028803126501839412,-0.013162931965976747,-0.024763652048773878
0.658,-0.033885594143242354,-0.02750846855187894,0.006293636303259396,0.03211772917202798,-0.021249580073888424,-0.012177876347608372,0.024324399345710648,-0.039060270848660705,-0.01183618040552603,-0.027961121601264908,-0.01792996945582858,-0.028588779612995906
0.66,-0.03401738592793788,-0.0267652956661103,0.007151040703167225,0.03109336403262494,-0.022131536556101387,-0.010343705888210696,0.019961487807900025,-0.04181280208107639,-0.014952806873316835,-0.024382741882006148,-0.020888808375526372,-0.034531939231523756
0.662,-0.04165961121405816,-0.03222003319178545,0.00942917332483148,0.03707365139517916,-0.02612403252237739,-0.011524561749008254,0.017534486459594822,-0.04324996301531247,-0.01862997839002434,-0.02525556802453095,-0.022520930343228357,-0.03422672991043375
0.664,-0.05097409009179248,-0.04013262497760743,0.010888787844908822,0.04541327321548198,-0.030189163175326487,-0.014967552673885751,0.018151368960307487,-0.04343704753782984,-0.02063990416627716,-0.030532932457976256,-0.026619601208810087,-0.030157034183346067
0.666,-0.056436254868479155,-0.045851970930637836,0.010612602532479686,0.051065459752651074,-0.032679762857428414,-0.01852409048121091,0.022247882989570218,-0.04191746400775752,-0.018176179840682948,-0.036325743507593,-0.03364695686937139,-0.03223141799470771
0.668,-0.05666203735669025,-0.047537776924063246,0.009134290620953252,0.052466621964999634,-0.03333643655301387,-0.020696647528161378,0.028139778847353962,-0.0391030294126881,-0.01190302607800622,-0.03926518477009966,-0.03987496777042034,-0.041891055622928844
0.67,-0.05475462876636622,-0.047607177753807114,0.007279695590488536,0.05233659726638109,-0.032804405618648,-0.021978160648450935,0.03216998443063196,-0.03698537882634116,-0.0066811811550720164,-0.037324796761414404,-0.04181011996844448,-0.04980412592769039
0.672,-0.055374034124860805,-0.04983874961076787,0.005990478157448969,0.054471673927126645,-0.03274450490283312,-0.02366555428833525,0.03241658323840603,-0.03715762699177944,-0.0059626923867058534,-0.03179822182887152,-0.03894227146620724,-0.04920312341025357
0.674,-0.05918199917380009,-0.05393951680811805,0.006002262516625405,0.058573873954737024,-0.03421351732954218,-0.025352814912636277,0.03058462651271387,-0.03891206718439239,-0.008212879240807281,-0.027696575538953282,-0.033818907759037585,-0.042276167078488844
0.676,-0.060972171625236236,-0.054942837463565763,0.006714066538202831,0.05973611258394502,-0.035359109408663505,-0.025007529923299663,0.028390693919775584,-0.040718483667917756,-0.010988527727064917,-0.027938218935592486,-0.03180776048029585,-0.035322464149926174
0.678,-0.056168696072810664,-0.04941071968366378,0.006985666023226158,0.05442862508345897,-0.03345521789619269,-0.021890711407577704,0.025291334077693677,-0.04270555752559026,-0.014506783600641759,-0.028945965854560708,-0.03674377387933318,-0.031032324842019354
0.68,-0.04745320738826451,-0.04026094133231995,0.00701616236173694,0.04548609030555173,-0.029166992539138414,-0.017879458748630204,0.02181934153499452,-0.04562339755358273,-0.01879352907481429,-0.026517439764292782,-0.04488890818338271,-0.025988612577385873
0.682,-0.042195259469073106,-0.034066744435449714,0.007918478065266318,0.03977628494620695,-0.026416241977406284,-0.015344045138322705,0.021104488141373966,-0.04805542202526105,-0.02150225536484723,-0.02417871518664954,-0.04863567876147859,-0.020750457439371314
0.684,-0.04456511925606558,-0.034561539403903545,0.010010472907598178,0.04127386531553787,-0.02813254130684368,-0.014969129248755535,0.024474527543429634,-0.047209609609504266,-0.0207435877122045,-0.029053240263567103,-0.04591976319576746,-0.025001407350668792
0.686,-0.05208159150100524,-0.04003735113981629,0.012279637547632836,0.04776170397896024,-0.0331544982078565,-0.01630043304588974,0.02867634932708511,-0.04274060427789645,-0.01744785584574711,-0.04026396845385989,-0.04052500873589456,-0.042416436123158666
0.688,-0.05889338653734873,-0.04603565210628615,0.0132652920379978,0.05394725870918443,-0.0374692942628851,-0.018702975737216878,0.030136012708261536,-0.03771426215359928,-0.013903475486911527,-0.048551677240873115,-0.03581930090698438,-0.060747901614574565
0.69,-0.06133271773026226,-0.04958395526507359,0.012296159947132531,0.05656969412939697,-0.03840891798605834,-0.021291662028076752,0.029482899006049654,-0.035562262095092535,-0.011429237956311015,-0.047806440229551425,-0.03363617651882482,-0.06520334852489548
0.692,-0.0606931855008118,-0.05153325076317288,0.009829007237431468,0.05696339043497175,-0.036851284148421815,-0.023565896201543667,0.02920709102133823,-0.03771881234680034,-0.010187539239389596,-0.042435190599619976,-0.03586332746606022,-0.054340088246001644
0.694,-0.060256359016205435,-0.053906734010356075,0.007067900928396034,0.05812840850250837,-0.035090785163515235,-0.025400105393368275,0.029596485046501256,-0.043336894979984476,-0.010471721174704378,-0.04108587779482225,-0.041896708318872766,-0.0379976230593044
0.696,-0.06041148438682285,-0.055332255946110576,0.00563331867705229,0.05940128838389376,-0.03404508038932502,-0.025631013681415803,0.02955239664102302,-0.04963059503350704,-0.012787983137309524,-0.04412360133388181,-0.046936989086234567,-0.024433704756011095
0.698,-0.05888079718066533,-0.05221893116296642,0.006842210581560045,0.05703783694476382,-0.0333036406467382,-0.022693742615238394,0.029002529348004794,-0.05378993645999959,-0.016304058908031716,-0.042802013460038486,-0.0464196684747524,-0.016179421995417265
0.7,-0.055067037257823095,-0.04444450626627122,0.010491867819591988,0.05037308184914951,-0.03287559973752602,-0.01731725667742133,0.028479958560002867,-0.05561836478018586,-0.01891754540820366,-0.03345310257081435,-0.04033982035825056,-0.013544554638916677
0.702,-0.051497055973014086,-0.037053401708342454,0.014281046303662264,0.043973371297222556,-0.03338882774036503,-0.01303589025269159,0.027537592874328526,-0.0572850284308883,-0.01992710048748525,-0.024707288283476337,-0.03207395272892614,-0.01513345032171297
0.704,-0.04998295425370186,-0.03480061301020207,0.015165538574285015,0.04190985213993256,-0.03412132664767506,-0.012825637656235081,0.025488728193472837,-0.06011376229014691,-0.020358458579068723,-0.025318043122275122,-0.02575738942995154,-0.01950584415144248
0.706,-0.04902065711787781,-0.036478962537166544,0.012619204775299335,0.04271408303745559,-0.03315155509467361,-0.015478547278521078,0.023697891906179564,-0.06258013488045364,-0.01978710984311968,-0.03199333879339728,-0.024141840131763702,-0.02569938755032179
0.708,-0.04758713108098352,-0.037641937069932525,0.009991661711302278,0.043209267137369604,-0.03084260676876781,-0.01709803517226942,0.024713410623149298,-0.0623042811627812,-0.01642013773749476,-0.034875318210274335,-0.025848745518945917,-0.029279263467240805
0.71,-0.047977668521139265,-0.03734615652294314,0.01061192712259035,0.04395975763596172,-0.030171877616796617,-0.016224969547464774,0.028432721439109857,-0.05963735783635479,-0.011417251979316718,-0.029991559115299708,-0.026987292673781426,-0.024396651645239385
0.712,-0.051489392176649725,-0.038163850050667525,0.013290974999386723,0.046659591400225166,-0.032296517728403105,-0.015226489456451773,0.031182224526071566,-0.058483920240813086,-0.009421622807851936,-0.022481835936434637,-0.027177703019530455,-0.011661701783125887
0.714,-0.05520230489254077,-0.04103074000323958,0.014165725257809096,0.04976459586955893,-0.03481563562004434,-0.016408603092547044,0.02941160675878396,-0.06257949111569777,-0.013069422003025806,-0.02065545348409769,-0.02954752019874877,-0.0006852294012764852
0.716,-0.055849943986133035,-0.04349278399777356,0.012373209989079613,0.05054847076203919,-0.035215314629013374,-0.01860676713684858,0.023660536216634078,-0.07060573017870386,-0.019433503840056644,-0.027876588296024137,-0.03434243040827253,-0.0012418752532999918
0.718,-0.05351129022915743,-0.04272079303405458,0.010801343870566001,0.04860409591779285,-0.03347681925353352,-0.01869280957260651,0.01796509189624228,-0.07744498421804025,-0.024092941202448922,-0.038963865699893095,-0.038480527997908374,-0.010248846797603512
0.72,-0.05019870772735711,-0.038711015450723904,0.01148411533738473,0.04540677103438227,-0.031116865613521474,-0.01576871187813784,0.015250890801817985,-0.08043947724501407,-0.02658424485158327,-0.04565082216426825,-0.04077019745850727,-0.014143679411348309
0.722,-0.047772888055812625,-0.03428875796821542,0.013476503443071648,0.04282161762546391,-0.029724702364774775,-0.012303673521991597,0.015053817101462499,-0.08056902192146749,-0.028419030228177492,-0.04437262569428896,-0.041026427126439995,-0.008746563748405673
0.724,-0.04701670651513607,-0.03198027524767811,0.015034740671734412,0.04192653754435978,-0.02996347322569902,-0.01077142909015417,0.016119210365000233,-0.07880888741146962,-0.02816668488767458,-0.03633170463177799,-0.03665315689679126,-0.008524662608992511
0.726,-0.04652445403826905,-0.031040852880629702,0.015486955621021392,0.04145482735580987,-0.030730775372866708,-0.01053426225375679,0.018745457902698427,-0.07579002182476068,-0.02333460788498043,-0.02382391898373884,-0.026978560518219074,-0.02635799724724799
0.728,-0.04464472528586672,-0.02922694167225843,0.015398368809705819,0.03955097643738552,-0.030630084934954612,-0.0094636565339069,0.023089817444003766,-0.07377527778046547,-0.015793267600218448,-0.011658075450828894,-0.017734546652066082,-0.05094364548260946
0.73,-0.04354125157834241,-0.027250849907065236,0.016158461275061403,0.03782058493360974,-0.030662251576797236,-0.007522400309364607,0.02708068060372912,-0.0756050816193561,-0.011149441851710115,-0.007426433264612547,-0.015916657893358468,-0.0592152700381313
0.732,-0.047112944287141405,-0.028340166038755367,0.018443682982073946,0.03983235062458093,-0.033020798241523354,-0.00669191093067646,0.02813697421125915,-0.08136270338008637,-0.012648196012832312,-0.01279705722827018,-0.02207287681062443,-0.04731484728625507
0.734,-0.05398864706947454,-0.03312888231998385,0.020436699763377225,0.04521988310244386,-0.03672767251774508,-0.008237155070191429,0.02568057309923329,-0.08806023747616087,-0.0183522705457022,-0.020125718762053126,-0.03034761437534141,-0.03318278167501998
0.736,-0.057501031485728465,-0.03764015502025426,0.019606030928344977,0.04898456114377569,-0.037786449343190975,-0.011141498023680935,0.020687335016046946,-0.09345969043725572,-0.024684049065594352,-0.023645879203187732,-0.035574120058627846,-0.029865475242567364
0.738,-0.05495758852645584,-0.03837093540298241,0.01663484914539778,0.04817612411085931,-0.035248697084774724,-0.0131272062681545,0.014662595813347622,-0.09787594983990335,-0.029998375516679752,-0.025698603977764994,-0.03819164663477208,-0.03206935368638773
0.74,-0.05217746201186756,-0.03815966315238401,0.014294810325119327,0.04664868515819471,-0.03321654333246191,-0.01401983354226447,0.009934658107668201,-0.1014823509295541,-0.03379586335282243,-0.02966113872283312,-0.04146405004875165,-0.02936866557443402
0.742,-0.054632260413582524,-0.04230215213271029,0.01272037672799625,0.04955167825598027,-0.03425765031795726,-0.01645155952547608,0.009060287865280167,-0.10268998969140743,-0.03526643067702641,-0.035660726259415916,-0.04605059159500352,-0.019560824034072728
0.744,-0.05912096675921696,-0.04916684016462574,0.01033048198189269,0.05498457720287043,-0.03554787975787043,-0.020743714572925055,0.01286761784375783,-0.10043035931223782,-0.034211448554620764,-0.04181771248035346,-0.04900348262295346,-0.009287878597481477
0.746,-0.05919470005259963,-0.05090699559169167,0.008486969445717968,0.056175223347712286,-0.03443660512280013,-0.022322802684438182,0.019241191463210856,-0.09665275856847343,-0.032029389875397885,-0.04340600359764378,-0.04749136635677644,-0.007830053842456355
0.748,-0.05443550576088874,-0.04427769447323616,0.010152049877679623,0.05103619242629829,-0.032904101829682904,-0.017906763083357053,0.024105388417885315,-0.09524655309979652,-0.030564133483369334,-0.035697869827292936,-0.04236955703126945,-0.018001694115069664
0.75,-0.05070947554441981,-0.03582701187874169,0.014897574589066105,0.045255812311089556,-0.03415254492406248,-0.011221808207811358,0.024776666250447762,-0.09813086235272293,-0.03016858512557682,-0.02271797843170729,-0.03737908848112894,-0.03300679602041334
0.752,-0.053072945405967,-0.03424125015687392,0.019133077013152918,0.04530931486050119,-0.03817891389933054,-0.00867900625232772,0.02237945042322362,-0.10356092621150978,-0.029948076722192313,-0.016993121229182027,-0.03516283893102238,-0.043290740385398825
0.754,-0.060086090834319705,-0.040534715051647685,0.02016451507388786,0.051260189803885664,-0.04201214822150157,-0.011727884353174834,0.019480396044406965,-0.10891545586293495,-0.029999976739405153,-0.025185660246745047,-0.03507430179625596,-0.04342353874417144
0.756,-0.06578146656831611,-0.048294736417020465,0.018244886842792716,0.05783638943789883,-0.043056730801806664,-0.01656031606789664,0.01646710967925667,-0.11372958474969642,-0.031896811829778916,-0.039212575257052545,-0.035440490755842845,-0.03456951926606591
0.758,-0.06634186497952306,-0.05116104745266727,0.015928110955599154,0.06020122751778737,-0.041533166454475,-0.018941226857840256,0.012281784286877189,-0.11940795754025636,-0.036509691084568294,-0.046898161131876455,-0.037283505002577065,-0.024077087979927733
0.76,-0.06366471750061364,-0.04894082087130237,0.015386183187042324,0.05824554107342763,-0.039842768231295726,-0.01794452394389818,0.007525827482278282,-0.1263100059595942,-0.042429000063711156,-0.047757243292134065,-0.04328673442459896,-0.020121849241014216
0.762,-0.06256482046269346,-0.047558865912780184,0.015641597168835265,0.056553584869042266,-0.03979341176163519,-0.016801463451990285,0.005059322609894399,-0.13164924328889596,-0.04679745696557394,-0.05148700805430816,-0.052360125129776204,-0.024987830104162827
0.764,-0.06473787177755774,-0.0513077822780463,0.014215154861841625,0.05857643795105274,-0.04072938955953237,-0.01894965285225862,0.007569417428259542,-0.13201730177534407,-0.047567422591305114,-0.06144433325059724,-0.058976632157093416,-0.03311112940762282
0.766,-0.06707126583356461,-0.05657485319988473,0.011490472085642217,0.06195303914734159,-0.041008336158191355,-0.02290054028420068,0.01465854029339089,-0.12795361509257572,-0.045318923301807514,-0.06868492862144969,-0.05943675176417036,-0.03512518185273844
0.768,-0.06665048327955554,-0.0572007290799769,0.010437439973275859,0.062417803374341815,-0.0404136711025484,-0.024178026193638937,0.022347813853589325,-0.12385369706685814,-0.042448032838690974,-0.06511912450006435,-0.05531833613110947,-0.027670574962985542
0.77,-0.0647854905858222,-0.05327783824882281,0.01223556593018911,0.05989879648522828,-0.04012354485671687,-0.021832936037862058,0.02620742605292147,-0.1233977759092187,-0.04048083143226724,-0.05448619863015613,-0.0502336233981159,-0.01927152642803563
0.772,-0.06424654951378662,-0.050076569571441215,0.014690036558134355,0.05771763692872246,-0.04085875275897902,-0.01946519764859845,0.0250640193767151,-0.12659711862234746,-0.03955561755256307,-0.04691077144313382,-0.04614594158249735,-0.02051092891124484
0.774,-0.0640372731734743,-0.04989262222856165,0.014688867725994864,0.05694908727556341,-0.04106700127255098,-0.01984556906309641,0.020941715824440158,-0.13125932276103464,-0.04047706243887785,-0.047204418952527305,-0.042320944172805686,-0.02845673514624846
0.776,-0.06043941769241325,-0.049547874327248054,0.011433047265717599,0.05504734871010762,-0.03820970688436663,-0.021522628733970213,0.01607692316597868,-0.13602088280049807,-0.04508877978755543,-0.05176747522554109,-0.03763071203160765,-0.029328525879320624
0.778,-0.05397709420910654,-0.04661905867611998,0.007646319614322618,0.05114861963751337,-0.033197485685037505,-0.02172614804464853,0.011222875877229584,-0.1413620049340133,-0.053500770358131916,-0.05594778838272687,-0.035651885166544287,-0.021167247050176915
0.78,-0.050961723933777736,-0.043980471425677785,0.007052189318394663,0.049076269321068476,-0.030817457460822102,-0.02041395380131581,0.006486531421749582,-0.1480355123096679,-0.06245191657522928,-0.060407960994239084,-0.04267389956964718,-0.018646553967756035
0.782,-0.05567546363887751,-0.04594889288594165,0.010021329273730237,0.05248282299067001,-0.03377047418742042,-0.019852842885782367,0.002918668097349636,-0.15449680212700356,-0.06792985520045976,-0.06764219324529722,-0.05699798512671483,-0.025026218108529293
0.784,-0.06411922864708823,-0.0521051517208406,0.012863172893668225,0.059186746200434966,-0.0389171873380714,-0.021351917398084484,0.0026346126089607774,-0.15704804145804263,-0.0687841641912241,-0.07474106541977033,-0.06773892783310845,-0.024222030337134038
0.786,-0.06826097973499357,-0.0569824581853714,0.012487754841194215,0.0629637170582245,-0.0412665259290674,-0.02365454792773334,0.006678131092159778,-0.15429854222450254,-0.06728327133049043,-0.0746623075546146,-0.06769168786579279,-0.01228938859491124
0.788,-0.06497397387707793,-0.05582647914286003,0.010191764784739621,0.06045257288541087,-0.03958920630743933,-0.024285189101329065,0.013103855275233226,-0.1497128581624963,-0.06629827586219668,-0.06606860996361884,-0.06013929375093518,-0.00782949682100606
0.79,-0.058628996159104184,-0.04976401593009833,0.009385374689446559,0.0546013483951509,-0.03673349883866457,-0.02215007288592257,0.018034688706685145,-0.1481049611953661,-0.06617252659510382,-0.05681431842605553,-0.05143120794335033,-0.022256662413012378
0.792,-0.05554687544172041,-0.044712389292844865,0.010947744542391766,0.05117821346368199,-0.035812271996659706,-0.01907377153820524,0.0188472946678062,-0.1514684789405617,-0.06584622209077941,-0.054339431481099924,-0.04432817222461108,-0.04360644988197492
0.794,-0.05716347174616459,-0.04460966260839783,0.012678556890618625,0.05218897339391216,-0.03694405598228364,-0.017907067414459823,0.01632752464668074,-0.15831180015868718,-0.06632065976949468,-0.056825985168109654,-0.040297537553750644,-0.054992137554711135
0.796,-0.0596087910888037,-0.04661094426648481,0.01335039610617082,0.053921361140028545,-0.03806596523864697,-0.018357702569513096,0.013082992615497578,-0.16547614308136627,-0.06978266759461366,-0.05720031362154655,-0.04137612167397336,-0.05245165304655238
0.798,-0.06014081223753668,-0.0457466035830848,0.01483716627808348,0.05306602345109551,-0.038779747257969406,-0.017238650889007587,0.00987449098025165,-0.17100538932002107,-0.07600929605097338,-0.05367536384857502,-0.04724521463848633,-0.043348918853943555
0.8,-0.06102231785850427,-0.0429388525123582,0.0184593969596733,0.052206633513469033,-0.04109196016908037,-0.013984678364216357,0.005573492016509984,-0.17548012968021776,-0.08239187641634912,-0.05283404854952311,-0.054271361979118235,-0.039590416061401304
0.802,-0.06530630638276816,-0.04406737063426674,0.021542930473398888,0.056002170946821,-0.045385751336969246,-0.012488429970361255,0.0009728638582247589,-0.17973094257277983,-0.08664060234631508,-0.06109218229027373,-0.059115714463844816,-0.04956824601938299
0.804,-0.0713633546497731,-0.051524611547346374,0.020146865802974707,0.06368730401253031,-0.04818678025490164,-0.01599108932784053,-0.0003887567888107114,-0.1821852565391857,-0.08795387734811616,-0.07569363093274491,-0.06222037914147812,-0.06761054855655398
0.806,-0.07421448177310302,-0.060515040361346015,0.014158005073777347,0.06910111210565173,-0.04605605414708364,-0.02273359747960075,0.0034925920236661746,-0.1806715085140068,-0.08681333356247138,-0.08649756844638296,-0.06592707311879632,-0.07849328259576231
0.808,-0.07224947240666034,-0.0654824574440992,0.007438226252798637,0.06905213243679074,-0.04055449143388398,-0.02869898150570194,0.010049942616576064,-0.17621991193730419,-0.08453515486331963,-0.08614581479419682,-0.06968716292274328,-0.07763710025410074
0.81,-0.06973970970497384,-0.06695654902668663,0.0034165308134130315,0.06778306726278081,-0.0368523113180054,-0.032543198139140805,0.014752388748691688,-0.17275886746931826,-0.08241112265238014,-0.07812683137611215,-0.07071989927297347,-0.07620506053885964
0.812,-0.07108295524753101,-0.06866403743270337,0.0026673134763722612,0.07038348295376734,-0.03780501732388508,-0.03491436880153908,0.015257273054214633,-0.17331279140614805,-0.08144958270515285,-0.07310241617739642,-0.0688881687151511,-0.08267813577503594
0.814,-0.07526878219908659,-0.07103362470724078,0.004118801895250516,0.0755123024729261,-0.04158893354811566,-0.035343085518865974,0.012164966382369882,-0.1774383672249551,-0.08259991723480521,-0.07566615362146731,-0.06715324320809926,-0.08922317072876901
0.816,-0.07758534898784943,-0.07070527335433147,0.00683042262098048,0.07739016011247563,-0.04464372444558602,-0.03268698441826265,0.0076736916116221625,-0.1821888359378735,-0.08617380067013944,-0.07959940743333291,-0.0676891681438674,-0.08168306232785025
0.818,-0.07547040857753938,-0.06544465872207865,0.010474293872994464,0.07319701124280836,-0.045234879101980915,-0.027465873520377097,0.004250778545323635,-0.1854847818979023,-0.09126609441653609,-0.07926630231633665,-0.06936796814749761,-0.059516498197631426
0.82,-0.07158286708061357,-0.05855891295444446,0.013997327546673986,0.06694026629259366,-0.04415678747104217,-0.022878806055745316,0.0026279537171949984,-0.18790316347603417,-0.09616085074424188,-0.0784312847458171,-0.06881655785765153,-0.03983436872148618
0.822,-0.07036654356919975,-0.056526219099174255,0.014907638669497294,0.06504350595682462,-0.042850363250500643,-0.022725570211068365,0.0010019851878812218,-0.19087265840839943,-0.09937294180134713,-0.08327949392811718,-0.06515276073792899,-0.038986682357495216
0.824,-0.07280404138522327,-0.061365954748488945,0.012070360101419087,0.06881305234375965,-0.041995953167905664,-0.027101685743597715,-0.0013038389074711979,-0.19385876782668537,-0.10034153522885458,-0.0926109078803851,-0.06330740669013624,-0.05398867955969996
0.826,-0.07635618490392329,-0.06811920865164482,0.008277853821317589,0.07365106282102692,-0.04197850658400795,-0.03152578908166839,-0.0006439780512611972,-0.19409189827051898,-0.09898462829319007,-0.09892694124080291,-0.0679544358109719,-0.06753022270591433
0.828,-0.07873722100773686,-0.0712974124262702,0.00719549890602154,0.07554015966722064,-0.043073329051301144,-0.032234593096453414,0.005824196397797183,-0.19024489414083978,-0.09548405336681616,-0.09681842718431431,-0.07510124530747923,-0.068971101575231
0.83,-0.08030270202457038,-0.07171352114018253,0.008445247659745811,0.07604197806220761,-0.04495933563198723,-0.03104858095714049,0.013459201299588396,-0.18587147277979876,-0.09143205216393827,-0.08890443981160513,-0.07717413945909257,-0.06298177342357388
0.832,-0.08291783198763747,-0.07436764010217553,0.008603820737695334,0.07941647543557498,-0.04703167650560975,-0.032495058468932685,0.014956692473985865,-0.18652627910460598,-0.08972625173392658,-0.08308172283182119,-0.07487416695049541,-0.058244491831795996
0.834,-0.08649712255023477,-0.08007114675894936,0.006527173794619347,0.08544911761543914,-0.04863951056677712,-0.036881213454278486,0.010518976349430989,-0.19313317790188395,-0.09178808378063504,-0.08342043967565006,-0.07511676952562907,-0.056874600517657935
0.836,-0.0877476055628424,-0.08288007609153467,0.004887025277715783,0.08803565665780079,-0.04881237210477425,-0.039307165504250854,0.006816593220895455,-0.2004884655192302,-0.09591272004986418,-0.08612405476822585,-0.07951925774501697,-0.05768490831720959
0.838,-0.08394385659846874,-0.077817463571655,0.006081019372756289,0.08268766419742186,-0.04703296418382262,-0.03625987678888563,0.007073495787269391,-0.20320419546364207,-0.09947604422538395,-0.08563841550144781,-0.08367932102131206,-0.06209171987582259
0.84,-0.07712610320954083,-0.06840880392515863,0.008707060849946888,0.07324049653683287,-0.04431671934005702,-0.030550391852623524,0.00804020004395539,-0.20147679291042103,-0.10199515305691809,-0.08233840605657693,-0.08550920064763497,-0.0701819522142211
0.842,-0.07203341521566209,-0.06246529122978966,0.009730747448037822,0.06731286395938126,-0.04218762393682879,-0.027261304355991597,0.006396198983585513,-0.19968351098457732,-0.10476567777872774,-0.08159806608319063,-0.08699327214662589,-0.07354987603658916
0.844,-0.07022176155317489,-0.06200991859720519,0.008692587168021772,0.06652165529105365,-0.04073001646984628,-0.027086065870353386,0.003856949385639572,-0.20056297842716295,-0.10751951343702061,-0.08524341495473964,-0.08889112202421166,-0.06132828292852101
0.846,-0.06944387505711327,-0.0631019556774077,0.007097338263886487,0.0667331705001446,-0.03898175756757572,-0.027618462114310263,0.004904675969192939,-0.20272828081175626,-0.10760999236001384,-0.08858510243482988,-0.08906149371928217,-0.037900737412866044
0.848,-0.06842124551328792,-0.06364309084961858,0.005446867555289992,0.06630216824019217,-0.03715067692566988,-0.02841119274956801,0.010741681311824213,-0.20364480435061866,-0.1039610272622956,-0.08807397309310785,-0.08637189130514325,-0.025283682761770083
0.85,-0.06872844041339825,-0.0651590095234742,0.0037918496383859634,0.06767351799925989,-0.037021029787769326,-0.03044320417934972,0.016879250454242652,-0.2032879736562211,-0.09963577598404359,-0.08631806863206226,-0.08304774329901414,-0.0380332328984152
0.852,-0.07151597322608648,-0.06872525222615018,0.002620841203352268,0.07185104308309465,-0.039126365639617904,-0.033616694068966536,0.01791094003353865,-0.20429821212499372,-0.09868757497260146,-0.08629230199264082,-0.08226321168177139,-0.06360887979901506
0.854,-0.07473138678347156,-0.07312715232612961,0.0014000464720868061,0.0760783023093717,-0.040797538348848764,-0.037313520621034414,0.013524743875092761,-0.20850688494914718,-0.10211236337954822,-0.08591323285508526,-0.08467798687489353,-0.0776708816482962
0.856,-0.0751891862000729,-0.07584568039482693,-0.0006721435248178531,0.07708446606102504,-0.039430694450012675,-0.040543116594303305,0.0077384690618330434,-0.21375827737584607,-0.1078005557465675,-0.08366449508402733,-0.08782522347570772,-0.07290365266279707
0.858,-0.07233357425659583,-0.07479475962164607,-0.0023605837518332513,0.07420918699924078,-0.0363860513931971,-0.04135370452808597,0.003677311829548619,-0.21637127689486563,-0.11286392801528661,-0.0839719599517099,-0.0886107696770438,-0.06520350716176579
0.86,-0.06869354619487059,-0.07067799476873508,-0.0019275828359549673,0.06971566812374963,-0.03490796259113665,-0.03900867980926545,0.0014862553604454072,-0.21610948018308018,-0.11533890333060512,-0.08981181475135587,-0.08642500328614415,-0.07278095178435304
0.862,-0.06699275685132203,-0.06706149887794265,-9.594293749381946e-05,0.06686931283816809,-0.03550704218324791,-0.035684263006425194,0.00033926987471596785,-0.2153180863582784,-0.11465287499611247,-0.09586565593974984,-0.08378680346616933,-0.09419469069216176
0.864,-0.06695398044139543,-0.06583930905109624,0.0010707988442108295,0.06636609487819756,-0.03576332857202702,-0.03348145376699351,0.0006967351387399533,-0.21460825697084993,-0.11139340838026304,-0.09464315174939902,-0.08318706850289263,-0.1115519256075775
0.866,-0.0662816549989083,-0.06487095399924184,0.0014265124049478773,0.06592066498534167,-0.034526241587390476,-0.03172383639605721,0.004228753133115708,-0.21281130024456293,-0.10711332788687776,-0.0857906851372023,-0.08361079444314568,-0.11078462225450843
0.868,-0.06515292610612802,-0.06229071173965385,0.003036459180374523,0.0645713664611249,-0.03418708593639036,-0.029038353765884466,0.010735537705504032,-0.2100586786440532,-0.10394166643373652,-0.07742882855866622,-0.08230912074425897,-0.09099160107365062
0.87,-0.06636436342463543,-0.0596752946747683,0.0071611667664162725,0.06418582000730247,-0.03715768107952415,-0.025950534828655124,0.01559358832810075,-0.20910465118741234,-0.10339073162340139,-0.0781352711726681,-0.07977326022482176,-0.06251815661022864
0.872,-0.0708179292932871,-0.059683057904155776,0.011879825201479878,0.06631004660603021,-0.04199953521030403,-0.024393456866069092,0.013929607087728349,-0.2132925369281094,-0.10551515743247414,-0.08783918204104255,-0.0797301925860377,-0.04330646395513435
0.874,-0.07616570919282403,-0.06306794580188639,0.01376619596784656,0.07025372844685718,-0.045312870554829236,-0.025657505980124194,0.007600103580115434,-0.2221933319269247,-0.10911378989170355,-0.09840149976009682,-0.08379449679999341,-0.04559482463604426
0.876,-0.07998751757485295,-0.06820603608715095,0.012009476462477714,0.07426084081511071,-0.046130804936994715,-0.02904087077707347,0.003190071596182944,-0.2304223347514151,-0.11232772222843676,-0.10252376018421888,-0.08920478712866504,-0.0649019382760571
0.878,-0.08220285682262228,-0.0728697863813911,0.009166006817868177,0.07741092977362628,-0.04623396909801252,-0.03261018033698621,0.0035700038462714726,-0.23331078161235094,-0.11393325192146922,-0.10108255536618863,-0.09269312566859102,-0.08851582581803816
0.88,-0.08356491759057,-0.07623994008975948,0.007119091607457049,0.07976052353669527,-0.046424121677596124,-0.03532377608982609,0.006033315448309011,-0.23185157276983953,-0.11419151407211331,-0.10074235703943786,-0.09416313116557533,-0.10524569781357972
0.882,-0.08346245136627636,-0.07849266043271741,0.004951793782384091,0.08101921595158805,-0.045306565841818906,-0.037645277064598526,0.007290902845588826,-0.2297282202782396,-0.11374805679760465,-0.10345740271512123,-0.09538823436958492,-0.10670963314879102
0.884,-0.08099057212814634,-0.07880882520176241,0.0022821536938029707,0.0803485258649528,-0.04247070967664674,-0.03951391226149481,0.007245364575658862,-0.22826155304451876,-0.11281467531906307,-0.10304475484198035,-0.09661407639008551,-0.09344352701198351
0.886,-0.07700321040679485,-0.07590318590775567,0.0011580784278202904,0.07763856501667904,-0.03973903037769512,-0.039345287026365354,0.00870047109607366,-0.22655628248122436,-0.1117358656394684,-0.09576915454501737,-0.09621178294312825,-0.07861467247834872
0.888,-0.07388947696164609,-0.0715253639302419,0.002337585995338504,0.07456574131638452,-0.03858949659932523,-0.03700756062182666,0.013576142022470285,-0.22447204427801642,-0.11085141151046839,-0.0878787771561779,-0.09299624790745237,-0.07547758315234747
0.89,-0.07344713741916574,-0.07017052758997468,0.0032324107385229782,0.07347542790157699,-0.03870900555631705,-0.03547251058825348,0.01946631690133976,-0.22351261985929682,-0.10995423519249808,-0.08718518374493672,-0.08706331632583288,-0.08131100048168505
0.892,-0.07510577675624626,-0.07328290405318191,0.001816220762941172,0.07476439882910459,-0.03908379019180499,-0.03686743929570764,0.021871189731414907,-0.22550336557959755,-0.10873592314544585,-0.09285541970350274,-0.08023156306758028,-0.08025929841057959
0.894,-0.07704143370819094,-0.07751085565456542,-0.00044850447512702427,0.07686093376723817,-0.03927398168416987,-0.03953159032419582,0.01967761753083889,-0.23020231580912376,-0.10762841039651455,-0.0985409497112479,-0.07710674740018202,-0.06571147502593272
0.896,-0.07899951608204266,-0.08011202868098216,-0.001098897969340854,0.07909702599585493,-0.04000747647435487,-0.041121278489345756,0.01571767154172491,-0.23295482455612324,-0.10801163119918988,-0.1007718238340124,-0.081484031545138,-0.05266479933402539
0.898,-0.08266060140246198,-0.08238448487087686,0.00027120543672732103,0.08280503876069248,-0.04263812304753197,-0.04187338859817552,0.012197062778546248,-0.22689707372197837,-0.1107323190856882,-0.10070905384313336,-0.09066342992612875,-0.05659463275362429
0.9,-0.08821051780652502,-0.08621484627954079,0.0019858971237403517,0.08833610391576113,-0.04663328138741297,-0.04312998058698623,0.009342054944984942,-0.21008986335317734,-0.11416338962577874,-0.10113015505112599,-0.09712459491496997,-0.06951137152054264
0.902,-0.09166095296475667,-0.08977208466586069,0.0018868799099162718,0.09224641996715681,-0.04827442782462365,-0.04484701627510096,0.00825967586684008,-0.1881447554475752,-0.11537141892142613,-0.10341379331164888,-0.09530652314700022,-0.0737475531662903
0.904,-0.0887903261300673,-0.08908638905220047,-0.0002916786199369702,0.090384812310972,-0.04496321437207882,-0.04545899813655659,0.010454888449266597,-0.1679438663650417,-0.11366796523517836,-0.10574769336418603,-0.08575003635068586,-0.06814738834518498
0.906,-0.08150879157737174,-0.08324126147835485,-0.001729290666177498,0.08364026655006591,-0.03993567205745091,-0.04327388238546404,0.014561142994818959,-0.15166438569786272,-0.111292071188714,-0.10467990798103533,-0.07513189433298362,-0.06391988445826433
0.908,-0.07646097939340239,-0.0760522876067016,0.0004078177341343939,0.07766104384676946,-0.03875520590734523,-0.03864366809216002,0.01753554702790265,-0.13797719494820918,-0.1100677249971739,-0.09977634719182207,-0.07123279434682711,-0.06543126132890788
0.91,-0.07681912831763807,-0.07154275107523748,0.005296164388095189,0.07592972809095978,-0.04205866881073338,-0.03398737861224843,0.018500708960238737,-0.12581676522232324,-0.10943404191741406,-0.09510143628930215,-0.07563042837170578,-0.0690968186771667
0.912,-0.07853555427201843,-0.068557715290589,0.010130543221238384,0.07527851059881101,-0.045565587309213694,-0.03016347526953307,0.018433835232517796,-0.11585211512899111,-0.10873852304810383,-0.09407569807527069,-0.08322318955649763,-0.0727089556499187
0.914,-0.07640120348433838,-0.06304591306184841,0.013836876267270126,0.0709021261007249,-0.04641796217290037,-0.025661360939356503,0.017487271222019336,-0.10958476024312631,-0.10910040367029201,-0.09531964483047081,-0.08862092129946288,-0.07542241324535373
0.916,-0.07137925747602396,-0.055651625337929986,0.016609708287047525,0.06418210381146841,-0.04585171894792855,-0.020766241810369034,0.015172450614938028,-0.10712058541992567,-0.1115345923139817,-0.09638083869009384,-0.09009390676467767,-0.07610805375516869
0.918,-0.0688566303249167,-0.05223266136075303,0.01762938814531638,0.061367051560412104,-0.04587689207288496,-0.01865721820390682,0.011848916443415076,-0.10619113120905228,-0.11512374620418483,-0.09847715418201027,-0.08803124808173927,-0.07657232792270574
0.92,-0.07112783480433102,-0.055795958590912985,0.016005816924754893,0.06492572037552151,-0.046429818060240186,-0.021098385370130715,0.008396770716948571,-0.1039206973063067,-0.11825486079398956,-0.10369321691842635,-0.0836394321932246,-0.078805358251516
0.922,-0.07479689112602218,-0.061982312560379275,0.013029819347501501,0.07015342039208673,-0.04623729791932017,-0.025659514026366622,0.005796558717685226,-0.09882050480766481,-0.12027290807899398,-0.10966221849681529,-0.08126567199325262,-0.08123756323814056
0.924,-0.07565018082985955,-0.06439775858220348,0.011367282829962782,0.07133921593552721,-0.04504291815326213,-0.028244822060938226,0.005668665608248922,-0.09080433817143435,-0.12099047120648566,-0.11169648815518214,-0.08638461555974643,-0.08277790062279494
0.926,-0.07401919558181412,-0.061746536360513006,0.012663866902864685,0.06837058542594286,-0.044587095898202186,-0.02701207906406528,0.00927845075578112,-0.08040135063683904,-0.12002189979035027,-0.10871683222157937,-0.09656742785142218,-0.08318468327163023
0.928,-0.07425361701119584,-0.057837934329527024,0.017016013673854427,0.06588318618019748,-0.047249809370585684,-0.02299165355838708,0.015263370730991226,-0.06912055428572438,-0.11785350618542971,-0.10192972968223149,-0.1012732886583489,-0.08003968284247232
0.93,-0.07909186857405585,-0.05656902580720097,0.022893065517148627,0.06766645489089877,-0.05306476806911373,-0.01855608496325459,0.01971069826628057,-0.0601833820622776,-0.1160901559256616,-0.09132639066136179,-0.09434627996473974,-0.07296739539670297
0.932,-0.08492172431585168,-0.057660644587250516,0.02707234118689087,0.0719643383253709,-0.05824006934066878,-0.01574312763395026,0.019643945751233675,-0.056873895844292074,-0.11548462986360176,-0.07946462952901814,-0.07958495776393439,-0.06468705300183876
0.934,-0.08459031659625284,-0.056502061708860137,0.027534035675864345,0.07230908043724905,-0.05830371310239434,-0.01417063359122205,0.016169457912805895,-0.05924356714790503,-0.11533471601539508,-0.07364093089340647,-0.06474138882707935,-0.056007570185503605
0.936,-0.07646209977750429,-0.05004326261521741,0.026027565045990343,0.06544619011492557,-0.05340710727911637,-0.011776281871450082,0.012807589541481118,-0.06371393115600402,-0.1154352468781705,-0.07884290342033136,-0.05756679328638942,-0.04877504558272984
0.938,-0.06797005218787622,-0.04245222593686306,0.02554276842690639,0.05701815558604119,-0.048916185562704585,-0.008883349832369854,0.011219243245707663,-0.06638606104920641,-0.11682462320663581,-0.09129320657527329,-0.06312239395076785,-0.048727800793545606
0.94,-0.06767425171657326,-0.04113994812486658,0.026750944518576923,0.05551152403221637,-0.04965208786370162,-0.008568294889579877,0.010546299615193162,-0.06604574295711212,-0.12016950370831686,-0.10216102940784717,-0.07856375152931999,-0.05891638069365017
