time,I,II,III,aVR,aVL,aVF,V1,V2,V3,V4,V5,V6
0.0,0.00278633182743495,0.005879818344508399,0.003115426137761912,-0.0042782260342505134,-0.00021939620688464173,0.004497622241135155,-0.0017112904137002052,0.005879818344508399,0.0026766337239926287,0.0009653433102924235,-0.013821961033732427,0.00620891265483536
0.002,0.019463434039188397,0.04140153779459854,0.02206941952085702,-0.030104196503276275,-0.001642251964795738,0.03174644846807201,-0.011953920118556654,0.041182141587713904,0.019026251418838652,0.006743236989955035,-0.09633149705838064,0.043371274276301705
0.004,0.06126505085927979,0.13122928044540866,0.07029164864607539,-0.09537376895075678,-0.005463323288052902,0.10083709223880967,-0.0373829086909421,0.12969672658405523,0.061138569800212185,0.021149675627601464,-0.301292347170213,0.1361405663446063
0.006,0.11624907099377896,0.25058189405771936,0.13477736790100703,-0.1820197102608422,-0.010889288131217626,0.19290899839205983,-0.0696895367412067,0.24524859870037766,0.11837268119349034,0.03974430514824191,-0.5643691409924514,0.256723515717196
0.008,0.15228408154675416,0.33063333831452935,0.17873611320459107,-0.23988080366790818,-0.015124085178093171,0.25500488884600137,-0.08853310432547307,0.3175933181123537,0.15590070092844815,0.050768698481596264,-0.7222071434114974,0.3323192631857509
0.01,0.15541711929963592,0.3406002126907968,0.18548483899096968,-0.2465353074713688,-0.016539941520459293,0.2630533093711397,-0.08822699338553933,0.3144310447511033,0.15144812025822926,0.0481065123741856,-0.7077192497577435,0.3301082494661773
0.012,0.14611965838952276,0.3217149275946135,0.17587207781479028,-0.23268971026535462,-0.015608282832953176,0.2480350396087302,-0.08776985478398985,0.2758670943457478,0.1201437826601327,0.0367969587367485,-0.6255534816133898,0.2915533054794133
0.014,0.14942856444978397,0.3238107241588439,0.17459642429090078,-0.23589792107661098,-0.0129613991232625,0.24774400654724565,-0.10684099369869549,0.2531021588296785,0.09322895287928075,0.02445740780082219,-0.6011730161133869,0.2709192259087968
0.016,0.16560062760144942,0.3474744391465179,0.18202558377053848,-0.2565465061110895,-0.009094377319482748,0.2632537638545149,-0.14221883609466354,0.2523880848454196,0.08330320406627736,0.014247433330472015,-0.6467503351964639,0.2784799175845027
0.018,0.17651168895404468,0.3611374572382683,0.1848638090600139,-0.2690982925275844,-0.005856349835538919,0.27216347039348504,-0.1727258113022787,0.24969973807418333,0.08076856403662888,0.008064275675520365,-0.6967859664382775,0.29156725684354656
0.02,0.17046008702118287,0.34895988546661216,0.1788613490899554,-0.25916475711971043,-0.006296496346176145,0.26384398479436755,-0.18285648187116246,0.23157416004181008,0.07712890715755422,0.009910366060177325,-0.708822189197189,0.29490230171388443
0.022,0.1546010782254373,0.3252437985526759,0.17091478511369398,-0.23814638621201822,-0.010318701038604895,0.24813028541158194,-0.17780994701787933,0.2069857332660139,0.0753859299065758,0.02066700833185657,-0.6959557847392687,0.29494094971067536
0.024,0.14526090211318524,0.30916663808646955,0.16394310206514048,-0.22522476377968687,-0.011356799534840697,0.23590408102708882,-0.1740022120190173,0.19054981293918005,0.07694620340564413,0.03355998051205546,-0.6881360342247339,0.3014409319600414
0.026,0.14780414431239938,0.30030607538050497,0.1524984322387384,-0.22315609685382473,-0.0039029788873681196,0.22492811461246545,-0.17915772336929903,0.18557692074683388,0.07367922474881818,0.04014554192300139,-0.6956340043296548,0.30893340784614715
0.028,0.14979614739885685,0.2845703042358902,0.13502132044710566,-0.21750220339630802,0.006384446235592539,0.2080513520081396,-0.18795588120281156,0.18401203241188055,0.05964811103026827,0.03881533138002099,-0.7118027473072568,0.3033272865080322
0.03,0.13903127547049304,0.2564303009706491,0.11785363078121729,-0.19834341403109787,0.009741889975991569,0.18554773698459232,-0.1934409471138446,0.1787749983941213,0.043178141948034335,0.035117021143220184,-0.7300345306813502,0.28227911609843
0.032,0.1226004835965093,0.2265690606148815,0.10426112829310155,-0.17451213689969053,0.007934215549048556,0.16393852640513953,-0.1943689772634872,0.17244200072560475,0.038061778734956635,0.03498799041737849,-0.7478311832460143,0.25984764080069533
0.034,0.11861419355539904,0.2095112894833228,0.09075118164929484,-0.1628713331178676,0.012051145860204483,0.14872414872295905,-0.19272499209077026,0.17295190247051317,0.043822039971969554,0.03834894135686332,-0.7631169670188206,0.24952538735212487
0.036,0.13335632392926464,0.2094022535252635,0.07554598417086594,-0.1693702258545164,0.026552354626833446,0.14125330602610522,-0.19052300897927185,0.18276240415928902,0.0452740273912165,0.03981152235738458,-0.7735279932893381,0.25015494120909315
0.038,0.15541096848997538,0.21778107341907105,0.06186547576445705,-0.18446647180800463,0.04441024356928463,0.1387440520075854,-0.18914405238718662,0.19454774134104813,0.0325638078369112,0.035385954992036964,-0.7783193692822468,0.2517171664133336
0.04,0.16964206727185738,0.22233587765630447,0.052489984337262825,-0.1940416082722522,0.05664636760229517,0.13619757693484466,-0.1883975394869403,0.1987645750750846,0.010813530499275012,0.025935796610192567,-0.780171800245427,0.2480596473384968
0.042,0.169895378510132,0.21614498100983415,0.046344619057677464,-0.19110458612884262,0.06036385089869629,0.12964747733353726,-0.18615336933951085,0.19453429214192958,-0.00923681626327477,0.01476167107195248,-0.7838036953114093,0.23959678328613312
0.044,0.15862566930191505,0.19945180299600984,0.040977217325477676,-0.17717331494527103,0.05755421145970987,0.11827653792895652,-0.18063288235273292,0.1903862280598823,-0.019949017066411737,0.005854467627184527,-0.7906128539525284,0.2286554235382759
0.046,0.14063641123875792,0.17649849350220165,0.035890132811522,-0.15688285847706399,0.050889978981763666,0.10432516163600943,-0.17272133644045073,0.19370044345734397,-0.018807738298199966,0.003062026489153922,-0.7966085634348697,0.21707703064663353
0.048,0.12078110284895695,0.1527449627170043,0.03189805054725784,-0.135154538262595,0.04303674442271852,0.09092948522269811,-0.16414914917796278,0.20265523768821792,-0.009980585670799869,0.00667753220933376,-0.7977068737220543,0.20700609265576098
0.05,0.10551875586322428,0.13336778066225508,0.027802378155938095,-0.11782835124378528,0.03814604138622624,0.07952742055968741,-0.15418776296380388,0.21001834578864942,-0.001697092278939506,0.01262832430979451,-0.794408215125518,0.20009444065607992
0.052,0.10129161740170711,0.12124209610886552,0.01996371765216604,-0.10977875400297671,0.04059733591634696,0.06923983997787979,-0.14158615001943922,0.21134369844089296,0.0016877970061291321,0.016950215292303266,-0.7904602134086232,0.19528562269305635
0.054,0.10849498765727121,0.11487884257757017,0.006437423672855225,-0.11036182498071438,0.0508256998282,0.058578100818615815,-0.1294647485054435,0.2072072675138402,0.0025323999952253148,0.017898059907749446,-0.7899461667857789,0.19005354595886506
0.056,0.12022697214855585,0.11020112389621985,-0.00988665091466848,-0.11371971963276599,0.06422643367467898,0.04766831154745459,-0.12395630587995134,0.19999777390376508,0.004165080848121916,0.014404621879407706,-0.7950269513798539,0.18392899020598108
0.058,0.12864848339584825,0.10438323550402075,-0.023951305799657763,-0.11439555929995325,0.07512470953962493,0.03799324059733181,-0.12726502064248144,0.19178033347797488,0.005327962320443261,0.007578053378834486,-0.8034682761170524,0.17937318028542684
0.06,0.13013806582417387,0.0960633147587782,-0.033662877483834105,-0.11041268126366395,0.08082489792181863,0.029640036431182473,-0.13512778898021657,0.18520247488954314,0.001636192366879809,0.0026707667836029683,-0.8097833756045586,0.17939358844994255
0.062,0.1257724910689871,0.08505467736598753,-0.04046004444784017,-0.1030008751306695,0.08228762477272225,0.021323241859790353,-0.14147273618414094,0.18331602716905215,-0.008131503359383464,0.004810373583065648,-0.8109456330615128,0.18455655685550673
0.064,0.12060300516183114,0.07555212532643318,-0.045069633225891775,-0.09683821016045122,0.08211089346593983,0.014537145433028042,-0.14357674449916,0.18708855961360882,-0.018951380158529086,0.01362759840184211,-0.8086316509287294,0.19243474771675204
0.066,0.1213093873181659,0.07562768732343217,-0.04580346807809364,-0.09827271273651711,0.08253161520869223,0.014223748983149957,-0.14273702128508203,0.1948828578321683,-0.024248248943997013,0.024320843697874208,-0.8050233301358263,0.19910311651551965
0.068,0.12956052957056274,0.08794670926749767,-0.0415704385255269,-0.10856188451669252,0.08405008959883599,0.02253980162503834,-0.14158495601038124,0.20448108147874758,-0.023158366333808817,0.03173432041555079,-0.8004919976896654,0.20092990425629007
0.07,0.1370432591432417,0.1032621039504703,-0.03354138913496109,-0.11932119081034993,0.08376320252359983,0.034513115617389914,-0.14166114859669376,0.21408423280463854,-0.02170769500566346,0.032945547932407615,-0.796395067212763,0.19727990766060036
0.072,0.13388827255787913,0.10898482689307296,-0.02475150324310523,-0.12015879136136559,0.07825129863096683,0.04217433205865998,-0.14316113159357088,0.2221452045804501,-0.02545271826146719,0.02985340416670501,-0.7958667133304158,0.19149118664956347
0.074,0.12259453393037323,0.10204912624387273,-0.020708803289082922,-0.11076416832114293,0.0707854275858622,0.04077355066766043,-0.145224122937086,0.22745967914133433,-0.031993085538975057,0.0294862037867764,-0.8007026997292492,0.18717930483036907
0.076,0.11358082995000338,0.08760887370772986,-0.026282240394439892,-0.0986749018700398,0.06885107330168566,0.03025524192209574,-0.1458344321066415,0.22902506431753344,-0.03397193418471447,0.03672668932896565,-0.8095794766995242,0.18485785487581252
0.078,0.10889132168946829,0.06983423404819196,-0.03919309610351649,-0.08747658151237735,0.07279336195803232,0.014202218200839101,-0.1434490510521225,0.22609896121844472,-0.028296161294474848,0.04703153721093563,-0.818314348028859,0.18320423857471696
0.08,0.10460065083054335,0.053520503134725346,-0.05101124873071677,-0.078010294513735,0.07661566721432135,-0.00022108180221067477,-0.13955583758866355,0.21955606620311535,-0.0176272722081921,0.05370629085159022,-0.8207278271100528,0.18294760900634766
0.082,0.10447628340150929,0.05049503573664079,-0.05396867173742914,-0.07752912219814094,0.07831835657279998,-0.0029065210966418456,-0.1387462480754835,0.2123338489202518,-0.005438011008239073,0.060422837488182474,-0.8121980548300638,0.18998736855529186
0.084,0.11255353077271446,0.06731936719917389,-0.045418463301195436,-0.09044729100644013,0.07858596597131932,0.010575232459657628,-0.14590759826805774,0.20639560446155208,0.0021417035943474194,0.07413426528240546,-0.7964260872926946,0.20922799287740668
0.086,0.11796933521863652,0.0870485661653472,-0.031076367384422283,-0.10252187208906456,0.07450043460915888,0.028140527540501985,-0.16109854104415128,0.20199223078010345,-0.004627489506602449,0.0885421359645879,-0.7862918791639087,0.23141553130458345
0.088,0.10594290970960536,0.08596288211526186,-0.01987043612234417,-0.09492225621868228,0.06283466567416543,0.0328135564349445,-0.17361741422220323,0.20309562473174,-0.025183736373663772,0.09069658055281536,-0.7907235248057506,0.23685291065472686
0.09,0.07654725172837941,0.06603595531994204,-0.010345550807524286,-0.06953371629143948,0.04309945935279775,0.02662223281573457,-0.16484498468991807,0.21739306158541857,-0.042769057428732396,0.07999177722575172,-0.8043606741816797,0.21601837663984783
0.092,0.04175159128753233,0.04727515685600603,0.005343209403286199,-0.042856081010590526,0.01749735706180146,0.024343901437522932,-0.1270463313718434,0.2482394780106132,-0.04284975875300832,0.06760259892968902,-0.8161601406726018,0.18034017086189488
0.094,0.01796962307665135,0.039607325937199706,0.02115868797980623,-0.0276837158651618,-0.0029812116023191825,0.028440256685681207,-0.07689204278618933,0.2934877323946453,-0.02189431014516238,0.06617062613352157,-0.8182859497666677,0.15718666417174687
0.096,0.023706648946433567,0.04555509491833753,0.021624141578884253,-0.03383490633107896,-0.001068425184660928,0.032486178260864085,-0.037537044054046294,0.3498694601888751,0.025159801082578835,0.08825472567370665,-0.8030425988264845,0.17179354573897082
0.098,0.06403820459144527,0.07228868239441576,0.008716235714476703,-0.06739518622182998,0.025764913723546588,0.04057148960201589,-0.012460311144314415,0.412792512266638,0.10416874369144065,0.14351070870058474,-0.7641878916720742,0.22437843614774866
0.1,0.11820886319773695,0.11760310126987278,0.00034723761554627717,-0.11739847440499811,0.058304955885183966,0.059637689159832946,0.010017690761126232,0.48025983068851436,0.2113467451990027,0.2357314279287017,-0.7009200264127337,0.29562970905811775
0.102,0.1608657364899468,0.1628079992939526,0.0027213498031061086,-0.1618377109498261,0.07933692193778023,0.08290932652861441,0.03609798157011003,0.5603274509858281,0.3439020943894992,0.3711386701265815,-0.6087980597475758,0.37854067160480603
0.104,0.19184892609236875,0.200993675602064,0.009315451120606253,-0.19646521957124416,0.09091037567987229,0.10407728120213285,0.06158051098936365,0.6545319739851577,0.5038960886549867,0.5568181568922413,-0.47398220867900265,0.48137249511134295
0.106,0.2306508191314299,0.25496498271463625,0.02405948218643254,-0.24197379530731045,0.10153495757965657,0.13756944332156823,0.07331335140722865,0.7183325131302557,0.6588745795367678,0.7760819527819295,-0.29156075114035346,0.5994038166470786
0.108,0.2850560518839573,0.3483641783351594,0.06309125714584016,-0.3146430101598409,0.10843965563286778,0.2041325279471413,0.04632928667215943,0.6602201443044385,0.7164276483168377,0.9818765530372154,-0.08422758924255735,0.7146186482706334
0.11,0.3347129623061334,0.4707573410116086,0.13606879271956746,-0.40024933442506994,0.09708466599494749,0.3030890409907203,-0.03771099362453375,0.41906115201943755,0.5911633394587004,1.1319184313007014,0.10888594626908878,0.8216313609419601
0.112,0.34997024569155916,0.5848907121773321,0.23504712183962104,-0.46586625823925276,0.05620700353554955,0.4105080765776756,-0.1516141233979433,0.04846048281850465,0.3137631316990731,1.221359567716128,0.2594901138521118,0.9279720158400064
0.114,0.3319894232334737,0.6654742205611008,0.3335542032772547,-0.49864266927850365,-0.001233660282626151,0.4995207111100584,-0.22622368969443102,-0.3040374317727472,0.0376385198947471,1.2777280573386929,0.36506218041683197,1.036122829459956
0.116,0.32371706833772157,0.7234774091821412,0.39986769470302613,-0.5242926902875709,-0.03874449798579723,0.5601639584835615,-0.22194715423191014,-0.5192530468696134,-0.09925947126689151,1.3308778328871262,0.43972738986420684,1.1387396217022088
0.118,0.3588998634728292,0.7836083416489833,0.42514147709687244,-0.5715322653911171,-0.03479006876254461,0.6017372589925232,-0.1885344490907395,-0.6030213608900418,-0.11629417624101406,1.3734496099980318,0.4812872151623539,1.2142476373466506
0.12,0.4102566220850002,0.8352435983969235,0.42587057604666156,-0.6218330879506845,-0.010077797576996238,0.6280937147488845,-0.23276755715985323,-0.6648846000018295,-0.17236707369145565,1.3397554437894121,0.44680799531327575,1.2249731679477196
0.122,0.4198233997115134,0.8230371474521856,0.4042463836879192,-0.6194966115130434,0.005736462115108882,0.6121526101445578,-0.42394481245435944,-0.8115994611331505,-0.4067098984980092,1.1452471588267097,0.2800454917937061,1.1433963936391724
0.124,0.37391024476468515,0.7039755062489318,0.33072942452624776,-0.5369176558275844,0.019942762397647033,0.5163358362866265,-0.7337122046711867,-1.0526013962102871,-0.8137923956741113,0.7608741693545606,-0.03657012646351951,0.9768861232714834
0.126,0.3138228539494864,0.5032514327998596,0.18950346126679352,-0.4071587981876274,0.06079315676567,0.34489987053190735,-1.0614247106229506,-1.2967610486996504,-1.2673690877240507,0.24247424674166745,-0.4660528798845151,0.7525288243819073
0.128,0.2752689491254352,0.29707360727476184,0.021559204989813573,-0.28539746141458383,0.125851688899275,0.15724684205470232,-1.308954399012063,-1.443867958031491,-1.6339018685332447,-0.29906179610515704,-0.9293784379478789,0.49896831771605576
0.13,0.25065309364746363,0.1493707602878633,-0.10144534433783393,-0.1993447753709521,0.17533223814342605,0.02174720734993644,-1.4343918901225632,-1.4760188215951728,-1.8530606699420347,-0.7432905579550133,-1.3215031127419021,0.2572749393226564
0.132,0.2161905193800099,0.07562199033375042,-0.14052338197595637,-0.14502607436710488,0.1774806581515281,-0.034628646456280276,-1.4528398460399892,-1.449933558811757,-1.9373356821919407,-1.009011132077192,-1.5571617461595588,0.07735243765777838
0.134,0.17474321027072182,0.055726956127409466,-0.11888675768886303,-0.11435532468584421,0.14551796242011023,-0.03360828001258701,-1.4035239712243823,-1.4131969066335048,-1.9210201656564112,-1.0934472261814978,-1.6332417008831357,-0.019075529030200676
0.136,0.15800977472128266,0.06319970843095599,-0.09462965029112744,-0.1102213067571788,0.12495729980995306,-0.017156607687472687,-1.3152462874781798,-1.3526250352174252,-1.816534423852408,-1.054647233368861,-1.6210583249425925,-0.050185170074470806
0.138,0.1804602459086165,0.07393958160630132,-0.10610711246165552,-0.12734939267501214,0.14233086519336124,-0.016805591886391864,-1.1937836953799648,-1.2255635964115432,-1.623827615937102,-0.9482855195209705,-1.5802026396237292,-0.03822668982001713
0.14,0.2074266207883104,0.0664171088501896,-0.1402957574516834,-0.1368638929030722,0.17316820724218843,-0.03767975873450709,-1.0408631910793245,-1.024442256946998,-1.3739674291405177,-0.7992075794370196,-1.5107192881938765,0.010685604770358324
0.142,0.19804069888659456,0.043884667731186,-0.15347057562270575,-0.11998669535444166,0.1747201020367711,-0.05642616561104752,-0.8793534325161707,-0.7970277040057049,-1.1316737003991244,-0.6273825133884028,-1.4019622097605107,0.08059074084967044
0.144,0.15877656341782478,0.03914589073134249,-0.11937754633975342,-0.09744441663592593,0.13730458257798778,-0.04262639647958878,-0.7432899337090906,-0.6012702622978567,-0.9394297307232636,-0.46806450679315137,-1.2866511432978767,0.13250206795259853
0.146,0.11750312790196993,0.06300062087358392,-0.0546668622079973,-0.0892695415208406,0.08368889906142578,0.001536782511209136,-0.6439146106114958,-0.45312836590171823,-0.783806907760859,-0.3535738915382232,-1.2133710517764063,0.13968141097652537
0.148,0.07732793756142209,0.07549545879561273,-0.002050784399030936,-0.076168030972648,0.03734953846642784,0.034483155792594755,-0.5648178815382671,-0.32954466021527434,-0.6326955076175961,-0.2854690291625618,-1.1852488586702334,0.11621796063308261
0.15,0.03673292447386118,0.04511241729440586,0.008354086489316416,-0.040404118669333834,0.012817135883941809,0.024711834795351394,-0.4894004693110284,-0.20798083451960817,-0.4827640038433392,-0.23353387715150375,-1.1572648251009385,0.09637657931271618
0.152,0.023600556759409773,0.005322311795263981,-0.018152659609318587,-0.012978594582247493,0.020722657135485437,-0.008396873810780728,-0.4139360703206817,-0.08486462802812646,-0.3527959862136892,-0.16208558857133434,-1.0888671300624984,0.10400473906511297
0.154,0.06922655728813795,0.013009142642999141,-0.05602245455165141,-0.039238271105011206,0.06278959650751975,-0.022958362794428953,-0.3376346990049463,0.03313774596662309,-0.24746158444753086,-0.057070902479490995,-0.9812361596022569,0.14611527149773268
0.156,0.15940952694948068,0.06999303864303934,-0.08913663326007207,-0.11317659128751592,0.12353168086047389,-0.009919234516386497,-0.2621753000099412,0.13575701449770283,-0.15151518239064224,0.06243742327236429,-0.8722905168386543,0.2110956871785994
0.158,0.2371362071466619,0.12169696008219591,-0.115194776374631,-0.17826134476145136,0.17441944858869332,0.003690522763109938,-0.201369501748621,0.2105587763985614,-0.06193318660768884,0.15236513864723117,-0.8084358655385855,0.26905905011370307
0.16,0.2580210154305929,0.1269417210779995,-0.1311595685690929,-0.19160252325731922,0.1930978633180486,-0.0017996695234054508,-0.1713476059147308,0.2510592122422921,-0.005619796338325871,0.17575231165387672,-0.8093769852953646,0.29623296769647794
0.162,0.22789891237979257,0.09479224784243512,-0.1335334291009909,-0.16099939879983557,0.18047494831966301,-0.019642569718895247,-0.16614233603468254,0.2651897081700876,-0.005611702225890828,0.1388889982943577,-0.8504112414984876,0.2998616922772802
0.164,0.1801673990378451,0.05264766458391647,-0.1279062204329503,-0.11664621865754095,0.15434408442669162,-0.03834644877414282,-0.15763429953200844,0.2706258508174783,-0.037068397623335934,0.08977389368705241,-0.8875632736795545,0.3031283083899823
0.166,0.13878150477789966,0.016862754975630202,-0.12196093804759452,-0.07822099141873075,0.12964045288284298,-0.053768826610656704,-0.12734914478125037,0.2807797425412774,-0.040733683487923826,0.07503126106910231,-0.8995486937414122,0.3135241532373446
0.168,0.11516688953764649,0.0023692505399578985,-0.11259409550677808,-0.05878083938167496,0.11166368987427633,-0.057231275538087586,-0.08910303496783466,0.2983479696378169,0.013336143689019735,0.10290577614912712,-0.8913486170580162,0.32332814108641517
0.17,0.11497530128952285,0.02373662980259111,-0.09099011662462506,-0.06864018661247957,0.10042116966788828,-0.036645868317970884,-0.07165579281758384,0.3206654123837281,0.09080337580868507,0.14942055493073356,-0.8648574133192779,0.33069868524861545
0.172,0.13092915573112385,0.07103450671132028,-0.05962864905455395,-0.09957602499937511,0.09359632005506036,0.0024991826792480584,-0.0831127231714561,0.3452597442729662,0.13395687997776518,0.19071186097320708,-0.8151011974350961,0.3402473061293251
0.174,0.14550453375925787,0.10811649064753327,-0.03717932653503451,-0.12516421560954086,0.09069377474185114,0.033014159428198714,-0.10219031946676853,0.3689468503277629,0.12785888963230427,0.22074924742778113,-0.755123451612971,0.34898642393463103
0.176,0.14873989031935828,0.10827621268507819,-0.040553836978045606,-0.1272135978499161,0.09448944824265565,0.03266371846979279,-0.10623235670838391,0.38604501846144107,0.10730155199586051,0.24324827126061455,-0.7140109900194554,0.3489666029382493
0.178,0.14332364280359008,0.07956600959819773,-0.06416975143457912,-0.11065099467239473,0.10356922684583986,0.007368124186962234,-0.09656232815856393,0.39239703884057187,0.10378265589546593,0.25983301162731,-0.7049431568067815,0.3403232639039826
0.18,0.13353595994559825,0.049044639330571224,-0.0848654185532095,-0.09033747167938158,0.10865907088773383,-0.0184305218019911,-0.08902045016083172,0.3907581103781077,0.11181675227627937,0.2716316265287826,-0.7140906971194826,0.3291998656558343
0.182,0.12072666330229477,0.033749415990506945,-0.08702149330692094,-0.0753132448466487,0.10268278277646527,-0.02787579130200965,-0.08969878743581164,0.38852355751962453,0.11287095935528817,0.2852986666449749,-0.7201829945588979,0.31628557394041107
0.184,0.10986407580174,0.033321481107422474,-0.07636872760302514,-0.06879732021700656,0.09124887452478521,-0.022874991490812867,-0.08970440632323598,0.39145862525478614,0.1086759260656105,0.3085012111843006,-0.7120083830367863,0.2975300316857973
0.186,0.1101376875907147,0.04097338226037862,-0.06907157844265376,-0.07288919922709367,0.08757055123163068,-0.0148117946622143,-0.07891891961118706,0.401939945655627,0.11522622099733801,0.34035069872679224,-0.6894626873131453,0.27578371873254287
0.188,0.12474274968823354,0.051333392194497306,-0.07357716027072966,-0.08622501161759497,0.09770574253279721,-0.011596552225619837,-0.059185555560976225,0.41878207033848014,0.13515699451548413,0.369944765936487,-0.6592428093362145,0.2641639236748653
0.19,0.14519852502289168,0.060107451674172925,-0.08549823229559246,-0.10132480805348404,0.1145991248449846,-0.013699048781878755,-0.04447048631877536,0.43618717116151046,0.15234147582532456,0.3842005260136992,-0.6316960035489553,0.27225643129329236
0.192,0.1598691169036452,0.06445716911429208,-0.09583117419776334,-0.11061748950239783,0.12697102984909273,-0.017436162379052697,-0.047222614974553906,0.44743453140336414,0.15320226231487857,0.37917519923630666,-0.6148411102312775,0.2917972840700938
0.194,0.16559787449998886,0.06523247392513953,-0.10047708431461441,-0.11386152173324124,0.13116196565247912,-0.019743740628451533,-0.06488214018011225,0.4504302738820361,0.1420024583333208,0.3636686317067514,-0.6098748424927856,0.30415626620541136
0.196,0.16565172612232074,0.06408487611785398,-0.10131848346953415,-0.11405128269386754,0.13079576254660621,-0.0208830575981103,-0.08257113419154763,0.44676296737679666,0.1328710978521404,0.34897124290819664,-0.6145162936486621,0.3020258819049471
0.198,0.1585286710087771,0.05828200470604924,-0.10001178092077569,-0.10820459083286714,0.12675896972646344,-0.023236003833255366,-0.08813179989194121,0.4383348286896074,0.13443665015776562,0.3387187681045705,-0.6261911926246417,0.29581437241248787
0.2,0.1391287764793324,0.04429431676043199,-0.09495572387885402,-0.09115295766543328,0.11534485064792514,-0.02757745014563574,-0.08249430615619367,0.42843943350924274,0.14448198284509378,0.33054949156241337,-0.6401690948462793,0.2983020099073078
0.202,0.11199748157372531,0.02688465463614124,-0.08544516175874341,-0.06799337984768895,0.0974692191245207,-0.031018146760332328,-0.07543916462717394,0.4225093745297891,0.15584754726969252,0.32175967321797805,-0.6499932702856805,0.31151693936797836
0.204,0.09389423763524105,0.018416491234869832,-0.07564716870833317,-0.05416071468434378,0.08311538265359095,-0.029650537319451113,-0.07262532652099664,0.4245850905654323,0.16485668815198584,0.31361612208782513,-0.6507675689223534,0.32897707498597767
0.206,0.09961503773894903,0.02749846178924761,-0.07203003246742175,-0.06164666998395338,0.08340234093757942,-0.022980252341401976,-0.06940941980158263,0.4351820780033614,0.17329014951510735,0.31449299740410974,-0.6401944472722665,0.3425961793888893
0.208,0.12805632612103507,0.051831045190215655,-0.07608728956567888,-0.08862704926245686,0.09924257805012861,-0.01336935469190573,-0.058190569329032105,0.4528471029496635,0.18465293468451563,0.3331678860943704,-0.6200090679953723,0.34802734761842463
0.21,0.16303023996700208,0.08174732528446044,-0.08126110828521958,-0.12167740175317887,0.11944022332683689,-0.0018325743806210484,-0.039348837701504324,0.4746659150942038,0.20049751752309422,0.3650399148884617,-0.5980433372755236,0.34838254295870513
0.212,0.18531655073831804,0.10481459423798421,-0.08056632588639415,-0.14418185757376242,0.13057643293147042,0.010108895004910816,-0.022691957185662005,0.4948029981473461,0.21839860308443104,0.39254458492629213,-0.5837696945788776,0.3497872177503809
0.214,0.18426464312784824,0.10870199783598791,-0.0756055211452288,-0.14461529930283343,0.12780616346557755,0.01571144728371062,-0.018118725784120552,0.5059776954914585,0.23269533572651516,0.4023026851665494,-0.5803136148868715,0.3520452429155296
0.216,0.16303237160826936,0.0905553591641311,-0.07248445246359982,-0.12429263734172803,0.1158894959078841,0.009336913231872053,-0.02606883910166432,0.5052578480271223,0.23838359452973262,0.3969158282390471,-0.5834814760975108,0.3496052835629117
0.218,0.135432135053785,0.06417502791977969,-0.0713361811844565,-0.09793764667921757,0.1021702636543583,-0.0031511407277530507,-0.0378596566528055,0.49702573192450583,0.2348656863151548,0.3897061948148509,-0.5869096076746437,0.34203426927212655
0.22,0.11742880012922226,0.04977528628302995,-0.06784304435169326,-0.08290962344691646,0.09223100020629212,-0.009136677075563586,-0.04421856988239529,0.4889782529171008,0.22726838401291113,0.39155267480406863,-0.586657944804022,0.33679318029687133
0.222,0.11851346442939284,0.05606849811621558,-0.06257548219452029,-0.08688931206432617,0.09033292457457527,-0.0036300734147501844,-0.04186747829888809,0.48775024410664514,0.22379913214932437,0.402473373278803,-0.583948404937282,0.33940379947003474
0.224,0.13474526469295992,0.07496264162820594,-0.05975685615020517,-0.10369226723570138,0.0964386921959217,0.007498805383615483,-0.03313901531591768,0.4977431937686424,0.22923989742079504,0.4136370908764443,-0.584190340576021,0.3451098855690032
0.226,0.1518086512796917,0.0924041527326081,-0.05942622503492054,-0.12017864856139909,0.10393832218185169,0.01673489738881623,-0.022249891393893204,0.5188693917666228,0.2414229133482958,0.41795716069999855,-0.5898498990686176,0.3448728943092848
0.228,0.16051842359705282,0.10148463044682884,-0.0591763601410515,-0.1290920055034437,0.10746369291726485,0.021247926862117298,-0.012504940065066741,0.5444324127298616,0.2548113491022616,0.4192240032109439,-0.5942105361499334,0.338921074737603
0.23,0.16466197299286006,0.10493067014612008,-0.059608894084693616,-0.1334916356257077,0.10936087323780808,0.022075498274262105,-0.0053122299071434245,0.5651297670924252,0.265013237346128,0.42772220044048787,-0.588341353581344,0.337556093013662
0.232,0.17054799520674807,0.10816337454781867,-0.06172104524184454,-0.1383222612874631,0.11330732733541382,0.022117852808234015,-0.0004150186563891006,0.5764203293022416,0.2691836784077161,0.4460318423496887,-0.5754825361908139,0.3459401087168789
0.234,0.17659627628248065,0.11106940512942161,-0.06471552319340268,-0.1421335000104074,0.11800775954342412,0.022283683757667466,0.0029107240746042355,0.5806900498488156,0.26482414016980016,0.46666026549978784,-0.5689282772941545,0.3563930153350427
0.236,0.17677098606410915,0.10746362170526218,-0.06895961048305412,-0.1394464311860394,0.12064760417730586,0.01883951734481055,0.004114415560875853,0.5833534668431981,0.25201505767761645,0.48515904373639873,-0.5730939818102418,0.36039257811998204
0.238,0.16881802227822637,0.09447972682620683,-0.0745007327268032,-0.1288825202438135,0.12024414179512131,0.009533358390103082,0.001069971538494726,0.5880084827144433,0.2380146839011079,0.5030435726465371,-0.5776694132350542,0.35978146999611965
0.24,0.1559588902696462,0.07768495968432967,-0.07842186314180397,-0.11503287557006724,0.11648053585721413,-0.00123762594328996,-0.007107181811235939,0.5940297188758701,0.23378326451779335,0.5175664499423522,-0.5732222442255046,0.36089858972634853
0.242,0.1431451258859793,0.06367644275087504,-0.07918522055288095,-0.10271947042849032,0.1101965863234306,-0.008743705950521033,-0.01643692018738195,0.599379875702198,0.24319690316355755,0.524960617326237,-0.5617729869927871,0.3644982241088084
0.244,0.13453337613057095,0.05482300007888365,-0.07913795110120668,-0.09438878811389327,0.10486028686880225,-0.013029609007171705,-0.01863186520896279,0.6064594099175991,0.2628704524362081,0.5332372873065652,-0.5477383494481508,0.36727173729509227
0.246,0.13268934782466058,0.05311984836480488,-0.07909730897997497,-0.09231944441106693,0.10359645979573909,-0.01398613677093892,-0.007605166880608304,0.6214503442195775,0.29127239656023096,0.5563205950154598,-0.5283117152412186,0.3694569953624031
0.248,0.13663542015243565,0.06128652842061823,-0.07507561759759152,-0.09782091755883718,0.10454663518027599,-0.008196318666143041,0.01405403319432196,0.6463541774432867,0.32750163912902525,0.5956827983482071,-0.49989465845215897,0.37475425785988536
0.25,0.14290452729738232,0.07927302573504835,-0.0634147007326266,-0.10970133137987055,0.10298248657468943,0.006514432079350063,0.03758871966997656,0.6759220011107517,0.3647544072593129,0.6383315557194218,-0.4662096610724524,0.3837951796736153
0.252,0.1515701439226226,0.1032521905797963,-0.048160709646468444,-0.12623959457872747,0.09967251530405098,0.026121701944878922,0.0566996747411787,0.7036176149657526,0.3941145877519932,0.6719989440158979,-0.43327124162690495,0.39305762616987006
0.254,0.16649612277657436,0.1263862687445299,-0.040194269412812234,-0.14527201510114338,0.1022212886522984,0.04152783586270322,0.07034739991183597,0.7269091170903988,0.41153932375866326,0.6956587748182752,-0.40294435662070754,0.4010066626040584
0.256,0.1860256460278072,0.1418334718131075,-0.04458917595193321,-0.16207648929733987,0.11350662483932203,0.0470304886856583,0.0791232938435257,0.7458407500982699,0.4188970590136395,0.7154179805335499,-0.3758022995682364,0.4108652502304473
0.258,0.19954964426197216,0.14800308347273894,-0.052035195218556235,-0.17126400747486153,0.12412152706150142,0.04683314720649174,0.08275997444389897,0.7595983915148166,0.42148323861798354,0.7333688259799034,-0.3545035614856066,0.4242251594207928
0.26,0.19873042665460883,0.14860737359329604,-0.05039718705525176,-0.17144326202267998,0.12336779457027784,0.04872862238682887,0.08066192286954586,0.767399004895446,0.4234965613127526,0.7436163647986764,-0.3412031885846798,0.4354384267315872
0.262,0.18852072807837078,0.1471901628820455,-0.041420626542520635,-0.16657751978694516,0.11391399952631401,0.05317786016686369,0.07450907335851811,0.7729772057774482,0.4248563857753761,0.741922453392921,-0.33479354969336506,0.43650621564031306
0.264,0.18237117835828404,0.1448817739767865,-0.037763939274210595,-0.16273670742920202,0.10864707487979516,0.05399480705668933,0.07030502949173463,0.7848372505402527,0.4239329910111162,0.73431390806616,-0.3320378172683065,0.42486990868439795
0.266,0.18730935539806975,0.142195199491706,-0.04568211681444411,-0.16316930749517097,0.11472056402068348,0.04810187891031178,0.07454895068010538,0.8082560599357348,0.4230180745163912,0.7285686438176824,-0.33009637677806214,0.40468200307808466
0.268,0.19555959288315025,0.13817929357485076,-0.05779209375172816,-0.16444259644855128,0.12523708106158066,0.03894707620258519,0.08620659932833154,0.8384249575783487,0.43045496656242366,0.7238771905762313,-0.32679909948137864,0.38541247014745755
0.27,0.19291250441860738,0.12988027442951747,-0.06289625911690008,-0.1591571530086071,0.12737574975694105,0.031449000482567734,0.09643575161022333,0.8654983977223724,0.4568152069308356,0.7204146697315122,-0.3186861034317978,0.38063218582653624
0.272,0.1771771115287374,0.11889290204547129,-0.05785138120069045,-0.1469957806708541,0.11756944966323982,0.02879401562344426,0.09926202627844975,0.8857034120687728,0.5051266297647372,0.7303806479802968,-0.30296594960905804,0.3997995660363644
0.274,0.16306814306684925,0.11460656330411288,-0.04824463364936046,-0.13891522058860026,0.10553292506628906,0.032669576553772464,0.0985931154411742,0.9039659349560978,0.562361789434311,0.763703874629792,-0.2831209081792079,0.43549501291083886
0.276,0.16438300461338717,0.12445798700924773,-0.04006279162218839,-0.1446986177330567,0.10165409583517859,0.042613102185473616,0.10356800930829474,0.9257795298631165,0.6064625038400294,0.8087689756260565,-0.2662134813052328,0.46512236590370193
0.278,0.1782239175588402,0.14440540269610888,-0.0341277652614908,-0.1610806393951753,0.10540459504122805,0.05549344172596911,0.12039666669321901,0.9501578812010116,0.6274165826768788,0.8424331979040934,-0.2529648606589855,0.47181425417094486
0.28,0.19178595472675092,0.1612879326897583,-0.03085072412242404,-0.17577195224545558,0.11054793564214165,0.06503601815285269,0.1468145073127194,0.9729689938408572,0.6363721932826235,0.8560159805429117,-0.23753013854043076,0.4616007627005696
0.282,0.1974086187500952,0.16419160323636253,-0.033577185605719206,-0.17981284886634952,0.11478582612647698,0.06481533711566555,0.17215275473301345,0.9943018342684475,0.6491523759631208,0.859846767401052,-0.21766669494097537,0.45468939792203833
0.284,0.1959685760999418,0.15713115687174897,-0.039169943282507225,-0.1753898571685931,0.1168820692675716,0.058429732087583425,0.18610932083447274,1.0172878530731504,0.667612021190924,0.8659840097324673,-0.1987371834973573,0.45973577998901455
0.286,0.19268032295312576,0.15702829869754384,-0.03597369614440715,-0.17321064740647973,0.11329743068722811,0.05998526133366169,0.18838222185954578,1.0415044981520145,0.6840433184831983,0.8772247050409625,-0.186850220352974,0.46673146428999274
0.288,0.1930894263320629,0.17292599727213281,-0.02047937797411723,-0.1807488567587794,0.10510206240434267,0.07575279170733748,0.18681506786387012,1.0641659056303001,0.697053537519225,0.8905712726700731,-0.18233050165197784,0.46843530630385494
0.29,0.19786010074042776,0.1939477526002773,-0.0041125063519998895,-0.19357159797482673,0.09913747698542666,0.09445965914553532,0.18713719910099919,1.0859130099577345,0.7138125249836941,0.9031886639267687,-0.1808829833484283,0.4731224944411539
0.292,0.20243171228053583,0.20423511353194013,0.0018005551583715144,-0.20185127094316185,0.09905692344550879,0.10233356021270687,0.18879031399159102,1.1085268921289944,0.7387699410887034,0.9151907838196488,-0.17785522783809452,0.4889179746224169
0.294,0.2038946741484944,0.2019262025602179,-0.0018664080161578862,-0.20268921559921815,0.10199803925880786,0.09892796827485212,0.1900627064716232,1.1293359580354154,0.7642922227793456,0.9280297782058379,-0.17105815264886506,0.5095079413686308
0.296,0.20374175415554116,0.19675420673006105,-0.006930043444576818,-0.20075001707746043,0.10397943062185053,0.09350631981080759,0.19156658473516405,1.1438238033090622,0.77460524743858,0.9389820609468004,-0.16273075859599834,0.523770581313037
0.298,0.2040651159636694,0.19530658155024455,-0.008805616397570753,-0.19999132959942767,0.10439698341730948,0.09196278141782355,0.19360118529252474,1.1507494754700984,0.762770030330725,0.9416424876845962,-0.15800084081099589,0.5308326988806732
0.3,0.2041168642180086,0.19545066678985065,-0.008818852362979848,-0.19925396179173255,0.10417632012020318,0.09240308512376944,0.1951110252609667,1.150880830041717,0.739915449445798,0.9347116500526915,-0.15925383688691763,0.5371522348383498
0.302,0.19962389987238516,0.19276589628411486,-0.007061426488584992,-0.19458995685655192,0.10115972092767425,0.09196673122668673,0.19606280630267234,1.1443162662210955,0.7213551858878148,0.9249401632712859,-0.1634764001594005,0.5429726588328234
0.304,0.18600248474696784,0.18634980240498392,0.00029404926463619203,-0.18384308088350484,0.09102670196240073,0.09184385412954867,0.19640483536303496,1.131340886514199,0.7090763964372365,0.9196032917210165,-0.16543848034066105,0.540966465789163
0.306,0.16517911898685841,0.1775352531787799,0.012668049237611308,-0.16934620261400493,0.07496325567619025,0.0929768467681629,0.1931175085147449,1.114190939280093,0.6957851526054321,0.9203523480795306,-0.16200370796689148,0.5297415399170972
0.308,0.14991380905069057,0.16964083884662512,0.020331243270510432,-0.1589506986331288,0.06389624903263634,0.0928809760505097,0.18274746299618458,1.0978024384022202,0.6826210483656547,0.9255068293509376,-0.15321100659811487,0.521712375730049
0.31,0.15556640016728712,0.16945222790265713,0.014419065337470068,-0.1624745018379006,0.06968217743334827,0.0903508229955521,0.16614281062279881,1.0867461647874874,0.6817618132029445,0.9343751005603391,-0.14084529320166467,0.5302046998474004
0.312,0.18234294765394457,0.17984833658402702,-0.002323772700634553,-0.1807382978164477,0.09124894933970312,0.08754200150805282,0.14728440364007356,1.078041955545556,0.6970178000828515,0.9459965293053908,-0.12848613690775532,0.5498028191640325
0.314,0.21363636669440297,0.19359606168896393,-0.020171158935073367,-0.2026274232017612,0.11577864277858607,0.08553824109629542,0.12908136825188424,1.060654423461636,0.7109388888919955,0.9558368945998612,-0.12151806094458531,0.5596243740680235
0.316,0.2366304090691116,0.20312036496987457,-0.0336629821970141,-0.2188551337736827,0.13416548759969346,0.0833705660627147,0.11368011805295386,1.0278547855596407,0.7002493336479921,0.956989335604051,-0.12372694913399593,0.5495244122896142
0.318,0.2519375593497618,0.20852830667902358,-0.04341898107593439,-0.22929016510995495,0.1469067794159424,0.08073556541413783,0.104422064038453,0.9880137711483882,0.6601711718674282,0.9449736966150556,-0.1348941223154229,0.5329252989191441
0.32,0.2609352266468652,0.2101614550670042,-0.05069795975351935,-0.23396487913005748,0.15528189811080703,0.07734643837349389,0.10300282864788392,0.956439191202521,0.6071420931719493,0.9217872971504105,-0.15235902957466288,0.5283586237630303
0.322,0.25981097132352177,0.20484554868675678,-0.05494580712229302,-0.2298182077234238,0.1569746149420049,0.07232865483023625,0.10551575999914697,0.9355623620607125,0.5605961900794911,0.894328306104246,-0.1724674959571035,0.5377518711178044
0.324,0.24805662427662908,0.19248917085310638,-0.055719884483601954,-0.21751108341163844,0.15131580790074617,0.0661556175657068,0.10359626234175176,0.9115733950306173,0.5276858659922805,0.8679043140844078,-0.19097892168481312,0.5504432557241175
0.326,0.23117851025314,0.17678643177617415,-0.0547521221872137,-0.20169523359623046,0.14205927307704208,0.05964059695964124,0.08971418441234222,0.8744803248731892,0.5037448354485184,0.8434697185839016,-0.20653197908137105,0.5561593035423094
0.328,0.21540853634665924,0.15987400235711385,-0.05596120399249466,-0.18602225873116607,0.1347836158015919,0.05130065599216157,0.06236508750515812,0.8310799039339931,0.4812576694023171,0.8208561899430132,-0.22415326435599608,0.5410736736526662
0.33,0.20497099728097717,0.1420510371049481,-0.06315965804384044,-0.17252557053085374,0.13371279544422868,0.039005927239711524,0.027298137355747817,0.7933756392549306,0.4568791426338644,0.8013717027010585,-0.24835458783048478,0.49406425119697356
0.332,0.20086809867837663,0.1253684554793551,-0.07546419036858,-0.16257052619003975,0.13837259388605197,0.024372137695902553,-0.006014272148295387,0.7653310624698851,0.43168254323881905,0.7855575013725656,-0.27271086902177044,0.43773568447996747
0.334,0.19895515119420848,0.11370281446823087,-0.08511051437048364,-0.1556993628145598,0.142161084601273,0.013325426941813797,-0.030582470881154858,0.7439936596249985,0.40515574612788385,0.7687442760614754,-0.2873803153792264,0.42026684499603323
0.336,0.19168523264605422,0.10780888245636763,-0.0838423083032009,-0.1486108474491983,0.13725892482697669,0.010382140680617652,-0.04736185786029186,0.7233801091085006,0.37170707718731705,0.7424556409878101,-0.2962786521108583,0.4555960303628027
0.338,0.17547076916537946,0.10374901599727768,-0.07190048518149937,-0.13811657924698031,0.1226565115912803,0.013968508101228317,-0.06307158639775555,0.6963338689080948,0.328036763860159,0.7045063346076197,-0.3125101354161462,0.5050602175504894
0.34,0.15792420780629232,0.10066061673436139,-0.05766603464728351,-0.1279113073035303,0.10664816293222835,0.020111917442245483,-0.0806364183388963,0.6598989333597783,0.28149089715468517,0.6663665684678352,-0.3362342496812419,0.5280516066753319
0.342,0.15441948829106109,0.1049005931739508,-0.050094622696688094,-0.1286213875850357,0.10105553499585739,0.027205921520844296,-0.09598616824546977,0.619198957697805,0.2432381575172721,0.6449035675296305,-0.35115026407751176,0.5216386335864334
0.344,0.1731289055508037,0.11929052190332375,-0.0545237766639885,-0.14537148519798532,0.11244306367563091,0.03289493303737103,-0.1061431117839574,0.58307761654673,0.2162947597686443,0.6452611271193114,-0.34630406556443993,0.5070387602955316
0.346,0.20442027277478575,0.13357799706769444,-0.0715309659867277,-0.16820096506668844,0.1365597657562841,0.031230028740573387,-0.11498804208208933,0.5564248734873825,0.19771907696659916,0.6554168931439668,-0.3307131977123157,0.4996967934772183
0.348,0.22808684917587568,0.13423960028527074,-0.0942355319633724,-0.18050067204051806,0.15998605503460311,0.019324379538029672,-0.12707163414715583,0.5377179566186692,0.18474170410309873,0.6575238188853605,-0.32153612101068657,0.4999006201020027
0.35,0.23217100940347601,0.12186264361519389,-0.11002815267153349,-0.1765333999290191,0.17012787045286798,0.0043309053669320745,-0.13953738240484004,0.5228062362183429,0.17230541160819493,0.6424797686218466,-0.32496209730162495,0.5024728247112924
0.352,0.22309595514780772,0.11123602133676538,-0.11098522455183232,-0.16651561622897978,0.16593220196012057,-0.0021282542633107924,-0.1462434403263972,0.5090595425490785,0.15513268289645005,0.6161050755144224,-0.3344590996860234,0.5068138578653975
0.354,0.21506543771223635,0.11243790479804115,-0.10179062903835652,-0.16260413644434465,0.15699368723836807,0.00287700794056313,-0.1478020124291036,0.4955358252801777,0.13511351555658493,0.5921709734294841,-0.34365939562757236,0.5155695046803519
0.356,0.2120429631287971,0.11730177646496609,-0.09447115369339822,-0.16323019003522418,0.15179580708597942,0.0093915691392225,-0.15120632946290422,0.48097514598078334,0.11761438798897011,0.5778318056679516,-0.35332309680903495,0.5253771477344065
0.358,0.2051837462341922,0.1094475667192455,-0.09587300272885518,-0.1560283112242164,0.149493765072441,0.005585329378360925,-0.16052726104915413,0.46314321859023766,0.1024462953995242,0.5685567334183073,-0.36549511613571256,0.5254943731881393
0.36,0.18705655038851327,0.08520471062991128,-0.10188872538360805,-0.13506740193078343,0.14382003911285163,-0.008805636899488826,-0.17260213249187623,0.4400037929465992,0.08497411334295893,0.5573535905952549,-0.3784035503431716,0.5107386220857775
0.362,0.16167598285506685,0.05679229779786124,-0.10465593823682186,-0.10805983429122941,0.13238888375381086,-0.02408251300154626,-0.18201538927665678,0.4123019527970295,0.06364979244330214,0.5429781765710124,-0.3894145404945279,0.4902839291714872
0.364,0.1386429907381531,0.035153721546934524,-0.10319269932713451,-0.08538459391230503,0.11976637221457889,-0.03427962283312571,-0.1880372333405701,0.3857946813068587,0.04281012532564058,0.5283818184020252,-0.39745858567071574,0.47828742825882953
0.366,0.12429751769499031,0.02108456452995384,-0.10300688844694915,-0.07097315580254632,0.11253940012426139,-0.041643644792638976,-0.1953600551408124,0.36757491520846525,0.028150007167898866,0.5162032253283831,-0.4019148973377311,0.4800372711125284
0.368,0.12176325733189719,0.015009247970869211,-0.10666147375906873,-0.06680852238646472,0.1137894906885127,-0.047044326238412704,-0.20788646658266163,0.35815387286519784,0.021389262464287077,0.5071158419473385,-0.4034907668530999,0.4897060977893335
0.37,0.13235194055776298,0.021747113994823354,-0.11060353622697702,-0.07592276746696383,0.12187765303281846,-0.04582077370664947,-0.22304841390201016,0.3520615659224858,0.020932667472947697,0.5007863168745599,-0.40451008396436977,0.49881914128152305
0.372,0.15260409549347517,0.04071537021191547,-0.1119283577757117,-0.09591912347369769,0.1329259469851648,-0.03665400534888473,-0.2336494643868687,0.3479764911794428,0.025782777666760175,0.4982899408114349,-0.40416343735132426,0.5058660227108234
0.374,0.1748895977745918,0.0629838891688213,-0.11190789126506707,-0.11808979012450714,0.14366152942489757,-0.0252597292922051,-0.23517811971858563,0.3513719268756882,0.036042049407445494,0.5022176409791671,-0.39721928793035743,0.5160068843089244
0.376,0.19283302424298226,0.08280309669622112,-0.10989125106528652,-0.13656983879285473,0.1511237027571893,-0.014641736156929456,-0.2304476989119164,0.36440217582317636,0.04975771274051231,0.5121021692872901,-0.3823173075067818,0.5303779482854553
0.378,0.2033276066821279,0.10372076713542645,-0.09926308975807492,-0.1522054551170165,0.15096628833338438,0.0007719683591258884,-0.22654227771568836,0.38073790595664114,0.06133850872526547,0.5228092343808175,-0.36607135474850444,0.5424923780079005
0.38,0.20618243748002096,0.13014042941787385,-0.07561537956211514,-0.16724961516789985,0.14082860343142764,0.026019382571302582,-0.22666441788578293,0.3941568708420094,0.06577365570454952,0.5308978672848389,-0.35362807288403564,0.5492437188403252
0.382,0.20626683254820552,0.1580687743209951,-0.04797131761770567,-0.1815099432250575,0.12721247491596754,0.05427011395169832,-0.2259674496773077,0.40430859369019667,0.06439545048586595,0.5384865337019741,-0.34210683391275665,0.5558428612347259
0.384,0.2119142133520745,0.1780107408020293,-0.03406592007650199,-0.19379079902912782,0.12276767819722309,0.07108843382670271,-0.21794315597061675,0.4111905736984139,0.06296823079973639,0.5478604952096643,-0.3283013342492998,0.5648912400544076
0.386,0.22620115280606545,0.18536870119585608,-0.041304542499368366,-0.20385563940309773,0.13268160965872514,0.0705026084481513,-0.20346454175855577,0.41342163126594894,0.06449401091421393,0.5570183797241711,-0.31572826954472505,0.5718754194989303
0.388,0.24229106255306931,0.183042378744493,-0.059730994779628094,-0.2109602652978732,0.1491152973596271,0.0598322331410661,-0.19056485206906407,0.41405547207456356,0.06736981617854179,0.5623792977518198,-0.310483531173332,0.5743820348716349
0.39,0.25005624405196075,0.17455512325910255,-0.0757314089817999,-0.21183903480052285,0.16103960931036693,0.048155524577453264,-0.187397292455324,0.4187961561346322,0.06847898407925818,0.5614807207732362,-0.31501224506749925,0.5737662709061874
0.392,0.24495677845860533,0.1610613898548383,-0.08394602010056547,-0.2033143139047963,0.16339134462859606,0.038243104119165,-0.19638511005485546,0.42712013662207116,0.06530993904672226,0.553348921634582,-0.32681166461994976,0.568667843941048
0.394,0.22905392838009217,0.14431500611731365,-0.08491963526280111,-0.1862795652286881,0.15630942546060367,0.029858333191177016,-0.21124542592932843,0.4328639075420067,0.05850035678305441,0.5408981291479803,-0.34037385491244965,0.5577365896910298
0.396,0.20776590046652274,0.12728913289210472,-0.08086559262585612,-0.16583169851233123,0.14324148156390068,0.023222920494234304,-0.21797180796986187,0.434485071458933,0.054125325448142775,0.5318698011994307,-0.35003187644042977,0.5456789661463445
0.398,0.18867718799157934,0.11309140895239417,-0.07588006403142883,-0.1490013439916153,0.13110648837881117,0.018468762147606142,-0.2031883214189143,0.43831892003392864,0.05888238989825963,0.5319201992651006,-0.35233342406850715,0.537656078239332
0.4,0.17808941991387475,0.10451779765763256,-0.07346195830238088,-0.14058600993339085,0.12539248012157192,0.01567347272065318,-0.16672506536235437,0.4497632165293687,0.0708296254473621,0.5367357863405753,-0.347529449272791,0.5292732441401842
0.402,0.17448860013561993,0.10096916391255942,-0.07303610275769094,-0.13797454041874518,0.1239661332882734,0.014489459637803303,-0.12460940779256795,0.4662731311528208,0.08040047803239662,0.537678244210139,-0.3386111630934217,0.5111965865008141
0.404,0.16928445733179762,0.09644606246695109,-0.07230012565701192,-0.1324837511726193,0.1202244014940327,0.012569667582111286,-0.09620383566495629,0.4817567034864042,0.08316415477583633,0.5360067501936995,-0.3278008067404584,0.4861735022107695
0.406,0.15667903472267083,0.0858403352438029,-0.07046698368561934,-0.11914240156739395,0.11143585738964151,0.007804231201915918,-0.08920381957829521,0.4933952964195283,0.08444394148781502,0.5418867978189243,-0.3157133843647255,0.4714830367023434
0.408,0.13992411047890993,0.07166995573077949,-0.06788981926718685,-0.10254647563727658,0.10099238900824424,0.0017065031410319165,-0.09694824656413896,0.5011649859377771,0.08817923780691206,0.5578038639396915,-0.3042271785662416,0.4781084213847747
0.41,0.1263920447809697,0.05936814917918208,-0.06643263958418272,-0.09013029094763486,0.09417971408267475,-0.003812854082662132,-0.10756643204755179,0.5046143490408856,0.08932572450848042,0.5739757315022859,-0.29628567666671557,0.4955780220883964
0.412,0.12010668295705526,0.05039124767121329,-0.06906934656839982,-0.0841094800867587,0.09363252363075406,-0.009890444605251632,-0.11518271173425461,0.5035176776990299,0.08250548510912907,0.5822090044442728,-0.29168983870255377,0.5043384129656047
0.414,0.12099568253278017,0.04575681360552796,-0.07494091311134392,-0.08363233005454584,0.09765896493330088,-0.015752243424268696,-0.12246666850568834,0.5007190831904225,0.07249050540536467,0.5859733785611083,-0.2864577909219142,0.4978938839380547
0.416,0.12656925368892247,0.04926818519294562,-0.0774226170210833,-0.08855582122012527,0.10146660959551174,-0.015581859375306711,-0.13251966338142335,0.5018235790765158,0.06985500689721029,0.5950730856806221,-0.27715904418451737,0.4879606269422759
0.418,0.1324738673660731,0.06114592521650715,-0.07154987303039118,-0.09701708219775307,0.10104538492309248,-0.006352901795086477,-0.14102056092929577,0.5099637522793735,0.07843743377024129,0.61485829430779,-0.26276738208298206,0.491122220932408
0.42,0.1364962234760032,0.07486110667262265,-0.061685465851674746,-0.10518276021085626,0.0979135140431018,0.005750107736074106,-0.13897324216680002,0.522350854606314,0.09195682169854796,0.6421189414536537,-0.24287872588120624,0.5116137696328371
0.422,0.14099327995613964,0.08362471618564131,-0.05725291285223318,-0.11115429099293764,0.09787869443834052,0.011750246648715523,-0.12251314908376154,0.5342433972041931,0.10220357575512745,0.6694222721176972,-0.21942521496515974,0.5339522833234541
0.424,0.14657953550792335,0.0852217291799473,-0.061132059069554906,-0.11432548239256585,0.1025695944090645,0.009575926721607134,-0.09783423449859674,0.5438876945569712,0.10679868737662242,0.6932140269354627,-0.19874686693725646,0.5345526413022349
0.426,0.14800663214604512,0.08096261936848267,-0.06660126162459519,-0.11280751781444733,0.1061271987647641,0.004474466289514162,-0.07561624510616681,0.5521744934077211,0.10951432803837545,0.7185555511339672,-0.18418496514902521,0.5050250819661901
0.428,0.1407001886827005,0.07479243350182342,-0.065204772935024,-0.1062079425398719,0.1021911352482876,0.002949209744767577,-0.06283617035551223,0.5597419490129392,0.1167181212455439,0.7513309418905809,-0.1697102012760376,0.4615719855440534
0.43,0.12668449395688525,0.07221903353768086,-0.05382301686793426,-0.0982168123459904,0.09006927009548528,0.008334594059953026,-0.06132224985227963,0.5649628427050271,0.1316355071634019,0.7842786170710576,-0.15083718823135528,0.42859796299656755
0.432,0.11242365294161318,0.07605213686856024,-0.036253891881792524,-0.09335320907288738,0.07456177898834923,0.019168926291407967,-0.0695412946715685,0.5649791335803651,0.1472124594048628,0.800264135189179,-0.13607615598306083,0.4158146379378007
0.434,0.10546067122896098,0.08426014336284096,-0.021682803001293067,-0.09410750525200332,0.06384815490555529,0.03003793412980762,-0.08176540420368432,0.5600474280777886,0.14925026885339004,0.7929239822905481,-0.1348489904285564,0.41266064373554445
0.436,0.11261802940479874,0.09503785606835348,-0.018214262639945692,-0.10281086334792061,0.06530688815427974,0.03697458696156788,-0.08869519319626312,0.5564195272481992,0.13456571827902655,0.7764021183826008,-0.13957931919604497,0.4036459002479404
0.438,0.13459371241160836,0.11153805193057828,-0.023338533026500487,-0.12154392949285989,0.07797433395580504,0.04324499410071477,-0.08286954312753411,0.5626436638987615,0.12101749091932953,0.7723256199974294,-0.1327816978058123,0.38861265309146115
0.44,0.16170427261353412,0.13666854428457995,-0.02491105151110529,-0.14738480746283428,0.09120037862844808,0.05559654392662282,-0.06399298094089244,0.5807727112343505,0.1296391236567056,0.7907976441602933,-0.10871913260064378,0.3842749587696681
0.442,0.18202268348600834,0.1648038894603199,-0.01703245933498752,-0.17197831589371046,0.09665728556843536,0.07323674662282649,-0.04016967178608391,0.6020327170804687,0.15933781875516217,0.8254180848240527,-0.07776239856892915,0.40104012919309384
0.444,0.19159476366993744,0.18317324961600853,-0.008513262292377819,-0.18664877780177297,0.09716589948234221,0.08573867324820898,-0.024845684873628173,0.6135851006660403,0.18715643669179863,0.8645376919868317,-0.05120421314211374,0.424313642838664
0.446,0.1898120954631294,0.18186995700843311,-0.008360925598553708,-0.18515296592752262,0.09686090841490119,0.08479009247579199,-0.02824432705807158,0.6094165071431464,0.19248848885909736,0.9018489743971345,-0.029735830624674588,0.42949621514813885
0.448,0.17317706824929505,0.1633901549110362,-0.010296595810336347,-0.16668884237548437,0.09037362539338382,0.0749994660403303,-0.04768188738586589,0.5945135600227657,0.17596831038794417,0.9344781846347665,-0.007642149010793519,0.41124662922446076
0.45,0.14313228606827896,0.14245400010606032,-0.0010468065072616758,-0.14043063056979893,0.07105110852554794,0.06950405616590127,-0.0698027232520856,0.579391801705182,0.1549989222542584,0.9581116545139623,0.01694126430524427,0.38575340826072146
0.452,0.11286866107751523,0.13213001427706714,0.01902569504328017,-0.12064670600254068,0.045404131887164405,0.07404088905250929,-0.08452285539017666,0.5704261706478407,0.1456687503511448,0.9696886488122901,0.040586863271890504,0.366755598207258
0.454,0.09710416725054556,0.13095086027901187,0.03371227989631981,-0.11355994370610908,0.02968268463626454,0.080216738884435,-0.09102591897123491,0.5658008207858509,0.152011555037174,0.9726621445086671,0.06159775463356621,0.3514788947071508
0.456,0.09709583240263822,0.12984467046123738,0.032865151965760106,-0.11380721001013347,0.03046794558702492,0.07941218421524188,-0.09081685523444863,0.5608054313145889,0.16739509763772287,0.9777670604618275,0.08266050088457379,0.3316097816419064
0.458,0.10269315704558772,0.12847228071877828,0.02616626269669385,-0.11547113972341143,0.037401644638520734,0.07650400967820895,-0.08423657337211225,0.5549266053899047,0.17974286025301095,0.9986350404907435,0.10658567833650283,0.30826623281425114
0.46,0.10778430907902933,0.13446755755835635,0.027031246647756964,-0.12007222199604767,0.03947966970218082,0.08095889608416122,-0.07280703378894836,0.5518314230031153,0.18136448220906246,1.0425239241781579,0.1334701816663739,0.2893699722568079
0.462,0.11555942796276211,0.148867936368956,0.03333161088771284,-0.13066653445971252,0.039169748673016196,0.09127114664884531,-0.05803508523065055,0.5534287304621033,0.1784841566966631,1.1010056666292392,0.1618165245440997,0.276782703735278
0.464,0.12891451005099808,0.1637089323534747,0.03450371970957729,-0.14461964931056856,0.04438907234626355,0.09856438399299176,-0.040865808924820946,0.5574554042933557,0.18171843332885093,1.151828343133378,0.18985761477482468,0.2647424166438775
0.466,0.14361312689428407,0.17222772160122599,0.028178989179181026,-0.15589900790451053,0.05524975394223245,0.09916948816687618,-0.025410816595724372,0.5614628161378024,0.18810276639858273,1.1760581320286594,0.21561786448242606,0.25121214477922466
0.468,0.15307617415416624,0.17346372878027136,0.01997470773107051,-0.16097419458089562,0.06542229585060776,0.09557093484780436,-0.018684310163067683,0.5650177873801794,0.18745693908897668,1.1773191452748555,0.23800672604551237,0.24306998943997288
0.47,0.15529112169191844,0.17091531753954922,0.015289322374326035,-0.16109843373671173,0.07003675494803879,0.09192890875608821,-0.02396182068308533,0.5668388661377828,0.18216930822024105,1.1814730093602956,0.25871866683077116,0.24565785590456485
0.472,0.15264956120950646,0.17073755572501087,0.01769526837199278,-0.16019176699554913,0.06752149279959317,0.0930075030576218,-0.03655162219039872,0.564008154693607,0.18396302797803693,1.2136755717007104,0.28082306990905587,0.2507020012845458
0.474,0.14808775476107386,0.1768007208273973,0.028230607849138348,-0.16102883400512216,0.058921190978252436,0.10119996528669432,-0.04767940600311654,0.5555921720345158,0.19500309658920284,1.2775723432657269,0.30472654291753704,0.24141403116210125
0.476,0.14361168614755493,0.1865293007884029,0.042758337263629966,-0.16344442365724196,0.04840541105806421,0.11303554017398362,-0.05116801250619281,0.5442668235615359,0.2049556468061927,1.3534495317802033,0.3271462409892734,0.21133158346705716
0.478,0.14070648651418446,0.19416877591981693,0.05407278980036291,-0.16568972777690447,0.04120974178308855,0.12221727665217395,-0.046983076739108925,0.5336850203792092,0.20431897344326294,1.4108690189448896,0.344273949131458,0.17269110330334514
0.48,0.1410881409860279,0.19815367050754085,0.05822419648766574,-0.16792788272395842,0.039855416857438236,0.12634059326400948,-0.04099530632330187,0.5261057911057389,0.1941444343320336,1.4318856259015682,0.3549724572535367,0.14333867273160428
0.482,0.14615684383898211,0.20329574735626743,0.05815636303342151,-0.17329618229718952,0.042854067428605334,0.1291728586417342,-0.03942354610951528,0.521675359327435,0.1839987067001515,1.4275224798385102,0.3614284793272265,0.12916173165388267
0.484,0.1521875067848903,0.21335298620896262,0.06174851661765726,-0.18173148617148058,0.04443234987076678,0.13619578170981494,-0.0421557852830337,0.5175982691531765,0.18158535558956893,1.424860639112473,0.3682156540169234,0.12124996838623492
0.486,0.14977407629061154,0.2230040958539754,0.07367431920121492,-0.18556712436875547,0.03771859404424247,0.14722818220153455,-0.04467937836131279,0.5098729542750275,0.1844621208895492,1.4407064829842544,0.379325375029299,0.10717355865761387
0.488,0.13592487223813648,0.22151887762083888,0.08615202410746228,-0.1778265154497706,0.024673249269059477,0.1532054142535564,-0.044845469944350264,0.4983321191568951,0.18456919141455677,1.4703459969319153,0.3936070893462337,0.08269404028991557
0.49,0.1201472561955428,0.20488879681561792,0.08522523167172509,-0.16158247894561642,0.01675384447744365,0.144652892134587,-0.04305623421903735,0.4878309551323748,0.17938704209054993,1.4956598140744044,0.40546701077161657,0.053818473224704066
0.492,0.11099174201502608,0.18131891865613814,0.07040058869412895,-0.14551427758469931,0.018941218773307584,0.12479171702841711,-0.03893293322970067,0.48245566817800795,0.17458648179169736,1.5061804183621221,0.4118793685382926,0.02991940928305732
0.494,0.10584889738453501,0.16290582782601876,0.056743235686711135,-0.13406144952853993,0.02299697686404713,0.10747283461631098,-0.0324998074918912,0.47957126188687793,0.1764622612918281,1.512173521872709,0.4151756600304131,0.0157589469906748
0.496,0.09960733091203201,0.15476383954826842,0.05490577507826115,-0.12668989467533226,0.021071677265330033,0.10164909684841184,-0.02618235571081153,0.47219163844050205,0.18365857345120606,1.5291745977417386,0.4184798366021231,0.009268661079322183
0.498,0.09380581753647528,0.15489735030766888,0.061218608102345605,-0.12323820194420908,0.015179923193616414,0.10524377884472308,-0.024698573209269374,0.4584844502182476,0.1868991533901402,1.5554963364435173,0.4218199241001477,0.0039360999153116374
0.5,0.0900809551389756,0.15959313556270108,0.06975765693120983,-0.12311926716504244,0.008666698427753439,0.11316834523560224,-0.034362218250665474,0.4443775849832045,0.177789926310729,1.5759598432203112,0.4234431775669724,-0.009194731473878488
0.502,0.08232909375561295,0.1652267883931666,0.08284494434293688,-0.12164576499331811,-0.0021785782948576587,0.12370677225110906,-0.054987473772113715,0.4351142476902065,0.15839121990052957,1.5830703515902937,0.42375953866939964,-0.03709821276362595
0.504,0.06760795851748569,0.1701353077496406,0.10224393262875041,-0.11670472902760066,-0.01887197698265936,0.1360248682265782,-0.07016807501918623,0.43041202867597766,0.14105220791386613,1.584419015026554,0.4250084535871025,-0.07633964890540648
0.506,0.05908542111210899,0.1764586741556726,0.1173110159691725,-0.11635610434519064,-0.029713448177487313,0.1460904760592694,-0.060618114794791574,0.42760900673435087,0.13644965500697134,1.588580380369554,0.4251270461976689,-0.113205638049699
0.508,0.07282111917149137,0.1858179812701685,0.11340664201682649,-0.12922471053717083,-0.020453303569957636,0.14834053891051205,-0.03033610598839372,0.42454068946344004,0.14259586405666486,1.59246524276673,0.41722770295355044,-0.13666850784608417
0.51,0.10591270221131181,0.19525112059834088,0.09003101771605551,-0.15133561243187205,0.007294715485562812,0.141470291974208,-0.0032779660044913762,0.42097564240771046,0.14892765625870577,1.5886913380774534,0.39913177578237286,-0.14750097686611982
0.512,0.13983135622696655,0.20077085640946418,0.06155883201556782,-0.17077300370903595,0.03777421364019234,0.13029927234102223,0.005817241881502141,0.4179434752494807,0.14911179643974865,1.5781421006483942,0.37793490999976465,-0.15394547542017742
0.514,0.15964203282351633,0.2010885031828038,0.04180754910511142,-0.17981962842821006,0.05731406716465213,0.12073803883830536,0.0016379363742954232,0.4131348052751336,0.14494040543214293,1.5671012176462191,0.3616820824505875,-0.16270230439486189
0.516,0.16187795814319852,0.19641973902293897,0.03473515777216091,-0.1775488961253559,0.06226786145082707,0.1147975673183162,-0.007432952506365633,0.4004088807808159,0.1385446621276784,1.5576319886993872,0.3509836511020021,-0.17459410116825144
0.518,0.15096863560447243,0.18776311391557346,0.03704162345161065,-0.16700313454605453,0.05623563785470497,0.11110850418505318,-0.01946148769582441,0.37857910043612114,0.12663664391563803,1.5483110100981483,0.3406129545623499,-0.1865736012012053
0.52,0.13558461089883692,0.17780097245713566,0.042569415090067377,-0.1540006455370382,0.04629938205524962,0.1078769357627013,-0.033576666845355166,0.35649324841406554,0.10673638947855345,1.5402764710196921,0.32637459879717395,-0.19627694565270284
0.522,0.12504794348045697,0.17055755529342892,0.045789989345176266,-0.14542892672628815,0.03941892003266474,0.10495271402399552,-0.04485138772724082,0.34415847917249165,0.08621044832020715,1.5366053718927508,0.31042327332506847,-0.2035695877494934
0.524,0.1240031810353056,0.1703000900335251,0.046439045478227386,-0.14570596080663123,0.03778979089233918,0.10500403272869169,-0.04708535878722935,0.34216120723607263,0.07780878244804298,1.538468725608786,0.30076669422051266,-0.20894501660928247
0.526,0.1294066493025317,0.17868074016107788,0.049471601301795724,-0.15341147493763013,0.038017357189970055,0.11127521796067694,-0.03901485209145733,0.34299393260971406,0.08475010295011608,1.5442281909983384,0.30201011847479364,-0.21353026826285734
0.528,0.1339228122118012,0.19088542796872016,0.05731006710678566,-0.16162309786566081,0.0362318411705185,0.12196749493301628,-0.026785502179444965,0.3399121859097425,0.09598157288666255,1.5497619820498856,0.30697708619961284,-0.2205012044407053
0.53,0.13293701826557155,0.19766864814364546,0.06501905929360763,-0.1636502037210355,0.03251925894360703,0.1295563226668719,-0.017646808748759322,0.33279543358301095,0.09988980667474621,1.5511917203141052,0.30511963018806054,-0.23305579564757695
0.532,0.12842413494507976,0.19332615297603442,0.06493247089833994,-0.15874524121452027,0.030550169541440665,0.12749155730934136,-0.011300874592241932,0.32690737480863,0.09728450156166452,1.549517213305044,0.2982688402128574,-0.24965677039753426
0.534,0.1271668840978425,0.18051808303474098,0.05321517701589322,-0.15206336031524198,0.03533141271195366,0.11557749981410517,-0.0011499528441492955,0.3266209499850225,0.09524013898072979,1.5490906707491436,0.29785164666902825,-0.2635572383914755
0.536,0.13380107722907458,0.16745192597397304,0.03356181728319351,-0.14935772492676572,0.048427563064344634,0.09965512144200003,0.015904068055348247,0.3303333533748344,0.09568572085523248,1.5509613968552147,0.3070468979358244,-0.2694923768649501
0.538,0.14327010159331238,0.1602586871130347,0.01701705286022598,-0.15051283712941335,0.06234053887811338,0.08768550081468907,0.03350094596019241,0.33220324634263343,0.0963404078274179,1.5512698175110182,0.3158842442074414,-0.2700814982588206
0.54,0.14395032250267148,0.1576886311347119,0.013800360696434377,-0.1493105290518262,0.06510061110535581,0.08403791199789193,0.040622464498729895,0.3287001329383016,0.09469120536091899,1.545862165686751,0.3154267420739219,-0.2730461837032222
0.542,0.13133772829486529,0.1544512177845984,0.023106034269949872,-0.14148734490816686,0.053818786822508645,0.08639425308195742,0.03338006945073697,0.3219751134362398,0.08830108362350186,1.5348417433953614,0.30923337980598353,-0.2823618788652091
0.544,0.11349763680971212,0.14845379171084155,0.034798045158345864,-0.1300270203100652,0.0380643332093119,0.08916977641513213,0.020596146992998124,0.31590751549915513,0.07775779773400136,1.522683492054091,0.3076094015285697,-0.2949161246774601
0.546,0.10059798895593762,0.14195598730268028,0.041009879756698876,-0.12048650526188052,0.02795156096301637,0.08924212754322157,0.014175356399911573,0.3102415947892002,0.06742434338436962,1.5137387917245,0.3146051123890743,-0.3063815222227913
0.548,0.0949343763598012,0.1372764593743686,0.04192419416540811,-0.11487312750126825,0.024761907469092924,0.08735273082147077,0.016160857087599963,0.30135929339758416,0.060076131372923135,1.5082857379393424,0.3242378653554625,-0.3171537879312266
0.55,0.09259384548247919,0.1347036152531033,0.04184583161147046,-0.11179248684883579,0.023835549345777887,0.08586082419320594,0.019658068510561157,0.2887003907828771,0.05543651778882575,1.5035048592948692,0.32883724958451643,-0.32988467990326337
0.552,0.08860158427213351,0.13333161124292264,0.04462827930720011,-0.10876160585221831,0.020455200844882122,0.08674464157356121,0.019261314504409734,0.2765076195394573,0.0536148660284792,1.497071400367485,0.3281182735744326,-0.3441822087126283
0.554,0.07967348064523327,0.1306993516126652,0.050860659070931694,-0.10293067327642312,0.012914255407439961,0.08923920474300684,0.015156033294105802,0.26793994972407953,0.053783206192313374,1.4888732569502174,0.3275019281585889,-0.35829091450897643
0.556,0.06741134970568179,0.12310275608455605,0.05543662694996025,-0.0931007588742278,0.004709554204681842,0.08840857109787491,0.00970335807104902,0.2611518611624955,0.05112067038300148,1.4795758550486764,0.32947676752966715,-0.3735278601348006
0.558,0.058311759766051394,0.10965692186688,0.05124033560012265,-0.08205868085845366,0.002291238301799983,0.07972313400967648,0.005285880282852585,0.25271183057322133,0.041283109382894985,1.4691430031982131,0.33156168270462155,-0.39193201321276844
0.56,0.05671939980312314,0.09532177997115039,0.038691715838281446,-0.07443492024486878,0.0073469036204424016,0.0661092799203619,0.004828463792455036,0.24254637706973234,0.026806994984081765,1.4583907530000193,0.33266144792230257,-0.4111897110718621
0.562,0.05967350709999145,0.08845213852163837,0.028887525179465887,-0.07273738572993255,0.013301002254956104,0.0579324874136933,0.011961345374640216,0.23512438242852857,0.015680489529427317,1.4507273942440295,0.3370137729905419,-0.4256289769925941
0.564,0.0612455907734229,0.09510294140264977,0.03399524562604672,-0.07689550285237746,0.011614009598642071,0.06437397109525751,0.028906963700136592,0.23629289016776547,0.014873092395363127,1.4501191669760256,0.35057340202256254,-0.43126331610912844
0.566,0.05916673851160421,0.11387022431375796,0.05497406632305921,-0.0852049381140937,0.00027162709383194306,0.08449440547720438,0.05262274175905914,0.24742043320232798,0.02521044989091801,1.4576133897122776,0.37417166928548873,-0.428758178652408
0.568,0.055596599369997224,0.13608179573250004,0.08075817553866062,-0.09454418639412945,-0.014702589181502012,0.10793092404770449,0.07549647570070966,0.2627639348100914,0.04073178185402458,1.4703765648843934,0.4010274773861097,-0.4229780923616076
0.57,0.05524198423882743,0.15367891772245007,0.09850651953841193,-0.103067896797224,-0.02405593152922173,0.12472192532358292,0.09240368605395047,0.2744605350959516,0.05428935243754319,1.4833900622305394,0.4236020160905114,-0.4199626123114076
0.572,0.06398463376299689,0.16764669548121533,0.1035552241736465,-0.11407386029588022,-0.02161031338826261,0.13374544290163265,0.10489697844549198,0.27951686161621975,0.06436718968347381,1.4926933143412096,0.44202840166427537,-0.422439301050427
0.574,0.08495561521108241,0.18674903340154037,0.10167538421484629,-0.13391681846312187,-0.00893106186441923,0.14245583832948402,0.11731379059518965,0.2802039235969189,0.07446715238755273,1.4982144714927363,0.46168268832184733,-0.4275485690395067
0.576,0.1137082334786469,0.2164307390659967,0.10262207622283617,-0.16352831528510037,0.005597699971338861,0.15831660431808064,0.13052395338524614,0.279005251894855,0.08626358705661992,1.5031148154354128,0.48358640509467005,-0.4311559809670615
0.578,0.13846425284141967,0.25040059349265925,0.11179669613365531,-0.19355297966668908,0.012650550356265493,0.1803997994313697,0.1404452494489377,0.2763357316365066,0.0961850852113768,1.50944335383209,0.5010108352577723,-0.43497674156408883
0.58,0.14680939752056058,0.27545045636224397,0.12856832369805554,-0.21060203287177945,0.0070326638627803756,0.2010897433155881,0.14292975954451415,0.27253580416742657,0.09960160140803319,1.5152239003959154,0.5071018724985895,-0.445998016372206
0.582,0.13508244858430216,0.2839902885123848,0.1490549791792428,-0.2089242740552248,-0.009696292814431056,0.21475342425568467,0.13936081716239176,0.2687148490502793,0.0972711805957896,1.5177863617691298,0.5047043639875012,-0.4678123501090957
0.584,0.11329525271878188,0.2805731679087649,0.1675373688230802,-0.19599674195464037,-0.029021800721101065,0.2218456396904295,0.13516134522754958,0.2654564632106183,0.09549012523037861,1.517851036249612,0.5038906524833309,-0.4955904984435984
0.586,0.09923936585852422,0.2766397963188854,0.17752101536644105,-0.18683021702830394,-0.03980668182394576,0.2253914909888506,0.13253035606037533,0.26192990327250665,0.09758325482571262,1.516894654777088,0.5093776955625038,-0.519851931725463
0.588,0.10384092795191709,0.28036800929547995,0.17647852841332134,-0.19136365398633992,-0.03671437221910621,0.2275100321440414,0.12746013249069063,0.2557395899865887,0.09716212503796512,1.514114080277591,0.5165828723335217,-0.5332539811164961
0.59,0.12138381193471273,0.29202771867202826,0.17067139867829162,-0.20670122612496405,-0.02565350605236646,0.23056046622937418,0.11452632923682858,0.24388239264076983,0.0851035597607157,1.509587868742724,0.5206412221259258,-0.5356517451306778
0.592,0.13668579029592967,0.3059942880761062,0.16962166994087516,-0.22176959586856126,-0.01786713418661517,0.23660444659263657,0.09230812993402382,0.22470065286134355,0.06296256399849808,1.5063911264606167,0.5237557977560792,-0.5344120594759701
0.594,0.13941951120154725,0.31366286150514106,0.17471530887121628,-0.2266308561041767,-0.018812632409842378,0.242879626700405,0.06484309345609988,0.19909780148644945,0.04264531020145967,1.5070109883005633,0.5312679400458856,-0.5375984918522198
0.596,0.1281634454550188,0.3063981163432839,0.17852179641232843,-0.2164704234853381,-0.026019915936984314,0.24172448469142277,0.040365362234441454,0.17073731102152176,0.03148202613000275,1.5103814757996599,0.5429377224675506,-0.5463722871173664
0.598,0.10692768135562228,0.2819602761005668,0.1750171626082821,-0.19286066554086367,-0.03499440409160896,0.22848714830864925,0.02692655222085927,0.14469213131779937,0.025283292992173113,1.5134325808719278,0.5520346788940727,-0.555707596943807
0.6,0.08342006437904574,0.25059115296557244,0.1671338045401426,-0.16512455741749107,-0.04343150856216526,0.20914130377843643,0.025549602782437546,0.12374823515714062,0.018160143579088097,1.51413922591887,0.5533104197892516,-0.5609387181860646
0.602,0.0679010069506497,0.2303477077304088,0.16268444455094766,-0.1471891945027709,-0.049765303331785034,0.19662922374974454,0.02799321339092081,0.10634854112622849,0.010047590815718061,1.5125129911474773,0.5493073759010049,-0.5615373566357533
0.604,0.06884332257054883,0.23121762248675762,0.16274393725024142,-0.14817340906499812,-0.049566970852243875,0.1968213164080193,0.0244637970894516,0.08950144276480508,0.001070143840841065,1.5089712507730355,0.5484850447049985,-0.5604680928281022
0.606,0.08417967169541302,0.24353256699404202,0.15947612628215402,-0.16235273535271932,-0.039403564662722386,0.20100755675825774,0.013368979040391752,0.07171500187244599,-0.012594913391012584,1.5026490760175732,0.5573073777982047,-0.5618882552786919
0.608,0.0983933852350066,0.24637086156171537,0.1478566921579574,-0.1712972643726984,-0.024961884177487917,0.196079235329349,0.0011155968886393097,0.05285439173782777,-0.031269319751452064,1.4930312720604275,0.5740129050098771,-0.5675941430819195
0.61,0.09847590612523709,0.22953488492719445,0.13104562015278126,-0.16294453640396217,-0.01555614951195004,0.17876217995509777,-0.004985297231458092,0.03572362932771288,-0.04482288097337702,1.4838147974738176,0.5915451048028643,-0.5737161910306946
0.612,0.09121659436465654,0.2032284820326074,0.11219136812082499,-0.1456857053918997,-0.010200541421792149,0.156216091375635,-0.0006267426073136598,0.02718983117532359,-0.0416220290254579,1.4820326470689138,0.6054402855543698,-0.573001151927689
0.614,0.093397319012918,0.18422659870246724,0.09087517596807536,-0.1366208129781386,4.4147333617847455e-05,0.13665038466103532,0.014186276988248524,0.031522290216627884,-0.025120421785859073,1.4907186719258156,0.6156397996906158,-0.5634328316903537
0.616,0.10762452023737817,0.1768055521578028,0.06884172520012513,-0.13968876922439635,0.016741365358326883,0.12241650529768727,0.03372901122261955,0.04288984204492663,-0.012089439676220608,1.504812364154572,0.6228561879376632,-0.5530476244016945
0.618,0.11774306856449963,0.16955826477675548,0.051264304844013314,-0.14133730784218126,0.03019509303658417,0.10974413385682254,0.048791411688054294,0.048617245096591474,-0.013357196779789424,1.515821285726505,0.627042239062003,-0.5539608907093512
0.62,0.1073907592757985,0.1489118759106793,0.041086977008081615,-0.12622933227720556,0.030878906407948426,0.09351929370826947,0.05369816456343302,0.04013498314142404,-0.025927160829042326,1.51784173969316,0.6271714601032935,-0.5731417986563968
0.622,0.0777217112059617,0.11388602135334366,0.03589751697597619,-0.09407485796741157,0.01974257552935555,0.0728023612491194,0.05187961176091346,0.020470028592982317,-0.041630348396759595,1.5097096850954825,0.621193558452832,-0.6081381672159508
0.624,0.04490609549918564,0.07655858035549928,0.031418392287701886,-0.05908902499163445,0.005856635291482944,0.0519308748504428,0.05230441122293017,0.0009180185087943565,-0.05374473530839661,1.4959538973679682,0.6098547365863755,-0.6487068871467431
0.626,0.023139743714826157,0.049652730765459084,0.02634407232599186,-0.03471834993962693,-0.0031575978865667252,0.03645037005427039,0.05987186964252262,-0.01052941627172722,-0.05864344872049744,1.4845500294150533,0.5998915284673929,-0.6823047995093661
0.628,0.015202917529533674,0.03733588227320817,0.022221236541382704,-0.02430998407708718,-0.005486261878659887,0.028707290341947658,0.07283491798628407,-0.01580865188580439,-0.05866033068497075,1.4792985723256722,0.598620619357286,-0.7000040298430176
0.63,0.017130076880560775,0.036363154203801054,0.019638272069317637,-0.024625356788300325,-0.0026827205456968696,0.02705060177392616,0.08875194653267626,-0.021030196168776463,-0.06093191599595799,1.4765856509066433,0.605769536173042,-0.7016384034167947
0.632,0.02398798771033208,0.04056169487042859,0.017064144834947257,-0.030499875954957196,0.0026962777733233116,0.027638556974333393,0.10693162005136778,-0.02855085965745616,-0.06958086855435944,1.4719774910080443,0.6142471530369737,-0.6963914242590473
0.634,0.030265423080927514,0.04389653023255799,0.013879692134612499,-0.035810569957528966,0.0074060335069247585,0.027118766479225734,0.12503394019828618,-0.03723871966483387,-0.08108373445052261,1.466113148572603,0.6185405627608115,-0.6940676815107699
0.636,0.031153859871283263,0.043125806980977746,0.011906045828783754,-0.035888022654068624,0.008707027290329903,0.024895597615242515,0.1385166645836423,-0.046243463044910255,-0.08907255212104954,1.4626939134958492,0.6199169503856444,-0.6957107771061015
0.638,0.026813939709821634,0.038867373516589386,0.011869910729739216,-0.031176659119043312,0.006923270541935636,0.022218983544368312,0.14448752339994061,-0.05518316458412056,-0.09199063446499627,1.4641560655704258,0.6235075043117679,-0.6954989394713432
0.64,0.022062748847086335,0.032393319521555636,0.01015030798874835,-0.025447987735270995,0.005810179319397792,0.01839028880349558,0.14425779635233496,-0.06284792636307053,-0.09388527592975421,1.4699947079635975,0.6317673869844387,-0.6906515202597788
0.642,0.019684911091407797,0.022080675495076706,0.0021299036461222896,-0.01961905036531823,0.008574476087214808,0.010067376543542143,0.14194740047872287,-0.06824139381597429,-0.09799683338035271,1.4764548594090519,0.641495806183499,-0.6872227259070177
0.644,0.017938499097326758,0.006938953820833092,-0.01136613166681436,-0.0118714555003882,0.01410256617129508,-0.0035127894750135143,0.14090661339231472,-0.07193309967459852,-0.10234898393204664,1.4784519983508244,0.6477208115414467,-0.694417326862266
0.646,0.015895728730941246,-0.007872459118352299,-0.024008231654437332,-0.003727735151038424,0.019075715108523877,-0.017103583680996494,0.14153043977010718,-0.07477860907912715,-0.1029991965786339,1.4744281926779095,0.6497988897995542,-0.7133263230908924
0.648,0.014705469937183097,-0.01592593986373483,-0.03052985771669093,0.0011402945058884258,0.02173857161747003,-0.024587670274553747,0.14192004262469385,-0.07685541908591409,-0.10035157599132452,1.4668934682136656,0.651297890461654,-0.7350012841255615
0.65,0.01200849793883503,-0.018492010095466263,-0.030193030564956116,0.004145757875350353,0.020677051652739455,-0.025416847492583782,0.13891579079491664,-0.07976425629057819,-0.10054932723067325,1.4570349424955604,0.6537035904708617,-0.750154839784229
0.652,0.003964655834809811,-0.021304049554395264,-0.025207380863657283,0.00976328379561187,0.014536475262298437,-0.023416747299088977,0.12932501908529162,-0.08772014337492656,-0.10851148985546893,1.4440693589385616,0.6536279673090197,-0.7564784849765352
0.654,-0.0057776208093462175,-0.025054355894247902,-0.01969529258304383,0.01659358383836804,0.0066354334949222105,-0.021843091536850538,0.11389682919496472,-0.10321475133267366,-0.12029579500733883,1.4304455056273702,0.647592031348157,-0.7564993173938812
0.656,-0.0102971179843353,-0.02682260590341002,-0.01709027733968248,0.019661766540200295,0.0025566784769536343,-0.021530769429746653,0.09957600080126329,-0.1231774777525409,-0.12725178035350831,1.4205103104694219,0.6365808490494071,-0.7531202274240933
0.658,-0.012581797143462248,-0.02808630064182156,-0.015794373964158472,0.021105586506463683,0.0006071050434340089,-0.021974904938214815,0.09427080377976245,-0.14161119459481056,-0.12751884779576086,1.4132108554489948,0.6246380007644221,-0.7494349108361443
0.66,-0.021010692593512962,-0.03283353300899588,-0.011855141253854064,0.02751228620926182,-0.005625489678064135,-0.022493940926687436,0.10014557862033102,-0.15422242209104206,-0.1268719428558207,1.403862235258236,0.6152637275024524,-0.7496671512489865
0.662,-0.03398780694323312,-0.03923309667751316,-0.005253575797246467,0.03751562956015829,-0.015680852599647004,-0.022143844853943676,0.1133177840028226,-0.15949383984453774,-0.12864831063778745,1.3925977029512016,0.6092467212695047,-0.7558902807931898
0.664,-0.04278577492832837,-0.041227632501311194,0.001505570867117833,0.043379333767752666,-0.0235278985772497,-0.01974878217260295,0.12913673094976494,-0.15822979021117678,-0.13005246805705403,1.382502559898721,0.6039867711088435,-0.7649164691907774
0.666,-0.04535877113143419,-0.03694102205817499,0.008387400326125087,0.04264215349929228,-0.027653737179771296,-0.014783964077987474,0.14828431957162264,-0.1530559135219729,-0.12678431687789649,1.3726051858991135,0.5960804098808434,-0.7715898526012591
0.668,-0.04608334645387432,-0.028236343432324024,0.017843481143684146,0.03840900989174408,-0.03178888713997018,-0.0065735107195292715,0.1756263240443218,-0.14531430041684343,-0.11431370861770111,1.362816898793106,0.5872783050899497,-0.7728310993912804
0.67,-0.04287662383682116,-0.012713503238325114,0.030059753329742967,0.02876592982789283,-0.03582608090724977,0.006842514950543541,0.2101347045970265,-0.13196360172889823,-0.0871611393965338,1.3622074719869495,0.5867667303356794,-0.7651317874316573
0.672,-0.020129987092727838,0.020526550695262463,0.04033274626952279,0.0006890283750535121,-0.030139824434596296,0.028596870942395537,0.24234094774226636,-0.10701915926828393,-0.04094190843183038,1.3837342798901513,0.6059871791184618,-0.7402544741374664
0.674,0.036474020485450766,0.08435678621861728,0.04742447493804783,-0.05944135535818161,-0.006672499610157385,0.06418640557750016,0.2675771290435795,-0.06444684075949501,0.027637581567913395,1.43409514930466,0.6527463771944946,-0.6890951183184103
0.676,0.11103097930158048,0.17206411103145328,0.06063760723928832,-0.14050775282469957,0.023039772713627952,0.11508482735714512,0.2932859979472511,0.0009171195990713239,0.12217629377605399,1.514043171932412,0.7293896059614994,-0.6130785621097813
0.678,0.15653017312399498,0.24297078660622365,0.08614221563301772,-0.1989428876943349,0.033399838945921925,0.16421822168864617,0.32713379521383035,0.09267868002751246,0.24750563247936153,1.6269504616091266,0.8348998341851499,-0.5277650981332523
0.68,0.14258055363607133,0.2581737376609274,0.11534465574312448,-0.20020664909538688,0.013145064353704189,0.18718348662624446,0.3689707932331908,0.20869297852755725,0.40985270426705567,1.7828866169478337,0.9700546753336583,-0.44864834400345016
0.682,0.09963881253622502,0.2435085645782512,0.14380995025347912,-0.17199841929538076,-0.02178872033008621,0.19382314373921206,0.41695068605871854,0.3264728897600036,0.5983826264480872,1.9842985752592506,1.1365585312018276,-0.37287912300227727
0.684,0.09387262752570405,0.28259600034338916,0.18900551276389757,-0.18843593041607412,-0.04787269408850129,0.2347720016195315,0.4588886922597526,0.3851080225379828,0.7506229163482294,2.199877032369014,1.3233153155177855,-0.28072139818182157
0.686,0.1516003675234945,0.4180924929133232,0.2668488169386692,-0.2837880099457198,-0.05916602445400365,0.34045350563655785,0.45198206670431734,0.30007003369289026,0.7622567210072538,2.365248672497011,1.497438911588758,-0.16164065843707512
0.688,0.22872646876413621,0.585916742902311,0.35704873485607086,-0.4048412222480645,-0.06644169487160934,0.4697524688081882,0.3510731724141914,0.029304182794495957,0.5717255549960654,2.4305336352420017,1.6235876910968665,-0.03472954285194533
0.69,0.2705930650284104,0.686447997939817,0.4150860487992647,-0.47575385346640636,-0.074410281976486,0.550385272614007,0.18616565524682777,-0.3631365140989367,0.24054156829591505,2.411696405105895,1.698709430706547,0.07129502934125437
0.692,0.2787012070415535,0.7037170703683794,0.4242824769145899,-0.48959443997811714,-0.07424732804413757,0.5646674543875617,0.07184937668027595,-0.7293808427656568,-0.0753055847582426,2.38004756072769,1.7557931677851741,0.15377301341465052
0.694,0.2869179317619738,0.7057164739534892,0.41882129586539846,-0.49617626051066915,-0.06670599777926241,0.5626232845895084,0.08574491697460947,-0.9536473165185042,-0.2596528785571394,2.381346472877667,1.8148612075324129,0.2258626535788697
0.696,0.29504089257174937,0.7355289933573679,0.44114487323884044,-0.5156501499784115,-0.07381018719755487,0.5873120960678218,0.1611956296212447,-1.0522407373873186,-0.34572727084595134,2.3663297762008204,1.8323709916468507,0.27138265495688585
0.698,0.2746005541500363,0.7598830408093076,0.485817689818236,-0.5169010275923307,-0.10707695417391973,0.6206354859541483,0.1570577954469781,-1.141894344206592,-0.47520945274072973,2.2262136617469683,1.7258511331707909,0.24320845033834337
0.7,0.22941715471157292,0.7327825988660607,0.5033567922866826,-0.47955892692136526,-0.13903884164252925,0.6157809590272106,0.01259286593396194,-1.3123035979423485,-0.7472507256917768,1.905092118311051,1.4581090873772407,0.11506299020600654
0.702,0.20036150025704402,0.6591227684678749,0.458474494520437,-0.42747658778292563,-0.13114121807351561,0.5572524194440596,-0.2245255118142841,-1.5518761917783344,-1.1289789596014561,1.4540649301930102,1.074473697806291,-0.09180212458188759
0.704,0.20621459881754445,0.5760078820592871,0.3696312300703075,-0.3890429493140494,-0.08343476945215433,0.4717449703434999,-0.4917222342386384,-1.7865137495782102,-1.5096998549865281,0.970673196658964,0.6536253859302683,-0.3381877452729799
0.706,0.21502640673191922,0.5045616516056699,0.28948970567736326,-0.35841077671851984,-0.03836998872611494,0.3956821823569548,-0.7517329768648556,-1.9506866390011792,-1.8022471960026862,0.5238037035977827,0.2547157193119135,-0.5938198408548659
0.708,0.1849189157560364,0.44087620496499874,0.2557250909807061,-0.3120291956326092,-0.03586322297816423,0.34650360993234214,-0.9547366729525091,-2.0181197425190858,-1.9779292718040544,0.1537248040096277,-0.07979231385182031,-0.8278105393319324
0.71,0.11297471785721971,0.37226719811053627,0.25874811459289354,-0.2418786498537034,-0.07307403943506569,0.31350378478952273,-1.0449707871638128,-2.0021871592960396,-2.042618772513079,-0.1018747338521927,-0.3134517757422282,-1.0058565396684698
0.712,0.031423735167276916,0.28254974627455093,0.2504838556684572,-0.15609082646992142,-0.1100973768204305,0.2643505470982532,-1.0179697467066702,-1.942192572315777,-2.013193855409752,-0.22232077343197854,-0.4363175043445271,-1.115058064571286
0.714,-0.02829405425379783,0.1613541917400594,0.1892178340552142,-0.06549601268907977,-0.10991621127599813,0.17305407022079358,-0.9239743126808057,-1.8693954084482522,-1.9082351952630099,-0.2262677142478861,-0.4723408549501115,-1.1706332891452502
0.716,-0.05014537332805205,0.030970627392677693,0.08102254938819768,0.010433255605009715,-0.06696568962244688,0.05428626589538588,-0.8133774386281655,-1.7813228852017355,-1.7442486974326792,-0.15604648208066937,-0.45002294213361366,-1.190000761749935
0.718,-0.03374914256374732,-0.055077099325916395,-0.021213022516186973,0.04483110552066168,-0.007471016785002431,-0.03896029668229297,-0.705649139559275,-1.659003716239678,-1.5379145717170049,-0.04567019435694218,-0.3821237797029643,-1.180061950183022
0.72,-0.010604262727171809,-0.0668573058988458,-0.05614982752048998,0.03897818882144428,0.021668167215626775,-0.06218485433418697,-0.5994143246198212,-1.498312073119356,-1.3087407386073084,0.09006310367159621,-0.2771433275545013,-1.149253136268793
0.722,-0.032531308721711436,-0.03683592156048598,-0.004310332708121161,0.035301749178998434,-0.015491746384378864,-0.022368507241991978,-0.49060497337003084,-1.3157914054821742,-1.078116325838225,0.24180400283131256,-0.1536160421633379,-1.1098506342800507
0.724,-0.1003754809269673,-0.017040061281200915,0.08330115290042915,0.059769315459816015,-0.09373128540653436,0.030021100844994396,-0.3825266747768102,-1.1367075597028555,-0.8678786194505773,0.39024337824000577,-0.036502485286167646,-1.066746161920637
0.726,-0.1384485409940278,-0.013550174067658204,0.12500592035304928,0.0769407961644789,-0.1340916693466431,0.05235576105606157,-0.28084054284996024,-0.9791076607567738,-0.6921305816168526,0.5131744603850352,0.05824811866677952,-1.017445411080685
0.728,-0.09203377537707065,0.0007814314746114896,0.09316155961757734,0.046218708270594024,-0.0950002511894885,0.044294724894412246,-0.18389765381039083,-0.8426299816896884,-0.5473498247691722,0.6047314395515428,0.1329564380011784,-0.9634146177544037
0.73,-0.009480566912332112,0.02502865978397996,0.03493177180334262,-0.006885232887706871,-0.02385939808185116,0.02796076705185114,-0.09156152233117028,-0.7205319266670416,-0.422588560429905,0.6736465133581384,0.19793768948971535,-0.9142378607001789
0.732,0.028723187348212265,0.03012703925680839,0.0015281996266393984,-0.027787684751581814,0.013095994368459936,0.0140849787711935,-0.016204277864910886,-0.6211840490426749,-0.31945640451048074,0.7246260427337438,0.25374792152076686,-0.8809932850438935
0.734,0.016894552145902027,0.010086363558944957,-0.007173143851451419,-0.011684931507608902,0.011969326756511188,0.00014521156981854653,0.03151853559396885,-0.5604130679318773,-0.24953662135710772,0.753503071163591,0.2885609760575717,-0.8696283428413899
0.736,0.001954340689423783,-0.014094999769264248,-0.01662346964188328,0.007365621529779832,0.008437843660874115,-0.01588085105034178,0.05864436064160207,-0.5346560196433704,-0.21592408454623044,0.7559126768262434,0.29173396123328776,-0.879165341489759
0.738,-0.003017509468415739,-0.03452429826382516,-0.031843747085674216,0.019652114279888215,0.012558208518613206,-0.03309727748210582,0.08301699677580458,-0.5183720262175375,-0.20560522009556606,0.7365840066202453,0.2703462156384286,-0.8995422326064644
0.74,-0.024312533060547748,-0.06173909946076664,-0.03748116879876829,0.04375061090339714,0.004884595191370864,-0.04947304887139899,0.11999672520970676,-0.48957596764949257,-0.19359916329696225,0.718013841556064,0.25394101373867184,-0.9122864543149708
0.742,-0.0709174909562319,-0.0942777945555533,-0.02348520247631806,0.08304605880640133,-0.024186055417050923,-0.059037917503989054,0.17009614359778155,-0.45245161639233217,-0.1585667736714709,0.7285063741233344,0.27010437238475526,-0.9057996229707849
0.744,-0.11601997777497229,-0.11119020235416897,0.0044919530094783035,0.11372244045256792,-0.05994975861610006,-0.05398784274047321,0.21109732654651825,-0.43203578282500504,-0.10795836412993798,0.764701328887742,0.30729763913300023,-0.8912682412154664
0.746,-0.1275247709602332,-0.09893444225869152,0.02838899131283582,0.1133575108427463,-0.0783706688526415,-0.03669957928251462,0.22005404422310335,-0.44210957875507456,-0.07388055067264812,0.7872103946355239,0.3237309626061185,-0.8881615038568496
0.748,-0.09896072423649845,-0.0732098778135676,0.02603292730610521,0.08666038178228619,-0.06432418973042092,-0.0258621760657869,0.20541370501454656,-0.46478238647762476,-0.06897802939955484,0.7737445225039111,0.3039170283713359,-0.8942419451993135
0.75,-0.0559710039488357,-0.06446972155556563,-0.00792255838488964,0.06131331887033118,-0.026411266717307775,-0.038777638872762636,0.19501639391835424,-0.4731171681343105,-0.06853012590661621,0.7498261059831034,0.2782555227431101,-0.8889652677593747
0.752,-0.03304829164710379,-0.08040921401545491,-0.04699986550539755,0.057846510655606295,0.005205895152030737,-0.06583232481024318,0.2006022820934022,-0.46277726752671444,-0.04823211169210473,0.7490341506431737,0.27751516299510526,-0.8657687565946484
0.754,-0.03812924501973399,-0.09505569033789396,-0.056982279361082855,0.06712395283218309,0.00857179588383968,-0.0772390873206754,0.21539464373288753,-0.4475162885481349,-0.014458975972564288,0.770392704910041,0.29797850895279804,-0.8404241939504425
0.756,-0.04910481053064017,-0.08374367620338181,-0.03485651741551624,0.06653730912239496,-0.00744916273207095,-0.059794189191894755,0.23255303036200203,-0.43658269079043477,0.012336713232880776,0.7894135636196902,0.3189049271543372,-0.8262088637085311
0.758,-0.04758827145993489,-0.05440201606939,-0.006895202582885699,0.05173950272781962,-0.020547695444379354,-0.03128683581355529,0.2486244580235031,-0.42959902660143034,0.02313097320868131,0.7905437777910388,0.32876267560328315,-0.818506578167501
0.76,-0.039454400864248916,-0.032309535383704555,0.007221344147996794,0.03801379936862166,-0.023698054944684167,-0.014074643981832844,0.2577515980248175,-0.42500484964789276,0.021847679801116314,0.7782427559405461,0.32634448655374826,-0.8076152237152542
0.762,-0.03734346915943275,-0.026977907184539768,0.010446428445995967,0.03523385407212761,-0.024773596797926938,-0.010262683925617112,0.2543862768856109,-0.42355982466399617,0.016876261660467864,0.7664768654098321,0.31355993202444465,-0.7938793324302863
0.764,-0.038583747178116495,-0.026085306950597992,0.012495735597217719,0.035267838693872205,-0.027213899843036293,-0.008069672228348342,0.24259157528727707,-0.42366094764033674,0.017827325523252457,0.7645481998843504,0.2967814760870849,-0.7837197596575194
0.766,-0.030564433353374013,-0.01567241298586729,0.014846755360980077,0.025238987690579175,-0.02487053039518293,-0.0004806045112832856,0.2368165553357821,-0.41858304754525316,0.030900008137957673,0.7716360260256444,0.2872850290441708,-0.7766631390849276
0.768,-0.012202156756225317,0.001551194234460127,0.013733208265900531,0.006723741921464903,-0.014913028745394871,0.008142569033676805,0.24804791272403157,-0.40378926214184296,0.051838872490959115,0.7806233427893363,0.29214337765222276,-0.764802207788072
0.77,0.0006620061662754332,0.009282000377147073,0.008635055411381026,-0.00369185083724796,-0.005500037071607615,0.009207804493583105,0.2706409247222914,-0.3847619040973681,0.06909203205866385,0.7846460059209279,0.3066846194237629,-0.747571691067707
0.772,-0.0050364102913035246,-0.002054955138968139,0.0029996343778516225,0.005125014561796802,-0.005547576236371636,0.0002249901093185773,0.28736925194399215,-0.37165194593583223,0.07703995218639728,0.7820194571163197,0.3198182215909489,-0.7388353661121835
0.774,-0.022365209001719715,-0.023145477247687268,-0.0007798040417860613,0.024279944361653514,-0.012628167033436149,-0.012657536500750292,0.28726876768399595,-0.3685159972573998,0.08028929451280148,0.7760923957715464,0.32353580680109323,-0.7515633253876929
0.776,-0.03460079002529272,-0.03696203231126149,-0.0023709404272149954,0.03676684087277642,-0.01796764766656145,-0.02101378387715816,0.2742135088046214,-0.3726266428945973,0.08267164580963406,0.7697373309900489,0.31554032211184124,-0.7809065332555652
0.778,-0.036606645583508346,-0.0364206536394956,0.0001811065800222442,0.037404978426342016,-0.019699297288043472,-0.020413019292780346,0.2583953900183649,-0.38067314303398864,0.08017176867014336,0.7622922564323772,0.2993269587400656,-0.8089942725675008
0.78,-0.03651138690746856,-0.026578408545044518,0.00993593733617632,0.03327357665457831,-0.02365672697866316,-0.011284046552480125,0.2455422664341356,-0.3905535548630886,0.06926315567170105,0.752084202595379,0.28392826431652207,-0.8224327960402136
0.782,-0.04018142106890291,-0.014824823090085785,0.02536067735753179,0.03014710130146894,-0.03274069293799995,0.002621960793206427,0.23597835778525011,-0.3996172171211814,0.05545478302154487,0.738542814168093,0.27789953352492397,-0.8202288004709801
0.784,-0.04512390229860284,-0.0072402998837489685,0.03790587577451676,0.0287380027827615,-0.041941774671721894,0.01393448136675023,0.2300445254773661,-0.40560121082343703,0.04873331817525875,0.7239092447960129,0.282609106697879,-0.8087542593277965
0.786,-0.049369373576863634,-0.011575619534927034,0.037944942628876335,0.0319174199791668,-0.0449621776772868,0.012930206080693507,0.23145148057494888,-0.40847014284668226,0.05471942600237919,0.7155625937007116,0.29349085972376887,-0.7957419003410177
0.788,-0.05633352939765707,-0.03151812844373698,0.025272966435901267,0.044347095711940614,-0.04250581330745643,-0.003377540288068844,0.24374117287916522,-0.4091702375360927,0.07299544117359862,0.7202605747051838,0.3045526708498047,-0.7870198166531409
0.79,-0.06813071966738043,-0.05749761041060729,0.011383702891810371,0.06336886321045307,-0.04126951578571907,-0.024228405724347004,0.2638565832138103,-0.40826244661182315,0.09945636608332344,0.7331644170126096,0.31035251759673793,-0.7827826838874903
0.792,-0.07939237703867459,-0.07321288431787135,0.006858548703363014,0.07782886191374513,-0.04455479948482301,-0.034966303608507325,0.2825671179965875,-0.40745090241783555,0.12643185007317193,0.7400797405382515,0.30879781522839234,-0.7783008713580946
0.794,-0.08123058126298145,-0.0713906443514857,0.010069928121427072,0.0784240995571919,-0.04748559005272556,-0.03218015581692993,0.2923011561433299,-0.4097482465550748,0.14396181374151423,0.7328684111042556,0.3036160223675161,-0.7715706590551656
0.796,-0.07175964290914415,-0.05757474389648528,0.014012991514425047,0.06663184204388262,-0.04502886236121625,-0.022709091582999788,0.29270332124773274,-0.4158943572370078,0.14583443163997253,0.7174739513106507,0.3009166832940906,-0.7666249248052123
0.798,-0.05980645769397843,-0.04120237581015552,0.01837285333605639,0.05212144813548791,-0.04069430090476722,-0.012071382923098842,0.288751354794073,-0.42356709161849526,0.1346744977482265,0.706098843717832,0.30374014711133235,-0.7663109287639664
0.8,-0.055175729400205875,-0.02890701835370494,0.026120416083352586,0.04320825512299147,-0.04110480452161098,-0.001976628796361738,0.2848374055853671,-0.43148463517645314,0.12066133755326569,0.705046936389567,0.3110070979142498,-0.7663645091934645
0.802,-0.05919703043974159,-0.0248381154972157,0.03413424599223677,0.04245201238743064,-0.04633545505408331,0.0043493435171196235,0.28115171614477974,-0.43943081595581407,0.11482598425324685,0.7108974707061427,0.3188825205559726,-0.7609026262648162
0.804,-0.06816118072307391,-0.029857348161025116,0.03793984505934817,0.04884081822466983,-0.05279254929893145,0.0041473592743261805,0.2759425831167667,-0.4432830314219772,0.12112105093823453,0.7161504027904338,0.32254349709646357,-0.7511043640014149
0.806,-0.07977263105926896,-0.03940916638636929,0.04005844782224573,0.059503477920138825,-0.0602684008607061,0.0005024204530171853,0.26938173295814083,-0.43720576100155695,0.13466809043891467,0.7167521964939861,0.3204839055533331,-0.7440263871636769
0.808,-0.09154812182217102,-0.048238257895306315,0.04313729303653764,0.07046623255660377,-0.06842856062910506,-0.0028547360487030677,0.2628978289111083,-0.4230509477523411,0.1484131864540541,0.7139303067985359,0.31748509392486834,-0.7436189366972462
0.81,-0.09904153043825165,-0.05669007463145837,0.042032039281144185,0.07915031687786513,-0.07231320331697726,-0.008326673530540799,0.25620528925689756,-0.4107799641718237,0.15947534963281276,0.7096273998182896,0.3183854712075214,-0.7470202514640074
0.812,-0.10123483844460773,-0.06858928137837744,0.03198017996058964,0.08675037018303086,-0.06888776460115892,-0.019420414650722934,0.2475874822011143,-0.407285874560324,0.16814958715084916,0.7024749936998259,0.3191044605154083,-0.7500488007504698
0.814,-0.10318797721574668,-0.08570011500659623,0.01679929140524608,0.09680235860470489,-0.062456541956926424,-0.03482415020027839,0.23708763767449959,-0.4099463252660305,0.17317782529195436,0.692354910278961,0.3116632144118009,-0.7513584904226784
0.816,-0.10864253883324329,-0.10387242114660786,0.004631967956484028,0.10893383224465557,-0.05881712675754615,-0.04931724243888094,0.22891726633174347,-0.4116375472983044,0.17278090029951218,0.6880067166543011,0.2992428946499988,-0.7482587881944838
0.818,-0.11412689717492339,-0.11227256709629362,0.002472417574278787,0.1155840292575913,-0.05961140432011066,-0.054923220735900974,0.22972788803071034,-0.40826410504672617,0.1719634698736691,0.6998393241592358,0.2972256234094783,-0.7347340128734702
0.82,-0.11490180470023642,-0.10362835279465708,0.012260132827594025,0.11084820769232386,-0.06396232667098845,-0.046505268729361206,0.24254932277868038,-0.40160940763717123,0.1812918207740942,0.72395610205713,0.31570956107949205,-0.7102416149421145
0.822,-0.11300728026107278,-0.08687403608724321,0.0268263510218249,0.10090361580414131,-0.0703880956433182,-0.031037346265579156,0.2627499017984905,-0.3963522437144918,0.2038284963893515,0.7458718898204939,0.34739082606221056,-0.6849385274935075
0.824,-0.115628277235415,-0.08099164986152765,0.034627027795296875,0.09933264236837859,-0.07682922862594871,-0.023866882447788396,0.28013467698817734,-0.3954236250603887,0.23000845363077144,0.7582233395050797,0.3754726075459815,-0.6695805057446376
0.826,-0.12856086751133952,-0.09630651575676452,0.03168340043497289,0.1140541067021087,-0.08283581306371118,-0.03295757643696484,0.2849085168859295,-0.3989870605915653,0.24827584177861156,0.7627304416376103,0.388620201197106,-0.6649738537784052
0.828,-0.15247503812094249,-0.1258586519626073,0.026008830721100173,0.14141653502847434,-0.09172955319134468,-0.050963217894659664,0.2754286498006637,-0.40481561595255894,0.2556589716997713,0.7611723216145388,0.38733013954704165,-0.6653333706103698
0.83,-0.18060401438423715,-0.15197298250845637,0.028409070840428062,0.16865911417781032,-0.1062516098798409,-0.0632035890811849,0.2615348971994044,-0.40824828525640366,0.2581022463249983,0.7552883526947909,0.3810983520673576,-0.6668648005604684
0.832,-0.19752580253103372,-0.15901475437323037,0.03862841571940489,0.17998059822652832,-0.11982922681808976,-0.06186467625129613,0.25688727545981954,-0.40474246310657247,0.26471965209244347,0.7509650777679853,0.38105221931322886,-0.6692457394455237
0.834,-0.18715575397980994,-0.14328167167503647,0.04394675363728924,0.16595407001751863,-0.11806685626909333,-0.05152856215640016,0.2673037701271083,-0.3934280112543879,0.28061800960533884,0.7557496751359289,0.39157501812359674,-0.6714559509575018
0.836,-0.15016502355415218,-0.11405475582690873,0.035911287756461456,0.13252209067344994,-0.09603784298954654,-0.04087067165950411,0.2871794131634049,-0.3782945256799942,0.3026732831856477,0.7708742378838627,0.40678310857554817,-0.670498500812469
0.838,-0.10981293018435838,-0.08570027619835414,0.02379930152673573,0.09874681886695315,-0.06946841037983453,-0.03241927292393747,0.305278540782105,-0.3663687656835897,0.3230940462970912,0.7866654696049862,0.41656872259857913,-0.6659624270876804
0.84,-0.09337521935819093,-0.0689287987216275,0.024256214534646717,0.08276842177294641,-0.060850275842221746,-0.023633982052212503,0.3129455993332649,-0.3622534146848109,0.3369340956740912,0.7902853526103559,0.4168049708901771,-0.6624394662681605
0.842,-0.10826630712665837,-0.06811738616322559,0.04016109088276727,0.08980554830359234,-0.07601666154278792,-0.01548521954817588,0.3090140269326197,-0.36224378835270477,0.3449502428926424,0.7805554937727832,0.41199411355418525,-0.6644642725855825
0.844,-0.13744388352720222,-0.0814938412937095,0.05618077550596896,0.11094869875972432,-0.09864733013642772,-0.014472874209129868,0.2998097875271234,-0.35608085831902303,0.35113074421565443,0.7696351099223103,0.40835486942117905,-0.6726569092787559
0.846,-0.1584050853188609,-0.10176780631729797,0.057009336111336,0.13209373426551113,-0.10925968370246197,-0.024343086419764928,0.2937689307984855,-0.3377356114644622,0.3597383307900643,0.7653117532061514,0.4072027713384537,-0.6854589779532604
0.848,-0.1674894173567021,-0.12168681718274842,0.04609845223517898,0.14748848947818097,-0.10781587182895609,-0.039698394377492244,0.2926602096428333,-0.31303639888665286,0.37392796170927006,0.759804655644904,0.4065205300789672,-0.6979311404270082
0.85,-0.18057623643106577,-0.13958348540618493,0.041139221753620725,0.16309376063923836,-0.11175086624359855,-0.05078784640190501,0.28950345639491576,-0.2932786638481242,0.39607653228225453,0.746365008415959,0.4071986600534221,-0.6982401453595426
0.852,-0.20752776203326104,-0.1547750471723773,0.05294655162533756,0.1829788530354454,-0.1315363575465463,-0.051999116431357344,0.2784388585314726,-0.2825099953717342,0.42732389987325053,0.7377002740682922,0.4127147094143464,-0.6753185150205363
0.854,-0.23570411372288866,-0.16133037338344902,0.07471703233541975,0.19869181164801425,-0.1568182225366082,-0.04416755932139303,0.2634883096664668,-0.27448461771398985,0.4630560489781839,0.7512311940305871,0.4216788927560492,-0.6355163351512317
0.856,-0.24336755265262278,-0.15200008934481998,0.09163260080030998,0.1970614683560533,-0.16884671839567575,-0.031049054186154636,0.2558229878806074,-0.2613507916371252,0.4929886800369033,0.7823043539525935,0.42776825189067563,-0.6046409682759101
0.858,-0.22200843235255785,-0.125937232361675,0.09597231368035723,0.17385656341427405,-0.1598898328881658,-0.01561427237977472,0.26492667933680986,-0.24180632062863164,0.5132073053461589,0.8097638955738528,0.4290611469243663,-0.6053491449140651
0.86,-0.18310792250084731,-0.09252980147579369,0.09011582092054009,0.13875711392602502,-0.1374852337509269,-0.001370074787141502,0.2898558431830504,-0.219522592252745,0.5325072076058729,0.8237667530803262,0.430334321525244,-0.6327445648486787
0.862,-0.14673325872978746,-0.06626358304105509,0.07997946274414251,0.10805377734952873,-0.11434439172442594,0.006732607076732677,0.31729311293469525,-0.19652115394251704,0.559524152804147,0.832305748951727,0.43481957540759275,-0.6595131485790475
0.864,-0.1242362034886251,-0.05125504941816465,0.07288453312851569,0.0893779534331385,-0.09912966529669831,0.00991360094515325,0.3324568977181058,-0.17239546186007257,0.5909505720978808,0.844109383532987,0.4398753253879199,-0.6670747393954084
0.866,-0.11079482540370954,-0.03604679180690332,0.07516304696287339,0.0751992907804531,-0.09300581217662354,0.017758583326938807,0.33248060045620204,-0.14846694084125162,0.6192298399673644,0.8587978380033064,0.4420026667374107,-0.660369879405272
0.868,-0.094943631465826,-0.011727173180816727,0.08377781251683446,0.05552923149316453,-0.0897747899557106,0.03431349176374698,0.3257782988528072,-0.1266162648688341,0.6446020556431267,0.8723620702453228,0.4413296804541681,-0.6496455459918106
0.87,-0.0744718154541955,0.013799979215834483,0.08845464699027696,0.03272580274861132,-0.08294131822102967,0.050495020956156815,0.31995893384640384,-0.10559924507017857,0.6730066612723593,0.8829803798181598,0.4396251322522726,-0.6345854882777565
0.872,-0.059175610038641475,0.027538761846642265,0.08642567033642926,0.01785440758331412,-0.07457991070294527,0.057100667704276444,0.31488690950983156,-0.0854161386340676,0.7054135558484222,0.8907257678768628,0.4377047214028,-0.6128000309569438
0.874,-0.05852067473027247,0.0280618868100475,0.08626774650537306,0.016673376476407594,-0.07348564862611061,0.056723737744412084,0.3069920912560845,-0.07206639560614259,0.7318344808366424,0.8951363175861867,0.4359359336199441,-0.5908401934879618
0.876,-0.07118983039529296,0.023186438318414326,0.09433820411290851,0.025073686258365334,-0.083663201379686,0.05716178184253851,0.2952119543946268,-0.07054495965862664,0.7381593106569465,0.8941727966361722,0.43420906527491543,-0.5780595225590774
0.878,-0.08729955624463259,0.017874935189816386,0.10509862614442295,0.03567589190463933,-0.09806380452603611,0.05955845978974417,0.2814361597566881,-0.07732611341034931,0.7223645192405236,0.8862857741955257,0.4309275591322794,-0.5748325529753313
0.88,-0.09970871639654783,0.010186678258714362,0.1094630790454558,0.0455734765450369,-0.10715934540394928,0.05860173847188346,0.2698936235269466,-0.08486160650027624,0.6989232291848254,0.8727365861006233,0.42331415252104376,-0.5747956380700975
0.882,-0.11199052756927004,-0.003634712182795327,0.10791106491005104,0.05836820858119563,-0.11162968511326384,0.051529829121557416,0.2669984968905578,-0.08940116253577103,0.6820840404876178,0.8562213987286712,0.40919163236248624,-0.5772439740849791
0.884,-0.13302920283530018,-0.02406114027938126,0.10900998186859552,0.07916314946955412,-0.1209211424307278,0.04158359547913617,0.2757824022443379,-0.09312350537931853,0.6709960933016643,0.8388444169175322,0.3898571818147835,-0.5887019765750066
0.886,-0.1638347609929681,-0.04819137983405235,0.11602460089671977,0.1070676639256431,-0.13891800993920095,0.032312928065386985,0.2898125158704291,-0.10021511286991777,0.6570416159644623,0.8223792549070494,0.37026969334052023,-0.6097870628942511
0.888,-0.19170512563454686,-0.069477023127448,0.12235051744943401,0.13174496731467142,-0.15659820906046878,0.024561206353923472,0.29858033792466454,-0.1091995040965669,0.6407972545178438,0.808044584690792,0.35418172392138864,-0.627338728435857
0.89,-0.20120330596124164,-0.07852700067142736,0.12226704360852265,0.14054519089234593,-0.16243049375911792,0.02016353156446421,0.2982388018815101,-0.11258114031645665,0.6326771424724972,0.7949638408749047,0.34082243547675783,-0.6269151055847727
0.892,-0.19257360208982136,-0.07357200205101265,0.11837541201905324,0.1334468242527037,-0.15657899248740365,0.020823624443132783,0.29212983306593887,-0.10908020689135328,0.6351819148989857,0.779922751301153,0.32710820158612625,-0.6123561125035877
0.894,-0.1811725251305949,-0.06575761148461566,0.11498246791795719,0.1240882896528418,-0.14877407084255417,0.023131817698760108,0.2835651414912964,-0.10997669449386017,0.6332703931427295,0.7600057115453595,0.3109405062850062,-0.6038453184763379
0.896,-0.17544377987765092,-0.06415379517743838,0.11106492679020467,0.12079830579994098,-0.14365277829547046,0.022066358487679936,0.27299638208791444,-0.12551717458075515,0.6101267018441897,0.7363762143348241,0.29296847746234256,-0.6129381465971305
0.898,-0.16870829542052582,-0.06544055381024401,0.10305266922179913,0.11840087374479863,-0.13647681468198497,0.01712162402169324,0.26036286276833254,-0.1497597719095517,0.5685151289095076,0.7142807702681656,0.27615024944432603,-0.6285353287171634
0.9,-0.156304038810673,-0.06577227744734646,0.09030530137971157,0.11289500649810279,-0.12397654898649603,0.009909334660150143,0.2470168893140242,-0.16801812798006738,0.5283429302583046,0.6974375388165637,0.2623575427500506,-0.6331546461377057
0.902,-0.14531978112556995,-0.06929553252752937,0.0758329888899883,0.1097133416155449,-0.11077951640299827,0.0005072619757350736,0.23562010229441085,-0.17778678180619964,0.5042595614275097,0.6824616006227431,0.24988425450252477,-0.6246180896570781
0.904,-0.1437148196370104,-0.08018376871652994,0.06328079241563611,0.11432391298997556,-0.10307305289572939,-0.010870858607667643,0.22976738605595085,-0.19118975925668777,0.49221586661185807,0.6603344355041425,0.23495726584644824,-0.6143240442226989
0.906,-0.15157432390164002,-0.09675056017734726,0.05447791866532689,0.12588151009400853,-0.10237719779800815,-0.02272187574620971,0.23331261921617205,-0.2147749644849045,0.4773328581199923,0.6253673440928875,0.21342082331713702,-0.6152804138474265
0.908,-0.16386437967360762,-0.11453806137308467,0.04904648203702029,0.14036265088007455,-0.10617436616289698,-0.03366437969029276,0.24666169438349086,-0.2397918916055685,0.44971654921203363,0.5830687815989865,0.18176091378806383,-0.6431471066145356
0.91,-0.1742882030078591,-0.13006141744473865,0.04407824049943232,0.15334718479367657,-0.10962239146175741,-0.043665109909860556,0.2631379079636032,-0.2566094979619944,0.41241185324045854,0.5462545748324257,0.14254026328987263,-0.7070662186543625
0.912,-0.17774398435198482,-0.1421282271963207,0.03541456004021712,0.1613309194690349,-0.10767687093295249,-0.053939442250445675,0.27199405128226156,-0.26705907215041497,0.3762775440787782,0.5214592282089565,0.10789437703396122,-0.7806371188195036
0.914,-0.17461305718580195,-0.15162304796945128,0.02266647864471582,0.1644907013101954,-0.1002176792641543,-0.06504112521100014,0.26577426430440165,-0.279229651931444,0.3470748857166574,0.5011311668025712,0.08783866869651064,-0.813601507248161
0.916,-0.17277716136721954,-0.16109103127123703,0.011533103818561367,0.1680832376294949,-0.09412904146440064,-0.0755564453857857,0.245192478313765,-0.29860821280239086,0.3187454699550755,0.47146284741850253,0.07539488333723854,-0.7915680682239681
0.918,-0.180913985164331,-0.1728668063374249,0.00834455186610627,0.17780964004324898,-0.09660535106471999,-0.08324298721669766,0.2190857834029372,-0.3256099779459343,0.2832791074328359,0.4283088858041524,0.05527016809813027,-0.7521704644580238
0.92,-0.1981284320065222,-0.18433311259432578,0.014352443864722989,0.19183374305787393,-0.1074159904326597,-0.08567903862792842,0.19969471985894008,-0.35581012999922373,0.24500173768302272,0.38428895023249926,0.027752670748501483,-0.7327360256102142
0.922,-0.2135354645863312,-0.18799875526993445,0.02588033567754593,0.20083894553472562,-0.11970593093213601,-0.08101503383359299,0.19479263178302594,-0.3817585750215821,0.21629893862874383,0.3575740808918758,0.01070897709620219,-0.7321588136944417
0.924,-0.21732698467266198,-0.1813935523018514,0.03587965936432214,0.19896605328650419,-0.12599644906821383,-0.0721335579524601,0.20165798411907215,-0.3982661858621863,0.201620558755853,0.3532981583559611,0.01466580764332759,-0.7304365141637794
0.926,-0.21079716901671067,-0.1739727502900826,0.03661726246764964,0.19207029075721202,-0.12329112417766333,-0.06810767230570562,0.20903310555912968,-0.40709771842127807,0.19584883773352246,0.3589806832502578,0.027878535030029333,-0.7203736744877335
0.928,-0.20425295030143611,-0.17799682227233474,0.02617855821455771,0.19154279437514998,-0.11511207247603823,-0.07609134129307428,0.20653215092970845,-0.41610814359214193,0.19228600005927715,0.3573668521373761,0.03151423562513538,-0.7089123882268856
0.93,-0.20389049571214723,-0.1925013793121719,0.011461724686737756,0.19968211548082898,-0.10749487537605154,-0.09190392913606446,0.19273426075474356,-0.4332513502358173,0.18382779262927482,0.3405336402757807,0.021064597615626256,-0.7012236195553996
0.932,-0.20430545227519306,-0.20245012902322396,0.0019322192159595322,0.20579528215950407,-0.10272851516989248,-0.10281865441302672,0.17408364180906047,-0.45956060742506255,0.16621638738064443,0.3136282321440003,0.00654486563402509,-0.6944367148916116
0.934,-0.1974934795255534,-0.1974271556653494,6.383486859043235e-05,0.2002215224017997,-0.09849313190053269,-0.10180362636025747,0.1567942872610291,-0.4880387193084666,0.1440456459410335,0.2876393909923981,-0.00405520118439148,-0.6842073834473924
0.936,-0.18387058217228977,-0.18610715547623555,-0.0022795685141589707,0.18729458071354246,-0.09086401216068507,-0.0968644856133109,0.14187221433424638,-0.5102183177320657,0.12393063084200487,0.26795410902674477,-0.013954705344116917,-0.673684149696502
0.938,-0.17062644862704598,-0.18585133596637396,-0.01524406356686477,0.17957159564329078,-0.07806947436036252,-0.10191985144389942,0.1283456258166363,-0.5232964208328641,0.10413270617315502,0.25055954090915583,-0.029728443343206144,-0.6733332493007749
0.94,-0.16366363579039336,-0.20084845460156098,-0.03717053463998957,0.18279677560762292,-0.06393336318539894,-0.11903753831562289,0.11798611128370826,-0.5322882156445208,0.07899393641997857,0.2289183048883188,-0.05161228441403679,-0.6888367753725825
0.942,-0.16368558052330434,-0.2189947203610535,-0.055313798824621035,0.1918443923470887,-0.05530496324697269,-0.13665813866182439,0.11417760520223953,-0.544511167934635,0.05011812742083867,0.20207277111804017,-0.07411654526952212,-0.7120024395828483
0.944,-0.16812500008335027,-0.2292744788433122,-0.061302275115377856,0.19993599266402887,-0.05478127724819021,-0.1453038733614845,0.11826539805546525,-0.5593722532595484,0.028220474037742208,0.17686485225340504,-0.09005279948225166,-0.7273406512253158
0.946,-0.1739587507195375,-0.2316172931574651,-0.05812648749322904,0.20500595023439827,-0.05889385167086029,-0.14597173146061515,0.12882014599258562,-0.5677826299136456,0.023406532412895847,0.16241610421026348,-0.09372397989471182,-0.7261333738208834
0.948,-0.17700416566419636,-0.22859751274192505,-0.05234802084159352,0.20552263649692915,-0.062449264822473566,-0.14251386519339487,0.1426651798588235,-0.5646994022802007,0.034365267967340456,0.15998057324050485,-0.08659400957713767,-0.7133681549541839
0.95,-0.17277678438797311,-0.21940852716646306,-0.04730708328957181,0.1984025114299688,-0.06243539147032773,-0.13562085334134463,0.15625139202238617,-0.5557392855569087,0.049956216029838275,0.1601991952544422,-0.07824992691036195,-0.7009938052942888
0.952,-0.16290869343664666,-0.20764547093259306,-0.04498470703881295,0.18645032058314748,-0.05928061518347231,-0.12807180626368692,0.166317723181638,-0.5494543557409559,0.06002917089939099,0.15226638333604328,-0.07731092733379773,-0.6940563698438881
0.954,-0.15634459071137294,-0.20456994500633008,-0.04818487896219263,0.1804570385007714,-0.05556046066885095,-0.12754729881748492,0.16887273748137507,-0.5501383905859065,0.060500223454623726,0.13277094871235218,-0.08468757694887306,-0.6875380963429629
0.956,-0.16008185718045742,-0.21597188341679638,-0.05601039556338123,0.1874989309793283,-0.05417411148872551,-0.137091168526023,0.16069908781005982,-0.5587134129608823,0.05121097224557663,0.10581454471349686,-0.09728185672538577,-0.6783529214520924
0.958,-0.17353994386848975,-0.23311652374832567,-0.059983211935858004,0.20303543815481967,-0.058654337992131766,-0.1479977025569457,0.14391617850117275,-0.572971683905943,0.034315666107316074,0.07844859434281455,-0.11220667697092905,-0.6718981682709148
0.96,-0.19273184631589885,-0.2440774879859573,-0.051681251387801164,0.21862453663756867,-0.07177890212107008,-0.14965775538995962,0.12735265906027055,-0.5853240140864647,0.015443402049980636,0.0569587083060015,-0.12463834090880971,-0.6728159452940933
0.962,-0.21321370426932845,-0.2487854302421756,-0.03547245128936812,0.23165068064563096,-0.08984362163102373,-0.1441133443924289,0.12183174251656448,-0.5883993868845991,0.003082111947832023,0.04490484519791562,-0.12825320414552366,-0.6788371451303813
0.964,-0.22983653062210993,-0.2568476248980071,-0.026510315269081756,0.2445268440873963,-0.10271652855205621,-0.1438884208017658,0.13138528584057227,-0.5856090410908604,0.0012682283933699678,0.041333040170041184,-0.12303889251863123,-0.6875077636779748
0.966,-0.2393385739238488,-0.2728660082090199,-0.03299710448370525,0.25792090445502625,-0.10433988656619521,-0.155316200371828,0.14889911129978678,-0.5874049641158351,0.004487257951432453,0.041157807928466975,-0.11766657790545362,-0.6982864452534953
0.968,-0.24098948457335018,-0.288524473193914,-0.04731934349477904,0.2667488336096493,-0.098206172657327,-0.17007641535242343,0.1629532875949379,-0.5956192401249872,0.00546026463165162,0.03938600283316775,-0.12024464999026133,-0.7051377357921291
