time,I,II,III,aVR,aVL,aVF,V1,V2,V3,V4,V5,V6
0.0,-0.00021939620688464173,-0.000636248999965461,-0.00043879241376928345,0.00043879241376928345,0.00010969810344232086,-0.0005265508965231401,-0.001294437620619386,-0.0042782260342505134,-0.00043879241376928345,-0.0030057280343195915,-0.004914475034215974,-0.004497622241135155
0.002,-0.0015325538613534173,-0.00444440619792491,-0.0030651077227068346,0.0030651077227068346,0.0007662769306767086,-0.0036781292672482015,-0.00904206778198516,-0.029884800296391636,-0.0030651077227068346,-0.020995987900541815,-0.03432920649431655,-0.03141735415774505
0.004,-0.004806744460818515,-0.013939558936373692,-0.00961348892163703,0.00961348892163703,0.0024033722304092576,-0.011536186705964437,-0.028359792318829236,-0.09373151698596105,-0.00961348892163703,-0.06585239911321365,-0.10767107592233476,-0.09853826144677956
0.006,-0.009032796624600437,-0.02619511021134126,-0.018065593249200873,0.018065593249200873,0.004516398312300218,-0.021678711899041046,-0.05329350008514257,-0.1761395341797085,-0.018065593249200873,-0.12374931375702597,-0.20233464439104978,-0.18517233080430892
0.008,-0.011807599545175757,-0.03340833309484806,-0.022737614262812948,0.02317640667658223,0.0054650073588185955,-0.027504533322260178,-0.06815100348903293,-0.2257505688897921,-0.02317640667658223,-0.15895584232078447,-0.2593782981915248,-0.2373387722280832
0.01,-0.012864022598267886,-0.03148196086183389,-0.019597829751122106,0.022662937473828935,0.0033669035764271093,-0.025049949562699944,-0.06532311168644193,-0.21923362992228257,-0.022662937473828935,-0.15662042017094635,-0.2524456012316661,-0.2307625552453932
0.012,-0.014680247130945545,-0.024307087728631722,-0.010133516418617032,0.01974700534025406,-0.0022733653561642572,-0.01696696416315895,-0.05344692129293096,-0.18612786292455588,-0.01974700534025406,-0.139593056595477,-0.21684038979610887,-0.19760006027678564
0.014,-0.018274142192559656,-0.018670385184941338,-0.00041709788671756565,0.01848269113591844,-0.008928522152921045,-0.00953331408866151,-0.045491142226358965,-0.16509542186762965,-0.01848269113591844,-0.13473595124318166,-0.1988766237601461,-0.18041478751856357
0.016,-0.021488304694054026,-0.017905743413477695,0.003771117137448769,0.019602746125329643,-0.01264068072609563,-0.0071725608767949115,-0.04587679700903725,-0.1630348562805055,-0.019405289539133466,-0.14335561634752622,-0.20710731642002891,-0.1873160144378269
0.018,-0.022977595206923922,-0.02095477779689005,0.0021292814842461837,0.021912954464800835,-0.012630066038652724,-0.009542607886495759,-0.05077537029370808,-0.16372677803751742,-0.02053365598958276,-0.1508538653918649,-0.22115792369532192,-0.19913850515630876
0.02,-0.024488012063302193,-0.02527639180909398,-0.000829873416622938,0.02490294877161366,-0.012069406546380551,-0.013272723000483815,-0.05563503412347863,-0.15667433573946934,-0.020576878756877,-0.14983777188772174,-0.22590095968864476,-0.20103950458786218
0.022,-0.02736324385779453,-0.028790211801292345,-0.0015020715194713928,0.028114279617530217,-0.013382226000391587,-0.015560229703625106,-0.05874650089004121,-0.14616177565307858,-0.01998476265538983,-0.14521283520058362,-0.22364164769134326,-0.19560247164978656
0.024,-0.0301906213964378,-0.030450071423757406,-0.00027310529191537994,0.03032717404239548,-0.015538168219175762,-0.01593417089245306,-0.05993682332031845,-0.13974974582194713,-0.019678394831048843,-0.14333192829909847,-0.22209502481959903,-0.19222029845556857
0.026,-0.031925109869891846,-0.031280208365783886,0.0006788436885346977,0.031585688025624496,-0.016868550216058997,-0.015884226867683683,-0.05963633703021485,-0.1388480719053092,-0.01985481230104806,-0.1438663109822734,-0.2233320744396491,-0.19477755195230462
0.028,-0.034034403047063976,-0.03358719515694683,0.0004707451474917333,0.03379903047331811,-0.017746249230784203,-0.017063668766921197,-0.058898157439375064,-0.14093415430748513,-0.020106133609385263,-0.14266054065014708,-0.22481525338763467,-0.20060617457857893
0.03,-0.03740734112554363,-0.03754522571088473,-0.00014514166878011343,0.03747991195993367,-0.01909316700677971,-0.01930362242651088,-0.05863218199656565,-0.14447607547580144,-0.020129904324169938,-0.13875347085334913,-0.22477899624694123,-0.20537193461964742
0.032,-0.040052145385330966,-0.04025189083285284,-0.00021603195020420665,0.04021501041215422,-0.020403188956041714,-0.020765799430386856,-0.05896337424664751,-0.14936174472378547,-0.020201581470891548,-0.13556384823311557,-0.22403299943066854,-0.20679128599089425
0.034,-0.03958858492271999,-0.03900446017025766,0.0005803113801059052,0.03962671864628424,-0.020597789551152514,-0.020051798522254426,-0.05985882674937182,-0.15539983717750222,-0.02131037822339462,-0.1361182753606885,-0.22440954787353692,-0.20569763000519997
0.036,-0.035889232633249446,-0.03422759697453371,0.0016687008409486588,0.035928278914362566,-0.019293388706020976,-0.017670799328418352,-0.061930293788136456,-0.16164499996637544,-0.024290899979463498,-0.14004678485788083,-0.22709727818584013,-0.20445994300388443
0.038,-0.030536041202665537,-0.029173413270532033,0.0013461429042699372,0.031225832584404783,-0.016429741309508254,-0.01580078400049093,-0.06588129185961063,-0.16628784828591167,-0.028150329429812326,-0.1451988824690126,-0.23196353146380316,-0.20438972119951154
0.04,-0.025554812926465168,-0.02681265093221487,-0.0013684646170070175,0.027619977849531907,-0.012497536522093396,-0.016083170981803594,-0.07091531540483884,-0.16770733867958038,-0.030261060632939183,-0.14982651854920248,-0.23755017571929019,-0.20488950992417865
0.042,-0.023524653877502383,-0.02652544981577984,-0.003178533534484236,0.026107120389016504,-0.010352465562926676,-0.01659056613261127,-0.07382928338673468,-0.16594244309662692,-0.028821581584093786,-0.15243459671970555,-0.24149796299118045,-0.2044515345964947
0.044,-0.026906987094356828,-0.02513117125613302,0.0018109208102180456,0.026715708525838627,-0.014180600048595352,-0.01305871607460972,-0.07102015288125271,-0.16223347625553133,-0.024545405093523813,-0.1515971329242401,-0.24153283935817138,-0.20187623485929482
0.046,-0.03512386385172732,-0.02165842035470622,0.013961388062543541,0.02897358098469537,-0.024091451260162773,-0.004986806238847863,-0.06277500387894232,-0.15754818435204634,-0.02017928730535864,-0.14795574948645948,-0.23717645038620172,-0.19710006039447173
0.048,-0.04360641977409326,-0.018592008963210265,0.025719487158341346,0.03179509409573445,-0.034312259259336494,0.00267452225362296,-0.05393842187042947,-0.15268469576202562,-0.01830699151135288,-0.14474733612878077,-0.2306278128311559,-0.19160481816039013
0.05,-0.047172087084432206,-0.017563534600310054,0.030005959051715547,0.03319979910003857,-0.03879601092592919,0.005754941203866928,-0.04894664556215889,-0.14947937379200857,-0.01904831894828231,-0.14435140791104206,-0.225203139520712,-0.1881456543995
0.052,-0.043467251983107386,-0.016591244261116002,0.02689828912003756,0.03097834093453229,-0.03611329787456488,0.005256161485056919,-0.04805991968336703,-0.1500784175016481,-0.02037436595864802,-0.14580140048886292,-0.22283775815430093,-0.18896362416994053
0.054,-0.03380991555689458,-0.01296826213265322,0.020913665108529298,0.02453774675090773,-0.028702777488962588,0.004415808870016002,-0.048860106034278386,-0.15392596282854262,-0.020672828212143966,-0.14677145504333294,-0.22308627074157777,-0.19305287629278553
0.056,-0.022396070081367046,-0.007068466575896201,0.015677003634754525,0.016111908387153467,-0.020333412480537074,0.004612618050500825,-0.04936322268225132,-0.1573704250238721,-0.019901514888002503,-0.14628041870966924,-0.22391055218738812,-0.19627403215350162
0.058,-0.01463182589333548,-0.0022936656112027424,0.0127163152017946,0.009917993340694316,-0.01479031707039347,0.005176071388145546,-0.04919247698583514,-0.15776978772404768,-0.01816271162928245,-0.14443270734590036,-0.22310882700594048,-0.19522668423271455
0.06,-0.014817716290368212,-0.00203118205634329,0.012980335956977668,0.009794871505412524,-0.014964686105131896,0.005305060555933119,-0.04888578129460725,-0.15619273185306728,-0.014982860110337858,-0.14132488090095324,-0.21983943362220354,-0.1903138417228686
0.062,-0.023374553448244535,-0.006728817678172872,0.016815062693107802,0.01632230333226937,-0.021188128666705844,0.0050472755123959715,-0.048845309852413685,-0.15515972978204115,-0.011032798249513,-0.13780626959209027,-0.21568840990102484,-0.18509824194017255
0.064,-0.03570875411994201,-0.013762098401272311,0.02225223341573479,0.025842516154986367,-0.03002425346260705,0.004524913583479258,-0.049210619730226564,-0.15571183140918887,-0.008667421788916474,-0.13603735583017826,-0.21350603024572862,-0.1829299007447745
0.066,-0.04483286862692387,-0.02031973227115869,0.024795803852071304,0.03325178655064519,-0.03556296698105927,0.002605206368276402,-0.05061311661054778,-0.15774389666034236,-0.009578362040683778,-0.13816815145949557,-0.2146721961587355,-0.18390779141537406
0.068,-0.046303746680116935,-0.025451874199876077,0.02090288105933732,0.035940874402857,-0.0337287740189998,-0.002176160300595622,-0.053849771340681425,-0.16118314279724333,-0.013320451950462357,-0.1446852968219571,-0.21834266223031445,-0.1855022218405728
0.07,-0.04180622452839094,-0.028947500725836427,0.012735130095028701,0.03507213010195172,-0.026728605560385088,-0.008480507782749678,-0.05800925471359862,-0.16509733287556952,-0.018352370657304117,-0.15353115315833477,-0.22303779187077272,-0.1858076336023507
0.072,-0.03764422271796941,-0.030514924257237484,0.007034992257240225,0.033913999022789555,-0.02152877179716099,-0.0124777066735692,-0.06033406821309181,-0.16719445319460288,-0.023110706214641567,-0.16104926313534282,-0.22758809381102219,-0.1851159381514343
0.074,-0.03915191787406507,-0.0312826546603558,0.00788842955346408,0.03558689565984268,-0.022875107208318805,-0.012684443743133461,-0.05879518121553069,-0.16568048428248186,-0.025862230132908927,-0.16449508426632106,-0.23040863574545614,-0.18461985755701937
0.076,-0.046819456692925844,-0.03356055813207655,0.013319385952213386,0.041212609341017815,-0.02967941110204931,-0.011469801605573475,-0.05408393862683193,-0.16110533260312127,-0.02514876997824976,-0.16328601636636714,-0.22971485251262835,-0.18475643329073585
0.078,-0.05675113534101302,-0.03752614528037009,0.01924380255357383,0.048645461357573715,-0.03777038362458311,-0.010859338702508199,-0.04921879329879944,-0.15629159350393806,-0.021749088907519448,-0.15853975625633437,-0.2260261467521941,-0.1850908796321574
0.08,-0.06423308347757306,-0.040473934536518236,0.023735276141064736,0.0539983848999189,-0.043975042404406695,-0.010050270935013358,-0.047109958338054675,-0.15435245021376431,-0.018807306746218916,-0.15245456037240504,-0.2225192621737481,-0.18508832292451305
0.082,-0.06753335185769667,-0.04054837128345433,0.026963314445543226,0.05543487408380772,-0.04759176513825078,-0.007864557342080514,-0.047927627027015016,-0.1564314845017833,-0.018494090682758632,-0.1474631531309017,-0.2209190671959998,-0.18431173510685897
0.084,-0.06814616901139671,-0.039038570537655644,0.02911025900022015,0.05445103051414663,-0.04925295239176354,-0.0051936460641349436,-0.04941368988201781,-0.1611941240770269,-0.019847137298105194,-0.14505535584485862,-0.2194667031926777,-0.18212170557392607
0.086,-0.06804529767421437,-0.038202160589472185,0.0298562247322605,0.053497636723021345,-0.049600235118486775,-0.003883586600578162,-0.04975465989566083,-0.16579054969225646,-0.020718662237339987,-0.14504852120470804,-0.21666676363721327,-0.17805071142701093
0.088,-0.06781658037160622,-0.03859408119534209,0.029227298649710024,0.05345031655676749,-0.049013720973345,-0.004432415451454871,-0.04913896416668705,-0.16774300306579684,-0.020427448587044657,-0.1461908480035375,-0.21426251504434654,-0.17269498339987607
0.09,-0.06665633842856818,-0.03923639409522415,0.027415095489225737,0.05330415484242901,-0.04731027974973348,-0.005999416703446057,-0.048659752255209625,-0.1669970968815379,-0.019816216382156138,-0.14797610341995449,-0.2149873474573896,-0.16779234067426366
0.092,-0.063691370291717,-0.039333130786270994,0.024353304560350585,0.05186643749351282,-0.04399929846371223,-0.007872066888974646,-0.048762916906377476,-0.16563058438369826,-0.01968033368740426,-0.1510254671273393,-0.21907913640929247,-0.1650839952616195
0.094,-0.05985499662080431,-0.03903032588032161,0.02082495965988526,0.049571795680615836,-0.03995533999934305,-0.009615785318318292,-0.049072204508994216,-0.16530755626112278,-0.01994753880725332,-0.15490045938734995,-0.22374556374008686,-0.1648903001615709
0.096,-0.05755109196744665,-0.038832931089925526,0.01872099195233729,0.04810050794128077,-0.03750911663572725,-0.010588381899364391,-0.04938301972719893,-0.16586658971711493,-0.020149187315986646,-0.15740863001139682,-0.22586178147046193,-0.16566321498248257
0.098,-0.05780045581784385,-0.038903706665051926,0.018897943744954765,0.04823599166931685,-0.03772113658007874,-0.010513783478889534,-0.05057124979533498,-0.16630894842527177,-0.02009982681415498,-0.15731828384696817,-0.22507323771943696,-0.16495472154443339
0.1,-0.05912413703721544,-0.039045166826126514,0.02007799583091935,0.049073925761673326,-0.03909876295944459,-0.00997629324483807,-0.05373594725342259,-0.1662191024877167,-0.019966272471602188,-0.15596494114447879,-0.2235915984254217,-0.16148097415529225
0.102,-0.05968849213461276,-0.03907411212594194,0.02061326267663477,0.04943806841535559,-0.039716831754815864,-0.009722361422501213,-0.057977874441147444,-0.1659362878438316,-0.019929421858918682,-0.15529207766926298,-0.2232445891701974,-0.15684385408956605
0.104,-0.059462199177194495,-0.03879135269400266,0.020670844526827943,0.04917089910273653,-0.03962162202330614,-0.009549197417821306,-0.06038121141631854,-0.16563084908745473,-0.019984696719315,-0.15545756629524368,-0.22366076346503497,-0.15397947903016046
0.106,-0.060134655729831565,-0.0374321363113483,0.022703128238109868,0.048845138928843845,-0.041052508108472115,-0.007791978960847171,-0.058834811483730515,-0.1644307402094414,-0.02003120615616593,-0.15469433423504997,-0.2229605348398389,-0.15310197652614133
0.108,-0.06306589076888104,-0.03417052425209924,0.028895658389914952,0.048833408817471065,-0.045934100102263876,-0.0028990408246921734,-0.0540771345345873,-0.1612574347417718,-0.020023256657411843,-0.15147663930658403,-0.21991247862149516,-0.15141945205596355
0.11,-0.06713854878415482,-0.029975615173149468,0.03716274077850667,0.04900482813934569,-0.05255155665354001,0.0035465007384078056,-0.049193915523115216,-0.15701787844702994,-0.01999407860112353,-0.14697896655600715,-0.21579918130287146,-0.1477918947762802
0.112,-0.0693780067925362,-0.02764761576434872,0.04173013963885326,0.04909309679727286,-0.056204723481873595,0.00711137169231218,-0.04688239293399993,-0.1544009753242998,-0.019765083725857332,-0.14426301022896576,-0.2136040568070914,-0.14468627115351476
0.114,-0.06788381983446064,-0.029204339059051225,0.038679465931289375,0.04904180502338843,-0.05376939797369462,0.004727595454584703,-0.046404747794309094,-0.154635708505485,-0.018463264372262915,-0.14459109955815796,-0.21514159460473892,-0.14435474910059898
0.116,-0.06351132417887825,-0.033925833686258344,0.02958562059127734,0.04896916931020764,-0.04655139113572932,-0.002417637823059313,-0.04461602469743698,-0.1561167253925402,-0.01519972776662766,-0.14617069579573705,-0.2195106029935486,-0.14582812311915874
0.118,-0.05912905394498479,-0.03878613679392778,0.020342987394083918,0.048962465390952406,-0.0392507907877609,-0.009711608930309673,-0.04072092032865444,-0.15677189906909095,-0.010972576952170628,-0.14682201075223295,-0.2238675502969152,-0.1467871522647153
0.12,-0.057301598270015915,-0.04088706296229911,0.01641449786176298,0.048998897678261134,-0.03616863635458402,-0.01283030654775359,-0.03765505374421486,-0.1563090143333014,-0.008630227536700674,-0.1463034950843114,-0.2254873569918888,-0.14647355187672675
0.122,-0.05807315577259312,-0.040068259440162284,0.01800484011293467,0.04901995665928213,-0.037435445605174957,-0.01158456849482603,-0.038202191323649305,-0.15573151309803554,-0.010197691542676184,-0.14570153036314595,-0.22354290847326735,-0.1458017243564725
0.124,-0.05938917211140477,-0.03858597079734183,0.020803194895682338,0.04901013368227608,-0.0396395349842247,-0.009370601455051954,-0.0421707238175579,-0.15570440558785223,-0.014932147634339067,-0.14569309672608008,-0.2192899582322826,-0.14564816245566675
0.126,-0.05966634631168655,-0.038247422906722596,0.021418951019483684,0.04899394953381013,-0.04011705062002856,-0.0088768688839365,-0.047628669963416165,-0.1560051063424472,-0.019792780384378535,-0.1460160669929611,-0.2152091513724465,-0.1459399372575908
0.128,-0.05910973495210708,-0.039081612088601496,0.020028139556372702,0.049101277899666285,-0.03908124353920825,-0.010020018511999702,-0.05272164737432401,-0.1561635072280696,-0.02208424722130233,-0.14639431031623648,-0.2136578959414521,-0.14596561799394345
0.13,-0.058693464500113146,-0.040872228628641746,0.017821228775011796,0.049765556873537675,-0.037723143000387295,-0.01204242269104524,-0.05561775322421495,-0.15607525677256787,-0.022443802274586134,-0.14760727767668577,-0.21548456405012817,-0.14473131528269992
0.132,-0.05879484340523866,-0.04404290988761564,0.014751921018278425,0.051407623395501735,-0.03625045624032473,-0.015157180015959804,-0.054746493018956066,-0.15594672916607008,-0.023910395527711438,-0.15074699405177028,-0.2196439076359276,-0.14163778313988976
0.134,-0.05906908006914794,-0.04796046647426545,0.011108611497214354,0.05351882185268738,-0.03459653753095217,-0.018922285652618692,-0.050937552739386265,-0.15593349716310004,-0.02737820353173443,-0.15496348963672965,-0.22374427748996767,-0.13779286431669668
0.136,-0.05923249127156701,-0.0504250205969595,0.00882941611451856,0.054902637427705556,-0.03355808403245058,-0.02134454701252881,-0.04765995118985664,-0.15577791200704474,-0.030095643764633067,-0.15736831198567694,-0.2253559522671972,-0.13555327072852272
0.138,-0.05975410300707458,-0.05029305190859819,0.00961431040893759,0.05543013351696019,-0.03426435039505006,-0.02116577934687638,-0.04731919086910724,-0.1545024518949312,-0.02915872572675391,-0.15583650015834302,-0.2235474649620392,-0.13583575033345135
0.14,-0.061734690570930985,-0.04894419265033502,0.013249231444776882,0.056427619435356534,-0.037236129561553415,-0.019213431174531195,-0.04883318509992792,-0.15121144462731578,-0.024795441600544796,-0.15108498066264361,-0.21936383338615245,-0.13713958806237084
0.142,-0.06584478840029913,-0.04829606421936508,0.01829874569413227,0.05875099195207242,-0.042094707254131565,-0.016809542946679072,-0.04980409116289557,-0.14695678791550432,-0.020114963760032488,-0.14619674171270128,-0.2152419409725012,-0.13767648994385717
0.144,-0.07111407801102615,-0.048690201782973924,0.0231239611267694,0.06148093622978435,-0.04742914840886056,-0.014510523096816308,-0.0494761408866147,-0.14430913700939207,-0.01814006338879888,-0.14409885726758917,-0.2134357839049318,-0.1372505637991555
0.146,-0.07474572528259983,-0.04923102397276174,0.02589782512387244,0.06279902833216688,-0.050766913388127416,-0.012782137873358088,-0.04879339150239317,-0.14394437798551607,-0.01900374372932742,-0.1449343589146476,-0.2140755953619894,-0.13675514553009907
0.148,-0.07412746113215432,-0.04927812839778089,0.025158538027523603,0.061793138226945474,-0.04997670710866092,-0.012494576116780034,-0.048643011813279284,-0.14333527165167081,-0.020444158296212336,-0.14642296353567225,-0.2153171210586468,-0.1367474629634014
0.15,-0.07004705785645156,-0.04900699543369366,0.021734329540879935,0.05953625191979391,-0.04596621411664456,-0.013799905324718025,-0.04894215144768256,-0.13987052804308162,-0.020730478877727963,-0.14675541572099637,-0.2156306100785989,-0.137012798244668
0.152,-0.06630754054501793,-0.04907120102717562,0.018356133833559725,0.05808522964574173,-0.0422190338408517,-0.015672786750904666,-0.04938635196843621,-0.1337546389305896,-0.020110358463397163,-0.14613426432730328,-0.2153294440607483,-0.13714370834617018
0.154,-0.06480669106247473,-0.05045800671449279,0.015431123912230081,0.058261201857468047,-0.0399513350926702,-0.017947599195012296,-0.05064380104667332,-0.12695083911041594,-0.019658764337236345,-0.14565709488222922,-0.21610289346470182,-0.13706160774989634
0.156,-0.0635281699143739,-0.05385199810445342,0.010241427343906456,0.05910237091837811,-0.03665111723700472,-0.021953493163154404,-0.05376877623637409,-0.12097868194082788,-0.01977792899151294,-0.14576421241297274,-0.2191231611695623,-0.13695101314528235
0.158,-0.060757288595822134,-0.058095082754760184,0.002655616279722644,0.0594387679253786,-0.03130595672549386,-0.027332079572655443,-0.05795396175751134,-0.11688326962681063,-0.020079937613735103,-0.14607427350493746,-0.2231832276757272,-0.13694299085556924
0.16,-0.05816250820719564,-0.060483558059703256,-0.0025325903217953243,0.059154925218720185,-0.027322313203034108,-0.030842069301034038,-0.06046157263870606,-0.11514031218483593,-0.019939753295685262,-0.14616390479796926,-0.2254777894479616,-0.13678010859971443
0.162,-0.05828601551343234,-0.059423916863333044,-0.0010976076884447734,0.058836733664630665,-0.02841491339320102,-0.029939747318361257,-0.05949042744248154,-0.11383868856418261,-0.018499790468750506,-0.14603770118819412,-0.22451128053318942,-0.13549832024335443
0.164,-0.06152508128900482,-0.05557631568194753,0.006470380998879313,0.0588380751974635,-0.03460898213041192,-0.025096867429715865,-0.05562008165821047,-0.10941907411410881,-0.015121864762636234,-0.14592857414772692,-0.22103022453108948,-0.13220827244726577
0.166,-0.06652020227320325,-0.050454311086725066,0.01690477369168565,0.0590116825195656,-0.04316365839081353,-0.018167671350877015,-0.05043891949459054,-0.10121977644613567,-0.010915462719561096,-0.14594532039728975,-0.2163779369981392,-0.1279575274578866
0.168,-0.07199325397259815,-0.04523639204250242,0.02744356269456475,0.05918160089109942,-0.05149934344496639,-0.010551458179150002,-0.045424552322641296,-0.09292104645076027,-0.008206648093214631,-0.14581540663473586,-0.21141994098584965,-0.12539897986730417
0.17,-0.07765716523677775,-0.040889105229817084,0.036954043799822416,0.05965144342966573,-0.05865464294312819,-0.0031273514122904644,-0.04241513870338606,-0.08818464472321383,-0.007171018330259479,-0.14465668496396597,-0.20702347526594855,-0.12566768965713504
0.172,-0.083428385829843,-0.03836876990433995,0.0448626438264655,0.06088984231940424,-0.06449437017366882,0.0029566050006954534,-0.04318944605505469,-0.0871750192163463,-0.005328714569149218,-0.1416840973337042,-0.2043433375454315,-0.12713308976045037
0.174,-0.08804702547577167,-0.037970900587081066,0.0498788562802362,0.06257646231801758,-0.0683620126489756,0.006251825267651764,-0.04701391007459868,-0.08778997903347671,-0.0017110156595507749,-0.13785570241312262,-0.20388823974267156,-0.12776226262037346
0.176,-0.08971071583138258,-0.03876634806194417,0.050946783705063996,0.06363570344995215,-0.0694073926941723,0.006331772619609851,-0.05013243056565734,-0.08805026921233809,0.0013028281075944765,-0.13555800843575086,-0.20474031803014786,-0.12707608484776162
0.178,-0.08807511296686794,-0.039388328223268904,0.04879223365606387,0.06346503462293153,-0.06778683401918803,0.004373775847860286,-0.04918036826953072,-0.08643445256830229,0.0015959193061394214,-0.1358037217556185,-0.20542048374192656,-0.1251977538621698
0.18,-0.08429484499511747,-0.03930401999759687,0.0450401487002236,0.06234580023669854,-0.06445225877982128,0.0018404119176746525,-0.04436898130488672,-0.08139694362833802,0.00015426869065875278,-0.13712170453074005,-0.20533345704867084,-0.12190447080443022
0.182,-0.07950508779277152,-0.0389384012124368,0.04053323906758037,0.060657615462644275,-0.06015176642002466,-0.0006613476445528557,-0.03914984361172196,-0.0724331492035113,-0.0007686409021737124,-0.13768542663852232,-0.20493493721720263,-0.11797622019196263
0.184,-0.0746306376750207,-0.038807651017084895,0.03578024650132859,0.05860310174645878,-0.05561084724166124,-0.002923309556047324,-0.03692445513274164,-0.06116879711596028,-0.00023570506653853752,-0.1372645918801353,-0.20457056043813196,-0.11557345554546213
0.186,-0.07147707871127118,-0.038942121952307944,0.03253277828373758,0.05683397164288137,-0.05258271218853351,-0.004134152301181868,-0.03787703073128752,-0.04979533463140289,0.0017295401409509062,-0.13675696912142582,-0.2034030122662193,-0.11574077112807454
0.188,-0.07210682223820268,-0.03907706904095488,0.033052011210571317,0.05647408623001631,-0.05317282501383051,-0.003282932277394899,-0.03949050120391154,-0.0392873521141814,0.005147897187988343,-0.13674067855504296,-0.20027684812413085,-0.11707279414031728
0.19,-0.07594078210537267,-0.039068259169024684,0.036884336597587296,0.05777212247954185,-0.056925085131504044,-0.0009020955694508965,-0.03981882211232688,-0.030278653270809544,0.009088459380556605,-0.13700856246509321,-0.19604215504141528,-0.11769359147527603
0.192,-0.07903290775375703,-0.03877113451076196,0.04025527034546689,0.05914683845980078,-0.060101895001370746,0.0009187861325459586,-0.03890828237917315,-0.02389473744364886,0.011538556154772067,-0.13692599130999267,-0.19329226568487046,-0.11707619094965095
0.194,-0.0773710879538732,-0.03742568521994271,0.03991391121089097,0.058174786209606505,-0.059104133390048684,0.0009420674302259755,-0.0370868057134733,-0.020603082350261266,0.012101012503733532,-0.13531277130942929,-0.19274696945499187,-0.11523527933950226
0.196,-0.07025870752537029,-0.034178482283207114,0.03592595642994499,0.053657364212764305,-0.053525132494279225,-0.00010636680403144502,-0.03394304393292831,-0.019600362896284404,0.013167019782160545,-0.13039288949269617,-0.19185268746748074,-0.11192233657657188
0.198,-0.06081790357311914,-0.029982937353574744,0.03038095996792122,0.0471350077971646,-0.04586745228274201,-0.0012621441469855778,-0.030055180803108653,-0.019686060726869306,0.01695915414314275,-0.12137201282514423,-0.18813320800674643,-0.10796427522806427
0.2,-0.05311150026337216,-0.027120218858298437,0.025244068746408006,0.04163204797879023,-0.039219444870318,-0.0024241333202808697,-0.027282963403970156,-0.019885980521872407,0.02282808546726079,-0.10997207278685912,-0.1822052739022205,-0.10536054365588376
0.202,-0.04812492501265631,-0.025412111431156438,0.022033430170057596,0.037868293895234044,-0.03515578680387509,-0.002720967441315966,-0.025450366267872723,-0.01924792161508258,0.028585798009317875,-0.09922008573166125,-0.17637973239558244,-0.10436060902460689
0.204,-0.04391361524159106,-0.021512031812686048,0.022169590746217688,0.033540964097634546,-0.033630797864274496,9.208500812548363e-05,-0.02144150359000547,-0.01677686512250182,0.0332971536082251,-0.09128626790001884,-0.1716681773617773,-0.1027547459334313
0.206,-0.03976007389791652,-0.01382969556532995,0.026101508506120516,0.02756333765764668,-0.034195797092257556,0.006660091374951677,-0.013775142580772183,-0.012167713024192332,0.03767858524455709,-0.08708198969319847,-0.16732366593005898,-0.09956837746825133
0.208,-0.037166331364296396,-0.005171599156102782,0.03220474209335275,0.02200986432433438,-0.03619794409282202,0.014320885932079036,-0.0050743348959598495,-0.006693312110816628,0.042642437141535504,-0.08638286747973242,-0.1623775578217846,-0.09664448558344554
0.21,-0.03617965613869086,0.001373777872265193,0.0375711817817862,0.018301260265572356,-0.03795663890625816,0.019980403162073224,0.0022140436599539346,-0.0031511687521257117,0.04846204162978331,-0.08757048828704883,-0.15654628051646535,-0.0950334999659806
0.212,-0.03434664357622485,0.005894365834975103,0.04013823297040202,0.01500323470767986,-0.037533288979653454,0.022950702380960745,0.00914150277846632,-0.00391776878769555,0.05454524721859174,-0.08855801880454447,-0.15044781617037015,-0.09303580004420123
0.214,-0.030719621003249948,0.009361597821429002,0.04002216910550502,0.011202608121685494,-0.03510972332099505,0.024163027805016373,0.017018669636948463,-0.00802787411841753,0.05920774234914183,-0.08848238442219661,-0.1457844027573148,-0.08964876757976878
0.216,-0.027694259615621605,0.011454564970681364,0.03917616916493738,0.008492270039624291,-0.03315849033954562,0.024641792535253434,0.024356911471764657,-0.01150650450544883,0.0609181202334797,-0.08782566317666131,-0.14397221520724618,-0.08671694509373117
0.218,-0.027398343515365884,0.012573104152387738,0.04001658068741573,0.007830553707032582,-0.03369835536339261,0.025722397088805995,0.029390898760880687,-0.01177913792905044,0.060589984887097326,-0.08683569086077175,-0.1437577389070229,-0.08562334646470708
0.22,-0.028844343407124502,0.014741742282643522,0.0435927375733622,0.007577480069986445,-0.03635799576400928,0.02871680743807941,0.03296071765100937,-0.010122959615554112,0.06132749020146938,-0.08461900129989282,-0.14214714946397394,-0.08454110427997276
0.222,-0.029770980677836956,0.0184573480615444,0.048206901574279884,0.006213739203736282,-0.0390606132193157,0.032892554724026475,0.03710175409763244,-0.009121312625557067,0.06521751478218175,-0.08031257662706784,-0.13854405904592815,-0.08090887891769645
0.224,-0.02914980770117487,0.02134202834809667,0.05045603837213934,0.004461102620584374,-0.039751066672807416,0.03534643660031452,0.04221439061448993,-0.009731558936481206,0.07102969057260883,-0.07484619190715612,-0.1354216944203134,-0.07506789518439275
0.226,-0.026547364167242446,0.021522433258661468,0.04792161501245794,0.003239631309882354,-0.03712149205906109,0.03386235331326375,0.04631549686522456,-0.011971740165924023,0.07504218793286248,-0.07114488379661336,-0.13394074794159458,-0.07032631930147952
0.228,-0.02105224067160106,0.020098019999362136,0.040679570793550196,0.0015912063715281563,-0.030773273483046874,0.0290212454154513,0.046637264898469755,-0.01678558558435404,0.07431408356097517,-0.07183156876053877,-0.13211283057084014,-0.07004721736074038
0.23,-0.01301871236995914,0.01924472308464647,0.03138409584782475,-0.0016755539424385996,-0.022248591201822827,0.023581307482262524,0.04232166524633216,-0.025160560357615765,0.06997477168966107,-0.07599024407217227,-0.12873604054302737,-0.07471863364694019
0.232,-0.005579382830898183,0.019252896941368794,0.02382222158403885,-0.005446379714789883,-0.015019817397243986,0.019942612295711374,0.035220736211956045,-0.036400104455498045,0.06606173074623622,-0.07986467555421059,-0.12604567258810362,-0.08177039809037183
0.234,-0.0029374562464078214,0.017579473341659112,0.019861219316945396,-0.006391676257047601,-0.012071729061929243,0.017563857675659506,0.026996953301624303,-0.0494929065321423,0.0639051939484175,-0.08222207954160689,-0.12698408571959868,-0.08847202459997695
0.236,-0.007228847880111181,0.010509775765366056,0.017655458548953736,-0.0013648301369412743,-0.01350138847593125,0.013124406216141653,0.0169120762669611,-0.06488032045393015,0.0603108926940743,-0.08618767599684367,-0.131604575648734,-0.09393953354150607
0.238,-0.016265238549847554,-0.0031912973123701628,0.013310826498493926,0.009539613717261721,-0.01619340515868751,0.0038924032473910105,0.004386734385513021,-0.082494906298149,0.05300510684643992,-0.09377808880929893,-0.13675269693518055,-0.09785464348774485
0.24,-0.02487415443781118,-0.020336377410799394,0.0047012158581617326,0.022426488112656476,-0.016364002784936528,-0.009245159719566229,-0.008446528897786618,-0.09984887868896358,0.04416468133611948,-0.1023100879088748,-0.13935334465337346,-0.09954014051616884
0.242,-0.029934893867405936,-0.03586642136075207,-0.005971794552531641,0.03320131467725874,-0.01339275877189476,-0.022260285485803808,-0.019064260889666555,-0.11426130159303673,0.03602242663711957,-0.1088072072738882,-0.14041773775965313,-0.09960291983263815
0.244,-0.03292268623152125,-0.04634806710160605,-0.013530840291357548,0.04061600312119782,-0.010598436192746821,-0.030875447204884242,-0.027640600748394435,-0.12544873945328977,0.02692145310096856,-0.11457423969625156,-0.14414955647197536,-0.10053945413780148
0.246,-0.03679656280244046,-0.05087924245324611,-0.014111501573761667,0.04528908387131205,-0.011706162727879551,-0.03309259465575185,-0.03623173754771481,-0.13490373780895382,0.01490240598959561,-0.12274531861931107,-0.1521013049883067,-0.10431142944202168
0.248,-0.042314302090097,-0.050810999126964476,-0.008453452188554072,0.04804904807172966,-0.01701503496474897,-0.030208344610098865,-0.04552394353242738,-0.14363489754588143,0.002217874818869906,-0.13340940405022247,-0.16076048357005232,-0.11017824037106029
0.25,-0.04817758564987145,-0.049066858444260376,-0.0008530221462855548,0.049894595528752465,-0.023601098594415868,-0.02572310682493556,-0.05251827279726352,-0.15033377630328612,-0.006091220579445732,-0.14304648833878356,-0.16595117611178825,-0.11548967469066024
0.252,-0.053291344745428425,-0.04817516348927869,0.005131859775523504,0.051883032927059765,-0.028916553136611206,-0.022512553285648433,-0.052407417078877944,-0.15220989225258014,-0.006965585923149066,-0.1480369261983386,-0.16705748655810324,-0.11811887049761946
0.254,-0.05775557988118992,-0.04858307521913026,0.009303012200526952,0.05443054308212184,-0.03303731678141154,-0.020917507657000494,-0.04448871041917852,-0.14908355034384052,-0.002524905638284473,-0.14805250949399926,-0.16625441524017892,-0.11805305762785309
0.256,-0.06227049218788284,-0.049545295115991775,0.013176489014307733,0.05741572339193721,-0.037376448184512405,-0.019746843643154523,-0.0340845970882272,-0.14482505406334995,0.0018635008765759185,-0.14603531119723173,-0.1656278823946732,-0.11719928021786849
0.258,-0.06770688692881065,-0.05159022617524834,0.01687554265575305,0.061322531100300184,-0.04253056540632309,-0.018823893501085705,-0.02611208691310625,-0.14254547717586977,0.003622314085043815,-0.1450094471758906,-0.16574055997959028,-0.11801055314477854
0.26,-0.07504483299695398,-0.05663490513161239,0.019074425558893295,0.06743680789338546,-0.048056864695634534,-0.019534485734156923,-0.019935364668951516,-0.1411309343781974,0.004994926610117691,-0.14552289656586134,-0.16608694448215486,-0.12157746013391349
0.262,-0.08460518118233976,-0.06475718775340593,0.019945671242945866,0.07603417200136502,-0.05371010762846105,-0.022248395488633183,-0.012987730678361417,-0.13870591808534533,0.008020537514623496,-0.1463029679685802,-0.16617818324362432,-0.12620299557661918
0.264,-0.0953292368233398,-0.07281344961084467,0.02201195603478535,0.08524216323654682,-0.05995161669845169,-0.024775877691049775,-0.005537065189522541,-0.13668105747597642,0.010564933687333904,-0.1466190316112436,-0.166034892899227,-0.12901100815469277
0.266,-0.10566845007795225,-0.07762377591129165,0.027411172857864343,0.09268694822834789,-0.0672532833927283,-0.02463625142836651,0.0005828561096749988,-0.1385932420956728,0.008535166727194878,-0.14777685510829316,-0.16591909779023634,-0.12986791362366013
0.268,-0.1149334314953617,-0.07887344063371002,0.035789161609472896,0.09758068618713425,-0.07548231190513197,-0.021570360959962166,0.004077332162922682,-0.1453955991706562,0.0007055936125432009,-0.15213358642295033,-0.16616195576745346,-0.13135196155729584
0.27,-0.12253201793394165,-0.07856432487985104,0.04409780121912828,0.10056568343388782,-0.08312989240221255,-0.017700849929824406,0.003078317115993198,-0.15027770693426526,-0.00897754947760669,-0.1595085468117033,-0.16732999956970082,-0.13368759335169655
0.272,-0.12651739457525274,-0.07972071363983965,0.04700097729896351,0.1025555632347835,-0.08659747429138073,-0.01689859074799176,-0.004170331510437539,-0.13676304067560507,-0.015415149525056245,-0.1651474278079197,-0.1693135947383273,-0.1337371477538427
0.274,-0.12581483486546835,-0.08547821449749142,0.04037132385358562,0.10497011770899163,-0.08302997236670524,-0.02281665753528788,-0.015838789262892228,-0.08277844624617924,-0.018521649126681066,-0.16420197809815476,-0.17023567049488716,-0.13114357950127947
0.276,-0.12326371731909919,-0.09576654893436386,0.027405647840682553,0.10915412432124201,-0.07518853835984081,-0.034197087774479024,-0.026467332325067355,0.03014731216261924,-0.02073000819344187,-0.15776565798118267,-0.16831909503811557,-0.13016446350822763
0.278,-0.1220142724955385,-0.10353463523826292,0.018417081217029382,0.11275573627059995,-0.06987318968626963,-0.04260695676177789,-0.03132021930646711,0.20409709195362338,-0.019185717608895987,-0.15076858830919004,-0.16419738234811715,-0.13237926880568526
0.28,-0.12044472347260614,-0.09920302716283855,0.021261348510940786,0.10990365431630549,-0.0704848607786975,-0.03915888197980726,-0.029464941753194033,0.4160423675496295,-0.00897675774674946,-0.1460519075998157,-0.15973815449280176,-0.1334368594420305
0.282,-0.11661957130909646,-0.0827978002532066,0.03386513878315741,0.09977876839270845,-0.07509602475245039,-0.02471956794354406,-0.02292776088723845,0.6262771355164061,0.0054922158709288516,-0.14458405637122512,-0.15634368908821303,-0.1304774551534817
0.284,-0.11526898517192426,-0.06739885268953064,0.04788012123753785,0.09144928940620994,-0.08166116063000042,-0.010086827152609466,-0.014730211120556485,0.8016808427741602,0.013005437051511835,-0.1469392342230816,-0.1548756606538525,-0.12746687963882344
0.286,-0.12243260238877293,-0.06536405475436473,0.05704967205845034,0.09395065411986148,-0.08986315654798385,-0.004629809840570937,-0.007823808347848786,0.9330473172641276,0.010504351080372043,-0.15123973255263287,-0.1554486191641397,-0.12950843588100883
0.288,-0.1347544029434047,-0.07456068476358914,0.06017925824686198,0.10439534938040498,-0.09748325122538112,-0.007766011013229209,-0.004345732719703883,1.0319873780954452,0.004976536117614203,-0.15435637015318987,-0.1576775951497446,-0.1354098371896704
0.29,-0.1422181906170221,-0.08362329962623094,0.05859828487168349,0.11232002885848269,-0.10035117000638957,-0.013070621572987422,-0.0049637206104616045,1.113950886011544,0.0007421112856912915,-0.15557559565710696,-0.16126978108123324,-0.13970864162092103
0.292,-0.14088642635744822,-0.08675101721697462,0.054144920395003474,0.11313930554289878,-0.09747931903301889,-0.016792802736243565,-0.008006651620257836,1.1865025755225744,-0.004731566251046058,-0.15600256066037207,-0.1651788521920544,-0.14049406803579303
0.294,-0.13645211827959486,-0.08680710497774022,0.049669643573099574,0.11109929087954357,-0.09306342122785338,-0.019032233134332704,-0.009295940559804271,1.2525837363922265,-0.011723410793643179,-0.15620791536117842,-0.1676296400578337,-0.14107533475822356
0.296,-0.13661992403705542,-0.08778642681221524,0.04893896807117179,0.11186568604848703,-0.0927400041694309,-0.019911519140210197,-0.0046621630382273314,1.3176097301694085,-0.013234809121957705,-0.15594809782190092,-0.16870053073875396,-0.1441049905563643
0.298,-0.14579992080386422,-0.09110752537848514,0.05488516503162443,0.11830732884808265,-0.10018399094288,-0.018603182073214812,0.007221781705440409,1.3877356131520988,-0.00262262480769457,-0.154262202110269,-0.17069905047490957,-0.14871983438703174
0.3,-0.16535522413765827,-0.09616408214674559,0.06930880664304652,0.1307969686370629,-0.11711985225511058,-0.013809642286783233,0.026274821343158176,1.4644631886103123,0.018222706844333986,-0.14991589106580025,-0.17456956613211239,-0.15421000894138218
0.302,-0.19290050330770803,-0.09941652813798296,0.09345030305681729,0.14624778839115482,-0.1431048287269455,-0.003143495863035241,0.05487875188260889,1.5454577189244239,0.042468837955025575,-0.14355867061339675,-0.17914541868535197,-0.16192257388211884
0.304,-0.22178615587715483,-0.09700694785576307,0.124826110800654,0.15936830872313965,-0.17348509329614892,0.01391666349383961,0.09641132488534708,1.6297307246255297,0.06744896033789666,-0.13728719400835537,-0.18473405190783285,-0.1725390705851853
0.306,-0.24389135191356204,-0.0909546100498394,0.15323842397926246,0.1672912244466776,-0.19885485907219697,0.031140864025578644,0.14725170544567495,1.7205793071776956,0.09742258025598886,-0.12915627804923915,-0.1914796440525364,-0.18437125710148394
0.308,-0.2510720959614441,-0.08613887518525379,0.16527057940863152,0.1685099215133196,-0.20832118487363843,0.03948900668742592,0.19339123504460437,1.823957606668245,0.14033935610254272,-0.1102973430323231,-0.19167444009447066,-0.192961067574195
0.31,-0.23528528451691932,-0.07982146598718735,0.15556950245474943,0.15750129021048537,-0.19533434206326752,0.03780460865163006,0.22001964659209391,1.9451804482068689,0.20430906631116733,-0.06925889226401244,-0.1707559991956398,-0.1903780800727639
0.312,-0.19244425029269704,-0.06275982847206736,0.12965874056792304,0.127432476655822,-0.1608394055223943,0.033463874019582306,0.22520662982590148,2.090660213270051,0.2950659327424505,0.0015322848783164249,-0.12013499018343042,-0.16923369606312244
0.314,-0.12537474340748272,-0.03203970698788728,0.09341384278450703,0.07835985399404795,-0.10925973023886484,0.030794223788491788,0.22139391961281726,2.2736640367702075,0.41611143357101754,0.10273561567548498,-0.04313161508560035,-0.1294968258440478
0.316,-0.040236538726081836,0.005286032107803129,0.045610018380954916,0.017166456158118872,-0.0429369216558898,0.025630979656929828,0.22314419179958325,2.507911303127697,0.5694957313993674,0.22930898015907897,0.05358323632654246,-0.07723670156292416
0.318,0.05746752660908856,0.04218080882408116,-0.015514565750715609,-0.04986191402431783,0.036416469906054516,0.01352018650229119,0.23527576284030144,2.7812979247893765,0.7466102012570042,0.37061558325439925,0.16540688121940958,-0.016681832525989076
0.32,0.1632385803709416,0.07925756961208773,-0.08456333798027346,-0.12111146185178531,0.12387022421641075,-0.0026186883666834524,0.24969876103592814,3.0391349343312566,0.9172033595220157,0.5096570680795848,0.28518442269738464,0.05321377274161104
0.322,0.2772554845249073,0.12381438922717948,-0.1540315266115553,-0.20049004908563164,0.21567897675324849,-0.01536265876321514,0.24923932054537715,3.2122865786654735,1.0445440157421682,0.632161463506245,0.40569177429945324,0.13649636477408683
0.324,0.4109176753714278,0.1861820295852776,-0.22506657381775477,-0.29860089347585117,0.3180751049468646,-0.019958007306247662,0.2155833637683834,3.2644147578428804,1.1161042037328097,0.7395137059030831,0.5314527213763968,0.2379398874854273
0.326,0.5824682227268057,0.2744527844567329,-0.30818458759821904,-0.42833646309786894,0.4454247351225621,-0.017461239707049665,0.13456687650148838,3.196289668164179,1.1437470030276513,0.8435318714023272,0.6780822569756555,0.3624264947788712
0.328,0.7984985590874614,0.3897822846451315,-0.40883631525406,-0.5936925190421122,0.6036888251415031,-0.009996447390081025,-0.0035110764829075214,3.0097752809678364,1.1339860797324521,0.9477838262362488,0.8545570720161608,0.5139084038165299
0.33,1.0385123932115852,0.5285935673799699,-0.5098314616624389,-0.7829813730113838,0.7740262853919971,0.00915213537740895,-0.19859818580991292,2.6956094002446256,1.0775611740641307,1.0431565914013483,1.0502722142145478,0.6911107924160796
0.332,1.2592779363393964,0.6830096076495934,-0.5758811637495539,-0.9707980922552703,0.9173346840376223,0.053565427213313505,-0.4285025172838187,2.2676902970465727,0.9703370223904332,1.1175423859055353,1.2381458276283146,0.8802156541596632
0.334,1.4142328113905123,0.8280776440767053,-0.5856487303145967,-1.1212125936586625,0.9997737800389213,0.12136145775385894,-0.6456838599555583,1.7900723661202322,0.8230528441901009,1.1529594005444823,1.3809627477419928,1.049658930443294
0.336,1.468818523307423,0.9178189048303815,-0.550481427005126,-1.1936930047338223,1.009611508650769,0.1838681716357454,-0.7978640290289871,1.3395807796991888,0.6388871464446121,1.112052573350821,1.4331657889385536,1.1554476250199277
0.338,1.409666636767978,0.9151917724138979,-0.49390209786204914,-1.1628864745365661,0.9517650957714974,0.21078463108549325,-0.8622651518333554,0.9393549349985281,0.39865377365109606,0.9492163238941584,1.3529669473359864,1.1623346405987698
0.34,1.2589174534442311,0.8276553125342229,-0.4308294132991009,-1.043591139532078,0.8447981179710824,0.19841055691700527,-0.8597028673893699,0.5631756202856628,0.09082486909107422,0.656265713153779,1.134834426203182,1.0695145648914284
0.342,1.0725364277290341,0.7038032770015823,-0.368804050009914,-0.8882249825784977,0.7205718605449485,0.1674218423340374,-0.8301241653201297,0.20781431029797579,-0.24821618674226317,0.29704080317777426,0.8348861136656236,0.9163357705952236
0.344,0.8954224052418471,0.5937050517055457,-0.3022366882736578,-0.7444569705051431,0.5987789678375899,0.14569337825108353,-0.7977383306774726,-0.08862149941340086,-0.5492884802670948,-0.026782694377635325,0.543615892452619,0.7557147456790798
0.346,0.7181884704790479,0.5077846251172634,-0.21086879860774096,-0.6128439475375973,0.464569153574922,0.14840243915317428,-0.7627041620971248,-0.3083119711068379,-0.7765024712731055,-0.265634813075973,0.3092938731774244,0.6105730820234111
0.348,0.500838196039069,0.40952590471917805,-0.09144341050810274,-0.45501741348325414,0.29625497917035154,0.15884453930795397,-0.7138508986405258,-0.47765767899954936,-0.9578242498758238,-0.4647253133782445,0.0945314995160856,0.4544185797179914
0.35,0.2356019277968847,0.2578288070500142,0.022252887599555196,-0.24648352804948181,0.10684780546202498,0.13972935613321838,-0.6403814368408954,-0.6119874256920218,-1.1289720292418723,-0.6897383658863869,-0.16265789643996384,0.25017005434839795
0.352,-0.028741033731386752,0.06043474593836744,0.08920639161670936,-0.015571597332443921,-0.058718474132086404,0.07456677159856219,-0.5461698549054953,-0.6828784574850657,-1.2663083926902807,-0.9223903500463682,-0.4461913767550884,0.013696777469038093
0.354,-0.2209556280521992,-0.12548488340678868,0.09560239457960708,0.17342435564954167,-0.15799268635953687,-0.015013112966518654,-0.46281257534077874,-0.6632296754186843,-1.3088584727767771,-1.0682620295632497,-0.6569410485649327,-0.18202679000686434
0.356,-0.30396319703509467,-0.24375177000183507,0.06050623777867088,0.27387437473395193,-0.18201480626807473,-0.09155649431167458,-0.42909013574964333,-0.5726444487444661,-1.2355965623620078,-1.0655562370751464,-0.718696077182657,-0.27631702141469017
0.358,-0.3045496636900401,-0.2789395101804914,0.025911527577683953,0.2916010187301031,-0.16504756581084276,-0.12643337833994076,-0.4446156444799686,-0.4568387820856159,-1.089071898856528,-0.949905574735008,-0.6557934684526773,-0.2762402296176313
0.36,-0.28286267575347723,-0.256418008210749,0.026502271590354454,0.2695223291430123,-0.15447851070846902,-0.11489119032355076,-0.46299746516834717,-0.34454534043043455,-0.9317803326979744,-0.8099891272294736,-0.5558488399139105,-0.23744240258676907
0.362,-0.2717732343608373,-0.21926630167863279,0.05226011251668497,0.2455302386729899,-0.16194890685270455,-0.08338643658216564,-0.44240793134465484,-0.2406153490917245,-0.8026564437437326,-0.7073204676688211,-0.4849784231214114,-0.2089236867310292
0.364,-0.2590049219235365,-0.19838054947668224,0.060322466555959804,0.22869711323340258,-0.15995448407385085,-0.068901211824562,-0.38476939102732877,-0.13952691181073235,-0.703851544719153,-0.6428537893107932,-0.4500735435244981,-0.2024235918836503
0.366,-0.22656797955526914,-0.1941441694193707,0.03233683508154335,0.2102220174626808,-0.1300072666716539,-0.08092862308404132,-0.3163409691504333,-0.028666602222554526,-0.6100817353450874,-0.581941518111279,-0.42081849381522873,-0.2015355416245562
0.368,-0.1853190334977414,-0.18856595967031492,-0.003136983585043759,0.18676684178827785,-0.0915245030438966,-0.0960607090322577,-0.24998505065168028,0.10475763458231394,-0.49584914360408777,-0.4993492148404051,-0.37175184679923473,-0.19021400801689825
0.37,-0.16060369504139815,-0.1718348455910108,-0.01112667776428012,0.1661759426480102,-0.07481964921506366,-0.0916803036284944,-0.18138053571033316,0.25435456392950656,-0.3615675570816575,-0.4008531572566114,-0.306372773307016,-0.170272508946287
0.372,-0.15873330149821038,-0.14963951818513357,0.00908683304350379,0.1543284356663998,-0.08382594840101061,-0.07030269833090079,-0.11046628819371104,0.3889876565882652,-0.23194569171990884,-0.3105017552507945,-0.2478602956701433,-0.1535019469587111
0.374,-0.1634603964343198,-0.13055987386672688,0.032862618160140786,0.14730390477386163,-0.09828419324135002,-0.04874592948056176,-0.05070229812116912,0.4740475952321425,-0.13202797856984352,-0.24596300885437575,-0.21228373368861958,-0.14494042381299913
0.376,-0.15991562930563266,-0.11651351622488547,0.04350839399115916,0.13857542261166036,-0.10223332239128735,-0.036418849267695515,-0.017192404100880274,0.4983420796153306,-0.06941651257471868,-0.2063115155300305,-0.19545013699542232,-0.13957927078025573
0.378,-0.14822379679311884,-0.10493200374072359,0.043639763166050095,0.12680380625876747,-0.09683781621522412,-0.030752735543555648,-0.012465979920148937,0.481423910546803,-0.036074474021001,-0.17990759464247857,-0.18392790372612774,-0.13166237554651355
0.38,-0.13576839717113448,-0.09466927277829996,0.041545187474383405,0.11507753802777408,-0.08987837653292864,-0.027026380129033672,-0.025033095684338806,0.456025764992924,-0.020651862863328645,-0.1604014729908336,-0.17179827796810812,-0.1218198790158767
0.382,-0.1270420699947594,-0.08712404906220456,0.04017356342773214,0.10657989189820594,-0.08500451243055451,-0.024312920914747613,-0.03932656464064788,0.4429995666428444,-0.016054752198361236,-0.1504042926787936,-0.16314255304392242,-0.11503480193496612
0.384,-0.12189623928356866,-0.08262866122890107,0.03922911091631633,0.101801166767689,-0.08187642527543401,-0.02278049489676608,-0.046566182089742295,0.44181467469303287,-0.017325171498951318,-0.1510767671913159,-0.16193132274049,-0.11416851290955085
0.386,-0.11806381154276474,-0.07876218215315353,0.03914972165837186,0.09864709816029223,-0.07952152657642218,-0.02109950843514264,-0.04717464930157864,0.44097923624576973,-0.018143791667406074,-0.15620795259082254,-0.16535273248968424,-0.11737834564136068
0.388,-0.11366997347098899,-0.07347639085585135,0.040134429089936495,0.0948996539801161,-0.07721241961018202,-0.018263029112018686,-0.04479602127325385,0.43342509894780634,-0.013326834435025093,-0.15861744854189874,-0.16777788856294676,-0.1215233781255298
0.39,-0.1084260564761032,-0.06816772373123926,0.040287798026056844,0.09039289977817506,-0.07418170731655709,-0.015785522909941688,-0.04101548822969641,0.422014681940495,-0.0035653939682176953,-0.15714601669627007,-0.16719313311590941,-0.12564253817613671
0.392,-0.10354729818188842,-0.06579874451700111,0.03767395898031883,0.08675631578466894,-0.07030413869317614,-0.015948038078625902,-0.035600057410807406,0.4131832005571239,0.006043311074695635,-0.1549254044502516,-0.16539486122998145,-0.1299961764628613
0.394,-0.10153011573037383,-0.0667519539026058,0.03445016987035739,0.08575275225139907,-0.06778205438656734,-0.01792369246746958,-0.02788486088990819,0.408607691729422,0.013317800060319353,-0.15324399116974152,-0.16363845641978036,-0.13326454023628717
0.396,-0.10490692011588423,-0.06849120435807662,0.03596203360379455,0.08804222205175213,-0.07032633994137746,-0.01795428763109542,-0.017127259057647122,0.40517257541459534,0.021594886043938444,-0.14957060177485917,-0.16100813356167817,-0.13297320216540529
0.398,-0.11312533215982884,-0.06889197399908942,0.04396328843299722,0.09252313682024421,-0.07849011586290212,-0.014172731228245384,-0.004005085224798255,0.40116281303743895,0.03368483025416608,-0.1414364178153351,-0.15733046694371053,-0.12923831476575467
0.4,-0.12171933664171755,-0.06796746724867575,0.05378754358605111,0.09664902387143842,-0.0877570507141842,-0.0088305488072969,0.00843880839784972,0.39801908893048227,0.047265400679585824,-0.13010739400981805,-0.15446664801086138,-0.1254604590308258
0.402,-0.12604908605674223,-0.06621828061304287,0.060011240542822926,0.0979639682254423,-0.0931192475268794,-0.004739797443269604,0.016524255903956956,0.39538532417057415,0.05825941037998881,-0.11935596101463854,-0.15306872223185175,-0.1236320357973156
0.404,-0.12472317020343957,-0.0633927619966942,0.061547487397606904,0.09561006360652571,-0.09331802639455068,-0.002275418202808602,0.018088625368882887,0.38914794415591275,0.0651844142259193,-0.11179820977652134,-0.15113799964959962,-0.12194174572391518
0.406,-0.11945102063296242,-0.059955435294510626,0.05992349116643438,0.09093791752437262,-0.08989641737760158,-0.001090727312452829,0.013690494045093898,0.3770805696941257,0.0685884362840875,-0.10716086346929257,-0.1476757586201148,-0.11881521052497786
0.408,-0.11328598669341669,-0.05796182967692282,0.05614557619098497,0.08675197541074083,-0.08483220913485104,-0.0019523194628523538,0.006759951730167288,0.36278465584910424,0.06960848283800213,-0.10345521245409203,-0.14469665040311644,-0.11595513299978198
0.41,-0.10925495123615354,-0.05922711986375174,0.05103318505685656,0.0855100899434185,-0.08012678947239081,-0.0053719870602573,0.0018660256037100894,0.35140881213230607,0.0708575313242252,-0.09917665370360568,-0.14374226908112,-0.11547005240330933
0.412,-0.10944611696273752,-0.06335623938039583,0.04677479855836243,0.08793125250116399,-0.07804155456003882,-0.009866533519395548,0.002011143012955674,0.34463846358031996,0.07571319778136769,-0.09420606503469177,-0.14302854362860706,-0.116736722123863
0.414,-0.1139432972613322,-0.06774716748277684,0.046295812517795416,0.09259585075763863,-0.08009227887837929,-0.01249868261546853,0.0069429126020120625,0.34150276378022476,0.08442103359763116,-0.08907312476541322,-0.13983409234988736,-0.11768070853113503
0.416,-0.12010899553012104,-0.06960185795829107,0.05026221987876643,0.09663190740103635,-0.08526341996407547,-0.011488491405068628,0.013869775583980018,0.3405287414247259,0.09306784763675267,-0.08418406439039673,-0.13390437936038158,-0.11725320785982614
0.418,-0.12335414223624445,-0.06814663937082735,0.055053159732221295,0.09720215446772999,-0.08955774029655814,-0.008308583612405137,0.020253654047412722,0.33915787723443175,0.09792785741642118,-0.08002677241252375,-0.12704219059123584,-0.11532679414960806
0.42,-0.1200241047520851,-0.06451282183496476,0.05570305383599918,0.09304892646628607,-0.08873696124233786,-0.006056760109467934,0.025362032172290244,0.3342195372502492,0.09888964691652168,-0.07745773921251757,-0.12094061168288339,-0.11186945303140684
0.422,-0.11110105363129355,-0.059991706655430216,0.05167971291262547,0.08562997083955654,-0.0827502041653545,-0.005644274614063477,0.02894090380431086,0.325538567243214,0.0981900424324396,-0.0769424838791408,-0.11681524415605933,-0.10788908451003881
0.424,-0.10219986464552074,-0.05506583494689428,0.04791677937166584,0.07834926620269986,-0.07645434955825672,-0.004808371357366932,0.030341432432148492,0.31716897425817847,0.09777608741421757,-0.07759671962247584,-0.1154576921057872,-0.10535349130909155
0.426,-0.09867626071726406,-0.049554409381713065,0.049755248862576144,0.07381594279368794,-0.07512544698385709,-0.000677294187569904,0.02977560322841785,0.3136350536002584,0.0985267367901081,-0.07749945677832584,-0.11625680484259049,-0.10439827338971833
0.428,-0.10127082637632977,-0.043634523175309685,0.05782707143178154,0.07228603410746796,-0.07985811072538893,0.007021600885001589,0.02874093205512119,0.3159220817275824,0.10088280161726898,-0.07505101015623196,-0.1173733617438233,-0.10277658459533741
0.43,-0.10620023205027249,-0.03887516943341918,0.06715931364770991,0.07250015349454175,-0.08678174856359167,0.014726370069320736,0.028473277411734235,0.3208285677530627,0.10503469645938557,-0.07018411188405778,-0.117560685384612,-0.09955825435030646
0.432,-0.10895772625835494,-0.03733073213011541,0.07146396574494863,0.07317533964157798,-0.09053996683496558,0.017864075813321948,0.029102571274026347,0.3236709826431032,0.11056000742262531,-0.06447569820612814,-0.11685169271481723,-0.096847128589267
0.434,-0.10836557921456612,-0.03959143911698152,0.06891866652990504,0.0740114331669463,-0.08918636601652406,0.015209272838574206,0.03075918935471074,0.32199810430423964,0.11671028129847366,-0.060030132973675134,-0.11520096414255065,-0.0965635760277193
0.436,-0.10667313606720584,-0.04427417381736443,0.06297305635492947,0.07547644448629331,-0.08522963327942852,0.009511293553017762,0.03397785629312925,0.3169893430107649,0.12268927024783646,-0.05806389188616112,-0.11202820336611591,-0.09785050359068605
0.438,-0.10612881934987332,-0.048746250433748015,0.05833550842313715,0.07742253714572786,-0.0822878473887907,0.004730844844895549,0.037991187019722275,0.3120677752491108,0.12714296666832958,-0.05821528706084038,-0.10803342971241424,-0.0986867180914577
0.44,-0.10676088385996932,-0.05079061898815886,0.05710236198092284,0.07882194535556256,-0.0818312364675162,0.003075125061257684,0.04025578706501729,0.3098947345278219,0.12894349589251028,-0.059053702168385985,-0.10553324279383401,-0.09841296485441006
0.442,-0.10735675334591548,-0.050867943529976416,0.05758224466798346,0.07944448350127735,-0.08269087877947984,0.0033505625363781386,0.038767675485247524,0.30962258037761575,0.12938531867804803,-0.05940259682130632,-0.10569035561173258,-0.09782707884518829
0.444,-0.10729951147979366,-0.05191918529541387,0.05634133516789069,0.080500199164214,-0.0827221068041214,0.0022357591252621543,0.03411349688521718,0.3081325390893294,0.13138651684116442,-0.059156876286497,-0.10707066446663371,-0.09769320832850395
0.446,-0.1069484702748917,-0.05596761650004031,0.05177127656310649,0.08292047222599197,-0.0808150742210896,-0.002155534523424177,0.029247910959595457,0.3046059506697367,0.1353899418368797,-0.058859941542738284,-0.10772008774385396,-0.09794763917883116
0.448,-0.10681214991618286,-0.06174772192200204,0.04556574840167742,0.08602946986175863,-0.07771959427273026,-0.00834135282983492,0.02732713112892616,0.3018733443312111,0.13861314282499035,-0.05863056435256723,-0.10711194821247082,-0.09759370478468747
0.45,-0.10693845562449657,-0.06591753436743432,0.04116120264415741,0.08818728462254984,-0.07534108209269504,-0.012833878933380685,0.029443229834861494,0.3028351208626627,0.1394902981606846,-0.057472465174375625,-0.10538067485592323,-0.09395790386760243
0.452,-0.10707311105419513,-0.06584535283191799,0.04124221931051229,0.08811048162741954,-0.07528142170792264,-0.012806000146783143,0.03421355149274483,0.3072185490075582,0.14019040598173008,-0.05427729991094095,-0.10239171608714381,-0.08347694675577756
0.454,-0.10706849779743621,-0.06151193914979548,0.045901874850044135,0.08578046404554367,-0.0776523161798064,-0.008123859869966325,0.03879341951392909,0.31189507745587797,0.14348158649710177,-0.05000449432363241,-0.09886644915644038,-0.06599296330780034
0.456,-0.10688311901187457,-0.05536465764802965,0.05242243021941404,0.08242930045143182,-0.08087626568687598,-0.0015635707183445369,0.040733771832003364,0.313659640656605,0.14924959913542288,-0.047274036263118,-0.09650306013339291,-0.04644265424466205
0.458,-0.1061051531674207,-0.05035890957806952,0.05695448913312501,0.07940670470803957,-0.08249898941715499,0.0030849123179322807,0.03999112141129199,0.31161012155968565,0.1553377826863074,-0.04675881316411592,-0.09512439968062651,-0.029586993071465357
0.46,-0.10385833470959757,-0.04806066352568553,0.05681167437599185,0.07706944832068137,-0.08064743215878496,0.003580212155928628,0.03863276787489728,0.3072280558213037,0.1604114703896228,-0.045846352058532665,-0.09150797016831735,-0.015658365474597306
0.462,-0.09969976202103616,-0.048118662840847155,0.05206563743710892,0.07491827839942378,-0.07548166936981657,0.0005684786155257079,0.038311860170636765,0.303142915290629,0.1648626036871664,-0.04198094239814062,-0.0830499618832733,-0.002967722650693994
0.464,-0.09432901629558212,-0.04878540446621402,0.0455354054102449,0.0723884285385387,-0.06919917555581655,-0.0031880389000946705,0.03886745391789476,0.30155034393183866,0.16956583505945585,-0.03582625481645331,-0.07101731179783771,0.008603962251831312
0.466,-0.08890258761355492,-0.047888173951954494,0.040824035465859866,0.0691041416018715,-0.06424020480636893,-0.004866133332382573,0.03930701247095792,0.3028651562392331,0.17470214887572824,-0.030348046025295432,-0.05822920611056716,0.018263984052000828
0.468,-0.08393199842876965,-0.044382350093431784,0.03945814884286583,0.06498394554453345,-0.061396825447735136,-0.003588831835902962,0.039217706155334604,0.306133093628717,0.1798077792562863,-0.027791000456265195,-0.04549212685923064,0.025542682205676244
0.47,-0.07917048909484513,-0.03983304487935168,0.039387074635085145,0.06072524104227892,-0.059356608586116376,-0.001368251374633516,0.03893667737441659,0.3104948622836067,0.18450689981776092,-0.027989752622001905,-0.03265100260224381,0.029815045564664803
0.472,-0.07426277569234231,-0.03702815143404167,0.03730544907817927,0.05733561241715762,-0.05620687065876639,-0.0011276255969223388,0.03863179715974324,0.31554009716294057,0.18907734304446186,-0.028892709299672647,-0.020498456961283704,0.030622139771457186
0.474,-0.0691979842632685,-0.03613113113187973,0.03305208575160329,0.05458413632711412,-0.051729702645823064,-0.0028541085065364943,0.0374309804847751,0.32085048013752737,0.19429851063037074,-0.028153301711487423,-0.0086406495737721,0.028686624911362164
0.476,-0.06423803842411432,-0.034406816897433086,0.02964326257294625,0.05111945978831382,-0.04746616189851164,-0.0036537516838894835,0.03425703212527883,0.3260167060675236,0.2002251553537675,-0.024870171469351277,0.005648201929919271,0.02529838690244002
0.478,-0.05956947335944968,-0.030769948484796004,0.028320426986150823,0.046650399829094046,-0.04418976639055504,-0.0024610276509011582,0.030017555011488204,0.33094714235037775,0.20513330386752882,-0.02067869396758918,0.02341631698024132,0.021130893374443325
0.48,-0.055043828771931695,-0.027572985267979317,0.026730007929892538,0.04247342224357276,-0.04085872055204485,-0.0017243404463715027,0.027203583964780596,0.3357147236381366,0.20707623763503505,-0.018265206097565063,0.04166051991015424,0.016682642713985844
0.482,-0.05032187066843439,-0.02651097654413239,0.023170164764350284,0.03922565860497418,-0.03673009704898584,-0.003151896904202877,0.026256617692416682,0.33992550019208634,0.20684931925399014,-0.017937264891281512,0.0572038569214144,0.013627890307622768
0.484,-0.045278690993438085,-0.025708891314314194,0.019495560393159715,0.03575895799742684,-0.0327600027328265,-0.004745664756773089,0.024790718972902144,0.34257717085516254,0.20778505121573615,-0.016946572255294192,0.07042972156536835,0.014155334026333217
0.486,-0.040112251949677304,-0.022469757215821784,0.01828732766141722,0.030971232011170566,-0.030033180938870405,-0.0036858091524244107,0.02164229915737606,0.3430995454894262,0.21203005831926333,-0.012934126722420907,0.08376109327490887,0.017892179980691994
0.488,-0.03537782542939428,-0.016891828664817088,0.019571563131544432,0.025585820983165357,-0.0284151422095348,4.574822065571348e-05,0.018879557002251142,0.34238179580652695,0.21856347593126144,-0.006639086608417407,0.0982863622815506,0.021315141217514273
0.49,-0.032514509840883034,-0.011579887916423805,0.021958976956969214,0.021722605180961363,-0.027815433267365092,0.004435595960074306,0.018533200999879686,0.3423244592268702,0.22566357956738012,-0.0004601130486484668,0.11283475880992164,0.02176139901111014
0.492,-0.033253969018745076,-0.008870470808349872,0.024936848219608322,0.021001492648571842,-0.029128836421881077,0.008001281471617655,0.01981829841082105,0.34445719865044067,0.23331534255693318,0.00445190347333551,0.1255239456917687,0.02021837459686656
0.494,-0.03699512878258901,-0.008911626086161313,0.028109700072662693,0.022794732619197622,-0.032285730304817024,0.010191005286774808,0.020687911604713526,0.3489417229632175,0.24159786692955643,0.008782037224039991,0.13568514122936998,0.019176428087373375
0.496,-0.03998129874375627,-0.00990262203923945,0.029891842987508934,0.024469647124030817,-0.0348025797900656,0.010717815406619228,0.020628566613809015,0.3546379334163257,0.24895726919142203,0.013486163334730088,0.14440718980390388,0.01948644030753275
0.498,-0.03831715340019448,-0.009661675300360002,0.028667718385073107,0.023454599265337592,-0.03379869587523332,0.009707003421533522,0.021214393095570046,0.3601939892639725,0.2541131019350838,0.018586816497630852,0.15313655761595354,0.020199391318327826
0.5,-0.031260885248191504,-0.006961272707564389,0.024673164151554267,0.018920056420220484,-0.02879268593308921,0.00814858462658802,0.024013204867672285,0.36512649595200086,0.2579441051391091,0.023518985727845575,0.16151759798069815,0.020373966832677337
0.502,-0.021848249992176366,-0.002030778261810828,0.020324153605892577,0.012150473570178554,-0.02229278705910832,0.007707392513332714,0.028069880722629444,0.3698124707791936,0.2621073480624367,0.028093894220330783,0.1671461472271446,0.020069895783112517
0.504,-0.014124791803761014,0.003910707123194756,0.01830645382641962,0.0053889003788202185,-0.01749853552454131,0.009572586934109078,0.03057141760648382,0.3747004184964953,0.26714649838071053,0.032915029322903674,0.16825443028105186,0.020026988414141852
0.506,-0.009114724313842512,0.00991794722673834,0.01896901709034128,-0.0003380331451608286,-0.015006739870412553,0.013440522835335924,0.03029865868040613,0.37979383612602907,0.27299634452255733,0.03918707728516822,0.16579221897387472,0.0212597988689221
0.508,-0.0049014952393492996,0.015607508320556723,0.020336786278330292,-0.005468132019065502,-0.012972570294916625,0.017730336593109238,0.028856577524501922,0.3847777470840402,0.2802494832289116,0.047631105302046346,0.16187295128700585,0.02436201330347962
0.51,-0.0007598520756533717,0.01999343556151093,0.020698155449315532,-0.009708848423579294,-0.010563291595089952,0.020588004556942575,0.028248338627432132,0.3894423791400604,0.2895451831171403,0.056847459104768856,0.1574537712906214,0.028211888203540807
0.512,0.0018271609849903937,0.02200405189235952,0.020241274771809703,-0.011854710478101807,-0.009009168672541552,0.02136384072809427,0.028518168446220328,0.3941726125927111,0.30029883492762355,0.06403211872738591,0.1523070248750277,0.030449109831955572
0.514,0.0030365108783043694,0.02317613171296934,0.020222280647082713,-0.012774675995945853,-0.00893211497979388,0.021690766397705764,0.02789042819844989,0.4002028227123862,0.3112909080514474,0.06826582808782053,0.14581375622646708,0.030162792915992304
0.516,0.00638537583251054,0.02723243060596743,0.020972626172354698,-0.016014990505170582,-0.008430213567120563,0.023902685968204482,0.024956798406958414,0.40852591829072465,0.3217403710081896,0.07153404745473153,0.13764359365260956,0.028858416966944318
0.518,0.014688539945895638,0.035267834416600786,0.020870985205704868,-0.023663697513311495,-0.004693334526710344,0.02776873408322368,0.020858599282529137,0.4179018747427221,0.33078775344958766,0.07596613563883271,0.12889051548912284,0.028323352160720745
0.52,0.026197364619181075,0.04390175460883235,0.018113066837817784,-0.033474750228031064,0.0026623012542167654,0.030593205832743876,0.018608249529946105,0.425388942904219,0.3375748451540808,0.08190878028014748,0.1220675057656615,0.028860147599504386
0.522,0.036124733206549374,0.049751028741400104,0.013894662163910266,-0.041474280033568324,0.010313123504994467,0.031293911928992585,0.02011117208312805,0.42974433080795993,0.343324386595748,0.08947682987662803,0.11942342549992477,0.03012139967717479
0.524,0.04094853077415837,0.05326154739061855,0.01230106364403986,-0.04589561556726989,0.013832402767253633,0.03224036496209148,0.024493783956360406,0.4328006275587883,0.35163895504752907,0.09978339942993902,0.12135480283421898,0.032531603666799754
0.526,0.04088943488680063,0.05691309303767165,0.01587741581637285,-0.0478518928194805,0.011842642371633908,0.03602909996170423,0.028876118979027813,0.4369153813445372,0.36493982023802063,0.11274574177809202,0.12561343341780526,0.03678250212846664
0.528,0.03933170630157437,0.06188361065941288,0.022480989070300352,-0.049622259673756754,0.007428509353706415,0.04213176518092482,0.030917481167074365,0.44265722308357064,0.38160938616968637,0.1255826636020154,0.1285543058290084,0.04244607939481252
0.53,0.04049932835499648,0.06775819974772719,0.027323506752805152,-0.053133440549054674,0.0056089316483511975,0.047626957518664095,0.031456423796037324,0.44967402450172234,0.3978012708647944,0.13535349753735407,0.1284874286622411,0.04819418839979765
0.532,0.046646753971600084,0.07363191824903155,0.027175459841995552,-0.058953191336182216,0.009322678406060015,0.05011038800304437,0.033416324534367096,0.4578898399660113,0.4107964995359337,0.14158314089119328,0.1269584351729605,0.05321951513060411
0.534,0.055962357860868256,0.07808270076252793,0.022453020669666087,-0.06551423836135638,0.017039056479339513,0.0492628782410391,0.03736747742959243,0.4664320991209162,0.41977708325574103,0.14578995069971165,0.12620158128705405,0.05771670687299216
0.536,0.06405643310030813,0.08004209914293967,0.01637874715112527,-0.07045509350301765,0.024301182569971654,0.04672881400107735,0.04026024374827599,0.47346470715690553,0.4253278635704988,0.14998235572450755,0.12674975147692644,0.062184050088195206
0.538,0.06869782976794016,0.08128521137490989,0.012825952494968254,-0.07386170187615886,0.02783319226005127,0.04558434188270735,0.0391054494593733,0.4785929627107164,0.4296285775909317,0.15597935049942402,0.1281349498851974,0.06686356988229039
0.54,0.07171827123773317,0.0856619269474955,0.013947909366544364,-0.07839300636610884,0.027886079035362686,0.048576809996415615,0.03427127501396841,0.4831905438875348,0.4357141541071536,0.1645308031267039,0.1305979553741416,0.07176816964761328
0.542,0.0758236494519113,0.09402864494371657,0.01822552347389217,-0.08528304543930217,0.027234309192317365,0.055052043498074535,0.029139163775337675,0.487438701949679,0.4450456671677639,0.17402124334505378,0.13478475546695168,0.07681471312487528
0.544,0.08154575670424448,0.10260114961262394,0.02147473529922738,-0.09253687868384804,0.02850122020879281,0.06098077197432608,0.027189308265792834,0.4898690225878735,0.45645826280976864,0.18155022541566573,0.14048757728394617,0.08208066478610586
0.546,0.08787718490487069,0.10798512475150189,0.021051117910491985,-0.09791240194587246,0.03217812763889327,0.06352660674906767,0.029436793422545564,0.4907284311301487,0.46844979682594773,0.18657947258488486,0.14722111189149506,0.08827743798491547
0.548,0.09379501666511024,0.1111024102763633,0.018496688490084928,-0.1015228099828339,0.03654334713871145,0.06406306920190757,0.034285678347155034,0.49259040511570584,0.48112369015289047,0.192032564086358,0.1551464521715419,0.09619719553915701
0.55,0.09810072406406403,0.11485043356764446,0.017733250200056627,-0.10467542024363964,0.038923263587488266,0.06591085877954819,0.038831373143312045,0.4963005963782021,0.49445720201769283,0.2006889532676621,0.16375828900319966,0.10497969910705023
0.552,0.09973094572339973,0.12023944859507898,0.020966529168439132,-0.10791754416805702,0.03785081821400999,0.07043678356332835,0.040493140898505614,0.49913036770963765,0.5064886564282851,0.21168079683761612,0.1707967040254463,0.1121742174339144
0.554,0.09955903898523684,0.1261121473155131,0.026405960599548334,-0.11131238661333177,0.03489090774909569,0.07594001285093546,0.038427713131275056,0.4980790853683321,0.5147551846306909,0.2211987941043788,0.17369748174260055,0.11619023624822655
0.556,0.10041484161907321,0.13132310263434194,0.030246544039230796,-0.11533915123435776,0.033494490129495694,0.07994152034865405,0.033822874439831466,0.4933296498622548,0.5183522006684694,0.22595857375394562,0.17178461468990727,0.11747869835770715
0.558,0.10427611472975584,0.13592741261644123,0.030675123591258274,-0.12034422566139084,0.035468313214980965,0.08193911406481194,0.02929439749185123,0.48818157369313,0.5183617370176128,0.22593200298728466,0.16739040473231326,0.11738800077899111
0.56,0.11001000894377026,0.14039252116631684,0.029419895838890212,-0.12563205504862132,0.03920158917350522,0.08351929807549872,0.027090836761630665,0.4858486514750747,0.5170721852295199,0.22382346037915754,0.16437155690675462,0.11711402916658703
0.562,0.11400080822340065,0.14436210985743045,0.02977828196792978,-0.12948665949089153,0.041283804832161375,0.08631012640022911,0.026592196464918637,0.4859995922319399,0.5163985784892681,0.2216891748431674,0.1644746791269012,0.11772299767725267
0.564,0.11330505962541211,0.14672665902316231,0.03334769126236576,-0.13031768860153098,0.039597024897448804,0.09021374520021902,0.025011264691331643,0.48519219442484296,0.5166876223709884,0.2192328712894953,0.1660637737478286,0.12021196892451767
0.566,0.10899304334276776,0.14701120307102103,0.03822031874172477,-0.1284758859670003,0.03546899150487232,0.0934212298772416,0.02156474346210155,0.48101494553545426,0.5171696442235273,0.21615843636394494,0.16682970327659574,0.12484226639743258
0.568,0.10549223561844948,0.14627549217789826,0.04092518383708728,-0.12648053089338002,0.032468627159638205,0.0943633929702298,0.018503006088916096,0.474456549024344,0.5172463138897636,0.21414086046434858,0.1665821848707809,0.13073384520766507
0.57,0.10603299217930656,0.1464542404156384,0.04038963371568223,-0.1268087264060241,0.03258156112092489,0.0936032673957137,0.016967961331914454,0.46764857713432073,0.5170244716170648,0.21520125154426925,0.1672578706499248,0.13676003723342978
0.572,0.110186558917147,0.1489938013868156,0.038717630623699574,-0.1300698940583425,0.034779300355657086,0.09332198811411625,0.015081691740724094,0.4607588339633802,0.516877734021642,0.21924664692984297,0.17047908215911206,0.1422091430810139
0.574,0.11572365202375273,0.1538849271369967,0.03813529537650146,-0.13523698658545996,0.037322165304149925,0.09502124687268142,0.011706442323300415,0.45237842659644717,0.5169284847917529,0.2237091775302863,0.17502609384402118,0.14613199903161306
0.576,0.1209750041513831,0.15989551631021348,0.03895646746672956,-0.14077117708538522,0.03955388952572493,0.09836237628571774,0.00904854137771828,0.4419932320482421,0.5169228891598144,0.22566548201496583,0.17743448905437914,0.14751314265391827
0.578,0.1251143639938094,0.16595683271359157,0.04087368760817962,-0.14557444538964848,0.04117623958522859,0.10250914624526952,0.010001596635681915,0.4306148908094812,0.5162005344152923,0.22431857472818387,0.17501030034239626,0.14675296726851353
0.58,0.12751778024052232,0.17163434871755862,0.044111882247872596,-0.14918802644311366,0.041450532456985954,0.10720177786881539,0.014611368391456143,0.419728447235302,0.5138821788889426,0.22083688372615148,0.16773343636860366,0.14563667516160247
0.582,0.1279731562843807,0.1759850088946035,0.047992602888939515,-0.15131690013116236,0.040196706027418566,0.11151877451394977,0.019746384896962316,0.4107810633696338,0.5096590985375431,0.21639054037458333,0.15833935859073717,0.14543597090041027
0.584,0.1270494618544983,0.17756852046770924,0.050512427127203705,-0.15163301397942833,0.03844333079150169,0.11363710222816616,0.02171037430656774,0.4044259276155182,0.5042965820309243,0.21131185428206986,0.1505409108080145,0.14572480882402541
0.586,0.1251264508914477,0.17604056114777583,0.05092144643015392,-0.14991821729821764,0.03679050815406225,0.11301962877822706,0.018754169769026906,0.39890481819110785,0.49890928678099966,0.2053177649776728,0.14587042732839342,0.14488635466677863
0.588,0.12189262506050957,0.17235579624547018,0.05047029308790814,-0.14631138005881092,0.03472734989022925,0.11088305216257457,0.011461827450392622,0.39047753037128846,0.49395289848827784,0.19776793653342575,0.14272420784059092,0.14184233980800984
0.59,0.11800458988020668,0.16755306861957525,0.049547876773550874,-0.14183055001440678,0.03278182691072012,0.10803731676344305,0.00234917782061337,0.37699399242725484,0.48917681615857306,0.18840632083528533,0.1388308997519943,0.137806289410391
0.592,0.11581012763920712,0.16229122188619874,0.04647692019530223,-0.138170042370307,0.03318415660554987,0.10403647305443557,-0.0052186625945203026,0.3600761745562312,0.48414469406654687,0.1781512228783785,0.13361465073690373,0.1352288885544437
0.594,0.11726576931763955,0.15703744191539798,0.03979194702680761,-0.13643312623793832,0.03747485316626104,0.09840294291176284,-0.009339345719157077,0.3424590611716863,0.4783145519723383,0.16871252183760876,0.1279938331523679,0.1342457618102105
0.596,0.12186674420775684,0.15203344325627743,0.030299497315625454,-0.1362787304071898,0.044718974445882596,0.09149146491781272,-0.010528176547097631,0.3248451639279721,0.4709597042517172,0.16139827270909374,0.12281793570667339,0.13236268614977859
0.598,0.12672452709109117,0.14727806324432283,0.020882572067472793,-0.13620312577688276,0.0519759058381218,0.08441652384564957,-0.010337850717160174,0.3071179259297378,0.46177828129096193,0.15623015404129642,0.11806350903519934,0.1286892802669445
0.6,0.12867050030551241,0.1425659659997269,0.014318034170344138,-0.13464798892534058,0.056405214237797874,0.07837539871773473,-0.009736300850839336,0.2902519816597177,0.4513678451802291,0.15194090435581104,0.11307596702131371,0.125448451677184
0.602,0.12635127193178283,0.13741574156638395,0.011319110401254977,-0.13097784093415454,0.057125721948567076,0.07382309752555795,-0.0083184283231035,0.2746705806228981,0.44056125547858976,0.14679656317904474,0.10686042544830676,0.12386886702094918
0.604,0.12006436315184611,0.13175035001354402,0.011659903607974264,-0.12544376837586516,0.054362305227848545,0.07099818708028319,-0.005153944334376911,0.258630372560633,0.43003793320186934,0.1395687147142067,0.09878346330873432,0.12205359108624457
0.606,0.11079734183082915,0.1270051423094098,0.016062299231151204,-0.118912076489291,0.04786512344258319,0.0710225887823546,-0.0010248655607576112,0.24020137871393935,0.4209655950787549,0.13014859665691977,0.08993637646626743,0.11874429376340297
0.608,0.10014927228705921,0.12501085948647703,0.024798736202890664,-0.11258273593854493,0.03790101608428416,0.07471498807151748,0.001322551673705578,0.21993563891678197,0.4142167592401837,0.11955725752912667,0.08268670797703592,0.11575329031307159
0.61,0.08995100131702202,0.12511995758942804,0.03521509921536311,-0.10701037521544216,0.026840348646279804,0.08019907940027722,-0.0001913857578264271,0.2007975318154811,0.40797931479893507,0.1091371045943665,0.07796553928642622,0.11458909710243424
0.612,0.08176977946938545,0.12415285099104596,0.042439297031813955,-0.10189446600098456,0.018514197162565214,0.08337601420565395,-0.004903608597368628,0.18585185447884747,0.39859891512986867,0.09948895867890052,0.07427312539598482,0.11350503785310717
0.614,0.07699718827559078,0.11993471970238952,0.04293959336057062,-0.09731739892392785,0.015816877640248736,0.08146072022387765,-0.009782716812265096,0.17570558132430092,0.38537597520904227,0.09020250575971092,0.06983574830006765,0.10993225864231165
0.616,0.07586526991631805,0.1134423001055897,0.037525542600167314,-0.09385337160403237,0.018269999469480148,0.07544585251546732,-0.012116967100208684,0.16769601404968376,0.37162461723232454,0.08049480665744325,0.06421180516551864,0.10380270361365691
0.618,0.07573678869157696,0.1066859113518247,0.030802570267799364,-0.09085832624350014,0.021894485569135234,0.06866514405950187,-0.012607686727310592,0.15791150475432142,0.3591695438229901,0.06973736625651167,0.05696219420091153,0.09653141643082129
0.62,0.07226253540885551,0.09978423013731204,0.0272031040342648,-0.08595940319787754,0.022287179553502765,0.06340949803501754,-0.014390258070691385,0.14462316507470074,0.3454242580536993,0.05740244837548082,0.0467205838223985,0.08857822014866791
0.622,0.06348054833495516,0.09137006208807852,0.027479433560234495,-0.07736986531048702,0.018104287806668857,0.059468233945385536,-0.01827529437517452,0.12992823097770267,0.3282359196228755,0.04326618766994831,0.03363107857265595,0.08024502976479442
0.624,0.05209017295309171,0.08117281948587113,0.028850210325267345,-0.06638136697811792,0.011823528151208138,0.05532966479897947,-0.021537166722637065,0.11718014634925152,0.3097349701638017,0.02796614050840787,0.020715082302748263,0.07282833787307261
0.626,0.04358089115511816,0.07101216902367259,0.02758198920283255,-0.056835325370887854,0.00786135041241202,0.04979636158583475,-0.022396068297285812,0.10636840480165524,0.2925793337794182,0.012688342994113757,0.010500788411911825,0.06658523194353057
0.628,0.041986338750020294,0.06321563841869368,0.021698881300794587,-0.05192209426339959,0.009442196621096544,0.042774350319686086,-0.022909945945745015,0.09352984533305522,0.2760435674305203,-0.0019666046523000415,0.0021032651177205542,0.059754202221298035
0.63,0.046115890122495944,0.058397173478311616,0.012768794450238681,-0.05127638877178836,0.015621718137551184,0.03541663436637918,-0.026061044553758222,0.07557137607114424,0.2586695171882235,-0.01631861030922463,-0.006851099331237293,0.051589636557777145
0.632,0.050056152544990684,0.05484488278625184,0.005000931442399782,-0.05123797327974309,0.02150721827569466,0.029333979166160297,-0.031640310085824686,0.05420215692971391,0.24163358947038258,-0.030729365959545295,-0.01706512018409429,0.04390849936709588
0.634,0.04794657229663867,0.04998074957055526,0.0019744356055490736,-0.0479062390914789,0.02226890498854102,0.025311773268372542,-0.03594203733355942,0.03435944803867245,0.22720453679759528,-0.04471947834597894,-0.027464790851009873,0.03811580602803805
0.636,0.03811301585554397,0.042316364678864876,0.004185380105183812,-0.03971611609473664,0.01671250886097226,0.022844089305972117,-0.035478478588684394,0.019783435325076853,0.21597550970636945,-0.05711480940193217,-0.037207339188945504,0.03347386837963347
0.638,0.02384463975502706,0.03232396572916534,0.008772277392142622,-0.028091102678163535,0.007712727398534054,0.02052442419376452,-0.031107800478069308,0.010244998042720534,0.20666669110582422,-0.06727884383124584,-0.046613684539908516,0.029552115259721585
0.64,0.01047663217304265,0.02182159640853067,0.011829332093959205,-0.01619201278261808,-0.00044412455089241936,0.017048489466216562,-0.027562091062733763,0.002417846869644653,0.1975544459075719,-0.07618614834773159,-0.056376367613630705,0.027415941523756756
0.642,0.0007686961300913135,0.01260086318049018,0.012135923399272162,-0.006302594361277732,-0.00591886639506487,0.01256532089166004,-0.028607927513327178,-0.006648680186604369,0.18782596286840467,-0.08570071554407478,-0.06679857320871987,0.02703864547396617
0.644,-0.005904020851512098,0.005523942854372334,0.011392009080777593,0.001176561526093946,-0.009621239091860127,0.008474355030486177,-0.03369670875318959,-0.017159083553015025,0.17780213131775333,-0.09632602796191607,-0.07746884881852607,0.026037300471111264
0.646,-0.010224539893943979,0.0003506975044973756,0.010398368184773377,0.006349309112551152,-0.01179676573379092,0.005283113473811394,-0.03899702026355618,-0.027615019333155792,0.16798594143467638,-0.10612389273097957,-0.0869216411031856,0.022343672872731216
0.648,-0.011725210349859488,-0.004092069653093541,0.007560695112287956,0.009314664901014843,-0.01109614792789788,0.001679309192190083,-0.04132921326256833,-0.03711380408618405,0.15833590150157517,-0.11294786921648961,-0.09356499298689616,0.01643598619237369
0.65,-0.010865167685281184,-0.009208306494346185,0.0017155203494704176,0.010988196525216855,-0.007226327939997227,-0.003724611775763288,-0.04159174197469224,-0.045684536789928454,0.14860396924603347,-0.11764385678284703,-0.09759921790011701,0.010003601197841144
0.652,-0.009593160500803763,-0.015187887151236309,-0.005527293580065191,0.01267333412276952,-0.002282556485659136,-0.010317486682688422,-0.0432670770561401,-0.05307420408256293,0.13882341467563758,-0.12358046248368078,-0.10097895096065355,0.004171620966764825
0.654,-0.009352038305450085,-0.020170551141688274,-0.010817927853393514,0.014565557948173413,0.000936342707838606,-0.015486839991026081,-0.04722529828242953,-0.05869363715594734,0.12911248631073735,-0.13277655559157917,-0.10530738177365204,-4.590753815733248e-05
0.656,-0.010209913361505013,-0.022004649753440284,-0.011809165511969205,0.015910093709551414,0.001015354004256317,-0.016980020660688083,-0.05049276492783902,-0.06291773110976513,0.11957944058778291,-0.14391402758172187,-0.11049850660887968,-0.00181822632539977
0.658,-0.012556547694513392,-0.02097041644733843,-0.008278301650081558,0.01698756693894418,-0.0021992226606430275,-0.014965396928264691,-0.05072132907410957,-0.06734637240997933,0.11115527358640337,-0.15436282139286908,-0.11516057411895475,-0.002378393177932805
0.66,-0.017801595158079633,-0.019483223118732525,-0.0011895739517467456,0.01938671378149246,-0.008633101424756815,-0.011205924158638034,-0.04911052393166157,-0.07288200458624804,0.10585388752205507,-0.1623525935855483,-0.11779607617534674,-0.004451946045041237
0.662,-0.025855043534270417,-0.019247116454062324,0.0075262882388738815,0.02355251742325071,-0.017050080308002088,-0.0072364144623246925,-0.04814203618092412,-0.07794434663324029,0.10480397614938512,-0.1668855959552926,-0.11807346796010122,-0.008425112876863396
0.664,-0.03354981033857244,-0.020112887445028326,0.014574797299446919,0.027693183485709014,-0.02415378661152136,-0.0042353229424567556,-0.04852610885768825,-0.08016266822695069,0.10621098909861748,-0.16800947290415477,-0.11738220980059716,-0.011703934162416683
0.666,-0.037016699491818385,-0.02174420954491034,0.016244626666502362,0.029832953042782294,-0.02640029233002041,-0.0038225527934595657,-0.049236756460223845,-0.07999006404657534,0.10641338892967912,-0.16806959303381658,-0.11808639939397136,-0.013140573892976678
0.668,-0.03505525127636965,-0.02454547940813208,0.01101220162040379,0.029812350947582073,-0.022842763879266294,-0.007284294470766728,-0.04937040268629035,-0.08080524042017441,0.10335683068970722,-0.17020917772097466,-0.12151410939955445,-0.014867879839997178
0.67,-0.030347334738672436,-0.02803553703507398,0.002334856391334631,0.02898164571203802,-0.016595753213889286,-0.013079094120022545,-0.04904793048487089,-0.0849853598054058,0.09877406254185017,-0.17447308281170482,-0.12613148303529764,-0.01821320652527786
0.672,-0.027008706914775662,-0.03026501722160866,-0.0034634359974513008,0.028486839351784744,-0.012432522778210749,-0.017192538986283902,-0.048820998992361635,-0.09134495692295858,0.09593845733104846,-0.1774177186821199,-0.12901143754601513,-0.021357063849901988
0.674,-0.026040653898172908,-0.030171143194699292,-0.004389801837734339,0.028060599065101163,-0.011465706222754626,-0.017829491979073298,-0.048888399789655965,-0.09675169486861476,0.09512537906877072,-0.17612177496873654,-0.1299071322519167,-0.022948205437016325
0.676,-0.02480171847552466,-0.02896285011120325,-0.004601957014573278,0.026730942674562882,-0.010380673106313692,-0.017397592447859565,-0.04904436708908529,-0.09916342475467987,0.09346319866172009,-0.1711934755855223,-0.13158984997274137,-0.024545576461309372
0.678,-0.021760492585588015,-0.028368665818763024,-0.007437356935572938,0.024639852107232962,-0.007105014226612158,-0.018432791315734956,-0.04908208348813166,-0.09893417924763236,0.0898027198630762,-0.16609337622144196,-0.1352075769730627,-0.027406766205080476
0.68,-0.01892724284295335,-0.028517643746011328,-0.01071321014495768,0.023119050967416444,-0.0039657021864454795,-0.020056592703152697,-0.0487955966975152,-0.09767899247483457,0.08666715053945326,-0.1641002508879735,-0.1383084007671618,-0.029763141176341865
0.682,-0.018491146565881973,-0.027824513720660762,-0.010346452144228663,0.022636571637464763,-0.004032924103625206,-0.01946981301695511,-0.047429813319458176,-0.09597088012251129,0.08633920529654604,-0.16581504319711182,-0.13864299446670578,-0.02898443108195782
0.684,-0.019772431839809805,-0.02492560144571368,-0.005683252206196582,0.022099721115388576,-0.007097511928416716,-0.015571486027940819,-0.04416709861029688,-0.0930204658398548,0.08783101091134288,-0.1697636397384981,-0.13717370676173818,-0.02489361968683944
0.686,-0.020689081592040005,-0.020879669147901875,-0.00020453161685608442,0.020792931654202207,-0.010287664416571512,-0.010615263919500195,-0.03997524660942915,-0.08915052890360223,0.0887970370099993,-0.17455593292113128,-0.13621495314608628,-0.02025695250591767
0.688,-0.020654168886946395,-0.018635338483654684,0.002223436169944375,0.019745890727584026,-0.011442798182576612,-0.008145319183669215,-0.03721051675707888,-0.08637127296484699,0.08825732508311633,-0.17944044693377176,-0.13630705895473338,-0.017934905714778907
0.69,-0.021225971462023454,-0.020112612884554258,0.0012237119710649701,0.020715444340400343,-0.011273632667480282,-0.009444702385579843,-0.03614024133395007,-0.0851209908088253,0.08626529540655312,-0.18353155852110412,-0.13566457617165312,-0.017400505671085448
0.692,-0.02400475762360381,-0.02447968908106247,-0.0005233249197985192,0.02421435322950277,-0.01197162654345258,-0.012739227396913603,-0.034311903063406285,-0.08321523523571303,0.08283783618155081,-0.18577353409562183,-0.1325445420375925,-0.015595881986655843
0.694,-0.02805952678257638,-0.028868600219561388,-0.0008895940521782193,0.028426972975432337,-0.014047282211717312,-0.015369748095005612,-0.030719781384785132,-0.07968425180753552,0.07890754335839671,-0.1859458828220249,-0.1280276280950402,-0.011716418598587647
0.696,-0.03046138435654823,-0.03050472890705474,-3.388204783071775e-05,0.03052421572685557,-0.015803392787404606,-0.015912857259695594,-0.027929929489914622,-0.07685602954688868,0.07657701805075924,-0.18491428236430948,-0.12524919570034757,-0.008773165668157668
0.698,-0.029450113843970904,-0.028550633261300938,0.0010682574171081917,0.029281686339754472,-0.01581384743872396,-0.014548069854713255,-0.02893823300331591,-0.07731812985473963,0.07677995074353346,-0.18320913084912682,-0.12555794619195423,-0.00986472528805017
0.7,-0.025733291160909607,-0.02428416775069639,0.0018011175421368333,0.025728760570912883,-0.014178219042208466,-0.012351843440312748,-0.033645947649984805,-0.08111643089915459,0.07808956383143681,-0.1804225013107284,-0.12716239941279084,-0.014696247054274778
0.702,-0.020931611198546248,-0.020202169925815514,0.0011433647748654518,0.021735148091692916,-0.011256851036303648,-0.01092297583608481,-0.03879744703019825,-0.08653947735559679,0.07868022027081457,-0.17697028766652478,-0.12783614058619985,-0.019861599431835852
0.704,-0.016246131469584226,-0.018657721222033293,-0.0021955220422533255,0.018817297988393173,-0.0070609588423916105,-0.011841777488658793,-0.041044961080457264,-0.09170867612244685,0.07806065254918026,-0.1749504868502365,-0.1273147717487686,-0.022048176423493424
0.706,-0.012924710137955132,-0.020488290532950704,-0.0077461407147997735,0.017962305346401482,-0.0025255401960657432,-0.015334710934571852,-0.04013745138471616,-0.0946602315798416,0.0762351543498176,-0.17621338757108734,-0.12669920570931867,-0.021103983963317655
0.708,-0.0127616064531974,-0.024645782956619025,-0.012480875439508286,0.019698933593052352,-9.911430932426775e-05,-0.019642592300641016,-0.03853286409160481,-0.09377386119525283,0.07293075654627303,-0.18035608412652518,-0.1266858324023082,-0.01951512280803938
0.71,-0.016601367069501667,-0.02874313961723524,-0.012949290696985976,0.02349387346356761,-0.0019073081925859053,-0.022071732901977083,-0.03818430818460364,-0.089927443711637,0.06896836527497882,-0.18475468923819083,-0.12701386577422838,-0.019194096865585396
0.712,-0.02268898654894586,-0.030551841936818338,-0.00849641291249147,0.02746552040882402,-0.007365932860223006,-0.021062492799745855,-0.038641656669392954,-0.08653048902945175,0.06677475510451211,-0.18651778468558697,-0.12695843079192232,-0.019656013834705565
0.714,-0.02783410865494952,-0.029926635955760117,-0.0022698349942519708,0.02971075908664168,-0.01324544621395716,-0.01765056849776657,-0.03784100791834415,-0.08543929219615208,0.0682689676762526,-0.18461902117400142,-0.125544762566035,-0.018842523817146423
0.716,-0.030085011773487092,-0.02869069761165428,0.0015669435094854273,0.029867273640205666,-0.016395224427958207,-0.014585798115735163,-0.03444624138952078,-0.08456274940342044,0.0728873330770394,-0.18030970294958493,-0.12213315387184612,-0.015439130476622029
0.718,-0.029851870757214235,-0.028371906862830018,0.001660997714444604,0.029076837586436432,-0.01631184845670783,-0.013728774934403448,-0.029884414540610343,-0.0810147434591292,0.07773248905417521,-0.17617704562057357,-0.11789631375842703,-0.010880190730062717
0.72,-0.028894186335913653,-0.028667491336557424,0.00025172604391746154,0.028504584809321536,-0.015066836283505256,-0.014361190971207222,-0.027234439016576864,-0.0747967278808492,0.08010184722321105,-0.17421493313086547,-0.11541073725546748,-0.008016905875067627
0.722,-0.028543867554281625,-0.0278942691594009,0.0007088707760548746,0.02801762057508696,-0.015094611990218101,-0.01390577775493833,-0.027629051298141374,-0.06803013172358954,0.0806278865576178,-0.17357776126292482,-0.11570671070174726,-0.007099692368345524
0.724,-0.02884898750151822,-0.02487715596952418,0.004405647925173608,0.026700609736050252,-0.01711528507783998,-0.010618352482176524,-0.02920441507789514,-0.06240286233249762,0.0824081632259214,-0.171527753961854,-0.11714531151471998,-0.005398179972632384
0.726,-0.029172049866754687,-0.020818472229504822,0.009285226554091253,0.02464871167310674,-0.01973996429301672,-0.005933799168747133,-0.029817405637922234,-0.05879722835322293,0.08627282371261094,-0.16758716632819734,-0.11774680560004785,-0.0017831087609173732
0.728,-0.029381112651913267,-0.018632547553141973,0.011924415909551981,0.023446969442975245,-0.021142737387375182,-0.003276257758863852,-0.029282894050102252,-0.057752332852977144,0.08932875818634207,-0.1646389133771247,-0.11750082448087218,0.0010869076511146353
0.73,-0.03051551544019359,-0.020144675788638912,0.0113538803964763,0.024787236443840083,-0.02128096297538701,-0.004336488950720666,-0.02869420332411381,-0.059093180800788216,0.088793490415936,-0.16526695280793716,-0.11826458448955363,0.00010436788972464464
0.732,-0.033710590692731766,-0.024496526661169932,0.009701002881581294,0.028820268064801445,-0.021718404423025268,-0.007616592833813277,-0.0287008394018648,-0.062123969260146725,0.08483604775636214,-0.16921033774628122,-0.12152645161428419,-0.004634788104146195
0.734,-0.03799630029917574,-0.0288591451984378,0.009146870688587185,0.03343182156606228,-0.023165361493049447,-0.010370004002539993,-0.029023763853963165,-0.06637098330096482,0.07937692108487074,-0.17459033345149277,-0.1260449294010343,-0.009815365026079406
0.736,-0.04040386362256861,-0.03068848062774686,0.009532276342021272,0.035663719053191496,-0.02433344840527788,-0.011199156426625669,-0.02917436519185546,-0.07115957879617207,0.07405793160271348,-0.17956090604962524,-0.12874671635253324,-0.012059609685815372
0.738,-0.03883556475582047,-0.029928545390908192,0.00880923588366219,0.03443847452468429,-0.023345194134813906,-0.011112419257323636,-0.029070261265489145,-0.07448532304489135,0.0698461522405329,-0.1822852326882663,-0.12840050551017357,-0.011134670066787485
0.74,-0.03406512683583312,-0.028617054639651893,0.005490738135672997,0.031309170026134946,-0.01977130632670891,-0.012027577881252515,-0.028938417589853965,-0.07397915015711065,0.0674456305665533,-0.18133750800958942,-0.1268199862829505,-0.00952354149182251
0.742,-0.029187768396316562,-0.028335699560004757,0.0009229952047330302,0.02871710618937553,-0.015533085227794582,-0.014161970948050941,-0.02893225326561311,-0.07011798618075922,0.06703104218129469,-0.17769130064631994,-0.12617811984013846,-0.009181373032182888
0.744,-0.027434500686685924,-0.029107240390843753,-0.0016617193787911687,0.028321609891657176,-0.013552291191270034,-0.015937334152398536,-0.028803793296323255,-0.06661957779165123,0.06797252409050182,-0.1744632320671274,-0.12648225610755295,-0.009645342241116274
0.746,-0.03035091323349066,-0.030836816543908747,-0.0005188244733761382,0.03094428506673456,-0.015369697973973688,-0.016529116323839018,-0.027658268861928736,-0.06620197414669095,0.06988174740672322,-0.17292593345459797,-0.12576830318841653,-0.008844370130570291
0.748,-0.03750931466010486,-0.03401213655548384,0.0034755664878228496,0.03664687220877947,-0.02047087554029191,-0.016653695727935066,-0.024691191564175742,-0.06779936306521617,0.07309928670582196,-0.1710881867646185,-0.1224984901151927,-0.005445836063725267
0.75,-0.04657970213731741,-0.037965069372566565,0.00862225244162077,0.04365121262500677,-0.02712263931984517,-0.0165494059713268,-0.020858226634298725,-0.06885188122032583,0.07698707224547226,-0.16772800996336318,-0.11794903645339368,-0.000882386097148637
0.752,-0.05398104623294642,-0.04066338441813611,0.013333070644439058,0.04876981482882679,-0.03298427534631789,-0.015590822221623711,-0.018752799240042393,-0.06873679633600477,0.0793000023808321,-0.16505307650853487,-0.11545618636544974,0.0015469124765108277
0.754,-0.05683690022124784,-0.041832148238950116,0.015007948254399902,0.050325436501597355,-0.035323047968450004,-0.014750212085317715,-0.020180369380846476,-0.06931956697107629,0.07839556626378433,-0.16599179496281868,-0.11712746315708833,-0.00016235498593012655
0.756,-0.054745756164995274,-0.04374371234975728,0.01099516283890232,0.04952376488500874,-0.03240673234293101,-0.016672845393676704,-0.02444796313375873,-0.07242419471445576,0.07466268938512657,-0.17060443142755372,-0.12199356892416277,-0.005011925734200071
0.758,-0.05030024167117501,-0.047321840695672135,0.002973371135525711,0.04859182189687551,-0.026205549405349658,-0.021551589849867755,-0.028816480311458524,-0.07696622051356468,0.06953284037046166,-0.1757485228765303,-0.12686043221555177,-0.009850159041685857
0.76,-0.04713252464906879,-0.05005959867190024,-0.0029257211965687153,0.04834578074259059,-0.02163880782911564,-0.025605311540562413,-0.03049714939863288,-0.07998433634483211,0.06436952641522142,-0.17804428262401245,-0.12866618714184322,-0.011651262406128309
0.762,-0.045982147407196715,-0.049034051540046066,-0.003048513115362439,0.047488934678352086,-0.021089511223527438,-0.025542216502158682,-0.02857545533855354,-0.08098470450892606,0.06032929925456273,-0.17716382048884194,-0.1264944547380128,-0.009492932203138326
0.764,-0.04428664158288017,-0.04434652915414838,-5.900615976066207e-05,0.044436883944059,-0.022072672759859448,-0.022316487774169176,-0.02430015995507357,-0.08264144765056344,0.058263700849000954,-0.1755458231806764,-0.12176033068418786,-0.004767748218995212
0.766,-0.04078910753026765,-0.03921408454518114,0.0015735934276432128,0.04006960733216451,-0.021590862735154183,-0.019367453672269108,-0.020196262595835353,-0.08618976151127086,0.05814782481131806,-0.17517610641994302,-0.11722811233659362,-0.00023248623851355055
0.768,-0.03775469282255127,-0.03696465258320513,0.0007888764011268936,0.0373274818249753,-0.019945464623328253,-0.018744224638117646,-0.018448715683341138,-0.0894911163732225,0.05869330159337155,-0.17604752009484792,-0.11551016219260365,0.0014917965151711652
0.77,-0.0373886133546583,-0.03786084755461238,-0.0004720099674000117,0.03757256875018265,-0.019095139500398137,-0.019720689328931465,-0.019106699436427545,-0.09116776219834678,0.057839551027033004,-0.17775208733303188,-0.11754140257316184,-0.0005380800465919519
0.772,-0.03880719518142394,-0.03946107698418222,-0.0006531395629058849,0.03912677679890422,-0.019558033062474618,-0.020508250867914163,-0.020324920397154486,-0.09299675555058134,0.05441249801314336,-0.18058468389500773,-0.12216057144866366,-0.005160053340580263
0.774,-0.03975880184740974,-0.03981372605143592,-5.469203873295907e-05,0.03981116773328802,-0.02027114567799291,-0.020384029939218125,-0.020617361156272024,-0.09625978716935477,0.04987356239629287,-0.18404983816701317,-0.12671454973467414,-0.009716115438147661
0.776,-0.039252048213277095,-0.038921918457610644,0.00032983559281133843,0.03910287998700332,-0.020262260058877834,-0.019798295129205428,-0.020318859400633712,-0.09930896654938094,0.04746928843776568,-0.18605298293671263,-0.12850561806483404,-0.011506648674240597
0.778,-0.037283623541704336,-0.037096087989496665,0.0001872683458832812,0.03718385920976728,-0.01926538448067966,-0.018982350041290428,-0.021105067920557875,-0.10089982396753226,0.0491751066371729,-0.18477708871672516,-0.126497424913113,-0.009497062747719954
0.78,-0.033849465782315846,-0.033940030241207425,-9.053155972992314e-05,0.03388321081293653,-0.017409291095181655,-0.017527271657563213,-0.024129976108650624,-0.10254872115650449,0.05400895561947892,-0.1806376930630152,-0.12184936247751862,-0.004848627059904983
0.782,-0.029903096820858868,-0.030048675264262966,-0.00014541690823551015,0.029973648375204744,-0.015376769470394557,-0.015587549844447037,-0.028185296211012005,-0.10543467181672612,0.05884167902805902,-0.1762476381710028,-0.11726900608246775,-0.00026885244883310174
0.784,-0.027787944623156802,-0.027808052140368217,-2.0048313005909544e-05,0.027803225607571095,-0.014366707998216818,-0.014402995313647526,-0.030365360318015417,-0.10819160645784004,0.06075852372472623,-0.1743989715905552,-0.11526170994597829,0.0017379621033219972
0.786,-0.029310885828416323,-0.029241045727071417,6.978022700800759e-05,0.029279683625999163,-0.015183233758087038,-0.01508554012401411,-0.028852268370005,-0.10988660113423289,0.05915298569373873,-0.17585659127498998,-0.1159726539848138,0.001027105526512569
0.788,-0.0339001571179804,-0.0338558255955186,4.427061408341763e-05,0.03387691455570066,-0.017478230010406423,-0.017411764874739034,-0.024503155425190368,-0.11201547214362015,0.05529813963895034,-0.17948826857287045,-0.11735239552014605,-0.00035233142036570405
0.79,-0.03871573867043739,-0.03873267712467964,-1.6934872598296494e-05,0.038721664645557374,-0.01985614861510185,-0.01987771528161148,-0.02014237059252256,-0.11541931391139086,0.050469071520989305,-0.1840070511717737,-0.11770082177286434,-0.0007006599150219403
0.792,-0.04108684796706568,-0.04111913139163537,-3.22484746581504e-05,0.04110236252351279,-0.021005299328796002,-0.02105187225135409,-0.01850987347612935,-0.1182875914518746,0.045285306343847316,-0.18871358046785297,-0.1172563984234819,-0.00036605419549786376
0.794,-0.04162986319182744,-0.041636039763224636,-6.161831991731793e-06,0.041634039826796844,-0.021154884478386465,-0.021165360751786013,-0.02045035458544105,-0.11934166742876579,0.0400807802522186,-0.19291314700573703,-0.1175688025442449,-0.0012254494812698152
0.796,-0.04341729282444154,-0.043402625265018736,1.465552678856761e-05,0.043410821153308674,-0.021733560473930005,-0.021713148570344513,-0.024708335233871535,-0.12043970928940094,0.03503518963479629,-0.1955594335491702,-0.12005384037312075,-0.004581293203623864
0.798,-0.047276105812298685,-0.04726572908640822,1.0362934808082329e-05,0.04727073530181149,-0.02324114903656771,-0.023225682050657444,-0.028793709999562392,-0.1241010494334658,0.030134283396941887,-0.1960923087005729,-0.12485542947141721,-0.009092469924035774
0.8,-0.05043504176437977,-0.05021869349641517,0.00021634824707732488,0.05032631015394377,-0.024668394296092685,-0.02436499098194595,-0.03076125489495389,-0.13016671379529518,0.025219654713476553,-0.19551960553192735,-0.13063147476344988,-0.011849191640938872
0.802,-0.05066604336711324,-0.049140608190054905,0.0015254426931966335,0.04990315889946714,-0.025462670238367145,-0.023327327390403226,-0.03142682444037941,-0.13640553944102385,0.01999092645585751,-0.1961419298378796,-0.13541926118114672,-0.012247087234540033
0.804,-0.04911562383283091,-0.044310616314059185,0.004805011120289737,0.04671334459074869,-0.02647217330030917,-0.019745571472021856,-0.03348743118551356,-0.14135080265967542,0.014504069595111493,-0.19946582065478202,-0.1378493576442811,-0.01306729628393809
0.806,-0.04817464346532106,-0.039138791667270634,0.009035849416600785,0.043656915877885144,-0.02818069224158224,-0.015530549560209392,-0.03741758437515331,-0.14538763062547289,0.010036445441651845,-0.20407814853629547,-0.13796523919121553,-0.016831827563378518
0.808,-0.04842920200348888,-0.03694828956066656,0.011480909339879187,0.042743567033948104,-0.029485024005348148,-0.013477366215791056,-0.04024537081434339,-0.14928849482919498,0.008044592892584641,-0.20679290879992107,-0.13708435855518508,-0.022711995602702137
0.81,-0.048349096370916216,-0.03789412013313483,0.010454976055258372,0.04344977616365273,-0.02889763324616194,-0.014654491449038338,-0.039071001409258,-0.15213174786391423,0.007522392257050023,-0.20640409079565714,-0.13657526700337447,-0.027776253707266323
0.812,-0.04607849349477026,-0.039485898928327164,0.006592596172608526,0.043655550048157306,-0.025959991735609315,-0.017756546043063325,-0.03426293774342658,-0.15175388240688212,0.005578607338287245,-0.2047967273501029,-0.13676005129891952,-0.030053024335385245
0.814,-0.04125256148238555,-0.03980742464080527,0.001445137708379924,0.04191484134796518,-0.021330117181737128,-0.02083746357469678,-0.02915398063740551,-0.1481909647216571,0.001643201351621625,-0.2041651817694768,-0.13711205796957399,-0.02986340869569983
0.816,-0.035457583176136606,-0.03934415509181797,-0.0038865723781722917,0.038913162798187205,-0.01620476537878047,-0.023133260985059828,-0.026981539214984456,-0.14488107446972517,-0.0014691356854551858,-0.20448878302904297,-0.13718148341165912,-0.028716934698311485
0.818,-0.03138792314656725,-0.040156726617473555,-0.00876880416485008,0.03709294030496739,-0.011975683550522797,-0.025414103819841005,-0.02790170739723001,-0.14511017319403088,-0.001638083117259978,-0.20377846955421433,-0.1370251519775824,-0.027167573295626107
0.82,-0.031408396336469704,-0.04356041935800975,-0.01215202310061352,0.03863213838282883,-0.010256102530980617,-0.028368733980443258,-0.02947137917190889,-0.14901188739053817,-8.387707234845231e-05,-0.20049977828062743,-0.13691322934439548,-0.024513562996249794
0.822,-0.03585773315389698,-0.04812000331209937,-0.012262269817270913,0.04315143703135033,-0.012256659068511045,-0.03071329958553987,-0.029796349835858257,-0.15459840162875294,0.0008251598853901434,-0.19594410319403952,-0.13694496629337266,-0.02103655345664513
0.824,-0.04242057947104388,-0.050764036265414925,-0.00834345658837126,0.0478005497224856,-0.017309198763252164,-0.03025831501058217,-0.02923709106975543,-0.1601202174899659,0.00022427711354783522,-0.19323373137088717,-0.13702108084962927,-0.01893205278691786
0.826,-0.04780132177116399,-0.050367809487601625,-0.002566487804095111,0.05005991182114721,-0.022610429487983315,-0.02701453046706135,-0.029507449683859963,-0.16507562256228814,-0.0017658312183965684,-0.19359614072131912,-0.1370400897699834,-0.020168270276605352
0.828,-0.05013796503589957,-0.048794917535688355,0.001343047345922316,0.04986152895582049,-0.02536567601638104,-0.023657835536249984,-0.03203507241101126,-0.1698184682114154,-0.005158990033565795,-0.19518908193085285,-0.13700763831631263,-0.024344592289703353
0.83,-0.049899698896140696,-0.048183988724239804,0.0017157101460407937,0.04888664650720574,-0.025176704257922643,-0.02255772851532872,-0.036879946751489014,-0.17471061390822795,-0.00907395267471753,-0.19582804183432495,-0.13698176997048248,-0.028773840681844902
0.832,-0.049117934120169605,-0.04893753238886056,0.0001804018031558905,0.048745670772760305,-0.024013806046020235,-0.02356640886067992,-0.04243403139989627,-0.17956674533945438,-0.01152557388949192,-0.19540604019261207,-0.1369871245670864,-0.030730667214391508
0.834,-0.050055212083204854,-0.05083808169656247,-0.0007828695649271702,0.05037769292853313,-0.024132605368618245,-0.025238701789341948,-0.04588381349930313,-0.18356391857389814,-0.012102728352864722,-0.19557079743139943,-0.13700379883826616,-0.029995236432107227
0.836,-0.053642819022736855,-0.05410521442425298,-0.00046239541759158316,0.05398786586974355,-0.02615954623484845,-0.02691270570328525,-0.04502925074928252,-0.1857277622511076,-0.01317492410272533,-0.19797314345800934,-0.1370088409785419,-0.028625881032151943
0.838,-0.058209738680847806,-0.05800884959830133,0.00020088904843832913,0.05820134905939778,-0.028740777851175618,-0.028504757906889097,-0.04092763916492366,-0.18590148769856488,-0.016961993273367098,-0.2028158073683767,-0.13700214978960437,-0.028303519928830363
0.84,-0.06075917604880005,-0.06041412754875402,0.00034504849252687034,0.06056945018646121,-0.030031728663259157,-0.029513291540207057,-0.03772054925024285,-0.18522247325252453,-0.022715429904756987,-0.20865658967086875,-0.13719365870159334,-0.02886765727442637
0.842,-0.060316204218274314,-0.06026144566723864,5.47585660577254e-05,0.06023070267506301,-0.029656519889846304,-0.02953852948295835,-0.03878136069213688,-0.18548880055597886,-0.027706860950875347,-0.2134528794420777,-0.13837631120648736,-0.029312181794911532
0.844,-0.058773169254887334,-0.058935040922047544,-0.00016187165588148173,0.058835720979688595,-0.028802916960315245,-0.02902908425858605,-0.0436929580236611,-0.18803924799261934,-0.03001800547434241,-0.21585170921853386,-0.14132671572728894,-0.0292201911924283
0.846,-0.05820189035616795,-0.058308941220949914,-0.00010705086759252105,0.05827830700084332,-0.02856189542975635,-0.028734067177729625,-0.04890061568992754,-0.1928877750539997,-0.02988455122967609,-0.21594801605937203,-0.14513145561265067,-0.028935019932908514
0.848,-0.05851917143510427,-0.05848195061358588,3.722081402084589e-05,0.05852151280531566,-0.028786595685346715,-0.028745374662366884,-0.05128523902466627,-0.19887207483181157,-0.029162996864505082,-0.21507484857165088,-0.1476493528366409,-0.028958718955309097
0.85,-0.05777295142068506,-0.05769676628570178,7.618513293584142e-05,0.057732375102927225,-0.02842068185625198,-0.02830705446302244,-0.05162335275639913,-0.20494408136816872,-0.030081839603135443,-0.2145801236052206,-0.14873009175257665,-0.029839370603910495
0.852,-0.05448055889545753,-0.05446448798516016,1.6070913410986218e-05,0.05445990541783729,-0.026741875859025717,-0.026710108058426375,-0.05330617211235233,-0.21064105052389914,-0.033631590271386035,-0.21476756090213345,-0.15069220935523878,-0.03234424442792684
0.854,-0.04993793442500958,-0.04997183474403587,-3.3900316421718184e-05,0.04995021364033098,-0.02445106257090244,-0.024497899069005548,-0.057226720210442464,-0.21499516877685354,-0.03819048650983221,-0.21511299460465216,-0.15435010707575317,-0.036846709365740825
0.856,-0.047241273321088795,-0.04726623555794624,-2.496223731252447e-05,0.04725840923487684,-0.02311121350093603,-0.023150920593262684,-0.06025271261203579,-0.21687687075251091,-0.0407562492640963,-0.21517783263307882,-0.1571016101115298,-0.04224967794040988
0.858,-0.04760310960839679,-0.04759653242078455,6.5771859734903424e-06,0.04760459333594759,-0.023306824874996645,-0.023300230848666306,-0.05917813283475177,-0.21729086125464267,-0.0403252783429875,-0.21502289702198235,-0.15603920770286211,-0.04581395117309178
0.86,-0.04918829483074536,-0.04917153070659221,1.6764123618738358e-05,0.04917965203016402,-0.024101807129257698,-0.024076988318743015,-0.054309968668109165,-0.21895818548987803,-0.038779070414307164,-0.2149141445691768,-0.15132619349659612,-0.0450964744939761
0.862,-0.049823862786897086,-0.04981944468138641,4.418106149709798e-06,0.049818924827505835,-0.02441271407834484,-0.02440445781959086,-0.04911800365882643,-0.22247959890442792,-0.03819975097481919,-0.2149466340367619,-0.1462015350740741,-0.0409978627870828
0.864,-0.049075379279364305,-0.04952120995234517,-0.0004458306723839976,0.04929713343677827,-0.02383642681729589,-0.024482276404443695,-0.04693871414093159,-0.2254224082541628,-0.03895372337543321,-0.21502137799572502,-0.14418912768905628,-0.03771740385963426
0.866,-0.04716380084438364,-0.05023468148921619,-0.0030708806448961974,0.04870017575339617,-0.021700356750736862,-0.026153854349996057,-0.047900891187378135,-0.22636770713995227,-0.04083720260419819,-0.2150393215767777,-0.1464026702802003,-0.03874153626352934
0.868,-0.04388863857890154,-0.053501044020532275,-0.009612405441986873,0.048695921391764166,-0.017119253998503232,-0.031057916219337435,-0.049494358705791025,-0.22736828871702153,-0.044095953076591345,-0.215007109225606,-0.15126947830433396,-0.04367565275773026
0.87,-0.03998718691516818,-0.05804911221608101,-0.01806192530104821,0.04901815545080607,-0.011365781662714677,-0.037555502162762856,-0.04980777034028042,-0.23105005878104323,-0.04800490506950586,-0.21498193646872393,-0.15584225700651344,-0.04891408297347975
0.872,-0.03780673004059417,-0.06054318357067716,-0.022736453529953307,0.0491743701852479,-0.008171704782112366,-0.04113916040036711,-0.04933970350526206,-0.2371817771756424,-0.05041729810516195,-0.21498749283290103,-0.15772657654503752,-0.051301115589874956
0.874,-0.039273969197556845,-0.05887324620413243,-0.019599277006439774,0.049073324287146676,-0.01031715780339143,-0.03873595629354888,-0.05015441163893625,-0.24346300863321663,-0.0502651129814732,-0.21500388388021807,-0.15696103339678488,-0.05162358683701835
0.876,-0.04387227260012101,-0.054007113746158644,-0.01013484114604354,0.04893987793166881,-0.016875524899625592,-0.03157119078027596,-0.053561742933581666,-0.24851292887720847,-0.04893506240582012,-0.21500868062799483,-0.15562232332355888,-0.05329761970567712
0.878,-0.04872256590217973,-0.04913950675022875,-0.0004169408481259594,0.048931279242463016,-0.02367377465507363,-0.02427849231500038,-0.058121898862683465,-0.2528531289821972,-0.048306950116864505,-0.21500202678802427,-0.1553232911062026,-0.057222507371091164
0.88,-0.050885930031236884,-0.047333411155759085,0.0035525188754442737,0.04910968579657085,-0.02655258666474214,-0.02139045797658811,-0.06076421937816897,-0.25759651329354527,-0.048919780230719044,-0.2151936874563337,-0.15587861376225634,-0.06025536757815492
0.882,-0.05010240976014415,-0.04950538669471612,0.0005970230654539991,0.04980377292418378,-0.02489643891017198,-0.023954040933012927,-0.06036686250605756,-0.2632049109043679,-0.05076250071522905,-0.21637639206615641,-0.1563061048724426,-0.05918170003684394
0.884,-0.048602900578714386,-0.05423981279376259,-0.005636912215017507,0.05142128853787333,-0.02150514119081815,-0.02943828875219638,-0.058794365276505625,-0.26902764547325,-0.05407880167820432,-0.2193267386581636,-0.15621118244527646,-0.05431022368221129
0.886,-0.04823687276447653,-0.05877204273019119,-0.010535169965714183,0.05350449357684503,-0.01932926210920939,-0.034153648002249126,-0.058184241724912884,-0.2733429971881377,-0.058037479941267324,-0.22313142243868575,-0.15593405659247986,-0.049116178762119655
0.888,-0.04895763571699017,-0.06070922978340809,-0.011751594066434449,0.05488833610620912,-0.019253581443953838,-0.03578532112130762,-0.058718558409670905,-0.27481966939868807,-0.06063967353698309,-0.22542992827014066,-0.1560728978862915,-0.04693770330315978
0.89,-0.05021458720294483,-0.059991064643735006,-0.009776477440798322,0.05543112172266025,-0.02066500096228448,-0.034712066452549505,-0.05930559144591807,-0.274607442460876,-0.061638536881705834,-0.22519754244892365,-0.15749862100607617,-0.04790140424457749
0.892,-0.05250085750385432,-0.05864613393490259,-0.006123336810354679,0.05643589602566669,-0.023182853734550504,-0.032758102116205945,-0.059298269927895615,-0.2757986004690129,-0.0632447275774028,-0.22388548254793114,-0.160870471150067,-0.04949515540775411
0.894,-0.056574219367644694,-0.05831827550839036,-0.0015908007546034323,0.058754406016254805,-0.02709644357745693,-0.030839323003952784,-0.05897592271192378,-0.2801875016362808,-0.06643183715052368,-0.22331731639619312,-0.16508174221992333,-0.049807870901500274
0.896,-0.06163679903971312,-0.05886322406168605,0.003232309803420935,0.0614780502443113,-0.03199165807904669,-0.02877286440802889,-0.05882597115436072,-0.28644538959627497,-0.06913650804076871,-0.2237327961858677,-0.16757680285534288,-0.04933931675997172
0.898,-0.06505542368221137,-0.05930149106026803,0.006503956898264508,0.06279578669281308,-0.035552057347775376,-0.02689110986421426,-0.05893007044018992,-0.2916899029542472,-0.0694340152548829,-0.2242402863376453,-0.1672993131632317,-0.05015417202959992
0.9,-0.06449837385803961,-0.059217377158519414,0.005959142587265505,0.0617931647920881,-0.03510225928464207,-0.026403479505565597,-0.05906155729897468,-0.2940792606116779,-0.06815727575251111,-0.22425943589525632,-0.16586436546960334,-0.053561839538960584
0.902,-0.0608108581660062,-0.058939533390173784,0.0021011919870648262,0.059538033646994074,-0.031140604420700425,-0.027696941450123372,-0.059067553720393066,-0.29392768337841413,-0.06731831224100586,-0.22399298996267097,-0.16525452929225654,-0.058122075767105284
0.904,-0.05753656816719435,-0.058852737097430795,-0.001487638997051303,0.05808606619903352,-0.027453633935140425,-0.02947586623802574,-0.05899867162717682,-0.2931605861730964,-0.06769489064117755,-0.2240746877563499,-0.1657139283864916,-0.060764251157602756
0.906,-0.05650754220799978,-0.058962713122116685,-0.002664183231012249,0.05815093100761882,-0.026308745815660964,-0.030624745593235473,-0.058962500503821604,-0.29405996991153294,-0.06904527088851845,-0.22546730964693465,-0.16626502297647466,-0.06036678114478818
0.908,-0.055602846077394755,-0.05906254187463126,-0.0034767815872932917,0.05833536388600769,-0.025685233389527457,-0.03176378904393703,-0.05898281365963876,-0.2976220531881183,-0.07158541284811037,-0.22885454012125736,-0.16628141946547803,-0.05879430907112899
0.91,-0.05199999235226322,-0.05905021003135353,-0.006947669436407562,0.056925661416035965,-0.02256390614161632,-0.03395077409488231,-0.059012255319215744,-0.3021973509917937,-0.0758497379896573,-0.23309122129293083,-0.16599001327516544,-0.05818425927888814
0.912,-0.04607467971008745,-0.05898985006192574,-0.012856590890950943,0.053982329233306786,-0.01705664260732449,-0.036902574398923624,-0.058795836557432916,-0.30454520878913466,-0.08111973321440745,-0.23548032662249646,-0.1656225010284454,-0.0583895031566685
0.914,-0.041278969425057564,-0.05896775172281833,-0.017716226964470092,0.051405738497646875,-0.012430479144209885,-0.03911064485141646,-0.05746803410191634,-0.3025735956685215,-0.08475028063243391,-0.23442448057669946,-0.16439743417265493,-0.05689707162674954
0.916,-0.041020989681622724,-0.05899013606771033,-0.018014070582378954,0.051168901237504935,-0.012085919756514305,-0.03914297963501991,-0.05418522350339332,-0.2962159681180205,-0.08413696496918101,-0.23060028797884932,-0.16124608223813527,-0.051212161223396044
0.918,-0.04573209065444302,-0.059012887187860984,-0.013287294051135195,0.053563341317827244,-0.016548055256235122,-0.03683769432401107,-0.04996304597166745,-0.2866279537448998,-0.08005193932061579,-0.2256082297481579,-0.15703063185575972,-0.042147367447170805
0.92,-0.0527692379346711,-0.058792142362465015,-0.005979577868188729,0.057004891997170785,-0.02336090487980589,-0.03313172525087829,-0.047633590335274,-0.2735591367668171,-0.07650173874064103,-0.2207162740298067,-0.15419386613461541,-0.03356016511350217
0.922,-0.05932134542324601,-0.05746592472641974,0.002022430684117738,0.05943256184358944,-0.03032566411160937,-0.028344178750568917,-0.049204499078185644,-0.24834824550161677,-0.07618125432964559,-0.21679164440834786,-0.15310206373798424,-0.02783970522216561
0.924,-0.06444874287820358,-0.05418623195854092,0.010738084929510089,0.05994395881045953,-0.037200113780239984,-0.02208833189187147,-0.0539335641284376,-0.19343798317617375,-0.077853628202502,-0.21452766900617465,-0.1513027545389224,-0.023949001373311005
0.926,-0.06794512415548021,-0.049964678800529426,0.018873783788611168,0.059254187496887004,-0.043250528590702775,-0.015791402750283585,-0.058789741948589574,-0.10074673504193013,-0.07888911969120249,-0.2141044891838545,-0.14773624605821967,-0.02067942752185417
0.928,-0.06918640414681962,-0.047195027512525224,0.023126292601436577,0.058549156696368385,-0.04625644364805617,-0.012460266320651149,-0.06088456629787414,0.014066891601780415,-0.07861529445474054,-0.21495132292063304,-0.14483308834417793,-0.019099314659239332
0.93,-0.06789763686606463,-0.046138609947940556,0.022743405041654913,0.057834493183722746,-0.045503947355839326,-0.012528100914705343,-0.06006509947933236,0.12920507246952667,-0.07863703462816955,-0.21669160044529817,-0.14527881018104782,-0.02121046413204526
0.932,-0.0646281590840175,-0.04431957667058457,0.020818473446861097,0.055875436977187484,-0.04282887164574134,-0.013060321607640086,-0.05858582391504707,0.2417695143967481,-0.0808908415937402,-0.21960018599313497,-0.14911017565979337,-0.027664012173667485
0.934,-0.06017762877871287,-0.04072433700349781,0.019473233955971784,0.05214748834432553,-0.03973689848710699,-0.012312702508816692,-0.058249077212051574,0.36254811487525884,-0.08574048693466109,-0.2230946082488273,-0.1545579477583665,-0.03650277941718156
0.936,-0.055308313189343775,-0.03770852162848537,0.01740904512850962,0.04798259972294042,-0.035996235384065024,-0.01193182701188628,-0.0587533881222121,0.4936639702925154,-0.09144614557430285,-0.225068516800305,-0.15983060969686658,-0.04415976342592855
