time,I,II,III,aVR,aVL,aVF,V1,V2,V3,V4,V5,V6
0.0,-0.117,-0.029,0.088,0.073,-0.102,0.029,0.029,-0.01,-0.02,-0.107,-0.078,-0.02
0.002,-0.117,-0.029,0.088,0.073,-0.102,0.029,0.029,-0.01,-0.02,-0.107,-0.078,-0.02
0.004,-0.117,-0.029,0.088,0.073,-0.102,0.029,0.029,-0.01,-0.02,-0.107,-0.078,-0.02
0.006,-0.117,-0.029,0.088,0.073,-0.102,0.029,0.029,-0.01,-0.02,-0.107,-0.078,-0.02
0.008,-0.127,-0.044,0.083,0.088,-0.107,0.02,0.044,0.015,0.0,-0.098,-0.063,-0.01
0.01,-0.127,-0.049,0.078,0.088,-0.102,0.015,0.059,0.039,0.02,-0.088,-0.059,-0.01
0.012,-0.127,-0.054,0.073,0.093,-0.102,0.01,0.073,0.063,0.039,-0.078,-0.054,-0.01
0.014,-0.127,-0.059,0.068,0.093,-0.098,0.005,0.088,0.088,0.059,-0.068,-0.049,-0.01
0.016,-0.137,-0.068,0.068,0.102,-0.102,0.0,0.078,0.093,0.049,-0.068,-0.059,-0.01
0.018,-0.137,-0.068,0.068,0.102,-0.102,0.0,0.078,0.098,0.049,-0.068,-0.059,-0.01
0.02,-0.137,-0.068,0.068,0.102,-0.102,0.0,0.078,0.102,0.049,-0.068,-0.059,-0.01
0.022,-0.137,-0.068,0.068,0.102,-0.102,0.0,0.078,0.107,0.049,-0.068,-0.059,-0.01
0.024,-0.137,-0.068,0.068,0.102,-0.102,0.0,0.083,0.122,0.068,-0.054,-0.054,0.0
0.026,-0.137,-0.068,0.068,0.102,-0.102,0.0,0.088,0.127,0.078,-0.049,-0.049,0.0
0.028,-0.137,-0.068,0.068,0.102,-0.102,0.0,0.093,0.132,0.088,-0.044,-0.044,0.0
0.03,-0.137,-0.068,0.068,0.102,-0.102,0.0,0.098,0.137,0.098,-0.039,-0.039,0.0
0.032,-0.127,-0.078,0.049,0.102,-0.088,-0.015,0.102,0.156,0.112,-0.034,-0.029,0.01
0.034,-0.127,-0.078,0.049,0.102,-0.088,-0.015,0.107,0.166,0.117,-0.029,-0.029,0.01
0.036,-0.127,-0.078,0.049,0.102,-0.088,-0.015,0.112,0.176,0.122,-0.024,-0.029,0.01
0.038,-0.127,-0.078,0.049,0.102,-0.088,-0.015,0.117,0.185,0.127,-0.02,-0.029,0.01
0.04,-0.137,-0.073,0.063,0.107,-0.102,-0.005,0.117,0.176,0.127,-0.02,-0.02,0.01
0.042,-0.137,-0.068,0.068,0.102,-0.102,0.0,0.117,0.176,0.127,-0.02,-0.02,0.01
0.044,-0.137,-0.063,0.073,0.102,-0.107,0.005,0.117,0.176,0.127,-0.02,-0.02,0.01
0.046,-0.137,-0.059,0.078,0.098,-0.107,0.01,0.117,0.176,0.127,-0.02,-0.02,0.01
0.048,-0.146,-0.063,0.083,0.107,-0.117,0.01,0.127,0.19,0.137,-0.005,-0.015,0.02
0.05,-0.146,-0.068,0.078,0.107,-0.112,0.005,0.127,0.195,0.146,0.0,-0.01,0.02
0.052,-0.146,-0.073,0.073,0.112,-0.112,0.0,0.127,0.2,0.156,0.005,-0.005,0.02
0.054,-0.146,-0.078,0.068,0.112,-0.107,-0.005,0.127,0.205,0.166,0.01,0.0,0.02
0.056,-0.132,-0.068,0.063,0.102,-0.098,-0.005,0.117,0.215,0.166,0.01,0.0,0.02
0.058,-0.127,-0.068,0.059,0.098,-0.093,-0.005,0.117,0.215,0.166,0.01,0.0,0.02
0.06,-0.122,-0.068,0.054,0.098,-0.088,-0.01,0.117,0.215,0.166,0.01,0.0,0.02
0.062,-0.117,-0.068,0.049,0.093,-0.083,-0.01,0.117,0.215,0.166,0.01,0.0,0.02
0.064,-0.117,-0.059,0.059,0.088,-0.088,0.0,0.117,0.224,0.181,0.015,0.01,0.02
0.066,-0.117,-0.059,0.059,0.088,-0.088,0.0,0.117,0.224,0.185,0.02,0.01,0.02
0.068,-0.117,-0.059,0.059,0.088,-0.088,0.0,0.117,0.224,0.19,0.024,0.01,0.02
0.07,-0.117,-0.059,0.059,0.088,-0.088,0.0,0.117,0.224,0.195,0.029,0.01,0.02
0.072,-0.112,-0.059,0.054,0.088,-0.083,-0.005,0.122,0.234,0.21,0.044,0.015,0.024
0.074,-0.107,-0.059,0.049,0.083,-0.078,-0.005,0.127,0.244,0.215,0.049,0.02,0.029
0.076,-0.102,-0.059,0.044,0.083,-0.073,-0.01,0.132,0.254,0.22,0.054,0.024,0.034
0.078,-0.098,-0.059,0.039,0.078,-0.068,-0.01,0.137,0.264,0.224,0.059,0.029,0.039
0.08,-0.107,-0.059,0.049,0.083,-0.078,-0.005,0.137,0.268,0.229,0.068,0.029,0.039
0.082,-0.107,-0.059,0.049,0.083,-0.078,-0.005,0.137,0.273,0.234,0.068,0.029,0.039
0.084,-0.107,-0.059,0.049,0.083,-0.078,-0.005,0.137,0.278,0.239,0.068,0.029,0.039
0.086,-0.107,-0.059,0.049,0.083,-0.078,-0.005,0.137,0.283,0.244,0.068,0.029,0.039
0.088,-0.098,-0.044,0.054,0.073,-0.078,0.005,0.146,0.293,0.254,0.078,0.034,0.049
0.09,-0.088,-0.039,0.049,0.063,-0.068,0.005,0.146,0.303,0.264,0.088,0.039,0.049
0.092,-0.078,-0.034,0.044,0.059,-0.063,0.005,0.146,0.312,0.273,0.098,0.044,0.049
0.094,-0.068,-0.029,0.039,0.049,-0.054,0.005,0.146,0.322,0.283,0.107,0.049,0.049
0.096,-0.059,-0.039,0.02,0.049,-0.039,-0.01,0.156,0.332,0.303,0.117,0.063,0.054
0.098,-0.059,-0.039,0.02,0.049,-0.039,-0.01,0.156,0.342,0.312,0.127,0.068,0.059
0.1,-0.059,-0.039,0.02,0.049,-0.039,-0.01,0.156,0.351,0.322,0.137,0.073,0.063
0.102,-0.059,-0.039,0.02,0.049,-0.039,-0.01,0.156,0.361,0.332,0.146,0.078,0.068
0.104,-0.063,-0.039,0.024,0.054,-0.044,-0.01,0.146,0.371,0.342,0.161,0.083,0.078
0.106,-0.068,-0.039,0.029,0.054,-0.049,-0.005,0.146,0.381,0.351,0.166,0.088,0.078
0.108,-0.073,-0.039,0.034,0.059,-0.054,-0.005,0.146,0.39,0.361,0.171,0.093,0.078
0.11,-0.078,-0.039,0.039,0.059,-0.059,0.0,0.146,0.4,0.371,0.176,0.098,0.078
0.112,-0.068,-0.029,0.039,0.049,-0.054,0.005,0.156,0.41,0.39,0.185,0.112,0.083
0.114,-0.068,-0.029,0.039,0.049,-0.054,0.005,0.156,0.42,0.4,0.195,0.117,0.088
0.116,-0.068,-0.029,0.039,0.049,-0.054,0.005,0.156,0.429,0.41,0.205,0.122,0.093
0.118,-0.068,-0.029,0.039,0.049,-0.054,0.005,0.156,0.439,0.42,0.215,0.127,0.098
0.12,-0.059,-0.02,0.039,0.039,-0.049,0.01,0.156,0.464,0.439,0.229,0.137,0.107
0.122,-0.049,-0.01,0.039,0.029,-0.044,0.015,0.156,0.478,0.459,0.244,0.146,0.117
0.124,-0.039,0.0,0.039,0.02,-0.039,0.02,0.156,0.493,0.478,0.259,0.156,0.127
0.126,-0.029,0.01,0.039,0.01,-0.034,0.024,0.156,0.508,0.498,0.273,0.166,0.137
0.128,-0.039,0.02,0.059,0.01,-0.049,0.039,0.156,0.527,0.522,0.298,0.185,0.151
0.13,-0.039,0.02,0.059,0.01,-0.049,0.039,0.156,0.537,0.537,0.312,0.195,0.156
0.132,-0.039,0.02,0.059,0.01,-0.049,0.039,0.156,0.547,0.551,0.327,0.205,0.161
0.134,-0.039,0.02,0.059,0.01,-0.049,0.039,0.156,0.556,0.566,0.342,0.215,0.166
0.136,-0.029,0.029,0.059,0.0,-0.044,0.044,0.156,0.566,0.586,0.366,0.229,0.185
0.138,-0.029,0.029,0.059,0.0,-0.044,0.044,0.156,0.576,0.605,0.381,0.244,0.195
0.14,-0.029,0.029,0.059,0.0,-0.044,0.044,0.156,0.586,0.625,0.395,0.259,0.205
0.142,-0.029,0.029,0.059,0.0,-0.044,0.044,0.156,0.595,0.644,0.41,0.273,0.215
0.144,-0.015,0.049,0.063,-0.015,-0.039,0.054,0.146,0.605,0.669,0.429,0.288,0.224
0.146,-0.01,0.059,0.068,-0.024,-0.039,0.063,0.146,0.615,0.683,0.449,0.303,0.234
0.148,-0.005,0.068,0.073,-0.029,-0.039,0.068,0.146,0.625,0.698,0.468,0.317,0.244
0.15,0.0,0.078,0.078,-0.039,-0.039,0.078,0.146,0.634,0.712,0.488,0.332,0.254
0.152,0.015,0.098,0.083,-0.054,-0.034,0.088,0.137,0.644,0.737,0.517,0.361,0.278
0.154,0.02,0.107,0.088,-0.063,-0.034,0.098,0.137,0.654,0.752,0.537,0.381,0.293
0.156,0.024,0.117,0.093,-0.068,-0.034,0.102,0.137,0.664,0.766,0.556,0.4,0.307
0.158,0.029,0.127,0.098,-0.078,-0.034,0.112,0.137,0.673,0.781,0.576,0.42,0.322
0.16,0.029,0.137,0.107,-0.083,-0.039,0.122,0.127,0.673,0.795,0.586,0.429,0.337
0.162,0.029,0.137,0.107,-0.083,-0.039,0.122,0.127,0.673,0.8,0.595,0.439,0.342
0.164,0.029,0.137,0.107,-0.083,-0.039,0.122,0.127,0.673,0.805,0.605,0.449,0.346
0.166,0.029,0.137,0.107,-0.083,-0.039,0.122,0.127,0.673,0.81,0.615,0.459,0.351
0.168,0.039,0.146,0.107,-0.093,-0.034,0.127,0.112,0.664,0.82,0.62,0.473,0.366
0.17,0.039,0.156,0.117,-0.098,-0.039,0.137,0.107,0.664,0.82,0.625,0.478,0.371
0.172,0.039,0.166,0.127,-0.102,-0.044,0.146,0.102,0.664,0.82,0.63,0.483,0.376
0.174,0.039,0.176,0.137,-0.107,-0.049,0.156,0.098,0.664,0.82,0.634,0.488,0.381
0.176,0.039,0.181,0.142,-0.107,-0.054,0.161,0.107,0.659,0.82,0.639,0.503,0.386
0.178,0.039,0.185,0.146,-0.112,-0.054,0.166,0.107,0.654,0.82,0.644,0.508,0.39
0.18,0.039,0.19,0.151,-0.112,-0.059,0.171,0.107,0.649,0.82,0.649,0.512,0.395
0.182,0.039,0.195,0.156,-0.117,-0.059,0.176,0.107,0.644,0.82,0.654,0.517,0.4
0.184,0.044,0.195,0.151,-0.117,-0.054,0.171,0.098,0.634,0.81,0.649,0.512,0.41
0.186,0.049,0.195,0.146,-0.122,-0.049,0.171,0.098,0.625,0.8,0.644,0.508,0.41
0.188,0.054,0.195,0.142,-0.122,-0.044,0.166,0.098,0.615,0.791,0.639,0.503,0.41
0.19,0.059,0.195,0.137,-0.127,-0.039,0.166,0.098,0.605,0.781,0.634,0.498,0.41
0.192,0.044,0.181,0.137,-0.112,-0.049,0.156,0.093,0.586,0.756,0.62,0.483,0.405
0.194,0.039,0.176,0.137,-0.107,-0.049,0.156,0.088,0.566,0.742,0.605,0.478,0.4
0.196,0.034,0.171,0.137,-0.102,-0.054,0.151,0.083,0.547,0.727,0.59,0.473,0.395
0.198,0.029,0.166,0.137,-0.098,-0.054,0.151,0.078,0.527,0.712,0.576,0.468,0.39
0.2,0.02,0.166,0.146,-0.093,-0.063,0.156,0.078,0.512,0.683,0.561,0.449,0.381
0.202,0.02,0.166,0.146,-0.093,-0.063,0.156,0.078,0.498,0.664,0.547,0.439,0.371
0.204,0.02,0.166,0.146,-0.093,-0.063,0.156,0.078,0.483,0.644,0.532,0.429,0.361
0.206,0.02,0.166,0.146,-0.093,-0.063,0.156,0.078,0.468,0.625,0.517,0.42,0.351
0.208,0.015,0.161,0.146,-0.088,-0.068,0.151,0.083,0.444,0.595,0.498,0.405,0.342
0.21,0.01,0.156,0.146,-0.083,-0.068,0.151,0.088,0.429,0.576,0.478,0.39,0.332
0.212,0.005,0.151,0.146,-0.078,-0.073,0.146,0.093,0.415,0.556,0.459,0.376,0.322
0.214,0.0,0.146,0.146,-0.073,-0.073,0.146,0.098,0.4,0.537,0.439,0.361,0.312
0.216,-0.01,0.137,0.146,-0.063,-0.078,0.142,0.107,0.371,0.498,0.41,0.332,0.288
0.218,-0.02,0.127,0.146,-0.054,-0.083,0.137,0.107,0.351,0.468,0.381,0.312,0.273
0.22,-0.029,0.117,0.146,-0.044,-0.088,0.132,0.107,0.332,0.439,0.351,0.293,0.259
0.222,-0.039,0.107,0.146,-0.034,-0.093,0.127,0.107,0.312,0.41,0.322,0.273,0.244
0.224,-0.054,0.098,0.151,-0.02,-0.102,0.122,0.107,0.293,0.381,0.303,0.254,0.229
0.226,-0.059,0.088,0.146,-0.015,-0.102,0.117,0.107,0.273,0.361,0.283,0.234,0.215
0.228,-0.063,0.078,0.142,-0.005,-0.102,0.107,0.107,0.254,0.342,0.264,0.215,0.2
0.23,-0.068,0.068,0.137,0.0,-0.102,0.102,0.107,0.234,0.322,0.244,0.195,0.185
0.232,-0.073,0.054,0.127,0.01,-0.102,0.088,0.117,0.21,0.293,0.224,0.181,0.166
0.234,-0.078,0.049,0.127,0.015,-0.102,0.088,0.117,0.195,0.273,0.205,0.166,0.156
0.236,-0.083,0.044,0.127,0.02,-0.107,0.083,0.117,0.181,0.254,0.185,0.151,0.146
0.238,-0.088,0.039,0.127,0.024,-0.107,0.083,0.117,0.166,0.234,0.166,0.137,0.137
0.24,-0.088,0.034,0.122,0.029,-0.107,0.078,0.117,0.156,0.22,0.151,0.122,0.127
0.242,-0.088,0.029,0.117,0.029,-0.102,0.073,0.117,0.146,0.205,0.137,0.107,0.117
0.244,-0.088,0.024,0.112,0.034,-0.102,0.068,0.117,0.137,0.19,0.122,0.093,0.107
0.246,-0.088,0.02,0.107,0.034,-0.098,0.063,0.117,0.127,0.176,0.107,0.078,0.098
0.248,-0.098,0.01,0.107,0.044,-0.102,0.059,0.117,0.112,0.156,0.093,0.068,0.083
0.25,-0.107,0.0,0.107,0.054,-0.107,0.054,0.117,0.098,0.146,0.088,0.059,0.078
0.252,-0.117,-0.01,0.107,0.063,-0.112,0.049,0.117,0.083,0.137,0.083,0.049,0.073
0.254,-0.127,-0.02,0.107,0.073,-0.117,0.044,0.117,0.068,0.127,0.078,0.039,0.068
0.256,-0.122,-0.02,0.102,0.073,-0.112,0.039,0.117,0.063,0.112,0.063,0.034,0.059
0.258,-0.117,-0.02,0.098,0.068,-0.107,0.039,0.117,0.059,0.107,0.059,0.029,0.059
0.26,-0.112,-0.02,0.093,0.068,-0.102,0.034,0.117,0.054,0.102,0.054,0.024,0.059
0.262,-0.107,-0.02,0.088,0.063,-0.098,0.034,0.117,0.049,0.098,0.049,0.02,0.059
0.264,-0.117,-0.024,0.093,0.073,-0.107,0.034,0.107,0.044,0.093,0.034,0.015,0.054
0.266,-0.117,-0.029,0.088,0.073,-0.102,0.029,0.107,0.039,0.088,0.029,0.01,0.049
0.268,-0.117,-0.034,0.083,0.078,-0.102,0.024,0.107,0.034,0.083,0.024,0.005,0.044
0.27,-0.117,-0.039,0.078,0.078,-0.098,0.02,0.107,0.029,0.078,0.02,0.0,0.039
0.272,-0.117,-0.039,0.078,0.078,-0.098,0.02,0.107,0.02,0.073,0.01,-0.01,0.034
0.274,-0.117,-0.039,0.078,0.078,-0.098,0.02,0.107,0.02,0.068,0.01,-0.01,0.029
0.276,-0.117,-0.039,0.078,0.078,-0.098,0.02,0.107,0.02,0.063,0.01,-0.01,0.024
0.278,-0.117,-0.039,0.078,0.078,-0.098,0.02,0.107,0.02,0.059,0.01,-0.01,0.02
0.28,-0.122,-0.049,0.073,0.088,-0.098,0.01,0.107,0.01,0.049,0.0,-0.02,0.02
0.282,-0.127,-0.049,0.078,0.088,-0.102,0.015,0.107,0.01,0.049,0.0,-0.02,0.02
0.284,-0.132,-0.049,0.083,0.093,-0.107,0.015,0.107,0.01,0.049,0.0,-0.02,0.02
0.286,-0.137,-0.049,0.088,0.093,-0.112,0.02,0.107,0.01,0.049,0.0,-0.02,0.02
0.288,-0.146,-0.039,0.107,0.093,-0.127,0.034,0.117,0.0,0.039,0.01,-0.02,0.02
0.29,-0.146,-0.039,0.107,0.093,-0.127,0.034,0.117,0.0,0.039,0.01,-0.02,0.02
0.292,-0.146,-0.039,0.107,0.093,-0.127,0.034,0.117,0.0,0.039,0.01,-0.02,0.02
0.294,-0.146,-0.039,0.107,0.093,-0.127,0.034,0.117,0.0,0.039,0.01,-0.02,0.02
0.296,-0.137,-0.029,0.107,0.083,-0.122,0.039,0.127,0.015,0.044,0.015,-0.015,0.024
0.298,-0.137,-0.029,0.107,0.083,-0.122,0.039,0.127,0.02,0.049,0.02,-0.01,0.029
0.3,-0.137,-0.029,0.107,0.083,-0.122,0.039,0.127,0.024,0.054,0.024,-0.005,0.034
0.302,-0.137,-0.029,0.107,0.083,-0.122,0.039,0.127,0.029,0.059,0.029,0.0,0.039
0.304,-0.146,-0.039,0.107,0.093,-0.127,0.034,0.117,0.029,0.068,0.029,0.01,0.049
0.306,-0.146,-0.039,0.107,0.093,-0.127,0.034,0.117,0.029,0.068,0.029,0.01,0.049
0.308,-0.146,-0.039,0.107,0.093,-0.127,0.034,0.117,0.029,0.068,0.029,0.01,0.049
0.31,-0.146,-0.039,0.107,0.093,-0.127,0.034,0.117,0.029,0.068,0.029,0.01,0.049
0.312,-0.161,-0.044,0.117,0.102,-0.142,0.034,0.107,0.024,0.063,0.024,0.005,0.044
0.314,-0.166,-0.049,0.117,0.107,-0.142,0.034,0.107,0.02,0.059,0.02,0.0,0.039
0.316,-0.171,-0.054,0.117,0.112,-0.146,0.029,0.107,0.015,0.054,0.015,-0.005,0.034
0.318,-0.176,-0.059,0.117,0.117,-0.146,0.029,0.107,0.01,0.049,0.01,-0.01,0.029
0.32,-0.166,-0.054,0.112,0.112,-0.142,0.029,0.117,0.02,0.054,0.015,0.0,0.039
0.322,-0.166,-0.049,0.117,0.107,-0.142,0.034,0.117,0.02,0.059,0.02,0.0,0.039
0.324,-0.166,-0.044,0.122,0.107,-0.146,0.039,0.117,0.02,0.063,0.024,0.0,0.039
0.326,-0.166,-0.039,0.127,0.102,-0.146,0.044,0.117,0.02,0.068,0.029,0.0,0.039
0.328,-0.156,-0.039,0.117,0.098,-0.137,0.039,0.127,0.029,0.068,0.029,0.01,0.049
0.33,-0.156,-0.039,0.117,0.098,-0.137,0.039,0.127,0.029,0.068,0.029,0.01,0.049
0.332,-0.156,-0.039,0.117,0.098,-0.137,0.039,0.127,0.029,0.068,0.029,0.01,0.049
0.334,-0.156,-0.039,0.117,0.098,-0.137,0.039,0.127,0.029,0.068,0.029,0.01,0.049
0.336,-0.166,-0.039,0.127,0.102,-0.146,0.044,0.132,0.039,0.073,0.034,0.02,0.059
0.338,-0.166,-0.039,0.127,0.102,-0.146,0.044,0.137,0.039,0.078,0.039,0.02,0.059
0.34,-0.166,-0.039,0.127,0.102,-0.146,0.044,0.142,0.039,0.083,0.044,0.02,0.059
0.342,-0.166,-0.039,0.127,0.102,-0.146,0.044,0.146,0.039,0.088,0.049,0.02,0.059
0.344,-0.176,-0.049,0.127,0.112,-0.151,0.039,0.142,0.029,0.078,0.044,0.01,0.049
0.346,-0.176,-0.049,0.127,0.112,-0.151,0.039,0.137,0.029,0.078,0.039,0.01,0.049
0.348,-0.176,-0.049,0.127,0.112,-0.151,0.039,0.132,0.029,0.078,0.034,0.01,0.049
0.35,-0.176,-0.049,0.127,0.112,-0.151,0.039,0.127,0.029,0.078,0.029,0.01,0.049
0.352,-0.166,-0.059,0.107,0.112,-0.137,0.024,0.137,0.029,0.078,0.029,0.0,0.044
0.354,-0.166,-0.059,0.107,0.112,-0.137,0.024,0.137,0.029,0.078,0.029,0.0,0.039
0.356,-0.166,-0.059,0.107,0.112,-0.137,0.024,0.137,0.029,0.078,0.029,0.0,0.034
0.358,-0.166,-0.059,0.107,0.112,-0.137,0.024,0.137,0.029,0.078,0.029,0.0,0.029
0.36,-0.156,-0.054,0.102,0.107,-0.132,0.024,0.137,0.039,0.088,0.029,0.01,0.039
0.362,-0.156,-0.049,0.107,0.102,-0.132,0.029,0.137,0.039,0.088,0.029,0.01,0.039
0.364,-0.156,-0.044,0.112,0.102,-0.137,0.034,0.137,0.039,0.088,0.029,0.01,0.039
0.366,-0.156,-0.039,0.117,0.098,-0.137,0.039,0.137,0.039,0.088,0.029,0.01,0.039
0.368,-0.156,-0.039,0.117,0.098,-0.137,0.039,0.137,0.039,0.078,0.029,0.0,0.039
0.37,-0.156,-0.039,0.117,0.098,-0.137,0.039,0.137,0.039,0.078,0.029,0.0,0.039
0.372,-0.156,-0.039,0.117,0.098,-0.137,0.039,0.137,0.039,0.078,0.029,0.0,0.039
0.374,-0.156,-0.039,0.117,0.098,-0.137,0.039,0.137,0.039,0.078,0.029,0.0,0.039
0.376,-0.146,-0.049,0.098,0.098,-0.122,0.024,0.146,0.049,0.088,0.039,0.01,0.039
0.378,-0.146,-0.049,0.098,0.098,-0.122,0.024,0.146,0.049,0.088,0.039,0.01,0.039
0.38,-0.146,-0.049,0.098,0.098,-0.122,0.024,0.146,0.049,0.088,0.039,0.01,0.039
0.382,-0.146,-0.049,0.098,0.098,-0.122,0.024,0.146,0.049,0.088,0.039,0.01,0.039
0.384,-0.137,-0.039,0.098,0.088,-0.117,0.029,0.137,0.049,0.088,0.039,0.0,0.039
0.386,-0.137,-0.039,0.098,0.088,-0.117,0.029,0.137,0.049,0.088,0.039,0.0,0.039
0.388,-0.137,-0.039,0.098,0.088,-0.117,0.029,0.137,0.049,0.088,0.039,0.0,0.039
0.39,-0.137,-0.039,0.098,0.088,-0.117,0.029,0.137,0.049,0.088,0.039,0.0,0.039
0.392,-0.142,-0.044,0.098,0.093,-0.122,0.024,0.137,0.049,0.078,0.029,0.0,0.029
0.394,-0.146,-0.049,0.098,0.098,-0.122,0.024,0.137,0.049,0.078,0.029,0.0,0.029
0.396,-0.151,-0.054,0.098,0.102,-0.127,0.02,0.137,0.049,0.078,0.029,0.0,0.029
0.398,-0.156,-0.059,0.098,0.107,-0.127,0.02,0.137,0.049,0.078,0.029,0.0,0.029
0.4,-0.156,-0.059,0.098,0.107,-0.127,0.02,0.137,0.049,0.088,0.039,0.0,0.029
0.402,-0.156,-0.059,0.098,0.107,-0.127,0.02,0.137,0.049,0.088,0.039,0.0,0.029
0.404,-0.156,-0.059,0.098,0.107,-0.127,0.02,0.137,0.049,0.088,0.039,0.0,0.029
0.406,-0.156,-0.059,0.098,0.107,-0.127,0.02,0.137,0.049,0.088,0.039,0.0,0.029
0.408,-0.151,-0.054,0.098,0.102,-0.127,0.02,0.137,0.049,0.088,0.049,0.0,0.029
0.41,-0.146,-0.049,0.098,0.098,-0.122,0.024,0.137,0.049,0.088,0.049,0.0,0.029
0.412,-0.142,-0.044,0.098,0.093,-0.122,0.024,0.137,0.049,0.088,0.049,0.0,0.029
0.414,-0.137,-0.039,0.098,0.088,-0.117,0.029,0.137,0.049,0.088,0.049,0.0,0.029
0.416,-0.137,-0.029,0.107,0.083,-0.122,0.039,0.137,0.059,0.098,0.049,0.0,0.029
0.418,-0.137,-0.029,0.107,0.083,-0.122,0.039,0.137,0.059,0.098,0.049,0.0,0.029
0.42,-0.137,-0.029,0.107,0.083,-0.122,0.039,0.137,0.059,0.098,0.049,0.0,0.029
0.422,-0.137,-0.029,0.107,0.083,-0.122,0.039,0.137,0.059,0.098,0.049,0.0,0.029
0.424,-0.142,-0.039,0.102,0.093,-0.122,0.029,0.137,0.049,0.088,0.049,0.0,0.029
0.426,-0.146,-0.039,0.107,0.093,-0.127,0.034,0.137,0.049,0.088,0.049,0.0,0.029
0.428,-0.151,-0.039,0.112,0.098,-0.132,0.034,0.137,0.049,0.088,0.049,0.0,0.029
0.43,-0.156,-0.039,0.117,0.098,-0.137,0.039,0.137,0.049,0.088,0.049,0.0,0.029
0.432,-0.151,-0.029,0.122,0.093,-0.137,0.044,0.146,0.059,0.088,0.059,0.01,0.039
0.434,-0.146,-0.029,0.117,0.088,-0.132,0.044,0.146,0.059,0.088,0.059,0.01,0.039
0.436,-0.142,-0.029,0.112,0.088,-0.127,0.039,0.146,0.059,0.088,0.059,0.01,0.039
0.438,-0.137,-0.029,0.107,0.083,-0.122,0.039,0.146,0.059,0.088,0.059,0.01,0.039
0.44,-0.137,-0.039,0.098,0.088,-0.117,0.029,0.146,0.049,0.088,0.059,0.02,0.049
0.442,-0.137,-0.039,0.098,0.088,-0.117,0.029,0.146,0.049,0.088,0.059,0.02,0.049
0.444,-0.137,-0.039,0.098,0.088,-0.117,0.029,0.146,0.049,0.088,0.059,0.02,0.049
0.446,-0.137,-0.039,0.098,0.088,-0.117,0.029,0.146,0.049,0.088,0.059,0.02,0.049
0.448,-0.146,-0.029,0.117,0.088,-0.132,0.044,0.146,0.049,0.098,0.059,0.02,0.049
0.45,-0.146,-0.029,0.117,0.088,-0.132,0.044,0.146,0.049,0.098,0.059,0.02,0.049
0.452,-0.146,-0.029,0.117,0.088,-0.132,0.044,0.146,0.049,0.098,0.059,0.02,0.049
0.454,-0.146,-0.029,0.117,0.088,-0.132,0.044,0.146,0.049,0.098,0.059,0.02,0.049
0.456,-0.146,-0.029,0.117,0.088,-0.132,0.044,0.146,0.039,0.088,0.049,0.01,0.039
0.458,-0.146,-0.029,0.117,0.088,-0.132,0.044,0.146,0.039,0.088,0.049,0.01,0.039
0.46,-0.146,-0.029,0.117,0.088,-0.132,0.044,0.146,0.039,0.088,0.049,0.01,0.039
0.462,-0.146,-0.029,0.117,0.088,-0.132,0.044,0.146,0.039,0.088,0.049,0.01,0.039
0.464,-0.137,-0.02,0.117,0.078,-0.127,0.049,0.156,0.049,0.098,0.054,0.02,0.044
0.466,-0.137,-0.02,0.117,0.078,-0.127,0.049,0.156,0.049,0.098,0.059,0.02,0.049
0.468,-0.137,-0.02,0.117,0.078,-0.127,0.049,0.156,0.049,0.098,0.063,0.02,0.054
0.47,-0.137,-0.02,0.117,0.078,-0.127,0.049,0.156,0.049,0.098,0.068,0.02,0.059
0.472,-0.151,-0.029,0.122,0.093,-0.137,0.044,0.151,0.044,0.093,0.063,0.015,0.044
0.474,-0.156,-0.039,0.117,0.098,-0.137,0.039,0.146,0.039,0.088,0.059,0.01,0.039
0.476,-0.161,-0.049,0.112,0.107,-0.137,0.029,0.142,0.034,0.083,0.054,0.005,0.034
0.478,-0.166,-0.059,0.107,0.112,-0.137,0.024,0.137,0.029,0.078,0.049,0.0,0.029
0.48,-0.156,-0.054,0.102,0.107,-0.132,0.024,0.137,0.02,0.068,0.049,0.0,0.039
0.482,-0.156,-0.049,0.107,0.102,-0.132,0.029,0.137,0.02,0.068,0.049,0.0,0.039
0.484,-0.156,-0.044,0.112,0.102,-0.137,0.034,0.137,0.02,0.068,0.049,0.0,0.039
0.486,-0.156,-0.039,0.117,0.098,-0.137,0.039,0.137,0.02,0.068,0.049,0.0,0.039
0.488,-0.142,-0.034,0.107,0.088,-0.127,0.034,0.142,0.029,0.078,0.059,0.01,0.049
0.49,-0.137,-0.029,0.107,0.083,-0.122,0.039,0.146,0.029,0.078,0.059,0.01,0.049
0.492,-0.132,-0.024,0.107,0.078,-0.122,0.039,0.151,0.029,0.078,0.059,0.01,0.049
0.494,-0.127,-0.02,0.107,0.073,-0.117,0.044,0.156,0.029,0.078,0.059,0.01,0.049
0.496,-0.137,-0.024,0.112,0.083,-0.127,0.044,0.156,0.039,0.078,0.059,0.01,0.049
0.498,-0.137,-0.029,0.107,0.083,-0.122,0.039,0.156,0.039,0.078,0.059,0.01,0.049
0.5,-0.137,-0.034,0.102,0.088,-0.122,0.034,0.156,0.039,0.078,0.059,0.01,0.049
0.502,-0.137,-0.039,0.098,0.088,-0.117,0.029,0.156,0.039,0.078,0.059,0.01,0.049
0.504,-0.142,-0.039,0.102,0.093,-0.122,0.029,0.146,0.024,0.073,0.054,0.0,0.049
0.506,-0.146,-0.039,0.107,0.093,-0.127,0.034,0.146,0.02,0.068,0.049,0.0,0.049
0.508,-0.151,-0.039,0.112,0.098,-0.132,0.034,0.146,0.015,0.063,0.044,0.0,0.049
0.51,-0.156,-0.039,0.117,0.098,-0.137,0.039,0.146,0.01,0.059,0.039,0.0,0.049
0.512,-0.156,-0.044,0.112,0.102,-0.137,0.034,0.137,0.01,0.059,0.039,0.0,0.039
0.514,-0.156,-0.049,0.107,0.102,-0.132,0.029,0.137,0.01,0.059,0.039,0.0,0.039
0.516,-0.156,-0.054,0.102,0.107,-0.132,0.024,0.137,0.01,0.059,0.039,0.0,0.039
0.518,-0.156,-0.059,0.098,0.107,-0.127,0.02,0.137,0.01,0.059,0.039,0.0,0.039
0.52,-0.151,-0.044,0.107,0.098,-0.132,0.029,0.137,0.01,0.049,0.039,0.0,0.039
0.522,-0.146,-0.039,0.107,0.093,-0.127,0.034,0.137,0.01,0.049,0.039,0.0,0.039
0.524,-0.142,-0.034,0.107,0.088,-0.127,0.034,0.137,0.01,0.049,0.039,0.0,0.039
0.526,-0.137,-0.029,0.107,0.083,-0.122,0.039,0.137,0.01,0.049,0.039,0.0,0.039
0.528,-0.146,-0.02,0.127,0.083,-0.137,0.054,0.137,0.01,0.049,0.029,0.0,0.029
0.53,-0.146,-0.02,0.127,0.083,-0.137,0.054,0.137,0.01,0.049,0.029,0.0,0.029
0.532,-0.146,-0.02,0.127,0.083,-0.137,0.054,0.137,0.01,0.049,0.029,0.0,0.029
0.534,-0.146,-0.02,0.127,0.083,-0.137,0.054,0.137,0.01,0.049,0.029,0.0,0.029
0.536,-0.137,-0.024,0.112,0.083,-0.127,0.044,0.146,0.01,0.059,0.039,0.0,0.039
0.538,-0.137,-0.029,0.107,0.083,-0.122,0.039,0.146,0.01,0.059,0.039,0.0,0.039
0.54,-0.137,-0.034,0.102,0.088,-0.122,0.034,0.146,0.01,0.059,0.039,0.0,0.039
0.542,-0.137,-0.039,0.098,0.088,-0.117,0.029,0.146,0.01,0.059,0.039,0.0,0.039
0.544,-0.151,-0.054,0.098,0.102,-0.127,0.02,0.137,0.0,0.049,0.029,0.0,0.049
0.546,-0.156,-0.059,0.098,0.107,-0.127,0.02,0.137,0.0,0.049,0.029,0.0,0.049
0.548,-0.161,-0.063,0.098,0.112,-0.132,0.015,0.137,0.0,0.049,0.029,0.0,0.049
0.55,-0.166,-0.068,0.098,0.117,-0.132,0.015,0.137,0.0,0.049,0.029,0.0,0.049
0.552,-0.161,-0.063,0.098,0.112,-0.132,0.015,0.127,0.0,0.039,0.02,-0.005,0.044
0.554,-0.156,-0.059,0.098,0.107,-0.127,0.02,0.127,0.0,0.039,0.02,-0.01,0.039
0.556,-0.151,-0.054,0.098,0.102,-0.127,0.02,0.127,0.0,0.039,0.02,-0.015,0.034
0.558,-0.146,-0.049,0.098,0.098,-0.122,0.024,0.127,0.0,0.039,0.02,-0.02,0.029
0.56,-0.151,-0.054,0.098,0.102,-0.127,0.02,0.132,0.0,0.039,0.029,-0.02,0.02
0.562,-0.156,-0.059,0.098,0.107,-0.127,0.02,0.137,0.0,0.039,0.029,-0.02,0.02
0.564,-0.161,-0.063,0.098,0.112,-0.132,0.015,0.142,0.0,0.039,0.029,-0.02,0.02
0.566,-0.166,-0.068,0.098,0.117,-0.132,0.015,0.146,0.0,0.039,0.029,-0.02,0.02
0.568,-0.161,-0.063,0.098,0.112,-0.132,0.015,0.146,0.0,0.039,0.029,-0.015,0.024
0.57,-0.156,-0.059,0.098,0.107,-0.127,0.02,0.146,0.0,0.039,0.029,-0.01,0.029
0.572,-0.151,-0.054,0.098,0.102,-0.127,0.02,0.146,0.0,0.039,0.029,-0.005,0.034
0.574,-0.146,-0.049,0.098,0.098,-0.122,0.024,0.146,0.0,0.039,0.029,0.0,0.039
0.576,-0.132,-0.044,0.088,0.088,-0.112,0.02,0.137,0.01,0.049,0.039,0.0,0.039
0.578,-0.127,-0.039,0.088,0.083,-0.107,0.024,0.137,0.01,0.049,0.039,0.0,0.039
0.58,-0.122,-0.034,0.088,0.078,-0.107,0.024,0.137,0.01,0.049,0.039,0.0,0.039
0.582,-0.117,-0.029,0.088,0.073,-0.102,0.029,0.137,0.01,0.049,0.039,0.0,0.039
0.584,-0.132,-0.034,0.098,0.083,-0.117,0.029,0.137,0.0,0.049,0.029,-0.01,0.034
0.586,-0.137,-0.039,0.098,0.088,-0.117,0.029,0.137,0.0,0.049,0.029,-0.01,0.029
0.588,-0.142,-0.044,0.098,0.093,-0.122,0.024,0.137,0.0,0.049,0.029,-0.01,0.024
0.59,-0.146,-0.049,0.098,0.098,-0.122,0.024,0.137,0.0,0.049,0.029,-0.01,0.02
0.592,-0.161,-0.063,0.098,0.112,-0.132,0.015,0.127,-0.01,0.044,0.02,-0.02,0.01
0.594,-0.166,-0.068,0.098,0.117,-0.132,0.015,0.127,-0.01,0.039,0.02,-0.02,0.01
0.596,-0.171,-0.073,0.098,0.122,-0.137,0.01,0.127,-0.01,0.034,0.02,-0.02,0.01
0.598,-0.176,-0.078,0.098,0.127,-0.137,0.01,0.127,-0.01,0.029,0.02,-0.02,0.01
0.6,-0.166,-0.068,0.098,0.117,-0.132,0.015,0.127,-0.01,0.029,0.02,-0.02,0.02
0.602,-0.166,-0.068,0.098,0.117,-0.132,0.015,0.127,-0.01,0.029,0.02,-0.02,0.02
0.604,-0.166,-0.068,0.098,0.117,-0.132,0.015,0.127,-0.01,0.029,0.02,-0.02,0.02
0.606,-0.166,-0.068,0.098,0.117,-0.132,0.015,0.127,-0.01,0.029,0.02,-0.02,0.02
0.608,-0.151,-0.054,0.098,0.102,-0.127,0.02,0.127,0.0,0.039,0.02,-0.02,0.02
0.61,-0.146,-0.049,0.098,0.098,-0.122,0.024,0.127,0.0,0.039,0.02,-0.02,0.02
0.612,-0.142,-0.044,0.098,0.093,-0.122,0.024,0.127,0.0,0.039,0.02,-0.02,0.02
0.614,-0.137,-0.039,0.098,0.088,-0.117,0.029,0.127,0.0,0.039,0.02,-0.02,0.02
0.616,-0.137,-0.044,0.093,0.093,-0.117,0.024,0.127,0.0,0.029,0.01,-0.029,0.01
0.618,-0.137,-0.049,0.088,0.093,-0.112,0.02,0.127,0.0,0.029,0.01,-0.029,0.01
0.62,-0.137,-0.054,0.083,0.098,-0.112,0.015,0.127,0.0,0.029,0.01,-0.029,0.01
0.622,-0.137,-0.059,0.078,0.098,-0.107,0.01,0.127,0.0,0.029,0.01,-0.029,0.01
0.624,-0.137,-0.059,0.078,0.098,-0.107,0.01,0.137,0.0,0.039,0.02,-0.02,0.02
0.626,-0.137,-0.059,0.078,0.098,-0.107,0.01,0.132,0.0,0.039,0.02,-0.024,0.02
0.628,-0.142,-0.059,0.083,0.102,-0.112,0.01,0.132,0.0,0.039,0.02,-0.024,0.02
0.63,-0.142,-0.049,0.093,0.098,-0.117,0.02,0.132,0.0,0.039,0.02,-0.024,0.02
0.632,-0.137,-0.054,0.083,0.098,-0.112,0.015,0.137,0.0,0.039,0.02,-0.015,0.02
0.634,-0.142,-0.059,0.083,0.102,-0.112,0.01,0.137,0.0,0.039,0.02,-0.015,0.02
0.636,-0.151,-0.068,0.083,0.112,-0.117,0.005,0.137,0.0,0.044,0.024,-0.01,0.02
0.638,-0.156,-0.073,0.083,0.117,-0.122,0.005,0.142,0.005,0.044,0.024,-0.01,0.02
0.64,-0.156,-0.044,0.112,0.102,-0.137,0.034,0.137,-0.005,0.044,0.015,-0.01,0.02
0.642,-0.156,-0.039,0.117,0.098,-0.137,0.039,0.137,0.005,0.044,0.015,0.0,0.024
0.644,-0.156,-0.034,0.122,0.098,-0.142,0.044,0.137,0.01,0.039,0.024,-0.005,0.029
0.646,-0.156,-0.01,0.146,0.083,-0.151,0.068,0.142,0.015,0.044,0.034,-0.005,0.034
0.648,-0.151,-0.01,0.142,0.083,-0.146,0.063,0.161,0.029,0.059,0.034,-0.01,0.024
0.65,-0.137,-0.01,0.127,0.073,-0.132,0.059,0.161,0.034,0.068,0.039,-0.005,0.024
0.652,-0.137,0.005,0.142,0.068,-0.142,0.073,0.161,0.034,0.073,0.039,-0.005,0.029
0.654,-0.146,0.0,0.146,0.073,-0.146,0.073,0.161,0.039,0.073,0.049,-0.005,0.029
0.656,-0.142,0.005,0.146,0.068,-0.146,0.073,0.156,0.049,0.073,0.059,0.0,0.039
0.658,-0.132,0.024,0.156,0.054,-0.146,0.088,0.156,0.054,0.073,0.054,0.005,0.044
0.66,-0.122,0.029,0.151,0.049,-0.137,0.088,0.161,0.054,0.078,0.054,0.01,0.044
0.662,-0.117,0.034,0.151,0.044,-0.137,0.093,0.161,0.054,0.083,0.059,0.02,0.049
0.664,-0.132,0.02,0.151,0.059,-0.142,0.083,0.171,0.068,0.093,0.063,0.029,0.054
0.666,-0.132,0.02,0.151,0.059,-0.142,0.083,0.176,0.068,0.093,0.073,0.034,0.063
0.668,-0.132,0.02,0.151,0.059,-0.142,0.083,0.176,0.068,0.098,0.078,0.039,0.068
0.67,-0.132,0.02,0.151,0.059,-0.142,0.083,0.176,0.068,0.098,0.083,0.049,0.073
0.672,-0.137,0.029,0.166,0.054,-0.151,0.098,0.166,0.054,0.088,0.073,0.049,0.073
0.674,-0.146,0.024,0.171,0.063,-0.161,0.098,0.156,0.044,0.088,0.073,0.049,0.078
0.676,-0.151,0.015,0.166,0.068,-0.161,0.088,0.146,0.039,0.088,0.073,0.049,0.078
0.678,-0.156,0.01,0.166,0.073,-0.161,0.088,0.137,0.029,0.083,0.068,0.049,0.078
0.68,-0.137,0.024,0.161,0.059,-0.151,0.093,0.132,0.02,0.073,0.059,0.034,0.063
0.682,-0.132,0.034,0.166,0.049,-0.151,0.098,0.132,0.029,0.073,0.059,0.029,0.059
0.684,-0.122,0.044,0.166,0.039,-0.146,0.102,0.132,0.029,0.073,0.059,0.024,0.054
0.686,-0.107,0.078,0.185,0.015,-0.146,0.132,0.127,0.024,0.073,0.063,0.024,0.059
0.688,-0.117,0.073,0.19,0.024,-0.156,0.132,0.127,0.034,0.083,0.068,0.044,0.073
0.69,-0.122,0.068,0.19,0.029,-0.156,0.127,0.132,0.034,0.083,0.068,0.044,0.073
0.692,-0.122,0.063,0.185,0.029,-0.156,0.122,0.132,0.034,0.083,0.068,0.044,0.073
0.694,-0.122,0.063,0.185,0.029,-0.156,0.122,0.127,0.029,0.083,0.068,0.044,0.078
0.696,-0.132,0.054,0.185,0.039,-0.161,0.117,0.112,0.015,0.078,0.068,0.044,0.078
0.698,-0.137,0.059,0.195,0.039,-0.166,0.127,0.112,0.01,0.068,0.059,0.034,0.073
0.7,-0.132,0.059,0.19,0.039,-0.161,0.122,0.112,0.01,0.068,0.054,0.029,0.068
0.702,-0.146,0.049,0.195,0.049,-0.171,0.122,0.112,0.01,0.068,0.054,0.029,0.063
0.704,-0.132,0.049,0.181,0.044,-0.156,0.112,0.117,0.005,0.073,0.059,0.039,0.078
0.706,-0.127,0.049,0.176,0.039,-0.151,0.112,0.127,0.02,0.073,0.059,0.034,0.083
0.708,-0.132,0.044,0.176,0.044,-0.156,0.107,0.132,0.024,0.073,0.059,0.034,0.088
0.71,-0.127,0.029,0.156,0.049,-0.142,0.093,0.142,0.039,0.078,0.059,0.034,0.083
0.712,-0.127,0.01,0.137,0.059,-0.132,0.073,0.142,0.039,0.078,0.044,0.02,0.073
0.714,-0.132,0.0,0.132,0.068,-0.132,0.063,0.142,0.044,0.078,0.044,0.015,0.068
0.716,-0.146,-0.02,0.127,0.083,-0.137,0.054,0.146,0.044,0.078,0.044,0.015,0.059
0.718,-0.151,-0.02,0.132,0.088,-0.142,0.054,0.146,0.044,0.073,0.044,0.01,0.049
0.72,-0.166,-0.029,0.137,0.098,-0.151,0.054,0.132,0.029,0.059,0.044,0.015,0.044
0.722,-0.176,-0.034,0.142,0.107,-0.161,0.054,0.132,0.024,0.054,0.039,0.01,0.044
0.724,-0.19,-0.039,0.151,0.117,-0.171,0.054,0.132,0.02,0.049,0.034,0.005,0.039
0.726,-0.185,-0.039,0.146,0.112,-0.166,0.054,0.132,0.005,0.034,0.02,-0.005,0.029
0.728,-0.176,-0.054,0.122,0.117,-0.151,0.034,0.132,0.005,0.024,0.0,-0.02,0.015
0.73,-0.176,-0.063,0.112,0.122,-0.146,0.024,0.132,0.0,0.02,-0.01,-0.029,0.01
0.732,-0.176,-0.063,0.112,0.122,-0.146,0.024,0.132,0.0,0.02,-0.01,-0.039,0.0
0.734,-0.185,-0.068,0.117,0.127,-0.151,0.024,0.132,-0.005,0.02,-0.01,-0.044,-0.005
0.736,-0.181,-0.083,0.098,0.132,-0.142,0.005,0.142,-0.005,0.02,0.0,-0.044,-0.005
0.738,-0.181,-0.083,0.098,0.132,-0.142,0.005,0.137,0.0,0.015,0.0,-0.044,-0.015
0.74,-0.181,-0.083,0.098,0.132,-0.142,0.005,0.137,0.0,0.015,-0.01,-0.054,-0.015
0.742,-0.185,-0.088,0.098,0.137,-0.142,0.005,0.137,0.0,0.015,-0.01,-0.054,-0.015
0.744,-0.181,-0.083,0.098,0.132,-0.142,0.005,0.122,0.0,0.015,-0.02,-0.054,-0.005
0.746,-0.176,-0.078,0.098,0.127,-0.137,0.01,0.117,-0.01,0.01,-0.02,-0.054,-0.01
0.748,-0.176,-0.078,0.098,0.127,-0.137,0.01,0.117,-0.015,0.005,-0.029,-0.063,-0.015
0.75,-0.171,-0.083,0.088,0.127,-0.132,0.0,0.112,-0.015,0.0,-0.029,-0.063,-0.02
0.752,-0.171,-0.078,0.093,0.127,-0.132,0.005,0.112,-0.005,0.01,-0.029,-0.073,-0.029
0.754,-0.161,-0.083,0.078,0.122,-0.122,-0.005,0.117,0.0,0.015,-0.024,-0.068,-0.02
0.756,-0.166,-0.088,0.078,0.127,-0.122,-0.005,0.122,0.005,0.02,-0.024,-0.068,-0.02
0.758,-0.176,-0.093,0.083,0.137,-0.132,-0.005,0.122,0.005,0.02,-0.024,-0.068,-0.02
0.76,-0.185,-0.093,0.093,0.142,-0.142,0.0,0.122,0.005,0.01,-0.029,-0.059,-0.01
0.762,-0.195,-0.098,0.098,0.146,-0.146,0.0,0.122,0.005,0.015,-0.024,-0.059,-0.01
0.764,-0.195,-0.098,0.098,0.146,-0.146,0.0,0.122,0.005,0.015,-0.024,-0.059,-0.01
0.766,-0.195,-0.098,0.098,0.146,-0.146,0.0,0.122,0.005,0.01,-0.034,-0.059,-0.02
0.768,-0.185,-0.102,0.083,0.146,-0.137,-0.01,0.122,0.0,0.02,-0.024,-0.059,-0.01
0.77,-0.19,-0.107,0.083,0.151,-0.137,-0.015,0.122,0.0,0.02,-0.029,-0.059,-0.01
0.772,-0.19,-0.107,0.083,0.151,-0.137,-0.015,0.122,-0.005,0.015,-0.029,-0.063,-0.01
0.774,-0.19,-0.107,0.083,0.151,-0.137,-0.015,0.122,-0.005,0.015,-0.024,-0.063,-0.01
0.776,-0.181,-0.098,0.083,0.142,-0.132,-0.01,0.127,0.01,0.02,-0.02,-0.068,-0.02
0.778,-0.176,-0.098,0.078,0.137,-0.127,-0.01,0.132,0.01,0.02,-0.02,-0.063,-0.02
0.78,-0.176,-0.093,0.083,0.137,-0.132,-0.005,0.132,0.015,0.024,-0.02,-0.063,-0.02
0.782,-0.181,-0.093,0.088,0.137,-0.137,-0.005,0.132,0.02,0.024,-0.02,-0.063,-0.024
0.784,-0.185,-0.102,0.083,0.146,-0.137,-0.01,0.132,0.024,0.024,-0.02,-0.068,-0.029
0.786,-0.185,-0.093,0.093,0.142,-0.142,0.0,0.127,0.029,0.024,-0.034,-0.078,-0.044
0.788,-0.19,-0.107,0.083,0.151,-0.137,-0.015,0.146,0.049,0.029,-0.039,-0.088,-0.049
0.79,-0.195,-0.142,0.054,0.171,-0.127,-0.044,0.19,0.088,0.059,-0.059,-0.117,-0.063
0.792,-0.195,-0.161,0.034,0.181,-0.117,-0.063,0.224,0.146,0.063,-0.102,-0.181,-0.112
0.794,-0.205,-0.181,0.024,0.195,-0.117,-0.078,0.254,0.22,0.083,-0.117,-0.224,-0.151
0.796,-0.2,-0.2,0.0,0.2,-0.102,-0.102,0.288,0.288,0.127,-0.107,-0.224,-0.171
0.798,-0.185,-0.181,0.005,0.185,-0.098,-0.088,0.288,0.317,0.181,-0.068,-0.2,-0.161
0.8,-0.161,-0.117,0.044,0.142,-0.102,-0.039,0.273,0.327,0.21,-0.015,-0.142,-0.117
0.802,-0.161,-0.093,0.068,0.127,-0.117,-0.015,0.283,0.346,0.254,0.044,-0.068,-0.059
0.804,-0.146,-0.083,0.063,0.117,-0.107,-0.01,0.293,0.434,0.346,0.117,0.0,-0.01
0.806,-0.093,-0.024,0.068,0.059,-0.083,0.02,0.298,0.547,0.508,0.273,0.127,0.078
0.808,-0.02,0.054,0.073,-0.015,-0.049,0.063,0.268,0.576,0.678,0.522,0.351,0.254
0.81,0.01,0.098,0.088,-0.054,-0.039,0.093,0.181,0.376,0.703,0.747,0.595,0.459
0.812,0.02,0.166,0.146,-0.093,-0.063,0.156,0.078,-0.005,0.571,0.903,0.83,0.634
0.814,0.039,0.254,0.215,-0.146,-0.088,0.234,-0.02,-0.381,0.434,1.064,1.044,0.834
0.816,0.049,0.337,0.288,-0.19,-0.122,0.312,-0.122,-0.712,0.327,1.23,1.274,1.03
0.818,0.068,0.464,0.395,-0.264,-0.166,0.429,-0.229,-0.991,0.254,1.386,1.479,1.191
0.82,0.112,0.61,0.498,-0.361,-0.195,0.551,-0.312,-1.147,0.254,1.537,1.659,1.322
0.822,0.132,0.712,0.581,-0.42,-0.224,0.644,-0.415,-1.269,0.259,1.693,1.835,1.474
0.824,0.156,0.81,0.654,-0.483,-0.249,0.732,-0.571,-1.444,0.229,1.815,1.986,1.591
0.826,0.176,0.932,0.756,-0.551,-0.293,0.844,-0.708,-1.596,0.176,1.889,2.074,1.679
0.828,0.161,0.981,0.82,-0.571,-0.332,0.898,-0.771,-1.688,0.098,1.85,2.064,1.708
0.83,0.117,0.942,0.825,-0.527,-0.356,0.883,-0.781,-1.732,-0.015,1.664,1.893,1.62
0.832,0.073,0.844,0.771,-0.459,-0.351,0.805,-0.747,-1.728,-0.137,1.396,1.615,1.43
0.834,0.01,0.688,0.678,-0.346,-0.337,0.683,-0.693,-1.674,-0.239,1.122,1.332,1.205
0.836,-0.102,0.522,0.625,-0.21,-0.366,0.571,-0.644,-1.649,-0.4,0.82,1.03,0.981
0.838,-0.195,0.454,0.649,-0.127,-0.425,0.551,-0.615,-1.669,-0.644,0.439,0.712,0.747
0.84,-0.273,0.381,0.654,-0.054,-0.464,0.517,-0.571,-1.649,-0.903,-0.005,0.312,0.449
0.842,-0.351,0.239,0.59,0.059,-0.473,0.415,-0.493,-1.537,-1.098,-0.459,-0.112,0.122
0.844,-0.41,0.122,0.532,0.146,-0.473,0.327,-0.415,-1.376,-1.157,-0.732,-0.395,-0.112
0.846,-0.4,0.068,0.468,0.166,-0.434,0.268,-0.337,-1.166,-1.03,-0.742,-0.468,-0.2
0.848,-0.376,-0.015,0.361,0.195,-0.371,0.171,-0.268,-0.922,-0.8,-0.59,-0.415,-0.205
0.85,-0.346,-0.068,0.278,0.21,-0.312,0.102,-0.21,-0.722,-0.61,-0.459,-0.346,-0.176
0.852,-0.283,-0.039,0.244,0.161,-0.264,0.102,-0.137,-0.561,-0.459,-0.351,-0.268,-0.122
0.854,-0.224,-0.005,0.22,0.117,-0.224,0.107,-0.068,-0.395,-0.307,-0.239,-0.19,-0.088
0.856,-0.215,-0.02,0.195,0.117,-0.205,0.088,-0.015,-0.254,-0.185,-0.132,-0.127,-0.044
0.858,-0.22,-0.015,0.205,0.117,-0.215,0.093,0.01,-0.171,-0.117,-0.088,-0.098,-0.039
0.86,-0.21,-0.005,0.205,0.107,-0.21,0.098,0.039,-0.112,-0.059,-0.068,-0.078,-0.039
0.862,-0.22,-0.049,0.171,0.137,-0.195,0.059,0.073,-0.044,0.0,-0.034,-0.063,-0.034
0.864,-0.215,-0.068,0.146,0.142,-0.181,0.039,0.102,0.005,0.039,-0.02,-0.054,-0.034
0.866,-0.195,-0.049,0.146,0.122,-0.171,0.049,0.112,0.024,0.054,-0.015,-0.054,-0.024
0.868,-0.2,-0.049,0.151,0.127,-0.176,0.049,0.137,0.054,0.073,-0.01,-0.049,-0.005
0.87,-0.205,-0.073,0.132,0.142,-0.171,0.029,0.161,0.073,0.088,0.01,-0.044,0.0
0.872,-0.21,-0.068,0.142,0.142,-0.176,0.034,0.171,0.088,0.098,0.015,-0.039,0.0
0.874,-0.2,-0.073,0.127,0.137,-0.166,0.024,0.181,0.112,0.112,0.024,-0.034,0.0
0.876,-0.205,-0.088,0.117,0.146,-0.161,0.015,0.2,0.142,0.132,0.024,-0.034,0.0
0.878,-0.19,-0.078,0.112,0.137,-0.151,0.015,0.2,0.151,0.132,0.015,-0.039,-0.01
0.88,-0.185,-0.078,0.107,0.132,-0.146,0.015,0.195,0.161,0.137,0.015,-0.044,-0.015
0.882,-0.181,-0.078,0.102,0.132,-0.142,0.01,0.19,0.171,0.146,0.015,-0.044,-0.02
0.884,-0.181,-0.088,0.093,0.137,-0.137,0.0,0.185,0.171,0.146,0.015,-0.044,-0.029
0.886,-0.195,-0.098,0.098,0.146,-0.146,0.0,0.176,0.166,0.142,0.01,-0.068,-0.044
0.888,-0.21,-0.102,0.107,0.156,-0.161,0.0,0.171,0.171,0.142,0.01,-0.063,-0.044
0.89,-0.215,-0.117,0.098,0.166,-0.156,-0.01,0.171,0.171,0.146,0.015,-0.059,-0.039
0.892,-0.21,-0.102,0.107,0.156,-0.161,0.0,0.166,0.171,0.146,0.02,-0.059,-0.044
0.894,-0.195,-0.088,0.107,0.142,-0.151,0.01,0.181,0.19,0.161,0.029,-0.049,-0.029
0.896,-0.2,-0.088,0.112,0.146,-0.156,0.01,0.195,0.21,0.176,0.034,-0.044,-0.024
0.898,-0.185,-0.088,0.098,0.137,-0.142,0.005,0.2,0.215,0.181,0.039,-0.039,-0.02
0.9,-0.176,-0.088,0.088,0.132,-0.132,0.0,0.21,0.229,0.19,0.044,-0.034,-0.015
0.902,-0.161,-0.098,0.063,0.132,-0.112,-0.02,0.21,0.234,0.205,0.054,-0.024,0.005
0.904,-0.156,-0.098,0.059,0.127,-0.107,-0.02,0.215,0.234,0.21,0.054,-0.02,0.005
0.906,-0.151,-0.088,0.063,0.122,-0.107,-0.015,0.215,0.239,0.21,0.054,-0.02,0.005
0.908,-0.151,-0.088,0.063,0.122,-0.107,-0.015,0.215,0.249,0.224,0.063,-0.01,0.005
0.91,-0.166,-0.088,0.078,0.127,-0.122,-0.005,0.215,0.239,0.224,0.068,-0.005,0.005
0.912,-0.171,-0.088,0.083,0.132,-0.127,-0.005,0.215,0.239,0.22,0.068,-0.005,0.005
0.914,-0.171,-0.088,0.083,0.132,-0.127,-0.005,0.22,0.244,0.224,0.068,0.0,0.01
0.916,-0.166,-0.088,0.078,0.127,-0.122,-0.005,0.22,0.254,0.224,0.078,0.005,0.015
0.918,-0.171,-0.093,0.078,0.132,-0.127,-0.01,0.215,0.264,0.234,0.078,-0.005,0.01
0.92,-0.166,-0.093,0.073,0.132,-0.122,-0.01,0.215,0.273,0.234,0.078,-0.005,0.005
0.922,-0.171,-0.098,0.073,0.137,-0.122,-0.015,0.215,0.278,0.244,0.083,0.0,0.005
0.924,-0.181,-0.112,0.068,0.146,-0.127,-0.024,0.215,0.278,0.244,0.083,0.0,0.0
0.926,-0.176,-0.098,0.078,0.137,-0.127,-0.01,0.215,0.268,0.234,0.078,0.0,-0.005
0.928,-0.176,-0.093,0.083,0.137,-0.132,-0.005,0.215,0.273,0.234,0.078,0.005,-0.005
0.93,-0.171,-0.083,0.088,0.127,-0.132,0.0,0.215,0.283,0.249,0.083,0.01,0.0
0.932,-0.166,-0.068,0.098,0.117,-0.132,0.015,0.215,0.283,0.254,0.083,0.01,0.0
0.934,-0.156,-0.068,0.088,0.112,-0.122,0.01,0.215,0.293,0.264,0.107,0.024,0.015
0.936,-0.156,-0.068,0.088,0.112,-0.122,0.01,0.224,0.298,0.273,0.117,0.029,0.024
0.938,-0.151,-0.068,0.083,0.112,-0.117,0.005,0.224,0.307,0.283,0.122,0.029,0.029
0.94,-0.151,-0.059,0.093,0.107,-0.122,0.015,0.22,0.312,0.293,0.127,0.029,0.039
0.942,-0.161,-0.083,0.078,0.122,-0.122,-0.005,0.22,0.322,0.293,0.122,0.024,0.029
0.944,-0.161,-0.083,0.078,0.122,-0.122,-0.005,0.22,0.322,0.298,0.127,0.024,0.024
0.946,-0.151,-0.073,0.078,0.112,-0.117,0.0,0.22,0.322,0.303,0.132,0.024,0.02
0.948,-0.151,-0.073,0.078,0.112,-0.117,0.0,0.224,0.332,0.307,0.142,0.024,0.015
0.95,-0.146,-0.083,0.063,0.117,-0.107,-0.01,0.215,0.337,0.327,0.137,0.024,0.015
0.952,-0.146,-0.068,0.078,0.107,-0.112,0.005,0.215,0.351,0.332,0.137,0.029,0.015
0.954,-0.146,-0.068,0.078,0.107,-0.112,0.005,0.215,0.356,0.337,0.146,0.029,0.015
0.956,-0.142,-0.073,0.068,0.107,-0.107,-0.005,0.215,0.361,0.351,0.151,0.034,0.02
0.958,-0.132,-0.073,0.059,0.102,-0.098,-0.01,0.215,0.361,0.356,0.161,0.039,0.02
0.96,-0.132,-0.068,0.063,0.102,-0.098,-0.005,0.22,0.366,0.361,0.166,0.044,0.02
0.962,-0.132,-0.068,0.063,0.102,-0.098,-0.005,0.224,0.381,0.376,0.181,0.049,0.029
0.964,-0.127,-0.068,0.059,0.098,-0.093,-0.005,0.224,0.395,0.381,0.181,0.059,0.029
0.966,-0.137,-0.059,0.078,0.098,-0.107,0.01,0.224,0.386,0.376,0.171,0.059,0.02
0.968,-0.137,-0.059,0.078,0.098,-0.107,0.01,0.224,0.395,0.386,0.181,0.063,0.029
0.97,-0.137,-0.059,0.078,0.098,-0.107,0.01,0.224,0.41,0.395,0.195,0.068,0.034
0.972,-0.132,-0.049,0.083,0.093,-0.107,0.015,0.229,0.415,0.4,0.205,0.078,0.039
0.974,-0.127,-0.059,0.068,0.093,-0.098,0.005,0.22,0.434,0.425,0.21,0.088,0.044
0.976,-0.127,-0.059,0.068,0.093,-0.098,0.005,0.22,0.444,0.449,0.234,0.098,0.049
0.978,-0.122,-0.054,0.068,0.088,-0.098,0.005,0.22,0.459,0.449,0.239,0.107,0.054
0.98,-0.117,-0.044,0.073,0.083,-0.098,0.015,0.22,0.468,0.459,0.244,0.107,0.059
0.982,-0.107,-0.039,0.068,0.073,-0.088,0.015,0.224,0.473,0.473,0.259,0.117,0.073
0.984,-0.098,-0.024,0.073,0.063,-0.088,0.024,0.224,0.488,0.488,0.268,0.122,0.083
0.986,-0.088,-0.02,0.068,0.054,-0.078,0.024,0.224,0.498,0.498,0.278,0.132,0.093
0.988,-0.083,-0.015,0.068,0.049,-0.078,0.024,0.229,0.512,0.517,0.293,0.146,0.102
0.99,-0.093,-0.015,0.078,0.054,-0.088,0.029,0.229,0.522,0.542,0.312,0.161,0.102
0.992,-0.088,-0.01,0.078,0.049,-0.083,0.034,0.229,0.537,0.547,0.327,0.166,0.102
0.994,-0.088,-0.005,0.083,0.049,-0.088,0.039,0.224,0.537,0.561,0.337,0.176,0.107
0.996,-0.088,0.005,0.093,0.044,-0.093,0.049,0.224,0.551,0.581,0.356,0.181,0.117
0.998,-0.078,0.01,0.088,0.034,-0.083,0.049,0.224,0.576,0.6,0.376,0.2,0.132
1.0,-0.068,0.02,0.088,0.024,-0.078,0.054,0.224,0.59,0.63,0.39,0.215,0.137
1.002,-0.063,0.024,0.088,0.02,-0.078,0.054,0.224,0.605,0.649,0.42,0.239,0.156
1.004,-0.063,0.029,0.093,0.02,-0.078,0.059,0.224,0.62,0.669,0.434,0.254,0.166
1.006,-0.063,0.024,0.088,0.02,-0.078,0.054,0.224,0.62,0.678,0.444,0.264,0.181
1.008,-0.054,0.02,0.073,0.02,-0.063,0.044,0.224,0.63,0.693,0.468,0.283,0.19
1.01,-0.054,0.024,0.078,0.015,-0.068,0.049,0.224,0.644,0.712,0.483,0.298,0.21
1.012,-0.059,0.034,0.093,0.015,-0.078,0.063,0.22,0.654,0.712,0.488,0.317,0.22
1.014,-0.063,0.049,0.112,0.01,-0.088,0.078,0.205,0.673,0.742,0.512,0.327,0.224
1.016,-0.063,0.049,0.112,0.01,-0.088,0.078,0.2,0.673,0.756,0.522,0.337,0.229
1.018,-0.063,0.059,0.122,0.005,-0.093,0.088,0.2,0.678,0.771,0.537,0.346,0.234
1.02,-0.059,0.073,0.132,-0.005,-0.098,0.102,0.19,0.683,0.786,0.551,0.351,0.239
1.022,-0.044,0.088,0.132,-0.02,-0.088,0.107,0.19,0.688,0.791,0.576,0.381,0.264
1.024,-0.034,0.102,0.137,-0.034,-0.088,0.117,0.185,0.693,0.8,0.59,0.395,0.273
1.026,-0.029,0.127,0.156,-0.049,-0.093,0.142,0.181,0.688,0.815,0.605,0.405,0.283
1.028,-0.029,0.132,0.161,-0.049,-0.098,0.146,0.176,0.688,0.82,0.62,0.425,0.307
1.03,-0.039,0.122,0.161,-0.039,-0.102,0.142,0.176,0.698,0.825,0.625,0.459,0.322
1.032,-0.029,0.132,0.161,-0.049,-0.098,0.146,0.171,0.698,0.825,0.63,0.459,0.327
1.034,-0.024,0.146,0.171,-0.059,-0.098,0.156,0.166,0.698,0.83,0.644,0.464,0.327
1.036,-0.02,0.151,0.171,-0.063,-0.098,0.161,0.161,0.688,0.839,0.659,0.468,0.337
1.038,-0.029,0.151,0.181,-0.059,-0.107,0.166,0.166,0.683,0.839,0.659,0.468,0.332
1.04,-0.029,0.151,0.181,-0.059,-0.107,0.166,0.161,0.683,0.834,0.654,0.473,0.337
1.042,-0.029,0.146,0.176,-0.059,-0.102,0.161,0.156,0.678,0.834,0.649,0.473,0.342
1.044,-0.039,0.142,0.181,-0.049,-0.112,0.161,0.151,0.673,0.834,0.644,0.468,0.342
1.046,-0.039,0.137,0.176,-0.049,-0.107,0.156,0.137,0.664,0.82,0.634,0.459,0.332
1.048,-0.034,0.146,0.181,-0.054,-0.107,0.161,0.132,0.654,0.815,0.639,0.464,0.346
1.05,-0.034,0.146,0.181,-0.054,-0.107,0.161,0.132,0.634,0.81,0.639,0.464,0.351
1.052,-0.034,0.146,0.181,-0.054,-0.107,0.161,0.117,0.615,0.8,0.625,0.464,0.351
1.054,-0.044,0.151,0.195,-0.054,-0.122,0.171,0.117,0.62,0.791,0.634,0.468,0.361
1.056,-0.039,0.146,0.185,-0.054,-0.112,0.166,0.117,0.61,0.791,0.634,0.473,0.366
1.058,-0.039,0.146,0.185,-0.054,-0.112,0.166,0.112,0.595,0.766,0.62,0.468,0.366
1.06,-0.039,0.142,0.181,-0.049,-0.112,0.161,0.112,0.581,0.752,0.61,0.468,0.356
1.062,-0.034,0.146,0.181,-0.054,-0.107,0.161,0.117,0.566,0.752,0.6,0.459,0.351
1.064,-0.029,0.156,0.185,-0.063,-0.107,0.171,0.117,0.556,0.737,0.586,0.439,0.351
1.066,-0.024,0.166,0.19,-0.068,-0.107,0.176,0.112,0.542,0.712,0.571,0.425,0.342
1.068,-0.024,0.171,0.195,-0.073,-0.112,0.181,0.112,0.517,0.688,0.551,0.41,0.337
1.07,-0.039,0.142,0.181,-0.049,-0.112,0.161,0.122,0.512,0.669,0.532,0.405,0.312
1.072,-0.049,0.137,0.185,-0.044,-0.117,0.161,0.122,0.493,0.639,0.503,0.381,0.298
1.074,-0.054,0.132,0.185,-0.039,-0.122,0.156,0.122,0.468,0.605,0.478,0.356,0.283
1.076,-0.063,0.117,0.181,-0.024,-0.122,0.146,0.122,0.454,0.586,0.454,0.342,0.268
1.078,-0.063,0.107,0.171,-0.02,-0.117,0.137,0.127,0.415,0.561,0.429,0.322,0.244
1.08,-0.073,0.102,0.176,-0.015,-0.127,0.137,0.127,0.4,0.532,0.4,0.303,0.239
1.082,-0.078,0.098,0.176,-0.01,-0.127,0.137,0.132,0.386,0.508,0.386,0.288,0.234
1.084,-0.078,0.093,0.171,-0.005,-0.127,0.132,0.137,0.376,0.493,0.366,0.268,0.229
1.086,-0.093,0.093,0.185,0.0,-0.142,0.137,0.137,0.351,0.464,0.337,0.244,0.195
1.088,-0.102,0.088,0.19,0.01,-0.146,0.137,0.146,0.332,0.444,0.317,0.224,0.181
1.09,-0.102,0.068,0.171,0.02,-0.137,0.117,0.146,0.322,0.415,0.303,0.2,0.171
1.092,-0.112,0.063,0.176,0.024,-0.146,0.117,0.146,0.298,0.386,0.273,0.181,0.156
1.094,-0.117,0.054,0.171,0.034,-0.146,0.112,0.142,0.278,0.366,0.254,0.166,0.142
1.096,-0.122,0.044,0.166,0.039,-0.146,0.102,0.142,0.268,0.342,0.239,0.151,0.127
1.098,-0.127,0.039,0.166,0.044,-0.146,0.102,0.146,0.259,0.317,0.215,0.132,0.107
1.1,-0.137,0.039,0.176,0.049,-0.156,0.107,0.146,0.239,0.298,0.19,0.117,0.093
1.102,-0.151,0.02,0.171,0.068,-0.161,0.093,0.146,0.22,0.293,0.185,0.112,0.088
1.104,-0.156,0.01,0.166,0.073,-0.161,0.088,0.146,0.21,0.278,0.171,0.098,0.088
1.106,-0.166,0.0,0.166,0.083,-0.166,0.083,0.146,0.19,0.264,0.156,0.088,0.073
1.108,-0.176,-0.02,0.156,0.098,-0.166,0.068,0.146,0.176,0.249,0.146,0.078,0.073
1.11,-0.181,-0.029,0.151,0.107,-0.166,0.059,0.151,0.166,0.22,0.132,0.063,0.059
1.112,-0.181,-0.024,0.156,0.102,-0.171,0.063,0.156,0.161,0.2,0.117,0.039,0.039
1.114,-0.176,-0.02,0.156,0.098,-0.166,0.068,0.161,0.151,0.195,0.102,0.034,0.034
1.116,-0.171,-0.024,0.146,0.098,-0.161,0.059,0.171,0.142,0.195,0.083,0.024,0.034
1.118,-0.171,-0.015,0.156,0.093,-0.166,0.068,0.171,0.142,0.185,0.078,0.015,0.02
1.12,-0.171,-0.015,0.156,0.093,-0.166,0.068,0.171,0.127,0.181,0.068,0.005,0.005
1.122,-0.171,-0.02,0.151,0.098,-0.161,0.063,0.171,0.127,0.171,0.063,0.0,0.005
1.124,-0.176,-0.024,0.151,0.102,-0.166,0.063,0.171,0.127,0.166,0.054,-0.005,0.0
1.126,-0.185,-0.034,0.151,0.112,-0.171,0.059,0.166,0.122,0.146,0.049,-0.015,-0.01
1.128,-0.19,-0.039,0.151,0.117,-0.171,0.054,0.166,0.117,0.146,0.049,-0.02,-0.01
1.13,-0.19,-0.049,0.142,0.122,-0.166,0.044,0.171,0.112,0.146,0.044,-0.024,-0.01
1.132,-0.185,-0.039,0.146,0.112,-0.166,0.054,0.171,0.112,0.142,0.034,-0.044,-0.02
1.134,-0.19,-0.049,0.142,0.122,-0.166,0.044,0.171,0.107,0.137,0.034,-0.034,-0.024
1.136,-0.2,-0.059,0.142,0.132,-0.171,0.039,0.166,0.098,0.127,0.029,-0.044,-0.024
1.138,-0.21,-0.063,0.146,0.137,-0.181,0.039,0.166,0.098,0.117,0.029,-0.044,-0.029
1.14,-0.215,-0.068,0.146,0.142,-0.181,0.039,0.166,0.098,0.112,0.024,-0.044,-0.029
1.142,-0.22,-0.068,0.151,0.146,-0.185,0.039,0.166,0.107,0.117,0.024,-0.039,-0.024
1.144,-0.22,-0.068,0.151,0.146,-0.185,0.039,0.166,0.098,0.112,0.024,-0.039,-0.02
1.146,-0.22,-0.063,0.156,0.142,-0.19,0.044,0.161,0.098,0.112,0.02,-0.034,-0.02
1.148,-0.22,-0.063,0.156,0.142,-0.19,0.044,0.161,0.098,0.112,0.02,-0.029,-0.015
1.15,-0.22,-0.083,0.137,0.151,-0.181,0.024,0.161,0.088,0.107,0.02,-0.044,-0.024
1.152,-0.22,-0.073,0.146,0.146,-0.185,0.034,0.166,0.083,0.107,0.01,-0.044,-0.024
1.154,-0.215,-0.073,0.142,0.146,-0.181,0.034,0.166,0.083,0.102,0.01,-0.044,-0.024
1.156,-0.215,-0.073,0.142,0.146,-0.181,0.034,0.166,0.083,0.102,0.015,-0.044,-0.024
1.158,-0.21,-0.063,0.146,0.137,-0.181,0.039,0.156,0.073,0.102,0.015,-0.034,-0.024
1.16,-0.21,-0.063,0.146,0.137,-0.181,0.039,0.151,0.068,0.093,0.01,-0.044,-0.034
1.162,-0.215,-0.068,0.146,0.142,-0.181,0.039,0.151,0.068,0.093,0.01,-0.044,-0.034
1.164,-0.215,-0.068,0.146,0.142,-0.181,0.039,0.151,0.073,0.093,0.01,-0.044,-0.029
1.166,-0.205,-0.054,0.151,0.132,-0.181,0.049,0.156,0.083,0.093,0.01,-0.059,-0.039
1.168,-0.2,-0.054,0.146,0.127,-0.176,0.044,0.161,0.083,0.093,0.005,-0.054,-0.039
1.17,-0.195,-0.054,0.142,0.127,-0.171,0.044,0.166,0.078,0.102,0.0,-0.059,-0.034
1.172,-0.19,-0.054,0.137,0.122,-0.166,0.039,0.171,0.078,0.102,-0.005,-0.068,-0.034
1.174,-0.195,-0.068,0.127,0.132,-0.161,0.029,0.166,0.068,0.083,0.005,-0.063,-0.039
1.176,-0.205,-0.073,0.132,0.142,-0.171,0.029,0.161,0.068,0.083,0.005,-0.059,-0.039
1.178,-0.21,-0.073,0.137,0.142,-0.176,0.029,0.151,0.068,0.083,0.0,-0.054,-0.039
1.18,-0.215,-0.068,0.146,0.142,-0.181,0.039,0.146,0.063,0.078,0.0,-0.054,-0.039
1.182,-0.205,-0.059,0.146,0.132,-0.176,0.044,0.156,0.073,0.083,0.0,-0.054,-0.039
1.184,-0.2,-0.059,0.142,0.132,-0.171,0.039,0.156,0.078,0.088,0.0,-0.054,-0.039
1.186,-0.19,-0.059,0.132,0.127,-0.161,0.034,0.156,0.078,0.093,0.0,-0.054,-0.049
1.188,-0.185,-0.059,0.127,0.122,-0.156,0.034,0.156,0.078,0.098,0.005,-0.054,-0.039
1.19,-0.181,-0.059,0.122,0.122,-0.151,0.029,0.156,0.078,0.093,0.015,-0.054,-0.034
1.192,-0.171,-0.054,0.117,0.112,-0.146,0.029,0.161,0.078,0.093,0.015,-0.049,-0.029
1.194,-0.171,-0.054,0.117,0.112,-0.146,0.029,0.161,0.078,0.093,0.015,-0.044,-0.024
1.196,-0.176,-0.063,0.112,0.122,-0.146,0.024,0.161,0.078,0.093,0.015,-0.044,-0.02
1.198,-0.185,-0.073,0.112,0.132,-0.151,0.02,0.156,0.073,0.093,0.005,-0.054,-0.034
1.2,-0.185,-0.068,0.117,0.127,-0.151,0.024,0.156,0.073,0.093,0.0,-0.054,-0.039
1.202,-0.185,-0.068,0.117,0.127,-0.151,0.024,0.156,0.078,0.098,0.0,-0.054,-0.044
1.204,-0.185,-0.073,0.112,0.132,-0.151,0.02,0.156,0.078,0.098,0.0,-0.063,-0.049
1.206,-0.195,-0.068,0.127,0.132,-0.161,0.029,0.156,0.068,0.083,-0.005,-0.078,-0.063
1.208,-0.19,-0.063,0.127,0.127,-0.161,0.029,0.156,0.068,0.083,0.0,-0.078,-0.063
1.21,-0.185,-0.059,0.127,0.122,-0.156,0.034,0.156,0.068,0.088,-0.005,-0.078,-0.063
1.212,-0.185,-0.054,0.132,0.122,-0.161,0.039,0.156,0.068,0.088,-0.02,-0.078,-0.063
1.214,-0.185,-0.063,0.122,0.127,-0.156,0.029,0.156,0.073,0.088,-0.01,-0.063,-0.059
1.216,-0.185,-0.068,0.117,0.127,-0.151,0.024,0.156,0.078,0.088,-0.01,-0.063,-0.054
1.218,-0.185,-0.078,0.107,0.132,-0.146,0.015,0.156,0.078,0.088,-0.01,-0.063,-0.049
1.22,-0.185,-0.083,0.102,0.137,-0.146,0.01,0.156,0.073,0.083,-0.015,-0.068,-0.044
1.222,-0.2,-0.088,0.112,0.146,-0.156,0.01,0.161,0.083,0.083,-0.015,-0.068,-0.039
1.224,-0.2,-0.093,0.107,0.146,-0.156,0.005,0.161,0.083,0.083,-0.015,-0.068,-0.049
1.226,-0.2,-0.093,0.107,0.146,-0.156,0.005,0.161,0.083,0.083,-0.02,-0.073,-0.054
1.228,-0.2,-0.088,0.112,0.146,-0.156,0.01,0.161,0.083,0.088,-0.02,-0.073,-0.059
1.23,-0.181,-0.073,0.107,0.127,-0.146,0.015,0.161,0.073,0.088,-0.015,-0.063,-0.059
1.232,-0.176,-0.063,0.112,0.122,-0.146,0.024,0.161,0.078,0.088,-0.01,-0.068,-0.068
1.234,-0.171,-0.054,0.117,0.112,-0.146,0.029,0.161,0.083,0.088,-0.005,-0.068,-0.068
1.236,-0.166,-0.049,0.117,0.107,-0.142,0.034,0.161,0.088,0.098,0.0,-0.059,-0.063
1.238,-0.176,-0.054,0.122,0.117,-0.151,0.034,0.166,0.102,0.098,-0.01,-0.068,-0.054
1.24,-0.181,-0.068,0.112,0.127,-0.146,0.02,0.166,0.107,0.098,-0.01,-0.063,-0.054
1.242,-0.19,-0.088,0.102,0.142,-0.146,0.005,0.171,0.112,0.098,0.0,-0.054,-0.049
1.244,-0.195,-0.093,0.102,0.146,-0.151,0.005,0.171,0.112,0.098,0.0,-0.063,-0.039
1.246,-0.19,-0.083,0.107,0.137,-0.151,0.01,0.166,0.098,0.093,-0.02,-0.083,-0.063
1.248,-0.19,-0.078,0.112,0.137,-0.151,0.015,0.156,0.093,0.083,-0.029,-0.088,-0.068
1.25,-0.185,-0.068,0.117,0.127,-0.151,0.024,0.151,0.088,0.083,-0.034,-0.088,-0.068
1.252,-0.176,-0.059,0.117,0.117,-0.146,0.029,0.142,0.088,0.083,-0.034,-0.088,-0.068
1.254,-0.185,-0.059,0.127,0.122,-0.156,0.034,0.151,0.088,0.098,-0.024,-0.078,-0.073
1.256,-0.176,-0.063,0.112,0.122,-0.146,0.024,0.156,0.098,0.098,-0.02,-0.073,-0.068
1.258,-0.176,-0.063,0.112,0.122,-0.146,0.024,0.156,0.098,0.102,-0.015,-0.063,-0.068
1.26,-0.171,-0.059,0.112,0.117,-0.142,0.024,0.156,0.102,0.102,-0.01,-0.054,-0.068
1.262,-0.156,-0.068,0.088,0.112,-0.122,0.01,0.156,0.102,0.093,-0.01,-0.054,-0.063
1.264,-0.156,-0.059,0.098,0.107,-0.127,0.02,0.161,0.107,0.093,-0.015,-0.054,-0.059
1.266,-0.156,-0.059,0.098,0.107,-0.127,0.02,0.161,0.107,0.093,-0.015,-0.059,-0.059
1.268,-0.166,-0.068,0.098,0.117,-0.132,0.015,0.156,0.107,0.088,-0.015,-0.063,-0.054
1.27,-0.181,-0.068,0.112,0.127,-0.146,0.02,0.156,0.093,0.088,-0.024,-0.078,-0.063
1.272,-0.171,-0.068,0.102,0.122,-0.137,0.015,0.156,0.093,0.088,-0.02,-0.083,-0.068
1.274,-0.166,-0.059,0.107,0.112,-0.137,0.024,0.156,0.093,0.088,-0.02,-0.083,-0.068
1.276,-0.166,-0.054,0.112,0.112,-0.142,0.029,0.161,0.093,0.093,-0.02,-0.088,-0.068
1.278,-0.176,-0.068,0.107,0.122,-0.142,0.02,0.151,0.098,0.093,-0.01,-0.083,-0.068
1.28,-0.171,-0.073,0.098,0.122,-0.137,0.01,0.151,0.098,0.098,-0.01,-0.073,-0.068
1.282,-0.171,-0.083,0.088,0.127,-0.132,0.0,0.151,0.098,0.102,-0.005,-0.063,-0.059
1.284,-0.171,-0.088,0.083,0.132,-0.127,-0.005,0.146,0.098,0.102,0.0,-0.059,-0.059
1.286,-0.166,-0.078,0.088,0.122,-0.127,0.005,0.146,0.098,0.093,-0.01,-0.063,-0.049
1.288,-0.166,-0.078,0.088,0.122,-0.127,0.005,0.146,0.102,0.093,-0.015,-0.063,-0.049
1.29,-0.161,-0.073,0.088,0.117,-0.127,0.005,0.146,0.102,0.093,-0.015,-0.063,-0.049
1.292,-0.146,-0.059,0.088,0.102,-0.117,0.015,0.146,0.098,0.088,-0.015,-0.063,-0.054
1.294,-0.156,-0.049,0.107,0.102,-0.132,0.029,0.146,0.088,0.088,-0.015,-0.063,-0.054
1.296,-0.156,-0.059,0.098,0.107,-0.127,0.02,0.146,0.088,0.088,-0.02,-0.063,-0.054
1.298,-0.156,-0.059,0.098,0.107,-0.127,0.02,0.142,0.088,0.088,-0.02,-0.063,-0.059
1.3,-0.151,-0.049,0.102,0.102,-0.127,0.024,0.142,0.088,0.088,-0.02,-0.063,-0.059
1.302,-0.146,-0.054,0.093,0.102,-0.122,0.02,0.142,0.098,0.088,-0.015,-0.059,-0.049
1.304,-0.146,-0.049,0.098,0.098,-0.122,0.024,0.146,0.098,0.093,-0.01,-0.054,-0.049
1.306,-0.142,-0.039,0.102,0.093,-0.122,0.029,0.146,0.098,0.093,0.0,-0.054,-0.054
1.308,-0.137,-0.034,0.102,0.088,-0.122,0.034,0.142,0.098,0.093,0.005,-0.054,-0.054
1.31,-0.151,-0.049,0.102,0.102,-0.127,0.024,0.132,0.098,0.093,-0.005,-0.054,-0.034
1.312,-0.151,-0.049,0.102,0.102,-0.127,0.024,0.132,0.098,0.088,-0.01,-0.054,-0.044
1.314,-0.156,-0.054,0.102,0.107,-0.132,0.024,0.132,0.093,0.088,-0.01,-0.054,-0.044
1.316,-0.161,-0.063,0.098,0.112,-0.132,0.015,0.127,0.088,0.088,-0.01,-0.054,-0.044
1.318,-0.151,-0.054,0.098,0.102,-0.127,0.02,0.127,0.078,0.088,-0.015,-0.054,-0.054
1.32,-0.151,-0.049,0.102,0.102,-0.127,0.024,0.127,0.078,0.078,-0.015,-0.063,-0.059
1.322,-0.151,-0.049,0.102,0.102,-0.127,0.024,0.127,0.078,0.088,-0.01,-0.054,-0.054
1.324,-0.156,-0.049,0.107,0.102,-0.132,0.029,0.132,0.078,0.088,-0.01,-0.054,-0.059
1.326,-0.156,-0.059,0.098,0.107,-0.127,0.02,0.122,0.078,0.088,-0.01,-0.054,-0.059
1.328,-0.161,-0.063,0.098,0.112,-0.132,0.015,0.117,0.073,0.088,-0.01,-0.049,-0.054
1.33,-0.161,-0.063,0.098,0.112,-0.132,0.015,0.117,0.073,0.088,-0.01,-0.049,-0.054
1.332,-0.161,-0.063,0.098,0.112,-0.132,0.015,0.117,0.073,0.083,-0.005,-0.049,-0.059
1.334,-0.151,-0.049,0.102,0.102,-0.127,0.024,0.117,0.073,0.083,-0.005,-0.039,-0.059
1.336,-0.161,-0.049,0.112,0.107,-0.137,0.029,0.117,0.073,0.083,0.005,-0.039,-0.054
1.338,-0.142,-0.044,0.098,0.093,-0.122,0.024,0.117,0.073,0.083,0.005,-0.044,-0.049
1.34,-0.127,-0.044,0.083,0.088,-0.107,0.02,0.112,0.068,0.078,-0.005,-0.044,-0.044
1.342,-0.137,-0.044,0.093,0.093,-0.117,0.024,0.102,0.068,0.068,-0.024,-0.059,-0.054
1.344,-0.146,-0.049,0.098,0.098,-0.122,0.024,0.102,0.068,0.068,-0.024,-0.063,-0.054
1.346,-0.146,-0.049,0.098,0.098,-0.122,0.024,0.102,0.073,0.063,-0.024,-0.068,-0.059
1.348,-0.151,-0.049,0.102,0.102,-0.127,0.024,0.102,0.073,0.063,-0.024,-0.073,-0.063
1.35,-0.146,-0.054,0.093,0.102,-0.122,0.02,0.112,0.078,0.073,-0.024,-0.063,-0.059
1.352,-0.146,-0.059,0.088,0.102,-0.117,0.015,0.112,0.073,0.068,-0.02,-0.063,-0.054
1.354,-0.142,-0.059,0.083,0.102,-0.112,0.01,0.112,0.073,0.068,-0.02,-0.063,-0.049
1.356,-0.137,-0.068,0.068,0.102,-0.102,0.0,0.112,0.073,0.063,-0.02,-0.063,-0.044
1.358,-0.151,-0.083,0.068,0.117,-0.112,-0.01,0.112,0.059,0.054,-0.024,-0.078,-0.049
1.36,-0.156,-0.059,0.098,0.107,-0.127,0.02,0.112,0.054,0.049,-0.024,-0.078,-0.063
1.362,-0.166,-0.073,0.093,0.122,-0.132,0.01,0.107,0.054,0.044,-0.029,-0.078,-0.068
1.364,-0.181,-0.078,0.102,0.132,-0.142,0.01,0.107,0.059,0.044,-0.029,-0.078,-0.068
1.366,-0.176,-0.073,0.102,0.127,-0.142,0.015,0.098,0.059,0.039,-0.044,-0.088,-0.059
1.368,-0.171,-0.073,0.098,0.122,-0.137,0.01,0.098,0.059,0.039,-0.044,-0.078,-0.049
1.37,-0.166,-0.068,0.098,0.117,-0.132,0.015,0.102,0.059,0.044,-0.039,-0.068,-0.049
1.372,-0.161,-0.059,0.102,0.112,-0.132,0.02,0.102,0.054,0.044,-0.039,-0.078,-0.049
1.374,-0.151,-0.068,0.083,0.112,-0.117,0.005,0.102,0.063,0.044,-0.029,-0.073,-0.049
1.376,-0.151,-0.068,0.083,0.112,-0.117,0.005,0.102,0.063,0.044,-0.034,-0.073,-0.059
1.378,-0.151,-0.068,0.083,0.112,-0.117,0.005,0.098,0.054,0.039,-0.034,-0.083,-0.059
1.38,-0.142,-0.063,0.078,0.102,-0.112,0.005,0.098,0.054,0.034,-0.039,-0.078,-0.059
1.382,-0.151,-0.073,0.078,0.112,-0.117,0.0,0.098,0.049,0.034,-0.049,-0.078,-0.059
1.384,-0.156,-0.088,0.068,0.122,-0.112,-0.01,0.093,0.049,0.029,-0.049,-0.088,-0.068
1.386,-0.156,-0.088,0.068,0.122,-0.112,-0.01,0.093,0.049,0.029,-0.054,-0.098,-0.068
1.388,-0.156,-0.093,0.063,0.127,-0.112,-0.015,0.093,0.049,0.034,-0.054,-0.098,-0.059
1.39,-0.151,-0.078,0.073,0.117,-0.112,-0.005,0.098,0.044,0.024,-0.049,-0.083,-0.068
1.392,-0.151,-0.068,0.083,0.112,-0.117,0.005,0.102,0.044,0.024,-0.044,-0.078,-0.068
1.394,-0.142,-0.059,0.083,0.102,-0.112,0.01,0.102,0.044,0.024,-0.039,-0.078,-0.068
1.396,-0.142,-0.054,0.088,0.098,-0.117,0.015,0.098,0.044,0.024,-0.034,-0.078,-0.068
1.398,-0.142,-0.063,0.078,0.102,-0.112,0.005,0.102,0.044,0.029,-0.039,-0.078,-0.068
1.4,-0.156,-0.063,0.093,0.112,-0.127,0.015,0.098,0.034,0.024,-0.044,-0.078,-0.073
1.402,-0.161,-0.063,0.098,0.112,-0.132,0.015,0.093,0.034,0.02,-0.044,-0.073,-0.073
1.404,-0.161,-0.063,0.098,0.112,-0.132,0.015,0.093,0.039,0.02,-0.044,-0.073,-0.068
1.406,-0.156,-0.059,0.098,0.107,-0.127,0.02,0.088,0.039,0.024,-0.049,-0.083,-0.068
1.408,-0.156,-0.063,0.093,0.112,-0.127,0.015,0.088,0.034,0.024,-0.049,-0.088,-0.068
1.41,-0.156,-0.073,0.083,0.117,-0.122,0.005,0.088,0.034,0.024,-0.054,-0.093,-0.068
1.412,-0.156,-0.078,0.078,0.117,-0.117,0.0,0.088,0.034,0.024,-0.054,-0.098,-0.078
1.414,-0.156,-0.083,0.073,0.122,-0.117,-0.005,0.078,0.024,0.02,-0.059,-0.098,-0.078
1.416,-0.166,-0.088,0.078,0.127,-0.122,-0.005,0.078,0.024,0.015,-0.059,-0.093,-0.073
1.418,-0.166,-0.073,0.093,0.122,-0.132,0.01,0.078,0.024,0.01,-0.059,-0.093,-0.073
1.42,-0.161,-0.068,0.093,0.117,-0.127,0.01,0.078,0.024,0.005,-0.054,-0.088,-0.068
1.422,-0.146,-0.068,0.078,0.107,-0.112,0.005,0.083,0.034,0.015,-0.054,-0.098,-0.073
1.424,-0.137,-0.068,0.068,0.102,-0.102,0.0,0.088,0.034,0.015,-0.054,-0.098,-0.073
1.426,-0.132,-0.054,0.078,0.093,-0.107,0.01,0.093,0.034,0.015,-0.054,-0.098,-0.078
1.428,-0.127,-0.054,0.073,0.093,-0.102,0.01,0.098,0.029,0.005,-0.063,-0.098,-0.083
1.43,-0.137,-0.059,0.078,0.098,-0.107,0.01,0.088,0.02,0.005,-0.054,-0.093,-0.078
1.432,-0.146,-0.073,0.073,0.112,-0.112,0.0,0.088,0.024,0.005,-0.054,-0.093,-0.073
1.434,-0.156,-0.088,0.068,0.122,-0.112,-0.01,0.088,0.024,0.01,-0.049,-0.102,-0.068
1.436,-0.161,-0.098,0.063,0.132,-0.112,-0.02,0.088,0.024,0.01,-0.049,-0.102,-0.063
1.438,-0.156,-0.088,0.068,0.122,-0.112,-0.01,0.088,0.029,0.01,-0.054,-0.093,-0.063
1.44,-0.156,-0.068,0.088,0.112,-0.122,0.01,0.078,0.034,0.015,-0.049,-0.093,-0.063
1.442,-0.161,-0.078,0.083,0.122,-0.122,0.0,0.078,0.034,0.015,-0.049,-0.093,-0.068
1.444,-0.161,-0.083,0.078,0.122,-0.122,-0.005,0.083,0.029,0.01,-0.049,-0.093,-0.068
1.446,-0.156,-0.078,0.078,0.117,-0.117,0.0,0.093,0.029,0.0,-0.054,-0.098,-0.068
1.448,-0.146,-0.063,0.083,0.107,-0.117,0.01,0.093,0.029,0.0,-0.059,-0.093,-0.073
1.45,-0.142,-0.068,0.073,0.107,-0.107,0.0,0.098,0.029,0.0,-0.063,-0.093,-0.078
1.452,-0.132,-0.063,0.068,0.098,-0.102,0.0,0.098,0.029,0.0,-0.063,-0.098,-0.078
1.454,-0.137,-0.063,0.073,0.102,-0.107,0.005,0.088,0.039,0.005,-0.054,-0.083,-0.073
1.456,-0.137,-0.063,0.073,0.102,-0.107,0.005,0.088,0.029,-0.005,-0.063,-0.083,-0.073
1.458,-0.137,-0.068,0.068,0.102,-0.102,0.0,0.088,0.029,-0.005,-0.068,-0.088,-0.078
1.46,-0.137,-0.073,0.063,0.107,-0.102,-0.005,0.088,0.029,-0.005,-0.068,-0.088,-0.078
1.462,-0.137,-0.063,0.073,0.102,-0.107,0.005,0.078,0.029,-0.005,-0.068,-0.107,-0.093
1.464,-0.151,-0.083,0.068,0.117,-0.112,-0.01,0.078,0.029,-0.005,-0.068,-0.107,-0.093
1.466,-0.161,-0.078,0.083,0.122,-0.122,0.0,0.068,0.01,-0.015,-0.073,-0.112,-0.093
1.468,-0.171,-0.093,0.078,0.132,-0.127,-0.01,0.068,0.015,-0.015,-0.073,-0.102,-0.088
1.47,-0.185,-0.127,0.059,0.156,-0.122,-0.034,0.088,0.029,0.0,-0.068,-0.107,-0.088
1.472,-0.176,-0.117,0.059,0.146,-0.117,-0.029,0.088,0.029,0.0,-0.059,-0.102,-0.083
1.474,-0.166,-0.107,0.059,0.137,-0.112,-0.024,0.088,0.029,0.0,-0.059,-0.098,-0.078
1.476,-0.156,-0.098,0.059,0.127,-0.107,-0.02,0.088,0.029,0.0,-0.059,-0.093,-0.073
1.478,-0.146,-0.088,0.059,0.117,-0.102,-0.015,0.088,0.029,0.0,-0.059,-0.088,-0.068
1.48,-0.137,-0.073,0.063,0.107,-0.102,-0.005,0.073,0.029,-0.01,-0.068,-0.093,-0.068
1.482,-0.142,-0.068,0.073,0.107,-0.107,0.0,0.073,0.029,-0.01,-0.068,-0.093,-0.068
1.484,-0.142,-0.054,0.088,0.098,-0.117,0.015,0.073,0.029,-0.01,-0.068,-0.093,-0.068
1.486,-0.132,-0.039,0.093,0.088,-0.112,0.024,0.078,0.029,-0.01,-0.068,-0.093,-0.068
1.488,-0.137,-0.054,0.083,0.098,-0.112,0.015,0.088,0.029,0.0,-0.059,-0.102,-0.073
1.49,-0.146,-0.063,0.083,0.107,-0.117,0.01,0.088,0.029,0.005,-0.054,-0.098,-0.078
1.492,-0.151,-0.068,0.083,0.112,-0.117,0.005,0.093,0.034,0.005,-0.054,-0.098,-0.083
1.494,-0.156,-0.059,0.098,0.107,-0.127,0.02,0.098,0.034,0.01,-0.054,-0.093,-0.078
1.496,-0.156,-0.059,0.098,0.107,-0.127,0.02,0.088,0.034,0.005,-0.054,-0.078,-0.083
1.498,-0.156,-0.059,0.098,0.107,-0.127,0.02,0.088,0.039,0.005,-0.044,-0.078,-0.078
1.5,-0.156,-0.039,0.117,0.098,-0.137,0.039,0.093,0.044,0.015,-0.034,-0.073,-0.073
1.502,-0.151,-0.034,0.117,0.093,-0.137,0.039,0.102,0.049,0.02,-0.024,-0.068,-0.073
1.504,-0.137,-0.02,0.117,0.078,-0.127,0.049,0.102,0.054,0.029,-0.029,-0.054,-0.068
1.506,-0.137,0.0,0.137,0.068,-0.137,0.068,0.102,0.054,0.034,-0.029,-0.054,-0.059
1.508,-0.146,0.0,0.146,0.073,-0.146,0.073,0.102,0.059,0.034,-0.02,-0.054,-0.054
1.51,-0.146,0.0,0.146,0.073,-0.146,0.073,0.107,0.059,0.034,-0.02,-0.054,-0.049
1.512,-0.142,0.01,0.151,0.068,-0.146,0.078,0.098,0.063,0.034,-0.034,-0.059,-0.054
1.514,-0.137,0.005,0.142,0.068,-0.142,0.073,0.102,0.063,0.039,-0.034,-0.063,-0.054
1.516,-0.137,0.0,0.137,0.068,-0.137,0.068,0.102,0.063,0.044,-0.029,-0.063,-0.049
1.518,-0.142,-0.01,0.132,0.078,-0.137,0.059,0.102,0.068,0.044,-0.029,-0.063,-0.049
1.52,-0.151,-0.02,0.132,0.088,-0.142,0.054,0.107,0.059,0.034,-0.024,-0.073,-0.049
1.522,-0.151,-0.02,0.132,0.088,-0.142,0.054,0.107,0.059,0.039,-0.024,-0.073,-0.054
1.524,-0.151,-0.02,0.132,0.088,-0.142,0.054,0.107,0.059,0.039,-0.024,-0.068,-0.059
1.526,-0.151,-0.005,0.146,0.078,-0.151,0.068,0.098,0.054,0.029,-0.024,-0.068,-0.063
1.528,-0.146,0.01,0.156,0.068,-0.151,0.083,0.088,0.044,0.029,-0.024,-0.059,-0.059
1.53,-0.137,0.01,0.146,0.063,-0.142,0.078,0.078,0.039,0.029,-0.024,-0.059,-0.059
1.532,-0.127,0.015,0.142,0.059,-0.137,0.078,0.068,0.029,0.024,-0.029,-0.059,-0.059
1.534,-0.112,0.024,0.137,0.044,-0.127,0.078,0.063,0.02,0.024,-0.029,-0.059,-0.059
1.536,-0.122,0.015,0.137,0.054,-0.132,0.073,0.073,0.039,0.034,-0.02,-0.059,-0.044
1.538,-0.117,0.015,0.132,0.054,-0.127,0.073,0.073,0.039,0.034,-0.02,-0.059,-0.039
1.54,-0.107,0.039,0.146,0.034,-0.127,0.093,0.068,0.034,0.034,-0.015,-0.054,-0.024
1.542,-0.107,0.039,0.146,0.034,-0.127,0.093,0.068,0.034,0.034,-0.01,-0.044,-0.015
1.544,-0.117,0.039,0.156,0.039,-0.137,0.098,0.063,0.034,0.024,-0.01,-0.034,-0.02
1.546,-0.122,0.039,0.161,0.044,-0.142,0.098,0.063,0.034,0.024,-0.01,-0.034,-0.024
1.548,-0.127,0.044,0.171,0.044,-0.151,0.107,0.059,0.029,0.024,-0.01,-0.034,-0.024
1.55,-0.137,0.044,0.181,0.049,-0.161,0.112,0.054,0.024,0.02,-0.01,-0.034,-0.029
1.552,-0.142,0.044,0.185,0.049,-0.166,0.112,0.049,0.015,0.0,-0.024,-0.059,-0.039
1.554,-0.137,0.039,0.176,0.049,-0.156,0.107,0.044,0.01,0.0,-0.034,-0.068,-0.049
1.556,-0.151,0.024,0.176,0.063,-0.166,0.098,0.039,0.005,0.0,-0.039,-0.073,-0.059
1.558,-0.156,0.005,0.161,0.078,-0.161,0.083,0.034,-0.01,-0.005,-0.049,-0.078,-0.063
1.56,-0.142,0.005,0.146,0.068,-0.146,0.073,0.049,0.0,-0.005,-0.049,-0.083,-0.054
1.562,-0.146,0.0,0.146,0.073,-0.146,0.073,0.049,0.0,-0.005,-0.049,-0.083,-0.054
1.564,-0.142,-0.015,0.127,0.078,-0.137,0.054,0.054,0.01,0.0,-0.049,-0.083,-0.063
1.566,-0.132,-0.02,0.112,0.078,-0.122,0.044,0.054,0.01,0.0,-0.054,-0.088,-0.068
1.568,-0.127,-0.029,0.098,0.078,-0.112,0.034,0.054,0.015,0.0,-0.049,-0.078,-0.063
1.57,-0.132,-0.049,0.083,0.093,-0.107,0.015,0.059,0.015,0.0,-0.044,-0.073,-0.063
1.572,-0.127,-0.049,0.078,0.088,-0.102,0.015,0.059,0.015,-0.005,-0.039,-0.073,-0.063
1.574,-0.122,-0.049,0.073,0.088,-0.098,0.01,0.054,0.01,-0.01,-0.044,-0.073,-0.063
1.576,-0.142,-0.063,0.078,0.102,-0.112,0.005,0.044,-0.005,-0.024,-0.063,-0.093,-0.078
1.578,-0.156,-0.068,0.088,0.112,-0.122,0.01,0.044,-0.01,-0.029,-0.073,-0.102,-0.088
1.58,-0.151,-0.068,0.083,0.112,-0.117,0.005,0.044,-0.024,-0.044,-0.093,-0.117,-0.102
1.582,-0.156,-0.073,0.083,0.117,-0.122,0.005,0.044,-0.024,-0.054,-0.107,-0.132,-0.117
1.584,-0.151,-0.073,0.078,0.112,-0.117,0.0,0.044,-0.02,-0.049,-0.107,-0.132,-0.117
1.586,-0.146,-0.073,0.073,0.112,-0.112,0.0,0.044,-0.02,-0.049,-0.107,-0.132,-0.122
1.588,-0.151,-0.078,0.073,0.117,-0.112,-0.005,0.044,-0.024,-0.049,-0.107,-0.127,-0.122
1.59,-0.151,-0.093,0.059,0.122,-0.107,-0.02,0.044,-0.024,-0.049,-0.107,-0.122,-0.122
1.592,-0.146,-0.083,0.063,0.117,-0.107,-0.01,0.049,-0.01,-0.054,-0.098,-0.122,-0.122
1.594,-0.142,-0.083,0.059,0.112,-0.102,-0.015,0.049,-0.01,-0.054,-0.107,-0.132,-0.122
1.596,-0.142,-0.088,0.054,0.117,-0.098,-0.02,0.049,-0.01,-0.054,-0.107,-0.132,-0.122
1.598,-0.137,-0.088,0.049,0.112,-0.093,-0.02,0.044,-0.01,-0.054,-0.107,-0.132,-0.122
1.6,-0.151,-0.093,0.059,0.122,-0.107,-0.02,0.029,-0.024,-0.068,-0.122,-0.137,-0.127
1.602,-0.161,-0.102,0.059,0.132,-0.112,-0.024,0.029,-0.034,-0.073,-0.137,-0.151,-0.132
1.604,-0.166,-0.117,0.049,0.142,-0.107,-0.034,0.024,-0.039,-0.078,-0.142,-0.156,-0.137
1.606,-0.166,-0.112,0.054,0.142,-0.112,-0.029,0.024,-0.044,-0.078,-0.146,-0.161,-0.137
1.608,-0.142,-0.102,0.039,0.122,-0.093,-0.034,0.029,-0.039,-0.073,-0.137,-0.146,-0.137
1.61,-0.142,-0.093,0.049,0.117,-0.098,-0.024,0.034,-0.034,-0.068,-0.132,-0.146,-0.137
1.612,-0.146,-0.083,0.063,0.117,-0.107,-0.01,0.034,-0.034,-0.068,-0.127,-0.146,-0.137
1.614,-0.146,-0.073,0.073,0.112,-0.112,0.0,0.034,-0.034,-0.068,-0.117,-0.146,-0.137
1.616,-0.156,-0.093,0.063,0.127,-0.112,-0.015,0.044,-0.024,-0.063,-0.112,-0.146,-0.127
1.618,-0.156,-0.098,0.059,0.127,-0.107,-0.02,0.044,-0.024,-0.063,-0.112,-0.146,-0.127
1.62,-0.156,-0.102,0.054,0.132,-0.107,-0.024,0.044,-0.024,-0.068,-0.122,-0.146,-0.137
1.622,-0.156,-0.112,0.044,0.137,-0.102,-0.034,0.044,-0.02,-0.068,-0.122,-0.146,-0.127
1.624,-0.171,-0.122,0.049,0.146,-0.112,-0.039,0.044,-0.02,-0.068,-0.127,-0.137,-0.117
1.626,-0.171,-0.127,0.044,0.151,-0.107,-0.044,0.044,-0.024,-0.073,-0.127,-0.142,-0.117
1.628,-0.171,-0.132,0.039,0.151,-0.107,-0.049,0.044,-0.024,-0.073,-0.122,-0.142,-0.117
1.63,-0.171,-0.137,0.034,0.156,-0.102,-0.054,0.049,-0.02,-0.068,-0.117,-0.137,-0.117
1.632,-0.166,-0.127,0.039,0.146,-0.102,-0.044,0.049,-0.029,-0.068,-0.117,-0.142,-0.122
1.634,-0.166,-0.122,0.044,0.146,-0.107,-0.039,0.044,-0.024,-0.063,-0.117,-0.142,-0.127
1.636,-0.171,-0.122,0.049,0.146,-0.112,-0.039,0.039,-0.02,-0.063,-0.117,-0.142,-0.137
1.638,-0.176,-0.132,0.044,0.156,-0.112,-0.044,0.034,-0.015,-0.063,-0.117,-0.146,-0.146
1.64,-0.176,-0.142,0.034,0.161,-0.107,-0.054,0.039,-0.02,-0.073,-0.132,-0.166,-0.142
1.642,-0.19,-0.166,0.024,0.181,-0.107,-0.073,0.059,0.0,-0.068,-0.146,-0.195,-0.156
1.644,-0.195,-0.2,-0.005,0.2,-0.098,-0.102,0.093,0.049,-0.049,-0.166,-0.224,-0.181
1.646,-0.185,-0.2,-0.015,0.195,-0.088,-0.107,0.137,0.107,-0.034,-0.21,-0.288,-0.239
1.648,-0.195,-0.229,-0.034,0.215,-0.083,-0.132,0.166,0.161,-0.024,-0.234,-0.332,-0.288
1.65,-0.22,-0.259,-0.039,0.239,-0.093,-0.151,0.19,0.22,0.029,-0.215,-0.332,-0.307
1.652,-0.195,-0.229,-0.034,0.215,-0.083,-0.132,0.2,0.259,0.083,-0.166,-0.288,-0.278
1.654,-0.161,-0.166,-0.005,0.166,-0.078,-0.088,0.205,0.278,0.122,-0.112,-0.229,-0.234
1.656,-0.142,-0.142,0.0,0.142,-0.073,-0.073,0.205,0.298,0.166,-0.044,-0.156,-0.176
1.658,-0.127,-0.122,0.005,0.127,-0.068,-0.059,0.205,0.366,0.239,0.029,-0.098,-0.107
1.66,-0.054,-0.054,0.0,0.054,-0.029,-0.029,0.21,0.488,0.39,0.176,0.029,-0.02
1.662,0.0,0.015,0.015,-0.005,-0.01,0.015,0.181,0.547,0.581,0.425,0.264,0.137
1.664,0.0,0.068,0.068,-0.034,-0.034,0.068,0.112,0.405,0.634,0.678,0.527,0.332
1.666,0.0,0.146,0.146,-0.073,-0.073,0.146,0.0,0.073,0.522,0.864,0.761,0.527
1.668,0.01,0.234,0.224,-0.122,-0.107,0.229,-0.107,-0.293,0.356,1.005,0.996,0.717
1.67,0.02,0.327,0.307,-0.171,-0.146,0.317,-0.2,-0.625,0.239,1.161,1.215,0.922
1.672,0.039,0.444,0.405,-0.239,-0.185,0.425,-0.288,-0.893,0.156,1.327,1.43,1.103
1.674,0.063,0.551,0.488,-0.307,-0.215,0.517,-0.351,-1.039,0.156,1.488,1.62,1.254
1.676,0.102,0.664,0.561,-0.381,-0.229,0.61,-0.425,-1.122,0.19,1.664,1.815,1.415
1.678,0.127,0.771,0.644,-0.449,-0.259,0.708,-0.561,-1.279,0.151,1.815,1.967,1.542
1.68,0.127,0.893,0.766,-0.508,-0.322,0.83,-0.717,-1.459,0.059,1.869,2.035,1.61
1.682,0.093,0.952,0.859,-0.522,-0.386,0.903,-0.8,-1.571,-0.059,1.791,1.986,1.591
1.684,0.039,0.874,0.834,-0.454,-0.4,0.854,-0.81,-1.606,-0.181,1.586,1.796,1.454
1.686,-0.015,0.747,0.761,-0.366,-0.39,0.752,-0.786,-1.591,-0.283,1.318,1.498,1.225
1.688,-0.059,0.61,0.669,-0.273,-0.366,0.639,-0.742,-1.557,-0.386,1.044,1.196,0.991
1.69,-0.142,0.483,0.625,-0.171,-0.386,0.551,-0.693,-1.542,-0.547,0.722,0.893,0.766
1.692,-0.224,0.415,0.639,-0.093,-0.434,0.527,-0.673,-1.601,-0.8,0.293,0.527,0.522
1.694,-0.273,0.371,0.644,-0.049,-0.459,0.508,-0.639,-1.61,-1.069,-0.181,0.117,0.234
1.696,-0.322,0.259,0.581,0.034,-0.454,0.42,-0.532,-1.508,-1.244,-0.625,-0.298,-0.073
1.698,-0.361,0.151,0.512,0.107,-0.439,0.332,-0.454,-1.376,-1.303,-0.908,-0.581,-0.288
1.7,-0.351,0.098,0.449,0.127,-0.4,0.273,-0.405,-1.196,-1.186,-0.908,-0.634,-0.366
1.702,-0.307,0.034,0.342,0.137,-0.327,0.185,-0.346,-0.991,-0.966,-0.727,-0.551,-0.342
1.704,-0.278,-0.029,0.249,0.156,-0.264,0.107,-0.288,-0.791,-0.786,-0.595,-0.464,-0.312
1.706,-0.264,-0.059,0.205,0.161,-0.234,0.073,-0.254,-0.639,-0.654,-0.508,-0.405,-0.288
1.708,-0.254,-0.083,0.171,0.171,-0.215,0.044,-0.215,-0.483,-0.503,-0.395,-0.337,-0.264
1.71,-0.244,-0.107,0.137,0.176,-0.19,0.015,-0.142,-0.342,-0.351,-0.288,-0.264,-0.22
1.712,-0.22,-0.073,0.146,0.146,-0.185,0.034,-0.088,-0.239,-0.244,-0.224,-0.215,-0.176
1.714,-0.19,-0.034,0.156,0.112,-0.176,0.059,-0.049,-0.161,-0.176,-0.166,-0.176,-0.146
1.716,-0.181,-0.059,0.122,0.122,-0.151,0.029,0.005,-0.093,-0.107,-0.122,-0.142,-0.112
1.718,-0.185,-0.078,0.107,0.132,-0.146,0.015,0.034,-0.044,-0.068,-0.107,-0.142,-0.112
1.72,-0.176,-0.068,0.107,0.122,-0.142,0.02,0.034,-0.034,-0.073,-0.112,-0.142,-0.122
1.722,-0.171,-0.078,0.093,0.127,-0.132,0.005,0.039,-0.024,-0.063,-0.107,-0.137,-0.112
1.724,-0.185,-0.093,0.093,0.142,-0.142,0.0,0.039,-0.015,-0.044,-0.107,-0.142,-0.122
1.726,-0.19,-0.088,0.102,0.142,-0.146,0.005,0.044,0.0,-0.039,-0.102,-0.137,-0.127
1.728,-0.181,-0.093,0.088,0.137,-0.137,-0.005,0.049,0.024,-0.029,-0.093,-0.132,-0.132
1.73,-0.185,-0.107,0.078,0.146,-0.132,-0.015,0.063,0.054,-0.015,-0.093,-0.132,-0.137
1.732,-0.185,-0.117,0.068,0.151,-0.127,-0.024,0.073,0.078,-0.01,-0.083,-0.137,-0.142
1.734,-0.185,-0.117,0.068,0.151,-0.127,-0.024,0.078,0.093,0.0,-0.083,-0.142,-0.142
1.736,-0.185,-0.117,0.068,0.151,-0.127,-0.024,0.083,0.107,0.015,-0.083,-0.142,-0.142
1.738,-0.19,-0.127,0.063,0.161,-0.127,-0.034,0.088,0.112,0.02,-0.083,-0.142,-0.146
1.74,-0.176,-0.127,0.049,0.151,-0.112,-0.039,0.083,0.102,0.02,-0.093,-0.142,-0.137
1.742,-0.181,-0.122,0.059,0.151,-0.122,-0.034,0.083,0.112,0.024,-0.088,-0.132,-0.132
1.744,-0.176,-0.127,0.049,0.151,-0.112,-0.039,0.088,0.117,0.034,-0.078,-0.122,-0.122
1.746,-0.161,-0.102,0.059,0.132,-0.112,-0.024,0.088,0.122,0.039,-0.068,-0.117,-0.122
1.748,-0.171,-0.107,0.063,0.142,-0.117,-0.024,0.088,0.127,0.049,-0.063,-0.112,-0.112
1.75,-0.181,-0.107,0.073,0.146,-0.127,-0.02,0.098,0.142,0.059,-0.063,-0.112,-0.112
1.752,-0.171,-0.107,0.063,0.142,-0.117,-0.024,0.098,0.142,0.059,-0.063,-0.112,-0.112
1.754,-0.166,-0.107,0.059,0.137,-0.112,-0.024,0.102,0.151,0.063,-0.063,-0.112,-0.112
1.756,-0.151,-0.117,0.034,0.137,-0.093,-0.044,0.093,0.156,0.068,-0.044,-0.102,-0.102
1.758,-0.146,-0.117,0.029,0.132,-0.088,-0.044,0.098,0.156,0.073,-0.044,-0.098,-0.102
1.76,-0.142,-0.107,0.034,0.127,-0.088,-0.039,0.098,0.161,0.073,-0.044,-0.098,-0.102
1.762,-0.142,-0.107,0.034,0.127,-0.088,-0.039,0.098,0.171,0.088,-0.034,-0.088,-0.102
1.764,-0.161,-0.122,0.039,0.142,-0.102,-0.044,0.098,0.161,0.083,-0.034,-0.088,-0.107
1.766,-0.171,-0.127,0.044,0.151,-0.107,-0.044,0.098,0.161,0.083,-0.039,-0.093,-0.112
1.768,-0.176,-0.132,0.044,0.156,-0.112,-0.044,0.102,0.166,0.093,-0.044,-0.093,-0.112
1.77,-0.176,-0.137,0.039,0.156,-0.107,-0.049,0.102,0.176,0.098,-0.039,-0.093,-0.112
1.772,-0.166,-0.132,0.034,0.151,-0.102,-0.049,0.107,0.185,0.107,-0.039,-0.093,-0.102
1.774,-0.156,-0.122,0.034,0.142,-0.098,-0.044,0.107,0.195,0.107,-0.039,-0.093,-0.102
1.776,-0.156,-0.117,0.039,0.137,-0.098,-0.039,0.107,0.2,0.117,-0.034,-0.088,-0.098
1.778,-0.161,-0.122,0.039,0.142,-0.102,-0.044,0.107,0.2,0.117,-0.034,-0.088,-0.098
1.78,-0.156,-0.112,0.044,0.137,-0.102,-0.034,0.098,0.19,0.117,-0.034,-0.078,-0.107
1.782,-0.156,-0.112,0.044,0.137,-0.102,-0.034,0.098,0.195,0.117,-0.029,-0.073,-0.112
1.784,-0.151,-0.107,0.044,0.132,-0.098,-0.034,0.098,0.205,0.132,-0.02,-0.068,-0.112
1.786,-0.146,-0.098,0.049,0.122,-0.098,-0.024,0.098,0.205,0.137,-0.015,-0.068,-0.117
1.788,-0.146,-0.098,0.049,0.122,-0.098,-0.024,0.098,0.195,0.132,-0.005,-0.063,-0.107
1.79,-0.146,-0.098,0.049,0.122,-0.098,-0.024,0.107,0.2,0.137,0.0,-0.059,-0.102
1.792,-0.142,-0.098,0.044,0.122,-0.093,-0.029,0.107,0.21,0.142,0.0,-0.059,-0.102
1.794,-0.142,-0.088,0.054,0.117,-0.098,-0.02,0.102,0.215,0.146,0.0,-0.059,-0.098
1.796,-0.132,-0.093,0.039,0.112,-0.088,-0.029,0.102,0.234,0.156,0.015,-0.059,-0.083
1.798,-0.132,-0.093,0.039,0.112,-0.088,-0.029,0.102,0.234,0.161,0.02,-0.054,-0.083
1.8,-0.122,-0.083,0.039,0.102,-0.083,-0.024,0.102,0.234,0.166,0.024,-0.049,-0.083
1.802,-0.122,-0.083,0.039,0.102,-0.083,-0.024,0.107,0.244,0.171,0.034,-0.044,-0.083
1.804,-0.117,-0.083,0.034,0.102,-0.078,-0.024,0.107,0.239,0.19,0.049,-0.029,-0.078
1.806,-0.117,-0.068,0.049,0.093,-0.083,-0.01,0.107,0.254,0.195,0.049,-0.02,-0.073
1.808,-0.117,-0.068,0.049,0.093,-0.083,-0.01,0.107,0.259,0.2,0.059,-0.015,-0.068
1.81,-0.112,-0.073,0.039,0.093,-0.078,-0.02,0.107,0.264,0.215,0.063,-0.005,-0.059
1.812,-0.117,-0.088,0.029,0.102,-0.073,-0.029,0.117,0.264,0.224,0.068,-0.005,-0.068
1.814,-0.122,-0.088,0.034,0.107,-0.078,-0.029,0.122,0.268,0.224,0.068,-0.005,-0.068
1.816,-0.127,-0.093,0.034,0.112,-0.083,-0.029,0.127,0.283,0.234,0.078,-0.005,-0.059
1.818,-0.127,-0.098,0.029,0.112,-0.078,-0.034,0.127,0.298,0.234,0.073,0.0,-0.059
1.82,-0.137,-0.078,0.059,0.107,-0.098,-0.01,0.122,0.298,0.229,0.068,-0.015,-0.068
1.822,-0.137,-0.078,0.059,0.107,-0.098,-0.01,0.117,0.307,0.239,0.073,-0.015,-0.068
1.824,-0.137,-0.078,0.059,0.107,-0.098,-0.01,0.112,0.322,0.249,0.083,-0.015,-0.073
1.826,-0.132,-0.068,0.063,0.102,-0.098,-0.005,0.112,0.327,0.254,0.088,-0.01,-0.078
1.828,-0.127,-0.059,0.068,0.093,-0.098,0.005,0.112,0.337,0.278,0.107,0.005,-0.059
1.83,-0.127,-0.059,0.068,0.093,-0.098,0.005,0.112,0.346,0.303,0.137,0.02,-0.049
1.832,-0.122,-0.054,0.068,0.088,-0.098,0.005,0.112,0.361,0.303,0.146,0.034,-0.039
1.834,-0.117,-0.044,0.073,0.083,-0.098,0.015,0.112,0.371,0.312,0.156,0.039,-0.029
1.836,-0.102,-0.054,0.049,0.078,-0.078,-0.005,0.127,0.366,0.327,0.161,0.049,-0.034
1.838,-0.098,-0.044,0.054,0.073,-0.078,0.005,0.127,0.381,0.342,0.171,0.054,-0.024
1.84,-0.093,-0.044,0.049,0.068,-0.073,0.0,0.127,0.39,0.351,0.181,0.063,-0.015
1.842,-0.093,-0.044,0.049,0.068,-0.073,0.0,0.132,0.405,0.371,0.195,0.078,-0.005
1.844,-0.083,-0.034,0.049,0.059,-0.068,0.005,0.127,0.425,0.395,0.224,0.102,0.015
1.846,-0.078,-0.029,0.049,0.054,-0.063,0.01,0.122,0.439,0.4,0.239,0.107,0.015
1.848,-0.078,-0.024,0.054,0.054,-0.068,0.015,0.112,0.439,0.415,0.249,0.117,0.02
1.85,-0.078,-0.015,0.063,0.049,-0.073,0.024,0.107,0.454,0.434,0.268,0.122,0.029
1.852,-0.098,-0.015,0.083,0.059,-0.093,0.034,0.117,0.468,0.444,0.278,0.132,0.044
1.854,-0.098,-0.01,0.088,0.054,-0.093,0.039,0.117,0.483,0.473,0.293,0.146,0.049
1.856,-0.102,-0.01,0.093,0.059,-0.098,0.039,0.117,0.498,0.493,0.322,0.171,0.068
1.858,-0.112,-0.01,0.102,0.063,-0.107,0.044,0.117,0.512,0.512,0.337,0.185,0.078
1.86,-0.107,-0.01,0.098,0.059,-0.102,0.044,0.127,0.522,0.537,0.361,0.215,0.102
1.862,-0.093,-0.01,0.083,0.054,-0.088,0.034,0.127,0.532,0.556,0.39,0.234,0.112
1.864,-0.088,0.0,0.088,0.044,-0.088,0.044,0.127,0.547,0.581,0.41,0.249,0.132
1.866,-0.088,0.015,0.102,0.039,-0.098,0.059,0.122,0.556,0.586,0.42,0.268,0.142
1.868,-0.088,0.029,0.117,0.029,-0.102,0.073,0.107,0.566,0.605,0.454,0.293,0.161
1.87,-0.083,0.039,0.122,0.024,-0.102,0.078,0.102,0.566,0.62,0.464,0.307,0.171
1.872,-0.078,0.059,0.137,0.01,-0.107,0.098,0.102,0.571,0.634,0.478,0.322,0.181
1.874,-0.068,0.083,0.151,-0.005,-0.112,0.117,0.093,0.576,0.649,0.493,0.332,0.19
1.876,-0.073,0.078,0.151,0.0,-0.112,0.112,0.102,0.581,0.659,0.508,0.342,0.195
1.878,-0.063,0.083,0.146,-0.01,-0.107,0.112,0.098,0.586,0.664,0.522,0.356,0.205
1.88,-0.059,0.098,0.156,-0.02,-0.107,0.127,0.093,0.581,0.673,0.537,0.366,0.215
1.882,-0.059,0.093,0.151,-0.015,-0.107,0.122,0.088,0.581,0.673,0.551,0.386,0.239
1.884,-0.059,0.083,0.142,-0.01,-0.102,0.112,0.078,0.59,0.678,0.556,0.4,0.249
1.886,-0.049,0.093,0.142,-0.02,-0.098,0.117,0.073,0.59,0.678,0.561,0.4,0.249
1.888,-0.044,0.107,0.151,-0.029,-0.098,0.127,0.068,0.59,0.683,0.576,0.405,0.244
1.89,-0.039,0.112,0.151,-0.034,-0.098,0.132,0.063,0.581,0.693,0.59,0.41,0.249
1.892,-0.029,0.122,0.151,-0.044,-0.093,0.137,0.059,0.576,0.693,0.59,0.405,0.254
1.894,-0.029,0.132,0.161,-0.049,-0.098,0.146,0.054,0.576,0.688,0.586,0.415,0.259
1.896,-0.029,0.137,0.166,-0.054,-0.098,0.151,0.049,0.571,0.688,0.581,0.42,0.264
1.898,-0.039,0.142,0.181,-0.049,-0.112,0.161,0.044,0.566,0.688,0.576,0.42,0.264
1.9,-0.044,0.132,0.176,-0.044,-0.112,0.151,0.039,0.561,0.673,0.586,0.425,0.273
1.902,-0.044,0.137,0.181,-0.044,-0.112,0.156,0.034,0.556,0.669,0.59,0.434,0.288
1.904,-0.049,0.132,0.181,-0.039,-0.117,0.156,0.034,0.542,0.664,0.59,0.439,0.293
1.906,-0.054,0.127,0.181,-0.034,-0.117,0.151,0.02,0.527,0.654,0.576,0.444,0.293
1.908,-0.054,0.146,0.2,-0.044,-0.127,0.171,0.02,0.522,0.634,0.571,0.439,0.293
1.91,-0.049,0.146,0.195,-0.049,-0.122,0.171,0.02,0.512,0.634,0.566,0.434,0.298
1.912,-0.049,0.151,0.2,-0.049,-0.127,0.176,0.015,0.498,0.61,0.547,0.42,0.298
1.914,-0.049,0.151,0.2,-0.049,-0.127,0.176,0.015,0.483,0.595,0.532,0.41,0.288
1.916,-0.039,0.146,0.185,-0.054,-0.112,0.166,0.01,0.468,0.586,0.522,0.405,0.273
1.918,-0.039,0.146,0.185,-0.054,-0.112,0.166,0.01,0.459,0.571,0.508,0.39,0.273
1.92,-0.039,0.146,0.185,-0.054,-0.112,0.166,0.005,0.444,0.547,0.493,0.381,0.264
1.922,-0.044,0.142,0.185,-0.049,-0.117,0.161,0.005,0.42,0.522,0.473,0.371,0.259
1.924,-0.059,0.117,0.176,-0.029,-0.117,0.146,0.01,0.415,0.503,0.439,0.342,0.239
1.926,-0.068,0.117,0.185,-0.024,-0.127,0.151,0.015,0.395,0.473,0.405,0.312,0.22
1.928,-0.073,0.117,0.19,-0.02,-0.132,0.151,0.02,0.371,0.439,0.376,0.283,0.2
1.93,-0.083,0.107,0.19,-0.01,-0.137,0.146,0.024,0.356,0.42,0.346,0.264,0.181
1.932,-0.102,0.107,0.21,0.0,-0.156,0.156,0.02,0.337,0.395,0.322,0.234,0.151
1.934,-0.112,0.102,0.215,0.005,-0.166,0.156,0.02,0.322,0.366,0.293,0.215,0.142
1.936,-0.117,0.098,0.215,0.01,-0.166,0.156,0.024,0.307,0.342,0.278,0.2,0.132
1.938,-0.117,0.093,0.21,0.015,-0.166,0.151,0.029,0.298,0.327,0.259,0.181,0.122
1.94,-0.112,0.102,0.215,0.005,-0.166,0.156,0.039,0.273,0.307,0.244,0.171,0.112
1.942,-0.112,0.098,0.21,0.01,-0.161,0.151,0.049,0.254,0.288,0.229,0.166,0.102
1.944,-0.102,0.078,0.181,0.015,-0.142,0.127,0.049,0.244,0.259,0.22,0.156,0.098
1.946,-0.102,0.073,0.176,0.015,-0.142,0.122,0.049,0.22,0.229,0.195,0.151,0.088
1.948,-0.117,0.054,0.171,0.034,-0.146,0.112,0.044,0.2,0.21,0.156,0.127,0.063
1.95,-0.122,0.034,0.156,0.044,-0.142,0.093,0.044,0.19,0.185,0.142,0.102,0.049
1.952,-0.127,0.02,0.146,0.054,-0.137,0.083,0.049,0.181,0.161,0.117,0.073,0.029
1.954,-0.137,0.01,0.146,0.063,-0.142,0.078,0.049,0.161,0.142,0.093,0.049,0.015
1.956,-0.142,0.015,0.156,0.063,-0.151,0.083,0.049,0.142,0.132,0.073,0.029,-0.01
1.958,-0.146,0.01,0.156,0.068,-0.151,0.083,0.049,0.132,0.112,0.054,0.01,-0.02
1.96,-0.156,0.005,0.161,0.078,-0.161,0.083,0.049,0.112,0.093,0.034,-0.005,-0.044
1.962,-0.166,-0.01,0.156,0.088,-0.161,0.073,0.049,0.098,0.073,0.02,-0.02,-0.054
1.964,-0.171,-0.015,0.156,0.093,-0.166,0.068,0.059,0.098,0.063,0.015,-0.024,-0.063
1.966,-0.171,-0.015,0.156,0.093,-0.166,0.068,0.059,0.093,0.044,0.0,-0.049,-0.078
1.968,-0.166,-0.015,0.151,0.093,-0.161,0.068,0.059,0.083,0.039,-0.015,-0.054,-0.078
1.97,-0.161,-0.024,0.137,0.093,-0.151,0.054,0.063,0.073,0.039,-0.034,-0.063,-0.073
1.972,-0.176,-0.039,0.137,0.107,-0.156,0.049,0.054,0.063,0.01,-0.039,-0.063,-0.078
1.974,-0.181,-0.044,0.137,0.112,-0.161,0.044,0.054,0.049,0.005,-0.049,-0.073,-0.093
1.976,-0.185,-0.054,0.132,0.122,-0.161,0.039,0.054,0.049,-0.005,-0.054,-0.078,-0.093
1.978,-0.195,-0.063,0.132,0.132,-0.166,0.034,0.054,0.049,-0.01,-0.063,-0.083,-0.098
1.98,-0.185,-0.073,0.112,0.132,-0.151,0.02,0.049,0.034,-0.02,-0.073,-0.093,-0.107
1.982,-0.19,-0.078,0.112,0.137,-0.151,0.015,0.049,0.029,-0.02,-0.078,-0.098,-0.107
1.984,-0.19,-0.088,0.102,0.142,-0.146,0.005,0.054,0.024,-0.02,-0.088,-0.102,-0.107
1.986,-0.185,-0.078,0.107,0.132,-0.146,0.015,0.054,0.024,-0.024,-0.102,-0.122,-0.117
1.988,-0.171,-0.068,0.102,0.122,-0.137,0.015,0.054,0.024,-0.02,-0.098,-0.117,-0.112
1.99,-0.171,-0.068,0.102,0.122,-0.137,0.015,0.049,0.02,-0.029,-0.098,-0.122,-0.112
1.992,-0.171,-0.063,0.107,0.117,-0.142,0.02,0.049,0.024,-0.039,-0.093,-0.117,-0.117
1.994,-0.166,-0.059,0.107,0.112,-0.137,0.024,0.049,0.029,-0.044,-0.093,-0.112,-0.117
1.996,-0.171,-0.068,0.102,0.122,-0.137,0.015,0.049,0.024,-0.049,-0.102,-0.112,-0.117
1.998,-0.171,-0.068,0.102,0.122,-0.137,0.015,0.049,0.01,-0.054,-0.102,-0.117,-0.117
2.0,-0.171,-0.063,0.107,0.117,-0.142,0.02,0.044,0.005,-0.054,-0.107,-0.117,-0.122
2.002,-0.171,-0.063,0.107,0.117,-0.142,0.02,0.044,0.0,-0.054,-0.107,-0.117,-0.122
2.004,-0.171,-0.083,0.088,0.127,-0.132,0.0,0.054,0.005,-0.049,-0.098,-0.112,-0.112
2.006,-0.171,-0.073,0.098,0.122,-0.137,0.01,0.059,0.005,-0.049,-0.107,-0.112,-0.112
2.008,-0.166,-0.073,0.093,0.122,-0.132,0.01,0.059,0.01,-0.054,-0.107,-0.112,-0.112
2.01,-0.166,-0.073,0.093,0.122,-0.132,0.01,0.059,0.015,-0.054,-0.102,-0.112,-0.112
2.012,-0.171,-0.073,0.098,0.122,-0.137,0.01,0.049,0.005,-0.054,-0.112,-0.112,-0.112
2.014,-0.171,-0.073,0.098,0.122,-0.137,0.01,0.044,0.0,-0.063,-0.117,-0.122,-0.122
2.016,-0.176,-0.078,0.098,0.127,-0.137,0.01,0.044,0.0,-0.063,-0.117,-0.122,-0.122
2.018,-0.176,-0.078,0.098,0.127,-0.137,0.01,0.044,0.005,-0.063,-0.117,-0.122,-0.117
2.02,-0.171,-0.073,0.098,0.122,-0.137,0.01,0.039,0.0,-0.068,-0.127,-0.137,-0.127
2.022,-0.171,-0.073,0.098,0.122,-0.137,0.01,0.034,-0.005,-0.073,-0.132,-0.132,-0.137
2.024,-0.171,-0.073,0.098,0.122,-0.137,0.01,0.029,-0.015,-0.068,-0.137,-0.137,-0.142
2.026,-0.171,-0.073,0.098,0.122,-0.137,0.01,0.024,-0.02,-0.073,-0.142,-0.146,-0.151
2.028,-0.171,-0.068,0.102,0.122,-0.137,0.015,0.034,-0.01,-0.073,-0.132,-0.142,-0.151
2.03,-0.176,-0.073,0.102,0.127,-0.142,0.015,0.034,-0.01,-0.073,-0.132,-0.137,-0.146
2.032,-0.176,-0.073,0.102,0.127,-0.142,0.015,0.029,-0.01,-0.073,-0.137,-0.132,-0.142
2.034,-0.176,-0.068,0.107,0.122,-0.142,0.02,0.029,-0.015,-0.078,-0.137,-0.132,-0.137
2.036,-0.176,-0.068,0.107,0.122,-0.142,0.02,0.029,-0.015,-0.078,-0.127,-0.122,-0.132
2.038,-0.171,-0.068,0.102,0.122,-0.137,0.015,0.029,-0.01,-0.078,-0.127,-0.122,-0.127
2.04,-0.161,-0.068,0.093,0.117,-0.127,0.01,0.029,-0.01,-0.078,-0.127,-0.122,-0.132
2.042,-0.156,-0.068,0.088,0.112,-0.122,0.01,0.029,-0.01,-0.078,-0.122,-0.122,-0.117
2.044,-0.156,-0.073,0.083,0.117,-0.122,0.005,0.029,0.0,-0.073,-0.127,-0.137,-0.132
2.046,-0.151,-0.073,0.078,0.112,-0.117,0.0,0.034,0.0,-0.073,-0.132,-0.137,-0.137
2.048,-0.156,-0.078,0.078,0.117,-0.117,0.0,0.034,0.0,-0.073,-0.137,-0.137,-0.142
2.05,-0.166,-0.093,0.073,0.132,-0.122,-0.01,0.034,0.0,-0.073,-0.142,-0.142,-0.146
2.052,-0.181,-0.102,0.078,0.142,-0.132,-0.015,0.024,-0.01,-0.078,-0.146,-0.156,-0.151
2.054,-0.185,-0.098,0.088,0.142,-0.137,-0.005,0.02,-0.015,-0.083,-0.156,-0.161,-0.156
2.056,-0.19,-0.098,0.093,0.146,-0.142,-0.005,0.015,-0.015,-0.083,-0.161,-0.166,-0.161
2.058,-0.195,-0.102,0.093,0.151,-0.146,-0.005,0.01,-0.02,-0.088,-0.166,-0.181,-0.166
2.06,-0.176,-0.093,0.083,0.137,-0.132,-0.005,0.0,-0.01,-0.083,-0.156,-0.166,-0.166
2.062,-0.161,-0.083,0.078,0.122,-0.122,-0.005,0.0,-0.01,-0.083,-0.146,-0.156,-0.161
2.064,-0.146,-0.073,0.073,0.112,-0.112,0.0,0.0,-0.01,-0.078,-0.146,-0.146,-0.156
2.066,-0.137,-0.063,0.073,0.102,-0.107,0.005,0.0,-0.01,-0.078,-0.156,-0.137,-0.151
2.068,-0.137,-0.068,0.068,0.102,-0.102,0.0,0.005,-0.005,-0.078,-0.146,-0.132,-0.146
2.07,-0.137,-0.068,0.068,0.102,-0.102,0.0,0.01,0.0,-0.078,-0.146,-0.132,-0.142
2.072,-0.137,-0.073,0.063,0.107,-0.102,-0.005,0.015,0.0,-0.078,-0.146,-0.132,-0.137
2.074,-0.137,-0.073,0.063,0.107,-0.102,-0.005,0.02,-0.005,-0.083,-0.151,-0.137,-0.132
2.076,-0.151,-0.088,0.063,0.122,-0.107,-0.015,0.015,0.005,-0.083,-0.161,-0.142,-0.127
2.078,-0.151,-0.093,0.059,0.122,-0.107,-0.02,0.015,0.005,-0.083,-0.161,-0.146,-0.146
2.08,-0.151,-0.093,0.059,0.122,-0.107,-0.02,0.015,0.005,-0.083,-0.166,-0.156,-0.161
2.082,-0.151,-0.088,0.063,0.122,-0.107,-0.015,0.015,0.005,-0.078,-0.166,-0.161,-0.176
2.084,-0.156,-0.088,0.068,0.122,-0.112,-0.01,0.005,0.0,-0.088,-0.166,-0.161,-0.171
2.086,-0.156,-0.083,0.073,0.122,-0.117,-0.005,0.005,0.0,-0.088,-0.166,-0.166,-0.176
2.088,-0.156,-0.078,0.078,0.117,-0.117,0.0,0.005,0.0,-0.088,-0.166,-0.166,-0.171
2.09,-0.156,-0.078,0.078,0.117,-0.117,0.0,0.005,0.0,-0.078,-0.166,-0.156,-0.161
2.092,-0.151,-0.078,0.073,0.117,-0.112,-0.005,0.02,0.005,-0.078,-0.176,-0.156,-0.161
2.094,-0.151,-0.088,0.063,0.122,-0.107,-0.015,0.02,0.01,-0.078,-0.176,-0.151,-0.161
2.096,-0.156,-0.102,0.054,0.132,-0.107,-0.024,0.024,0.015,-0.078,-0.166,-0.142,-0.156
2.098,-0.156,-0.102,0.054,0.132,-0.107,-0.024,0.024,0.015,-0.078,-0.166,-0.151,-0.146
2.1,-0.156,-0.098,0.059,0.127,-0.107,-0.02,0.015,0.01,-0.073,-0.171,-0.151,-0.161
2.102,-0.161,-0.098,0.063,0.132,-0.112,-0.02,0.01,0.005,-0.083,-0.176,-0.156,-0.166
2.104,-0.161,-0.093,0.068,0.127,-0.117,-0.015,0.01,0.0,-0.083,-0.176,-0.156,-0.166
2.106,-0.156,-0.088,0.068,0.122,-0.112,-0.01,0.005,0.0,-0.083,-0.171,-0.156,-0.166
2.108,-0.171,-0.093,0.078,0.132,-0.127,-0.01,0.015,-0.01,-0.088,-0.176,-0.161,-0.171
2.11,-0.166,-0.102,0.063,0.137,-0.117,-0.02,0.02,0.0,-0.088,-0.176,-0.161,-0.166
2.112,-0.171,-0.107,0.063,0.142,-0.117,-0.024,0.02,0.0,-0.083,-0.176,-0.156,-0.166
2.114,-0.171,-0.107,0.063,0.142,-0.117,-0.024,0.02,0.005,-0.083,-0.176,-0.151,-0.166
2.116,-0.156,-0.102,0.054,0.132,-0.107,-0.024,0.015,0.005,-0.073,-0.176,-0.142,-0.156
2.118,-0.156,-0.088,0.068,0.122,-0.112,-0.01,0.015,0.01,-0.073,-0.181,-0.142,-0.156
2.12,-0.156,-0.083,0.073,0.122,-0.117,-0.005,0.01,0.01,-0.073,-0.181,-0.146,-0.161
2.122,-0.166,-0.088,0.078,0.127,-0.122,-0.005,0.0,0.01,-0.078,-0.181,-0.151,-0.161
2.124,-0.166,-0.093,0.073,0.132,-0.122,-0.01,0.01,0.005,-0.078,-0.176,-0.151,-0.156
2.126,-0.151,-0.088,0.063,0.122,-0.107,-0.015,0.01,0.005,-0.078,-0.166,-0.151,-0.156
2.128,-0.142,-0.073,0.068,0.107,-0.107,-0.005,0.01,0.005,-0.078,-0.161,-0.146,-0.151
2.13,-0.137,-0.063,0.073,0.102,-0.107,0.005,0.015,0.005,-0.073,-0.156,-0.146,-0.146
2.132,-0.137,-0.073,0.063,0.107,-0.102,-0.005,0.005,-0.01,-0.083,-0.161,-0.156,-0.161
2.134,-0.132,-0.073,0.059,0.102,-0.098,-0.01,0.005,-0.01,-0.078,-0.166,-0.151,-0.166
2.136,-0.132,-0.078,0.054,0.107,-0.093,-0.015,0.005,-0.01,-0.073,-0.166,-0.146,-0.161
2.138,-0.132,-0.078,0.054,0.107,-0.093,-0.015,0.0,-0.01,-0.073,-0.166,-0.146,-0.166
2.14,-0.137,-0.083,0.054,0.112,-0.098,-0.015,-0.005,-0.01,-0.073,-0.156,-0.142,-0.156
2.142,-0.146,-0.088,0.059,0.117,-0.102,-0.015,-0.01,-0.005,-0.073,-0.161,-0.142,-0.156
2.144,-0.151,-0.088,0.063,0.122,-0.107,-0.015,-0.015,-0.005,-0.073,-0.161,-0.142,-0.156
2.146,-0.146,-0.078,0.068,0.112,-0.107,-0.005,-0.02,-0.01,-0.078,-0.161,-0.142,-0.161
2.148,-0.132,-0.068,0.063,0.102,-0.098,-0.005,-0.015,-0.01,-0.078,-0.161,-0.146,-0.151
2.15,-0.127,-0.068,0.059,0.098,-0.093,-0.005,-0.01,-0.01,-0.078,-0.166,-0.142,-0.151
2.152,-0.122,-0.059,0.063,0.093,-0.093,0.0,-0.01,-0.01,-0.078,-0.166,-0.137,-0.156
2.154,-0.112,-0.039,0.073,0.078,-0.093,0.015,-0.005,-0.01,-0.078,-0.166,-0.132,-0.156
2.156,-0.112,-0.059,0.054,0.088,-0.083,-0.005,-0.005,0.0,-0.073,-0.156,-0.127,-0.137
2.158,-0.117,-0.059,0.059,0.088,-0.088,0.0,0.0,0.0,-0.063,-0.156,-0.122,-0.137
2.16,-0.117,-0.054,0.063,0.088,-0.093,0.005,0.0,0.0,-0.059,-0.151,-0.122,-0.142
2.162,-0.117,-0.054,0.063,0.088,-0.093,0.005,-0.005,0.0,-0.054,-0.151,-0.122,-0.142
2.164,-0.127,-0.054,0.073,0.093,-0.102,0.01,-0.015,0.0,-0.063,-0.151,-0.122,-0.122
2.166,-0.122,-0.049,0.073,0.088,-0.098,0.01,-0.015,0.0,-0.068,-0.156,-0.122,-0.132
2.168,-0.122,-0.049,0.073,0.088,-0.098,0.01,-0.015,-0.005,-0.068,-0.156,-0.122,-0.132
2.17,-0.122,-0.054,0.068,0.088,-0.098,0.005,-0.02,-0.01,-0.068,-0.156,-0.122,-0.132
2.172,-0.132,-0.059,0.073,0.098,-0.102,0.005,-0.02,-0.02,-0.078,-0.176,-0.127,-0.151
2.174,-0.132,-0.059,0.073,0.098,-0.102,0.005,-0.02,-0.02,-0.088,-0.181,-0.142,-0.156
2.176,-0.132,-0.063,0.068,0.098,-0.102,0.0,-0.02,-0.02,-0.078,-0.181,-0.137,-0.151
2.178,-0.137,-0.068,0.068,0.102,-0.102,0.0,-0.015,-0.02,-0.078,-0.185,-0.142,-0.156
2.18,-0.137,-0.059,0.078,0.098,-0.107,0.01,-0.015,-0.029,-0.078,-0.176,-0.132,-0.156
2.182,-0.142,-0.063,0.078,0.102,-0.112,0.005,-0.02,-0.034,-0.078,-0.176,-0.127,-0.151
2.184,-0.142,-0.063,0.078,0.102,-0.112,0.005,-0.02,-0.034,-0.078,-0.176,-0.127,-0.151
2.186,-0.142,-0.063,0.078,0.102,-0.112,0.005,-0.02,-0.034,-0.083,-0.171,-0.127,-0.156
2.188,-0.146,-0.068,0.078,0.107,-0.112,0.005,-0.029,-0.034,-0.088,-0.176,-0.137,-0.161
2.19,-0.161,-0.068,0.093,0.117,-0.127,0.01,-0.029,-0.034,-0.093,-0.171,-0.137,-0.161
2.192,-0.146,-0.063,0.083,0.107,-0.117,0.01,-0.029,-0.034,-0.098,-0.176,-0.142,-0.161
2.194,-0.137,-0.063,0.073,0.102,-0.107,0.005,-0.034,-0.039,-0.107,-0.19,-0.142,-0.161
2.196,-0.137,-0.063,0.073,0.102,-0.107,0.005,-0.034,-0.039,-0.098,-0.21,-0.151,-0.156
2.198,-0.146,-0.068,0.078,0.107,-0.112,0.005,-0.034,-0.039,-0.098,-0.21,-0.151,-0.151
2.2,-0.146,-0.068,0.078,0.107,-0.112,0.005,-0.034,-0.034,-0.102,-0.21,-0.151,-0.151
2.202,-0.151,-0.068,0.083,0.112,-0.117,0.005,-0.034,-0.034,-0.102,-0.21,-0.151,-0.151
2.204,-0.151,-0.073,0.078,0.112,-0.117,0.0,-0.034,-0.039,-0.102,-0.2,-0.142,-0.142
2.206,-0.146,-0.078,0.068,0.112,-0.107,-0.005,-0.034,-0.044,-0.107,-0.195,-0.142,-0.142
2.208,-0.137,-0.078,0.059,0.107,-0.098,-0.01,-0.034,-0.044,-0.107,-0.195,-0.142,-0.142
2.21,-0.127,-0.088,0.039,0.107,-0.083,-0.024,-0.034,-0.044,-0.112,-0.195,-0.142,-0.142
2.212,-0.127,-0.088,0.039,0.107,-0.083,-0.024,-0.044,-0.059,-0.117,-0.205,-0.137,-0.142
2.214,-0.127,-0.059,0.068,0.093,-0.098,0.005,-0.044,-0.063,-0.127,-0.21,-0.137,-0.151
2.216,-0.132,-0.068,0.063,0.102,-0.098,-0.005,-0.049,-0.063,-0.137,-0.22,-0.137,-0.151
2.218,-0.142,-0.068,0.073,0.107,-0.107,0.0,-0.049,-0.059,-0.142,-0.224,-0.137,-0.146
2.22,-0.146,-0.078,0.068,0.112,-0.107,-0.005,-0.049,-0.049,-0.142,-0.229,-0.146,-0.161
2.222,-0.151,-0.083,0.068,0.117,-0.112,-0.01,-0.049,-0.049,-0.137,-0.229,-0.146,-0.156
2.224,-0.156,-0.083,0.073,0.122,-0.117,-0.005,-0.044,-0.049,-0.127,-0.224,-0.146,-0.161
2.226,-0.161,-0.078,0.083,0.122,-0.122,0.0,-0.044,-0.054,-0.122,-0.224,-0.166,-0.166
2.228,-0.151,-0.078,0.073,0.117,-0.112,-0.005,-0.054,-0.063,-0.132,-0.234,-0.161,-0.156
2.23,-0.151,-0.078,0.073,0.117,-0.112,-0.005,-0.054,-0.063,-0.132,-0.239,-0.161,-0.166
2.232,-0.151,-0.078,0.073,0.117,-0.112,-0.005,-0.059,-0.073,-0.137,-0.239,-0.171,-0.166
2.234,-0.142,-0.073,0.068,0.107,-0.107,-0.005,-0.059,-0.073,-0.142,-0.244,-0.166,-0.166
2.236,-0.151,-0.063,0.088,0.107,-0.122,0.01,-0.059,-0.068,-0.142,-0.254,-0.156,-0.166
2.238,-0.156,-0.078,0.078,0.117,-0.117,0.0,-0.063,-0.068,-0.146,-0.254,-0.166,-0.176
2.24,-0.156,-0.078,0.078,0.117,-0.117,0.0,-0.063,-0.068,-0.146,-0.259,-0.176,-0.176
2.242,-0.156,-0.083,0.073,0.122,-0.117,-0.005,-0.063,-0.068,-0.142,-0.259,-0.176,-0.166
2.244,-0.156,-0.093,0.063,0.127,-0.112,-0.015,-0.049,-0.063,-0.132,-0.254,-0.166,-0.156
2.246,-0.151,-0.088,0.063,0.122,-0.107,-0.015,-0.044,-0.063,-0.132,-0.249,-0.156,-0.156
2.248,-0.137,-0.083,0.054,0.112,-0.098,-0.015,-0.044,-0.063,-0.132,-0.244,-0.151,-0.156
2.25,-0.132,-0.083,0.049,0.107,-0.093,-0.02,-0.049,-0.063,-0.132,-0.239,-0.146,-0.156
2.252,-0.137,-0.078,0.059,0.107,-0.098,-0.01,-0.054,-0.083,-0.146,-0.254,-0.151,-0.161
2.254,-0.146,-0.073,0.073,0.112,-0.112,0.0,-0.059,-0.093,-0.151,-0.259,-0.156,-0.171
2.256,-0.146,-0.068,0.078,0.107,-0.112,0.005,-0.063,-0.093,-0.156,-0.259,-0.156,-0.176
2.258,-0.142,-0.063,0.078,0.102,-0.112,0.005,-0.063,-0.088,-0.156,-0.259,-0.161,-0.176
2.26,-0.142,-0.068,0.073,0.107,-0.107,0.0,-0.068,-0.098,-0.151,-0.264,-0.151,-0.166
2.262,-0.146,-0.073,0.073,0.112,-0.112,0.0,-0.068,-0.102,-0.151,-0.264,-0.156,-0.166
2.264,-0.151,-0.083,0.068,0.117,-0.112,-0.01,-0.068,-0.102,-0.151,-0.268,-0.161,-0.166
2.266,-0.156,-0.088,0.068,0.122,-0.112,-0.01,-0.068,-0.102,-0.151,-0.268,-0.166,-0.176
2.268,-0.156,-0.093,0.063,0.127,-0.112,-0.015,-0.078,-0.102,-0.151,-0.283,-0.171,-0.185
2.27,-0.166,-0.098,0.068,0.132,-0.117,-0.015,-0.078,-0.102,-0.151,-0.283,-0.171,-0.181
2.272,-0.166,-0.083,0.083,0.127,-0.127,0.0,-0.078,-0.102,-0.151,-0.283,-0.176,-0.181
2.274,-0.161,-0.078,0.083,0.122,-0.122,0.0,-0.078,-0.102,-0.151,-0.278,-0.176,-0.176
2.276,-0.137,-0.073,0.063,0.107,-0.102,-0.005,-0.073,-0.102,-0.151,-0.273,-0.161,-0.166
2.278,-0.127,-0.068,0.059,0.098,-0.093,-0.005,-0.068,-0.102,-0.151,-0.268,-0.156,-0.161
2.28,-0.122,-0.049,0.073,0.088,-0.098,0.01,-0.063,-0.102,-0.151,-0.264,-0.151,-0.161
2.282,-0.117,-0.044,0.073,0.083,-0.098,0.015,-0.059,-0.107,-0.161,-0.268,-0.146,-0.161
2.284,-0.137,-0.054,0.083,0.098,-0.112,0.015,-0.068,-0.107,-0.151,-0.273,-0.161,-0.166
2.286,-0.146,-0.073,0.073,0.112,-0.112,0.0,-0.068,-0.102,-0.151,-0.278,-0.161,-0.171
2.288,-0.156,-0.093,0.063,0.127,-0.112,-0.015,-0.068,-0.102,-0.146,-0.278,-0.171,-0.176
2.29,-0.161,-0.107,0.054,0.137,-0.107,-0.029,-0.068,-0.102,-0.146,-0.283,-0.171,-0.181
2.292,-0.166,-0.102,0.063,0.137,-0.117,-0.02,-0.073,-0.112,-0.146,-0.293,-0.176,-0.19
2.294,-0.166,-0.078,0.088,0.122,-0.127,0.005,-0.088,-0.112,-0.151,-0.293,-0.181,-0.19
2.296,-0.171,-0.083,0.088,0.127,-0.132,0.0,-0.093,-0.117,-0.161,-0.298,-0.185,-0.195
2.298,-0.171,-0.083,0.088,0.127,-0.132,0.0,-0.093,-0.127,-0.176,-0.303,-0.19,-0.195
2.3,-0.171,-0.098,0.073,0.137,-0.122,-0.015,-0.093,-0.117,-0.166,-0.303,-0.181,-0.181
2.302,-0.166,-0.093,0.073,0.132,-0.122,-0.01,-0.093,-0.117,-0.166,-0.303,-0.171,-0.181
2.304,-0.166,-0.107,0.059,0.137,-0.112,-0.024,-0.088,-0.117,-0.166,-0.303,-0.166,-0.181
2.306,-0.161,-0.112,0.049,0.137,-0.107,-0.034,-0.088,-0.117,-0.166,-0.298,-0.166,-0.176
2.308,-0.156,-0.093,0.063,0.127,-0.112,-0.015,-0.088,-0.117,-0.161,-0.288,-0.161,-0.171
2.31,-0.156,-0.083,0.073,0.122,-0.117,-0.005,-0.088,-0.127,-0.171,-0.298,-0.161,-0.171
2.312,-0.156,-0.078,0.078,0.117,-0.117,0.0,-0.088,-0.127,-0.171,-0.303,-0.166,-0.176
2.314,-0.156,-0.073,0.083,0.117,-0.122,0.005,-0.088,-0.127,-0.171,-0.303,-0.166,-0.176
2.316,-0.127,-0.054,0.073,0.093,-0.102,0.01,-0.088,-0.117,-0.171,-0.303,-0.166,-0.171
2.318,-0.137,-0.059,0.078,0.098,-0.107,0.01,-0.088,-0.117,-0.166,-0.293,-0.156,-0.166
2.32,-0.146,-0.068,0.078,0.107,-0.112,0.005,-0.088,-0.117,-0.166,-0.303,-0.156,-0.166
2.322,-0.146,-0.068,0.078,0.107,-0.112,0.005,-0.088,-0.117,-0.166,-0.303,-0.156,-0.166
2.324,-0.146,-0.068,0.078,0.107,-0.112,0.005,-0.088,-0.117,-0.166,-0.303,-0.156,-0.166
2.326,-0.146,-0.068,0.078,0.107,-0.112,0.005,-0.088,-0.117,-0.166,-0.303,-0.156,-0.166
2.328,-0.161,-0.083,0.078,0.122,-0.122,-0.005,-0.102,-0.122,-0.171,-0.307,-0.166,-0.176
2.33,-0.171,-0.088,0.083,0.132,-0.127,-0.005,-0.102,-0.127,-0.176,-0.312,-0.171,-0.176
2.332,-0.176,-0.083,0.093,0.132,-0.137,0.005,-0.102,-0.132,-0.181,-0.317,-0.176,-0.176
2.334,-0.171,-0.078,0.093,0.127,-0.132,0.005,-0.098,-0.137,-0.185,-0.322,-0.181,-0.176
2.336,-0.166,-0.068,0.098,0.117,-0.132,0.015,-0.098,-0.127,-0.176,-0.312,-0.176,-0.166
2.338,-0.166,-0.073,0.093,0.122,-0.132,0.01,-0.098,-0.127,-0.171,-0.307,-0.166,-0.166
2.34,-0.161,-0.073,0.088,0.117,-0.127,0.005,-0.093,-0.122,-0.171,-0.307,-0.161,-0.166
2.342,-0.156,-0.059,0.098,0.107,-0.127,0.02,-0.088,-0.122,-0.166,-0.307,-0.151,-0.156
2.344,-0.151,-0.054,0.098,0.102,-0.127,0.02,-0.078,-0.102,-0.156,-0.303,-0.127,-0.146
2.346,-0.146,-0.049,0.098,0.098,-0.122,0.024,-0.078,-0.098,-0.151,-0.288,-0.127,-0.137
2.348,-0.142,-0.024,0.117,0.083,-0.132,0.044,-0.073,-0.093,-0.137,-0.273,-0.122,-0.127
2.35,-0.132,-0.015,0.117,0.073,-0.127,0.049,-0.063,-0.088,-0.127,-0.259,-0.117,-0.122
2.352,-0.117,-0.02,0.098,0.068,-0.107,0.039,-0.073,-0.093,-0.122,-0.259,-0.117,-0.127
2.354,-0.117,0.0,0.117,0.059,-0.117,0.059,-0.073,-0.093,-0.122,-0.264,-0.122,-0.127
2.356,-0.127,0.0,0.127,0.063,-0.127,0.063,-0.073,-0.088,-0.127,-0.259,-0.127,-0.132
2.358,-0.127,0.0,0.127,0.063,-0.127,0.063,-0.068,-0.088,-0.132,-0.264,-0.132,-0.137
2.36,-0.132,0.005,0.137,0.063,-0.137,0.068,-0.078,-0.093,-0.132,-0.268,-0.122,-0.132
2.362,-0.127,0.005,0.132,0.063,-0.132,0.068,-0.073,-0.093,-0.127,-0.268,-0.122,-0.132
2.364,-0.127,0.005,0.132,0.063,-0.132,0.068,-0.073,-0.093,-0.122,-0.264,-0.117,-0.127
2.366,-0.132,0.0,0.132,0.068,-0.132,0.063,-0.073,-0.088,-0.122,-0.264,-0.112,-0.127
2.368,-0.132,0.0,0.132,0.068,-0.132,0.063,-0.068,-0.088,-0.122,-0.268,-0.112,-0.122
2.37,-0.132,0.0,0.132,0.068,-0.132,0.063,-0.068,-0.088,-0.117,-0.268,-0.112,-0.122
2.372,-0.132,0.0,0.132,0.068,-0.132,0.063,-0.068,-0.088,-0.117,-0.268,-0.107,-0.122
2.374,-0.132,0.015,0.146,0.059,-0.142,0.078,-0.078,-0.093,-0.127,-0.268,-0.107,-0.122
2.376,-0.132,0.02,0.151,0.059,-0.142,0.083,-0.098,-0.112,-0.132,-0.278,-0.117,-0.117
2.378,-0.127,0.02,0.146,0.054,-0.137,0.083,-0.107,-0.117,-0.137,-0.278,-0.117,-0.117
2.38,-0.122,0.024,0.146,0.049,-0.137,0.083,-0.117,-0.127,-0.146,-0.283,-0.117,-0.117
2.382,-0.112,0.034,0.146,0.039,-0.132,0.088,-0.122,-0.137,-0.151,-0.283,-0.117,-0.117
2.384,-0.117,0.029,0.146,0.044,-0.132,0.088,-0.112,-0.122,-0.146,-0.278,-0.112,-0.107
2.386,-0.117,0.024,0.142,0.049,-0.132,0.083,-0.112,-0.117,-0.142,-0.273,-0.107,-0.107
2.388,-0.112,0.044,0.156,0.034,-0.137,0.098,-0.117,-0.117,-0.137,-0.264,-0.098,-0.098
2.39,-0.117,0.039,0.156,0.039,-0.137,0.098,-0.117,-0.112,-0.132,-0.254,-0.083,-0.093
2.392,-0.122,0.049,0.171,0.039,-0.146,0.107,-0.112,-0.122,-0.142,-0.264,-0.088,-0.102
2.394,-0.122,0.049,0.171,0.039,-0.146,0.107,-0.112,-0.122,-0.142,-0.264,-0.093,-0.102
2.396,-0.122,0.054,0.176,0.034,-0.151,0.112,-0.117,-0.127,-0.142,-0.264,-0.098,-0.098
2.398,-0.127,0.054,0.181,0.039,-0.156,0.117,-0.122,-0.132,-0.146,-0.264,-0.102,-0.098
2.4,-0.117,0.068,0.185,0.024,-0.151,0.127,-0.132,-0.146,-0.166,-0.283,-0.112,-0.102
2.402,-0.107,0.068,0.176,0.02,-0.142,0.122,-0.132,-0.146,-0.166,-0.288,-0.117,-0.107
2.404,-0.117,0.059,0.176,0.029,-0.146,0.117,-0.132,-0.146,-0.166,-0.288,-0.117,-0.112
2.406,-0.117,0.044,0.161,0.039,-0.142,0.102,-0.132,-0.156,-0.171,-0.293,-0.117,-0.112
2.408,-0.117,0.029,0.146,0.044,-0.132,0.088,-0.117,-0.137,-0.161,-0.293,-0.112,-0.112
2.41,-0.127,0.02,0.146,0.054,-0.137,0.083,-0.117,-0.137,-0.161,-0.293,-0.112,-0.112
2.412,-0.127,0.0,0.127,0.063,-0.127,0.063,-0.112,-0.127,-0.156,-0.293,-0.112,-0.122
2.414,-0.122,-0.01,0.112,0.068,-0.117,0.049,-0.112,-0.127,-0.156,-0.298,-0.117,-0.127
2.416,-0.137,-0.024,0.112,0.083,-0.127,0.044,-0.117,-0.132,-0.166,-0.307,-0.132,-0.137
2.418,-0.151,-0.049,0.102,0.102,-0.127,0.024,-0.117,-0.132,-0.166,-0.307,-0.132,-0.142
2.42,-0.156,-0.054,0.102,0.107,-0.132,0.024,-0.122,-0.132,-0.171,-0.307,-0.137,-0.146
2.422,-0.161,-0.059,0.102,0.112,-0.132,0.02,-0.132,-0.137,-0.176,-0.317,-0.142,-0.151
2.424,-0.156,-0.049,0.107,0.102,-0.132,0.029,-0.122,-0.142,-0.181,-0.312,-0.137,-0.146
2.426,-0.156,-0.049,0.107,0.102,-0.132,0.029,-0.122,-0.146,-0.185,-0.317,-0.142,-0.146
2.428,-0.137,-0.044,0.093,0.093,-0.117,0.024,-0.122,-0.161,-0.2,-0.332,-0.151,-0.151
2.43,-0.127,-0.044,0.083,0.088,-0.107,0.02,-0.122,-0.161,-0.21,-0.342,-0.161,-0.156
2.432,-0.137,-0.059,0.078,0.098,-0.107,0.01,-0.122,-0.156,-0.205,-0.346,-0.161,-0.151
2.434,-0.137,-0.063,0.073,0.102,-0.107,0.005,-0.122,-0.156,-0.205,-0.342,-0.161,-0.151
2.436,-0.146,-0.073,0.073,0.112,-0.112,0.0,-0.122,-0.161,-0.205,-0.337,-0.156,-0.146
2.438,-0.151,-0.093,0.059,0.122,-0.107,-0.02,-0.122,-0.161,-0.205,-0.332,-0.151,-0.142
2.44,-0.161,-0.093,0.068,0.127,-0.117,-0.015,-0.137,-0.166,-0.215,-0.346,-0.166,-0.166
2.442,-0.161,-0.093,0.068,0.127,-0.117,-0.015,-0.137,-0.166,-0.22,-0.361,-0.181,-0.171
2.444,-0.166,-0.098,0.068,0.132,-0.117,-0.015,-0.137,-0.166,-0.224,-0.366,-0.185,-0.176
2.446,-0.166,-0.098,0.068,0.132,-0.117,-0.015,-0.142,-0.166,-0.229,-0.371,-0.19,-0.181
2.448,-0.156,-0.088,0.068,0.122,-0.112,-0.01,-0.146,-0.166,-0.224,-0.361,-0.19,-0.185
2.45,-0.161,-0.093,0.068,0.127,-0.117,-0.015,-0.146,-0.171,-0.229,-0.371,-0.2,-0.19
2.452,-0.161,-0.102,0.059,0.132,-0.112,-0.024,-0.151,-0.171,-0.234,-0.371,-0.2,-0.195
2.454,-0.156,-0.093,0.063,0.127,-0.112,-0.015,-0.151,-0.171,-0.234,-0.371,-0.2,-0.195
2.456,-0.142,-0.093,0.049,0.117,-0.098,-0.024,-0.137,-0.166,-0.22,-0.361,-0.19,-0.176
2.458,-0.142,-0.093,0.049,0.117,-0.098,-0.024,-0.132,-0.161,-0.215,-0.356,-0.185,-0.176
2.46,-0.146,-0.093,0.054,0.122,-0.102,-0.02,-0.132,-0.161,-0.215,-0.351,-0.181,-0.176
2.462,-0.146,-0.093,0.054,0.122,-0.102,-0.02,-0.132,-0.161,-0.215,-0.342,-0.176,-0.176
2.464,-0.161,-0.107,0.054,0.137,-0.107,-0.029,-0.142,-0.171,-0.215,-0.342,-0.185,-0.176
2.466,-0.166,-0.107,0.059,0.137,-0.112,-0.024,-0.142,-0.171,-0.22,-0.346,-0.185,-0.176
2.468,-0.171,-0.107,0.063,0.142,-0.117,-0.024,-0.142,-0.171,-0.229,-0.361,-0.185,-0.185
2.47,-0.176,-0.112,0.063,0.146,-0.122,-0.024,-0.142,-0.166,-0.234,-0.366,-0.185,-0.176
2.472,-0.176,-0.117,0.059,0.146,-0.117,-0.029,-0.132,-0.166,-0.224,-0.371,-0.176,-0.176
2.474,-0.171,-0.117,0.054,0.146,-0.112,-0.034,-0.132,-0.171,-0.229,-0.371,-0.181,-0.176
2.476,-0.166,-0.117,0.049,0.142,-0.107,-0.034,-0.132,-0.171,-0.229,-0.366,-0.181,-0.176
2.478,-0.161,-0.117,0.044,0.142,-0.102,-0.039,-0.127,-0.166,-0.224,-0.361,-0.176,-0.176
2.48,-0.146,-0.107,0.039,0.127,-0.093,-0.034,-0.122,-0.156,-0.215,-0.351,-0.181,-0.166
2.482,-0.146,-0.102,0.044,0.127,-0.098,-0.029,-0.122,-0.151,-0.21,-0.351,-0.181,-0.166
2.484,-0.151,-0.102,0.049,0.127,-0.102,-0.029,-0.122,-0.146,-0.21,-0.351,-0.181,-0.171
2.486,-0.156,-0.112,0.044,0.137,-0.102,-0.034,-0.122,-0.142,-0.21,-0.351,-0.185,-0.176
2.488,-0.146,-0.112,0.034,0.132,-0.093,-0.039,-0.107,-0.137,-0.21,-0.366,-0.195,-0.2
2.49,-0.171,-0.156,0.015,0.166,-0.093,-0.073,-0.078,-0.098,-0.205,-0.381,-0.234,-0.224
2.492,-0.185,-0.19,-0.005,0.19,-0.093,-0.098,-0.034,-0.039,-0.176,-0.41,-0.273,-0.268
2.494,-0.176,-0.19,-0.015,0.185,-0.083,-0.102,0.01,0.029,-0.161,-0.434,-0.317,-0.298
2.496,-0.166,-0.2,-0.034,0.185,-0.068,-0.117,0.039,0.102,-0.112,-0.42,-0.322,-0.307
2.498,-0.161,-0.2,-0.039,0.181,-0.063,-0.122,0.044,0.142,-0.059,-0.39,-0.303,-0.288
2.5,-0.156,-0.161,-0.005,0.161,-0.078,-0.083,0.034,0.151,-0.034,-0.351,-0.268,-0.268
2.502,-0.171,-0.146,0.024,0.161,-0.098,-0.063,0.02,0.151,-0.015,-0.317,-0.229,-0.244
2.504,-0.171,-0.142,0.029,0.156,-0.102,-0.059,0.039,0.21,0.059,-0.249,-0.166,-0.195
2.506,-0.117,-0.102,0.015,0.112,-0.068,-0.044,0.059,0.327,0.21,-0.098,-0.049,-0.117
2.508,-0.054,-0.005,0.049,0.029,-0.054,0.02,0.034,0.361,0.39,0.146,0.176,0.039
2.51,-0.029,0.063,0.093,-0.015,-0.063,0.078,-0.054,0.215,0.454,0.415,0.459,0.254
2.512,-0.029,0.107,0.137,-0.039,-0.083,0.122,-0.171,-0.102,0.351,0.63,0.712,0.468
2.514,0.0,0.195,0.195,-0.098,-0.098,0.195,-0.283,-0.454,0.19,0.776,0.947,0.654
2.516,0.01,0.293,0.283,-0.151,-0.137,0.288,-0.39,-0.771,0.054,0.937,1.181,0.854
2.518,0.02,0.395,0.376,-0.205,-0.181,0.386,-0.493,-1.054,-0.034,1.103,1.401,1.039
2.52,0.078,0.551,0.473,-0.312,-0.2,0.512,-0.561,-1.196,-0.049,1.288,1.596,1.191
2.522,0.132,0.688,0.556,-0.41,-0.215,0.62,-0.664,-1.293,-0.029,1.469,1.786,1.342
2.524,0.112,0.752,0.639,-0.429,-0.264,0.693,-0.805,-1.444,-0.063,1.606,1.932,1.454
2.526,0.098,0.839,0.742,-0.468,-0.322,0.791,-0.932,-1.601,-0.132,1.688,2.025,1.523
2.528,0.117,0.971,0.854,-0.542,-0.371,0.913,-1.02,-1.693,-0.215,1.674,2.025,1.552
2.53,0.083,0.952,0.869,-0.517,-0.395,0.908,-1.025,-1.737,-0.332,1.498,1.869,1.474
2.532,0.0,0.786,0.786,-0.39,-0.395,0.786,-0.996,-1.732,-0.454,1.225,1.591,1.269
2.534,-0.054,0.639,0.693,-0.293,-0.376,0.664,-0.952,-1.708,-0.566,0.937,1.293,1.039
2.536,-0.098,0.522,0.62,-0.21,-0.361,0.571,-0.917,-1.693,-0.717,0.625,1.0,0.825
2.538,-0.181,0.434,0.615,-0.127,-0.4,0.522,-0.908,-1.737,-0.966,0.205,0.639,0.581
2.54,-0.254,0.366,0.62,-0.054,-0.439,0.493,-0.878,-1.776,-1.249,-0.303,0.205,0.268
2.542,-0.312,0.264,0.576,0.024,-0.444,0.42,-0.795,-1.698,-1.449,-0.795,-0.254,-0.068
2.544,-0.342,0.151,0.493,0.098,-0.42,0.322,-0.698,-1.537,-1.488,-1.132,-0.581,-0.317
2.546,-0.332,0.093,0.425,0.122,-0.381,0.259,-0.62,-1.347,-1.381,-1.181,-0.688,-0.434
2.548,-0.312,0.039,0.351,0.137,-0.332,0.195,-0.561,-1.147,-1.166,-1.015,-0.634,-0.434
2.55,-0.288,-0.034,0.254,0.161,-0.273,0.107,-0.493,-0.932,-0.956,-0.854,-0.532,-0.381
2.552,-0.259,-0.059,0.2,0.161,-0.229,0.068,-0.415,-0.752,-0.776,-0.732,-0.434,-0.322
2.554,-0.215,-0.029,0.185,0.122,-0.2,0.078,-0.351,-0.59,-0.625,-0.605,-0.346,-0.268
2.556,-0.185,-0.005,0.181,0.098,-0.185,0.088,-0.293,-0.454,-0.493,-0.483,-0.259,-0.205
2.558,-0.176,-0.01,0.166,0.093,-0.171,0.078,-0.249,-0.361,-0.4,-0.415,-0.205,-0.161
2.56,-0.161,-0.005,0.156,0.083,-0.161,0.073,-0.234,-0.307,-0.351,-0.39,-0.185,-0.156
2.562,-0.161,-0.015,0.146,0.088,-0.156,0.063,-0.195,-0.249,-0.303,-0.361,-0.176,-0.156
2.564,-0.171,-0.068,0.102,0.122,-0.137,0.015,-0.171,-0.2,-0.254,-0.346,-0.161,-0.151
2.566,-0.185,-0.098,0.088,0.142,-0.137,-0.005,-0.161,-0.181,-0.234,-0.342,-0.171,-0.171
2.568,-0.185,-0.098,0.088,0.142,-0.137,-0.005,-0.142,-0.161,-0.22,-0.337,-0.181,-0.19
2.57,-0.2,-0.117,0.083,0.161,-0.142,-0.02,-0.127,-0.142,-0.19,-0.312,-0.166,-0.181
2.572,-0.19,-0.117,0.073,0.156,-0.132,-0.024,-0.112,-0.112,-0.176,-0.303,-0.161,-0.171
2.574,-0.19,-0.107,0.083,0.151,-0.137,-0.015,-0.102,-0.098,-0.166,-0.298,-0.156,-0.166
2.576,-0.176,-0.107,0.068,0.142,-0.122,-0.02,-0.093,-0.073,-0.151,-0.288,-0.151,-0.161
2.578,-0.176,-0.117,0.059,0.146,-0.117,-0.029,-0.073,-0.044,-0.132,-0.288,-0.151,-0.156
2.58,-0.161,-0.117,0.044,0.142,-0.102,-0.039,-0.068,-0.034,-0.132,-0.288,-0.146,-0.161
2.582,-0.156,-0.117,0.039,0.137,-0.098,-0.039,-0.068,-0.024,-0.127,-0.288,-0.151,-0.161
2.584,-0.151,-0.117,0.034,0.137,-0.093,-0.044,-0.068,-0.015,-0.117,-0.288,-0.151,-0.161
2.586,-0.151,-0.127,0.024,0.142,-0.088,-0.054,-0.068,-0.015,-0.117,-0.288,-0.151,-0.166
2.588,-0.142,-0.122,0.02,0.132,-0.083,-0.054,-0.063,-0.015,-0.107,-0.283,-0.156,-0.161
2.59,-0.151,-0.112,0.039,0.132,-0.098,-0.039,-0.063,-0.005,-0.102,-0.273,-0.142,-0.151
2.592,-0.151,-0.112,0.039,0.132,-0.098,-0.039,-0.059,0.0,-0.093,-0.259,-0.127,-0.137
2.594,-0.142,-0.083,0.059,0.112,-0.102,-0.015,-0.059,0.005,-0.088,-0.244,-0.117,-0.132
2.596,-0.151,-0.088,0.063,0.122,-0.107,-0.015,-0.068,0.01,-0.088,-0.249,-0.122,-0.142
2.598,-0.161,-0.098,0.063,0.132,-0.112,-0.02,-0.059,0.024,-0.078,-0.249,-0.122,-0.142
2.6,-0.151,-0.107,0.044,0.132,-0.098,-0.034,-0.059,0.024,-0.078,-0.249,-0.122,-0.142
2.602,-0.146,-0.117,0.029,0.132,-0.088,-0.044,-0.054,0.034,-0.073,-0.249,-0.122,-0.142
2.604,-0.146,-0.127,0.02,0.137,-0.083,-0.054,-0.063,0.034,-0.078,-0.249,-0.132,-0.137
2.606,-0.146,-0.127,0.02,0.137,-0.083,-0.054,-0.059,0.029,-0.073,-0.249,-0.127,-0.142
2.608,-0.146,-0.117,0.029,0.132,-0.088,-0.044,-0.059,0.029,-0.073,-0.249,-0.127,-0.146
2.61,-0.151,-0.117,0.034,0.137,-0.093,-0.044,-0.059,0.034,-0.059,-0.239,-0.117,-0.151
2.612,-0.142,-0.107,0.034,0.127,-0.088,-0.039,-0.049,0.044,-0.044,-0.224,-0.102,-0.137
2.614,-0.142,-0.107,0.034,0.127,-0.088,-0.039,-0.049,0.044,-0.044,-0.224,-0.102,-0.132
2.616,-0.137,-0.107,0.029,0.122,-0.083,-0.039,-0.044,0.049,-0.034,-0.224,-0.098,-0.122
2.618,-0.127,-0.107,0.02,0.117,-0.073,-0.044,-0.044,0.059,-0.029,-0.215,-0.093,-0.112
2.62,-0.127,-0.098,0.029,0.112,-0.078,-0.034,-0.039,0.068,-0.02,-0.215,-0.093,-0.122
2.622,-0.117,-0.093,0.024,0.107,-0.073,-0.034,-0.039,0.078,-0.02,-0.215,-0.093,-0.122
2.624,-0.117,-0.093,0.024,0.107,-0.073,-0.034,-0.039,0.083,-0.01,-0.21,-0.088,-0.117
2.626,-0.122,-0.102,0.02,0.112,-0.073,-0.044,-0.039,0.083,-0.01,-0.21,-0.088,-0.117
2.628,-0.137,-0.102,0.034,0.122,-0.088,-0.034,-0.049,0.073,-0.02,-0.21,-0.098,-0.132
2.63,-0.137,-0.102,0.034,0.122,-0.088,-0.034,-0.049,0.078,-0.02,-0.205,-0.093,-0.132
2.632,-0.132,-0.098,0.034,0.117,-0.083,-0.034,-0.049,0.088,-0.005,-0.195,-0.088,-0.127
2.634,-0.127,-0.088,0.039,0.107,-0.083,-0.024,-0.049,0.088,0.0,-0.19,-0.088,-0.127
2.636,-0.137,-0.098,0.039,0.117,-0.088,-0.029,-0.059,0.088,0.005,-0.19,-0.083,-0.127
2.638,-0.137,-0.107,0.029,0.122,-0.083,-0.039,-0.049,0.093,0.01,-0.185,-0.078,-0.122
2.64,-0.132,-0.117,0.015,0.127,-0.073,-0.054,-0.049,0.102,0.015,-0.185,-0.078,-0.122
2.642,-0.132,-0.117,0.015,0.127,-0.073,-0.054,-0.054,0.107,0.02,-0.185,-0.078,-0.117
2.644,-0.127,-0.117,0.01,0.122,-0.068,-0.054,-0.054,0.127,0.029,-0.176,-0.068,-0.102
2.646,-0.122,-0.112,0.01,0.117,-0.068,-0.054,-0.054,0.127,0.034,-0.166,-0.063,-0.102
2.648,-0.107,-0.098,0.01,0.102,-0.059,-0.044,-0.054,0.127,0.039,-0.156,-0.059,-0.102
2.65,-0.102,-0.093,0.01,0.098,-0.059,-0.044,-0.049,0.137,0.044,-0.142,-0.054,-0.102
2.652,-0.107,-0.093,0.015,0.102,-0.063,-0.039,-0.039,0.132,0.054,-0.146,-0.063,-0.102
2.654,-0.107,-0.078,0.029,0.093,-0.068,-0.024,-0.039,0.146,0.059,-0.146,-0.059,-0.102
2.656,-0.107,-0.078,0.029,0.093,-0.068,-0.024,-0.039,0.151,0.063,-0.137,-0.059,-0.102
2.658,-0.102,-0.083,0.02,0.093,-0.063,-0.034,-0.039,0.156,0.078,-0.132,-0.054,-0.098
2.66,-0.093,-0.093,0.0,0.093,-0.049,-0.049,-0.039,0.166,0.083,-0.112,-0.039,-0.098
2.662,-0.093,-0.088,0.005,0.093,-0.049,-0.044,-0.034,0.171,0.088,-0.107,-0.034,-0.098
2.664,-0.093,-0.088,0.005,0.093,-0.049,-0.044,-0.029,0.185,0.102,-0.093,-0.029,-0.088
2.666,-0.088,-0.088,0.0,0.088,-0.044,-0.044,-0.029,0.2,0.107,-0.093,-0.02,-0.088
2.668,-0.098,-0.088,0.01,0.093,-0.054,-0.039,-0.039,0.2,0.122,-0.083,-0.02,-0.088
2.67,-0.098,-0.088,0.01,0.093,-0.054,-0.039,-0.039,0.21,0.132,-0.073,-0.015,-0.078
2.672,-0.098,-0.088,0.01,0.093,-0.054,-0.039,-0.039,0.224,0.142,-0.059,-0.01,-0.073
2.674,-0.093,-0.078,0.015,0.088,-0.054,-0.034,-0.034,0.229,0.146,-0.049,0.0,-0.068
2.676,-0.083,-0.073,0.01,0.078,-0.049,-0.034,-0.034,0.239,0.161,-0.044,0.02,-0.054
2.678,-0.078,-0.068,0.01,0.073,-0.044,-0.029,-0.034,0.249,0.185,-0.02,0.029,-0.049
2.68,-0.068,-0.059,0.01,0.063,-0.039,-0.024,-0.034,0.264,0.185,-0.015,0.039,-0.044
2.682,-0.059,-0.044,0.015,0.054,-0.039,-0.015,-0.034,0.273,0.195,-0.01,0.039,-0.039
2.684,-0.054,-0.034,0.02,0.044,-0.039,-0.01,-0.029,0.288,0.229,0.01,0.049,-0.034
2.686,-0.049,-0.024,0.024,0.039,-0.039,0.0,-0.029,0.303,0.244,0.024,0.054,-0.024
2.688,-0.044,-0.024,0.02,0.034,-0.034,-0.005,-0.029,0.312,0.254,0.039,0.063,-0.015
2.69,-0.044,-0.024,0.02,0.034,-0.034,-0.005,-0.024,0.327,0.273,0.059,0.078,-0.005
2.692,-0.059,-0.034,0.024,0.049,-0.044,-0.005,-0.015,0.337,0.288,0.078,0.102,0.015
2.694,-0.059,-0.039,0.02,0.049,-0.039,-0.01,-0.015,0.351,0.293,0.093,0.107,0.015
2.696,-0.063,-0.044,0.02,0.054,-0.044,-0.015,-0.02,0.351,0.307,0.102,0.117,0.02
2.698,-0.068,-0.044,0.024,0.059,-0.049,-0.01,-0.02,0.366,0.327,0.122,0.122,0.029
2.7,-0.054,-0.024,0.029,0.039,-0.044,0.0,-0.029,0.39,0.356,0.137,0.137,0.044
2.702,-0.039,-0.01,0.029,0.024,-0.034,0.01,-0.029,0.405,0.386,0.156,0.156,0.049
2.704,-0.029,0.0,0.029,0.015,-0.029,0.015,-0.029,0.42,0.405,0.19,0.185,0.068
2.706,-0.024,0.01,0.034,0.01,-0.029,0.02,-0.029,0.434,0.425,0.21,0.205,0.078
2.708,-0.024,0.005,0.029,0.01,-0.029,0.015,-0.02,0.454,0.439,0.224,0.224,0.093
2.71,-0.015,0.0,0.015,0.01,-0.015,0.005,-0.02,0.464,0.459,0.254,0.244,0.102
2.712,-0.015,0.005,0.02,0.005,-0.02,0.01,-0.02,0.478,0.483,0.273,0.259,0.122
2.714,-0.02,0.015,0.034,0.005,-0.029,0.024,-0.024,0.488,0.488,0.283,0.278,0.132
2.716,-0.01,0.034,0.044,-0.01,-0.029,0.039,-0.029,0.498,0.517,0.317,0.283,0.142
2.718,0.005,0.049,0.044,-0.024,-0.02,0.044,-0.034,0.498,0.532,0.327,0.298,0.151
2.72,0.02,0.073,0.054,-0.044,-0.02,0.063,-0.034,0.503,0.547,0.342,0.312,0.161
2.722,0.039,0.102,0.063,-0.068,-0.015,0.083,-0.044,0.508,0.561,0.356,0.322,0.171
2.724,0.029,0.088,0.059,-0.059,-0.015,0.073,-0.044,0.517,0.576,0.376,0.351,0.185
2.726,0.034,0.093,0.059,-0.063,-0.015,0.073,-0.049,0.527,0.586,0.395,0.366,0.195
2.728,0.034,0.107,0.073,-0.068,-0.02,0.088,-0.054,0.527,0.6,0.415,0.376,0.205
2.73,0.029,0.102,0.073,-0.063,-0.024,0.088,-0.059,0.532,0.605,0.434,0.395,0.229
2.732,0.02,0.093,0.073,-0.054,-0.029,0.083,-0.059,0.532,0.6,0.439,0.41,0.234
2.734,0.029,0.102,0.073,-0.063,-0.024,0.088,-0.063,0.532,0.6,0.444,0.41,0.239
2.736,0.034,0.117,0.083,-0.073,-0.024,0.098,-0.068,0.532,0.605,0.459,0.415,0.239
2.738,0.039,0.122,0.083,-0.078,-0.024,0.102,-0.073,0.522,0.615,0.473,0.42,0.249
2.74,0.039,0.127,0.088,-0.083,-0.024,0.107,-0.083,0.508,0.605,0.468,0.415,0.244
2.742,0.039,0.132,0.093,-0.083,-0.029,0.112,-0.093,0.508,0.6,0.468,0.425,0.249
2.744,0.039,0.132,0.093,-0.083,-0.029,0.112,-0.102,0.503,0.6,0.468,0.429,0.254
2.746,0.029,0.132,0.102,-0.078,-0.039,0.117,-0.112,0.498,0.6,0.468,0.429,0.254
2.748,0.044,0.146,0.102,-0.093,-0.029,0.122,-0.112,0.503,0.595,0.468,0.429,0.264
2.75,0.054,0.156,0.102,-0.102,-0.024,0.127,-0.112,0.498,0.59,0.473,0.434,0.278
2.752,0.059,0.156,0.098,-0.107,-0.02,0.127,-0.107,0.483,0.586,0.473,0.434,0.283
2.754,0.063,0.156,0.093,-0.107,-0.015,0.122,-0.117,0.468,0.576,0.459,0.434,0.283
2.756,0.063,0.156,0.093,-0.107,-0.015,0.122,-0.122,0.459,0.556,0.444,0.429,0.278
2.758,0.068,0.156,0.088,-0.112,-0.01,0.122,-0.127,0.444,0.556,0.439,0.425,0.278
2.76,0.068,0.161,0.093,-0.112,-0.015,0.127,-0.137,0.425,0.532,0.42,0.41,0.273
2.762,0.068,0.161,0.093,-0.112,-0.015,0.127,-0.142,0.405,0.517,0.405,0.4,0.259
2.764,0.068,0.166,0.098,-0.117,-0.015,0.132,-0.132,0.395,0.508,0.405,0.405,0.254
2.766,0.068,0.166,0.098,-0.117,-0.015,0.132,-0.127,0.39,0.493,0.39,0.39,0.254
2.768,0.068,0.166,0.098,-0.117,-0.015,0.132,-0.127,0.381,0.468,0.376,0.381,0.244
2.77,0.063,0.161,0.098,-0.112,-0.02,0.127,-0.122,0.361,0.444,0.356,0.371,0.239
2.772,0.059,0.137,0.078,-0.098,-0.01,0.107,-0.122,0.342,0.42,0.332,0.346,0.215
2.774,0.049,0.137,0.088,-0.093,-0.02,0.112,-0.122,0.317,0.386,0.298,0.322,0.2
2.776,0.044,0.137,0.093,-0.088,-0.024,0.112,-0.122,0.288,0.346,0.268,0.298,0.185
2.778,0.034,0.127,0.093,-0.078,-0.029,0.107,-0.122,0.268,0.322,0.239,0.283,0.171
2.78,0.015,0.117,0.102,-0.063,-0.044,0.107,-0.127,0.239,0.298,0.205,0.254,0.137
2.782,0.005,0.112,0.107,-0.059,-0.054,0.107,-0.127,0.224,0.268,0.176,0.234,0.132
2.784,0.0,0.107,0.107,-0.054,-0.054,0.107,-0.122,0.21,0.244,0.161,0.22,0.127
2.786,0.0,0.102,0.102,-0.049,-0.054,0.102,-0.117,0.2,0.229,0.142,0.2,0.122
2.788,-0.015,0.098,0.112,-0.039,-0.063,0.102,-0.117,0.166,0.2,0.112,0.181,0.098
2.79,-0.024,0.088,0.112,-0.029,-0.068,0.098,-0.107,0.146,0.181,0.093,0.166,0.083
2.792,-0.024,0.063,0.088,-0.02,-0.059,0.073,-0.107,0.137,0.151,0.078,0.146,0.073
2.794,-0.034,0.054,0.088,-0.01,-0.063,0.068,-0.107,0.112,0.122,0.049,0.132,0.059
2.796,-0.039,0.049,0.088,-0.005,-0.063,0.068,-0.102,0.083,0.093,0.015,0.102,0.034
2.798,-0.044,0.034,0.078,0.005,-0.063,0.054,-0.102,0.073,0.068,-0.005,0.083,0.02
2.8,-0.049,0.024,0.073,0.015,-0.063,0.049,-0.098,0.063,0.044,-0.034,0.059,0.0
2.802,-0.059,0.02,0.078,0.02,-0.068,0.049,-0.098,0.044,0.024,-0.063,0.039,-0.015
2.804,-0.059,0.015,0.073,0.024,-0.068,0.044,-0.098,0.039,0.02,-0.073,0.034,-0.015
2.806,-0.059,0.01,0.068,0.024,-0.063,0.039,-0.098,0.034,0.005,-0.083,0.02,-0.02
2.808,-0.063,0.005,0.068,0.029,-0.068,0.034,-0.098,0.02,-0.01,-0.093,0.01,-0.039
2.81,-0.068,-0.01,0.059,0.039,-0.063,0.024,-0.098,0.01,-0.024,-0.098,0.0,-0.044
2.812,-0.088,-0.024,0.063,0.059,-0.078,0.02,-0.107,-0.005,-0.044,-0.112,-0.015,-0.049
2.814,-0.093,-0.024,0.068,0.059,-0.083,0.02,-0.107,-0.015,-0.063,-0.127,-0.039,-0.068
2.816,-0.093,-0.024,0.068,0.059,-0.083,0.02,-0.107,-0.029,-0.068,-0.142,-0.044,-0.073
2.818,-0.093,-0.034,0.059,0.063,-0.078,0.01,-0.102,-0.044,-0.068,-0.161,-0.054,-0.073
2.82,-0.078,-0.02,0.059,0.049,-0.068,0.02,-0.093,-0.039,-0.078,-0.156,-0.059,-0.068
2.822,-0.073,-0.015,0.059,0.044,-0.068,0.02,-0.093,-0.049,-0.083,-0.166,-0.063,-0.083
2.824,-0.068,-0.015,0.054,0.044,-0.063,0.02,-0.093,-0.044,-0.093,-0.171,-0.063,-0.083
2.826,-0.068,-0.015,0.054,0.044,-0.063,0.02,-0.093,-0.039,-0.098,-0.181,-0.063,-0.088
2.828,-0.068,-0.024,0.044,0.049,-0.059,0.01,-0.107,-0.054,-0.107,-0.185,-0.068,-0.088
2.83,-0.073,-0.029,0.044,0.054,-0.059,0.005,-0.107,-0.059,-0.107,-0.185,-0.068,-0.088
2.832,-0.073,-0.039,0.034,0.059,-0.054,-0.005,-0.102,-0.063,-0.107,-0.19,-0.068,-0.088
2.834,-0.068,-0.029,0.039,0.049,-0.054,0.005,-0.102,-0.063,-0.112,-0.2,-0.083,-0.098
2.836,-0.078,-0.039,0.039,0.059,-0.059,0.0,-0.102,-0.078,-0.127,-0.2,-0.083,-0.093
2.838,-0.083,-0.049,0.034,0.068,-0.059,-0.01,-0.107,-0.088,-0.137,-0.205,-0.093,-0.093
2.84,-0.088,-0.054,0.034,0.073,-0.063,-0.01,-0.107,-0.088,-0.146,-0.205,-0.093,-0.098
2.842,-0.088,-0.059,0.029,0.073,-0.059,-0.015,-0.107,-0.088,-0.151,-0.21,-0.093,-0.098
2.844,-0.093,-0.063,0.029,0.078,-0.063,-0.02,-0.117,-0.078,-0.146,-0.21,-0.102,-0.107
2.846,-0.093,-0.068,0.024,0.083,-0.059,-0.024,-0.117,-0.088,-0.151,-0.21,-0.107,-0.107
2.848,-0.093,-0.068,0.024,0.083,-0.059,-0.024,-0.122,-0.088,-0.151,-0.215,-0.107,-0.112
2.85,-0.093,-0.073,0.02,0.083,-0.059,-0.029,-0.122,-0.088,-0.151,-0.215,-0.107,-0.112
2.852,-0.083,-0.078,0.005,0.083,-0.044,-0.039,-0.112,-0.088,-0.146,-0.215,-0.112,-0.122
2.854,-0.083,-0.063,0.02,0.073,-0.054,-0.024,-0.107,-0.093,-0.146,-0.224,-0.112,-0.122
2.856,-0.078,-0.059,0.02,0.068,-0.049,-0.02,-0.107,-0.093,-0.151,-0.224,-0.112,-0.122
2.858,-0.078,-0.054,0.024,0.068,-0.054,-0.015,-0.107,-0.093,-0.151,-0.22,-0.112,-0.122
2.86,-0.073,-0.054,0.02,0.063,-0.049,-0.02,-0.098,-0.083,-0.142,-0.21,-0.107,-0.107
2.862,-0.073,-0.054,0.02,0.063,-0.049,-0.02,-0.102,-0.088,-0.151,-0.215,-0.112,-0.112
2.864,-0.078,-0.059,0.02,0.068,-0.049,-0.02,-0.102,-0.088,-0.151,-0.215,-0.107,-0.107
2.866,-0.078,-0.059,0.02,0.068,-0.049,-0.02,-0.102,-0.083,-0.151,-0.215,-0.102,-0.098
2.868,-0.068,-0.044,0.024,0.059,-0.049,-0.01,-0.102,-0.073,-0.151,-0.21,-0.102,-0.107
2.87,-0.063,-0.044,0.02,0.054,-0.044,-0.015,-0.102,-0.073,-0.151,-0.21,-0.093,-0.107
2.872,-0.059,-0.044,0.015,0.054,-0.039,-0.015,-0.102,-0.078,-0.142,-0.21,-0.093,-0.102
2.874,-0.054,-0.044,0.01,0.049,-0.034,-0.02,-0.102,-0.078,-0.142,-0.21,-0.098,-0.102
2.876,-0.063,-0.059,0.005,0.063,-0.034,-0.029,-0.102,-0.088,-0.142,-0.2,-0.088,-0.098
2.878,-0.068,-0.063,0.005,0.068,-0.039,-0.029,-0.102,-0.088,-0.142,-0.2,-0.088,-0.098
2.88,-0.068,-0.063,0.005,0.068,-0.039,-0.029,-0.107,-0.088,-0.142,-0.205,-0.088,-0.098
2.882,-0.068,-0.059,0.01,0.063,-0.039,-0.024,-0.107,-0.093,-0.146,-0.205,-0.093,-0.098
2.884,-0.083,-0.059,0.024,0.073,-0.054,-0.02,-0.117,-0.093,-0.156,-0.215,-0.102,-0.107
2.886,-0.083,-0.059,0.024,0.073,-0.054,-0.02,-0.117,-0.088,-0.156,-0.215,-0.102,-0.107
2.888,-0.078,-0.059,0.02,0.068,-0.049,-0.02,-0.117,-0.088,-0.156,-0.215,-0.102,-0.117
2.89,-0.078,-0.059,0.02,0.068,-0.049,-0.02,-0.117,-0.088,-0.156,-0.21,-0.102,-0.107
2.892,-0.073,-0.068,0.005,0.073,-0.039,-0.034,-0.117,-0.098,-0.151,-0.22,-0.112,-0.107
2.894,-0.063,-0.063,0.0,0.063,-0.034,-0.034,-0.112,-0.098,-0.151,-0.22,-0.107,-0.107
2.896,-0.063,-0.063,0.0,0.063,-0.034,-0.034,-0.112,-0.098,-0.151,-0.22,-0.102,-0.107
2.898,-0.068,-0.073,-0.005,0.073,-0.034,-0.039,-0.112,-0.098,-0.151,-0.22,-0.102,-0.107
2.9,-0.073,-0.063,0.01,0.068,-0.044,-0.029,-0.107,-0.098,-0.142,-0.215,-0.102,-0.107
2.902,-0.068,-0.059,0.01,0.063,-0.039,-0.024,-0.107,-0.093,-0.142,-0.215,-0.102,-0.107
2.904,-0.063,-0.059,0.005,0.063,-0.034,-0.029,-0.107,-0.083,-0.137,-0.21,-0.102,-0.107
2.906,-0.059,-0.063,-0.005,0.063,-0.029,-0.034,-0.107,-0.078,-0.137,-0.205,-0.112,-0.107
2.908,-0.068,-0.063,0.005,0.068,-0.039,-0.029,-0.107,-0.088,-0.151,-0.215,-0.117,-0.122
2.91,-0.063,-0.063,0.0,0.063,-0.034,-0.034,-0.107,-0.088,-0.151,-0.205,-0.117,-0.122
2.912,-0.059,-0.063,-0.005,0.063,-0.029,-0.034,-0.107,-0.088,-0.146,-0.205,-0.117,-0.122
2.914,-0.059,-0.063,-0.005,0.063,-0.029,-0.034,-0.107,-0.088,-0.146,-0.215,-0.117,-0.122
2.916,-0.059,-0.049,0.01,0.054,-0.034,-0.02,-0.098,-0.083,-0.146,-0.215,-0.112,-0.122
2.918,-0.059,-0.049,0.01,0.054,-0.034,-0.02,-0.098,-0.078,-0.146,-0.215,-0.112,-0.122
2.92,-0.059,-0.054,0.005,0.059,-0.034,-0.024,-0.098,-0.078,-0.146,-0.215,-0.112,-0.122
2.922,-0.059,-0.054,0.005,0.059,-0.034,-0.024,-0.098,-0.083,-0.151,-0.22,-0.117,-0.122
2.924,-0.063,-0.068,-0.005,0.068,-0.029,-0.039,-0.093,-0.078,-0.142,-0.21,-0.107,-0.107
2.926,-0.063,-0.073,-0.01,0.068,-0.029,-0.044,-0.093,-0.073,-0.142,-0.21,-0.107,-0.117
