time,I,II,III,aVR,aVL,aVF,V1,V2,V3,V4,V5,V6
0.0,0.0,0.0,0.0,0.0,0.0,0.0,-0.059,-0.059,-0.01,0.078,0.107,0.059
0.002,0.0,0.0,0.0,0.0,0.0,0.0,-0.059,-0.059,-0.01,0.078,0.107,0.059
0.004,0.0,0.0,0.0,0.0,0.0,0.0,-0.059,-0.059,-0.01,0.078,0.107,0.059
0.006,0.0,0.0,0.0,0.0,0.0,0.0,-0.059,-0.059,-0.01,0.078,0.107,0.059
0.008,-0.01,-0.01,0.0,0.01,-0.005,-0.005,-0.054,-0.049,-0.024,0.063,0.088,0.034
0.01,-0.01,-0.01,0.0,0.01,-0.005,-0.005,-0.049,-0.049,-0.029,0.049,0.078,0.01
0.012,-0.01,-0.01,0.0,0.01,-0.005,-0.005,-0.044,-0.049,-0.034,0.034,0.068,-0.015
0.014,-0.01,-0.01,0.0,0.01,-0.005,-0.005,-0.039,-0.049,-0.039,0.02,0.059,-0.039
0.016,-0.015,-0.015,0.0,0.015,-0.01,-0.01,-0.029,-0.049,-0.049,0.005,0.044,-0.049
0.018,-0.02,-0.02,0.0,0.02,-0.01,-0.01,-0.029,-0.049,-0.049,0.0,0.039,-0.049
0.02,-0.024,-0.024,0.0,0.024,-0.015,-0.015,-0.029,-0.049,-0.049,-0.005,0.034,-0.049
0.022,-0.029,-0.029,0.0,0.029,-0.015,-0.015,-0.029,-0.049,-0.049,-0.01,0.029,-0.049
0.024,-0.039,-0.039,0.0,0.039,-0.02,-0.02,-0.024,-0.039,-0.054,-0.024,0.015,-0.059
0.026,-0.049,-0.039,0.01,0.044,-0.029,-0.015,-0.02,-0.039,-0.059,-0.029,0.01,-0.059
0.028,-0.059,-0.039,0.02,0.049,-0.039,-0.01,-0.015,-0.039,-0.063,-0.034,0.005,-0.059
0.03,-0.068,-0.039,0.029,0.054,-0.049,-0.005,-0.01,-0.039,-0.068,-0.039,0.0,-0.059
0.032,-0.054,-0.049,0.005,0.054,-0.029,-0.024,-0.02,-0.039,-0.078,-0.044,-0.005,-0.068
0.034,-0.049,-0.049,0.0,0.049,-0.024,-0.024,-0.02,-0.039,-0.078,-0.049,-0.01,-0.078
0.036,-0.044,-0.049,-0.005,0.049,-0.02,-0.029,-0.02,-0.039,-0.078,-0.054,-0.015,-0.088
0.038,-0.039,-0.049,-0.01,0.044,-0.015,-0.029,-0.02,-0.039,-0.078,-0.059,-0.02,-0.098
0.04,-0.049,-0.059,-0.01,0.054,-0.02,-0.034,-0.01,-0.049,-0.083,-0.068,-0.029,-0.102
0.042,-0.049,-0.059,-0.01,0.054,-0.02,-0.034,-0.01,-0.049,-0.088,-0.068,-0.029,-0.107
0.044,-0.049,-0.059,-0.01,0.054,-0.02,-0.034,-0.01,-0.049,-0.093,-0.068,-0.029,-0.112
0.046,-0.049,-0.059,-0.01,0.054,-0.02,-0.034,-0.01,-0.049,-0.098,-0.068,-0.029,-0.117
0.048,-0.044,-0.054,-0.01,0.049,-0.02,-0.034,0.0,-0.039,-0.098,-0.078,-0.034,-0.117
0.05,-0.039,-0.049,-0.01,0.044,-0.015,-0.029,0.0,-0.039,-0.098,-0.078,-0.039,-0.117
0.052,-0.034,-0.044,-0.01,0.039,-0.015,-0.029,0.0,-0.039,-0.098,-0.078,-0.044,-0.117
0.054,-0.029,-0.039,-0.01,0.034,-0.01,-0.024,0.0,-0.039,-0.098,-0.078,-0.049,-0.117
0.056,-0.049,-0.054,-0.005,0.054,-0.024,-0.029,0.0,-0.029,-0.088,-0.068,-0.044,-0.093
0.058,-0.059,-0.059,0.0,0.059,-0.029,-0.029,0.0,-0.029,-0.088,-0.068,-0.039,-0.078
0.06,-0.068,-0.063,0.005,0.068,-0.039,-0.029,0.0,-0.029,-0.088,-0.068,-0.034,-0.063
0.062,-0.078,-0.068,0.01,0.073,-0.044,-0.029,0.0,-0.029,-0.088,-0.068,-0.029,-0.049
0.064,-0.068,-0.073,-0.005,0.073,-0.034,-0.039,-0.015,-0.034,-0.102,-0.078,-0.049,-0.063
0.066,-0.068,-0.078,-0.01,0.073,-0.029,-0.044,-0.02,-0.039,-0.107,-0.088,-0.059,-0.068
0.068,-0.068,-0.083,-0.015,0.078,-0.029,-0.049,-0.024,-0.044,-0.112,-0.098,-0.068,-0.073
0.07,-0.068,-0.088,-0.02,0.078,-0.024,-0.054,-0.029,-0.049,-0.117,-0.107,-0.078,-0.078
0.072,-0.054,-0.073,-0.02,0.063,-0.02,-0.049,-0.015,-0.034,-0.102,-0.102,-0.063,-0.063
0.074,-0.049,-0.068,-0.02,0.059,-0.015,-0.044,-0.01,-0.029,-0.098,-0.098,-0.059,-0.049
0.076,-0.044,-0.063,-0.02,0.054,-0.015,-0.044,-0.005,-0.024,-0.093,-0.093,-0.054,-0.034
0.078,-0.039,-0.059,-0.02,0.049,-0.01,-0.039,0.0,-0.02,-0.088,-0.088,-0.049,-0.02
0.08,-0.044,-0.068,-0.024,0.059,-0.01,-0.049,-0.01,-0.029,-0.098,-0.098,-0.054,-0.034
0.082,-0.049,-0.068,-0.02,0.059,-0.015,-0.044,-0.01,-0.029,-0.098,-0.098,-0.059,-0.039
0.084,-0.054,-0.068,-0.015,0.063,-0.02,-0.044,-0.01,-0.029,-0.098,-0.098,-0.063,-0.044
0.086,-0.059,-0.068,-0.01,0.063,-0.024,-0.039,-0.01,-0.029,-0.098,-0.098,-0.068,-0.049
0.088,-0.073,-0.078,-0.005,0.078,-0.034,-0.044,0.0,-0.02,-0.088,-0.107,-0.078,-0.039
0.09,-0.078,-0.078,0.0,0.078,-0.039,-0.039,0.0,-0.02,-0.088,-0.107,-0.078,-0.039
0.092,-0.083,-0.078,0.005,0.083,-0.044,-0.039,0.0,-0.02,-0.088,-0.107,-0.078,-0.039
0.094,-0.088,-0.078,0.01,0.083,-0.049,-0.034,0.0,-0.02,-0.088,-0.107,-0.078,-0.039
0.096,-0.073,-0.068,0.005,0.073,-0.039,-0.034,0.0,-0.01,-0.078,-0.102,-0.073,-0.029
0.098,-0.068,-0.068,0.0,0.068,-0.034,-0.034,0.0,-0.01,-0.078,-0.098,-0.068,-0.02
0.1,-0.063,-0.068,-0.005,0.068,-0.029,-0.039,0.0,-0.01,-0.078,-0.093,-0.063,-0.01
0.102,-0.059,-0.068,-0.01,0.063,-0.024,-0.039,0.0,-0.01,-0.078,-0.088,-0.059,0.0
0.104,-0.068,-0.078,-0.01,0.073,-0.029,-0.044,-0.01,-0.02,-0.088,-0.093,-0.068,-0.01
0.106,-0.068,-0.078,-0.01,0.073,-0.029,-0.044,-0.01,-0.02,-0.088,-0.098,-0.078,-0.01
0.108,-0.068,-0.078,-0.01,0.073,-0.029,-0.044,-0.01,-0.02,-0.088,-0.102,-0.088,-0.01
0.11,-0.068,-0.078,-0.01,0.073,-0.029,-0.044,-0.01,-0.02,-0.088,-0.107,-0.098,-0.01
0.112,-0.054,-0.073,-0.02,0.063,-0.02,-0.049,-0.01,-0.02,-0.078,-0.107,-0.088,-0.01
0.114,-0.049,-0.068,-0.02,0.059,-0.015,-0.044,-0.01,-0.02,-0.078,-0.107,-0.088,-0.01
0.116,-0.044,-0.063,-0.02,0.054,-0.015,-0.044,-0.01,-0.02,-0.078,-0.107,-0.088,-0.01
0.118,-0.039,-0.059,-0.02,0.049,-0.01,-0.039,-0.01,-0.02,-0.078,-0.107,-0.088,-0.01
0.12,-0.044,-0.049,-0.005,0.049,-0.02,-0.029,0.0,-0.01,-0.068,-0.098,-0.088,-0.005
0.122,-0.049,-0.049,0.0,0.049,-0.024,-0.024,0.0,-0.01,-0.068,-0.098,-0.088,0.0
0.124,-0.054,-0.049,0.005,0.054,-0.029,-0.024,0.0,-0.01,-0.068,-0.098,-0.088,0.005
0.126,-0.059,-0.049,0.01,0.054,-0.034,-0.02,0.0,-0.01,-0.068,-0.098,-0.088,0.01
0.128,-0.073,-0.063,0.01,0.068,-0.044,-0.029,0.0,-0.01,-0.068,-0.107,-0.098,-0.005
0.13,-0.078,-0.068,0.01,0.073,-0.044,-0.029,0.0,-0.01,-0.068,-0.107,-0.098,-0.01
0.132,-0.083,-0.073,0.01,0.078,-0.049,-0.034,0.0,-0.01,-0.068,-0.107,-0.098,-0.015
0.134,-0.088,-0.078,0.01,0.083,-0.049,-0.034,0.0,-0.01,-0.068,-0.107,-0.098,-0.02
0.136,-0.078,-0.068,0.01,0.073,-0.044,-0.029,0.0,-0.01,-0.059,-0.093,-0.093,-0.005
0.138,-0.068,-0.059,0.01,0.063,-0.039,-0.024,0.0,-0.01,-0.059,-0.088,-0.088,0.0
0.14,-0.059,-0.049,0.01,0.054,-0.034,-0.02,0.0,-0.01,-0.059,-0.083,-0.083,0.005
0.142,-0.049,-0.039,0.01,0.044,-0.029,-0.015,0.0,-0.01,-0.059,-0.078,-0.078,0.01
0.144,-0.054,-0.039,0.015,0.049,-0.034,-0.015,0.0,-0.01,-0.059,-0.083,-0.078,0.0
0.146,-0.059,-0.039,0.02,0.049,-0.039,-0.01,0.0,-0.01,-0.059,-0.088,-0.078,0.0
0.148,-0.063,-0.039,0.024,0.054,-0.044,-0.01,0.0,-0.01,-0.059,-0.093,-0.078,0.0
0.15,-0.068,-0.039,0.029,0.054,-0.049,-0.005,0.0,-0.01,-0.059,-0.098,-0.078,0.0
0.152,-0.059,-0.029,0.029,0.044,-0.044,0.0,0.0,-0.01,-0.049,-0.093,-0.068,0.005
0.154,-0.059,-0.029,0.029,0.044,-0.044,0.0,0.0,-0.01,-0.049,-0.088,-0.068,0.01
0.156,-0.059,-0.029,0.029,0.044,-0.044,0.0,0.0,-0.01,-0.049,-0.083,-0.068,0.015
0.158,-0.059,-0.029,0.029,0.044,-0.044,0.0,0.0,-0.01,-0.049,-0.078,-0.068,0.02
0.16,-0.054,-0.039,0.015,0.049,-0.034,-0.015,-0.01,-0.02,-0.059,-0.078,-0.068,0.02
0.162,-0.049,-0.039,0.01,0.044,-0.029,-0.015,-0.01,-0.02,-0.059,-0.078,-0.068,0.02
0.164,-0.044,-0.039,0.005,0.044,-0.024,-0.02,-0.01,-0.02,-0.059,-0.078,-0.068,0.02
0.166,-0.039,-0.039,0.0,0.039,-0.02,-0.02,-0.01,-0.02,-0.059,-0.078,-0.068,0.02
0.168,-0.054,-0.049,0.005,0.054,-0.029,-0.024,-0.01,-0.02,-0.049,-0.068,-0.059,0.034
0.17,-0.068,-0.049,0.02,0.059,-0.044,-0.015,-0.01,-0.02,-0.049,-0.068,-0.059,0.039
0.172,-0.083,-0.049,0.034,0.068,-0.059,-0.01,-0.01,-0.02,-0.049,-0.068,-0.059,0.044
0.174,-0.098,-0.049,0.049,0.073,-0.073,0.0,-0.01,-0.02,-0.049,-0.068,-0.059,0.049
0.176,-0.078,-0.034,0.044,0.059,-0.063,0.005,-0.005,-0.01,-0.044,-0.059,-0.044,0.068
0.178,-0.059,-0.02,0.039,0.039,-0.049,0.01,0.0,-0.01,-0.039,-0.049,-0.039,0.078
0.18,-0.039,-0.005,0.034,0.024,-0.039,0.015,0.005,-0.01,-0.034,-0.039,-0.034,0.088
0.182,-0.02,0.01,0.029,0.005,-0.024,0.02,0.01,-0.01,-0.029,-0.029,-0.029,0.098
0.184,-0.01,0.02,0.029,-0.005,-0.02,0.024,0.005,-0.02,-0.039,-0.039,-0.029,0.093
0.186,-0.01,0.02,0.029,-0.005,-0.02,0.024,0.0,-0.02,-0.039,-0.039,-0.029,0.088
0.188,-0.01,0.02,0.029,-0.005,-0.02,0.024,-0.005,-0.02,-0.039,-0.039,-0.029,0.083
0.19,-0.01,0.02,0.029,-0.005,-0.02,0.024,-0.01,-0.02,-0.039,-0.039,-0.029,0.078
0.192,-0.02,0.015,0.034,0.005,-0.029,0.024,0.0,-0.01,-0.029,-0.029,-0.024,0.073
0.194,-0.029,0.01,0.039,0.01,-0.034,0.024,0.0,-0.01,-0.029,-0.029,-0.02,0.068
0.196,-0.039,0.005,0.044,0.02,-0.044,0.024,0.0,-0.01,-0.029,-0.029,-0.015,0.063
0.198,-0.049,0.0,0.049,0.024,-0.049,0.024,0.0,-0.01,-0.029,-0.029,-0.01,0.059
0.2,-0.044,-0.01,0.034,0.029,-0.039,0.01,-0.005,-0.02,-0.034,-0.029,-0.02,0.054
0.202,-0.039,-0.01,0.029,0.024,-0.034,0.01,-0.01,-0.02,-0.039,-0.029,-0.02,0.049
0.204,-0.034,-0.01,0.024,0.024,-0.029,0.005,-0.015,-0.02,-0.044,-0.029,-0.02,0.044
0.206,-0.029,-0.01,0.02,0.02,-0.024,0.005,-0.02,-0.02,-0.049,-0.029,-0.02,0.039
0.208,-0.034,-0.02,0.015,0.029,-0.024,-0.005,-0.02,-0.029,-0.049,-0.039,-0.029,0.044
0.21,-0.039,-0.02,0.02,0.029,-0.029,0.0,-0.02,-0.029,-0.049,-0.039,-0.029,0.049
0.212,-0.044,-0.02,0.024,0.034,-0.034,0.0,-0.02,-0.029,-0.049,-0.039,-0.029,0.054
0.214,-0.049,-0.02,0.029,0.034,-0.039,0.005,-0.02,-0.029,-0.049,-0.039,-0.029,0.059
0.216,-0.049,-0.02,0.029,0.034,-0.039,0.005,-0.015,-0.029,-0.049,-0.039,-0.02,0.088
0.218,-0.049,-0.02,0.029,0.034,-0.039,0.005,-0.01,-0.029,-0.049,-0.039,-0.02,0.107
0.22,-0.049,-0.02,0.029,0.034,-0.039,0.005,-0.005,-0.029,-0.049,-0.039,-0.02,0.127
0.222,-0.049,-0.02,0.029,0.034,-0.039,0.005,0.0,-0.029,-0.049,-0.039,-0.02,0.146
0.224,-0.044,-0.015,0.029,0.029,-0.039,0.005,-0.01,-0.029,-0.049,-0.039,-0.02,0.166
0.226,-0.039,-0.01,0.029,0.024,-0.034,0.01,-0.01,-0.029,-0.049,-0.039,-0.02,0.176
0.228,-0.034,-0.005,0.029,0.02,-0.034,0.01,-0.01,-0.029,-0.049,-0.039,-0.02,0.185
0.23,-0.029,0.0,0.029,0.015,-0.029,0.015,-0.01,-0.029,-0.049,-0.039,-0.02,0.195
0.232,-0.034,-0.005,0.029,0.02,-0.034,0.01,-0.01,-0.039,-0.059,-0.049,-0.02,0.19
0.234,-0.039,-0.01,0.029,0.024,-0.034,0.01,-0.01,-0.039,-0.059,-0.049,-0.02,0.185
0.236,-0.044,-0.015,0.029,0.029,-0.039,0.005,-0.01,-0.039,-0.059,-0.049,-0.02,0.181
0.238,-0.049,-0.02,0.029,0.034,-0.039,0.005,-0.01,-0.039,-0.059,-0.049,-0.02,0.176
0.24,-0.049,-0.02,0.029,0.034,-0.039,0.005,-0.01,-0.039,-0.059,-0.039,-0.029,0.19
0.242,-0.049,-0.02,0.029,0.034,-0.039,0.005,-0.01,-0.039,-0.059,-0.039,-0.029,0.205
0.244,-0.049,-0.02,0.029,0.034,-0.039,0.005,-0.01,-0.039,-0.059,-0.039,-0.029,0.22
0.246,-0.049,-0.02,0.029,0.034,-0.039,0.005,-0.01,-0.039,-0.059,-0.039,-0.029,0.234
0.248,-0.034,-0.029,0.005,0.034,-0.02,-0.015,-0.02,-0.049,-0.063,-0.044,-0.034,0.239
0.25,-0.029,-0.029,0.0,0.029,-0.015,-0.015,-0.02,-0.049,-0.068,-0.049,-0.039,0.244
0.252,-0.024,-0.029,-0.005,0.029,-0.01,-0.02,-0.02,-0.049,-0.073,-0.054,-0.044,0.249
0.254,-0.02,-0.029,-0.01,0.024,-0.005,-0.02,-0.02,-0.049,-0.078,-0.059,-0.049,0.254
0.256,-0.029,-0.024,0.005,0.029,-0.02,-0.01,-0.015,-0.039,-0.068,-0.059,-0.044,0.254
0.258,-0.029,-0.02,0.01,0.024,-0.02,-0.005,-0.01,-0.039,-0.068,-0.059,-0.039,0.254
0.26,-0.029,-0.015,0.015,0.024,-0.024,0.0,-0.005,-0.039,-0.068,-0.059,-0.034,0.254
0.262,-0.029,-0.01,0.02,0.02,-0.024,0.005,0.0,-0.039,-0.068,-0.059,-0.029,0.254
0.264,-0.029,0.0,0.029,0.015,-0.029,0.015,0.0,-0.049,-0.068,-0.049,-0.029,0.264
0.266,-0.029,0.0,0.029,0.015,-0.029,0.015,0.0,-0.049,-0.068,-0.049,-0.029,0.264
0.268,-0.029,0.0,0.029,0.015,-0.029,0.015,0.0,-0.049,-0.068,-0.049,-0.029,0.264
0.27,-0.029,0.0,0.029,0.015,-0.029,0.015,0.0,-0.049,-0.068,-0.049,-0.029,0.264
0.272,-0.02,-0.01,0.01,0.015,-0.015,0.0,0.0,-0.039,-0.078,-0.059,-0.039,0.273
0.274,-0.02,-0.01,0.01,0.015,-0.015,0.0,0.0,-0.039,-0.078,-0.059,-0.039,0.273
0.276,-0.02,-0.01,0.01,0.015,-0.015,0.0,0.0,-0.039,-0.078,-0.059,-0.039,0.273
0.278,-0.02,-0.01,0.01,0.015,-0.015,0.0,0.0,-0.039,-0.078,-0.059,-0.039,0.273
0.28,-0.034,-0.024,0.01,0.029,-0.024,-0.01,-0.01,-0.049,-0.088,-0.068,-0.039,0.264
0.282,-0.049,-0.029,0.02,0.039,-0.034,-0.005,-0.01,-0.049,-0.088,-0.068,-0.039,0.254
0.284,-0.063,-0.034,0.029,0.049,-0.049,-0.005,-0.01,-0.049,-0.088,-0.068,-0.039,0.244
0.286,-0.078,-0.039,0.039,0.059,-0.059,0.0,-0.01,-0.049,-0.088,-0.068,-0.039,0.234
0.288,-0.068,-0.024,0.044,0.049,-0.059,0.01,0.0,-0.049,-0.078,-0.059,-0.039,0.229
0.29,-0.059,-0.02,0.039,0.039,-0.049,0.01,0.0,-0.049,-0.078,-0.059,-0.039,0.224
0.292,-0.049,-0.015,0.034,0.034,-0.044,0.01,0.0,-0.049,-0.078,-0.059,-0.039,0.22
0.294,-0.039,-0.01,0.029,0.024,-0.034,0.01,0.0,-0.049,-0.078,-0.059,-0.039,0.215
0.296,-0.024,0.0,0.024,0.015,-0.024,0.01,0.01,-0.039,-0.088,-0.068,-0.039,0.2
0.298,-0.02,0.0,0.02,0.01,-0.02,0.01,0.01,-0.039,-0.088,-0.068,-0.039,0.195
0.3,-0.015,0.0,0.015,0.01,-0.015,0.005,0.01,-0.039,-0.088,-0.068,-0.039,0.19
0.302,-0.01,0.0,0.01,0.005,-0.01,0.005,0.01,-0.039,-0.088,-0.068,-0.039,0.185
0.304,-0.02,-0.01,0.01,0.015,-0.015,0.0,0.005,-0.049,-0.088,-0.059,-0.039,0.176
0.306,-0.02,-0.01,0.01,0.015,-0.015,0.0,0.0,-0.049,-0.088,-0.059,-0.039,0.176
0.308,-0.02,-0.01,0.01,0.015,-0.015,0.0,-0.005,-0.049,-0.088,-0.059,-0.039,0.176
0.31,-0.02,-0.01,0.01,0.015,-0.015,0.0,-0.01,-0.049,-0.088,-0.059,-0.039,0.176
0.312,-0.024,-0.024,0.0,0.024,-0.015,-0.015,-0.01,-0.059,-0.098,-0.063,-0.049,0.166
0.314,-0.029,-0.029,0.0,0.029,-0.015,-0.015,-0.01,-0.059,-0.098,-0.068,-0.049,0.166
0.316,-0.034,-0.034,0.0,0.034,-0.02,-0.02,-0.01,-0.059,-0.098,-0.073,-0.049,0.166
0.318,-0.039,-0.039,0.0,0.039,-0.02,-0.02,-0.01,-0.059,-0.098,-0.078,-0.049,0.166
0.32,-0.029,-0.024,0.005,0.029,-0.02,-0.01,-0.01,-0.049,-0.098,-0.078,-0.039,0.181
0.322,-0.029,-0.02,0.01,0.024,-0.02,-0.005,-0.01,-0.049,-0.098,-0.078,-0.039,0.185
0.324,-0.029,-0.015,0.015,0.024,-0.024,0.0,-0.01,-0.049,-0.098,-0.078,-0.039,0.19
0.326,-0.029,-0.01,0.02,0.02,-0.024,0.005,-0.01,-0.049,-0.098,-0.078,-0.039,0.195
0.328,-0.02,-0.015,0.005,0.02,-0.015,-0.005,-0.01,-0.059,-0.098,-0.078,-0.049,0.21
0.33,-0.02,-0.02,0.0,0.02,-0.01,-0.01,-0.01,-0.059,-0.098,-0.078,-0.049,0.215
0.332,-0.02,-0.024,-0.005,0.024,-0.01,-0.015,-0.01,-0.059,-0.098,-0.078,-0.049,0.22
0.334,-0.02,-0.029,-0.01,0.024,-0.005,-0.02,-0.01,-0.059,-0.098,-0.078,-0.049,0.224
0.336,-0.024,-0.039,-0.015,0.034,-0.005,-0.029,-0.01,-0.059,-0.098,-0.078,-0.049,0.21
0.338,-0.029,-0.039,-0.01,0.034,-0.01,-0.024,-0.01,-0.059,-0.098,-0.078,-0.049,0.205
0.34,-0.034,-0.039,-0.005,0.039,-0.015,-0.024,-0.01,-0.059,-0.098,-0.078,-0.049,0.2
0.342,-0.039,-0.039,0.0,0.039,-0.02,-0.02,-0.01,-0.059,-0.098,-0.078,-0.049,0.195
0.344,-0.049,-0.024,0.024,0.039,-0.039,0.0,0.0,-0.049,-0.088,-0.068,-0.039,0.185
0.346,-0.049,-0.02,0.029,0.034,-0.039,0.005,0.0,-0.049,-0.088,-0.068,-0.039,0.185
0.348,-0.049,-0.015,0.034,0.034,-0.044,0.01,0.0,-0.049,-0.088,-0.068,-0.039,0.185
0.35,-0.049,-0.01,0.039,0.029,-0.044,0.015,0.0,-0.049,-0.088,-0.068,-0.039,0.185
0.352,-0.049,-0.015,0.034,0.034,-0.044,0.01,0.0,-0.049,-0.088,-0.068,-0.039,0.171
0.354,-0.049,-0.02,0.029,0.034,-0.039,0.005,0.0,-0.049,-0.088,-0.068,-0.039,0.166
0.356,-0.049,-0.024,0.024,0.039,-0.039,0.0,0.0,-0.049,-0.088,-0.068,-0.039,0.161
0.358,-0.049,-0.029,0.02,0.039,-0.034,-0.005,0.0,-0.049,-0.088,-0.068,-0.039,0.156
0.36,-0.044,-0.024,0.02,0.034,-0.034,-0.005,-0.01,-0.059,-0.098,-0.068,-0.049,0.142
0.362,-0.039,-0.02,0.02,0.029,-0.029,0.0,-0.01,-0.059,-0.098,-0.068,-0.049,0.137
0.364,-0.034,-0.015,0.02,0.024,-0.029,0.0,-0.01,-0.059,-0.098,-0.068,-0.049,0.132
0.366,-0.029,-0.01,0.02,0.02,-0.024,0.005,-0.01,-0.059,-0.098,-0.068,-0.049,0.127
0.368,-0.034,-0.024,0.01,0.029,-0.024,-0.01,-0.01,-0.049,-0.098,-0.078,-0.049,0.137
0.37,-0.039,-0.029,0.01,0.034,-0.024,-0.01,-0.01,-0.049,-0.098,-0.078,-0.049,0.137
0.372,-0.044,-0.034,0.01,0.039,-0.029,-0.015,-0.01,-0.049,-0.098,-0.078,-0.049,0.137
0.374,-0.049,-0.039,0.01,0.044,-0.029,-0.015,-0.01,-0.049,-0.098,-0.078,-0.049,0.137
0.376,-0.039,-0.034,0.005,0.039,-0.024,-0.015,0.0,-0.049,-0.098,-0.078,-0.059,0.142
0.378,-0.029,-0.029,0.0,0.029,-0.015,-0.015,0.0,-0.049,-0.098,-0.078,-0.059,0.146
0.38,-0.02,-0.024,-0.005,0.024,-0.01,-0.015,0.0,-0.049,-0.098,-0.078,-0.059,0.151
0.382,-0.01,-0.02,-0.01,0.015,0.0,-0.015,0.0,-0.049,-0.098,-0.078,-0.059,0.156
0.384,-0.024,-0.024,0.0,0.024,-0.015,-0.015,-0.005,-0.059,-0.107,-0.088,-0.059,0.161
0.386,-0.029,-0.029,0.0,0.029,-0.015,-0.015,-0.01,-0.059,-0.107,-0.088,-0.059,0.166
0.388,-0.034,-0.034,0.0,0.034,-0.02,-0.02,-0.015,-0.059,-0.107,-0.088,-0.059,0.171
0.39,-0.039,-0.039,0.0,0.039,-0.02,-0.02,-0.02,-0.059,-0.107,-0.088,-0.059,0.176
0.392,-0.029,-0.034,-0.005,0.034,-0.015,-0.02,-0.015,-0.054,-0.102,-0.083,-0.054,0.195
0.394,-0.029,-0.029,0.0,0.029,-0.015,-0.015,-0.01,-0.049,-0.098,-0.078,-0.049,0.205
0.396,-0.029,-0.024,0.005,0.029,-0.02,-0.01,-0.005,-0.044,-0.093,-0.073,-0.044,0.215
0.398,-0.029,-0.02,0.01,0.024,-0.02,-0.005,0.0,-0.039,-0.088,-0.068,-0.039,0.224
0.4,-0.039,-0.024,0.015,0.034,-0.029,-0.005,-0.01,-0.049,-0.098,-0.078,-0.049,0.224
0.402,-0.039,-0.029,0.01,0.034,-0.024,-0.01,-0.01,-0.049,-0.098,-0.078,-0.049,0.224
0.404,-0.039,-0.034,0.005,0.039,-0.024,-0.015,-0.01,-0.049,-0.098,-0.078,-0.049,0.224
0.406,-0.039,-0.039,0.0,0.039,-0.02,-0.02,-0.01,-0.049,-0.098,-0.078,-0.049,0.224
0.408,-0.029,-0.039,-0.01,0.034,-0.01,-0.024,-0.01,-0.049,-0.098,-0.088,-0.049,0.224
0.41,-0.029,-0.039,-0.01,0.034,-0.01,-0.024,-0.01,-0.049,-0.098,-0.088,-0.049,0.224
0.412,-0.029,-0.039,-0.01,0.034,-0.01,-0.024,-0.01,-0.049,-0.098,-0.088,-0.049,0.224
0.414,-0.029,-0.039,-0.01,0.034,-0.01,-0.024,-0.01,-0.049,-0.098,-0.088,-0.049,0.224
0.416,-0.02,-0.034,-0.015,0.029,-0.005,-0.024,-0.01,-0.049,-0.107,-0.088,-0.049,0.22
0.418,-0.02,-0.029,-0.01,0.024,-0.005,-0.02,-0.01,-0.049,-0.107,-0.088,-0.049,0.215
0.42,-0.02,-0.024,-0.005,0.024,-0.01,-0.015,-0.01,-0.049,-0.107,-0.088,-0.049,0.21
0.422,-0.02,-0.02,0.0,0.02,-0.01,-0.01,-0.01,-0.049,-0.107,-0.088,-0.049,0.205
0.424,-0.034,-0.015,0.02,0.024,-0.029,0.0,-0.005,-0.044,-0.102,-0.083,-0.039,0.21
0.426,-0.039,-0.01,0.029,0.024,-0.034,0.01,0.0,-0.039,-0.098,-0.078,-0.039,0.215
0.428,-0.044,-0.005,0.039,0.024,-0.044,0.015,0.005,-0.034,-0.093,-0.073,-0.039,0.22
0.43,-0.049,0.0,0.049,0.024,-0.049,0.024,0.01,-0.029,-0.088,-0.068,-0.039,0.224
0.432,-0.049,-0.02,0.029,0.034,-0.039,0.005,-0.005,-0.044,-0.093,-0.083,-0.054,0.22
0.434,-0.049,-0.029,0.02,0.039,-0.034,-0.005,-0.01,-0.049,-0.098,-0.088,-0.059,0.215
0.436,-0.049,-0.039,0.01,0.044,-0.029,-0.015,-0.015,-0.054,-0.102,-0.093,-0.063,0.21
0.438,-0.049,-0.049,0.0,0.049,-0.024,-0.024,-0.02,-0.059,-0.107,-0.098,-0.068,0.205
0.44,-0.039,-0.029,0.01,0.034,-0.024,-0.01,-0.015,-0.054,-0.098,-0.083,-0.063,0.205
0.442,-0.029,-0.02,0.01,0.024,-0.02,-0.005,-0.01,-0.049,-0.098,-0.078,-0.059,0.205
0.444,-0.02,-0.01,0.01,0.015,-0.015,0.0,-0.005,-0.044,-0.098,-0.073,-0.054,0.205
0.446,-0.01,0.0,0.01,0.005,-0.01,0.005,0.0,-0.039,-0.098,-0.068,-0.049,0.205
0.448,-0.024,-0.005,0.02,0.015,-0.024,0.005,-0.01,-0.049,-0.107,-0.073,-0.059,0.205
0.45,-0.029,-0.01,0.02,0.02,-0.024,0.005,-0.01,-0.049,-0.107,-0.078,-0.059,0.205
0.452,-0.034,-0.015,0.02,0.024,-0.029,0.0,-0.01,-0.049,-0.107,-0.083,-0.059,0.205
0.454,-0.039,-0.02,0.02,0.029,-0.029,0.0,-0.01,-0.049,-0.107,-0.088,-0.059,0.205
0.456,-0.034,-0.02,0.015,0.029,-0.024,-0.005,0.0,-0.049,-0.098,-0.088,-0.049,0.215
0.458,-0.029,-0.02,0.01,0.024,-0.02,-0.005,0.0,-0.049,-0.098,-0.088,-0.049,0.215
0.46,-0.024,-0.02,0.005,0.024,-0.015,-0.01,0.0,-0.049,-0.098,-0.088,-0.049,0.215
0.462,-0.02,-0.02,0.0,0.02,-0.01,-0.01,0.0,-0.049,-0.098,-0.088,-0.049,0.215
0.464,-0.01,-0.01,0.0,0.01,-0.005,-0.005,-0.01,-0.039,-0.098,-0.078,-0.059,0.205
0.466,-0.01,-0.01,0.0,0.01,-0.005,-0.005,-0.01,-0.039,-0.098,-0.078,-0.059,0.205
0.468,-0.01,-0.01,0.0,0.01,-0.005,-0.005,-0.01,-0.039,-0.098,-0.078,-0.059,0.205
0.47,-0.01,-0.01,0.0,0.01,-0.005,-0.005,-0.01,-0.039,-0.098,-0.078,-0.059,0.205
0.472,-0.029,-0.015,0.015,0.024,-0.024,0.0,0.0,-0.039,-0.098,-0.088,-0.059,0.215
0.474,-0.039,-0.02,0.02,0.029,-0.029,0.0,0.0,-0.039,-0.098,-0.088,-0.059,0.215
0.476,-0.049,-0.024,0.024,0.039,-0.039,0.0,0.0,-0.039,-0.098,-0.088,-0.059,0.215
0.478,-0.059,-0.029,0.029,0.044,-0.044,0.0,0.0,-0.039,-0.098,-0.088,-0.059,0.215
0.48,-0.049,-0.039,0.01,0.044,-0.029,-0.015,0.0,-0.039,-0.098,-0.088,-0.059,0.2
0.482,-0.039,-0.039,0.0,0.039,-0.02,-0.02,0.0,-0.039,-0.098,-0.088,-0.059,0.195
0.484,-0.029,-0.039,-0.01,0.034,-0.01,-0.024,0.0,-0.039,-0.098,-0.088,-0.059,0.19
0.486,-0.02,-0.039,-0.02,0.029,0.0,-0.029,0.0,-0.039,-0.098,-0.088,-0.059,0.185
0.488,-0.024,-0.024,0.0,0.024,-0.015,-0.015,0.01,-0.029,-0.088,-0.078,-0.049,0.171
0.49,-0.029,-0.02,0.01,0.024,-0.02,-0.005,0.01,-0.029,-0.088,-0.078,-0.049,0.166
0.492,-0.034,-0.015,0.02,0.024,-0.029,0.0,0.01,-0.029,-0.088,-0.078,-0.049,0.161
0.494,-0.039,-0.01,0.029,0.024,-0.034,0.01,0.01,-0.029,-0.088,-0.078,-0.049,0.156
0.496,-0.029,-0.024,0.005,0.029,-0.02,-0.01,0.005,-0.034,-0.093,-0.083,-0.059,0.142
0.498,-0.029,-0.029,0.0,0.029,-0.015,-0.015,0.0,-0.039,-0.098,-0.088,-0.059,0.137
0.5,-0.029,-0.034,-0.005,0.034,-0.015,-0.02,-0.005,-0.044,-0.102,-0.093,-0.059,0.132
0.502,-0.029,-0.039,-0.01,0.034,-0.01,-0.024,-0.01,-0.049,-0.107,-0.098,-0.059,0.127
0.504,-0.039,-0.024,0.015,0.034,-0.029,-0.005,0.0,-0.039,-0.098,-0.088,-0.059,0.117
0.506,-0.039,-0.02,0.02,0.029,-0.029,0.0,0.0,-0.039,-0.098,-0.088,-0.059,0.117
0.508,-0.039,-0.015,0.024,0.029,-0.034,0.005,0.0,-0.039,-0.098,-0.088,-0.059,0.117
0.51,-0.039,-0.01,0.029,0.024,-0.034,0.01,0.0,-0.039,-0.098,-0.088,-0.059,0.117
0.512,-0.034,-0.015,0.02,0.024,-0.029,0.0,-0.01,-0.049,-0.102,-0.098,-0.068,0.107
0.514,-0.029,-0.02,0.01,0.024,-0.02,-0.005,-0.01,-0.049,-0.107,-0.098,-0.068,0.107
0.516,-0.024,-0.024,0.0,0.024,-0.015,-0.015,-0.01,-0.049,-0.112,-0.098,-0.068,0.107
0.518,-0.02,-0.029,-0.01,0.024,-0.005,-0.02,-0.01,-0.049,-0.117,-0.098,-0.068,0.107
0.52,-0.034,-0.039,-0.005,0.039,-0.015,-0.024,0.0,-0.039,-0.112,-0.088,-0.059,0.112
0.522,-0.039,-0.039,0.0,0.039,-0.02,-0.02,0.0,-0.039,-0.107,-0.088,-0.059,0.117
0.524,-0.044,-0.039,0.005,0.044,-0.024,-0.02,0.0,-0.039,-0.102,-0.088,-0.059,0.122
0.526,-0.049,-0.039,0.01,0.044,-0.029,-0.015,0.0,-0.039,-0.098,-0.088,-0.059,0.127
0.528,-0.044,-0.024,0.02,0.034,-0.034,-0.005,0.01,-0.039,-0.098,-0.088,-0.059,0.122
0.53,-0.039,-0.02,0.02,0.029,-0.029,0.0,0.01,-0.039,-0.098,-0.088,-0.059,0.117
0.532,-0.034,-0.015,0.02,0.024,-0.029,0.0,0.01,-0.039,-0.098,-0.088,-0.059,0.112
0.534,-0.029,-0.01,0.02,0.02,-0.024,0.005,0.01,-0.039,-0.098,-0.088,-0.059,0.107
0.536,-0.034,-0.015,0.02,0.024,-0.029,0.0,0.005,-0.049,-0.107,-0.098,-0.068,0.107
0.538,-0.039,-0.02,0.02,0.029,-0.029,0.0,0.0,-0.049,-0.107,-0.098,-0.068,0.107
0.54,-0.044,-0.024,0.02,0.034,-0.034,-0.005,-0.005,-0.049,-0.107,-0.098,-0.068,0.107
0.542,-0.049,-0.029,0.02,0.039,-0.034,-0.005,-0.01,-0.049,-0.107,-0.098,-0.068,0.107
0.544,-0.059,-0.029,0.029,0.044,-0.044,0.0,-0.005,-0.044,-0.098,-0.093,-0.059,0.122
0.546,-0.059,-0.029,0.029,0.044,-0.044,0.0,0.0,-0.039,-0.098,-0.088,-0.059,0.127
0.548,-0.059,-0.029,0.029,0.044,-0.044,0.0,0.005,-0.034,-0.098,-0.083,-0.059,0.132
0.55,-0.059,-0.029,0.029,0.044,-0.044,0.0,0.01,-0.029,-0.098,-0.078,-0.059,0.137
0.552,-0.063,-0.044,0.02,0.054,-0.044,-0.015,0.005,-0.034,-0.102,-0.083,-0.068,0.127
0.554,-0.068,-0.049,0.02,0.059,-0.044,-0.015,0.0,-0.039,-0.107,-0.088,-0.068,0.127
0.556,-0.073,-0.054,0.02,0.063,-0.049,-0.02,-0.005,-0.044,-0.112,-0.093,-0.068,0.127
0.558,-0.078,-0.059,0.02,0.068,-0.049,-0.02,-0.01,-0.049,-0.117,-0.098,-0.068,0.127
0.56,-0.054,-0.049,0.005,0.054,-0.029,-0.024,0.0,-0.049,-0.107,-0.088,-0.059,0.112
0.562,-0.039,-0.039,0.0,0.039,-0.02,-0.02,0.0,-0.049,-0.107,-0.088,-0.059,0.107
0.564,-0.02,-0.039,-0.02,0.029,0.0,-0.029,0.005,-0.044,-0.107,-0.088,-0.068,0.102
0.566,0.01,-0.029,-0.039,0.01,0.024,-0.034,0.005,-0.044,-0.107,-0.083,-0.068,0.098
0.568,0.005,-0.015,-0.02,0.005,0.01,-0.02,0.015,-0.034,-0.098,-0.083,-0.059,0.088
0.57,-0.005,-0.01,-0.005,0.01,0.0,-0.01,0.015,-0.034,-0.098,-0.083,-0.059,0.088
0.572,-0.01,-0.005,0.005,0.01,-0.01,0.0,0.015,-0.034,-0.098,-0.083,-0.059,0.088
0.574,-0.015,-0.005,0.01,0.01,-0.015,0.0,0.015,-0.034,-0.098,-0.083,-0.059,0.088
0.576,-0.015,-0.01,0.005,0.015,-0.01,-0.005,0.015,-0.029,-0.098,-0.078,-0.059,0.098
0.578,-0.015,-0.015,0.0,0.015,-0.01,-0.01,0.015,-0.029,-0.098,-0.078,-0.059,0.088
0.58,-0.02,-0.024,-0.005,0.024,-0.01,-0.015,0.015,-0.034,-0.098,-0.083,-0.059,0.088
0.582,-0.02,-0.015,0.005,0.02,-0.015,-0.005,0.015,-0.034,-0.098,-0.083,-0.059,0.093
0.584,-0.02,-0.015,0.005,0.02,-0.015,-0.005,0.015,-0.044,-0.098,-0.088,-0.063,0.093
0.586,-0.02,-0.02,0.0,0.02,-0.01,-0.01,0.015,-0.044,-0.098,-0.088,-0.063,0.088
0.588,-0.02,-0.024,-0.005,0.024,-0.01,-0.015,0.015,-0.039,-0.098,-0.098,-0.063,0.088
0.59,0.0,-0.02,-0.02,0.01,0.01,-0.02,0.02,-0.029,-0.093,-0.083,-0.059,0.093
0.592,-0.02,-0.01,0.01,0.015,-0.015,0.0,0.02,-0.029,-0.093,-0.083,-0.049,0.107
0.594,-0.049,-0.029,0.02,0.039,-0.034,-0.005,0.02,-0.034,-0.093,-0.093,-0.049,0.093
0.596,-0.068,-0.029,0.039,0.049,-0.054,0.005,0.024,-0.034,-0.093,-0.093,-0.049,0.093
0.598,-0.073,-0.02,0.054,0.049,-0.063,0.015,0.024,-0.02,-0.088,-0.078,-0.044,0.098
0.6,-0.029,-0.01,0.02,0.02,-0.024,0.005,0.015,-0.029,-0.093,-0.073,-0.049,0.088
0.602,-0.01,0.01,0.02,0.0,-0.015,0.015,0.02,-0.029,-0.083,-0.068,-0.049,0.088
0.604,-0.01,0.005,0.015,0.005,-0.015,0.01,0.024,-0.024,-0.078,-0.063,-0.044,0.098
0.606,-0.01,0.005,0.015,0.005,-0.015,0.01,0.024,-0.024,-0.078,-0.063,-0.044,0.098
0.608,-0.02,0.015,0.034,0.005,-0.029,0.024,0.029,-0.015,-0.068,-0.054,-0.029,0.107
0.61,-0.024,0.029,0.054,0.0,-0.039,0.039,0.044,-0.005,-0.059,-0.044,-0.024,0.132
0.612,-0.039,0.029,0.068,0.005,-0.054,0.049,0.054,0.0,-0.044,-0.039,-0.02,0.142
0.614,-0.059,0.029,0.088,0.015,-0.073,0.059,0.059,0.01,-0.044,-0.034,-0.02,0.151
0.616,-0.029,0.029,0.059,0.0,-0.044,0.044,0.068,0.015,-0.049,-0.044,-0.029,0.166
0.618,0.015,0.054,0.039,-0.034,-0.015,0.044,0.063,0.015,-0.044,-0.039,-0.024,0.176
0.62,0.01,0.054,0.044,-0.029,-0.02,0.049,0.059,0.02,-0.034,-0.039,-0.024,0.181
0.622,0.01,0.049,0.039,-0.029,-0.015,0.044,0.054,0.024,-0.034,-0.039,-0.024,0.185
0.624,-0.005,0.029,0.034,-0.01,-0.02,0.029,0.054,0.024,-0.024,-0.024,-0.015,0.19
0.626,-0.015,0.015,0.029,0.0,-0.024,0.02,0.049,0.024,-0.024,-0.024,-0.015,0.19
0.628,-0.029,0.015,0.044,0.01,-0.039,0.029,0.034,0.024,-0.024,-0.02,-0.01,0.195
0.63,-0.015,0.024,0.039,-0.005,-0.029,0.029,0.029,0.02,-0.024,-0.02,-0.01,0.205
0.632,-0.015,0.034,0.049,-0.01,-0.034,0.039,0.005,-0.005,-0.049,-0.034,-0.024,0.195
0.634,-0.015,0.024,0.039,-0.005,-0.029,0.029,-0.029,-0.049,-0.088,-0.063,-0.029,0.19
0.636,-0.024,0.01,0.034,0.01,-0.029,0.02,-0.059,-0.063,-0.102,-0.068,-0.034,0.181
0.638,-0.024,0.005,0.029,0.01,-0.029,0.015,-0.063,-0.063,-0.102,-0.068,-0.034,0.181
0.64,-0.01,-0.015,-0.005,0.015,-0.005,-0.01,-0.063,-0.049,-0.098,-0.054,-0.034,0.181
0.642,0.005,-0.015,-0.02,0.005,0.01,-0.02,-0.063,-0.049,-0.093,-0.054,-0.034,0.181
0.644,0.005,-0.029,-0.034,0.015,0.02,-0.034,-0.063,-0.054,-0.093,-0.059,-0.034,0.181
0.646,-0.005,-0.039,-0.034,0.024,0.015,-0.039,-0.063,-0.054,-0.088,-0.059,-0.034,0.185
0.648,-0.01,-0.054,-0.044,0.034,0.015,-0.049,-0.073,-0.059,-0.098,-0.068,-0.034,0.181
0.65,0.0,-0.059,-0.059,0.029,0.029,-0.059,-0.068,-0.049,-0.088,-0.059,-0.02,0.181
0.652,0.01,-0.054,-0.063,0.024,0.034,-0.059,-0.068,-0.034,-0.083,-0.054,-0.015,0.181
0.654,0.01,-0.059,-0.068,0.024,0.039,-0.063,-0.063,-0.034,-0.078,-0.054,-0.015,0.176
0.656,0.005,-0.063,-0.068,0.029,0.034,-0.068,-0.073,-0.024,-0.068,-0.054,-0.015,0.166
0.658,0.005,-0.063,-0.068,0.029,0.034,-0.068,-0.073,-0.024,-0.068,-0.054,-0.015,0.166
0.66,-0.01,-0.068,-0.059,0.039,0.024,-0.063,-0.078,-0.034,-0.078,-0.059,-0.02,0.166
0.662,-0.024,-0.063,-0.039,0.044,0.005,-0.054,-0.088,-0.044,-0.088,-0.059,-0.024,0.161
0.664,0.005,-0.039,-0.044,0.02,0.024,-0.044,-0.088,-0.044,-0.093,-0.049,-0.024,0.151
0.666,0.029,-0.02,-0.049,-0.005,0.039,-0.034,-0.078,-0.039,-0.093,-0.049,-0.015,0.151
0.668,0.02,-0.034,-0.054,0.01,0.034,-0.044,-0.078,-0.039,-0.093,-0.059,-0.024,0.151
0.67,0.01,-0.034,-0.044,0.015,0.024,-0.039,-0.063,-0.039,-0.093,-0.059,-0.034,0.151
0.672,0.02,-0.029,-0.049,0.005,0.034,-0.039,-0.054,-0.029,-0.102,-0.059,-0.024,0.161
0.674,0.02,-0.02,-0.039,0.0,0.029,-0.029,-0.054,-0.029,-0.098,-0.059,-0.024,0.161
0.676,0.015,-0.015,-0.029,0.0,0.02,-0.024,-0.054,-0.039,-0.098,-0.063,-0.029,0.161
0.678,0.01,-0.024,-0.034,0.01,0.02,-0.029,-0.044,-0.029,-0.098,-0.063,-0.029,0.151
0.68,0.01,-0.024,-0.034,0.01,0.02,-0.029,-0.039,-0.024,-0.093,-0.068,-0.044,0.142
0.682,0.01,-0.024,-0.034,0.01,0.02,-0.029,-0.034,-0.024,-0.093,-0.073,-0.049,0.132
0.684,-0.005,-0.024,-0.02,0.015,0.005,-0.024,-0.02,-0.024,-0.093,-0.078,-0.054,0.122
0.686,0.0,-0.024,-0.024,0.015,0.01,-0.024,-0.02,-0.024,-0.098,-0.088,-0.059,0.117
0.688,-0.029,-0.049,-0.02,0.039,-0.005,-0.034,-0.015,-0.024,-0.098,-0.093,-0.059,0.112
0.69,-0.054,-0.073,-0.02,0.063,-0.02,-0.049,-0.024,-0.029,-0.107,-0.102,-0.068,0.107
0.692,-0.049,-0.073,-0.024,0.063,-0.015,-0.049,-0.01,-0.029,-0.107,-0.107,-0.073,0.112
0.694,-0.034,-0.059,-0.024,0.049,-0.005,-0.044,-0.01,-0.02,-0.107,-0.102,-0.073,0.117
0.696,-0.049,-0.068,-0.02,0.059,-0.015,-0.044,-0.01,-0.029,-0.117,-0.112,-0.078,0.117
0.698,-0.059,-0.078,-0.02,0.068,-0.02,-0.049,-0.01,-0.034,-0.127,-0.112,-0.078,0.117
0.7,-0.063,-0.078,-0.015,0.073,-0.024,-0.049,-0.015,-0.034,-0.127,-0.112,-0.073,0.122
0.702,-0.068,-0.073,-0.005,0.073,-0.034,-0.039,-0.015,-0.039,-0.127,-0.112,-0.073,0.122
0.704,-0.049,-0.063,-0.015,0.059,-0.02,-0.039,-0.005,-0.039,-0.117,-0.112,-0.078,0.117
0.706,-0.039,-0.063,-0.024,0.054,-0.01,-0.044,-0.005,-0.044,-0.117,-0.112,-0.078,0.112
0.708,-0.024,-0.068,-0.044,0.049,0.01,-0.059,-0.015,-0.044,-0.117,-0.107,-0.078,0.102
0.71,-0.015,-0.068,-0.054,0.044,0.02,-0.063,-0.005,-0.034,-0.112,-0.107,-0.078,0.098
0.712,-0.029,-0.068,-0.039,0.049,0.005,-0.054,-0.005,-0.034,-0.122,-0.098,-0.068,0.107
0.714,-0.049,-0.068,-0.02,0.059,-0.015,-0.044,-0.005,-0.034,-0.122,-0.102,-0.068,0.112
0.716,-0.054,-0.068,-0.015,0.063,-0.02,-0.044,-0.005,-0.034,-0.122,-0.102,-0.063,0.117
0.718,-0.054,-0.054,0.0,0.054,-0.029,-0.029,0.0,-0.034,-0.122,-0.098,-0.063,0.122
0.72,-0.039,-0.044,-0.005,0.044,-0.02,-0.024,-0.01,-0.039,-0.112,-0.098,-0.063,0.127
0.722,-0.034,-0.049,-0.015,0.044,-0.01,-0.034,-0.01,-0.039,-0.112,-0.098,-0.063,0.137
0.724,-0.01,-0.049,-0.039,0.029,0.015,-0.044,-0.01,-0.034,-0.112,-0.098,-0.063,0.146
0.726,-0.029,-0.049,-0.02,0.039,-0.005,-0.034,-0.01,-0.024,-0.107,-0.088,-0.059,0.161
0.728,-0.054,-0.054,0.0,0.054,-0.029,-0.029,0.01,-0.029,-0.107,-0.078,-0.049,0.171
0.73,-0.044,-0.044,0.0,0.044,-0.024,-0.024,0.01,-0.02,-0.098,-0.078,-0.054,0.171
0.732,-0.044,-0.054,-0.01,0.049,-0.02,-0.034,0.015,-0.02,-0.093,-0.083,-0.054,0.171
0.734,-0.063,-0.073,-0.01,0.068,-0.029,-0.044,0.02,-0.015,-0.093,-0.078,-0.063,0.166
0.736,-0.073,-0.073,0.0,0.073,-0.039,-0.039,0.024,-0.01,-0.073,-0.083,-0.078,0.142
0.738,-0.073,-0.054,0.02,0.063,-0.049,-0.02,0.029,-0.005,-0.063,-0.088,-0.112,0.112
0.74,-0.073,-0.044,0.029,0.059,-0.054,-0.01,0.044,0.01,-0.044,-0.078,-0.142,0.083
0.742,-0.073,-0.034,0.039,0.054,-0.059,0.0,0.054,0.02,-0.015,-0.054,-0.137,0.093
0.744,-0.073,-0.02,0.054,0.049,-0.063,0.015,0.034,0.015,0.015,-0.01,-0.107,0.102
0.746,-0.063,0.01,0.073,0.029,-0.068,0.039,0.029,0.024,0.059,0.073,-0.059,0.146
0.748,-0.049,0.049,0.098,0.0,-0.073,0.073,0.02,0.049,0.132,0.19,0.039,0.205
0.75,-0.005,0.083,0.088,-0.039,-0.049,0.083,0.015,0.054,0.185,0.307,0.161,0.288
0.752,0.015,0.102,0.088,-0.059,-0.039,0.093,-0.005,0.044,0.166,0.405,0.312,0.41
0.754,0.0,0.142,0.142,-0.068,-0.073,0.142,-0.034,-0.015,0.063,0.468,0.483,0.571
0.756,0.054,0.195,0.142,-0.122,-0.044,0.166,-0.093,-0.102,-0.088,0.527,0.693,0.752
0.758,0.195,0.259,0.063,-0.224,0.063,0.161,-0.19,-0.2,-0.229,0.605,0.942,0.937
0.76,0.278,0.303,0.024,-0.288,0.127,0.161,-0.288,-0.317,-0.366,0.683,1.191,1.137
0.762,0.268,0.307,0.039,-0.288,0.112,0.171,-0.366,-0.444,-0.522,0.756,1.449,1.352
0.764,0.244,0.307,0.063,-0.273,0.088,0.185,-0.444,-0.551,-0.673,0.795,1.654,1.547
0.766,0.288,0.303,0.015,-0.293,0.137,0.156,-0.527,-0.669,-0.83,0.776,1.806,1.713
0.768,0.342,0.278,-0.063,-0.307,0.2,0.107,-0.59,-0.747,-0.966,0.708,1.889,1.806
0.77,0.376,0.239,-0.137,-0.307,0.254,0.049,-0.615,-0.781,-1.059,0.59,1.869,1.83
0.772,0.405,0.19,-0.215,-0.298,0.307,-0.015,-0.61,-0.761,-1.118,0.376,1.688,1.723
0.774,0.376,0.073,-0.303,-0.224,0.337,-0.117,-0.571,-0.732,-1.176,0.044,1.357,1.488
0.776,0.283,-0.132,-0.415,-0.073,0.346,-0.273,-0.542,-0.732,-1.249,-0.303,0.956,1.191
0.778,0.215,-0.264,-0.478,0.024,0.346,-0.371,-0.498,-0.678,-1.249,-0.566,0.576,0.937
0.78,0.22,-0.273,-0.493,0.029,0.356,-0.386,-0.405,-0.566,-1.171,-0.737,0.259,0.747
0.782,0.195,-0.356,-0.551,0.083,0.371,-0.454,-0.312,-0.459,-1.093,-0.893,-0.054,0.551
0.784,0.102,-0.522,-0.625,0.21,0.361,-0.576,-0.254,-0.386,-1.049,-0.986,-0.288,0.366
0.786,0.068,-0.561,-0.63,0.249,0.346,-0.595,-0.181,-0.307,-0.966,-0.947,-0.39,0.264
0.788,0.093,-0.483,-0.576,0.195,0.332,-0.532,-0.098,-0.22,-0.844,-0.849,-0.395,0.229
0.79,0.078,-0.425,-0.503,0.176,0.288,-0.464,-0.044,-0.137,-0.737,-0.747,-0.376,0.205
0.792,0.02,-0.39,-0.41,0.185,0.215,-0.4,-0.01,-0.083,-0.634,-0.664,-0.356,0.181
0.794,0.01,-0.322,-0.332,0.156,0.171,-0.327,-0.01,-0.059,-0.547,-0.59,-0.322,0.171
0.796,0.024,-0.249,-0.273,0.112,0.146,-0.264,-0.024,-0.063,-0.483,-0.517,-0.288,0.171
0.798,0.02,-0.2,-0.22,0.093,0.117,-0.21,-0.034,-0.063,-0.425,-0.444,-0.249,0.181
0.8,-0.02,-0.185,-0.166,0.102,0.073,-0.176,-0.024,-0.049,-0.371,-0.39,-0.224,0.185
0.802,-0.024,-0.176,-0.151,0.102,0.063,-0.166,-0.01,-0.015,-0.322,-0.346,-0.2,0.19
0.804,0.01,-0.132,-0.142,0.063,0.073,-0.137,0.015,0.029,-0.259,-0.293,-0.185,0.195
0.806,0.039,-0.088,-0.127,0.024,0.083,-0.107,0.01,0.039,-0.22,-0.254,-0.181,0.195
0.808,0.01,-0.088,-0.098,0.039,0.054,-0.093,0.0,0.049,-0.185,-0.229,-0.181,0.19
0.81,0.0,-0.083,-0.083,0.044,0.039,-0.083,0.01,0.054,-0.151,-0.185,-0.161,0.195
0.812,0.0,-0.054,-0.054,0.029,0.024,-0.054,0.034,0.063,-0.102,-0.146,-0.132,0.224
0.814,-0.039,-0.044,-0.005,0.044,-0.02,-0.024,0.039,0.063,-0.054,-0.102,-0.093,0.259
0.816,-0.054,-0.049,0.005,0.054,-0.029,-0.024,0.034,0.044,-0.039,-0.083,-0.063,0.278
0.818,-0.01,-0.054,-0.044,0.034,0.015,-0.049,0.029,0.034,-0.029,-0.078,-0.063,0.283
0.82,-0.01,-0.059,-0.049,0.034,0.02,-0.054,0.029,0.029,-0.034,-0.083,-0.054,0.293
0.822,-0.01,-0.049,-0.039,0.029,0.015,-0.044,0.034,0.024,-0.024,-0.078,-0.054,0.283
0.824,-0.02,-0.049,-0.029,0.034,0.005,-0.039,0.034,0.02,-0.034,-0.073,-0.059,0.273
0.826,-0.024,-0.049,-0.024,0.039,0.0,-0.039,0.034,0.015,-0.034,-0.068,-0.063,0.264
0.828,-0.044,-0.054,-0.01,0.049,-0.02,-0.034,0.039,0.015,-0.024,-0.063,-0.054,0.273
0.83,-0.063,-0.054,0.01,0.059,-0.039,-0.024,0.044,0.015,-0.024,-0.054,-0.054,0.264
0.832,-0.068,-0.054,0.015,0.063,-0.044,-0.02,0.049,0.015,-0.02,-0.049,-0.068,0.249
0.834,-0.073,-0.054,0.02,0.063,-0.049,-0.02,0.054,0.02,-0.005,-0.044,-0.068,0.249
0.836,-0.049,-0.039,0.01,0.044,-0.029,-0.015,0.044,0.024,0.0,-0.044,-0.059,0.249
0.838,-0.039,-0.034,0.005,0.039,-0.024,-0.015,0.044,0.029,0.005,-0.044,-0.059,0.249
0.84,-0.01,-0.015,-0.005,0.015,-0.005,-0.01,0.044,0.029,0.005,-0.034,-0.044,0.264
0.842,0.0,-0.02,-0.02,0.01,0.01,-0.02,0.044,0.029,0.005,-0.024,-0.039,0.264
0.844,0.0,-0.01,-0.01,0.005,0.005,-0.01,0.054,0.029,0.005,-0.029,-0.044,0.273
0.846,0.0,-0.01,-0.01,0.005,0.005,-0.01,0.054,0.029,0.005,-0.029,-0.044,0.273
0.848,0.0,0.005,0.005,0.0,-0.005,0.005,0.059,0.029,0.01,-0.029,-0.044,0.273
0.85,0.015,0.01,-0.005,-0.01,0.01,0.0,0.063,0.034,0.01,-0.029,-0.049,0.264
0.852,-0.01,0.005,0.015,0.005,-0.015,0.01,0.054,0.024,0.024,-0.02,-0.039,0.273
0.854,-0.02,0.005,0.024,0.01,-0.024,0.015,0.054,0.024,0.024,-0.015,-0.039,0.278
0.856,-0.029,0.0,0.029,0.015,-0.029,0.015,0.059,0.024,0.024,-0.015,-0.039,0.278
0.858,-0.039,-0.015,0.024,0.029,-0.034,0.005,0.059,0.024,0.034,-0.015,-0.039,0.278
0.86,-0.034,-0.015,0.02,0.024,-0.029,0.0,0.049,0.02,0.029,-0.015,-0.034,0.283
0.862,-0.029,-0.015,0.015,0.024,-0.024,0.0,0.049,0.02,0.024,-0.015,-0.039,0.298
0.864,-0.024,-0.02,0.005,0.024,-0.015,-0.01,0.044,0.015,0.02,-0.015,-0.044,0.298
0.866,-0.029,-0.02,0.01,0.024,-0.02,-0.005,0.044,0.01,0.01,-0.024,-0.054,0.288
0.868,-0.024,-0.015,0.01,0.02,-0.02,-0.005,0.049,0.015,0.015,-0.015,-0.054,0.288
0.87,-0.015,-0.015,0.0,0.015,-0.01,-0.01,0.054,0.02,0.015,-0.01,-0.049,0.293
0.872,-0.034,-0.005,0.029,0.02,-0.034,0.01,0.059,0.024,0.02,-0.01,-0.044,0.298
0.874,-0.044,-0.005,0.039,0.024,-0.044,0.015,0.063,0.029,0.034,-0.01,-0.034,0.307
0.876,-0.034,-0.015,0.02,0.024,-0.029,0.0,0.059,0.024,0.024,-0.02,-0.044,0.317
0.878,-0.02,-0.015,0.005,0.02,-0.015,-0.005,0.054,0.024,0.024,-0.02,-0.044,0.317
0.88,-0.01,-0.01,0.0,0.01,-0.005,-0.005,0.054,0.024,0.024,-0.01,-0.039,0.322
0.882,-0.01,-0.01,0.0,0.01,-0.005,-0.005,0.049,0.029,0.024,-0.01,-0.039,0.337
0.884,-0.015,-0.024,-0.01,0.02,-0.005,-0.02,0.049,0.029,0.029,0.0,-0.049,0.312
0.886,-0.02,-0.01,0.01,0.015,-0.015,0.0,0.054,0.029,0.029,0.0,-0.049,0.298
0.888,-0.01,0.0,0.01,0.005,-0.01,0.005,0.063,0.029,0.029,0.0,-0.039,0.293
0.89,-0.015,0.0,0.015,0.01,-0.015,0.005,0.068,0.029,0.039,0.0,-0.039,0.288
0.892,-0.015,-0.005,0.01,0.01,-0.015,0.0,0.059,0.029,0.029,-0.005,-0.039,0.283
0.894,-0.015,-0.01,0.005,0.015,-0.01,-0.005,0.059,0.029,0.034,-0.005,-0.049,0.273
0.896,-0.015,-0.01,0.005,0.015,-0.01,-0.005,0.059,0.039,0.044,0.005,-0.039,0.268
0.898,-0.015,-0.01,0.005,0.015,-0.01,-0.005,0.054,0.039,0.044,0.005,-0.034,0.273
0.9,-0.015,-0.015,0.0,0.015,-0.01,-0.01,0.054,0.044,0.039,0.0,-0.044,0.268
0.902,-0.01,-0.015,-0.005,0.015,-0.005,-0.01,0.054,0.039,0.039,0.0,-0.044,0.264
0.904,0.0,-0.01,-0.01,0.005,0.005,-0.01,0.054,0.039,0.049,0.01,-0.044,0.273
0.906,0.005,0.005,0.0,-0.005,0.0,0.0,0.054,0.044,0.049,0.015,-0.034,0.268
0.908,-0.029,0.0,0.029,0.015,-0.029,0.015,0.063,0.034,0.049,0.015,-0.024,0.259
0.91,-0.029,0.0,0.029,0.015,-0.029,0.015,0.068,0.039,0.054,0.02,-0.024,0.254
0.912,-0.024,0.005,0.029,0.01,-0.029,0.015,0.068,0.039,0.059,0.02,-0.024,0.249
0.914,-0.024,0.0,0.024,0.015,-0.024,0.01,0.068,0.039,0.059,0.02,-0.034,0.244
0.916,-0.029,-0.02,0.01,0.024,-0.02,-0.005,0.059,0.039,0.059,0.005,-0.034,0.224
0.918,-0.029,-0.02,0.01,0.024,-0.02,-0.005,0.068,0.044,0.059,0.015,-0.034,0.22
0.92,-0.015,-0.02,-0.005,0.02,-0.005,-0.015,0.068,0.049,0.059,0.015,-0.034,0.22
0.922,-0.015,-0.02,-0.005,0.02,-0.005,-0.015,0.068,0.049,0.063,0.02,-0.034,0.224
0.924,-0.024,-0.02,0.005,0.024,-0.015,-0.01,0.068,0.059,0.073,0.029,-0.029,0.215
0.926,-0.034,-0.015,0.02,0.024,-0.029,0.0,0.068,0.059,0.073,0.034,-0.024,0.215
0.928,-0.039,-0.005,0.034,0.024,-0.039,0.015,0.068,0.059,0.078,0.034,-0.024,0.215
0.93,-0.024,0.0,0.024,0.015,-0.024,0.01,0.059,0.059,0.083,0.034,-0.024,0.21
0.932,-0.02,0.005,0.024,0.01,-0.024,0.015,0.059,0.049,0.073,0.02,-0.039,0.2
0.934,-0.015,0.005,0.02,0.005,-0.02,0.01,0.059,0.049,0.073,0.02,-0.039,0.195
0.936,-0.02,-0.005,0.015,0.015,-0.02,0.005,0.063,0.049,0.073,0.024,-0.044,0.185
0.938,-0.015,-0.02,-0.005,0.02,-0.005,-0.015,0.063,0.049,0.073,0.024,-0.044,0.176
0.94,0.0,0.0,0.0,0.0,0.0,0.0,0.073,0.049,0.083,0.024,-0.034,0.176
0.942,0.01,0.005,-0.005,-0.005,0.005,0.0,0.078,0.063,0.098,0.044,-0.02,0.19
0.944,0.005,0.0,-0.005,0.0,0.005,-0.005,0.078,0.063,0.098,0.054,-0.02,0.19
0.946,-0.015,-0.015,0.0,0.015,-0.01,-0.01,0.078,0.063,0.098,0.044,-0.02,0.19
0.948,-0.02,-0.024,-0.005,0.024,-0.01,-0.015,0.068,0.059,0.102,0.039,-0.024,0.181
0.95,-0.005,-0.01,-0.005,0.01,0.0,-0.01,0.068,0.059,0.102,0.039,-0.024,0.176
0.952,0.0,0.005,0.005,0.0,-0.005,0.005,0.068,0.059,0.102,0.039,-0.024,0.171
0.954,0.0,0.0,0.0,0.0,0.0,0.0,0.068,0.063,0.112,0.044,-0.024,0.166
0.956,-0.01,-0.01,0.0,0.01,-0.005,-0.005,0.068,0.063,0.112,0.044,-0.015,0.171
0.958,-0.01,-0.01,0.0,0.01,-0.005,-0.005,0.068,0.063,0.117,0.049,-0.015,0.171
0.96,-0.005,-0.015,-0.01,0.01,0.0,-0.015,0.068,0.063,0.117,0.049,-0.02,0.171
0.962,0.005,-0.015,-0.02,0.005,0.01,-0.02,0.068,0.068,0.117,0.054,-0.02,0.171
0.964,0.01,-0.005,-0.015,0.0,0.01,-0.01,0.078,0.083,0.137,0.063,-0.02,0.19
0.966,-0.01,-0.01,0.0,0.01,-0.005,-0.005,0.078,0.083,0.137,0.063,-0.015,0.19
0.968,-0.044,-0.02,0.024,0.034,-0.034,0.0,0.078,0.078,0.132,0.063,-0.015,0.181
0.97,-0.039,-0.024,0.015,0.034,-0.029,-0.005,0.078,0.078,0.132,0.063,-0.015,0.176
0.972,-0.01,-0.01,0.0,0.01,-0.005,-0.005,0.068,0.073,0.137,0.063,-0.015,0.185
0.974,-0.02,-0.01,0.01,0.015,-0.015,0.0,0.068,0.083,0.142,0.078,-0.015,0.19
0.976,-0.015,-0.02,-0.005,0.02,-0.005,-0.015,0.068,0.083,0.146,0.083,-0.01,0.195
0.978,-0.01,-0.02,-0.01,0.015,0.0,-0.015,0.068,0.088,0.156,0.083,-0.01,0.2
0.98,-0.005,-0.029,-0.024,0.02,0.01,-0.029,0.059,0.078,0.156,0.083,-0.02,0.215
0.982,-0.02,-0.039,-0.02,0.029,0.0,-0.029,0.054,0.078,0.156,0.083,-0.02,0.215
0.984,-0.02,-0.049,-0.029,0.034,0.005,-0.039,0.054,0.078,0.156,0.083,-0.02,0.215
0.986,-0.015,-0.029,-0.015,0.024,0.0,-0.024,0.059,0.078,0.161,0.083,-0.015,0.215
0.988,-0.02,-0.005,0.015,0.015,-0.02,0.005,0.063,0.093,0.176,0.107,-0.005,0.239
0.99,-0.024,-0.005,0.02,0.015,-0.024,0.005,0.068,0.093,0.185,0.107,-0.005,0.254
0.992,-0.039,-0.02,0.02,0.029,-0.029,0.0,0.068,0.093,0.19,0.107,-0.005,0.264
0.994,-0.034,-0.02,0.015,0.029,-0.024,-0.005,0.073,0.093,0.205,0.112,0.0,0.278
0.996,-0.02,-0.015,0.005,0.02,-0.015,-0.005,0.063,0.098,0.205,0.102,0.0,0.268
0.998,-0.01,-0.015,-0.005,0.015,-0.005,-0.01,0.063,0.102,0.21,0.112,0.005,0.273
1.0,0.005,-0.005,-0.01,0.0,0.005,-0.01,0.063,0.107,0.205,0.122,0.01,0.278
1.002,0.015,-0.005,-0.02,-0.005,0.015,-0.015,0.059,0.093,0.2,0.122,0.01,0.278
1.004,-0.015,-0.015,0.0,0.015,-0.01,-0.01,0.068,0.102,0.205,0.132,0.01,0.273
1.006,-0.02,-0.015,0.005,0.02,-0.015,-0.005,0.068,0.102,0.22,0.137,0.01,0.273
1.008,-0.024,0.005,0.029,0.01,-0.029,0.015,0.073,0.102,0.234,0.142,0.02,0.283
1.01,-0.005,0.024,0.029,-0.01,-0.02,0.024,0.078,0.112,0.254,0.151,0.02,0.288
1.012,0.0,0.01,0.01,-0.005,-0.005,0.01,0.068,0.117,0.249,0.146,0.01,0.278
1.014,0.01,-0.005,-0.015,0.0,0.01,-0.01,0.068,0.117,0.249,0.146,0.01,0.273
1.016,0.01,-0.015,-0.024,0.005,0.015,-0.02,0.068,0.107,0.249,0.146,0.005,0.264
1.018,-0.01,-0.02,-0.01,0.015,0.0,-0.015,0.063,0.117,0.254,0.151,0.005,0.259
1.02,0.0,-0.015,-0.015,0.01,0.005,-0.015,0.054,0.112,0.268,0.166,0.02,0.254
1.022,0.015,-0.01,-0.024,0.0,0.02,-0.02,0.054,0.112,0.278,0.176,0.029,0.259
1.024,0.029,0.005,-0.024,-0.015,0.024,-0.01,0.054,0.122,0.283,0.181,0.034,0.259
1.026,0.049,0.015,-0.034,-0.029,0.039,-0.01,0.054,0.122,0.288,0.19,0.039,0.254
1.028,0.034,0.034,0.0,-0.034,0.015,0.015,0.068,0.132,0.303,0.195,0.049,0.254
1.03,0.024,0.034,0.01,-0.029,0.005,0.02,0.068,0.137,0.312,0.195,0.054,0.264
1.032,-0.01,0.02,0.029,-0.005,-0.02,0.024,0.068,0.137,0.317,0.205,0.054,0.264
1.034,-0.02,0.02,0.039,0.0,-0.029,0.029,0.068,0.132,0.317,0.205,0.049,0.264
1.036,0.005,0.015,0.01,-0.01,-0.005,0.01,0.054,0.132,0.327,0.205,0.059,0.254
1.038,0.01,0.029,0.02,-0.02,-0.005,0.024,0.054,0.142,0.342,0.22,0.068,0.259
1.04,0.01,0.034,0.024,-0.02,-0.01,0.029,0.049,0.142,0.342,0.224,0.068,0.264
1.042,0.034,0.039,0.005,-0.034,0.015,0.02,0.044,0.142,0.346,0.234,0.068,0.264
1.044,0.044,0.039,-0.005,-0.039,0.024,0.015,0.034,0.142,0.346,0.239,0.078,0.254
1.046,0.02,0.039,0.02,-0.029,0.0,0.029,0.034,0.142,0.351,0.249,0.073,0.259
1.048,0.02,0.039,0.02,-0.029,0.0,0.029,0.034,0.137,0.356,0.249,0.073,0.259
1.05,0.024,0.039,0.015,-0.029,0.005,0.024,0.029,0.137,0.361,0.254,0.068,0.264
1.052,0.049,0.059,0.01,-0.054,0.02,0.034,0.029,0.142,0.371,0.259,0.078,0.264
1.054,0.059,0.063,0.005,-0.059,0.024,0.034,0.024,0.146,0.381,0.264,0.088,0.268
1.056,0.083,0.073,-0.01,-0.078,0.044,0.029,0.02,0.146,0.381,0.268,0.093,0.273
1.058,0.093,0.078,-0.015,-0.083,0.054,0.029,0.02,0.151,0.386,0.268,0.098,0.273
1.06,0.068,0.078,0.01,-0.073,0.029,0.044,0.024,0.156,0.41,0.293,0.117,0.298
1.062,0.054,0.078,0.024,-0.063,0.015,0.049,0.024,0.156,0.42,0.303,0.132,0.307
1.064,0.039,0.073,0.034,-0.054,0.0,0.054,0.024,0.156,0.42,0.307,0.132,0.312
1.066,0.024,0.068,0.044,-0.044,-0.01,0.054,0.024,0.156,0.425,0.312,0.132,0.327
1.068,0.039,0.078,0.039,-0.059,0.0,0.059,0.024,0.156,0.425,0.312,0.137,0.337
1.07,0.049,0.088,0.039,-0.068,0.005,0.063,0.024,0.156,0.434,0.327,0.142,0.342
1.072,0.054,0.098,0.044,-0.073,0.005,0.068,0.02,0.161,0.439,0.327,0.146,0.346
1.074,0.073,0.102,0.029,-0.088,0.02,0.063,0.015,0.161,0.444,0.332,0.151,0.356
1.076,0.073,0.093,0.02,-0.083,0.024,0.054,0.0,0.146,0.434,0.332,0.146,0.366
1.078,0.044,0.073,0.029,-0.059,0.005,0.049,-0.005,0.142,0.434,0.342,0.151,0.376
1.08,0.044,0.073,0.029,-0.059,0.005,0.049,-0.01,0.142,0.444,0.342,0.156,0.381
1.082,0.068,0.093,0.024,-0.078,0.02,0.059,-0.01,0.142,0.444,0.346,0.161,0.381
1.084,0.078,0.112,0.034,-0.093,0.02,0.073,-0.024,0.151,0.449,0.366,0.181,0.386
1.086,0.083,0.112,0.029,-0.098,0.024,0.068,-0.029,0.151,0.454,0.386,0.19,0.39
1.088,0.073,0.117,0.044,-0.093,0.015,0.078,-0.029,0.151,0.464,0.39,0.2,0.405
1.09,0.049,0.117,0.068,-0.083,-0.01,0.093,-0.034,0.142,0.473,0.405,0.215,0.41
1.092,0.049,0.117,0.068,-0.083,-0.01,0.093,-0.039,0.142,0.468,0.4,0.205,0.405
1.094,0.059,0.127,0.068,-0.093,-0.005,0.098,-0.039,0.142,0.468,0.405,0.205,0.415
1.096,0.088,0.142,0.054,-0.112,0.015,0.098,-0.039,0.137,0.464,0.405,0.22,0.434
1.098,0.098,0.142,0.044,-0.117,0.024,0.093,-0.034,0.132,0.459,0.41,0.229,0.444
1.1,0.088,0.142,0.054,-0.112,0.015,0.098,-0.044,0.117,0.454,0.41,0.244,0.459
1.102,0.088,0.142,0.054,-0.112,0.015,0.098,-0.049,0.117,0.454,0.415,0.244,0.468
1.104,0.083,0.142,0.059,-0.112,0.01,0.098,-0.059,0.117,0.454,0.415,0.254,0.478
1.106,0.083,0.142,0.059,-0.112,0.01,0.098,-0.063,0.117,0.449,0.42,0.259,0.493
1.108,0.093,0.161,0.068,-0.127,0.01,0.112,-0.063,0.117,0.449,0.439,0.264,0.517
1.11,0.122,0.161,0.039,-0.142,0.039,0.098,-0.063,0.112,0.449,0.429,0.264,0.522
1.112,0.107,0.161,0.054,-0.132,0.024,0.107,-0.068,0.107,0.444,0.429,0.264,0.532
1.114,0.112,0.161,0.049,-0.137,0.029,0.102,-0.063,0.098,0.439,0.434,0.273,0.537
1.116,0.107,0.151,0.044,-0.127,0.029,0.098,-0.078,0.083,0.42,0.429,0.273,0.527
1.118,0.102,0.142,0.039,-0.122,0.029,0.088,-0.083,0.078,0.405,0.415,0.268,0.542
1.12,0.088,0.127,0.039,-0.107,0.024,0.083,-0.088,0.078,0.395,0.405,0.268,0.542
1.122,0.083,0.122,0.039,-0.102,0.02,0.078,-0.093,0.073,0.39,0.4,0.264,0.547
1.124,0.127,0.142,0.015,-0.132,0.054,0.078,-0.093,0.073,0.381,0.42,0.278,0.551
1.126,0.132,0.146,0.015,-0.137,0.059,0.078,-0.098,0.068,0.381,0.42,0.283,0.551
1.128,0.132,0.146,0.015,-0.137,0.059,0.078,-0.098,0.059,0.361,0.41,0.288,0.551
1.13,0.137,0.146,0.01,-0.142,0.063,0.078,-0.098,0.044,0.356,0.405,0.288,0.547
1.132,0.122,0.132,0.01,-0.127,0.054,0.068,-0.098,0.034,0.332,0.386,0.278,0.542
1.134,0.112,0.127,0.015,-0.117,0.049,0.068,-0.098,0.034,0.317,0.386,0.278,0.537
1.136,0.107,0.127,0.02,-0.117,0.044,0.073,-0.098,0.029,0.317,0.381,0.288,0.547
1.138,0.093,0.122,0.029,-0.107,0.029,0.073,-0.098,0.015,0.303,0.381,0.293,0.547
1.14,0.093,0.112,0.02,-0.102,0.034,0.063,-0.098,0.005,0.288,0.376,0.293,0.537
1.142,0.093,0.098,0.005,-0.093,0.044,0.049,-0.098,-0.005,0.268,0.361,0.283,0.537
1.144,0.083,0.088,0.005,-0.083,0.039,0.044,-0.098,-0.005,0.259,0.351,0.273,0.532
1.146,0.083,0.088,0.005,-0.083,0.039,0.044,-0.098,-0.005,0.244,0.342,0.288,0.527
1.148,0.098,0.098,0.0,-0.098,0.049,0.049,-0.098,-0.005,0.234,0.342,0.278,0.512
1.15,0.098,0.098,0.0,-0.098,0.049,0.049,-0.088,-0.01,0.22,0.332,0.273,0.512
1.152,0.083,0.098,0.015,-0.088,0.034,0.054,-0.088,-0.01,0.215,0.317,0.264,0.498
1.154,0.083,0.078,-0.005,-0.078,0.044,0.034,-0.088,-0.024,0.2,0.293,0.259,0.488
1.156,0.098,0.083,-0.015,-0.088,0.054,0.034,-0.088,-0.034,0.176,0.278,0.244,0.473
1.158,0.102,0.083,-0.02,-0.093,0.059,0.029,-0.088,-0.044,0.161,0.259,0.229,0.459
1.16,0.107,0.083,-0.024,-0.093,0.063,0.029,-0.083,-0.054,0.151,0.239,0.21,0.434
1.162,0.107,0.083,-0.024,-0.093,0.063,0.029,-0.068,-0.059,0.142,0.215,0.19,0.429
1.164,0.073,0.059,-0.015,-0.063,0.044,0.02,-0.068,-0.054,0.127,0.205,0.181,0.425
1.166,0.049,0.044,-0.005,-0.044,0.024,0.02,-0.068,-0.059,0.102,0.176,0.161,0.415
1.168,0.039,0.039,0.0,-0.039,0.02,0.02,-0.059,-0.059,0.083,0.161,0.156,0.4
1.17,0.029,0.029,0.0,-0.029,0.015,0.015,-0.059,-0.059,0.078,0.146,0.142,0.395
1.172,0.039,0.039,0.0,-0.039,0.02,0.02,-0.039,-0.059,0.078,0.137,0.127,0.39
1.174,0.049,0.049,0.0,-0.049,0.024,0.024,-0.039,-0.059,0.073,0.117,0.112,0.381
1.176,0.059,0.059,0.0,-0.059,0.029,0.029,-0.034,-0.059,0.054,0.102,0.098,0.386
1.178,0.063,0.059,-0.005,-0.059,0.034,0.024,-0.034,-0.063,0.049,0.093,0.088,0.381
1.18,0.044,0.029,-0.015,-0.034,0.029,0.005,-0.034,-0.073,0.034,0.073,0.088,0.366
1.182,0.024,0.01,-0.015,-0.015,0.02,-0.005,-0.034,-0.078,0.029,0.054,0.073,0.332
1.184,0.015,0.005,-0.01,-0.01,0.01,-0.005,-0.024,-0.078,0.029,0.044,0.054,0.322
1.186,0.005,-0.005,-0.01,0.0,0.005,-0.01,-0.02,-0.078,0.029,0.034,0.049,0.298
1.188,-0.005,-0.01,-0.005,0.01,0.0,-0.01,-0.024,-0.078,0.02,0.029,0.02,0.298
1.19,-0.01,-0.015,-0.005,0.015,-0.005,-0.01,-0.024,-0.073,0.01,0.024,0.015,0.293
1.192,-0.005,-0.02,-0.015,0.015,0.005,-0.02,-0.024,-0.073,-0.005,0.015,0.01,0.283
1.194,-0.01,-0.024,-0.015,0.02,0.0,-0.02,-0.024,-0.073,-0.01,0.0,0.0,0.273
1.196,0.005,-0.01,-0.015,0.005,0.01,-0.015,-0.015,-0.063,-0.005,0.0,0.01,0.283
1.198,0.015,0.015,0.0,-0.015,0.005,0.005,-0.005,-0.063,-0.005,0.0,0.0,0.283
1.2,0.029,0.02,-0.01,-0.024,0.02,0.005,0.0,-0.063,-0.01,-0.005,-0.005,0.273
1.202,0.039,0.02,-0.02,-0.029,0.029,0.0,0.005,-0.063,-0.005,-0.01,-0.01,0.264
1.204,0.034,0.015,-0.02,-0.024,0.024,-0.005,-0.005,-0.073,-0.01,-0.024,-0.024,0.259
1.206,0.029,0.01,-0.02,-0.02,0.024,-0.005,0.0,-0.073,-0.015,-0.034,-0.029,0.259
1.208,0.029,0.005,-0.024,-0.015,0.024,-0.01,0.005,-0.073,-0.02,-0.039,-0.034,0.259
1.21,0.029,-0.005,-0.034,-0.01,0.029,-0.02,0.005,-0.073,-0.029,-0.039,-0.034,0.259
1.212,0.005,-0.029,-0.034,0.015,0.02,-0.034,-0.01,-0.073,-0.029,-0.044,-0.049,0.254
1.214,-0.005,-0.039,-0.034,0.024,0.015,-0.039,-0.01,-0.078,-0.039,-0.054,-0.059,0.254
1.216,-0.015,-0.029,-0.015,0.024,0.0,-0.024,-0.01,-0.078,-0.039,-0.054,-0.059,0.259
1.218,-0.024,-0.049,-0.024,0.039,0.0,-0.039,-0.005,-0.078,-0.039,-0.054,-0.059,0.264
1.22,-0.02,-0.034,-0.015,0.029,-0.005,-0.024,0.01,-0.063,-0.034,-0.044,-0.059,0.278
1.222,-0.01,-0.02,-0.01,0.015,0.0,-0.015,0.01,-0.063,-0.034,-0.044,-0.054,0.283
1.224,-0.02,-0.024,-0.005,0.024,-0.01,-0.015,0.01,-0.063,-0.034,-0.049,-0.054,0.283
1.226,-0.02,-0.02,0.0,0.02,-0.01,-0.01,0.01,-0.063,-0.029,-0.054,-0.054,0.288
1.228,-0.02,-0.029,-0.01,0.024,-0.005,-0.02,0.01,-0.063,-0.024,-0.063,-0.063,0.288
1.23,-0.029,-0.039,-0.01,0.034,-0.01,-0.024,0.01,-0.063,-0.029,-0.063,-0.063,0.288
1.232,-0.024,-0.024,0.0,0.024,-0.015,-0.015,0.01,-0.063,-0.034,-0.059,-0.063,0.283
1.234,0.005,-0.024,-0.029,0.01,0.015,-0.029,0.01,-0.063,-0.034,-0.059,-0.063,0.283
1.236,0.005,-0.034,-0.039,0.015,0.02,-0.039,0.01,-0.073,-0.024,-0.059,-0.063,0.293
1.238,0.005,-0.034,-0.039,0.015,0.02,-0.039,0.01,-0.068,-0.024,-0.059,-0.063,0.293
1.24,-0.02,-0.034,-0.015,0.029,-0.005,-0.024,0.015,-0.068,-0.024,-0.063,-0.063,0.283
1.242,-0.02,-0.034,-0.015,0.029,-0.005,-0.024,0.015,-0.068,-0.024,-0.063,-0.063,0.283
1.244,-0.01,-0.034,-0.024,0.024,0.005,-0.029,0.024,-0.059,-0.015,-0.063,-0.054,0.283
1.246,0.01,-0.024,-0.034,0.01,0.02,-0.029,0.02,-0.059,-0.02,-0.068,-0.068,0.273
1.248,-0.01,-0.034,-0.024,0.024,0.005,-0.029,0.02,-0.059,-0.024,-0.068,-0.073,0.268
1.25,-0.015,-0.059,-0.044,0.039,0.015,-0.054,0.02,-0.063,-0.024,-0.073,-0.073,0.268
1.252,-0.01,-0.059,-0.049,0.034,0.02,-0.054,0.01,-0.073,-0.029,-0.078,-0.083,0.259
1.254,-0.005,-0.054,-0.049,0.029,0.02,-0.054,0.01,-0.073,-0.029,-0.078,-0.093,0.254
1.256,0.0,-0.054,-0.054,0.029,0.024,-0.054,0.005,-0.073,-0.029,-0.078,-0.093,0.254
1.258,0.005,-0.054,-0.059,0.024,0.029,-0.059,0.005,-0.073,-0.034,-0.078,-0.093,0.254
1.26,-0.02,-0.044,-0.024,0.034,0.0,-0.034,0.015,-0.059,-0.02,-0.063,-0.078,0.268
1.262,-0.015,-0.034,-0.02,0.024,0.0,-0.029,0.02,-0.049,-0.015,-0.059,-0.073,0.268
1.264,-0.01,-0.029,-0.02,0.02,0.005,-0.024,0.024,-0.044,-0.01,-0.054,-0.073,0.264
1.266,-0.034,-0.034,0.0,0.034,-0.02,-0.02,0.039,-0.039,0.0,-0.049,-0.068,0.268
1.268,-0.024,-0.029,-0.005,0.029,-0.01,-0.02,0.044,-0.039,-0.005,-0.059,-0.073,0.264
1.27,-0.02,-0.024,-0.005,0.024,-0.01,-0.015,0.039,-0.044,-0.005,-0.059,-0.078,0.259
1.272,-0.034,-0.049,-0.015,0.044,-0.01,-0.034,0.034,-0.049,-0.005,-0.063,-0.088,0.254
1.274,-0.039,-0.068,-0.029,0.054,-0.005,-0.049,0.029,-0.059,-0.005,-0.063,-0.093,0.249
1.276,-0.024,-0.063,-0.039,0.044,0.005,-0.054,0.039,-0.049,0.0,-0.063,-0.083,0.244
1.278,-0.015,-0.059,-0.044,0.039,0.015,-0.054,0.034,-0.049,0.0,-0.063,-0.083,0.244
1.28,-0.024,-0.054,-0.029,0.039,0.0,-0.044,0.029,-0.049,0.0,-0.063,-0.088,0.244
1.282,-0.015,-0.049,-0.034,0.034,0.01,-0.044,0.029,-0.044,-0.005,-0.063,-0.088,0.244
1.284,-0.01,-0.049,-0.039,0.029,0.015,-0.044,0.029,-0.044,-0.005,-0.063,-0.098,0.249
1.286,-0.01,-0.039,-0.029,0.024,0.01,-0.034,0.034,-0.039,0.0,-0.059,-0.098,0.259
1.288,0.01,-0.034,-0.044,0.015,0.024,-0.039,0.034,-0.039,0.005,-0.059,-0.098,0.259
1.29,0.015,-0.034,-0.049,0.01,0.029,-0.044,0.034,-0.039,0.005,-0.059,-0.098,0.249
1.292,0.0,-0.034,-0.034,0.02,0.015,-0.034,0.024,-0.039,0.01,-0.068,-0.107,0.254
1.294,0.005,-0.039,-0.044,0.02,0.024,-0.044,0.029,-0.039,0.01,-0.068,-0.102,0.259
1.296,-0.02,-0.039,-0.02,0.029,0.0,-0.029,0.029,-0.039,0.01,-0.059,-0.098,0.278
1.298,-0.034,-0.039,-0.005,0.039,-0.015,-0.024,0.029,-0.039,0.01,-0.059,-0.098,0.293
1.3,-0.034,-0.039,-0.005,0.039,-0.015,-0.024,0.039,-0.039,0.029,-0.059,-0.098,0.303
1.302,-0.02,-0.02,0.0,0.02,-0.01,-0.01,0.039,-0.039,0.029,-0.059,-0.102,0.288
1.304,-0.015,-0.029,-0.015,0.024,0.0,-0.024,0.034,-0.039,0.015,-0.063,-0.102,0.273
1.306,-0.015,-0.034,-0.02,0.024,0.0,-0.029,0.029,-0.039,0.015,-0.068,-0.102,0.259
1.308,-0.015,-0.034,-0.02,0.024,0.0,-0.029,0.02,-0.049,0.01,-0.078,-0.112,0.268
1.31,-0.015,-0.024,-0.01,0.02,-0.005,-0.02,0.024,-0.039,0.029,-0.063,-0.098,0.278
1.312,-0.015,-0.015,0.0,0.015,-0.01,-0.01,0.029,-0.039,0.02,-0.059,-0.083,0.283
1.314,-0.015,-0.015,0.0,0.015,-0.01,-0.01,0.029,-0.039,0.02,-0.059,-0.083,0.293
1.316,-0.01,-0.005,0.005,0.01,-0.01,0.0,0.029,-0.029,0.029,-0.049,-0.088,0.298
1.318,-0.01,-0.01,0.0,0.01,-0.005,-0.005,0.039,-0.029,0.029,-0.049,-0.093,0.303
1.32,-0.02,-0.015,0.005,0.02,-0.015,-0.005,0.029,-0.029,0.029,-0.049,-0.093,0.303
1.322,-0.02,-0.015,0.005,0.02,-0.015,-0.005,0.024,-0.029,0.029,-0.049,-0.093,0.307
1.324,-0.029,-0.02,0.01,0.024,-0.02,-0.005,0.034,-0.039,0.02,-0.049,-0.093,0.298
1.326,-0.02,-0.015,0.005,0.02,-0.015,-0.005,0.029,-0.039,0.024,-0.044,-0.093,0.298
1.328,-0.015,-0.005,0.01,0.01,-0.015,0.0,0.029,-0.044,0.024,-0.044,-0.093,0.293
1.33,-0.015,-0.02,-0.005,0.02,-0.005,-0.015,0.029,-0.049,0.024,-0.054,-0.093,0.288
1.332,-0.005,-0.005,0.0,0.005,-0.005,-0.005,0.029,-0.039,0.034,-0.044,-0.093,0.298
1.334,0.0,0.005,0.005,0.0,-0.005,0.005,0.034,-0.039,0.029,-0.039,-0.083,0.307
1.336,0.015,0.01,-0.005,-0.01,0.01,0.0,0.034,-0.034,0.029,-0.039,-0.083,0.307
1.338,0.02,0.01,-0.01,-0.015,0.015,0.0,0.034,-0.034,0.029,-0.034,-0.083,0.307
1.34,0.005,-0.005,-0.01,0.0,0.005,-0.01,0.034,-0.024,0.034,-0.034,-0.078,0.307
1.342,-0.02,0.005,0.024,0.01,-0.024,0.015,0.034,-0.024,0.034,-0.029,-0.068,0.312
1.344,-0.015,0.0,0.015,0.01,-0.015,0.005,0.034,-0.024,0.034,-0.029,-0.068,0.307
1.346,-0.029,-0.005,0.024,0.02,-0.029,0.01,0.024,-0.029,0.039,-0.029,-0.068,0.303
1.348,-0.034,-0.015,0.02,0.024,-0.029,0.0,0.015,-0.039,0.039,-0.039,-0.073,0.293
1.35,-0.044,-0.015,0.029,0.029,-0.039,0.005,0.024,-0.034,0.049,-0.029,-0.073,0.303
1.352,-0.039,-0.015,0.024,0.029,-0.034,0.005,0.024,-0.034,0.044,-0.029,-0.068,0.307
1.354,-0.029,-0.01,0.02,0.02,-0.024,0.005,0.024,-0.034,0.034,-0.029,-0.068,0.307
1.356,-0.015,0.01,0.024,0.005,-0.02,0.015,0.015,-0.044,0.034,-0.02,-0.059,0.303
1.358,0.0,0.0,0.0,0.0,0.0,0.0,0.01,-0.044,0.034,-0.02,-0.063,0.298
1.36,0.01,0.0,-0.01,-0.005,0.01,-0.005,0.01,-0.044,0.034,-0.02,-0.063,0.298
1.362,0.015,0.0,-0.015,-0.005,0.015,-0.01,0.01,-0.044,0.039,-0.02,-0.059,0.293
1.364,0.005,0.01,0.005,-0.005,0.0,0.005,0.015,-0.044,0.039,-0.02,-0.059,0.298
1.366,-0.015,0.015,0.029,0.0,-0.024,0.02,0.015,-0.039,0.029,-0.015,-0.059,0.298
1.368,0.005,0.015,0.01,-0.01,-0.005,0.01,0.015,-0.034,0.029,-0.015,-0.049,0.298
1.37,-0.015,0.01,0.024,0.005,-0.02,0.015,0.02,-0.029,0.02,-0.02,-0.049,0.303
1.372,-0.01,0.005,0.015,0.005,-0.015,0.01,0.015,-0.039,0.029,-0.02,-0.049,0.298
1.374,-0.005,0.0,0.005,0.005,-0.005,0.0,0.024,-0.039,0.034,-0.01,-0.049,0.317
1.376,-0.01,-0.005,0.005,0.01,-0.01,0.0,0.024,-0.039,0.034,-0.01,-0.049,0.317
1.378,-0.02,-0.01,0.01,0.015,-0.015,0.0,0.02,-0.039,0.034,-0.01,-0.049,0.317
1.38,-0.024,-0.015,0.01,0.02,-0.02,-0.005,0.01,-0.039,0.024,-0.02,-0.049,0.298
1.382,-0.034,-0.02,0.015,0.029,-0.024,-0.005,0.005,-0.039,0.024,-0.024,-0.049,0.293
1.384,-0.044,-0.024,0.02,0.034,-0.034,-0.005,0.005,-0.039,0.029,-0.024,-0.044,0.293
1.386,-0.049,-0.02,0.029,0.034,-0.039,0.005,0.015,-0.039,0.034,-0.024,-0.044,0.288
1.388,-0.034,-0.024,0.01,0.029,-0.024,-0.01,0.01,-0.034,0.034,-0.02,-0.039,0.283
1.39,-0.039,-0.029,0.01,0.034,-0.024,-0.01,0.015,-0.034,0.024,-0.02,-0.049,0.278
1.392,-0.034,-0.024,0.01,0.029,-0.024,-0.01,0.02,-0.029,0.024,-0.015,-0.039,0.278
1.394,-0.015,-0.005,0.01,0.01,-0.015,0.0,0.024,-0.029,0.024,-0.005,-0.034,0.288
1.396,-0.005,-0.005,0.0,0.005,-0.005,-0.005,0.015,-0.029,0.034,-0.015,-0.044,0.278
1.398,-0.02,-0.029,-0.01,0.024,-0.005,-0.02,0.015,-0.034,0.029,-0.02,-0.044,0.278
1.4,-0.02,-0.039,-0.02,0.029,0.0,-0.029,0.015,-0.034,0.02,-0.02,-0.049,0.273
1.402,-0.005,-0.02,-0.015,0.015,0.005,-0.02,0.024,-0.034,0.02,-0.015,-0.049,0.273
1.404,0.005,-0.015,-0.02,0.005,0.01,-0.02,0.024,-0.034,0.034,-0.015,-0.039,0.283
1.406,-0.015,-0.024,-0.01,0.02,-0.005,-0.02,0.02,-0.034,0.024,-0.024,-0.039,0.273
1.408,-0.034,-0.029,0.005,0.034,-0.02,-0.015,0.02,-0.034,0.024,-0.024,-0.039,0.278
1.41,-0.049,-0.029,0.02,0.039,-0.034,-0.005,0.029,-0.029,0.029,-0.024,-0.034,0.293
1.412,-0.044,-0.01,0.034,0.029,-0.039,0.01,0.029,-0.029,0.034,-0.024,-0.034,0.293
1.414,-0.034,-0.005,0.029,0.02,-0.034,0.01,0.029,-0.029,0.034,-0.024,-0.044,0.293
1.416,-0.024,-0.01,0.015,0.02,-0.02,0.0,0.029,-0.039,0.024,-0.024,-0.049,0.293
1.418,-0.015,-0.005,0.01,0.01,-0.015,0.0,0.039,-0.039,0.024,-0.024,-0.049,0.298
1.42,-0.005,-0.01,-0.005,0.01,0.0,-0.01,0.029,-0.034,0.044,-0.01,-0.039,0.298
1.422,0.0,-0.01,-0.01,0.005,0.005,-0.01,0.029,-0.034,0.034,-0.01,-0.039,0.298
1.424,0.005,0.0,-0.005,0.0,0.005,-0.005,0.024,-0.029,0.02,-0.015,-0.049,0.288
1.426,0.02,0.0,-0.02,-0.01,0.02,-0.01,0.024,-0.029,0.02,-0.02,-0.049,0.278
1.428,0.015,-0.01,-0.024,0.0,0.02,-0.02,0.024,-0.039,0.015,-0.024,-0.049,0.273
1.43,0.015,-0.02,-0.034,0.005,0.024,-0.029,0.02,-0.049,0.01,-0.039,-0.054,0.268
1.432,0.015,-0.02,-0.034,0.005,0.024,-0.029,0.02,-0.054,0.0,-0.044,-0.059,0.268
1.434,0.0,-0.024,-0.024,0.015,0.01,-0.024,0.02,-0.044,-0.005,-0.049,-0.059,0.268
1.436,-0.024,-0.034,-0.01,0.029,-0.01,-0.024,0.015,-0.034,0.005,-0.044,-0.059,0.268
1.438,-0.034,-0.044,-0.01,0.039,-0.015,-0.029,0.02,-0.034,0.005,-0.044,-0.059,0.273
1.44,-0.034,-0.054,-0.02,0.044,-0.01,-0.039,0.02,-0.034,0.005,-0.049,-0.059,0.273
1.442,-0.034,-0.063,-0.029,0.049,-0.005,-0.049,0.02,-0.039,0.0,-0.049,-0.068,0.268
1.444,-0.029,-0.044,-0.015,0.039,-0.01,-0.029,0.029,-0.024,0.005,-0.039,-0.063,0.288
1.446,-0.039,-0.029,0.01,0.034,-0.024,-0.01,0.034,-0.02,0.01,-0.034,-0.059,0.298
1.448,-0.034,-0.024,0.01,0.029,-0.024,-0.01,0.034,-0.024,0.015,-0.029,-0.054,0.303
1.45,-0.029,-0.01,0.02,0.02,-0.024,0.005,0.034,-0.02,0.02,-0.024,-0.049,0.312
1.452,-0.039,-0.02,0.02,0.029,-0.029,0.0,0.024,-0.034,0.015,-0.039,-0.059,0.303
1.454,-0.039,-0.024,0.015,0.034,-0.029,-0.005,0.024,-0.034,0.01,-0.044,-0.063,0.298
1.456,-0.034,-0.029,0.005,0.034,-0.02,-0.015,0.024,-0.034,0.005,-0.049,-0.063,0.293
1.458,-0.034,-0.02,0.015,0.029,-0.024,-0.005,0.024,-0.034,0.0,-0.054,-0.063,0.288
1.46,-0.029,-0.029,0.0,0.029,-0.015,-0.015,0.024,-0.034,0.005,-0.044,-0.068,0.293
1.462,-0.029,-0.034,-0.005,0.034,-0.015,-0.02,0.02,-0.044,-0.005,-0.044,-0.068,0.298
1.464,-0.02,-0.034,-0.015,0.029,-0.005,-0.024,0.02,-0.044,-0.005,-0.049,-0.068,0.303
1.466,-0.015,-0.034,-0.02,0.024,0.0,-0.029,0.02,-0.039,-0.005,-0.049,-0.068,0.303
1.468,-0.024,-0.015,0.01,0.02,-0.02,-0.005,0.024,-0.039,-0.005,-0.049,-0.068,0.293
1.47,0.005,-0.005,-0.01,0.0,0.005,-0.01,0.029,-0.029,0.0,-0.039,-0.063,0.293
1.472,0.005,-0.005,-0.01,0.0,0.005,-0.01,0.029,-0.029,0.0,-0.039,-0.063,0.293
1.474,-0.015,-0.029,-0.015,0.024,0.0,-0.024,0.02,-0.044,-0.015,-0.054,-0.073,0.283
1.476,-0.039,-0.063,-0.024,0.054,-0.01,-0.044,0.005,-0.034,-0.015,-0.068,-0.073,0.273
1.478,-0.029,-0.049,-0.02,0.039,-0.005,-0.034,0.02,-0.034,0.0,-0.059,-0.073,0.283
1.48,-0.029,-0.024,0.005,0.029,-0.02,-0.01,0.029,-0.024,0.01,-0.049,-0.068,0.298
1.482,-0.049,-0.034,0.015,0.044,-0.034,-0.01,0.029,-0.034,0.0,-0.059,-0.068,0.298
1.484,-0.093,-0.068,0.024,0.083,-0.059,-0.024,0.02,-0.034,-0.005,-0.054,-0.078,0.293
1.486,-0.059,-0.039,0.02,0.049,-0.039,-0.01,0.029,-0.039,-0.01,-0.059,-0.078,0.303
1.488,-0.044,-0.029,0.015,0.039,-0.029,-0.01,0.039,-0.029,0.0,-0.059,-0.068,0.303
1.49,-0.039,-0.029,0.01,0.034,-0.024,-0.01,0.039,-0.029,0.0,-0.059,-0.068,0.303
1.492,-0.034,-0.029,0.005,0.034,-0.02,-0.015,0.039,-0.029,0.0,-0.059,-0.068,0.303
1.494,-0.029,-0.029,0.0,0.029,-0.015,-0.015,0.039,-0.029,0.0,-0.059,-0.068,0.303
1.496,-0.02,-0.029,-0.01,0.024,-0.005,-0.02,0.034,-0.039,-0.01,-0.059,-0.068,0.312
1.498,-0.02,-0.029,-0.01,0.024,-0.005,-0.02,0.029,-0.039,-0.01,-0.059,-0.068,0.312
1.5,-0.02,-0.029,-0.01,0.024,-0.005,-0.02,0.024,-0.039,-0.01,-0.059,-0.068,0.312
1.502,-0.02,-0.029,-0.01,0.024,-0.005,-0.02,0.02,-0.039,-0.01,-0.059,-0.068,0.312
1.504,-0.029,-0.029,0.0,0.029,-0.015,-0.015,0.029,-0.039,-0.02,-0.068,-0.078,0.317
1.506,-0.029,-0.029,0.0,0.029,-0.015,-0.015,0.029,-0.039,-0.02,-0.068,-0.078,0.322
1.508,-0.029,-0.029,0.0,0.029,-0.015,-0.015,0.029,-0.039,-0.02,-0.068,-0.078,0.327
1.51,-0.029,-0.029,0.0,0.029,-0.015,-0.015,0.029,-0.039,-0.02,-0.068,-0.078,0.332
1.512,-0.024,-0.02,0.005,0.024,-0.015,-0.01,0.029,-0.039,-0.01,-0.068,-0.078,0.346
1.514,-0.02,-0.02,0.0,0.02,-0.01,-0.01,0.029,-0.039,-0.01,-0.068,-0.078,0.351
1.516,-0.015,-0.02,-0.005,0.02,-0.005,-0.015,0.029,-0.039,-0.01,-0.068,-0.078,0.356
1.518,-0.01,-0.02,-0.01,0.015,0.0,-0.015,0.029,-0.039,-0.01,-0.068,-0.078,0.361
1.52,0.0,-0.01,-0.01,0.005,0.005,-0.01,0.039,-0.034,-0.01,-0.059,-0.068,0.371
1.522,0.0,-0.01,-0.01,0.005,0.005,-0.01,0.039,-0.029,-0.01,-0.059,-0.068,0.371
1.524,0.0,-0.01,-0.01,0.005,0.005,-0.01,0.039,-0.024,-0.01,-0.059,-0.068,0.371
1.526,0.0,-0.01,-0.01,0.005,0.005,-0.01,0.039,-0.02,-0.01,-0.059,-0.068,0.371
1.528,-0.015,-0.02,-0.005,0.02,-0.005,-0.015,0.034,-0.024,-0.015,-0.063,-0.083,0.356
1.53,-0.02,-0.029,-0.01,0.024,-0.005,-0.02,0.029,-0.029,-0.02,-0.068,-0.088,0.351
1.532,-0.024,-0.039,-0.015,0.034,-0.005,-0.029,0.024,-0.034,-0.024,-0.073,-0.093,0.346
1.534,-0.029,-0.049,-0.02,0.039,-0.005,-0.034,0.02,-0.039,-0.029,-0.078,-0.098,0.342
1.536,-0.02,-0.044,-0.024,0.034,0.0,-0.034,0.029,-0.029,-0.024,-0.073,-0.093,0.356
1.538,-0.02,-0.039,-0.02,0.029,0.0,-0.029,0.029,-0.029,-0.02,-0.068,-0.088,0.361
1.54,-0.02,-0.034,-0.015,0.029,-0.005,-0.024,0.029,-0.029,-0.015,-0.063,-0.083,0.366
1.542,-0.02,-0.029,-0.01,0.024,-0.005,-0.02,0.029,-0.029,-0.01,-0.059,-0.078,0.371
1.544,-0.024,-0.029,-0.005,0.029,-0.01,-0.02,0.039,-0.029,-0.01,-0.059,-0.078,0.371
1.546,-0.029,-0.029,0.0,0.029,-0.015,-0.015,0.039,-0.029,-0.01,-0.059,-0.078,0.371
1.548,-0.034,-0.029,0.005,0.034,-0.02,-0.015,0.039,-0.029,-0.01,-0.059,-0.078,0.371
1.55,-0.039,-0.029,0.01,0.034,-0.024,-0.01,0.039,-0.029,-0.01,-0.059,-0.078,0.371
1.552,-0.034,-0.034,0.0,0.034,-0.02,-0.02,0.034,-0.034,-0.02,-0.063,-0.088,0.356
1.554,-0.029,-0.039,-0.01,0.034,-0.01,-0.024,0.029,-0.039,-0.02,-0.068,-0.088,0.351
1.556,-0.024,-0.044,-0.02,0.034,-0.005,-0.034,0.024,-0.044,-0.02,-0.073,-0.088,0.346
1.558,-0.02,-0.049,-0.029,0.034,0.005,-0.039,0.02,-0.049,-0.02,-0.078,-0.088,0.342
1.56,-0.034,-0.044,-0.01,0.039,-0.015,-0.029,0.024,-0.044,-0.01,-0.068,-0.078,0.351
1.562,-0.039,-0.039,0.0,0.039,-0.02,-0.02,0.029,-0.039,-0.01,-0.068,-0.078,0.351
1.564,-0.044,-0.034,0.01,0.039,-0.029,-0.015,0.034,-0.034,-0.01,-0.068,-0.078,0.351
1.566,-0.049,-0.029,0.02,0.039,-0.034,-0.005,0.039,-0.029,-0.01,-0.068,-0.078,0.351
1.568,-0.044,-0.039,0.005,0.044,-0.024,-0.02,0.034,-0.039,-0.02,-0.078,-0.083,0.342
1.57,-0.039,-0.039,0.0,0.039,-0.02,-0.02,0.029,-0.039,-0.02,-0.078,-0.088,0.332
1.572,-0.034,-0.039,-0.005,0.039,-0.015,-0.024,0.024,-0.039,-0.02,-0.078,-0.093,0.322
1.574,-0.029,-0.039,-0.01,0.034,-0.01,-0.024,0.02,-0.039,-0.02,-0.078,-0.098,0.312
1.576,-0.02,-0.034,-0.015,0.029,-0.005,-0.024,0.024,-0.034,-0.015,-0.073,-0.083,0.317
1.578,-0.02,-0.029,-0.01,0.024,-0.005,-0.02,0.029,-0.029,-0.01,-0.068,-0.078,0.322
1.58,-0.02,-0.024,-0.005,0.024,-0.01,-0.015,0.034,-0.024,-0.005,-0.063,-0.073,0.327
1.582,-0.02,-0.02,0.0,0.02,-0.01,-0.01,0.039,-0.02,0.0,-0.059,-0.068,0.332
1.584,-0.02,-0.024,-0.005,0.024,-0.01,-0.015,0.029,-0.024,-0.005,-0.073,-0.083,0.322
1.586,-0.02,-0.029,-0.01,0.024,-0.005,-0.02,0.029,-0.029,-0.01,-0.078,-0.088,0.312
1.588,-0.02,-0.034,-0.015,0.029,-0.005,-0.024,0.029,-0.034,-0.015,-0.083,-0.093,0.303
1.59,-0.02,-0.039,-0.02,0.029,0.0,-0.029,0.029,-0.039,-0.02,-0.088,-0.098,0.293
1.592,-0.02,-0.034,-0.015,0.029,-0.005,-0.024,0.029,-0.029,-0.01,-0.083,-0.088,0.298
1.594,-0.02,-0.029,-0.01,0.024,-0.005,-0.02,0.029,-0.029,-0.01,-0.078,-0.088,0.303
1.596,-0.02,-0.024,-0.005,0.024,-0.01,-0.015,0.029,-0.029,-0.01,-0.073,-0.088,0.307
1.598,-0.02,-0.02,0.0,0.02,-0.01,-0.01,0.029,-0.029,-0.01,-0.068,-0.088,0.312
1.6,-0.034,-0.034,0.0,0.034,-0.02,-0.02,0.029,-0.039,-0.02,-0.078,-0.078,0.303
1.602,-0.039,-0.039,0.0,0.039,-0.02,-0.02,0.029,-0.039,-0.02,-0.078,-0.078,0.303
1.604,-0.044,-0.044,0.0,0.044,-0.024,-0.024,0.029,-0.039,-0.02,-0.078,-0.078,0.303
1.606,-0.049,-0.049,0.0,0.049,-0.024,-0.024,0.029,-0.039,-0.02,-0.078,-0.078,0.303
1.608,-0.044,-0.044,0.0,0.044,-0.024,-0.024,0.029,-0.029,-0.01,-0.068,-0.078,0.312
1.61,-0.039,-0.039,0.0,0.039,-0.02,-0.02,0.029,-0.029,-0.01,-0.068,-0.078,0.312
1.612,-0.034,-0.034,0.0,0.034,-0.02,-0.02,0.029,-0.029,-0.01,-0.068,-0.078,0.312
1.614,-0.029,-0.029,0.0,0.029,-0.015,-0.015,0.029,-0.029,-0.01,-0.068,-0.078,0.312
1.616,-0.02,-0.034,-0.015,0.029,-0.005,-0.024,0.02,-0.039,-0.015,-0.073,-0.083,0.307
1.618,-0.02,-0.039,-0.02,0.029,0.0,-0.029,0.02,-0.039,-0.02,-0.078,-0.088,0.303
1.62,-0.02,-0.044,-0.024,0.034,0.0,-0.034,0.02,-0.039,-0.024,-0.083,-0.093,0.298
1.622,-0.02,-0.049,-0.029,0.034,0.005,-0.039,0.02,-0.039,-0.029,-0.088,-0.098,0.293
1.624,-0.015,-0.039,-0.024,0.029,0.005,-0.034,0.029,-0.029,-0.024,-0.083,-0.093,0.293
1.626,-0.01,-0.029,-0.02,0.02,0.005,-0.024,0.029,-0.029,-0.02,-0.078,-0.088,0.293
1.628,-0.005,-0.02,-0.015,0.015,0.005,-0.02,0.029,-0.029,-0.015,-0.073,-0.083,0.293
1.63,0.0,-0.01,-0.01,0.005,0.005,-0.01,0.029,-0.029,-0.01,-0.068,-0.078,0.293
1.632,-0.005,-0.015,-0.01,0.01,0.0,-0.015,0.029,-0.029,-0.02,-0.078,-0.088,0.283
1.634,-0.01,-0.02,-0.01,0.015,0.0,-0.015,0.029,-0.029,-0.02,-0.078,-0.088,0.283
1.636,-0.015,-0.024,-0.01,0.02,-0.005,-0.02,0.029,-0.029,-0.02,-0.078,-0.088,0.283
1.638,-0.02,-0.029,-0.01,0.024,-0.005,-0.02,0.029,-0.029,-0.02,-0.078,-0.088,0.283
1.64,-0.02,-0.02,0.0,0.02,-0.01,-0.01,0.029,-0.02,-0.02,-0.078,-0.078,0.283
1.642,-0.02,-0.02,0.0,0.02,-0.01,-0.01,0.029,-0.02,-0.02,-0.078,-0.078,0.283
1.644,-0.02,-0.02,0.0,0.02,-0.01,-0.01,0.029,-0.02,-0.02,-0.078,-0.078,0.283
1.646,-0.02,-0.02,0.0,0.02,-0.01,-0.01,0.029,-0.02,-0.02,-0.078,-0.078,0.283
1.648,-0.034,-0.029,0.005,0.034,-0.02,-0.015,0.039,-0.02,-0.01,-0.068,-0.088,0.268
1.65,-0.039,-0.029,0.01,0.034,-0.024,-0.01,0.039,-0.02,-0.01,-0.068,-0.088,0.264
1.652,-0.044,-0.029,0.015,0.039,-0.029,-0.01,0.039,-0.02,-0.01,-0.068,-0.088,0.259
1.654,-0.049,-0.029,0.02,0.039,-0.034,-0.005,0.039,-0.02,-0.01,-0.068,-0.088,0.254
1.656,-0.034,-0.029,0.005,0.034,-0.02,-0.015,0.029,-0.024,-0.015,-0.073,-0.098,0.244
1.658,-0.029,-0.029,0.0,0.029,-0.015,-0.015,0.029,-0.029,-0.02,-0.078,-0.098,0.234
1.66,-0.024,-0.029,-0.005,0.029,-0.01,-0.02,0.029,-0.034,-0.024,-0.083,-0.098,0.224
1.662,-0.02,-0.029,-0.01,0.024,-0.005,-0.02,0.029,-0.039,-0.029,-0.088,-0.098,0.215
1.664,-0.029,-0.02,0.01,0.024,-0.02,-0.005,0.039,-0.029,-0.024,-0.078,-0.088,0.205
1.666,-0.029,-0.02,0.01,0.024,-0.02,-0.005,0.039,-0.029,-0.02,-0.078,-0.088,0.205
1.668,-0.029,-0.02,0.01,0.024,-0.02,-0.005,0.039,-0.029,-0.015,-0.078,-0.088,0.205
1.67,-0.029,-0.02,0.01,0.024,-0.02,-0.005,0.039,-0.029,-0.01,-0.078,-0.088,0.205
1.672,-0.02,-0.02,0.0,0.02,-0.01,-0.01,0.039,-0.029,-0.01,-0.078,-0.098,0.205
1.674,-0.02,-0.02,0.0,0.02,-0.01,-0.01,0.039,-0.029,-0.01,-0.078,-0.098,0.205
1.676,-0.02,-0.02,0.0,0.02,-0.01,-0.01,0.039,-0.029,-0.01,-0.078,-0.098,0.205
1.678,-0.02,-0.02,0.0,0.02,-0.01,-0.01,0.039,-0.029,-0.01,-0.078,-0.098,0.205
1.68,-0.029,-0.024,0.005,0.029,-0.02,-0.01,0.029,-0.039,-0.02,-0.078,-0.088,0.205
1.682,-0.029,-0.029,0.0,0.029,-0.015,-0.015,0.029,-0.039,-0.02,-0.078,-0.088,0.205
1.684,-0.029,-0.034,-0.005,0.034,-0.015,-0.02,0.029,-0.039,-0.02,-0.078,-0.088,0.205
1.686,-0.029,-0.039,-0.01,0.034,-0.01,-0.024,0.029,-0.039,-0.02,-0.078,-0.088,0.205
1.688,-0.029,-0.034,-0.005,0.034,-0.015,-0.02,0.039,-0.034,-0.01,-0.068,-0.078,0.22
1.69,-0.029,-0.029,0.0,0.029,-0.015,-0.015,0.039,-0.029,-0.01,-0.068,-0.078,0.224
1.692,-0.029,-0.024,0.005,0.029,-0.02,-0.01,0.039,-0.024,-0.01,-0.068,-0.078,0.229
1.694,-0.029,-0.02,0.01,0.024,-0.02,-0.005,0.039,-0.02,-0.01,-0.068,-0.078,0.234
1.696,-0.02,-0.024,-0.005,0.024,-0.01,-0.015,0.029,-0.024,-0.015,-0.078,-0.083,0.234
1.698,-0.02,-0.029,-0.01,0.024,-0.005,-0.02,0.029,-0.029,-0.02,-0.078,-0.088,0.234
1.7,-0.02,-0.034,-0.015,0.029,-0.005,-0.024,0.029,-0.034,-0.024,-0.078,-0.093,0.234
1.702,-0.02,-0.039,-0.02,0.029,0.0,-0.029,0.029,-0.039,-0.029,-0.078,-0.098,0.234
1.704,-0.02,-0.034,-0.015,0.029,-0.005,-0.024,0.029,-0.034,-0.02,-0.068,-0.093,0.244
1.706,-0.02,-0.029,-0.01,0.024,-0.005,-0.02,0.029,-0.029,-0.02,-0.068,-0.088,0.244
1.708,-0.02,-0.024,-0.005,0.024,-0.01,-0.015,0.029,-0.024,-0.02,-0.068,-0.083,0.244
1.71,-0.02,-0.02,0.0,0.02,-0.01,-0.01,0.029,-0.02,-0.02,-0.068,-0.078,0.244
1.712,-0.02,-0.02,0.0,0.02,-0.01,-0.01,0.039,-0.02,-0.01,-0.068,-0.088,0.239
1.714,-0.02,-0.02,0.0,0.02,-0.01,-0.01,0.039,-0.02,-0.01,-0.068,-0.088,0.234
1.716,-0.02,-0.02,0.0,0.02,-0.01,-0.01,0.039,-0.02,-0.01,-0.068,-0.088,0.229
1.718,-0.02,-0.02,0.0,0.02,-0.01,-0.01,0.039,-0.02,-0.01,-0.068,-0.088,0.224
1.72,-0.02,-0.029,-0.01,0.024,-0.005,-0.02,0.029,-0.029,-0.02,-0.078,-0.088,0.22
1.722,-0.02,-0.029,-0.01,0.024,-0.005,-0.02,0.029,-0.029,-0.02,-0.078,-0.088,0.215
1.724,-0.02,-0.029,-0.01,0.024,-0.005,-0.02,0.029,-0.029,-0.02,-0.078,-0.088,0.21
1.726,-0.02,-0.029,-0.01,0.024,-0.005,-0.02,0.029,-0.029,-0.02,-0.078,-0.088,0.205
1.728,-0.029,-0.02,0.01,0.024,-0.02,-0.005,0.029,-0.02,-0.01,-0.068,-0.088,0.21
1.73,-0.029,-0.02,0.01,0.024,-0.02,-0.005,0.029,-0.02,-0.01,-0.068,-0.088,0.215
1.732,-0.029,-0.02,0.01,0.024,-0.02,-0.005,0.029,-0.02,-0.01,-0.068,-0.088,0.22
1.734,-0.029,-0.02,0.01,0.024,-0.02,-0.005,0.029,-0.02,-0.01,-0.068,-0.088,0.224
1.736,-0.029,-0.01,0.02,0.02,-0.024,0.005,0.039,-0.02,-0.01,-0.068,-0.088,0.229
1.738,-0.029,-0.01,0.02,0.02,-0.024,0.005,0.039,-0.02,-0.01,-0.068,-0.088,0.234
1.74,-0.029,-0.01,0.02,0.02,-0.024,0.005,0.039,-0.02,-0.01,-0.068,-0.088,0.239
1.742,-0.029,-0.01,0.02,0.02,-0.024,0.005,0.039,-0.02,-0.01,-0.068,-0.088,0.244
1.744,-0.029,-0.02,0.01,0.024,-0.02,-0.005,0.034,-0.024,-0.02,-0.078,-0.088,0.239
1.746,-0.029,-0.029,0.0,0.029,-0.015,-0.015,0.029,-0.029,-0.02,-0.078,-0.088,0.234
1.748,-0.029,-0.039,-0.01,0.034,-0.01,-0.024,0.024,-0.034,-0.02,-0.078,-0.088,0.229
1.75,-0.029,-0.049,-0.02,0.039,-0.005,-0.034,0.02,-0.039,-0.02,-0.078,-0.088,0.224
1.752,-0.015,-0.049,-0.034,0.034,0.01,-0.044,0.034,-0.024,-0.02,-0.088,-0.107,0.229
1.754,0.0,-0.039,-0.039,0.02,0.02,-0.039,0.034,-0.024,-0.02,-0.083,-0.107,0.234
1.756,0.0,-0.02,-0.02,0.01,0.01,-0.02,0.034,-0.024,-0.02,-0.083,-0.107,0.239
1.758,-0.005,-0.01,-0.005,0.01,0.0,-0.01,0.034,-0.024,-0.02,-0.083,-0.107,0.244
1.76,0.005,-0.01,-0.015,0.005,0.01,-0.015,0.034,-0.024,-0.02,-0.073,-0.098,0.244
1.762,0.005,-0.015,-0.02,0.005,0.01,-0.02,0.034,-0.024,-0.02,-0.073,-0.098,0.244
1.764,-0.005,-0.02,-0.015,0.015,0.005,-0.02,0.024,-0.029,-0.02,-0.078,-0.098,0.244
1.766,-0.005,-0.024,-0.02,0.015,0.005,-0.024,0.024,-0.029,-0.02,-0.078,-0.098,0.234
1.768,0.0,-0.029,-0.029,0.015,0.015,-0.029,0.034,-0.024,-0.01,-0.083,-0.088,0.244
1.77,0.0,-0.015,-0.015,0.01,0.005,-0.015,0.034,-0.024,-0.01,-0.083,-0.088,0.249
1.772,0.01,-0.005,-0.015,0.0,0.01,-0.01,0.044,-0.024,-0.01,-0.078,-0.093,0.249
1.774,0.01,0.0,-0.01,-0.005,0.01,-0.005,0.044,-0.024,-0.01,-0.078,-0.093,0.244
1.776,0.005,-0.005,-0.01,0.0,0.005,-0.01,0.044,-0.029,-0.02,-0.088,-0.102,0.234
1.778,0.02,0.0,-0.02,-0.01,0.02,-0.01,0.049,-0.02,-0.015,-0.073,-0.098,0.239
1.78,0.0,-0.005,-0.005,0.005,0.0,-0.005,0.049,-0.02,-0.015,-0.073,-0.098,0.254
1.782,-0.029,-0.029,0.0,0.029,-0.015,-0.015,0.049,-0.024,-0.015,-0.083,-0.098,0.239
1.784,-0.044,-0.024,0.02,0.034,-0.034,-0.005,0.063,-0.024,-0.01,-0.073,-0.088,0.229
1.786,-0.044,-0.01,0.034,0.029,-0.039,0.01,0.063,-0.01,0.0,-0.059,-0.083,0.234
1.788,-0.01,0.01,0.02,0.0,-0.015,0.015,0.063,-0.01,0.01,-0.054,-0.078,0.234
1.79,0.01,0.039,0.029,-0.024,-0.01,0.034,0.068,-0.01,0.024,-0.049,-0.078,0.234
1.792,0.015,0.039,0.024,-0.024,-0.005,0.029,0.063,-0.005,0.02,-0.054,-0.083,0.234
1.794,0.02,0.044,0.024,-0.029,-0.005,0.034,0.063,-0.005,0.02,-0.054,-0.083,0.234
1.796,0.02,0.044,0.024,-0.029,-0.005,0.034,0.063,-0.005,0.02,-0.054,-0.078,0.234
1.798,0.024,0.059,0.034,-0.039,-0.005,0.044,0.073,0.005,0.029,-0.044,-0.073,0.249
1.8,0.0,0.054,0.054,-0.024,-0.029,0.054,0.078,0.01,0.054,-0.039,-0.059,0.249
1.802,-0.02,0.049,0.068,-0.015,-0.044,0.059,0.078,0.02,0.054,-0.034,-0.059,0.249
1.804,-0.005,0.044,0.049,-0.02,-0.029,0.044,0.093,0.024,0.059,-0.034,-0.059,0.249
1.806,0.024,0.063,0.039,-0.044,-0.01,0.049,0.093,0.024,0.063,-0.029,-0.054,0.254
1.808,0.01,0.054,0.044,-0.029,-0.02,0.049,0.088,0.029,0.063,-0.02,-0.054,0.244
1.81,0.0,0.049,0.049,-0.024,-0.024,0.049,0.083,0.034,0.063,-0.02,-0.054,0.244
1.812,-0.01,0.039,0.049,-0.015,-0.029,0.044,0.078,0.034,0.063,-0.015,-0.054,0.244
1.814,-0.015,0.024,0.039,-0.005,-0.029,0.029,0.068,0.034,0.063,-0.015,-0.054,0.239
1.816,-0.024,0.015,0.039,0.005,-0.034,0.024,0.044,0.034,0.063,-0.015,-0.059,0.229
1.818,-0.005,0.024,0.029,-0.01,-0.02,0.024,0.039,0.029,0.063,-0.02,-0.059,0.234
1.82,-0.005,0.024,0.029,-0.01,-0.02,0.024,0.02,0.005,0.049,-0.029,-0.063,0.234
1.822,-0.005,0.015,0.02,-0.005,-0.015,0.015,-0.01,-0.039,0.01,-0.063,-0.068,0.229
1.824,-0.024,0.015,0.039,0.005,-0.034,0.024,-0.02,-0.044,0.005,-0.063,-0.063,0.21
1.826,-0.024,0.015,0.039,0.005,-0.034,0.024,-0.015,-0.044,0.005,-0.059,-0.063,0.21
1.828,-0.02,0.0,0.02,0.01,-0.02,0.01,-0.01,-0.039,0.005,-0.049,-0.063,0.21
1.83,-0.005,0.005,0.01,0.0,-0.01,0.005,-0.005,-0.039,0.005,-0.044,-0.063,0.21
1.832,0.0,-0.015,-0.015,0.01,0.005,-0.015,-0.01,-0.049,-0.005,-0.063,-0.068,0.195
1.834,-0.005,-0.029,-0.024,0.02,0.01,-0.029,-0.015,-0.054,-0.01,-0.068,-0.073,0.195
1.836,0.0,-0.034,-0.034,0.02,0.015,-0.034,-0.02,-0.054,-0.015,-0.073,-0.078,0.2
1.838,0.02,-0.039,-0.059,0.01,0.039,-0.049,-0.02,-0.049,-0.01,-0.068,-0.068,0.2
1.84,0.034,-0.02,-0.054,-0.005,0.044,-0.039,0.0,-0.02,0.01,-0.054,-0.049,0.215
1.842,0.039,-0.01,-0.049,-0.015,0.044,-0.029,0.015,-0.015,0.02,-0.044,-0.044,0.224
1.844,0.044,-0.01,-0.054,-0.015,0.049,-0.034,0.024,-0.01,0.024,-0.034,-0.039,0.234
1.846,0.044,-0.005,-0.049,-0.02,0.044,-0.029,0.034,-0.005,0.029,-0.024,-0.034,0.244
1.848,0.034,-0.024,-0.059,-0.005,0.044,-0.044,0.015,-0.029,0.015,-0.044,-0.044,0.239
1.85,0.024,-0.024,-0.049,0.0,0.034,-0.039,0.0,-0.044,0.0,-0.049,-0.054,0.229
1.852,0.054,-0.01,-0.063,-0.02,0.059,-0.039,-0.005,-0.049,-0.01,-0.054,-0.059,0.224
1.854,0.078,0.01,-0.068,-0.044,0.073,-0.029,0.0,-0.049,-0.015,-0.059,-0.054,0.22
1.856,0.049,-0.01,-0.059,-0.02,0.054,-0.034,0.005,-0.044,-0.005,-0.059,-0.063,0.224
1.858,0.029,-0.015,-0.044,-0.005,0.034,-0.029,0.024,-0.039,-0.005,-0.059,-0.073,0.229
1.86,0.024,-0.02,-0.044,0.0,0.034,-0.034,0.029,-0.024,-0.005,-0.059,-0.063,0.234
1.862,0.02,-0.02,-0.039,0.0,0.029,-0.029,0.034,-0.02,0.0,-0.059,-0.063,0.239
1.864,0.015,-0.02,-0.034,0.005,0.024,-0.029,0.024,-0.034,-0.01,-0.063,-0.068,0.229
1.866,0.01,-0.034,-0.044,0.015,0.024,-0.039,0.034,-0.029,-0.01,-0.063,-0.068,0.22
1.868,0.005,-0.024,-0.029,0.01,0.015,-0.029,0.039,-0.029,-0.005,-0.063,-0.073,0.22
1.87,0.0,-0.024,-0.024,0.015,0.01,-0.024,0.044,-0.034,-0.005,-0.063,-0.078,0.21
1.872,-0.005,-0.02,-0.015,0.015,0.005,-0.02,0.054,-0.024,-0.005,-0.073,-0.083,0.195
1.874,0.0,-0.015,-0.015,0.01,0.005,-0.015,0.049,-0.024,-0.01,-0.078,-0.088,0.185
1.876,-0.01,-0.024,-0.015,0.02,0.0,-0.02,0.039,-0.034,-0.02,-0.088,-0.098,0.161
1.878,-0.024,-0.044,-0.02,0.034,-0.005,-0.034,0.024,-0.039,-0.029,-0.102,-0.107,0.146
1.88,-0.024,-0.054,-0.029,0.039,0.0,-0.044,0.044,-0.029,-0.02,-0.102,-0.102,0.142
1.882,-0.015,-0.039,-0.024,0.029,0.005,-0.034,0.049,-0.02,-0.02,-0.102,-0.102,0.137
1.884,-0.024,-0.039,-0.015,0.034,-0.005,-0.029,0.054,-0.02,-0.02,-0.102,-0.107,0.132
1.886,-0.039,-0.049,-0.01,0.044,-0.015,-0.029,0.059,-0.024,-0.029,-0.102,-0.107,0.127
1.888,-0.034,-0.059,-0.024,0.049,-0.005,-0.044,0.054,-0.029,-0.039,-0.112,-0.112,0.127
1.89,-0.029,-0.054,-0.024,0.044,-0.005,-0.039,0.054,-0.039,-0.039,-0.112,-0.112,0.122
1.892,-0.024,-0.054,-0.029,0.039,0.0,-0.044,0.054,-0.044,-0.039,-0.112,-0.117,0.117
1.894,-0.02,-0.054,-0.034,0.039,0.005,-0.044,0.054,-0.054,-0.039,-0.112,-0.117,0.112
1.896,0.0,-0.049,-0.049,0.024,0.024,-0.049,0.034,-0.054,-0.039,-0.107,-0.127,0.102
1.898,0.005,-0.049,-0.054,0.024,0.029,-0.054,0.044,-0.044,-0.034,-0.107,-0.127,0.098
1.9,0.01,-0.049,-0.059,0.02,0.034,-0.054,0.044,-0.044,-0.034,-0.107,-0.127,0.098
1.902,0.0,-0.049,-0.049,0.024,0.024,-0.049,0.044,-0.044,-0.034,-0.112,-0.127,0.093
1.904,-0.02,-0.049,-0.029,0.034,0.005,-0.039,0.049,-0.034,-0.024,-0.107,-0.112,0.102
1.906,-0.024,-0.034,-0.01,0.029,-0.01,-0.024,0.059,-0.034,-0.024,-0.098,-0.112,0.112
1.908,-0.034,-0.034,0.0,0.034,-0.02,-0.02,0.063,-0.039,-0.024,-0.093,-0.112,0.117
1.91,-0.044,-0.039,0.005,0.044,-0.024,-0.02,0.068,-0.039,-0.024,-0.088,-0.112,0.127
1.912,-0.024,-0.044,-0.02,0.034,-0.005,-0.034,0.068,-0.034,-0.024,-0.098,-0.102,0.132
1.914,-0.049,-0.049,0.0,0.049,-0.024,-0.024,0.068,-0.024,-0.02,-0.088,-0.098,0.142
1.916,-0.073,-0.059,0.015,0.068,-0.044,-0.024,0.068,-0.039,-0.02,-0.088,-0.098,0.146
1.918,-0.063,-0.063,0.0,0.063,-0.034,-0.034,0.078,-0.029,-0.02,-0.088,-0.093,0.151
1.92,-0.044,-0.034,0.01,0.039,-0.029,-0.015,0.083,-0.01,-0.005,-0.073,-0.093,0.142
1.922,-0.044,-0.054,-0.01,0.049,-0.02,-0.034,0.078,-0.015,-0.005,-0.068,-0.102,0.127
1.924,-0.063,-0.063,0.0,0.063,-0.034,-0.034,0.073,-0.01,0.005,-0.073,-0.117,0.112
1.926,-0.073,-0.044,0.029,0.059,-0.054,-0.01,0.088,0.005,0.024,-0.059,-0.132,0.083
1.928,-0.073,-0.044,0.029,0.059,-0.054,-0.01,0.102,0.029,0.044,-0.059,-0.161,0.054
1.93,-0.063,-0.034,0.029,0.049,-0.049,-0.005,0.102,0.029,0.054,-0.063,-0.185,0.034
1.932,-0.054,-0.01,0.044,0.034,-0.049,0.015,0.093,0.015,0.073,-0.039,-0.176,0.024
1.934,-0.034,0.02,0.054,0.01,-0.044,0.034,0.088,0.015,0.117,0.024,-0.127,0.049
1.936,-0.029,0.049,0.078,-0.01,-0.054,0.063,0.088,0.049,0.2,0.161,-0.029,0.127
1.938,-0.015,0.102,0.117,-0.044,-0.068,0.107,0.093,0.073,0.293,0.307,0.093,0.21
1.94,0.015,0.161,0.146,-0.088,-0.068,0.151,0.073,0.073,0.303,0.415,0.234,0.312
1.942,0.068,0.19,0.122,-0.127,-0.029,0.156,0.024,0.015,0.21,0.468,0.386,0.415
1.944,0.142,0.215,0.073,-0.176,0.034,0.142,-0.024,-0.073,0.049,0.508,0.566,0.576
1.946,0.195,0.268,0.073,-0.229,0.059,0.171,-0.093,-0.151,-0.083,0.586,0.815,0.781
1.948,0.22,0.303,0.083,-0.259,0.068,0.19,-0.181,-0.259,-0.22,0.673,1.074,1.0
1.95,0.239,0.327,0.088,-0.283,0.073,0.205,-0.268,-0.395,-0.376,0.737,1.332,1.215
1.952,0.273,0.337,0.063,-0.303,0.102,0.2,-0.366,-0.532,-0.547,0.786,1.547,1.401
1.954,0.307,0.332,0.024,-0.317,0.142,0.176,-0.449,-0.639,-0.703,0.786,1.718,1.566
1.956,0.332,0.307,-0.024,-0.317,0.176,0.142,-0.522,-0.727,-0.83,0.747,1.83,1.688
1.958,0.337,0.229,-0.107,-0.283,0.22,0.059,-0.586,-0.791,-0.952,0.649,1.84,1.732
1.96,0.356,0.151,-0.205,-0.254,0.278,-0.029,-0.6,-0.8,-1.03,0.473,1.698,1.654
1.962,0.376,0.063,-0.312,-0.22,0.342,-0.127,-0.561,-0.761,-1.088,0.19,1.425,1.469
1.964,0.322,-0.034,-0.356,-0.142,0.337,-0.195,-0.503,-0.732,-1.142,-0.137,1.064,1.23
1.966,0.244,-0.185,-0.429,-0.029,0.337,-0.307,-0.459,-0.698,-1.171,-0.439,0.673,0.947
1.968,0.19,-0.332,-0.522,0.073,0.356,-0.429,-0.415,-0.634,-1.152,-0.698,0.288,0.688
1.97,0.195,-0.376,-0.571,0.093,0.381,-0.473,-0.312,-0.508,-1.064,-0.874,-0.034,0.493
1.972,0.22,-0.395,-0.615,0.088,0.415,-0.508,-0.185,-0.376,-0.961,-0.947,-0.249,0.356
1.974,0.166,-0.483,-0.649,0.161,0.405,-0.566,-0.112,-0.288,-0.878,-0.937,-0.381,0.224
1.976,0.083,-0.522,-0.605,0.22,0.342,-0.566,-0.059,-0.229,-0.795,-0.869,-0.434,0.132
1.978,0.039,-0.464,-0.503,0.215,0.268,-0.483,0.005,-0.156,-0.688,-0.766,-0.415,0.098
1.98,0.059,-0.381,-0.439,0.161,0.249,-0.41,0.039,-0.093,-0.586,-0.673,-0.395,0.083
1.982,0.098,-0.312,-0.41,0.107,0.254,-0.361,0.049,-0.068,-0.508,-0.6,-0.381,0.054
1.984,0.083,-0.268,-0.351,0.093,0.215,-0.312,0.024,-0.063,-0.434,-0.537,-0.356,0.054
1.986,0.029,-0.22,-0.249,0.098,0.137,-0.234,0.024,-0.063,-0.366,-0.473,-0.317,0.063
1.988,0.02,-0.176,-0.195,0.078,0.107,-0.185,0.044,-0.029,-0.303,-0.41,-0.273,0.078
1.99,0.024,-0.156,-0.181,0.068,0.102,-0.171,0.068,0.005,-0.244,-0.356,-0.249,0.102
1.992,0.01,-0.151,-0.161,0.073,0.083,-0.156,0.063,0.029,-0.19,-0.312,-0.234,0.107
1.994,0.01,-0.107,-0.117,0.049,0.063,-0.112,0.068,0.049,-0.151,-0.264,-0.22,0.117
1.996,0.01,-0.068,-0.078,0.029,0.044,-0.073,0.059,0.049,-0.107,-0.21,-0.2,0.132
1.998,-0.039,-0.083,-0.044,0.063,0.0,-0.063,0.059,0.044,-0.073,-0.176,-0.181,0.137
2.0,-0.078,-0.083,-0.005,0.083,-0.039,-0.044,0.073,0.063,-0.034,-0.137,-0.161,0.137
2.002,-0.029,-0.034,-0.005,0.034,-0.015,-0.02,0.088,0.073,0.005,-0.102,-0.142,0.142
2.004,-0.005,-0.029,-0.024,0.02,0.01,-0.029,0.083,0.054,0.02,-0.102,-0.142,0.142
2.006,0.0,-0.044,-0.044,0.024,0.02,-0.044,0.078,0.044,0.029,-0.098,-0.142,0.146
2.008,0.005,-0.034,-0.039,0.015,0.02,-0.039,0.083,0.044,0.039,-0.088,-0.122,0.176
2.01,0.01,-0.02,-0.029,0.005,0.02,-0.024,0.093,0.044,0.054,-0.078,-0.112,0.176
2.012,0.005,-0.015,-0.02,0.005,0.01,-0.02,0.098,0.044,0.049,-0.068,-0.107,0.176
2.014,0.005,-0.01,-0.015,0.005,0.01,-0.015,0.102,0.044,0.054,-0.059,-0.102,0.176
2.016,-0.01,-0.024,-0.015,0.02,0.0,-0.02,0.098,0.039,0.044,-0.059,-0.112,0.166
2.018,-0.024,-0.024,0.0,0.024,-0.015,-0.015,0.093,0.034,0.044,-0.054,-0.112,0.156
2.02,-0.024,-0.024,0.0,0.024,-0.015,-0.015,0.088,0.029,0.049,-0.054,-0.127,0.142
2.022,-0.024,-0.024,0.0,0.024,-0.015,-0.015,0.083,0.029,0.063,-0.054,-0.127,0.142
2.024,-0.029,-0.024,0.005,0.029,-0.02,-0.01,0.093,0.034,0.068,-0.054,-0.117,0.151
2.026,-0.029,-0.024,0.005,0.029,-0.02,-0.01,0.093,0.039,0.073,-0.054,-0.117,0.151
2.028,-0.01,-0.01,0.0,0.01,-0.005,-0.005,0.093,0.039,0.073,-0.044,-0.102,0.166
2.03,-0.01,-0.02,-0.01,0.015,0.0,-0.015,0.093,0.039,0.073,-0.034,-0.098,0.166
2.032,-0.029,-0.01,0.02,0.02,-0.024,0.005,0.102,0.049,0.083,-0.02,-0.083,0.176
2.034,-0.029,-0.01,0.02,0.02,-0.024,0.005,0.102,0.049,0.083,-0.02,-0.083,0.176
2.036,-0.029,0.005,0.034,0.015,-0.034,0.02,0.107,0.049,0.088,-0.02,-0.083,0.176
2.038,-0.015,0.01,0.024,0.005,-0.02,0.015,0.112,0.054,0.088,-0.02,-0.088,0.166
2.04,-0.02,0.01,0.029,0.005,-0.024,0.02,0.107,0.044,0.093,-0.02,-0.093,0.151
2.042,-0.02,0.015,0.034,0.005,-0.029,0.024,0.102,0.044,0.093,-0.015,-0.098,0.151
2.044,-0.02,0.015,0.034,0.005,-0.029,0.024,0.102,0.044,0.093,-0.015,-0.102,0.146
2.046,-0.02,0.005,0.024,0.01,-0.024,0.015,0.098,0.044,0.102,-0.015,-0.107,0.142
2.048,-0.01,-0.005,0.005,0.01,-0.01,0.0,0.107,0.039,0.093,-0.01,-0.098,0.146
2.05,-0.01,-0.005,0.005,0.01,-0.01,0.0,0.107,0.039,0.093,-0.015,-0.098,0.161
2.052,-0.01,-0.01,0.0,0.01,-0.005,-0.005,0.102,0.034,0.093,-0.02,-0.098,0.161
2.054,-0.02,-0.01,0.01,0.015,-0.015,0.0,0.102,0.029,0.088,-0.034,-0.102,0.151
2.056,-0.01,0.0,0.01,0.005,-0.01,0.005,0.102,0.034,0.093,-0.024,-0.107,0.142
2.058,0.005,0.005,0.0,-0.005,0.0,0.0,0.102,0.039,0.093,-0.02,-0.107,0.137
2.06,-0.01,0.02,0.029,-0.005,-0.02,0.024,0.102,0.044,0.098,-0.02,-0.107,0.132
2.062,-0.015,0.024,0.039,-0.005,-0.029,0.029,0.102,0.049,0.112,-0.02,-0.102,0.132
2.064,-0.015,0.015,0.029,0.0,-0.024,0.02,0.102,0.044,0.112,-0.01,-0.093,0.122
2.066,-0.01,0.015,0.024,0.0,-0.02,0.02,0.102,0.044,0.112,-0.01,-0.093,0.122
2.068,-0.01,0.02,0.029,-0.005,-0.02,0.024,0.107,0.044,0.112,0.0,-0.088,0.127
2.07,-0.02,0.02,0.039,0.0,-0.029,0.029,0.107,0.049,0.112,0.0,-0.088,0.142
2.072,-0.024,-0.01,0.015,0.02,-0.02,0.0,0.102,0.049,0.107,0.0,-0.088,0.137
2.074,-0.029,0.0,0.029,0.015,-0.029,0.015,0.102,0.049,0.107,0.0,-0.088,0.132
2.076,-0.02,0.005,0.024,0.01,-0.024,0.015,0.107,0.049,0.107,0.0,-0.078,0.137
2.078,-0.024,0.0,0.024,0.015,-0.024,0.01,0.107,0.049,0.117,0.0,-0.078,0.142
2.08,-0.015,0.01,0.024,0.005,-0.02,0.015,0.098,0.049,0.107,-0.015,-0.088,0.137
2.082,-0.005,0.01,0.015,0.0,-0.01,0.01,0.098,0.049,0.112,-0.015,-0.098,0.127
2.084,0.005,0.015,0.01,-0.01,-0.005,0.01,0.098,0.059,0.122,-0.005,-0.088,0.122
2.086,0.015,0.02,0.005,-0.015,0.005,0.01,0.093,0.059,0.122,-0.005,-0.083,0.127
2.088,0.005,-0.01,-0.015,0.005,0.01,-0.015,0.083,0.049,0.107,-0.02,-0.093,0.132
2.09,0.0,-0.015,-0.015,0.01,0.005,-0.015,0.083,0.039,0.107,-0.02,-0.093,0.137
2.092,0.0,-0.015,-0.015,0.01,0.005,-0.015,0.083,0.034,0.117,-0.01,-0.093,0.156
2.094,-0.005,-0.005,0.0,0.005,-0.005,-0.005,0.083,0.034,0.117,-0.005,-0.083,0.161
2.096,-0.034,0.005,0.039,0.015,-0.039,0.02,0.093,0.039,0.127,0.005,-0.083,0.161
2.098,-0.029,0.01,0.039,0.01,-0.034,0.024,0.098,0.049,0.132,0.01,-0.083,0.166
2.1,-0.02,0.02,0.039,0.0,-0.029,0.029,0.098,0.054,0.137,0.01,-0.083,0.171
2.102,-0.015,0.02,0.034,0.0,-0.024,0.024,0.098,0.059,0.137,0.01,-0.093,0.176
2.104,-0.015,0.01,0.024,0.005,-0.02,0.015,0.088,0.059,0.137,0.005,-0.088,0.166
2.106,-0.01,0.01,0.02,0.0,-0.015,0.015,0.098,0.063,0.137,0.015,-0.083,0.171
2.108,0.01,0.01,0.0,-0.01,0.005,0.005,0.098,0.068,0.137,0.015,-0.078,0.181
2.11,0.015,0.01,-0.005,-0.01,0.01,0.0,0.098,0.068,0.142,0.02,-0.073,0.195
2.112,-0.015,0.0,0.015,0.01,-0.015,0.005,0.098,0.068,0.142,0.02,-0.078,0.205
2.114,-0.034,-0.005,0.029,0.02,-0.034,0.01,0.098,0.068,0.142,0.024,-0.073,0.205
2.116,-0.049,-0.005,0.044,0.029,-0.049,0.02,0.098,0.068,0.146,0.024,-0.073,0.205
2.118,-0.044,-0.01,0.034,0.029,-0.039,0.01,0.088,0.068,0.151,0.024,-0.073,0.2
2.12,-0.039,-0.005,0.034,0.024,-0.039,0.015,0.078,0.078,0.151,0.02,-0.088,0.185
2.122,-0.034,-0.005,0.029,0.02,-0.034,0.01,0.078,0.078,0.151,0.02,-0.088,0.185
2.124,-0.039,-0.015,0.024,0.029,-0.034,0.005,0.083,0.078,0.151,0.024,-0.093,0.181
2.126,-0.034,-0.029,0.005,0.034,-0.02,-0.015,0.083,0.078,0.151,0.024,-0.093,0.176
2.128,-0.024,-0.01,0.015,0.02,-0.02,0.0,0.093,0.073,0.142,0.02,-0.093,0.176
2.13,-0.01,-0.005,0.005,0.01,-0.01,0.0,0.098,0.083,0.156,0.034,-0.078,0.19
2.132,-0.01,-0.01,0.0,0.01,-0.005,-0.005,0.098,0.078,0.156,0.039,-0.078,0.19
2.134,-0.024,-0.024,0.0,0.024,-0.015,-0.015,0.098,0.073,0.156,0.024,-0.078,0.19
2.136,-0.034,-0.029,0.005,0.034,-0.02,-0.015,0.107,0.073,0.171,0.024,-0.083,0.185
2.138,-0.024,-0.02,0.005,0.024,-0.015,-0.01,0.107,0.078,0.171,0.029,-0.083,0.185
2.14,-0.024,-0.01,0.015,0.02,-0.02,0.0,0.107,0.083,0.171,0.034,-0.083,0.185
2.142,-0.029,-0.02,0.01,0.024,-0.02,-0.005,0.107,0.093,0.181,0.044,-0.083,0.185
2.144,-0.029,-0.005,0.024,0.02,-0.029,0.01,0.107,0.102,0.19,0.044,-0.078,0.2
2.146,-0.029,0.0,0.029,0.015,-0.029,0.015,0.107,0.102,0.195,0.049,-0.073,0.2
2.148,-0.024,0.0,0.024,0.015,-0.024,0.01,0.107,0.102,0.195,0.049,-0.073,0.2
2.15,-0.015,0.005,0.02,0.005,-0.02,0.01,0.107,0.107,0.195,0.054,-0.068,0.2
2.152,0.01,0.015,0.005,-0.01,0.0,0.01,0.107,0.107,0.21,0.059,-0.063,0.2
2.154,0.0,0.01,0.01,-0.005,-0.005,0.01,0.107,0.102,0.205,0.054,-0.063,0.2
2.156,-0.024,0.0,0.024,0.015,-0.024,0.01,0.107,0.093,0.195,0.049,-0.068,0.19
2.158,-0.01,-0.005,0.005,0.01,-0.01,0.0,0.107,0.088,0.19,0.044,-0.073,0.185
2.16,-0.005,0.01,0.015,0.0,-0.01,0.01,0.117,0.107,0.205,0.049,-0.063,0.195
2.162,-0.02,0.01,0.029,0.005,-0.024,0.02,0.117,0.122,0.21,0.068,-0.063,0.2
2.164,-0.02,0.0,0.02,0.01,-0.02,0.01,0.117,0.127,0.215,0.078,-0.059,0.205
2.166,-0.02,0.0,0.02,0.01,-0.02,0.01,0.117,0.137,0.224,0.083,-0.059,0.21
2.168,-0.015,-0.01,0.005,0.015,-0.01,-0.005,0.107,0.122,0.215,0.078,-0.059,0.2
2.17,-0.029,-0.02,0.01,0.024,-0.02,-0.005,0.102,0.117,0.215,0.073,-0.059,0.195
2.172,-0.029,-0.029,0.0,0.029,-0.015,-0.015,0.102,0.112,0.215,0.068,-0.059,0.19
2.174,-0.024,-0.01,0.015,0.02,-0.02,0.0,0.107,0.107,0.22,0.063,-0.054,0.185
2.176,-0.02,0.015,0.034,0.005,-0.029,0.024,0.117,0.117,0.239,0.083,-0.063,0.19
2.178,-0.015,0.015,0.029,0.0,-0.024,0.02,0.117,0.122,0.244,0.088,-0.063,0.195
2.18,-0.02,0.0,0.02,0.01,-0.02,0.01,0.112,0.127,0.244,0.093,-0.063,0.195
2.182,-0.005,0.0,0.005,0.005,-0.005,0.0,0.112,0.132,0.254,0.102,-0.059,0.2
2.184,0.0,-0.005,-0.005,0.005,0.0,-0.005,0.102,0.137,0.249,0.093,-0.059,0.19
2.186,0.0,-0.005,-0.005,0.005,0.0,-0.005,0.102,0.142,0.259,0.102,-0.054,0.195
2.188,0.005,0.005,0.0,-0.005,0.0,0.0,0.102,0.146,0.259,0.112,-0.049,0.2
2.19,0.005,0.005,0.0,-0.005,0.0,0.0,0.098,0.132,0.259,0.112,-0.049,0.2
2.192,-0.015,-0.024,-0.01,0.02,-0.005,-0.02,0.098,0.142,0.268,0.112,-0.049,0.205
2.194,-0.02,-0.024,-0.005,0.024,-0.01,-0.015,0.098,0.142,0.278,0.117,-0.049,0.205
2.196,-0.024,-0.005,0.02,0.015,-0.024,0.005,0.102,0.142,0.288,0.122,-0.039,0.215
2.198,-0.005,0.015,0.02,-0.005,-0.015,0.015,0.107,0.151,0.303,0.132,-0.039,0.22
2.2,-0.01,0.024,0.034,-0.005,-0.024,0.029,0.107,0.166,0.307,0.146,-0.029,0.224
2.202,0.0,0.015,0.015,-0.005,-0.01,0.015,0.107,0.166,0.307,0.146,-0.029,0.224
2.204,0.0,0.01,0.01,-0.005,-0.005,0.01,0.107,0.156,0.307,0.146,-0.034,0.22
2.206,-0.02,0.01,0.029,0.005,-0.024,0.02,0.102,0.166,0.312,0.151,-0.034,0.22
2.208,-0.015,0.0,0.015,0.01,-0.015,0.005,0.093,0.166,0.322,0.151,-0.024,0.21
2.21,-0.005,0.0,0.005,0.005,-0.005,0.0,0.093,0.161,0.327,0.156,-0.02,0.22
2.212,0.005,0.01,0.005,-0.005,0.0,0.005,0.093,0.166,0.327,0.156,-0.02,0.224
2.214,0.02,0.015,-0.005,-0.015,0.01,0.005,0.093,0.161,0.327,0.161,-0.02,0.224
2.216,0.024,0.034,0.01,-0.029,0.005,0.02,0.107,0.166,0.346,0.171,-0.015,0.244
2.218,0.024,0.034,0.01,-0.029,0.005,0.02,0.107,0.176,0.361,0.176,-0.005,0.254
2.22,0.0,0.02,0.02,-0.01,-0.01,0.02,0.107,0.181,0.371,0.19,0.0,0.254
2.222,0.0,0.02,0.02,-0.01,-0.01,0.02,0.107,0.181,0.376,0.195,0.0,0.254
2.224,0.02,0.029,0.01,-0.024,0.005,0.02,0.102,0.19,0.376,0.205,0.01,0.264
2.226,0.029,0.049,0.02,-0.039,0.005,0.034,0.102,0.2,0.39,0.22,0.02,0.268
2.228,0.034,0.059,0.024,-0.044,0.005,0.039,0.098,0.2,0.39,0.224,0.02,0.273
2.23,0.063,0.068,0.005,-0.063,0.029,0.034,0.093,0.2,0.395,0.234,0.02,0.273
2.232,0.049,0.054,0.005,-0.049,0.02,0.029,0.083,0.205,0.395,0.234,0.029,0.264
2.234,0.02,0.049,0.029,-0.034,-0.005,0.039,0.083,0.2,0.4,0.239,0.024,0.268
2.236,0.015,0.044,0.029,-0.029,-0.01,0.034,0.083,0.19,0.405,0.234,0.024,0.268
2.238,0.015,0.039,0.024,-0.024,-0.005,0.029,0.078,0.185,0.41,0.234,0.02,0.273
2.24,0.01,0.049,0.039,-0.029,-0.015,0.044,0.068,0.19,0.42,0.234,0.02,0.283
2.242,0.01,0.044,0.034,-0.024,-0.015,0.039,0.063,0.195,0.429,0.244,0.029,0.288
2.244,0.024,0.044,0.02,-0.034,0.0,0.029,0.059,0.195,0.429,0.254,0.034,0.293
2.246,0.024,0.039,0.015,-0.029,0.005,0.024,0.059,0.2,0.434,0.259,0.039,0.293
2.248,0.044,0.054,0.01,-0.049,0.015,0.029,0.068,0.205,0.449,0.278,0.049,0.312
2.25,0.054,0.068,0.015,-0.059,0.02,0.039,0.063,0.205,0.459,0.283,0.063,0.317
2.252,0.063,0.078,0.015,-0.068,0.024,0.044,0.059,0.205,0.459,0.283,0.063,0.317
2.254,0.073,0.088,0.015,-0.078,0.029,0.049,0.054,0.205,0.464,0.283,0.063,0.327
2.256,0.063,0.098,0.034,-0.078,0.015,0.063,0.059,0.21,0.483,0.298,0.073,0.337
2.258,0.059,0.107,0.049,-0.083,0.005,0.078,0.063,0.215,0.493,0.317,0.083,0.342
2.26,0.049,0.117,0.068,-0.083,-0.01,0.093,0.063,0.224,0.498,0.322,0.093,0.346
2.262,0.054,0.122,0.068,-0.088,-0.01,0.093,0.063,0.229,0.503,0.332,0.102,0.356
2.264,0.063,0.112,0.049,-0.088,0.005,0.078,0.054,0.215,0.498,0.332,0.107,0.346
2.266,0.034,0.093,0.059,-0.063,-0.015,0.073,0.044,0.21,0.493,0.342,0.112,0.356
2.268,0.034,0.093,0.059,-0.063,-0.015,0.073,0.034,0.21,0.498,0.342,0.117,0.361
2.27,0.059,0.112,0.054,-0.083,0.0,0.083,0.029,0.21,0.493,0.346,0.122,0.361
2.272,0.078,0.132,0.054,-0.102,0.01,0.093,0.034,0.22,0.503,0.361,0.132,0.376
2.274,0.093,0.132,0.039,-0.112,0.024,0.083,0.029,0.22,0.503,0.376,0.142,0.381
2.276,0.093,0.137,0.044,-0.112,0.024,0.088,0.029,0.22,0.508,0.376,0.151,0.395
2.278,0.078,0.137,0.059,-0.107,0.01,0.098,0.024,0.21,0.512,0.386,0.166,0.4
2.28,0.078,0.117,0.039,-0.098,0.02,0.078,0.015,0.2,0.508,0.381,0.161,0.395
2.282,0.078,0.127,0.049,-0.102,0.015,0.088,0.01,0.2,0.508,0.386,0.156,0.405
2.284,0.098,0.142,0.044,-0.117,0.024,0.093,0.005,0.195,0.503,0.386,0.166,0.425
2.286,0.098,0.142,0.044,-0.117,0.024,0.093,0.005,0.19,0.498,0.39,0.171,0.434
2.288,0.107,0.151,0.044,-0.127,0.029,0.098,-0.01,0.195,0.503,0.4,0.185,0.434
2.29,0.107,0.151,0.044,-0.127,0.029,0.098,-0.01,0.195,0.503,0.405,0.185,0.439
2.292,0.102,0.151,0.049,-0.127,0.024,0.098,-0.015,0.195,0.503,0.405,0.195,0.444
2.294,0.102,0.151,0.049,-0.127,0.024,0.098,-0.015,0.195,0.498,0.41,0.2,0.454
2.296,0.098,0.161,0.063,-0.127,0.015,0.112,-0.01,0.185,0.488,0.42,0.205,0.454
2.298,0.122,0.161,0.039,-0.142,0.039,0.098,-0.015,0.181,0.488,0.41,0.205,0.454
2.3,0.102,0.161,0.059,-0.132,0.02,0.107,-0.024,0.176,0.483,0.41,0.205,0.459
2.302,0.102,0.161,0.059,-0.132,0.02,0.107,-0.024,0.166,0.478,0.415,0.215,0.459
2.304,0.107,0.151,0.044,-0.127,0.029,0.098,-0.039,0.151,0.459,0.415,0.22,0.468
2.306,0.102,0.142,0.039,-0.122,0.029,0.088,-0.044,0.146,0.444,0.405,0.22,0.483
2.308,0.088,0.127,0.039,-0.107,0.024,0.083,-0.049,0.146,0.434,0.4,0.224,0.483
2.31,0.083,0.122,0.039,-0.102,0.02,0.078,-0.054,0.142,0.429,0.4,0.224,0.488
2.312,0.112,0.146,0.034,-0.127,0.039,0.088,-0.044,0.151,0.425,0.41,0.239,0.503
2.314,0.112,0.146,0.034,-0.127,0.039,0.088,-0.049,0.146,0.429,0.41,0.244,0.503
2.316,0.107,0.142,0.034,-0.122,0.034,0.088,-0.049,0.137,0.415,0.4,0.249,0.503
2.318,0.107,0.137,0.029,-0.122,0.039,0.083,-0.049,0.122,0.415,0.395,0.249,0.498
2.32,0.107,0.117,0.01,-0.112,0.049,0.063,-0.059,0.117,0.395,0.386,0.239,0.498
2.322,0.102,0.117,0.015,-0.107,0.044,0.063,-0.059,0.112,0.376,0.386,0.239,0.498
2.324,0.102,0.122,0.02,-0.112,0.039,0.068,-0.059,0.102,0.371,0.381,0.249,0.512
2.326,0.093,0.122,0.029,-0.107,0.029,0.073,-0.059,0.083,0.351,0.381,0.254,0.517
2.328,0.117,0.127,0.01,-0.122,0.054,0.068,-0.059,0.078,0.346,0.386,0.264,0.522
2.33,0.122,0.117,-0.005,-0.117,0.063,0.054,-0.059,0.073,0.327,0.371,0.254,0.527
2.332,0.117,0.112,-0.005,-0.112,0.059,0.054,-0.059,0.078,0.317,0.361,0.244,0.527
2.334,0.122,0.117,-0.005,-0.117,0.063,0.054,-0.059,0.083,0.303,0.351,0.259,0.527
2.336,0.117,0.107,-0.01,-0.112,0.063,0.049,-0.059,0.078,0.283,0.332,0.244,0.512
2.338,0.117,0.107,-0.01,-0.112,0.063,0.049,-0.049,0.068,0.268,0.322,0.234,0.512
2.34,0.102,0.107,0.005,-0.102,0.049,0.054,-0.049,0.063,0.264,0.307,0.22,0.498
2.342,0.102,0.088,-0.015,-0.093,0.059,0.034,-0.049,0.044,0.249,0.283,0.21,0.488
2.344,0.102,0.083,-0.02,-0.093,0.059,0.029,-0.059,0.044,0.215,0.273,0.21,0.488
2.346,0.102,0.083,-0.02,-0.093,0.059,0.029,-0.059,0.034,0.2,0.259,0.2,0.478
2.348,0.102,0.083,-0.02,-0.093,0.059,0.029,-0.054,0.024,0.19,0.244,0.185,0.459
2.35,0.098,0.083,-0.015,-0.088,0.054,0.034,-0.039,0.02,0.181,0.224,0.171,0.459
2.352,0.078,0.063,-0.015,-0.068,0.044,0.024,-0.034,0.02,0.181,0.215,0.156,0.444
2.354,0.059,0.054,-0.005,-0.054,0.029,0.024,-0.029,0.02,0.161,0.185,0.142,0.434
2.356,0.054,0.054,0.0,-0.054,0.024,0.024,-0.015,0.024,0.146,0.171,0.142,0.42
2.358,0.049,0.049,0.0,-0.049,0.024,0.024,-0.01,0.029,0.146,0.156,0.132,0.415
2.36,0.059,0.049,-0.01,-0.054,0.034,0.02,-0.01,0.02,0.142,0.137,0.107,0.4
2.362,0.059,0.049,-0.01,-0.054,0.034,0.02,-0.01,0.02,0.132,0.117,0.093,0.381
2.364,0.059,0.049,-0.01,-0.054,0.034,0.02,-0.005,0.02,0.107,0.102,0.078,0.376
2.366,0.054,0.039,-0.015,-0.044,0.034,0.01,-0.005,0.015,0.098,0.093,0.068,0.361
2.368,0.054,0.034,-0.02,-0.044,0.034,0.005,-0.015,0.015,0.073,0.083,0.059,0.361
2.37,0.044,0.02,-0.024,-0.029,0.034,-0.005,-0.015,0.01,0.068,0.063,0.044,0.332
2.372,0.044,0.02,-0.024,-0.029,0.034,-0.005,-0.005,0.01,0.068,0.054,0.024,0.327
2.374,0.044,0.015,-0.029,-0.029,0.034,-0.01,0.0,0.01,0.068,0.044,0.02,0.307
2.376,0.034,0.024,-0.01,-0.029,0.02,0.005,0.015,0.01,0.068,0.029,0.01,0.307
2.378,0.029,0.024,-0.005,-0.024,0.015,0.01,0.015,0.015,0.059,0.024,0.005,0.303
2.38,0.034,0.024,-0.01,-0.029,0.02,0.005,0.015,0.015,0.044,0.015,0.0,0.293
2.382,0.029,0.024,-0.005,-0.024,0.015,0.01,0.015,0.015,0.039,0.0,-0.01,0.283
2.384,0.015,0.01,-0.005,-0.01,0.01,0.0,0.02,0.005,0.029,-0.01,-0.02,0.273
2.386,0.015,0.015,0.0,-0.015,0.005,0.005,0.024,0.005,0.024,-0.01,-0.029,0.273
2.388,0.02,0.0,-0.02,-0.01,0.02,-0.01,0.024,0.005,0.015,-0.015,-0.034,0.264
2.39,0.02,-0.02,-0.039,0.0,0.029,-0.029,0.024,0.005,0.015,-0.02,-0.039,0.254
2.392,-0.005,-0.01,-0.005,0.01,0.0,-0.01,0.015,0.01,0.024,-0.024,-0.044,0.249
2.394,-0.01,-0.01,0.0,0.01,-0.005,-0.005,0.02,0.015,0.024,-0.034,-0.049,0.249
2.396,-0.01,-0.01,0.0,0.01,-0.005,-0.005,0.024,0.02,0.024,-0.039,-0.054,0.249
2.398,-0.01,-0.015,-0.005,0.015,-0.005,-0.01,0.024,0.024,0.02,-0.039,-0.054,0.249
2.4,-0.005,-0.029,-0.024,0.02,0.01,-0.029,0.02,0.02,0.01,-0.044,-0.068,0.249
2.402,-0.005,-0.029,-0.024,0.02,0.01,-0.029,0.02,0.01,0.0,-0.054,-0.078,0.244
2.404,-0.005,-0.01,-0.005,0.01,0.0,-0.01,0.02,0.005,0.0,-0.054,-0.078,0.244
2.406,-0.005,-0.02,-0.015,0.015,0.005,-0.02,0.024,0.0,0.0,-0.054,-0.078,0.244
2.408,0.005,-0.015,-0.02,0.005,0.01,-0.02,0.029,0.005,0.01,-0.054,-0.083,0.244
2.41,0.02,0.0,-0.02,-0.01,0.02,-0.01,0.029,0.005,0.005,-0.054,-0.083,0.244
2.412,0.015,-0.005,-0.02,-0.005,0.015,-0.015,0.029,0.005,0.0,-0.059,-0.088,0.239
2.414,0.02,0.0,-0.02,-0.01,0.02,-0.01,0.029,0.005,0.0,-0.063,-0.093,0.239
2.416,0.0,-0.015,-0.015,0.01,0.005,-0.015,0.029,0.015,0.0,-0.063,-0.083,0.249
2.418,-0.02,-0.029,-0.01,0.024,-0.005,-0.02,0.029,0.015,0.0,-0.063,-0.083,0.249
2.42,-0.024,-0.02,0.005,0.024,-0.015,-0.01,0.029,0.015,0.0,-0.059,-0.083,0.244
2.422,-0.005,-0.024,-0.02,0.015,0.005,-0.024,0.029,0.015,0.005,-0.059,-0.083,0.244
2.424,0.0,-0.024,-0.024,0.015,0.01,-0.024,0.029,0.005,-0.005,-0.059,-0.093,0.254
2.426,0.005,-0.024,-0.029,0.01,0.015,-0.029,0.029,0.01,-0.005,-0.059,-0.093,0.254
2.428,-0.015,-0.024,-0.01,0.02,-0.005,-0.02,0.034,0.01,-0.005,-0.063,-0.093,0.244
2.43,-0.01,-0.024,-0.015,0.02,0.0,-0.02,0.034,0.01,-0.005,-0.063,-0.093,0.244
2.432,0.0,-0.015,-0.015,0.01,0.005,-0.015,0.034,0.015,0.01,-0.054,-0.088,0.259
2.434,0.02,-0.005,-0.024,-0.005,0.02,-0.015,0.029,0.02,0.01,-0.059,-0.098,0.254
2.436,0.0,-0.015,-0.015,0.01,0.005,-0.015,0.029,0.024,0.01,-0.059,-0.098,0.254
2.438,-0.005,-0.039,-0.034,0.024,0.015,-0.039,0.029,0.024,0.015,-0.063,-0.093,0.259
2.44,-0.02,-0.054,-0.034,0.039,0.005,-0.044,0.02,0.02,0.005,-0.073,-0.102,0.254
2.442,-0.024,-0.054,-0.029,0.039,0.0,-0.044,0.02,0.015,0.0,-0.078,-0.112,0.244
2.444,-0.029,-0.059,-0.029,0.044,0.0,-0.044,0.015,0.01,-0.005,-0.083,-0.112,0.239
2.446,-0.034,-0.063,-0.029,0.049,-0.005,-0.049,0.015,0.005,-0.015,-0.088,-0.112,0.234
2.448,-0.024,-0.044,-0.02,0.034,-0.005,-0.034,0.029,0.015,0.0,-0.078,-0.112,0.239
2.45,-0.005,-0.034,-0.029,0.02,0.01,-0.034,0.029,0.02,0.005,-0.078,-0.112,0.239
2.452,0.015,-0.029,-0.044,0.01,0.029,-0.039,0.029,0.02,0.01,-0.078,-0.117,0.234
2.454,0.005,-0.034,-0.039,0.015,0.02,-0.039,0.039,0.02,0.02,-0.078,-0.117,0.239
2.456,0.0,-0.02,-0.02,0.01,0.01,-0.02,0.039,0.034,0.024,-0.068,-0.112,0.254
2.458,0.0,-0.005,-0.005,0.005,0.0,-0.005,0.039,0.034,0.024,-0.068,-0.107,0.259
2.46,-0.02,-0.02,0.0,0.02,-0.01,-0.01,0.039,0.034,0.024,-0.073,-0.107,0.264
2.462,-0.029,-0.029,0.0,0.029,-0.015,-0.015,0.039,0.029,0.024,-0.073,-0.102,0.268
2.464,-0.01,-0.039,-0.029,0.024,0.01,-0.034,0.039,0.024,0.015,-0.078,-0.117,0.249
2.466,-0.005,-0.039,-0.034,0.024,0.015,-0.039,0.034,0.02,0.01,-0.083,-0.122,0.244
2.468,-0.02,-0.039,-0.02,0.029,0.0,-0.029,0.029,0.015,0.005,-0.088,-0.132,0.239
2.47,-0.015,-0.039,-0.024,0.029,0.005,-0.034,0.029,0.015,-0.005,-0.093,-0.137,0.234
2.472,-0.01,-0.034,-0.024,0.024,0.005,-0.029,0.039,0.02,0.01,-0.088,-0.132,0.249
2.474,-0.01,-0.02,-0.01,0.015,0.0,-0.015,0.044,0.029,0.02,-0.078,-0.127,0.259
2.476,0.01,-0.01,-0.02,0.0,0.015,-0.015,0.044,0.034,0.029,-0.073,-0.122,0.259
2.478,0.015,-0.005,-0.02,-0.005,0.015,-0.015,0.044,0.039,0.034,-0.068,-0.117,0.249
2.48,0.01,-0.01,-0.02,0.0,0.015,-0.015,0.034,0.034,0.024,-0.078,-0.127,0.229
2.482,0.015,-0.02,-0.034,0.005,0.024,-0.029,0.039,0.029,0.02,-0.078,-0.122,0.229
2.484,-0.01,-0.024,-0.015,0.02,0.0,-0.02,0.039,0.024,0.015,-0.068,-0.117,0.244
2.486,-0.024,-0.029,-0.005,0.029,-0.01,-0.02,0.039,0.02,0.01,-0.068,-0.117,0.254
2.488,-0.024,-0.029,-0.005,0.029,-0.01,-0.02,0.049,0.029,0.029,-0.068,-0.112,0.264
2.49,-0.01,-0.01,0.0,0.01,-0.005,-0.005,0.049,0.029,0.029,-0.068,-0.122,0.249
2.492,-0.005,-0.02,-0.015,0.015,0.005,-0.02,0.044,0.029,0.015,-0.073,-0.127,0.234
2.494,-0.005,-0.024,-0.02,0.015,0.005,-0.024,0.039,0.029,0.015,-0.078,-0.132,0.22
2.496,-0.01,-0.02,-0.01,0.015,0.0,-0.015,0.049,0.029,0.029,-0.073,-0.122,0.224
2.498,-0.005,-0.005,0.0,0.005,-0.005,-0.005,0.054,0.039,0.049,-0.054,-0.107,0.229
2.5,0.0,0.01,0.01,-0.005,-0.005,0.01,0.059,0.039,0.039,-0.044,-0.093,0.229
2.502,0.005,0.015,0.01,-0.01,-0.005,0.01,0.059,0.039,0.039,-0.039,-0.093,0.234
2.504,-0.005,0.0,0.005,0.005,-0.005,0.0,0.054,0.029,0.034,-0.044,-0.107,0.229
2.506,-0.01,-0.01,0.0,0.01,-0.005,-0.005,0.059,0.029,0.029,-0.049,-0.112,0.234
2.508,-0.024,-0.02,0.005,0.024,-0.015,-0.01,0.044,0.029,0.024,-0.054,-0.112,0.234
2.51,-0.029,-0.024,0.005,0.029,-0.02,-0.01,0.034,0.029,0.02,-0.059,-0.112,0.239
2.512,-0.02,-0.015,0.005,0.02,-0.015,-0.005,0.034,0.039,0.029,-0.049,-0.112,0.229
2.514,-0.01,-0.005,0.005,0.01,-0.01,0.0,0.029,0.039,0.034,-0.044,-0.112,0.229
2.516,-0.005,0.01,0.015,0.0,-0.01,0.01,0.029,0.034,0.034,-0.044,-0.112,0.224
2.518,-0.005,0.0,0.005,0.005,-0.005,0.0,0.029,0.029,0.034,-0.054,-0.112,0.22
2.52,-0.01,-0.01,0.0,0.01,-0.005,-0.005,0.029,0.024,0.029,-0.049,-0.122,0.21
2.522,-0.01,-0.005,0.005,0.01,-0.01,0.0,0.034,0.02,0.02,-0.049,-0.112,0.22
2.524,0.0,-0.005,-0.005,0.005,0.0,-0.005,0.034,0.02,0.015,-0.054,-0.112,0.22
2.526,0.0,-0.01,-0.01,0.005,0.005,-0.01,0.034,0.015,0.01,-0.054,-0.112,0.22
2.528,0.0,-0.015,-0.015,0.01,0.005,-0.015,0.034,0.024,0.02,-0.049,-0.098,0.22
2.53,-0.01,0.005,0.015,0.005,-0.015,0.01,0.034,0.024,0.024,-0.039,-0.088,0.224
2.532,0.01,0.01,0.0,-0.01,0.005,0.005,0.034,0.024,0.029,-0.034,-0.088,0.22
2.534,0.01,0.015,0.005,-0.01,0.0,0.01,0.024,0.02,0.039,-0.029,-0.088,0.215
2.536,-0.02,0.015,0.034,0.005,-0.029,0.024,0.034,0.02,0.034,-0.02,-0.073,0.215
2.538,-0.034,0.015,0.049,0.01,-0.044,0.029,0.044,0.024,0.049,-0.01,-0.073,0.224
2.54,-0.034,0.015,0.049,0.01,-0.044,0.029,0.044,0.024,0.049,-0.01,-0.068,0.229
2.542,-0.029,0.02,0.049,0.005,-0.039,0.034,0.044,0.024,0.044,-0.01,-0.068,0.229
2.544,-0.015,0.029,0.044,-0.005,-0.029,0.034,0.034,0.015,0.029,-0.015,-0.078,0.224
2.546,0.0,0.02,0.02,-0.01,-0.01,0.02,0.029,0.015,0.024,-0.02,-0.083,0.22
2.548,0.01,0.02,0.01,-0.015,0.0,0.015,0.029,0.015,0.02,-0.024,-0.083,0.22
2.55,0.015,0.02,0.005,-0.015,0.005,0.01,0.029,0.015,0.02,-0.029,-0.078,0.215
2.552,0.01,0.005,-0.005,-0.005,0.005,0.0,0.029,0.02,0.024,-0.029,-0.078,0.215
2.554,-0.015,0.005,0.02,0.005,-0.02,0.01,0.024,0.02,0.02,-0.024,-0.078,0.21
2.556,0.0,0.0,0.0,0.0,0.0,0.0,0.02,0.02,0.024,-0.024,-0.068,0.205
2.558,-0.024,-0.01,0.015,0.02,-0.02,0.0,0.02,0.02,0.02,-0.029,-0.068,0.205
2.56,0.0,0.005,0.005,0.0,-0.005,0.005,0.015,0.01,0.01,-0.029,-0.078,0.2
2.562,0.015,0.01,-0.005,-0.01,0.01,0.0,0.024,0.01,0.015,-0.02,-0.078,0.22
2.564,0.02,0.015,-0.005,-0.015,0.01,0.005,0.024,0.01,0.015,-0.02,-0.078,0.22
2.566,0.02,0.02,0.0,-0.02,0.01,0.01,0.02,0.01,0.015,-0.02,-0.078,0.22
2.568,0.015,0.01,-0.005,-0.01,0.01,0.0,0.015,0.02,0.015,-0.02,-0.068,0.215
2.57,0.005,0.01,0.005,-0.005,0.0,0.005,0.015,0.02,0.015,-0.024,-0.068,0.215
2.572,-0.005,0.01,0.015,0.0,-0.01,0.01,0.02,0.02,0.02,-0.024,-0.063,0.22
2.574,-0.01,0.02,0.029,-0.005,-0.02,0.024,0.034,0.02,0.024,-0.024,-0.063,0.22
2.576,-0.015,0.02,0.034,0.0,-0.024,0.024,0.024,0.005,0.015,-0.024,-0.068,0.21
2.578,-0.029,0.01,0.039,0.01,-0.034,0.024,0.024,0.005,0.005,-0.029,-0.078,0.2
2.58,-0.034,0.01,0.044,0.015,-0.039,0.024,0.024,0.01,0.005,-0.029,-0.068,0.195
2.582,-0.024,0.024,0.049,0.0,-0.039,0.034,0.024,0.01,0.005,-0.024,-0.063,0.2
2.584,-0.01,0.015,0.024,0.0,-0.02,0.02,0.02,0.02,0.015,-0.024,-0.063,0.21
2.586,-0.02,-0.01,0.01,0.015,-0.015,0.0,0.015,0.015,0.01,-0.029,-0.063,0.21
2.588,-0.015,-0.02,-0.005,0.02,-0.005,-0.015,0.01,0.015,0.0,-0.029,-0.068,0.205
2.59,0.005,0.0,-0.005,0.0,0.005,-0.005,0.015,0.015,0.0,-0.024,-0.068,0.205
2.592,0.02,0.024,0.005,-0.02,0.005,0.015,0.015,0.005,0.005,-0.024,-0.068,0.205
2.594,0.005,0.015,0.01,-0.01,-0.005,0.01,0.01,0.005,-0.005,-0.034,-0.068,0.195
2.596,-0.01,0.01,0.02,0.0,-0.015,0.015,0.01,0.005,-0.005,-0.034,-0.068,0.2
2.598,-0.02,0.01,0.029,0.005,-0.024,0.02,0.02,0.01,0.0,-0.034,-0.063,0.215
2.6,-0.02,0.015,0.034,0.005,-0.029,0.024,0.01,0.01,-0.005,-0.034,-0.054,0.215
2.602,-0.015,0.015,0.029,0.0,-0.024,0.02,0.01,0.01,-0.005,-0.034,-0.063,0.215
2.604,-0.01,0.005,0.015,0.005,-0.015,0.01,0.01,0.0,-0.015,-0.034,-0.068,0.215
2.606,-0.005,0.005,0.01,0.0,-0.01,0.005,0.02,0.0,-0.015,-0.034,-0.068,0.22
2.608,-0.02,0.0,0.02,0.01,-0.02,0.01,0.01,0.0,-0.005,-0.034,-0.068,0.21
2.61,-0.02,-0.01,0.01,0.015,-0.015,0.0,0.01,-0.005,-0.015,-0.039,-0.068,0.21
2.612,-0.02,-0.01,0.01,0.015,-0.015,0.0,0.005,-0.005,-0.029,-0.049,-0.078,0.2
2.614,-0.01,-0.02,-0.01,0.015,0.0,-0.015,0.005,-0.01,-0.029,-0.059,-0.078,0.19
2.616,0.01,0.0,-0.01,-0.005,0.01,-0.005,0.01,-0.005,-0.02,-0.054,-0.073,0.19
2.618,0.015,0.0,-0.015,-0.005,0.015,-0.01,0.01,-0.01,-0.02,-0.059,-0.073,0.19
2.62,0.02,0.01,-0.01,-0.015,0.015,0.0,0.015,-0.01,-0.024,-0.054,-0.073,0.195
2.622,0.01,0.015,0.005,-0.01,0.0,0.01,0.02,0.005,-0.024,-0.049,-0.068,0.2
2.624,-0.01,0.01,0.02,0.0,-0.015,0.015,0.015,0.005,-0.024,-0.044,-0.059,0.205
2.626,-0.015,0.005,0.02,0.005,-0.02,0.01,0.02,0.005,-0.024,-0.044,-0.059,0.215
2.628,-0.01,0.0,0.01,0.005,-0.01,0.005,0.02,0.005,-0.024,-0.049,-0.059,0.22
2.63,-0.005,-0.005,0.0,0.005,-0.005,-0.005,0.02,0.0,-0.029,-0.049,-0.068,0.22
2.632,-0.005,-0.005,0.0,0.005,-0.005,-0.005,0.01,-0.01,-0.039,-0.049,-0.078,0.205
2.634,-0.02,-0.01,0.01,0.015,-0.015,0.0,0.015,-0.01,-0.039,-0.054,-0.078,0.2
2.636,-0.02,-0.024,-0.005,0.024,-0.01,-0.015,0.015,-0.02,-0.039,-0.059,-0.078,0.19
2.638,-0.02,-0.029,-0.01,0.024,-0.005,-0.02,0.015,-0.02,-0.039,-0.063,-0.078,0.185
2.64,-0.029,-0.029,0.0,0.029,-0.015,-0.015,0.005,-0.02,-0.049,-0.063,-0.078,0.19
2.642,-0.029,-0.024,0.005,0.029,-0.02,-0.01,0.005,-0.015,-0.049,-0.063,-0.083,0.19
2.644,-0.024,-0.02,0.005,0.024,-0.015,-0.01,0.005,-0.01,-0.049,-0.063,-0.083,0.19
2.646,-0.024,0.0,0.024,0.015,-0.024,0.01,0.005,-0.005,-0.049,-0.063,-0.083,0.19
2.648,-0.029,0.0,0.029,0.015,-0.029,0.015,0.015,0.005,-0.049,-0.054,-0.068,0.195
2.65,-0.029,-0.005,0.024,0.02,-0.029,0.01,0.01,-0.005,-0.054,-0.054,-0.068,0.2
2.652,-0.02,-0.005,0.015,0.015,-0.02,0.005,0.01,-0.005,-0.049,-0.059,-0.068,0.205
2.654,-0.015,-0.005,0.01,0.01,-0.015,0.0,0.01,0.0,-0.044,-0.059,-0.068,0.205
2.656,-0.005,0.015,0.02,-0.005,-0.015,0.015,0.005,-0.01,-0.039,-0.068,-0.073,0.195
2.658,0.024,0.024,0.0,-0.024,0.01,0.01,0.01,0.0,-0.039,-0.059,-0.073,0.195
2.66,0.024,0.024,0.0,-0.024,0.01,0.01,0.01,0.0,-0.044,-0.059,-0.078,0.195
2.662,0.005,0.0,-0.005,0.0,0.005,-0.005,0.0,-0.015,-0.063,-0.073,-0.093,0.185
2.664,-0.01,-0.034,-0.024,0.024,0.005,-0.029,-0.015,-0.015,-0.083,-0.078,-0.093,0.166
2.666,0.0,-0.02,-0.02,0.01,0.01,-0.02,0.0,-0.015,-0.068,-0.068,-0.093,0.176
2.668,0.0,0.005,0.005,0.0,-0.005,0.005,0.01,-0.005,-0.059,-0.059,-0.088,0.19
2.67,-0.02,-0.005,0.015,0.015,-0.02,0.005,0.01,-0.015,-0.068,-0.068,-0.088,0.19
2.672,-0.063,-0.068,-0.005,0.068,-0.029,-0.039,-0.01,-0.034,-0.093,-0.093,-0.107,0.156
2.674,0.02,0.0,-0.02,-0.01,0.02,-0.01,0.01,-0.02,-0.068,-0.078,-0.088,0.166
2.676,0.005,-0.01,-0.015,0.005,0.01,-0.015,0.01,-0.02,-0.068,-0.068,-0.088,0.166
2.678,-0.01,-0.01,0.0,0.01,-0.005,-0.005,0.01,-0.02,-0.068,-0.068,-0.088,0.166
2.68,-0.024,-0.01,0.015,0.02,-0.02,0.0,0.01,-0.02,-0.068,-0.068,-0.088,0.166
2.682,-0.039,-0.01,0.029,0.024,-0.034,0.01,0.01,-0.02,-0.068,-0.068,-0.088,0.166
2.684,-0.029,-0.02,0.01,0.024,-0.02,-0.005,0.0,-0.01,-0.068,-0.068,-0.088,0.176
2.686,-0.029,-0.02,0.01,0.024,-0.02,-0.005,0.0,-0.01,-0.068,-0.068,-0.088,0.176
2.688,-0.029,-0.02,0.01,0.024,-0.02,-0.005,0.0,-0.01,-0.068,-0.068,-0.088,0.176
2.69,-0.029,-0.02,0.01,0.024,-0.02,-0.005,0.0,-0.01,-0.068,-0.068,-0.088,0.176
2.692,-0.02,-0.029,-0.01,0.024,-0.005,-0.02,0.0,-0.02,-0.078,-0.078,-0.088,0.171
2.694,-0.02,-0.029,-0.01,0.024,-0.005,-0.02,0.0,-0.02,-0.078,-0.078,-0.088,0.166
2.696,-0.02,-0.029,-0.01,0.024,-0.005,-0.02,0.0,-0.02,-0.078,-0.078,-0.088,0.161
2.698,-0.02,-0.029,-0.01,0.024,-0.005,-0.02,0.0,-0.02,-0.078,-0.078,-0.088,0.156
2.7,-0.029,-0.02,0.01,0.024,-0.02,-0.005,-0.01,-0.029,-0.088,-0.078,-0.098,0.156
2.702,-0.029,-0.02,0.01,0.024,-0.02,-0.005,-0.01,-0.029,-0.088,-0.078,-0.098,0.156
2.704,-0.029,-0.02,0.01,0.024,-0.02,-0.005,-0.01,-0.029,-0.088,-0.078,-0.098,0.156
2.706,-0.029,-0.02,0.01,0.024,-0.02,-0.005,-0.01,-0.029,-0.088,-0.078,-0.098,0.156
2.708,-0.015,-0.015,0.0,0.015,-0.01,-0.01,0.0,-0.024,-0.078,-0.068,-0.098,0.166
2.71,-0.01,-0.01,0.0,0.01,-0.005,-0.005,0.0,-0.02,-0.078,-0.068,-0.098,0.166
2.712,-0.005,-0.005,0.0,0.005,-0.005,-0.005,0.0,-0.015,-0.078,-0.068,-0.098,0.166
2.714,0.0,0.0,0.0,0.0,0.0,0.0,0.0,-0.01,-0.078,-0.068,-0.098,0.166
2.716,-0.015,-0.01,0.005,0.015,-0.01,-0.005,0.0,-0.024,-0.088,-0.078,-0.098,0.156
2.718,-0.029,-0.02,0.01,0.024,-0.02,-0.005,0.0,-0.029,-0.088,-0.078,-0.098,0.156
2.72,-0.044,-0.029,0.015,0.039,-0.029,-0.01,0.0,-0.034,-0.088,-0.078,-0.098,0.156
2.722,-0.059,-0.039,0.02,0.049,-0.039,-0.01,0.0,-0.039,-0.088,-0.078,-0.098,0.156
2.724,-0.049,-0.024,0.024,0.039,-0.039,0.0,-0.01,-0.029,-0.098,-0.078,-0.107,0.156
2.726,-0.039,-0.02,0.02,0.029,-0.029,0.0,-0.01,-0.029,-0.098,-0.078,-0.107,0.156
2.728,-0.029,-0.015,0.015,0.024,-0.024,0.0,-0.01,-0.029,-0.098,-0.078,-0.107,0.156
2.73,-0.02,-0.01,0.01,0.015,-0.015,0.0,-0.01,-0.029,-0.098,-0.078,-0.107,0.156
2.732,-0.024,-0.015,0.01,0.02,-0.02,-0.005,-0.01,-0.034,-0.098,-0.078,-0.107,0.156
2.734,-0.029,-0.02,0.01,0.024,-0.02,-0.005,-0.01,-0.039,-0.098,-0.078,-0.107,0.156
2.736,-0.034,-0.024,0.01,0.029,-0.024,-0.01,-0.01,-0.044,-0.098,-0.078,-0.107,0.156
2.738,-0.039,-0.029,0.01,0.034,-0.024,-0.01,-0.01,-0.049,-0.098,-0.078,-0.107,0.156
2.74,-0.029,-0.015,0.015,0.024,-0.024,0.0,0.0,-0.039,-0.098,-0.078,-0.098,0.166
2.742,-0.02,-0.01,0.01,0.015,-0.015,0.0,0.0,-0.039,-0.098,-0.078,-0.098,0.166
2.744,-0.01,-0.005,0.005,0.01,-0.01,0.0,0.0,-0.039,-0.098,-0.078,-0.098,0.166
2.746,0.0,0.0,0.0,0.0,0.0,0.0,0.0,-0.039,-0.098,-0.078,-0.098,0.166
2.748,-0.01,-0.005,0.005,0.01,-0.01,0.0,-0.005,-0.049,-0.107,-0.088,-0.107,0.166
2.75,-0.02,-0.01,0.01,0.015,-0.015,0.0,-0.01,-0.049,-0.107,-0.088,-0.107,0.166
2.752,-0.029,-0.015,0.015,0.024,-0.024,0.0,-0.015,-0.049,-0.107,-0.088,-0.107,0.166
2.754,-0.039,-0.02,0.02,0.029,-0.029,0.0,-0.02,-0.049,-0.107,-0.088,-0.107,0.166
2.756,-0.039,-0.02,0.02,0.029,-0.029,0.0,-0.015,-0.039,-0.102,-0.078,-0.102,0.176
2.758,-0.039,-0.02,0.02,0.029,-0.029,0.0,-0.01,-0.039,-0.098,-0.078,-0.098,0.176
2.76,-0.039,-0.02,0.02,0.029,-0.029,0.0,-0.005,-0.039,-0.093,-0.078,-0.093,0.176
2.762,-0.039,-0.02,0.02,0.029,-0.029,0.0,0.0,-0.039,-0.088,-0.078,-0.088,0.176
2.764,-0.039,-0.024,0.015,0.034,-0.029,-0.005,-0.015,-0.044,-0.102,-0.083,-0.102,0.161
2.766,-0.039,-0.029,0.01,0.034,-0.024,-0.01,-0.02,-0.049,-0.107,-0.088,-0.107,0.156
2.768,-0.039,-0.034,0.005,0.039,-0.024,-0.015,-0.024,-0.054,-0.112,-0.093,-0.112,0.151
2.77,-0.039,-0.039,0.0,0.039,-0.02,-0.02,-0.029,-0.059,-0.117,-0.098,-0.117,0.146
2.772,-0.049,-0.029,0.02,0.039,-0.034,-0.005,-0.02,-0.059,-0.107,-0.098,-0.107,0.137
2.774,-0.049,-0.029,0.02,0.039,-0.034,-0.005,-0.02,-0.059,-0.107,-0.098,-0.107,0.137
2.776,-0.049,-0.029,0.02,0.039,-0.034,-0.005,-0.02,-0.059,-0.107,-0.098,-0.107,0.137
2.778,-0.049,-0.029,0.02,0.039,-0.034,-0.005,-0.02,-0.059,-0.107,-0.098,-0.107,0.137
2.78,-0.044,-0.02,0.024,0.034,-0.034,0.0,-0.02,-0.059,-0.117,-0.088,-0.107,0.127
2.782,-0.039,-0.02,0.02,0.029,-0.029,0.0,-0.02,-0.059,-0.117,-0.088,-0.107,0.127
2.784,-0.034,-0.02,0.015,0.029,-0.024,-0.005,-0.02,-0.059,-0.117,-0.088,-0.107,0.127
2.786,-0.029,-0.02,0.01,0.024,-0.02,-0.005,-0.02,-0.059,-0.117,-0.088,-0.107,0.127
2.788,-0.029,-0.029,0.0,0.029,-0.015,-0.015,-0.029,-0.059,-0.127,-0.098,-0.107,0.127
2.79,-0.029,-0.029,0.0,0.029,-0.015,-0.015,-0.029,-0.059,-0.127,-0.098,-0.107,0.127
2.792,-0.029,-0.029,0.0,0.029,-0.015,-0.015,-0.029,-0.059,-0.127,-0.098,-0.107,0.127
2.794,-0.029,-0.029,0.0,0.029,-0.015,-0.015,-0.029,-0.059,-0.127,-0.098,-0.107,0.127
2.796,-0.029,-0.02,0.01,0.024,-0.02,-0.005,-0.029,-0.059,-0.117,-0.088,-0.098,0.117
2.798,-0.029,-0.02,0.01,0.024,-0.02,-0.005,-0.029,-0.059,-0.117,-0.088,-0.098,0.117
2.8,-0.029,-0.02,0.01,0.024,-0.02,-0.005,-0.029,-0.059,-0.117,-0.088,-0.098,0.117
2.802,-0.029,-0.02,0.01,0.024,-0.02,-0.005,-0.029,-0.059,-0.117,-0.088,-0.098,0.117
2.804,-0.029,-0.02,0.01,0.024,-0.02,-0.005,-0.039,-0.059,-0.117,-0.088,-0.098,0.107
2.806,-0.029,-0.02,0.01,0.024,-0.02,-0.005,-0.039,-0.059,-0.117,-0.088,-0.098,0.107
2.808,-0.029,-0.02,0.01,0.024,-0.02,-0.005,-0.039,-0.059,-0.117,-0.088,-0.098,0.107
2.81,-0.029,-0.02,0.01,0.024,-0.02,-0.005,-0.039,-0.059,-0.117,-0.088,-0.098,0.107
2.812,-0.034,-0.02,0.015,0.029,-0.024,-0.005,-0.049,-0.068,-0.117,-0.098,-0.098,0.107
2.814,-0.039,-0.02,0.02,0.029,-0.029,0.0,-0.049,-0.068,-0.117,-0.098,-0.098,0.107
2.816,-0.044,-0.02,0.024,0.034,-0.034,0.0,-0.049,-0.068,-0.117,-0.098,-0.098,0.107
2.818,-0.049,-0.02,0.029,0.034,-0.039,0.005,-0.049,-0.068,-0.117,-0.098,-0.098,0.107
2.82,-0.039,-0.024,0.015,0.034,-0.029,-0.005,-0.063,-0.068,-0.127,-0.107,-0.107,0.098
2.822,-0.039,-0.029,0.01,0.034,-0.024,-0.01,-0.068,-0.068,-0.127,-0.107,-0.107,0.098
2.824,-0.039,-0.034,0.005,0.039,-0.024,-0.015,-0.073,-0.068,-0.127,-0.107,-0.107,0.098
2.826,-0.039,-0.039,0.0,0.039,-0.02,-0.02,-0.078,-0.068,-0.127,-0.107,-0.107,0.098
2.828,-0.039,-0.049,-0.01,0.044,-0.015,-0.029,-0.068,-0.073,-0.132,-0.117,-0.117,0.088
2.83,-0.039,-0.049,-0.01,0.044,-0.015,-0.029,-0.068,-0.078,-0.137,-0.117,-0.117,0.088
2.832,-0.039,-0.049,-0.01,0.044,-0.015,-0.029,-0.068,-0.083,-0.142,-0.117,-0.117,0.088
2.834,-0.039,-0.049,-0.01,0.044,-0.015,-0.029,-0.068,-0.088,-0.146,-0.117,-0.117,0.088
2.836,-0.034,-0.039,-0.005,0.039,-0.015,-0.024,-0.054,-0.073,-0.132,-0.102,-0.102,0.093
2.838,-0.029,-0.029,0.0,0.029,-0.015,-0.015,-0.049,-0.068,-0.127,-0.098,-0.098,0.098
2.84,-0.024,-0.02,0.005,0.024,-0.015,-0.01,-0.044,-0.063,-0.122,-0.093,-0.093,0.102
2.842,-0.02,-0.01,0.01,0.015,-0.015,0.0,-0.039,-0.059,-0.117,-0.088,-0.088,0.107
2.844,-0.024,-0.02,0.005,0.024,-0.015,-0.01,-0.029,-0.068,-0.127,-0.088,-0.088,0.098
2.846,-0.029,-0.02,0.01,0.024,-0.02,-0.005,-0.029,-0.068,-0.127,-0.088,-0.088,0.098
2.848,-0.034,-0.02,0.015,0.029,-0.024,-0.005,-0.029,-0.068,-0.127,-0.088,-0.088,0.098
2.85,-0.039,-0.02,0.02,0.029,-0.029,0.0,-0.029,-0.068,-0.127,-0.088,-0.088,0.098
2.852,-0.044,-0.034,0.01,0.039,-0.029,-0.015,-0.034,-0.078,-0.137,-0.098,-0.098,0.083
2.854,-0.049,-0.039,0.01,0.044,-0.029,-0.015,-0.039,-0.078,-0.137,-0.098,-0.098,0.078
2.856,-0.054,-0.044,0.01,0.049,-0.034,-0.02,-0.044,-0.078,-0.137,-0.098,-0.098,0.073
2.858,-0.059,-0.049,0.01,0.054,-0.034,-0.02,-0.049,-0.078,-0.137,-0.098,-0.098,0.068
2.86,-0.054,-0.044,0.01,0.049,-0.034,-0.02,-0.039,-0.068,-0.137,-0.098,-0.098,0.063
2.862,-0.049,-0.039,0.01,0.044,-0.029,-0.015,-0.039,-0.068,-0.137,-0.098,-0.098,0.059
2.864,-0.044,-0.034,0.01,0.039,-0.029,-0.015,-0.039,-0.068,-0.137,-0.098,-0.098,0.054
2.866,-0.039,-0.029,0.01,0.034,-0.024,-0.01,-0.039,-0.068,-0.137,-0.098,-0.098,0.049
2.868,-0.039,-0.02,0.02,0.029,-0.029,0.0,-0.029,-0.059,-0.146,-0.107,-0.098,0.044
2.87,-0.039,-0.02,0.02,0.029,-0.029,0.0,-0.029,-0.059,-0.146,-0.107,-0.098,0.039
2.872,-0.039,-0.02,0.02,0.029,-0.029,0.0,-0.029,-0.059,-0.146,-0.107,-0.098,0.034
2.874,-0.039,-0.02,0.02,0.029,-0.029,0.0,-0.029,-0.059,-0.146,-0.107,-0.098,0.029
2.876,-0.049,-0.029,0.02,0.039,-0.034,-0.005,-0.039,-0.068,-0.146,-0.098,-0.098,0.02
2.878,-0.049,-0.029,0.02,0.039,-0.034,-0.005,-0.039,-0.068,-0.146,-0.098,-0.098,0.02
2.88,-0.049,-0.029,0.02,0.039,-0.034,-0.005,-0.039,-0.068,-0.146,-0.098,-0.098,0.02
2.882,-0.049,-0.029,0.02,0.039,-0.034,-0.005,-0.039,-0.068,-0.146,-0.098,-0.098,0.02
2.884,-0.049,-0.039,0.01,0.044,-0.029,-0.015,-0.029,-0.059,-0.137,-0.098,-0.088,0.029
2.886,-0.049,-0.039,0.01,0.044,-0.029,-0.015,-0.029,-0.059,-0.137,-0.098,-0.088,0.029
2.888,-0.049,-0.039,0.01,0.044,-0.029,-0.015,-0.029,-0.059,-0.137,-0.098,-0.088,0.029
2.89,-0.049,-0.039,0.01,0.044,-0.029,-0.015,-0.029,-0.059,-0.137,-0.098,-0.088,0.029
2.892,-0.054,-0.049,0.005,0.054,-0.029,-0.024,-0.039,-0.068,-0.142,-0.107,-0.098,0.02
2.894,-0.059,-0.049,0.01,0.054,-0.034,-0.02,-0.039,-0.068,-0.146,-0.107,-0.098,0.02
2.896,-0.063,-0.049,0.015,0.059,-0.039,-0.02,-0.039,-0.068,-0.151,-0.107,-0.098,0.02
2.898,-0.068,-0.049,0.02,0.059,-0.044,-0.015,-0.039,-0.068,-0.156,-0.107,-0.098,0.02
2.9,-0.063,-0.039,0.024,0.054,-0.044,-0.01,-0.029,-0.078,-0.156,-0.107,-0.098,0.02
2.902,-0.059,-0.039,0.02,0.049,-0.039,-0.01,-0.029,-0.078,-0.156,-0.107,-0.098,0.02
2.904,-0.054,-0.039,0.015,0.049,-0.034,-0.015,-0.029,-0.078,-0.156,-0.107,-0.098,0.02
2.906,-0.049,-0.039,0.01,0.044,-0.029,-0.015,-0.029,-0.078,-0.156,-0.107,-0.098,0.02
2.908,-0.039,-0.029,0.01,0.034,-0.024,-0.01,-0.029,-0.068,-0.156,-0.107,-0.088,0.01
2.91,-0.039,-0.029,0.01,0.034,-0.024,-0.01,-0.029,-0.068,-0.156,-0.107,-0.088,0.01
2.912,-0.039,-0.029,0.01,0.034,-0.024,-0.01,-0.029,-0.068,-0.156,-0.107,-0.088,0.01
2.914,-0.039,-0.029,0.01,0.034,-0.024,-0.01,-0.029,-0.068,-0.156,-0.107,-0.088,0.01
2.916,-0.039,-0.044,-0.005,0.044,-0.02,-0.024,-0.034,-0.083,-0.161,-0.112,-0.102,-0.005
2.918,-0.039,-0.049,-0.01,0.044,-0.015,-0.029,-0.039,-0.088,-0.166,-0.117,-0.107,-0.01
2.92,-0.039,-0.054,-0.015,0.049,-0.015,-0.034,-0.044,-0.093,-0.171,-0.122,-0.112,-0.015
2.922,-0.039,-0.059,-0.02,0.049,-0.01,-0.039,-0.049,-0.098,-0.176,-0.127,-0.117,-0.02
2.924,-0.044,-0.049,-0.005,0.049,-0.02,-0.029,-0.034,-0.083,-0.171,-0.112,-0.107,-0.015
2.926,-0.044,-0.049,-0.005,0.049,-0.02,-0.029,-0.024,-0.073,-0.166,-0.107,-0.107,-0.01
2.928,-0.034,-0.039,-0.005,0.039,-0.015,-0.024,-0.02,-0.068,-0.161,-0.098,-0.098,-0.005
2.93,-0.039,-0.02,0.02,0.029,-0.029,0.0,-0.015,-0.063,-0.156,-0.093,-0.088,0.0
2.932,-0.054,-0.029,0.024,0.044,-0.039,-0.005,-0.024,-0.063,-0.166,-0.102,-0.088,-0.01
2.934,-0.054,-0.029,0.024,0.044,-0.039,-0.005,-0.024,-0.063,-0.166,-0.102,-0.088,-0.01
2.936,-0.054,-0.034,0.02,0.044,-0.039,-0.01,-0.024,-0.063,-0.166,-0.102,-0.088,-0.01
2.938,-0.063,-0.039,0.024,0.054,-0.044,-0.01,-0.034,-0.068,-0.166,-0.107,-0.088,-0.01
2.94,-0.073,-0.044,0.029,0.059,-0.054,-0.01,-0.034,-0.078,-0.176,-0.117,-0.098,-0.029
2.942,-0.078,-0.054,0.024,0.068,-0.054,-0.015,-0.034,-0.083,-0.176,-0.122,-0.098,-0.029
2.944,-0.078,-0.044,0.034,0.063,-0.059,-0.005,-0.034,-0.083,-0.176,-0.122,-0.098,-0.024
2.946,-0.068,-0.039,0.029,0.054,-0.049,-0.005,-0.024,-0.083,-0.176,-0.117,-0.102,-0.024
2.948,-0.068,-0.039,0.029,0.054,-0.049,-0.005,-0.024,-0.073,-0.176,-0.107,-0.093,-0.029
2.95,-0.068,-0.039,0.029,0.054,-0.049,-0.005,-0.024,-0.068,-0.176,-0.117,-0.093,-0.029
2.952,-0.049,-0.029,0.02,0.039,-0.034,-0.005,-0.02,-0.059,-0.171,-0.102,-0.088,-0.024
2.954,-0.063,-0.029,0.034,0.049,-0.049,0.0,-0.02,-0.059,-0.171,-0.102,-0.088,-0.01
2.956,-0.078,-0.059,0.02,0.068,-0.049,-0.02,-0.02,-0.063,-0.161,-0.112,-0.088,-0.02
2.958,-0.093,-0.059,0.034,0.078,-0.063,-0.015,-0.015,-0.063,-0.161,-0.112,-0.088,-0.015
2.96,-0.093,-0.049,0.044,0.073,-0.068,-0.005,-0.015,-0.049,-0.156,-0.098,-0.083,-0.005
2.962,-0.059,-0.034,0.024,0.049,-0.044,-0.005,-0.015,-0.049,-0.151,-0.093,-0.078,0.0
