time,I,II,III,aVR,aVL,aVF,V1,V2,V3,V4,V5,V6
0.0,-0.029,-0.039,-0.01,0.034,-0.01,-0.024,-0.166,-0.098,-0.068,-0.039,-0.137,-0.068
0.002,-0.029,-0.039,-0.01,0.034,-0.01,-0.024,-0.166,-0.098,-0.068,-0.039,-0.137,-0.068
0.004,-0.029,-0.039,-0.01,0.034,-0.01,-0.024,-0.166,-0.098,-0.068,-0.039,-0.137,-0.068
0.006,-0.029,-0.039,-0.01,0.034,-0.01,-0.024,-0.166,-0.098,-0.068,-0.039,-0.137,-0.068
0.008,-0.039,-0.039,0.0,0.039,-0.02,-0.02,-0.171,-0.107,-0.078,-0.049,-0.142,-0.073
0.01,-0.039,-0.039,0.0,0.039,-0.02,-0.02,-0.176,-0.107,-0.078,-0.049,-0.146,-0.078
0.012,-0.039,-0.039,0.0,0.039,-0.02,-0.02,-0.181,-0.107,-0.078,-0.049,-0.151,-0.083
0.014,-0.039,-0.039,0.0,0.039,-0.02,-0.02,-0.185,-0.107,-0.078,-0.049,-0.156,-0.088
0.016,-0.044,-0.039,0.005,0.044,-0.024,-0.02,-0.181,-0.098,-0.063,-0.044,-0.142,-0.083
0.018,-0.049,-0.039,0.01,0.044,-0.029,-0.015,-0.176,-0.088,-0.059,-0.039,-0.137,-0.078
0.02,-0.054,-0.039,0.015,0.049,-0.034,-0.015,-0.171,-0.078,-0.054,-0.034,-0.132,-0.073
0.022,-0.059,-0.039,0.02,0.049,-0.039,-0.01,-0.166,-0.068,-0.049,-0.029,-0.127,-0.068
0.024,-0.049,-0.049,0.0,0.049,-0.024,-0.024,-0.171,-0.083,-0.059,-0.034,-0.142,-0.078
0.026,-0.049,-0.049,0.0,0.049,-0.024,-0.024,-0.176,-0.088,-0.068,-0.039,-0.146,-0.078
0.028,-0.049,-0.049,0.0,0.049,-0.024,-0.024,-0.181,-0.093,-0.078,-0.044,-0.151,-0.078
0.03,-0.049,-0.049,0.0,0.049,-0.024,-0.024,-0.185,-0.098,-0.088,-0.049,-0.156,-0.078
0.032,-0.034,-0.039,-0.005,0.039,-0.015,-0.024,-0.181,-0.088,-0.083,-0.039,-0.151,-0.068
0.034,-0.029,-0.039,-0.01,0.034,-0.01,-0.024,-0.176,-0.088,-0.078,-0.039,-0.146,-0.068
0.036,-0.024,-0.039,-0.015,0.034,-0.005,-0.029,-0.171,-0.088,-0.073,-0.039,-0.142,-0.068
0.038,-0.02,-0.039,-0.02,0.029,0.0,-0.029,-0.166,-0.088,-0.068,-0.039,-0.137,-0.068
0.04,-0.029,-0.044,-0.015,0.039,-0.01,-0.029,-0.176,-0.088,-0.078,-0.049,-0.146,-0.078
0.042,-0.039,-0.049,-0.01,0.044,-0.015,-0.029,-0.176,-0.088,-0.078,-0.049,-0.146,-0.078
0.044,-0.049,-0.054,-0.005,0.054,-0.024,-0.029,-0.176,-0.088,-0.078,-0.049,-0.146,-0.078
0.046,-0.059,-0.059,0.0,0.059,-0.029,-0.029,-0.176,-0.088,-0.078,-0.049,-0.146,-0.078
0.048,-0.068,-0.054,0.015,0.063,-0.044,-0.02,-0.176,-0.098,-0.078,-0.039,-0.137,-0.068
0.05,-0.068,-0.049,0.02,0.059,-0.044,-0.015,-0.176,-0.098,-0.078,-0.039,-0.137,-0.068
0.052,-0.068,-0.044,0.024,0.059,-0.049,-0.01,-0.176,-0.098,-0.078,-0.039,-0.137,-0.068
0.054,-0.068,-0.039,0.029,0.054,-0.049,-0.005,-0.176,-0.098,-0.078,-0.039,-0.137,-0.068
0.056,-0.059,-0.049,0.01,0.054,-0.034,-0.02,-0.185,-0.098,-0.088,-0.044,-0.146,-0.078
0.058,-0.059,-0.049,0.01,0.054,-0.034,-0.02,-0.185,-0.098,-0.088,-0.049,-0.146,-0.078
0.06,-0.059,-0.049,0.01,0.054,-0.034,-0.02,-0.185,-0.098,-0.088,-0.054,-0.146,-0.078
0.062,-0.059,-0.049,0.01,0.054,-0.034,-0.02,-0.185,-0.098,-0.088,-0.059,-0.146,-0.078
0.064,-0.049,-0.049,0.0,0.049,-0.024,-0.024,-0.185,-0.098,-0.088,-0.059,-0.146,-0.078
0.066,-0.039,-0.049,-0.01,0.044,-0.015,-0.029,-0.185,-0.098,-0.088,-0.059,-0.146,-0.078
0.068,-0.029,-0.049,-0.02,0.039,-0.005,-0.034,-0.185,-0.098,-0.088,-0.059,-0.146,-0.078
0.07,-0.02,-0.049,-0.029,0.034,0.005,-0.039,-0.185,-0.098,-0.088,-0.059,-0.146,-0.078
0.072,-0.034,-0.049,-0.015,0.044,-0.01,-0.034,-0.195,-0.088,-0.083,-0.049,-0.142,-0.073
0.074,-0.039,-0.049,-0.01,0.044,-0.015,-0.029,-0.195,-0.088,-0.078,-0.049,-0.137,-0.068
0.076,-0.044,-0.049,-0.005,0.049,-0.02,-0.029,-0.195,-0.088,-0.073,-0.049,-0.132,-0.063
0.078,-0.049,-0.049,0.0,0.049,-0.024,-0.024,-0.195,-0.088,-0.068,-0.049,-0.127,-0.059
0.08,-0.044,-0.034,0.01,0.039,-0.029,-0.015,-0.195,-0.088,-0.068,-0.049,-0.137,-0.068
0.082,-0.039,-0.029,0.01,0.034,-0.024,-0.01,-0.195,-0.088,-0.068,-0.049,-0.137,-0.068
0.084,-0.034,-0.024,0.01,0.029,-0.024,-0.01,-0.195,-0.088,-0.068,-0.049,-0.137,-0.068
0.086,-0.029,-0.02,0.01,0.024,-0.02,-0.005,-0.195,-0.088,-0.068,-0.049,-0.137,-0.068
0.088,-0.029,-0.029,0.0,0.029,-0.015,-0.015,-0.195,-0.088,-0.078,-0.039,-0.127,-0.059
0.09,-0.029,-0.029,0.0,0.029,-0.015,-0.015,-0.195,-0.088,-0.078,-0.039,-0.127,-0.059
0.092,-0.029,-0.029,0.0,0.029,-0.015,-0.015,-0.195,-0.088,-0.078,-0.039,-0.127,-0.059
0.094,-0.029,-0.029,0.0,0.029,-0.015,-0.015,-0.195,-0.088,-0.078,-0.039,-0.127,-0.059
0.096,-0.015,-0.02,-0.005,0.02,-0.005,-0.015,-0.185,-0.083,-0.068,-0.039,-0.127,-0.059
0.098,-0.01,-0.01,0.0,0.01,-0.005,-0.005,-0.185,-0.078,-0.068,-0.039,-0.127,-0.059
0.1,-0.005,0.0,0.005,0.005,-0.005,0.0,-0.185,-0.073,-0.068,-0.039,-0.127,-0.059
0.102,0.0,0.01,0.01,-0.005,-0.005,0.01,-0.185,-0.068,-0.068,-0.039,-0.127,-0.059
0.104,-0.015,-0.02,-0.005,0.02,-0.005,-0.015,-0.19,-0.088,-0.083,-0.054,-0.137,-0.073
0.106,-0.029,-0.039,-0.01,0.034,-0.01,-0.024,-0.195,-0.098,-0.088,-0.059,-0.146,-0.078
0.108,-0.044,-0.059,-0.015,0.054,-0.015,-0.039,-0.2,-0.107,-0.093,-0.063,-0.156,-0.083
0.11,-0.059,-0.078,-0.02,0.068,-0.02,-0.049,-0.205,-0.117,-0.098,-0.068,-0.166,-0.088
0.112,-0.073,-0.068,0.005,0.073,-0.039,-0.034,-0.2,-0.102,-0.093,-0.063,-0.156,-0.078
0.114,-0.078,-0.068,0.01,0.073,-0.044,-0.029,-0.195,-0.098,-0.088,-0.059,-0.156,-0.078
0.116,-0.083,-0.068,0.015,0.078,-0.049,-0.029,-0.19,-0.093,-0.083,-0.054,-0.156,-0.078
0.118,-0.088,-0.068,0.02,0.078,-0.054,-0.024,-0.185,-0.088,-0.078,-0.049,-0.156,-0.078
0.12,-0.078,-0.054,0.024,0.068,-0.054,-0.015,-0.195,-0.098,-0.078,-0.059,-0.156,-0.088
0.122,-0.068,-0.049,0.02,0.059,-0.044,-0.015,-0.195,-0.098,-0.078,-0.059,-0.156,-0.088
0.124,-0.059,-0.044,0.015,0.054,-0.039,-0.015,-0.195,-0.098,-0.078,-0.059,-0.156,-0.088
0.126,-0.049,-0.039,0.01,0.044,-0.029,-0.015,-0.195,-0.098,-0.078,-0.059,-0.156,-0.088
0.128,-0.049,-0.044,0.005,0.049,-0.029,-0.02,-0.185,-0.088,-0.068,-0.059,-0.156,-0.078
0.13,-0.049,-0.049,0.0,0.049,-0.024,-0.024,-0.185,-0.088,-0.068,-0.059,-0.156,-0.078
0.132,-0.049,-0.054,-0.005,0.054,-0.024,-0.029,-0.185,-0.088,-0.068,-0.059,-0.156,-0.078
0.134,-0.049,-0.059,-0.01,0.054,-0.02,-0.034,-0.185,-0.088,-0.068,-0.059,-0.156,-0.078
0.136,-0.029,-0.044,-0.015,0.039,-0.01,-0.029,-0.195,-0.098,-0.078,-0.068,-0.166,-0.088
0.138,-0.02,-0.039,-0.02,0.029,0.0,-0.029,-0.195,-0.098,-0.078,-0.068,-0.166,-0.088
0.14,-0.01,-0.034,-0.024,0.024,0.005,-0.029,-0.195,-0.098,-0.078,-0.068,-0.166,-0.088
0.142,0.0,-0.029,-0.029,0.015,0.015,-0.029,-0.195,-0.098,-0.078,-0.068,-0.166,-0.088
0.144,-0.01,-0.039,-0.029,0.024,0.01,-0.034,-0.19,-0.093,-0.073,-0.063,-0.166,-0.078
0.146,-0.02,-0.039,-0.02,0.029,0.0,-0.029,-0.185,-0.088,-0.068,-0.059,-0.166,-0.078
0.148,-0.029,-0.039,-0.01,0.034,-0.01,-0.024,-0.181,-0.083,-0.063,-0.054,-0.166,-0.078
0.15,-0.039,-0.039,0.0,0.039,-0.02,-0.02,-0.176,-0.078,-0.059,-0.049,-0.166,-0.078
0.152,-0.044,-0.039,0.005,0.044,-0.024,-0.02,-0.176,-0.078,-0.059,-0.039,-0.156,-0.068
0.154,-0.049,-0.039,0.01,0.044,-0.029,-0.015,-0.176,-0.078,-0.059,-0.039,-0.156,-0.068
0.156,-0.054,-0.039,0.015,0.049,-0.034,-0.015,-0.176,-0.078,-0.059,-0.039,-0.156,-0.068
0.158,-0.059,-0.039,0.02,0.049,-0.039,-0.01,-0.176,-0.078,-0.059,-0.039,-0.156,-0.068
0.16,-0.044,-0.034,0.01,0.039,-0.029,-0.015,-0.166,-0.078,-0.049,-0.039,-0.146,-0.059
0.162,-0.039,-0.029,0.01,0.034,-0.024,-0.01,-0.166,-0.078,-0.049,-0.039,-0.146,-0.059
0.164,-0.034,-0.024,0.01,0.029,-0.024,-0.01,-0.166,-0.078,-0.049,-0.039,-0.146,-0.059
0.166,-0.029,-0.02,0.01,0.024,-0.02,-0.005,-0.166,-0.078,-0.049,-0.039,-0.146,-0.059
0.168,-0.029,-0.034,-0.005,0.034,-0.015,-0.02,-0.176,-0.093,-0.059,-0.044,-0.161,-0.073
0.17,-0.029,-0.039,-0.01,0.034,-0.01,-0.024,-0.176,-0.098,-0.068,-0.049,-0.166,-0.078
0.172,-0.029,-0.044,-0.015,0.039,-0.01,-0.029,-0.176,-0.102,-0.078,-0.054,-0.171,-0.083
0.174,-0.029,-0.049,-0.02,0.039,-0.005,-0.034,-0.176,-0.107,-0.088,-0.059,-0.176,-0.088
0.176,-0.034,-0.039,-0.005,0.039,-0.015,-0.024,-0.181,-0.112,-0.088,-0.059,-0.185,-0.088
0.178,-0.039,-0.039,0.0,0.039,-0.02,-0.02,-0.185,-0.117,-0.088,-0.059,-0.185,-0.088
0.18,-0.044,-0.039,0.005,0.044,-0.024,-0.02,-0.19,-0.122,-0.088,-0.059,-0.185,-0.088
0.182,-0.049,-0.039,0.01,0.044,-0.029,-0.015,-0.195,-0.127,-0.088,-0.059,-0.185,-0.088
0.184,-0.044,-0.034,0.01,0.039,-0.029,-0.015,-0.19,-0.122,-0.078,-0.049,-0.176,-0.078
0.186,-0.039,-0.029,0.01,0.034,-0.024,-0.01,-0.185,-0.117,-0.078,-0.049,-0.176,-0.078
0.188,-0.034,-0.024,0.01,0.029,-0.024,-0.01,-0.181,-0.112,-0.078,-0.049,-0.176,-0.078
0.19,-0.029,-0.02,0.01,0.024,-0.02,-0.005,-0.176,-0.107,-0.078,-0.049,-0.176,-0.078
0.192,-0.024,-0.02,0.005,0.024,-0.015,-0.01,-0.176,-0.107,-0.068,-0.039,-0.176,-0.068
0.194,-0.02,-0.02,0.0,0.02,-0.01,-0.01,-0.176,-0.107,-0.068,-0.039,-0.176,-0.068
0.196,-0.015,-0.02,-0.005,0.02,-0.005,-0.015,-0.176,-0.107,-0.068,-0.039,-0.176,-0.068
0.198,-0.01,-0.02,-0.01,0.015,0.0,-0.015,-0.176,-0.107,-0.068,-0.039,-0.176,-0.068
0.2,-0.029,-0.034,-0.005,0.034,-0.015,-0.02,-0.176,-0.107,-0.068,-0.049,-0.176,-0.078
0.202,-0.039,-0.049,-0.01,0.044,-0.015,-0.029,-0.176,-0.107,-0.068,-0.049,-0.176,-0.078
0.204,-0.049,-0.063,-0.015,0.059,-0.02,-0.039,-0.176,-0.107,-0.068,-0.049,-0.176,-0.078
0.206,-0.059,-0.078,-0.02,0.068,-0.02,-0.049,-0.176,-0.107,-0.068,-0.049,-0.176,-0.078
0.208,-0.044,-0.059,-0.015,0.054,-0.015,-0.039,-0.171,-0.102,-0.059,-0.034,-0.171,-0.063
0.21,-0.039,-0.049,-0.01,0.044,-0.015,-0.029,-0.166,-0.098,-0.059,-0.029,-0.166,-0.059
0.212,-0.034,-0.039,-0.005,0.039,-0.015,-0.024,-0.161,-0.093,-0.059,-0.024,-0.161,-0.054
0.214,-0.029,-0.029,0.0,0.029,-0.015,-0.015,-0.156,-0.088,-0.059,-0.02,-0.156,-0.049
0.216,-0.029,-0.034,-0.005,0.034,-0.015,-0.02,-0.171,-0.093,-0.068,-0.034,-0.171,-0.059
0.218,-0.029,-0.039,-0.01,0.034,-0.01,-0.024,-0.176,-0.098,-0.068,-0.039,-0.176,-0.068
0.22,-0.029,-0.044,-0.015,0.039,-0.01,-0.029,-0.181,-0.102,-0.068,-0.044,-0.181,-0.078
0.222,-0.029,-0.049,-0.02,0.039,-0.005,-0.034,-0.185,-0.107,-0.068,-0.049,-0.185,-0.088
0.224,-0.044,-0.059,-0.015,0.054,-0.015,-0.039,-0.176,-0.107,-0.059,-0.049,-0.185,-0.088
0.226,-0.049,-0.059,-0.01,0.054,-0.02,-0.034,-0.176,-0.107,-0.059,-0.049,-0.185,-0.088
0.228,-0.054,-0.059,-0.005,0.059,-0.024,-0.034,-0.176,-0.107,-0.059,-0.049,-0.185,-0.088
0.23,-0.059,-0.059,0.0,0.059,-0.029,-0.029,-0.176,-0.107,-0.059,-0.049,-0.185,-0.088
0.232,-0.049,-0.039,0.01,0.044,-0.029,-0.015,-0.171,-0.102,-0.054,-0.044,-0.181,-0.073
0.234,-0.049,-0.029,0.02,0.039,-0.034,-0.005,-0.166,-0.098,-0.049,-0.039,-0.176,-0.068
0.236,-0.049,-0.02,0.029,0.034,-0.039,0.005,-0.161,-0.093,-0.044,-0.034,-0.171,-0.063
0.238,-0.049,-0.01,0.039,0.029,-0.044,0.015,-0.156,-0.088,-0.039,-0.029,-0.166,-0.059
0.24,-0.039,-0.02,0.02,0.029,-0.029,0.0,-0.171,-0.102,-0.054,-0.034,-0.171,-0.063
0.242,-0.029,-0.02,0.01,0.024,-0.02,-0.005,-0.176,-0.107,-0.059,-0.039,-0.176,-0.068
0.244,-0.02,-0.02,0.0,0.02,-0.01,-0.01,-0.181,-0.112,-0.063,-0.044,-0.181,-0.073
0.246,-0.01,-0.02,-0.01,0.015,0.0,-0.015,-0.185,-0.117,-0.068,-0.049,-0.185,-0.078
0.248,-0.029,-0.034,-0.005,0.034,-0.015,-0.02,-0.176,-0.117,-0.068,-0.059,-0.185,-0.078
0.25,-0.039,-0.039,0.0,0.039,-0.02,-0.02,-0.176,-0.117,-0.068,-0.059,-0.185,-0.078
0.252,-0.049,-0.044,0.005,0.049,-0.029,-0.02,-0.176,-0.117,-0.068,-0.059,-0.185,-0.078
0.254,-0.059,-0.049,0.01,0.054,-0.034,-0.02,-0.176,-0.117,-0.068,-0.059,-0.185,-0.078
0.256,-0.049,-0.039,0.01,0.044,-0.029,-0.015,-0.176,-0.107,-0.068,-0.049,-0.185,-0.068
0.258,-0.049,-0.039,0.01,0.044,-0.029,-0.015,-0.176,-0.107,-0.068,-0.049,-0.185,-0.068
0.26,-0.049,-0.039,0.01,0.044,-0.029,-0.015,-0.176,-0.107,-0.068,-0.049,-0.185,-0.068
0.262,-0.049,-0.039,0.01,0.044,-0.029,-0.015,-0.176,-0.107,-0.068,-0.049,-0.185,-0.068
0.264,-0.034,-0.029,0.005,0.034,-0.02,-0.015,-0.171,-0.098,-0.063,-0.044,-0.181,-0.059
0.266,-0.029,-0.02,0.01,0.024,-0.02,-0.005,-0.166,-0.098,-0.059,-0.039,-0.176,-0.059
0.268,-0.024,-0.01,0.015,0.02,-0.02,0.0,-0.161,-0.098,-0.054,-0.034,-0.171,-0.059
0.27,-0.02,0.0,0.02,0.01,-0.02,0.01,-0.156,-0.098,-0.049,-0.029,-0.166,-0.059
0.272,-0.024,-0.01,0.015,0.02,-0.02,0.0,-0.146,-0.098,-0.049,-0.039,-0.156,-0.059
0.274,-0.029,-0.01,0.02,0.02,-0.024,0.005,-0.146,-0.098,-0.049,-0.039,-0.156,-0.059
0.276,-0.034,-0.01,0.024,0.024,-0.029,0.005,-0.146,-0.098,-0.049,-0.039,-0.156,-0.059
0.278,-0.039,-0.01,0.029,0.024,-0.034,0.01,-0.146,-0.098,-0.049,-0.039,-0.156,-0.059
0.28,-0.029,0.005,0.034,0.015,-0.034,0.02,-0.142,-0.088,-0.039,-0.024,-0.146,-0.054
0.282,-0.029,0.01,0.039,0.01,-0.034,0.024,-0.137,-0.088,-0.039,-0.02,-0.146,-0.049
0.284,-0.029,0.015,0.044,0.01,-0.039,0.029,-0.132,-0.088,-0.039,-0.015,-0.146,-0.044
0.286,-0.029,0.02,0.049,0.005,-0.039,0.034,-0.127,-0.088,-0.039,-0.01,-0.146,-0.039
0.288,-0.015,0.02,0.034,0.0,-0.024,0.024,-0.127,-0.098,-0.049,-0.015,-0.156,-0.044
0.29,-0.01,0.02,0.029,-0.005,-0.02,0.024,-0.127,-0.098,-0.049,-0.02,-0.156,-0.049
0.292,-0.005,0.02,0.024,-0.005,-0.015,0.02,-0.127,-0.098,-0.049,-0.024,-0.156,-0.054
0.294,0.0,0.02,0.02,-0.01,-0.01,0.02,-0.127,-0.098,-0.049,-0.029,-0.156,-0.059
0.296,0.015,0.029,0.015,-0.02,0.0,0.02,-0.117,-0.098,-0.049,-0.039,-0.166,-0.059
0.298,0.02,0.029,0.01,-0.024,0.005,0.02,-0.117,-0.098,-0.049,-0.039,-0.166,-0.059
0.3,0.024,0.029,0.005,-0.024,0.01,0.015,-0.117,-0.098,-0.049,-0.039,-0.166,-0.059
0.302,0.029,0.029,0.0,-0.029,0.015,0.015,-0.117,-0.098,-0.049,-0.039,-0.166,-0.059
0.304,0.015,0.029,0.015,-0.02,0.0,0.02,-0.112,-0.083,-0.039,-0.029,-0.156,-0.039
0.306,0.0,0.029,0.029,-0.015,-0.015,0.029,-0.107,-0.078,-0.029,-0.02,-0.146,-0.029
0.308,-0.015,0.029,0.044,-0.005,-0.029,0.034,-0.102,-0.073,-0.02,-0.01,-0.137,-0.02
0.31,-0.024,0.029,0.054,0.0,-0.039,0.039,-0.112,-0.063,-0.005,0.0,-0.117,-0.01
0.312,-0.024,0.039,0.063,-0.005,-0.044,0.049,-0.122,-0.073,0.005,0.01,-0.107,-0.01
0.314,-0.02,0.039,0.059,-0.01,-0.039,0.049,-0.137,-0.083,-0.01,0.01,-0.107,-0.01
0.316,-0.015,0.039,0.054,-0.01,-0.034,0.044,-0.146,-0.083,-0.01,0.005,-0.117,-0.015
0.318,-0.015,0.044,0.059,-0.015,-0.039,0.049,-0.146,-0.083,-0.01,0.005,-0.117,-0.015
0.32,0.0,0.054,0.054,-0.024,-0.029,0.054,-0.151,-0.083,0.0,0.005,-0.122,-0.015
0.322,0.02,0.063,0.044,-0.039,-0.015,0.054,-0.151,-0.088,0.0,0.005,-0.122,-0.01
0.324,0.034,0.073,0.039,-0.054,-0.005,0.054,-0.156,-0.088,0.0,0.01,-0.117,-0.01
0.326,0.054,0.083,0.029,-0.068,0.01,0.054,-0.156,-0.088,0.005,0.01,-0.117,-0.01
0.328,0.044,0.093,0.049,-0.068,-0.005,0.068,-0.151,-0.073,0.01,0.015,-0.112,0.0
0.33,0.039,0.098,0.059,-0.068,-0.01,0.078,-0.151,-0.068,0.015,0.02,-0.107,0.0
0.332,0.044,0.107,0.063,-0.073,-0.01,0.083,-0.151,-0.059,0.02,0.029,-0.098,0.01
0.334,0.049,0.107,0.059,-0.078,-0.005,0.083,-0.151,-0.054,0.024,0.034,-0.093,0.015
0.336,0.063,0.083,0.02,-0.073,0.02,0.049,-0.181,-0.073,0.005,0.015,-0.102,0.005
0.338,0.049,0.068,0.02,-0.059,0.015,0.044,-0.195,-0.093,-0.01,0.0,-0.112,-0.005
0.34,0.054,0.059,0.005,-0.054,0.024,0.029,-0.21,-0.102,-0.02,-0.01,-0.122,-0.015
0.342,0.068,0.044,-0.024,-0.054,0.044,0.01,-0.229,-0.112,-0.029,-0.02,-0.132,-0.024
0.344,0.068,0.024,-0.044,-0.044,0.054,-0.01,-0.229,-0.107,-0.02,-0.015,-0.122,-0.015
0.346,0.063,0.01,-0.054,-0.034,0.059,-0.024,-0.224,-0.102,-0.02,-0.015,-0.122,-0.02
0.348,0.034,-0.005,-0.039,-0.015,0.034,-0.024,-0.21,-0.098,-0.024,-0.015,-0.122,-0.02
0.35,0.01,-0.029,-0.039,0.01,0.024,-0.034,-0.205,-0.098,-0.029,-0.015,-0.132,-0.029
0.352,0.005,-0.044,-0.049,0.02,0.024,-0.049,-0.224,-0.102,-0.024,-0.01,-0.137,-0.024
0.354,0.01,-0.034,-0.044,0.015,0.024,-0.039,-0.22,-0.102,-0.024,-0.01,-0.142,-0.029
0.356,0.034,-0.005,-0.039,-0.015,0.034,-0.024,-0.215,-0.102,-0.024,-0.01,-0.127,-0.029
0.358,0.049,0.015,-0.034,-0.029,0.039,-0.01,-0.21,-0.102,-0.024,-0.01,-0.122,-0.034
0.36,0.024,0.005,-0.02,-0.015,0.02,-0.01,-0.21,-0.098,-0.024,-0.024,-0.142,-0.034
0.362,0.02,0.005,-0.015,-0.01,0.015,-0.005,-0.21,-0.102,-0.024,-0.024,-0.142,-0.034
0.364,0.015,0.005,-0.01,-0.01,0.01,-0.005,-0.2,-0.102,-0.024,-0.015,-0.137,-0.024
0.366,0.005,0.005,0.0,-0.005,0.0,0.0,-0.2,-0.098,-0.02,-0.015,-0.137,-0.024
0.368,-0.015,-0.005,0.01,0.01,-0.015,0.0,-0.21,-0.088,-0.02,-0.02,-0.127,-0.024
0.37,-0.02,-0.01,0.01,0.015,-0.015,0.0,-0.21,-0.088,-0.02,-0.02,-0.127,-0.024
0.372,-0.015,-0.01,0.005,0.015,-0.01,-0.005,-0.21,-0.088,-0.02,-0.02,-0.127,-0.024
0.374,-0.029,-0.015,0.015,0.024,-0.024,0.0,-0.2,-0.088,-0.02,-0.02,-0.137,-0.029
0.376,-0.024,-0.02,0.005,0.024,-0.015,-0.01,-0.2,-0.098,-0.029,-0.029,-0.142,-0.049
0.378,-0.02,-0.029,-0.01,0.024,-0.005,-0.02,-0.19,-0.093,-0.029,-0.034,-0.151,-0.054
0.38,0.005,-0.02,-0.024,0.01,0.015,-0.024,-0.185,-0.093,-0.029,-0.039,-0.161,-0.059
0.382,0.039,-0.01,-0.049,-0.015,0.044,-0.029,-0.185,-0.102,-0.039,-0.049,-0.171,-0.059
0.384,-0.005,-0.044,-0.039,0.024,0.015,-0.044,-0.185,-0.122,-0.054,-0.063,-0.176,-0.063
0.386,-0.034,-0.063,-0.029,0.049,-0.005,-0.049,-0.19,-0.132,-0.063,-0.068,-0.181,-0.068
0.388,-0.039,-0.068,-0.029,0.054,-0.005,-0.049,-0.19,-0.137,-0.068,-0.078,-0.195,-0.073
0.39,-0.034,-0.078,-0.044,0.059,0.005,-0.063,-0.195,-0.142,-0.073,-0.078,-0.195,-0.078
0.392,-0.015,-0.073,-0.059,0.044,0.02,-0.068,-0.19,-0.151,-0.078,-0.078,-0.205,-0.083
0.394,-0.01,-0.063,-0.054,0.039,0.02,-0.059,-0.19,-0.146,-0.078,-0.078,-0.2,-0.083
0.396,-0.005,-0.059,-0.054,0.034,0.024,-0.059,-0.195,-0.146,-0.078,-0.073,-0.195,-0.083
0.398,0.0,-0.059,-0.059,0.029,0.029,-0.059,-0.195,-0.151,-0.083,-0.073,-0.195,-0.088
0.4,-0.005,-0.059,-0.054,0.034,0.024,-0.059,-0.19,-0.137,-0.088,-0.063,-0.19,-0.088
0.402,-0.01,-0.059,-0.049,0.034,0.02,-0.054,-0.19,-0.132,-0.083,-0.068,-0.185,-0.083
0.404,-0.015,-0.059,-0.044,0.039,0.015,-0.054,-0.181,-0.127,-0.078,-0.068,-0.181,-0.078
0.406,-0.034,-0.054,-0.02,0.044,-0.01,-0.039,-0.181,-0.122,-0.073,-0.063,-0.176,-0.073
0.408,-0.039,-0.039,0.0,0.039,-0.02,-0.02,-0.166,-0.112,-0.063,-0.059,-0.176,-0.063
0.41,-0.02,-0.034,-0.015,0.029,-0.005,-0.024,-0.161,-0.112,-0.063,-0.054,-0.171,-0.063
0.412,-0.039,-0.034,0.005,0.039,-0.024,-0.015,-0.151,-0.107,-0.059,-0.049,-0.171,-0.063
0.414,-0.059,-0.039,0.02,0.049,-0.039,-0.01,-0.146,-0.107,-0.059,-0.049,-0.171,-0.073
0.416,-0.034,-0.049,-0.015,0.044,-0.01,-0.034,-0.122,-0.122,-0.078,-0.059,-0.19,-0.083
0.418,-0.024,-0.044,-0.02,0.034,-0.005,-0.034,-0.107,-0.122,-0.078,-0.063,-0.19,-0.083
0.42,-0.024,-0.044,-0.02,0.034,-0.005,-0.034,-0.083,-0.122,-0.073,-0.063,-0.185,-0.083
0.422,-0.02,-0.044,-0.024,0.034,0.0,-0.034,-0.068,-0.117,-0.068,-0.059,-0.185,-0.078
0.424,-0.044,-0.039,0.005,0.044,-0.024,-0.02,-0.044,-0.107,-0.059,-0.044,-0.185,-0.063
0.426,-0.059,-0.049,0.01,0.054,-0.034,-0.02,-0.029,-0.102,-0.059,-0.044,-0.181,-0.063
0.428,-0.049,-0.049,0.0,0.049,-0.024,-0.024,-0.015,-0.098,-0.059,-0.044,-0.181,-0.068
0.43,-0.034,-0.049,-0.015,0.044,-0.01,-0.034,0.005,-0.093,-0.059,-0.039,-0.181,-0.068
0.432,-0.024,-0.063,-0.039,0.044,0.005,-0.054,0.01,-0.107,-0.068,-0.049,-0.181,-0.078
0.434,-0.024,-0.063,-0.039,0.044,0.005,-0.054,0.01,-0.112,-0.073,-0.054,-0.185,-0.088
0.436,-0.02,-0.068,-0.049,0.044,0.015,-0.059,0.015,-0.112,-0.073,-0.054,-0.185,-0.088
0.438,-0.02,-0.073,-0.054,0.049,0.015,-0.063,0.02,-0.107,-0.073,-0.054,-0.181,-0.083
0.44,-0.029,-0.059,-0.029,0.044,0.0,-0.044,0.029,-0.102,-0.059,-0.049,-0.176,-0.073
0.442,-0.034,-0.054,-0.02,0.044,-0.01,-0.039,0.029,-0.098,-0.059,-0.049,-0.171,-0.068
0.444,-0.034,-0.044,-0.01,0.039,-0.015,-0.029,0.029,-0.102,-0.068,-0.049,-0.171,-0.073
0.446,-0.039,-0.039,0.0,0.039,-0.02,-0.02,0.029,-0.088,-0.059,-0.049,-0.166,-0.059
0.448,-0.049,-0.044,0.005,0.049,-0.029,-0.02,0.049,-0.088,-0.059,-0.044,-0.161,-0.049
0.45,-0.044,-0.049,-0.005,0.049,-0.02,-0.029,0.054,-0.093,-0.049,-0.039,-0.161,-0.059
0.452,-0.044,-0.049,-0.005,0.049,-0.02,-0.029,0.054,-0.083,-0.049,-0.034,-0.156,-0.059
0.454,-0.049,-0.063,-0.015,0.059,-0.02,-0.039,0.044,-0.078,-0.039,-0.024,-0.156,-0.059
0.456,-0.093,-0.083,0.01,0.088,-0.054,-0.039,0.059,-0.063,-0.024,-0.02,-0.156,-0.068
0.458,-0.102,-0.063,0.039,0.083,-0.073,-0.015,0.073,-0.039,0.0,-0.005,-0.156,-0.073
0.46,-0.093,-0.039,0.054,0.068,-0.073,0.005,0.098,-0.005,0.029,0.005,-0.146,-0.073
0.462,-0.098,-0.039,0.059,0.068,-0.078,0.01,0.107,0.049,0.073,0.034,-0.127,-0.068
0.464,-0.068,-0.039,0.029,0.054,-0.049,-0.005,0.127,0.098,0.122,0.083,-0.107,-0.059
0.466,-0.039,-0.024,0.015,0.034,-0.029,-0.005,0.166,0.166,0.19,0.132,-0.083,-0.044
0.468,-0.049,-0.044,0.005,0.049,-0.029,-0.02,0.22,0.239,0.254,0.195,-0.039,-0.02
0.47,-0.029,-0.054,-0.024,0.044,-0.005,-0.039,0.264,0.278,0.322,0.254,0.01,0.0
0.472,0.024,0.0,-0.024,-0.01,0.024,-0.015,0.288,0.327,0.42,0.361,0.083,0.039
0.474,0.068,0.049,-0.02,-0.059,0.044,0.015,0.312,0.415,0.561,0.503,0.19,0.102
0.476,0.102,0.054,-0.049,-0.078,0.073,0.0,0.322,0.503,0.703,0.639,0.278,0.151
0.478,0.142,0.063,-0.078,-0.102,0.107,-0.01,0.303,0.566,0.825,0.766,0.376,0.205
0.48,0.229,0.146,-0.083,-0.185,0.156,0.029,0.264,0.659,0.991,0.937,0.532,0.307
0.482,0.312,0.264,-0.049,-0.288,0.181,0.107,0.176,0.766,1.161,1.118,0.717,0.429
0.484,0.361,0.298,-0.063,-0.327,0.21,0.117,0.034,0.825,1.274,1.249,0.859,0.542
0.486,0.39,0.288,-0.102,-0.337,0.244,0.093,-0.151,0.82,1.337,1.332,0.952,0.615
0.488,0.464,0.293,-0.171,-0.376,0.317,0.059,-0.327,0.81,1.401,1.396,1.01,0.669
0.49,0.547,0.361,-0.185,-0.454,0.366,0.088,-0.493,0.8,1.44,1.454,1.103,0.747
0.492,0.581,0.459,-0.122,-0.517,0.351,0.166,-0.678,0.683,1.381,1.435,1.137,0.81
0.494,0.561,0.508,-0.054,-0.532,0.307,0.224,-0.81,0.444,1.137,1.254,1.039,0.791
0.496,0.532,0.478,-0.054,-0.503,0.293,0.21,-0.883,0.102,0.776,0.937,0.834,0.693
0.498,0.459,0.41,-0.049,-0.434,0.254,0.181,-0.937,-0.346,0.264,0.493,0.537,0.561
0.5,0.366,0.312,-0.054,-0.337,0.21,0.127,-0.981,-0.839,-0.361,-0.034,0.176,0.381
0.502,0.303,0.22,-0.083,-0.259,0.19,0.068,-1.025,-1.2,-0.869,-0.459,-0.122,0.224
0.504,0.293,0.19,-0.102,-0.239,0.195,0.044,-1.049,-1.352,-1.108,-0.659,-0.254,0.166
0.506,0.259,0.205,-0.054,-0.229,0.156,0.073,-1.049,-1.371,-1.161,-0.708,-0.293,0.146
0.508,0.215,0.195,-0.02,-0.205,0.117,0.088,-1.005,-1.313,-1.122,-0.712,-0.332,0.107
0.51,0.166,0.122,-0.044,-0.142,0.102,0.039,-0.956,-1.23,-1.074,-0.712,-0.39,0.044
0.512,0.112,0.059,-0.054,-0.083,0.083,0.0,-0.927,-1.166,-1.02,-0.698,-0.434,-0.024
0.514,0.083,0.049,-0.034,-0.063,0.059,0.005,-0.859,-1.088,-0.952,-0.664,-0.439,-0.049
0.516,0.098,0.049,-0.049,-0.073,0.073,0.0,-0.766,-1.005,-0.883,-0.625,-0.439,-0.063
0.518,0.088,0.039,-0.049,-0.063,0.068,-0.005,-0.683,-0.908,-0.8,-0.595,-0.434,-0.078
0.52,0.029,0.029,0.0,-0.029,0.015,0.015,-0.586,-0.805,-0.708,-0.551,-0.42,-0.093
0.522,0.015,0.015,0.0,-0.015,0.005,0.005,-0.488,-0.693,-0.615,-0.493,-0.39,-0.083
0.524,0.034,0.034,0.0,-0.034,0.015,0.015,-0.41,-0.61,-0.532,-0.439,-0.376,-0.098
0.526,0.0,0.044,0.044,-0.02,-0.024,0.044,-0.337,-0.537,-0.464,-0.386,-0.351,-0.088
0.528,-0.039,0.01,0.049,0.015,-0.044,0.029,-0.249,-0.444,-0.39,-0.312,-0.317,-0.063
0.53,-0.024,-0.029,-0.005,0.029,-0.01,-0.02,-0.166,-0.371,-0.327,-0.254,-0.298,-0.063
0.532,-0.005,-0.029,-0.024,0.02,0.01,-0.029,-0.112,-0.312,-0.273,-0.21,-0.268,-0.059
0.534,0.01,-0.02,-0.029,0.005,0.02,-0.024,-0.029,-0.244,-0.2,-0.146,-0.224,-0.054
0.536,0.029,-0.029,-0.059,0.0,0.044,-0.044,0.02,-0.19,-0.151,-0.107,-0.2,-0.054
0.538,0.024,-0.029,-0.054,0.005,0.039,-0.044,0.024,-0.185,-0.142,-0.107,-0.205,-0.068
0.54,-0.024,-0.039,-0.015,0.034,-0.005,-0.029,0.02,-0.176,-0.137,-0.112,-0.21,-0.078
0.542,-0.005,-0.015,-0.01,0.01,0.0,-0.015,0.034,-0.142,-0.112,-0.093,-0.195,-0.073
0.544,0.01,0.0,-0.01,-0.005,0.01,-0.005,0.059,-0.122,-0.088,-0.083,-0.185,-0.068
0.546,0.02,0.01,-0.01,-0.015,0.015,0.0,0.073,-0.122,-0.083,-0.083,-0.185,-0.063
0.548,0.024,0.02,-0.005,-0.02,0.015,0.005,0.078,-0.122,-0.083,-0.083,-0.2,-0.068
0.55,-0.005,-0.005,0.0,0.005,-0.005,-0.005,0.088,-0.112,-0.083,-0.078,-0.195,-0.063
0.552,-0.029,-0.034,-0.005,0.034,-0.015,-0.02,0.093,-0.112,-0.083,-0.073,-0.19,-0.063
0.554,-0.044,-0.059,-0.015,0.054,-0.015,-0.039,0.093,-0.107,-0.083,-0.068,-0.185,-0.059
0.556,-0.044,-0.059,-0.015,0.054,-0.015,-0.039,0.098,-0.102,-0.068,-0.059,-0.171,-0.054
0.558,-0.029,-0.039,-0.01,0.034,-0.01,-0.024,0.107,-0.093,-0.044,-0.049,-0.166,-0.059
0.56,-0.024,-0.034,-0.01,0.029,-0.01,-0.024,0.117,-0.083,-0.044,-0.049,-0.161,-0.059
0.562,-0.02,-0.029,-0.01,0.024,-0.005,-0.02,0.127,-0.073,-0.029,-0.049,-0.161,-0.054
0.564,-0.02,-0.024,-0.005,0.024,-0.01,-0.015,0.137,-0.073,-0.029,-0.039,-0.161,-0.054
0.566,-0.044,-0.02,0.024,0.034,-0.034,0.0,0.142,-0.063,-0.02,-0.044,-0.156,-0.054
0.568,-0.039,-0.024,0.015,0.034,-0.029,-0.005,0.146,-0.059,-0.015,-0.044,-0.156,-0.049
0.57,-0.034,-0.034,0.0,0.034,-0.02,-0.02,0.151,-0.049,-0.01,-0.039,-0.156,-0.049
0.572,-0.029,-0.029,0.0,0.029,-0.015,-0.015,0.151,-0.039,-0.01,-0.034,-0.151,-0.049
0.574,-0.02,-0.029,-0.01,0.024,-0.005,-0.02,0.146,-0.054,-0.02,-0.044,-0.151,-0.039
0.576,0.0,-0.024,-0.024,0.015,0.01,-0.024,0.146,-0.054,-0.02,-0.044,-0.146,-0.039
0.578,0.0,-0.029,-0.029,0.015,0.015,-0.029,0.146,-0.059,-0.015,-0.044,-0.146,-0.039
0.58,-0.015,-0.049,-0.034,0.034,0.01,-0.044,0.146,-0.059,-0.01,-0.044,-0.151,-0.049
0.582,-0.01,-0.039,-0.029,0.024,0.01,-0.034,0.137,-0.049,-0.01,-0.034,-0.146,-0.029
0.584,0.005,-0.029,-0.034,0.015,0.02,-0.034,0.146,-0.044,-0.01,-0.034,-0.142,-0.029
0.586,-0.015,-0.029,-0.015,0.024,0.0,-0.024,0.146,-0.044,-0.01,-0.034,-0.137,-0.029
0.588,-0.01,-0.01,0.0,0.01,-0.005,-0.005,0.146,-0.054,-0.015,-0.034,-0.137,-0.039
0.59,-0.005,-0.02,-0.015,0.015,0.005,-0.02,0.146,-0.054,-0.015,-0.044,-0.146,-0.044
0.592,0.0,-0.029,-0.029,0.015,0.015,-0.029,0.146,-0.049,-0.01,-0.044,-0.142,-0.044
0.594,-0.01,-0.039,-0.029,0.024,0.01,-0.034,0.146,-0.044,-0.01,-0.039,-0.142,-0.049
0.596,-0.01,-0.039,-0.029,0.024,0.01,-0.034,0.146,-0.044,0.0,-0.029,-0.142,-0.049
0.598,-0.005,-0.024,-0.02,0.015,0.005,-0.024,0.137,-0.044,-0.005,-0.039,-0.132,-0.044
0.6,-0.005,-0.024,-0.02,0.015,0.005,-0.024,0.137,-0.049,-0.005,-0.039,-0.132,-0.044
0.602,0.005,-0.039,-0.044,0.02,0.024,-0.044,0.142,-0.049,-0.005,-0.034,-0.127,-0.044
0.604,0.01,-0.024,-0.034,0.01,0.02,-0.029,0.146,-0.049,0.0,-0.029,-0.127,-0.044
0.606,-0.005,-0.015,-0.01,0.01,0.0,-0.015,0.151,-0.034,0.015,-0.024,-0.112,-0.034
0.608,-0.005,-0.024,-0.02,0.015,0.005,-0.024,0.156,-0.034,0.015,-0.02,-0.112,-0.029
0.61,-0.01,-0.034,-0.024,0.024,0.005,-0.029,0.161,-0.029,0.02,-0.024,-0.112,-0.024
0.612,-0.015,-0.044,-0.029,0.029,0.005,-0.039,0.161,-0.024,0.02,-0.02,-0.107,-0.024
0.614,-0.005,-0.034,-0.029,0.02,0.01,-0.034,0.166,-0.024,0.02,-0.015,-0.098,-0.034
0.616,-0.005,-0.039,-0.034,0.024,0.015,-0.039,0.166,-0.024,0.024,-0.015,-0.098,-0.029
0.618,-0.01,-0.049,-0.039,0.029,0.015,-0.044,0.166,-0.024,0.024,-0.015,-0.098,-0.029
0.62,-0.015,-0.054,-0.039,0.034,0.01,-0.049,0.166,-0.024,0.029,-0.015,-0.098,-0.039
0.622,-0.01,-0.034,-0.024,0.024,0.005,-0.029,0.166,-0.034,0.02,-0.01,-0.102,-0.039
0.624,-0.005,-0.029,-0.024,0.02,0.01,-0.029,0.161,-0.034,0.02,-0.01,-0.102,-0.039
0.626,-0.005,-0.029,-0.024,0.02,0.01,-0.029,0.161,-0.034,0.02,-0.01,-0.102,-0.039
0.628,0.0,-0.024,-0.024,0.015,0.01,-0.024,0.161,-0.024,0.02,-0.005,-0.102,-0.039
0.63,0.01,-0.02,-0.029,0.005,0.02,-0.024,0.161,-0.015,0.02,-0.01,-0.093,-0.034
0.632,0.01,-0.015,-0.024,0.005,0.015,-0.02,0.161,-0.015,0.02,-0.01,-0.088,-0.029
0.634,0.01,-0.01,-0.02,0.0,0.015,-0.015,0.161,-0.01,0.02,-0.01,-0.088,-0.029
0.636,0.005,-0.005,-0.01,0.0,0.005,-0.01,0.156,-0.01,0.02,-0.01,-0.088,-0.029
0.638,-0.01,-0.024,-0.015,0.02,0.0,-0.02,0.151,-0.01,0.029,0.0,-0.078,-0.029
0.64,-0.024,-0.024,0.0,0.024,-0.015,-0.015,0.151,-0.01,0.029,0.0,-0.078,-0.034
0.642,-0.034,-0.029,0.005,0.034,-0.02,-0.015,0.161,-0.01,0.034,0.005,-0.078,-0.034
0.644,-0.044,-0.039,0.005,0.044,-0.024,-0.02,0.166,-0.01,0.034,0.005,-0.078,-0.034
0.646,-0.024,-0.029,-0.005,0.029,-0.01,-0.02,0.151,-0.015,0.024,0.0,-0.088,-0.044
0.648,-0.02,-0.024,-0.005,0.024,-0.01,-0.015,0.146,-0.015,0.024,-0.01,-0.093,-0.044
0.65,-0.015,-0.024,-0.01,0.02,-0.005,-0.02,0.142,-0.015,0.024,-0.015,-0.093,-0.044
0.652,-0.02,-0.024,-0.005,0.024,-0.01,-0.015,0.146,-0.01,0.029,-0.015,-0.088,-0.034
0.654,-0.005,-0.015,-0.01,0.01,0.0,-0.015,0.151,0.0,0.034,0.0,-0.063,-0.02
0.656,0.01,-0.01,-0.02,0.0,0.015,-0.015,0.146,0.005,0.039,0.005,-0.068,-0.024
0.658,0.034,0.0,-0.034,-0.015,0.034,-0.02,0.151,0.01,0.044,0.01,-0.063,-0.02
0.66,0.039,0.02,-0.02,-0.029,0.029,0.0,0.156,0.02,0.054,0.015,-0.054,-0.015
0.662,0.015,0.005,-0.01,-0.01,0.01,-0.005,0.166,0.01,0.049,0.02,-0.049,-0.015
0.664,0.01,0.0,-0.01,-0.005,0.01,-0.005,0.166,0.015,0.059,0.02,-0.054,-0.015
0.666,0.015,-0.005,-0.02,-0.005,0.015,-0.015,0.166,0.015,0.044,0.015,-0.068,-0.015
0.668,0.01,-0.01,-0.02,0.0,0.015,-0.015,0.166,0.015,0.039,0.015,-0.073,-0.015
0.67,-0.01,-0.015,-0.005,0.015,-0.005,-0.01,0.176,0.02,0.049,0.015,-0.059,-0.005
0.672,-0.015,-0.029,-0.015,0.024,0.0,-0.024,0.176,0.029,0.049,0.015,-0.059,-0.005
0.674,-0.015,-0.029,-0.015,0.024,0.0,-0.024,0.171,0.034,0.049,0.01,-0.068,-0.005
0.676,-0.015,-0.029,-0.015,0.024,0.0,-0.024,0.171,0.039,0.049,0.01,-0.068,-0.005
0.678,0.005,-0.005,-0.01,0.0,0.005,-0.01,0.181,0.054,0.059,0.02,-0.049,0.0
0.68,0.015,0.0,-0.015,-0.005,0.015,-0.01,0.19,0.063,0.073,0.029,-0.049,0.01
0.682,0.034,0.005,-0.029,-0.02,0.029,-0.015,0.2,0.063,0.078,0.029,-0.039,0.015
0.684,0.054,0.005,-0.049,-0.029,0.049,-0.024,0.205,0.063,0.083,0.029,-0.039,0.02
0.686,0.054,0.015,-0.039,-0.034,0.044,-0.015,0.2,0.059,0.068,0.02,-0.044,0.005
0.688,0.054,0.024,-0.029,-0.039,0.039,-0.005,0.195,0.054,0.068,0.02,-0.044,0.0
0.69,0.059,0.029,-0.029,-0.044,0.044,0.0,0.2,0.059,0.073,0.02,-0.044,0.0
0.692,0.059,0.029,-0.029,-0.044,0.044,0.0,0.2,0.059,0.073,0.024,-0.044,-0.005
0.694,0.044,0.029,-0.015,-0.034,0.029,0.005,0.21,0.073,0.083,0.039,-0.029,0.005
0.696,0.034,0.02,-0.015,-0.024,0.024,0.0,0.21,0.083,0.093,0.054,-0.02,0.01
0.698,0.034,0.024,-0.01,-0.029,0.02,0.005,0.205,0.088,0.098,0.059,-0.015,0.01
0.7,0.054,0.039,-0.015,-0.044,0.034,0.01,0.205,0.093,0.098,0.059,-0.02,0.005
0.702,0.059,0.029,-0.029,-0.044,0.044,0.0,0.21,0.102,0.098,0.059,-0.01,0.015
0.704,0.059,0.029,-0.029,-0.044,0.044,0.0,0.21,0.107,0.102,0.059,0.0,0.02
0.706,0.049,0.02,-0.029,-0.034,0.039,-0.005,0.22,0.107,0.102,0.059,0.0,0.02
0.708,0.049,0.02,-0.029,-0.034,0.039,-0.005,0.22,0.112,0.107,0.059,0.005,0.02
0.71,0.044,0.015,-0.029,-0.029,0.034,-0.01,0.22,0.112,0.112,0.059,0.015,0.024
0.712,0.029,0.005,-0.024,-0.015,0.024,-0.01,0.215,0.112,0.107,0.059,0.015,0.024
0.714,0.034,-0.005,-0.039,-0.015,0.034,-0.024,0.21,0.112,0.102,0.054,0.01,0.024
0.716,0.039,-0.015,-0.054,-0.01,0.044,-0.034,0.205,0.112,0.098,0.054,0.0,0.024
0.718,0.024,-0.005,-0.029,-0.01,0.024,-0.02,0.21,0.127,0.117,0.063,0.02,0.029
0.72,0.01,0.005,-0.005,-0.005,0.005,0.0,0.224,0.142,0.122,0.078,0.034,0.044
0.722,0.005,0.01,0.005,-0.005,0.0,0.005,0.229,0.151,0.127,0.083,0.039,0.049
0.724,0.015,0.02,0.005,-0.015,0.005,0.01,0.239,0.161,0.132,0.093,0.039,0.054
0.726,0.034,0.034,0.0,-0.034,0.015,0.015,0.249,0.166,0.132,0.102,0.039,0.049
0.728,0.049,0.059,0.01,-0.054,0.02,0.034,0.254,0.171,0.142,0.102,0.054,0.054
0.73,0.059,0.063,0.005,-0.059,0.024,0.034,0.259,0.176,0.142,0.107,0.063,0.059
0.732,0.068,0.059,-0.01,-0.063,0.039,0.024,0.259,0.176,0.142,0.107,0.049,0.059
0.734,0.073,0.068,-0.005,-0.068,0.039,0.029,0.254,0.171,0.137,0.098,0.044,0.044
0.736,0.078,0.059,-0.02,-0.068,0.049,0.02,0.249,0.181,0.137,0.093,0.044,0.039
0.738,0.083,0.059,-0.024,-0.068,0.054,0.015,0.259,0.185,0.142,0.088,0.044,0.044
0.74,0.078,0.054,-0.024,-0.063,0.049,0.015,0.259,0.195,0.142,0.088,0.039,0.049
0.742,0.059,0.044,-0.015,-0.049,0.034,0.015,0.268,0.21,0.156,0.088,0.054,0.059
0.744,0.054,0.039,-0.015,-0.044,0.034,0.01,0.268,0.215,0.161,0.093,0.063,0.059
0.746,0.063,0.054,-0.01,-0.059,0.034,0.02,0.278,0.22,0.166,0.107,0.068,0.059
0.748,0.063,0.054,-0.01,-0.059,0.034,0.02,0.283,0.229,0.171,0.117,0.073,0.059
0.75,0.068,0.059,-0.01,-0.063,0.039,0.024,0.298,0.244,0.176,0.132,0.093,0.083
0.752,0.073,0.063,-0.01,-0.068,0.039,0.024,0.298,0.254,0.185,0.132,0.098,0.088
0.754,0.088,0.068,-0.02,-0.078,0.054,0.024,0.303,0.254,0.185,0.132,0.102,0.093
0.756,0.098,0.078,-0.02,-0.088,0.059,0.029,0.303,0.259,0.19,0.137,0.112,0.102
0.758,0.102,0.083,-0.02,-0.093,0.059,0.029,0.317,0.268,0.205,0.137,0.107,0.102
0.76,0.098,0.078,-0.02,-0.088,0.059,0.029,0.317,0.273,0.205,0.137,0.107,0.098
0.762,0.088,0.073,-0.015,-0.078,0.049,0.029,0.322,0.288,0.205,0.137,0.112,0.098
0.764,0.078,0.073,-0.005,-0.073,0.039,0.034,0.332,0.298,0.22,0.146,0.122,0.098
0.766,0.078,0.078,0.0,-0.078,0.039,0.039,0.322,0.303,0.215,0.142,0.112,0.093
0.768,0.078,0.078,0.0,-0.078,0.039,0.039,0.322,0.303,0.21,0.137,0.117,0.088
0.77,0.078,0.083,0.005,-0.078,0.034,0.044,0.327,0.303,0.21,0.142,0.127,0.093
0.772,0.083,0.083,0.0,-0.083,0.039,0.039,0.327,0.303,0.215,0.142,0.132,0.093
0.774,0.112,0.098,-0.015,-0.102,0.063,0.039,0.327,0.317,0.215,0.151,0.142,0.112
0.776,0.137,0.102,-0.034,-0.117,0.083,0.034,0.327,0.317,0.215,0.156,0.151,0.122
0.778,0.146,0.107,-0.039,-0.127,0.093,0.034,0.332,0.327,0.224,0.156,0.161,0.132
0.78,0.146,0.107,-0.039,-0.127,0.093,0.034,0.337,0.332,0.229,0.171,0.176,0.142
0.782,0.137,0.107,-0.029,-0.122,0.083,0.039,0.346,0.346,0.239,0.161,0.181,0.132
0.784,0.142,0.117,-0.024,-0.127,0.083,0.044,0.346,0.351,0.244,0.161,0.185,0.142
0.786,0.151,0.127,-0.024,-0.137,0.088,0.049,0.346,0.351,0.244,0.161,0.185,0.151
0.788,0.151,0.127,-0.024,-0.137,0.088,0.049,0.351,0.356,0.249,0.166,0.19,0.151
0.79,0.112,0.117,0.005,-0.112,0.054,0.059,0.356,0.366,0.259,0.171,0.205,0.161
0.792,0.112,0.112,0.0,-0.112,0.054,0.054,0.356,0.371,0.259,0.181,0.21,0.161
0.794,0.117,0.112,-0.005,-0.112,0.059,0.054,0.361,0.376,0.264,0.185,0.22,0.161
0.796,0.112,0.122,0.01,-0.117,0.049,0.063,0.366,0.381,0.268,0.195,0.229,0.171
0.798,0.142,0.142,0.0,-0.142,0.068,0.068,0.366,0.395,0.268,0.195,0.239,0.181
0.8,0.166,0.146,-0.02,-0.156,0.093,0.063,0.366,0.395,0.268,0.195,0.239,0.181
0.802,0.181,0.156,-0.024,-0.166,0.102,0.063,0.366,0.39,0.268,0.195,0.244,0.181
0.804,0.195,0.161,-0.034,-0.176,0.112,0.063,0.366,0.39,0.259,0.2,0.244,0.185
0.806,0.166,0.146,-0.02,-0.156,0.093,0.063,0.366,0.39,0.259,0.195,0.239,0.181
0.808,0.151,0.137,-0.015,-0.142,0.083,0.059,0.356,0.381,0.259,0.185,0.239,0.181
0.81,0.142,0.132,-0.01,-0.137,0.073,0.059,0.346,0.376,0.254,0.176,0.239,0.176
0.812,0.146,0.132,-0.015,-0.137,0.078,0.059,0.346,0.371,0.249,0.171,0.239,0.176
0.814,0.151,0.137,-0.015,-0.142,0.083,0.059,0.332,0.371,0.244,0.166,0.234,0.181
0.816,0.156,0.132,-0.024,-0.142,0.088,0.054,0.332,0.371,0.244,0.166,0.239,0.19
0.818,0.156,0.117,-0.039,-0.137,0.098,0.039,0.327,0.366,0.239,0.171,0.244,0.19
0.82,0.156,0.122,-0.034,-0.137,0.093,0.044,0.322,0.361,0.234,0.171,0.249,0.19
0.822,0.171,0.132,-0.039,-0.151,0.102,0.044,0.322,0.351,0.229,0.181,0.259,0.195
0.824,0.185,0.137,-0.049,-0.161,0.117,0.044,0.307,0.327,0.215,0.176,0.254,0.195
0.826,0.19,0.137,-0.054,-0.161,0.122,0.039,0.298,0.322,0.21,0.176,0.254,0.19
0.828,0.19,0.137,-0.054,-0.161,0.122,0.039,0.298,0.322,0.205,0.171,0.254,0.19
0.83,0.181,0.151,-0.029,-0.166,0.102,0.059,0.293,0.332,0.215,0.171,0.264,0.19
0.832,0.185,0.166,-0.02,-0.176,0.102,0.073,0.288,0.322,0.21,0.171,0.264,0.19
0.834,0.19,0.185,-0.005,-0.185,0.098,0.088,0.283,0.327,0.21,0.171,0.264,0.19
0.836,0.19,0.195,0.005,-0.19,0.093,0.098,0.288,0.332,0.215,0.171,0.268,0.195
0.838,0.176,0.185,0.01,-0.181,0.083,0.098,0.278,0.317,0.224,0.181,0.259,0.185
0.84,0.176,0.176,0.0,-0.176,0.088,0.088,0.264,0.303,0.215,0.166,0.249,0.176
0.842,0.176,0.161,-0.015,-0.166,0.093,0.073,0.249,0.293,0.21,0.166,0.244,0.166
0.844,0.185,0.146,-0.039,-0.166,0.112,0.054,0.234,0.288,0.2,0.161,0.239,0.166
0.846,0.19,0.146,-0.044,-0.166,0.117,0.049,0.229,0.278,0.21,0.161,0.239,0.176
0.848,0.176,0.142,-0.034,-0.156,0.102,0.054,0.224,0.268,0.2,0.161,0.234,0.176
0.85,0.166,0.146,-0.02,-0.156,0.093,0.063,0.22,0.259,0.195,0.171,0.244,0.181
0.852,0.171,0.151,-0.02,-0.161,0.093,0.063,0.215,0.259,0.195,0.171,0.254,0.185
0.854,0.156,0.137,-0.02,-0.146,0.088,0.059,0.2,0.249,0.181,0.156,0.239,0.181
0.856,0.137,0.117,-0.02,-0.127,0.078,0.049,0.185,0.239,0.171,0.142,0.22,0.166
0.858,0.132,0.107,-0.024,-0.117,0.078,0.039,0.181,0.229,0.166,0.132,0.22,0.156
0.86,0.122,0.102,-0.02,-0.112,0.068,0.039,0.181,0.224,0.166,0.132,0.22,0.156
0.862,0.122,0.107,-0.015,-0.112,0.068,0.044,0.185,0.215,0.176,0.137,0.229,0.156
0.864,0.127,0.107,-0.02,-0.117,0.073,0.044,0.185,0.215,0.171,0.137,0.22,0.156
0.866,0.127,0.112,-0.015,-0.117,0.068,0.049,0.185,0.21,0.166,0.127,0.215,0.151
0.868,0.117,0.112,-0.005,-0.112,0.059,0.054,0.181,0.2,0.161,0.117,0.21,0.137
0.87,0.112,0.098,-0.015,-0.102,0.063,0.039,0.185,0.19,0.161,0.117,0.205,0.122
0.872,0.102,0.088,-0.015,-0.093,0.059,0.034,0.185,0.181,0.156,0.112,0.2,0.122
0.874,0.093,0.083,-0.01,-0.088,0.049,0.034,0.181,0.176,0.146,0.117,0.2,0.112
0.876,0.078,0.078,0.0,-0.078,0.039,0.039,0.181,0.176,0.146,0.117,0.2,0.107
0.878,0.088,0.083,-0.005,-0.083,0.044,0.039,0.176,0.181,0.151,0.112,0.19,0.107
0.88,0.093,0.083,-0.01,-0.088,0.049,0.034,0.166,0.166,0.142,0.102,0.185,0.098
0.882,0.093,0.083,-0.01,-0.088,0.049,0.034,0.161,0.161,0.132,0.093,0.176,0.088
0.884,0.102,0.088,-0.015,-0.093,0.059,0.034,0.156,0.151,0.127,0.093,0.166,0.083
0.886,0.088,0.083,-0.005,-0.083,0.044,0.039,0.171,0.156,0.137,0.088,0.171,0.093
0.888,0.083,0.088,0.005,-0.083,0.039,0.044,0.176,0.151,0.127,0.083,0.171,0.093
0.89,0.078,0.088,0.01,-0.083,0.034,0.049,0.181,0.151,0.127,0.078,0.171,0.093
0.892,0.068,0.088,0.02,-0.078,0.024,0.054,0.19,0.151,0.122,0.073,0.161,0.083
0.894,0.054,0.068,0.015,-0.059,0.02,0.039,0.185,0.137,0.102,0.059,0.146,0.068
0.896,0.039,0.049,0.01,-0.044,0.015,0.029,0.171,0.122,0.093,0.049,0.146,0.063
0.898,0.024,0.029,0.005,-0.024,0.01,0.015,0.166,0.122,0.088,0.049,0.142,0.063
0.9,-0.01,0.0,0.01,0.005,-0.01,0.005,0.161,0.122,0.088,0.044,0.132,0.063
0.902,0.005,0.015,0.01,-0.01,-0.005,0.01,0.161,0.112,0.083,0.039,0.127,0.049
0.904,0.029,0.029,0.0,-0.029,0.015,0.015,0.156,0.107,0.073,0.029,0.117,0.039
0.906,0.044,0.044,0.0,-0.044,0.02,0.02,0.151,0.102,0.063,0.015,0.112,0.034
0.908,0.073,0.059,-0.015,-0.063,0.044,0.02,0.142,0.098,0.054,0.01,0.107,0.029
0.91,0.078,0.054,-0.024,-0.063,0.049,0.015,0.146,0.107,0.054,0.01,0.112,0.034
0.912,0.093,0.059,-0.034,-0.073,0.063,0.01,0.151,0.098,0.049,0.005,0.107,0.034
0.914,0.083,0.059,-0.024,-0.068,0.054,0.015,0.156,0.093,0.054,0.005,0.107,0.034
0.916,0.063,0.034,-0.029,-0.049,0.044,0.0,0.161,0.093,0.059,0.01,0.107,0.039
0.918,0.054,0.024,-0.029,-0.039,0.039,-0.005,0.161,0.083,0.049,0.015,0.102,0.039
0.92,0.044,0.02,-0.024,-0.029,0.034,-0.005,0.156,0.083,0.049,0.015,0.102,0.039
0.922,0.024,0.01,-0.015,-0.015,0.02,-0.005,0.151,0.088,0.039,0.01,0.102,0.039
0.924,0.005,-0.01,-0.015,0.005,0.01,-0.015,0.146,0.088,0.039,0.01,0.102,0.039
0.926,-0.01,0.015,0.024,0.0,-0.02,0.02,0.156,0.093,0.044,0.01,0.102,0.049
0.928,0.0,0.02,0.02,-0.01,-0.01,0.02,0.156,0.088,0.044,0.0,0.107,0.049
0.93,0.0,0.024,0.024,-0.01,-0.015,0.024,0.156,0.093,0.049,0.0,0.102,0.039
0.932,-0.005,0.029,0.034,-0.01,-0.02,0.029,0.156,0.102,0.054,0.0,0.107,0.039
0.934,0.005,0.039,0.034,-0.02,-0.015,0.034,0.146,0.093,0.054,0.0,0.107,0.039
0.936,0.029,0.049,0.02,-0.039,0.005,0.034,0.146,0.088,0.054,-0.005,0.107,0.034
0.938,0.039,0.054,0.015,-0.044,0.01,0.034,0.146,0.088,0.054,-0.005,0.107,0.034
0.94,0.029,0.049,0.02,-0.039,0.005,0.034,0.151,0.088,0.054,0.0,0.107,0.039
0.942,0.044,0.059,0.015,-0.049,0.015,0.034,0.156,0.093,0.044,-0.01,0.098,0.039
0.944,0.039,0.044,0.005,-0.039,0.015,0.024,0.146,0.093,0.044,-0.015,0.098,0.034
0.946,0.039,0.044,0.005,-0.039,0.015,0.024,0.146,0.093,0.039,-0.015,0.098,0.034
0.948,0.044,0.044,0.0,-0.044,0.02,0.02,0.142,0.088,0.034,-0.015,0.098,0.034
0.95,0.049,0.034,-0.015,-0.039,0.029,0.01,0.146,0.093,0.034,-0.01,0.098,0.034
0.952,0.039,0.024,-0.015,-0.029,0.024,0.005,0.146,0.093,0.034,-0.01,0.098,0.034
0.954,0.024,0.02,-0.005,-0.02,0.015,0.005,0.151,0.098,0.039,-0.005,0.102,0.034
0.956,0.015,0.015,0.0,-0.015,0.005,0.005,0.161,0.102,0.044,-0.005,0.107,0.034
0.958,0.024,0.024,0.0,-0.024,0.01,0.01,0.161,0.112,0.044,-0.005,0.107,0.034
0.96,0.01,0.034,0.024,-0.02,-0.01,0.029,0.166,0.112,0.044,0.0,0.107,0.034
0.962,0.005,0.039,0.034,-0.02,-0.015,0.034,0.176,0.112,0.049,0.015,0.107,0.034
0.964,0.005,0.044,0.039,-0.024,-0.02,0.039,0.176,0.117,0.049,0.005,0.112,0.044
0.966,0.005,0.044,0.039,-0.024,-0.02,0.039,0.181,0.117,0.054,0.005,0.112,0.034
0.968,0.005,0.054,0.049,-0.029,-0.024,0.049,0.166,0.117,0.054,0.005,0.112,0.034
0.97,0.0,0.044,0.044,-0.02,-0.024,0.044,0.166,0.117,0.049,0.005,0.112,0.034
0.972,-0.01,0.034,0.044,-0.01,-0.029,0.039,0.161,0.117,0.049,0.0,0.107,0.034
0.974,-0.01,0.024,0.034,-0.005,-0.024,0.029,0.146,0.098,0.044,-0.015,0.093,0.015
0.976,-0.01,0.015,0.024,0.0,-0.02,0.02,0.142,0.088,0.039,-0.02,0.088,0.005
0.978,-0.005,0.005,0.01,0.0,-0.01,0.005,0.142,0.083,0.034,-0.024,0.078,0.005
0.98,-0.005,0.01,0.015,0.0,-0.01,0.01,0.146,0.078,0.029,-0.024,0.073,0.01
0.982,-0.005,0.024,0.029,-0.01,-0.02,0.024,0.156,0.088,0.039,-0.015,0.083,0.02
0.984,-0.005,0.024,0.029,-0.01,-0.02,0.024,0.156,0.098,0.044,-0.01,0.098,0.02
0.986,0.0,0.024,0.024,-0.01,-0.015,0.024,0.156,0.107,0.049,-0.005,0.112,0.02
0.988,0.005,0.024,0.02,-0.015,-0.01,0.02,0.151,0.112,0.054,0.0,0.117,0.024
0.99,0.02,0.024,0.005,-0.02,0.005,0.015,0.161,0.102,0.044,-0.015,0.098,0.015
0.992,0.039,0.029,-0.01,-0.034,0.024,0.01,0.161,0.107,0.044,0.0,0.098,0.024
0.994,0.034,0.039,0.005,-0.034,0.015,0.02,0.161,0.107,0.049,0.0,0.098,0.024
0.996,0.039,0.034,-0.005,-0.034,0.02,0.015,0.161,0.107,0.049,0.0,0.102,0.024
0.998,0.029,0.034,0.005,-0.029,0.01,0.02,0.161,0.117,0.059,0.0,0.107,0.024
1.0,0.015,0.039,0.024,-0.024,-0.005,0.029,0.161,0.122,0.063,0.005,0.107,0.02
1.002,0.0,0.039,0.039,-0.02,-0.02,0.039,0.161,0.127,0.068,0.005,0.107,0.024
1.004,-0.024,0.01,0.034,0.01,-0.029,0.02,0.156,0.127,0.068,0.0,0.102,0.034
1.006,-0.015,0.02,0.034,0.0,-0.024,0.024,0.156,0.137,0.059,-0.01,0.102,0.029
1.008,-0.005,0.024,0.029,-0.01,-0.02,0.024,0.156,0.137,0.059,-0.01,0.102,0.029
1.01,0.029,0.034,0.005,-0.029,0.01,0.02,0.161,0.137,0.063,-0.005,0.107,0.029
1.012,0.059,0.034,-0.024,-0.044,0.039,0.005,0.166,0.137,0.073,0.0,0.117,0.029
1.014,0.063,0.039,-0.024,-0.049,0.044,0.005,0.176,0.146,0.088,0.005,0.112,0.024
1.016,0.063,0.039,-0.024,-0.049,0.044,0.005,0.181,0.146,0.088,0.005,0.107,0.024
1.018,0.054,0.039,-0.015,-0.044,0.034,0.01,0.181,0.142,0.083,0.0,0.102,0.024
1.02,0.059,0.024,-0.034,-0.039,0.044,-0.005,0.176,0.142,0.083,-0.005,0.088,0.024
1.022,0.029,0.024,-0.005,-0.024,0.015,0.01,0.171,0.151,0.083,-0.005,0.088,0.029
1.024,0.015,0.015,0.0,-0.015,0.005,0.005,0.161,0.142,0.083,-0.005,0.093,0.024
1.026,0.0,0.0,0.0,0.0,0.0,0.0,0.142,0.142,0.078,-0.01,0.098,0.024
1.028,-0.015,0.0,0.015,0.01,-0.015,0.005,0.137,0.142,0.078,-0.01,0.102,0.029
1.03,0.005,0.024,0.02,-0.015,-0.01,0.02,0.151,0.161,0.098,0.005,0.107,0.044
1.032,0.015,0.044,0.029,-0.029,-0.01,0.034,0.156,0.171,0.098,0.015,0.112,0.049
1.034,0.029,0.039,0.01,-0.034,0.01,0.024,0.156,0.176,0.098,0.015,0.117,0.049
1.036,0.039,0.039,0.0,-0.039,0.02,0.02,0.156,0.176,0.088,0.0,0.122,0.039
1.038,0.024,0.049,0.024,-0.034,0.0,0.034,0.146,0.166,0.093,0.0,0.127,0.029
1.04,0.024,0.049,0.024,-0.034,0.0,0.034,0.146,0.161,0.088,0.01,0.127,0.024
1.042,-0.005,0.024,0.029,-0.01,-0.02,0.024,0.146,0.151,0.078,0.01,0.117,0.024
1.044,-0.01,0.015,0.024,0.0,-0.02,0.02,0.146,0.132,0.073,0.0,0.107,0.024
1.046,-0.015,0.01,0.024,0.005,-0.02,0.015,0.137,0.137,0.078,-0.01,0.107,0.015
1.048,0.0,0.015,0.015,-0.005,-0.01,0.015,0.132,0.127,0.073,-0.015,0.112,0.015
1.05,-0.005,0.01,0.015,0.0,-0.01,0.01,0.132,0.132,0.073,-0.024,0.112,0.015
1.052,-0.01,0.0,0.01,0.005,-0.01,0.005,0.132,0.137,0.073,-0.015,0.112,0.015
1.054,-0.02,0.0,0.02,0.01,-0.02,0.01,0.137,0.146,0.083,0.0,0.112,0.02
1.056,-0.005,0.0,0.005,0.005,-0.005,0.0,0.142,0.146,0.083,0.0,0.117,0.029
1.058,0.01,0.005,-0.005,-0.005,0.005,0.0,0.142,0.146,0.083,0.0,0.117,0.034
1.06,0.024,0.015,-0.01,-0.02,0.015,0.0,0.146,0.142,0.083,0.0,0.122,0.039
1.062,0.01,0.015,0.005,-0.01,0.0,0.01,0.146,0.151,0.073,-0.015,0.122,0.039
1.064,-0.005,0.005,0.01,0.0,-0.01,0.005,0.146,0.146,0.063,-0.02,0.117,0.039
1.066,-0.039,0.005,0.044,0.02,-0.044,0.024,0.137,0.146,0.063,-0.02,0.107,0.039
1.068,-0.034,0.005,0.039,0.015,-0.039,0.02,0.137,0.151,0.063,-0.02,0.102,0.034
1.07,-0.015,0.015,0.029,0.0,-0.024,0.02,0.137,0.146,0.059,-0.029,0.098,0.02
1.072,-0.015,0.015,0.029,0.0,-0.024,0.02,0.132,0.142,0.054,-0.029,0.098,0.015
1.074,-0.005,0.015,0.02,-0.005,-0.015,0.015,0.127,0.137,0.049,-0.029,0.098,0.01
1.076,0.01,0.015,0.005,-0.01,0.0,0.01,0.127,0.132,0.049,-0.029,0.093,0.005
1.078,0.005,0.024,0.02,-0.015,-0.01,0.02,0.137,0.142,0.059,-0.02,0.093,0.01
1.08,0.0,0.024,0.024,-0.01,-0.015,0.024,0.132,0.132,0.049,-0.034,0.093,0.01
1.082,-0.015,0.015,0.029,0.0,-0.024,0.02,0.132,0.122,0.049,-0.034,0.093,0.015
1.084,-0.01,0.015,0.024,0.0,-0.02,0.02,0.132,0.112,0.049,-0.034,0.093,0.02
1.086,-0.01,0.0,0.01,0.005,-0.01,0.005,0.132,0.117,0.059,-0.029,0.102,0.024
1.088,-0.015,0.0,0.015,0.01,-0.015,0.005,0.137,0.127,0.059,-0.024,0.107,0.029
1.09,-0.015,0.0,0.015,0.01,-0.015,0.005,0.142,0.132,0.059,-0.015,0.112,0.034
1.092,-0.01,0.0,0.01,0.005,-0.01,0.005,0.146,0.137,0.059,-0.01,0.117,0.039
1.094,0.0,0.01,0.01,-0.005,-0.005,0.01,0.137,0.122,0.039,-0.024,0.107,0.015
1.096,0.01,0.01,0.0,-0.01,0.005,0.005,0.132,0.112,0.034,-0.029,0.102,0.01
1.098,0.02,0.015,-0.005,-0.015,0.01,0.005,0.122,0.102,0.029,-0.034,0.102,0.005
1.1,0.01,0.015,0.005,-0.01,0.0,0.01,0.117,0.098,0.02,-0.039,0.098,-0.005
1.102,0.01,0.005,-0.005,-0.005,0.005,0.0,0.132,0.112,0.02,-0.039,0.088,-0.015
1.104,0.015,0.005,-0.01,-0.01,0.01,-0.005,0.137,0.112,0.02,-0.039,0.083,-0.015
1.106,0.015,0.005,-0.01,-0.01,0.01,-0.005,0.132,0.102,0.015,-0.044,0.083,-0.02
1.108,0.005,0.005,0.0,-0.005,0.0,0.0,0.137,0.102,0.015,-0.044,0.083,-0.02
1.11,0.005,0.01,0.005,-0.005,0.0,0.005,0.146,0.117,0.02,-0.039,0.098,0.0
1.112,-0.01,0.01,0.02,0.0,-0.015,0.015,0.146,0.122,0.029,-0.039,0.098,0.0
1.114,-0.02,0.005,0.024,0.01,-0.024,0.015,0.142,0.122,0.015,-0.039,0.093,-0.005
1.116,0.015,0.005,-0.01,-0.01,0.01,-0.005,0.142,0.127,0.015,-0.039,0.093,-0.005
1.118,0.029,0.024,-0.005,-0.024,0.015,0.01,0.151,0.117,0.024,-0.039,0.093,0.0
1.12,0.015,0.015,0.0,-0.015,0.005,0.005,0.151,0.117,0.024,-0.044,0.098,0.005
1.122,0.01,0.015,0.005,-0.01,0.0,0.01,0.146,0.117,0.02,-0.049,0.098,0.005
1.124,0.015,0.01,-0.005,-0.01,0.01,0.0,0.146,0.112,0.015,-0.049,0.088,-0.005
1.126,-0.005,0.0,0.005,0.005,-0.005,0.0,0.156,0.112,0.015,-0.049,0.093,0.005
1.128,-0.02,-0.005,0.015,0.015,-0.02,0.005,0.156,0.117,0.02,-0.039,0.102,0.005
1.13,-0.029,-0.01,0.02,0.02,-0.024,0.005,0.156,0.127,0.02,-0.039,0.107,0.005
1.132,-0.049,-0.02,0.029,0.034,-0.039,0.005,0.156,0.132,0.024,-0.039,0.112,0.0
1.134,-0.049,-0.02,0.029,0.034,-0.039,0.005,0.146,0.127,0.01,-0.044,0.098,-0.005
1.136,-0.044,-0.02,0.024,0.034,-0.034,0.0,0.142,0.127,0.005,-0.049,0.093,-0.005
1.138,-0.039,-0.015,0.024,0.029,-0.034,0.005,0.137,0.117,0.0,-0.054,0.088,-0.01
1.14,-0.034,-0.015,0.02,0.024,-0.029,0.0,0.132,0.117,-0.005,-0.063,0.083,-0.015
1.142,-0.024,-0.005,0.02,0.015,-0.024,0.005,0.142,0.127,0.01,-0.059,0.098,0.0
1.144,0.01,0.005,-0.005,-0.005,0.005,0.0,0.142,0.127,0.005,-0.059,0.093,0.0
1.146,0.02,0.01,-0.01,-0.015,0.015,0.0,0.137,0.127,0.005,-0.063,0.098,0.005
1.148,0.015,0.01,-0.005,-0.01,0.01,0.0,0.137,0.127,0.01,-0.059,0.102,0.01
1.15,-0.02,0.0,0.02,0.01,-0.02,0.01,0.137,0.137,0.0,-0.059,0.102,0.005
1.152,-0.024,-0.005,0.02,0.015,-0.024,0.005,0.132,0.132,0.005,-0.059,0.102,0.005
1.154,-0.02,-0.005,0.015,0.015,-0.02,0.005,0.132,0.132,0.005,-0.068,0.102,0.005
1.156,-0.024,-0.01,0.015,0.02,-0.02,0.0,0.132,0.137,0.005,-0.059,0.102,0.005
1.158,-0.024,-0.02,0.005,0.024,-0.015,-0.01,0.122,0.127,0.0,-0.068,0.098,-0.005
1.16,-0.024,-0.024,0.0,0.024,-0.015,-0.015,0.122,0.127,-0.005,-0.068,0.093,-0.01
1.162,-0.029,-0.029,0.0,0.029,-0.015,-0.015,0.127,0.127,-0.015,-0.068,0.088,-0.015
1.164,-0.029,-0.029,0.0,0.029,-0.015,-0.015,0.127,0.127,-0.02,-0.068,0.083,-0.02
1.166,-0.034,-0.024,0.01,0.029,-0.024,-0.01,0.132,0.137,-0.01,-0.063,0.088,-0.015
1.168,-0.044,-0.024,0.02,0.034,-0.034,-0.005,0.132,0.137,-0.005,-0.068,0.093,-0.015
1.17,-0.049,-0.02,0.029,0.034,-0.039,0.005,0.132,0.137,-0.005,-0.054,0.098,-0.015
1.172,-0.054,-0.015,0.039,0.034,-0.049,0.01,0.132,0.137,-0.005,-0.049,0.098,-0.015
1.174,-0.034,-0.015,0.02,0.024,-0.029,0.0,0.132,0.127,-0.02,-0.073,0.078,-0.024
1.176,-0.029,-0.015,0.015,0.024,-0.024,0.0,0.132,0.127,-0.024,-0.078,0.073,-0.024
1.178,-0.029,-0.015,0.015,0.024,-0.024,0.0,0.132,0.132,-0.029,-0.088,0.068,-0.024
1.18,-0.039,-0.01,0.029,0.024,-0.034,0.01,0.132,0.132,-0.034,-0.093,0.068,-0.02
1.182,-0.02,0.01,0.029,0.005,-0.024,0.02,0.142,0.146,-0.02,-0.083,0.078,-0.015
1.184,-0.015,0.0,0.015,0.01,-0.015,0.005,0.137,0.146,-0.02,-0.078,0.083,-0.005
1.186,-0.01,0.0,0.01,0.005,-0.01,0.005,0.137,0.146,-0.02,-0.073,0.088,0.0
1.188,-0.015,0.0,0.015,0.01,-0.015,0.005,0.142,0.146,-0.02,-0.068,0.093,0.005
1.19,-0.005,0.01,0.015,0.0,-0.01,0.01,0.132,0.146,-0.015,-0.054,0.093,0.005
1.192,-0.005,0.01,0.015,0.0,-0.01,0.01,0.132,0.146,-0.015,-0.049,0.093,0.005
1.194,-0.024,0.005,0.029,0.01,-0.029,0.015,0.132,0.146,-0.015,-0.049,0.093,0.005
1.196,-0.034,-0.005,0.029,0.02,-0.034,0.01,0.132,0.146,-0.015,-0.049,0.093,0.005
1.198,-0.029,0.0,0.029,0.015,-0.029,0.015,0.142,0.142,-0.02,-0.059,0.093,0.0
1.2,-0.029,0.0,0.029,0.015,-0.029,0.015,0.142,0.137,-0.024,-0.068,0.088,-0.005
1.202,-0.034,-0.005,0.029,0.02,-0.034,0.01,0.137,0.137,-0.029,-0.073,0.083,-0.005
1.204,-0.034,-0.015,0.02,0.024,-0.029,0.0,0.132,0.137,-0.029,-0.078,0.083,-0.005
1.206,-0.049,-0.029,0.02,0.039,-0.034,-0.005,0.122,0.151,-0.024,-0.073,0.093,-0.005
1.208,-0.049,-0.034,0.015,0.044,-0.034,-0.01,0.127,0.151,-0.02,-0.063,0.098,-0.005
1.21,-0.034,-0.034,0.0,0.034,-0.02,-0.02,0.127,0.156,-0.02,-0.059,0.098,0.0
1.212,-0.024,-0.039,-0.015,0.034,-0.005,-0.029,0.127,0.156,-0.02,-0.059,0.098,0.0
1.214,-0.02,-0.034,-0.015,0.029,-0.005,-0.024,0.112,0.142,-0.034,-0.068,0.078,-0.01
1.216,-0.015,-0.034,-0.02,0.024,0.0,-0.029,0.107,0.137,-0.039,-0.073,0.078,-0.015
1.218,-0.029,-0.024,0.005,0.029,-0.02,-0.01,0.107,0.132,-0.039,-0.078,0.083,-0.02
1.22,-0.034,-0.005,0.029,0.02,-0.034,0.01,0.117,0.132,-0.034,-0.078,0.083,-0.024
1.222,-0.015,0.005,0.02,0.005,-0.02,0.01,0.122,0.142,-0.034,-0.088,0.073,-0.029
1.224,-0.01,0.01,0.02,0.0,-0.015,0.015,0.127,0.142,-0.034,-0.088,0.073,-0.029
1.226,-0.005,0.01,0.015,0.0,-0.01,0.01,0.132,0.142,-0.034,-0.088,0.078,-0.024
1.228,0.015,0.02,0.005,-0.015,0.005,0.01,0.137,0.142,-0.029,-0.083,0.083,-0.02
1.23,0.049,0.015,-0.034,-0.029,0.039,-0.01,0.132,0.151,-0.02,-0.073,0.083,0.0
1.232,-0.01,-0.01,0.0,0.01,-0.005,-0.005,0.137,0.146,-0.02,-0.068,0.088,0.0
1.234,-0.029,-0.015,0.015,0.024,-0.024,0.0,0.146,0.146,-0.02,-0.059,0.088,0.0
1.236,-0.039,-0.02,0.02,0.029,-0.029,0.0,0.146,0.146,-0.02,-0.059,0.088,0.0
1.238,-0.049,-0.024,0.024,0.039,-0.039,0.0,0.146,0.146,-0.02,-0.059,0.088,0.0
1.24,-0.059,-0.029,0.029,0.044,-0.044,0.0,0.146,0.146,-0.02,-0.059,0.088,0.0
1.242,-0.059,-0.029,0.029,0.044,-0.044,0.0,0.137,0.146,-0.02,-0.049,0.098,0.0
1.244,-0.059,-0.029,0.029,0.044,-0.044,0.0,0.137,0.146,-0.02,-0.049,0.098,0.0
1.246,-0.059,-0.029,0.029,0.044,-0.044,0.0,0.137,0.146,-0.02,-0.049,0.098,0.0
1.248,-0.059,-0.029,0.029,0.044,-0.044,0.0,0.137,0.146,-0.02,-0.049,0.098,0.0
1.25,-0.049,-0.024,0.024,0.039,-0.039,0.0,0.127,0.137,-0.024,-0.059,0.093,-0.005
1.252,-0.039,-0.02,0.02,0.029,-0.029,0.0,0.127,0.137,-0.029,-0.059,0.088,-0.01
1.254,-0.029,-0.015,0.015,0.024,-0.024,0.0,0.127,0.137,-0.034,-0.059,0.083,-0.015
1.256,-0.02,-0.01,0.01,0.015,-0.015,0.0,0.127,0.137,-0.039,-0.059,0.078,-0.02
1.258,-0.029,-0.01,0.02,0.02,-0.024,0.005,0.137,0.127,-0.039,-0.063,0.073,-0.024
1.26,-0.029,-0.01,0.02,0.02,-0.024,0.005,0.137,0.127,-0.039,-0.068,0.068,-0.029
1.262,-0.029,-0.01,0.02,0.02,-0.024,0.005,0.137,0.127,-0.039,-0.073,0.063,-0.034
1.264,-0.029,-0.01,0.02,0.02,-0.024,0.005,0.137,0.127,-0.039,-0.078,0.059,-0.039
1.266,-0.015,0.0,0.015,0.01,-0.015,0.005,0.146,0.137,-0.034,-0.063,0.073,-0.029
1.268,-0.01,0.0,0.01,0.005,-0.01,0.005,0.146,0.137,-0.029,-0.059,0.078,-0.02
1.27,-0.005,0.0,0.005,0.005,-0.005,0.0,0.146,0.137,-0.024,-0.054,0.083,-0.01
1.272,0.0,0.0,0.0,0.0,0.0,0.0,0.146,0.137,-0.02,-0.049,0.088,0.0
1.274,-0.005,0.0,0.005,0.005,-0.005,0.0,0.137,0.132,-0.024,-0.054,0.078,-0.01
1.276,-0.01,0.0,0.01,0.005,-0.01,0.005,0.137,0.127,-0.029,-0.059,0.078,-0.01
1.278,-0.015,0.0,0.015,0.01,-0.015,0.005,0.137,0.122,-0.034,-0.063,0.078,-0.01
1.28,-0.02,0.0,0.02,0.01,-0.02,0.01,0.137,0.117,-0.039,-0.068,0.078,-0.01
1.282,-0.029,-0.015,0.015,0.024,-0.024,0.0,0.146,0.117,-0.039,-0.059,0.078,-0.02
1.284,-0.039,-0.02,0.02,0.029,-0.029,0.0,0.146,0.117,-0.039,-0.059,0.078,-0.02
1.286,-0.049,-0.024,0.024,0.039,-0.039,0.0,0.146,0.117,-0.039,-0.059,0.078,-0.02
1.288,-0.059,-0.029,0.029,0.044,-0.044,0.0,0.146,0.117,-0.039,-0.059,0.078,-0.02
1.29,-0.049,-0.029,0.02,0.039,-0.034,-0.005,0.142,0.117,-0.049,-0.059,0.078,-0.02
1.292,-0.039,-0.029,0.01,0.034,-0.024,-0.01,0.137,0.117,-0.049,-0.059,0.078,-0.02
1.294,-0.029,-0.029,0.0,0.029,-0.015,-0.015,0.132,0.117,-0.049,-0.059,0.078,-0.02
1.296,-0.02,-0.029,-0.01,0.024,-0.005,-0.02,0.127,0.117,-0.049,-0.059,0.078,-0.02
1.298,-0.034,-0.024,0.01,0.029,-0.024,-0.01,0.127,0.107,-0.059,-0.068,0.068,-0.029
1.3,-0.039,-0.02,0.02,0.029,-0.029,0.0,0.127,0.107,-0.059,-0.068,0.068,-0.029
1.302,-0.044,-0.015,0.029,0.029,-0.039,0.005,0.127,0.107,-0.059,-0.068,0.068,-0.029
1.304,-0.049,-0.01,0.039,0.029,-0.044,0.015,0.127,0.107,-0.059,-0.068,0.068,-0.029
1.306,-0.034,-0.01,0.024,0.024,-0.029,0.005,0.117,0.098,-0.059,-0.078,0.068,-0.039
1.308,-0.029,-0.01,0.02,0.02,-0.024,0.005,0.117,0.098,-0.059,-0.078,0.068,-0.039
1.31,-0.024,-0.01,0.015,0.02,-0.02,0.0,0.117,0.098,-0.059,-0.078,0.068,-0.039
1.312,-0.02,-0.01,0.01,0.015,-0.015,0.0,0.117,0.098,-0.059,-0.078,0.068,-0.039
1.314,-0.005,0.0,0.005,0.005,-0.005,0.0,0.127,0.098,-0.049,-0.068,0.078,-0.034
1.316,0.0,0.0,0.0,0.0,0.0,0.0,0.127,0.098,-0.049,-0.068,0.078,-0.029
1.318,0.005,0.0,-0.005,0.0,0.005,-0.005,0.127,0.098,-0.049,-0.068,0.078,-0.024
1.32,0.01,0.0,-0.01,-0.005,0.01,-0.005,0.127,0.098,-0.049,-0.068,0.078,-0.02
1.322,0.0,-0.015,-0.015,0.01,0.005,-0.015,0.137,0.098,-0.039,-0.059,0.088,-0.02
1.324,-0.01,-0.02,-0.01,0.015,0.0,-0.015,0.137,0.098,-0.039,-0.059,0.088,-0.02
1.326,-0.02,-0.024,-0.005,0.024,-0.01,-0.015,0.137,0.098,-0.039,-0.059,0.088,-0.02
1.328,-0.029,-0.029,0.0,0.029,-0.015,-0.015,0.137,0.098,-0.039,-0.059,0.088,-0.02
1.33,-0.039,-0.029,0.01,0.034,-0.024,-0.01,0.127,0.098,-0.049,-0.068,0.083,-0.024
1.332,-0.049,-0.029,0.02,0.039,-0.034,-0.005,0.127,0.098,-0.049,-0.068,0.078,-0.029
1.334,-0.059,-0.029,0.029,0.044,-0.044,0.0,0.127,0.098,-0.049,-0.068,0.073,-0.034
1.336,-0.068,-0.029,0.039,0.049,-0.054,0.005,0.127,0.098,-0.049,-0.068,0.068,-0.039
1.338,-0.049,-0.01,0.039,0.029,-0.044,0.015,0.117,0.088,-0.049,-0.059,0.068,-0.039
1.34,-0.029,0.0,0.029,0.015,-0.029,0.015,0.117,0.088,-0.049,-0.059,0.068,-0.039
1.342,-0.01,0.01,0.02,0.0,-0.015,0.015,0.117,0.088,-0.049,-0.059,0.068,-0.039
1.344,0.01,0.02,0.01,-0.015,0.0,0.015,0.117,0.088,-0.049,-0.059,0.068,-0.039
1.346,-0.01,0.0,0.01,0.005,-0.01,0.005,0.117,0.098,-0.039,-0.059,0.078,-0.034
1.348,-0.029,-0.01,0.02,0.02,-0.024,0.005,0.117,0.098,-0.039,-0.059,0.078,-0.029
1.35,-0.049,-0.02,0.029,0.034,-0.039,0.005,0.117,0.098,-0.039,-0.059,0.078,-0.024
1.352,-0.068,-0.029,0.039,0.049,-0.054,0.005,0.117,0.098,-0.039,-0.059,0.078,-0.02
1.354,-0.059,-0.02,0.039,0.039,-0.049,0.01,0.112,0.093,-0.044,-0.059,0.068,-0.029
1.356,-0.049,-0.02,0.029,0.034,-0.039,0.005,0.107,0.088,-0.049,-0.059,0.068,-0.029
1.358,-0.039,-0.02,0.02,0.029,-0.029,0.0,0.102,0.083,-0.054,-0.059,0.068,-0.029
1.36,-0.029,-0.02,0.01,0.024,-0.02,-0.005,0.098,0.078,-0.059,-0.059,0.068,-0.029
1.362,-0.039,-0.01,0.029,0.024,-0.034,0.01,0.107,0.068,-0.059,-0.063,0.059,-0.039
1.364,-0.039,-0.01,0.029,0.024,-0.034,0.01,0.107,0.068,-0.059,-0.068,0.059,-0.039
1.366,-0.039,-0.01,0.029,0.024,-0.034,0.01,0.107,0.068,-0.059,-0.073,0.059,-0.039
1.368,-0.039,-0.01,0.029,0.024,-0.034,0.01,0.107,0.068,-0.059,-0.078,0.059,-0.039
1.37,-0.02,-0.005,0.015,0.015,-0.02,0.005,0.098,0.078,-0.049,-0.078,0.059,-0.029
1.372,-0.01,0.0,0.01,0.005,-0.01,0.005,0.098,0.078,-0.049,-0.078,0.059,-0.029
1.374,0.0,0.005,0.005,0.0,-0.005,0.005,0.098,0.078,-0.049,-0.078,0.059,-0.029
1.376,0.01,0.01,0.0,-0.01,0.005,0.005,0.098,0.078,-0.049,-0.078,0.059,-0.029
1.378,-0.005,0.005,0.01,0.0,-0.01,0.005,0.107,0.078,-0.049,-0.073,0.068,-0.039
1.38,-0.01,0.0,0.01,0.005,-0.01,0.005,0.107,0.078,-0.049,-0.068,0.068,-0.039
1.382,-0.015,-0.005,0.01,0.01,-0.015,0.0,0.107,0.078,-0.049,-0.063,0.068,-0.039
1.384,-0.02,-0.01,0.01,0.015,-0.015,0.0,0.107,0.078,-0.049,-0.059,0.068,-0.039
1.386,-0.034,-0.024,0.01,0.029,-0.024,-0.01,0.098,0.078,-0.039,-0.068,0.059,-0.049
1.388,-0.039,-0.029,0.01,0.034,-0.024,-0.01,0.098,0.078,-0.039,-0.068,0.059,-0.049
1.39,-0.044,-0.034,0.01,0.039,-0.029,-0.015,0.098,0.078,-0.039,-0.068,0.059,-0.049
1.392,-0.049,-0.039,0.01,0.044,-0.029,-0.015,0.098,0.078,-0.039,-0.068,0.059,-0.049
1.394,-0.039,-0.039,0.0,0.039,-0.02,-0.02,0.088,0.078,-0.049,-0.068,0.059,-0.044
1.396,-0.039,-0.039,0.0,0.039,-0.02,-0.02,0.088,0.078,-0.049,-0.068,0.059,-0.039
1.398,-0.039,-0.039,0.0,0.039,-0.02,-0.02,0.088,0.078,-0.049,-0.068,0.059,-0.034
1.4,-0.039,-0.039,0.0,0.039,-0.02,-0.02,0.088,0.078,-0.049,-0.068,0.059,-0.029
1.402,-0.034,-0.034,0.0,0.034,-0.02,-0.02,0.093,0.078,-0.049,-0.059,0.068,-0.02
1.404,-0.029,-0.029,0.0,0.029,-0.015,-0.015,0.098,0.078,-0.049,-0.059,0.068,-0.02
1.406,-0.024,-0.024,0.0,0.024,-0.015,-0.015,0.102,0.078,-0.049,-0.059,0.068,-0.02
1.408,-0.02,-0.02,0.0,0.02,-0.01,-0.01,0.107,0.078,-0.049,-0.059,0.068,-0.02
1.41,-0.01,-0.005,0.005,0.01,-0.01,0.0,0.102,0.078,-0.049,-0.059,0.068,-0.024
1.412,-0.01,0.0,0.01,0.005,-0.01,0.005,0.098,0.078,-0.049,-0.059,0.068,-0.029
1.414,-0.01,0.005,0.015,0.005,-0.015,0.01,0.093,0.078,-0.049,-0.059,0.068,-0.034
1.416,-0.01,0.01,0.02,0.0,-0.015,0.015,0.088,0.078,-0.049,-0.059,0.068,-0.039
1.418,-0.02,0.005,0.024,0.01,-0.024,0.015,0.088,0.068,-0.054,-0.063,0.063,-0.049
1.42,-0.029,0.0,0.029,0.015,-0.029,0.015,0.088,0.068,-0.059,-0.068,0.059,-0.049
1.422,-0.039,-0.005,0.034,0.024,-0.039,0.015,0.088,0.068,-0.063,-0.073,0.054,-0.049
1.424,-0.049,-0.01,0.039,0.029,-0.044,0.015,0.088,0.068,-0.068,-0.078,0.049,-0.049
1.426,-0.039,-0.015,0.024,0.029,-0.034,0.005,0.098,0.073,-0.063,-0.068,0.059,-0.044
1.428,-0.039,-0.02,0.02,0.029,-0.029,0.0,0.098,0.078,-0.059,-0.068,0.059,-0.039
1.43,-0.039,-0.024,0.015,0.034,-0.029,-0.005,0.098,0.083,-0.054,-0.068,0.059,-0.034
1.432,-0.039,-0.029,0.01,0.034,-0.024,-0.01,0.098,0.088,-0.049,-0.068,0.059,-0.029
1.434,-0.029,-0.015,0.015,0.024,-0.024,0.0,0.098,0.088,-0.059,-0.059,0.068,-0.029
1.436,-0.02,-0.01,0.01,0.015,-0.015,0.0,0.098,0.088,-0.059,-0.059,0.068,-0.029
1.438,-0.01,-0.005,0.005,0.01,-0.01,0.0,0.098,0.088,-0.059,-0.059,0.068,-0.029
1.44,0.0,0.0,0.0,0.0,0.0,0.0,0.098,0.088,-0.059,-0.059,0.068,-0.029
1.442,-0.015,-0.005,0.01,0.01,-0.015,0.0,0.098,0.078,-0.059,-0.049,0.063,-0.039
1.444,-0.029,-0.01,0.02,0.02,-0.024,0.005,0.098,0.078,-0.059,-0.049,0.059,-0.039
1.446,-0.044,-0.015,0.029,0.029,-0.039,0.005,0.098,0.078,-0.059,-0.049,0.054,-0.039
1.448,-0.059,-0.02,0.039,0.039,-0.049,0.01,0.098,0.078,-0.059,-0.049,0.049,-0.039
1.45,-0.073,-0.024,0.049,0.049,-0.063,0.01,0.093,0.068,-0.063,-0.063,0.039,-0.049
1.452,-0.078,-0.029,0.049,0.054,-0.063,0.01,0.088,0.068,-0.068,-0.068,0.039,-0.049
1.454,-0.083,-0.034,0.049,0.059,-0.068,0.005,0.083,0.068,-0.073,-0.073,0.039,-0.049
1.456,-0.088,-0.039,0.049,0.063,-0.068,0.005,0.078,0.068,-0.078,-0.078,0.039,-0.049
1.458,-0.068,-0.015,0.054,0.044,-0.063,0.02,0.093,0.078,-0.068,-0.068,0.049,-0.044
1.46,-0.049,0.0,0.049,0.024,-0.049,0.024,0.098,0.078,-0.068,-0.068,0.049,-0.039
1.462,-0.029,0.015,0.044,0.01,-0.039,0.029,0.102,0.078,-0.068,-0.068,0.049,-0.034
1.464,-0.01,0.029,0.039,-0.01,-0.024,0.034,0.107,0.078,-0.068,-0.068,0.049,-0.029
1.466,-0.01,0.029,0.039,-0.01,-0.024,0.034,0.112,0.083,-0.054,-0.054,0.063,-0.015
1.468,-0.01,0.029,0.039,-0.01,-0.024,0.034,0.117,0.088,-0.049,-0.049,0.068,-0.01
1.47,-0.01,0.029,0.039,-0.01,-0.024,0.034,0.122,0.093,-0.044,-0.044,0.073,-0.005
1.472,-0.01,0.029,0.039,-0.01,-0.024,0.034,0.127,0.098,-0.039,-0.039,0.078,0.0
1.474,-0.015,0.02,0.034,0.0,-0.024,0.024,0.117,0.088,-0.049,-0.039,0.068,-0.005
1.476,-0.02,0.02,0.039,0.0,-0.029,0.029,0.117,0.088,-0.049,-0.039,0.068,-0.01
1.478,-0.024,0.02,0.044,0.005,-0.034,0.029,0.117,0.088,-0.049,-0.039,0.068,-0.015
1.48,-0.029,0.02,0.049,0.005,-0.039,0.034,0.117,0.088,-0.049,-0.039,0.068,-0.02
1.482,-0.02,0.024,0.044,0.0,-0.034,0.034,0.122,0.093,-0.044,-0.029,0.078,-0.02
1.484,-0.02,0.029,0.049,-0.005,-0.034,0.039,0.127,0.098,-0.039,-0.029,0.078,-0.02
1.486,-0.02,0.034,0.054,-0.005,-0.039,0.044,0.132,0.102,-0.034,-0.029,0.078,-0.02
1.488,-0.02,0.039,0.059,-0.01,-0.039,0.049,0.137,0.107,-0.029,-0.029,0.078,-0.02
1.49,-0.029,0.024,0.054,0.005,-0.044,0.039,0.146,0.102,-0.039,-0.039,0.068,-0.029
1.492,-0.039,0.02,0.059,0.01,-0.049,0.039,0.146,0.098,-0.039,-0.039,0.068,-0.029
1.494,-0.049,0.015,0.063,0.02,-0.059,0.039,0.146,0.093,-0.039,-0.039,0.068,-0.029
1.496,-0.059,0.01,0.068,0.024,-0.063,0.039,0.146,0.088,-0.039,-0.039,0.068,-0.029
1.498,-0.049,0.015,0.063,0.02,-0.059,0.039,0.146,0.098,-0.039,-0.029,0.078,-0.024
1.5,-0.049,0.02,0.068,0.015,-0.059,0.044,0.146,0.098,-0.039,-0.029,0.078,-0.02
1.502,-0.049,0.024,0.073,0.015,-0.063,0.049,0.146,0.098,-0.039,-0.029,0.078,-0.015
1.504,-0.049,0.029,0.078,0.01,-0.063,0.054,0.146,0.098,-0.039,-0.029,0.078,-0.01
1.506,-0.029,0.054,0.083,-0.01,-0.059,0.068,0.137,0.102,-0.034,-0.024,0.083,0.0
1.508,-0.01,0.068,0.078,-0.029,-0.044,0.073,0.137,0.107,-0.029,-0.02,0.088,0.0
1.51,0.01,0.083,0.073,-0.044,-0.034,0.078,0.137,0.112,-0.024,-0.015,0.093,0.0
1.512,0.034,0.098,0.063,-0.063,-0.015,0.078,0.122,0.122,-0.015,-0.01,0.107,0.0
1.514,0.029,0.098,0.068,-0.063,-0.02,0.083,0.112,0.117,-0.015,-0.01,0.107,0.0
1.516,0.029,0.098,0.068,-0.063,-0.02,0.083,0.098,0.102,-0.029,-0.01,0.107,0.0
1.518,0.029,0.098,0.068,-0.063,-0.02,0.083,0.088,0.098,-0.029,-0.015,0.098,-0.005
1.52,0.024,0.102,0.078,-0.063,-0.029,0.088,0.088,0.093,-0.029,-0.015,0.098,-0.005
1.522,0.015,0.088,0.073,-0.049,-0.029,0.078,0.073,0.093,-0.039,-0.024,0.102,-0.005
1.524,0.01,0.083,0.073,-0.044,-0.034,0.078,0.073,0.088,-0.039,-0.024,0.102,0.0
1.526,0.0,0.078,0.078,-0.039,-0.039,0.078,0.068,0.088,-0.039,-0.02,0.107,0.0
1.528,-0.005,0.073,0.078,-0.034,-0.044,0.073,0.068,0.088,-0.034,-0.02,0.107,0.0
1.53,0.015,0.073,0.059,-0.044,-0.024,0.063,0.063,0.088,-0.024,-0.01,0.107,0.0
1.532,0.02,0.078,0.059,-0.049,-0.02,0.068,0.063,0.088,-0.024,-0.01,0.107,0.0
1.534,0.034,0.088,0.054,-0.059,-0.01,0.068,0.063,0.093,-0.024,-0.005,0.112,0.01
1.536,0.049,0.088,0.039,-0.068,0.005,0.063,0.063,0.093,-0.024,-0.005,0.112,0.015
1.538,0.049,0.073,0.024,-0.059,0.01,0.049,0.049,0.093,-0.024,-0.005,0.102,0.02
1.54,0.029,0.068,0.039,-0.049,-0.005,0.054,0.049,0.083,-0.029,-0.01,0.102,0.024
1.542,0.029,0.068,0.039,-0.049,-0.005,0.054,0.049,0.083,-0.029,-0.01,0.102,0.029
1.544,0.039,0.063,0.024,-0.049,0.005,0.044,0.044,0.083,-0.029,-0.01,0.102,0.034
1.546,0.044,0.068,0.024,-0.054,0.01,0.044,0.029,0.093,-0.02,-0.005,0.112,0.034
1.548,0.054,0.068,0.015,-0.059,0.02,0.039,0.029,0.093,-0.02,-0.005,0.112,0.029
1.55,0.039,0.068,0.029,-0.054,0.005,0.049,0.039,0.093,-0.024,-0.005,0.112,0.029
1.552,0.029,0.059,0.029,-0.044,0.0,0.044,0.039,0.088,-0.029,-0.005,0.102,0.02
1.554,0.015,0.02,0.005,-0.015,0.005,0.01,0.015,0.068,-0.049,-0.024,0.088,0.005
1.556,0.02,0.015,-0.005,-0.015,0.01,0.005,0.015,0.063,-0.054,-0.029,0.073,-0.01
1.558,0.044,0.029,-0.015,-0.034,0.029,0.005,0.015,0.059,-0.059,-0.034,0.078,-0.02
1.56,0.059,0.034,-0.024,-0.044,0.039,0.005,0.015,0.054,-0.063,-0.039,0.073,-0.034
1.562,0.029,0.024,-0.005,-0.024,0.015,0.01,0.015,0.059,-0.068,-0.049,0.078,-0.024
1.564,0.02,0.024,0.005,-0.02,0.005,0.015,0.015,0.054,-0.063,-0.044,0.083,-0.015
1.566,0.01,0.024,0.015,-0.015,-0.005,0.02,0.024,0.054,-0.059,-0.029,0.093,0.005
1.568,-0.005,0.024,0.029,-0.01,-0.02,0.024,0.024,0.059,-0.049,-0.024,0.098,0.015
1.57,0.0,0.005,0.005,0.0,-0.005,0.005,0.024,0.059,-0.039,-0.024,0.107,0.005
1.572,0.01,0.0,-0.01,-0.005,0.01,-0.005,0.024,0.059,-0.039,-0.02,0.107,0.005
1.574,0.029,0.0,-0.029,-0.015,0.029,-0.015,0.024,0.059,-0.039,-0.015,0.107,0.005
1.576,0.029,-0.005,-0.034,-0.01,0.029,-0.02,0.034,0.059,-0.039,-0.01,0.098,0.0
1.578,-0.01,-0.034,-0.024,0.024,0.005,-0.029,0.039,0.068,-0.049,-0.015,0.083,-0.015
1.58,-0.039,-0.049,-0.01,0.044,-0.015,-0.029,0.044,0.073,-0.049,-0.024,0.073,-0.024
1.582,-0.049,-0.044,0.005,0.049,-0.029,-0.02,0.044,0.073,-0.049,-0.034,0.063,-0.034
1.584,-0.049,-0.039,0.01,0.044,-0.029,-0.015,0.039,0.063,-0.059,-0.049,0.054,-0.039
1.586,-0.068,-0.054,0.015,0.063,-0.044,-0.02,0.029,0.049,-0.083,-0.054,0.049,-0.044
1.588,-0.083,-0.063,0.02,0.073,-0.054,-0.024,0.024,0.034,-0.093,-0.059,0.044,-0.049
1.59,-0.073,-0.059,0.015,0.068,-0.044,-0.024,0.024,0.024,-0.098,-0.068,0.029,-0.054
1.592,-0.054,-0.059,-0.005,0.059,-0.024,-0.034,0.02,0.015,-0.102,-0.068,0.029,-0.059
1.594,-0.039,-0.049,-0.01,0.044,-0.015,-0.029,0.015,0.015,-0.112,-0.078,0.02,-0.068
1.596,-0.039,-0.044,-0.005,0.044,-0.02,-0.024,0.015,0.02,-0.107,-0.078,0.024,-0.063
1.598,-0.039,-0.044,-0.005,0.044,-0.02,-0.024,0.01,0.02,-0.102,-0.073,0.029,-0.059
1.6,-0.039,-0.049,-0.01,0.044,-0.015,-0.029,0.01,0.015,-0.102,-0.073,0.029,-0.059
1.602,-0.024,-0.029,-0.005,0.029,-0.01,-0.02,0.01,0.02,-0.098,-0.059,0.034,-0.054
1.604,-0.02,-0.02,0.0,0.02,-0.01,-0.01,0.015,0.024,-0.093,-0.059,0.039,-0.044
1.606,-0.015,-0.01,0.005,0.015,-0.01,-0.005,0.029,0.029,-0.088,-0.054,0.044,-0.034
1.608,-0.024,0.005,0.029,0.01,-0.029,0.015,0.034,0.034,-0.083,-0.044,0.049,-0.024
1.61,-0.039,-0.015,0.024,0.029,-0.034,0.005,0.024,0.02,-0.088,-0.044,0.039,-0.039
1.612,-0.029,-0.024,0.005,0.029,-0.02,-0.01,0.024,0.015,-0.093,-0.044,0.044,-0.044
1.614,-0.059,-0.039,0.02,0.049,-0.039,-0.01,0.029,0.015,-0.093,-0.044,0.044,-0.049
1.616,-0.088,-0.059,0.029,0.073,-0.059,-0.015,0.029,0.01,-0.098,-0.049,0.044,-0.063
1.618,-0.054,-0.044,0.01,0.049,-0.034,-0.02,0.02,0.015,-0.098,-0.049,0.044,-0.054
1.62,-0.044,-0.034,0.01,0.039,-0.029,-0.015,0.02,0.015,-0.098,-0.054,0.044,-0.054
1.622,-0.044,-0.029,0.015,0.039,-0.029,-0.01,0.029,0.015,-0.093,-0.054,0.049,-0.054
1.624,-0.039,-0.024,0.015,0.034,-0.029,-0.005,0.029,0.02,-0.088,-0.049,0.049,-0.049
1.626,-0.059,-0.039,0.02,0.049,-0.039,-0.01,0.039,0.024,-0.078,-0.054,0.049,-0.039
1.628,-0.078,-0.049,0.029,0.063,-0.054,-0.01,0.039,0.024,-0.078,-0.054,0.054,-0.034
1.63,-0.073,-0.049,0.024,0.063,-0.049,-0.015,0.039,0.024,-0.078,-0.054,0.054,-0.034
1.632,-0.063,-0.049,0.015,0.059,-0.039,-0.02,0.044,0.024,-0.078,-0.049,0.054,-0.029
1.634,-0.059,-0.039,0.02,0.049,-0.039,-0.01,0.044,0.01,-0.088,-0.039,0.063,-0.029
1.636,-0.054,-0.034,0.02,0.044,-0.039,-0.01,0.039,0.005,-0.093,-0.044,0.059,-0.039
1.638,-0.044,-0.034,0.01,0.039,-0.029,-0.015,0.039,0.005,-0.093,-0.044,0.059,-0.039
1.64,-0.039,-0.034,0.005,0.039,-0.024,-0.015,0.039,0.01,-0.093,-0.044,0.063,-0.034
1.642,-0.044,-0.024,0.02,0.034,-0.034,-0.005,0.029,0.01,-0.088,-0.059,0.059,-0.044
1.644,-0.044,-0.024,0.02,0.034,-0.034,-0.005,0.029,0.01,-0.088,-0.059,0.054,-0.049
1.646,-0.039,-0.02,0.02,0.029,-0.029,0.0,0.029,0.0,-0.098,-0.059,0.044,-0.063
1.648,-0.039,-0.02,0.02,0.029,-0.029,0.0,0.029,0.01,-0.088,-0.059,0.039,-0.059
1.65,-0.049,-0.054,-0.005,0.054,-0.024,-0.029,0.039,0.01,-0.088,-0.063,0.034,-0.078
1.652,-0.102,-0.078,0.024,0.093,-0.063,-0.029,0.034,0.005,-0.098,-0.068,0.015,-0.078
1.654,-0.093,-0.078,0.015,0.088,-0.054,-0.034,0.044,0.015,-0.088,-0.054,0.02,-0.078
1.656,-0.049,-0.044,0.005,0.049,-0.029,-0.02,0.054,0.029,-0.059,-0.024,0.039,-0.068
1.658,-0.044,-0.034,0.01,0.039,-0.029,-0.015,0.059,0.044,-0.044,-0.01,0.049,-0.059
1.66,-0.044,-0.034,0.01,0.039,-0.029,-0.015,0.054,0.049,-0.039,-0.005,0.049,-0.063
1.662,-0.034,-0.049,-0.015,0.044,-0.01,-0.034,0.059,0.083,-0.01,0.015,0.059,-0.054
1.664,-0.059,-0.068,-0.01,0.063,-0.024,-0.039,0.088,0.137,0.044,0.063,0.098,-0.029
1.666,-0.107,-0.059,0.049,0.083,-0.078,-0.005,0.127,0.205,0.112,0.122,0.146,-0.01
1.668,-0.078,-0.034,0.044,0.059,-0.063,0.005,0.156,0.283,0.2,0.181,0.181,0.005
1.67,-0.01,-0.005,0.005,0.01,-0.01,0.0,0.19,0.337,0.273,0.234,0.215,0.02
1.672,0.0,0.024,0.024,-0.01,-0.015,0.024,0.244,0.405,0.351,0.322,0.273,0.049
1.674,-0.005,0.029,0.034,-0.01,-0.02,0.029,0.288,0.464,0.468,0.449,0.366,0.117
1.676,0.0,0.039,0.039,-0.02,-0.02,0.039,0.293,0.542,0.61,0.59,0.464,0.171
1.678,-0.015,0.063,0.078,-0.024,-0.049,0.068,0.303,0.6,0.732,0.717,0.551,0.22
1.68,0.024,0.083,0.059,-0.054,-0.02,0.068,0.264,0.654,0.854,0.864,0.669,0.283
1.682,0.151,0.117,-0.034,-0.132,0.093,0.039,0.176,0.717,1.0,1.035,0.834,0.386
1.684,0.264,0.185,-0.078,-0.224,0.171,0.054,0.059,0.776,1.122,1.205,1.0,0.498
1.686,0.322,0.268,-0.054,-0.293,0.185,0.107,-0.073,0.805,1.225,1.318,1.122,0.581
1.688,0.39,0.317,-0.073,-0.351,0.229,0.122,-0.22,0.82,1.308,1.401,1.215,0.654
1.69,0.464,0.361,-0.102,-0.41,0.283,0.127,-0.376,0.82,1.371,1.474,1.313,0.737
1.692,0.517,0.449,-0.068,-0.483,0.293,0.19,-0.551,0.771,1.391,1.532,1.405,0.825
1.694,0.542,0.527,-0.015,-0.532,0.278,0.254,-0.727,0.605,1.264,1.454,1.401,0.869
1.696,0.512,0.547,0.034,-0.527,0.239,0.288,-0.82,0.337,0.971,1.215,1.244,0.82
1.698,0.415,0.508,0.093,-0.459,0.161,0.298,-0.874,-0.015,0.542,0.82,0.971,0.703
1.7,0.293,0.4,0.107,-0.346,0.093,0.254,-0.927,-0.464,-0.059,0.278,0.605,0.532
1.702,0.22,0.273,0.054,-0.244,0.083,0.161,-0.971,-0.888,-0.664,-0.268,0.234,0.342
1.704,0.195,0.22,0.024,-0.205,0.083,0.122,-0.996,-1.122,-1.035,-0.595,0.024,0.234
1.706,0.156,0.229,0.073,-0.19,0.039,0.151,-1.01,-1.205,-1.176,-0.708,-0.039,0.224
1.708,0.122,0.205,0.083,-0.161,0.02,0.142,-1.0,-1.205,-1.2,-0.737,-0.088,0.185
1.71,0.088,0.117,0.029,-0.102,0.029,0.073,-0.976,-1.157,-1.152,-0.732,-0.146,0.107
1.712,0.059,0.054,-0.005,-0.054,0.029,0.024,-0.937,-1.064,-1.074,-0.712,-0.195,0.024
1.714,0.015,0.029,0.015,-0.02,0.0,0.02,-0.898,-0.981,-1.01,-0.688,-0.21,-0.015
1.716,-0.015,0.01,0.024,0.005,-0.02,0.015,-0.839,-0.913,-0.942,-0.654,-0.224,-0.039
1.718,-0.039,0.01,0.049,0.015,-0.044,0.029,-0.776,-0.839,-0.883,-0.644,-0.234,-0.054
1.72,-0.029,0.02,0.049,0.005,-0.039,0.034,-0.693,-0.752,-0.82,-0.615,-0.229,-0.068
1.722,0.01,0.029,0.02,-0.02,-0.005,0.024,-0.605,-0.659,-0.737,-0.551,-0.215,-0.073
1.724,0.024,0.044,0.02,-0.034,0.0,0.029,-0.517,-0.566,-0.644,-0.493,-0.185,-0.083
1.726,0.005,0.054,0.049,-0.029,-0.024,0.049,-0.429,-0.473,-0.561,-0.429,-0.161,-0.088
1.728,-0.01,0.034,0.044,-0.01,-0.029,0.039,-0.346,-0.39,-0.483,-0.366,-0.137,-0.078
1.73,-0.01,0.02,0.029,-0.005,-0.02,0.024,-0.278,-0.327,-0.42,-0.322,-0.122,-0.073
1.732,0.005,0.02,0.015,-0.01,-0.005,0.015,-0.224,-0.283,-0.376,-0.293,-0.102,-0.083
1.734,-0.015,-0.02,-0.005,0.02,-0.005,-0.015,-0.181,-0.224,-0.322,-0.259,-0.083,-0.078
1.736,-0.029,-0.039,-0.01,0.034,-0.01,-0.024,-0.137,-0.166,-0.268,-0.215,-0.049,-0.063
1.738,0.01,-0.02,-0.029,0.005,0.02,-0.024,-0.098,-0.132,-0.239,-0.185,-0.024,-0.054
1.74,0.015,-0.02,-0.034,0.005,0.024,-0.029,-0.083,-0.107,-0.22,-0.166,-0.01,-0.049
1.742,-0.015,-0.049,-0.034,0.034,0.01,-0.044,-0.068,-0.088,-0.185,-0.142,0.015,-0.029
1.744,-0.02,-0.054,-0.034,0.039,0.005,-0.044,-0.039,-0.059,-0.161,-0.107,0.024,-0.024
1.746,-0.029,-0.049,-0.02,0.039,-0.005,-0.034,-0.01,-0.034,-0.137,-0.093,0.039,-0.02
1.748,-0.044,-0.049,-0.005,0.049,-0.02,-0.029,0.01,-0.029,-0.132,-0.088,0.044,-0.015
1.75,-0.063,-0.049,0.015,0.059,-0.039,-0.02,0.02,-0.024,-0.132,-0.083,0.034,-0.02
1.752,-0.068,-0.044,0.024,0.059,-0.049,-0.01,0.024,-0.015,-0.132,-0.083,0.044,-0.029
1.754,-0.078,-0.054,0.024,0.068,-0.054,-0.015,0.024,-0.015,-0.132,-0.083,0.044,-0.034
1.756,-0.078,-0.059,0.02,0.068,-0.049,-0.02,0.02,-0.01,-0.132,-0.083,0.044,-0.034
1.758,-0.063,-0.039,0.024,0.054,-0.044,-0.01,0.02,-0.005,-0.117,-0.078,0.054,-0.034
1.76,-0.049,-0.029,0.02,0.039,-0.034,-0.005,0.02,0.005,-0.102,-0.068,0.054,-0.034
1.762,-0.044,-0.024,0.02,0.034,-0.034,-0.005,0.029,0.015,-0.102,-0.068,0.054,-0.039
1.764,-0.039,-0.02,0.02,0.029,-0.029,0.0,0.039,0.024,-0.088,-0.068,0.049,-0.039
1.766,-0.039,-0.015,0.024,0.029,-0.034,0.005,0.049,0.024,-0.088,-0.059,0.044,-0.044
1.768,-0.063,-0.02,0.044,0.044,-0.054,0.01,0.049,0.024,-0.098,-0.054,0.039,-0.044
1.77,-0.059,-0.034,0.024,0.049,-0.044,-0.005,0.049,0.02,-0.093,-0.054,0.039,-0.039
1.772,-0.054,-0.054,0.0,0.054,-0.029,-0.029,0.049,0.02,-0.088,-0.049,0.039,-0.039
1.774,-0.049,-0.059,-0.01,0.054,-0.02,-0.034,0.044,0.02,-0.088,-0.044,0.044,-0.039
1.776,-0.049,-0.044,0.005,0.049,-0.029,-0.02,0.039,0.029,-0.088,-0.044,0.054,-0.034
1.778,-0.039,-0.034,0.005,0.039,-0.024,-0.015,0.039,0.034,-0.088,-0.044,0.059,-0.029
1.78,-0.049,-0.034,0.015,0.044,-0.034,-0.01,0.039,0.034,-0.083,-0.044,0.059,-0.024
1.782,-0.073,-0.049,0.024,0.063,-0.049,-0.015,0.039,0.039,-0.078,-0.044,0.054,-0.029
1.784,-0.073,-0.054,0.02,0.063,-0.049,-0.02,0.039,0.039,-0.078,-0.054,0.044,-0.02
1.786,-0.063,-0.059,0.005,0.063,-0.034,-0.029,0.049,0.044,-0.078,-0.054,0.044,-0.02
1.788,-0.088,-0.073,0.015,0.083,-0.054,-0.029,0.049,0.044,-0.078,-0.054,0.044,-0.02
1.79,-0.088,-0.068,0.02,0.078,-0.054,-0.024,0.049,0.034,-0.083,-0.054,0.039,-0.029
1.792,-0.068,-0.059,0.01,0.063,-0.039,-0.024,0.049,0.029,-0.088,-0.054,0.029,-0.039
1.794,-0.049,-0.059,-0.01,0.054,-0.02,-0.034,0.049,0.029,-0.088,-0.054,0.034,-0.034
1.796,-0.044,-0.059,-0.015,0.054,-0.015,-0.039,0.049,0.029,-0.093,-0.049,0.034,-0.034
1.798,-0.029,-0.049,-0.02,0.039,-0.005,-0.034,0.049,0.024,-0.088,-0.039,0.034,-0.029
1.8,-0.044,-0.039,0.005,0.044,-0.024,-0.02,0.059,0.034,-0.078,-0.029,0.054,-0.024
1.802,-0.054,-0.034,0.02,0.044,-0.039,-0.01,0.059,0.039,-0.073,-0.029,0.054,-0.024
1.804,-0.054,-0.044,0.01,0.049,-0.034,-0.02,0.063,0.049,-0.068,-0.024,0.059,-0.024
1.806,-0.059,-0.024,0.034,0.044,-0.049,0.005,0.068,0.059,-0.059,-0.02,0.059,-0.024
1.808,-0.068,-0.015,0.054,0.044,-0.063,0.02,0.068,0.049,-0.059,-0.01,0.068,-0.024
1.81,-0.063,-0.024,0.039,0.044,-0.054,0.005,0.068,0.044,-0.063,-0.01,0.063,-0.02
1.812,-0.063,-0.034,0.029,0.049,-0.049,-0.005,0.068,0.044,-0.063,-0.02,0.059,-0.015
1.814,-0.063,-0.044,0.02,0.054,-0.044,-0.015,0.063,0.044,-0.068,-0.02,0.059,-0.015
1.816,-0.039,-0.02,0.02,0.029,-0.029,0.0,0.054,0.034,-0.068,-0.024,0.059,-0.005
1.818,-0.034,-0.02,0.015,0.029,-0.024,-0.005,0.049,0.034,-0.063,-0.024,0.059,0.0
1.82,-0.034,-0.024,0.01,0.029,-0.024,-0.01,0.044,0.034,-0.063,-0.024,0.059,0.0
1.822,-0.034,-0.024,0.01,0.029,-0.024,-0.01,0.039,0.034,-0.059,-0.024,0.059,-0.01
1.824,-0.024,-0.024,0.0,0.024,-0.015,-0.015,0.034,0.034,-0.059,-0.02,0.059,-0.01
1.826,-0.024,-0.029,-0.005,0.029,-0.01,-0.02,0.034,0.034,-0.059,-0.02,0.054,-0.01
1.828,-0.029,-0.039,-0.01,0.034,-0.01,-0.024,0.039,0.034,-0.059,-0.02,0.049,-0.01
1.83,-0.029,-0.044,-0.015,0.039,-0.01,-0.029,0.044,0.044,-0.059,-0.015,0.044,-0.01
1.832,-0.049,-0.054,-0.005,0.054,-0.024,-0.029,0.044,0.034,-0.059,-0.015,0.044,-0.005
1.834,-0.059,-0.054,0.005,0.059,-0.034,-0.024,0.044,0.034,-0.059,-0.02,0.049,0.0
1.836,-0.068,-0.054,0.015,0.063,-0.044,-0.02,0.044,0.039,-0.059,-0.024,0.049,0.0
1.838,-0.083,-0.054,0.029,0.068,-0.059,-0.015,0.039,0.039,-0.059,-0.029,0.049,0.0
1.84,-0.098,-0.078,0.02,0.088,-0.059,-0.029,0.029,0.034,-0.063,-0.029,0.039,-0.005
1.842,-0.102,-0.083,0.02,0.093,-0.063,-0.034,0.024,0.029,-0.068,-0.029,0.039,-0.015
1.844,-0.102,-0.093,0.01,0.098,-0.059,-0.044,0.029,0.024,-0.068,-0.024,0.039,-0.02
1.846,-0.102,-0.107,-0.005,0.107,-0.049,-0.059,0.029,0.02,-0.073,-0.024,0.039,-0.024
1.848,-0.078,-0.088,-0.01,0.083,-0.034,-0.049,0.034,0.029,-0.068,-0.02,0.049,-0.015
1.85,-0.068,-0.063,0.005,0.068,-0.039,-0.029,0.039,0.034,-0.063,-0.02,0.044,-0.015
1.852,-0.059,-0.044,0.015,0.054,-0.039,-0.015,0.044,0.039,-0.059,-0.015,0.044,-0.015
1.854,-0.059,-0.024,0.034,0.044,-0.049,0.005,0.059,0.049,-0.049,-0.005,0.049,-0.005
1.856,-0.068,-0.024,0.044,0.049,-0.059,0.01,0.068,0.044,-0.049,0.005,0.068,0.005
1.858,-0.059,-0.029,0.029,0.044,-0.044,0.0,0.059,0.044,-0.049,0.005,0.059,-0.005
1.86,-0.039,-0.029,0.01,0.034,-0.024,-0.01,0.059,0.044,-0.049,0.005,0.059,-0.005
1.862,-0.039,-0.02,0.02,0.029,-0.029,0.0,0.059,0.049,-0.044,0.005,0.063,-0.005
1.864,-0.063,-0.034,0.029,0.049,-0.049,-0.005,0.068,0.049,-0.044,0.01,0.073,0.005
1.866,-0.068,-0.039,0.029,0.054,-0.049,-0.005,0.068,0.054,-0.029,0.01,0.073,0.005
1.868,-0.063,-0.044,0.02,0.054,-0.044,-0.015,0.068,0.054,-0.039,0.005,0.063,0.005
1.87,-0.068,-0.049,0.02,0.059,-0.044,-0.015,0.068,0.054,-0.039,0.005,0.063,0.005
1.872,-0.068,-0.044,0.024,0.059,-0.049,-0.01,0.059,0.044,-0.039,0.005,0.063,0.005
1.874,-0.073,-0.059,0.015,0.068,-0.044,-0.024,0.059,0.049,-0.039,0.005,0.059,0.005
1.876,-0.073,-0.059,0.015,0.068,-0.044,-0.024,0.054,0.049,-0.039,0.0,0.044,0.005
1.878,-0.073,-0.059,0.015,0.068,-0.044,-0.024,0.054,0.049,-0.039,0.0,0.039,0.005
1.88,-0.063,-0.054,0.01,0.059,-0.039,-0.024,0.049,0.054,-0.044,0.0,0.039,0.0
1.882,-0.063,-0.049,0.015,0.059,-0.039,-0.02,0.054,0.063,-0.034,0.01,0.039,0.0
1.884,-0.054,-0.044,0.01,0.049,-0.034,-0.02,0.059,0.063,-0.034,0.01,0.049,-0.005
1.886,-0.044,-0.044,0.0,0.044,-0.024,-0.024,0.059,0.063,-0.034,0.01,0.049,-0.01
1.888,-0.054,-0.039,0.015,0.049,-0.034,-0.015,0.049,0.063,-0.044,0.01,0.049,0.0
1.89,-0.054,-0.024,0.029,0.039,-0.044,0.0,0.049,0.063,-0.039,0.01,0.054,0.0
1.892,-0.049,-0.015,0.034,0.034,-0.044,0.01,0.059,0.073,-0.029,0.01,0.059,0.005
1.894,-0.049,-0.01,0.039,0.029,-0.044,0.015,0.063,0.078,-0.024,0.015,0.063,0.005
1.896,-0.059,-0.005,0.054,0.034,-0.059,0.024,0.063,0.088,-0.02,0.029,0.073,0.01
1.898,-0.063,-0.02,0.044,0.044,-0.054,0.01,0.063,0.093,-0.015,0.044,0.078,0.02
1.9,-0.059,-0.02,0.039,0.039,-0.049,0.01,0.059,0.093,-0.015,0.049,0.078,0.024
1.902,-0.034,-0.01,0.024,0.024,-0.029,0.005,0.059,0.093,-0.02,0.049,0.068,0.024
1.904,-0.049,-0.029,0.02,0.039,-0.034,-0.005,0.073,0.093,-0.01,0.039,0.059,0.02
1.906,-0.059,-0.039,0.02,0.049,-0.039,-0.01,0.073,0.098,-0.005,0.039,0.068,0.02
1.908,-0.078,-0.059,0.02,0.068,-0.049,-0.02,0.083,0.098,-0.005,0.039,0.068,0.015
1.91,-0.088,-0.068,0.02,0.078,-0.054,-0.024,0.083,0.102,0.0,0.039,0.073,0.01
1.912,-0.073,-0.049,0.024,0.063,-0.049,-0.015,0.078,0.102,0.01,0.049,0.073,0.005
1.914,-0.068,-0.044,0.024,0.059,-0.049,-0.01,0.078,0.102,0.01,0.049,0.073,0.005
1.916,-0.044,-0.039,0.005,0.044,-0.024,-0.02,0.078,0.102,0.01,0.044,0.068,0.005
1.918,-0.02,-0.034,-0.015,0.029,-0.005,-0.024,0.078,0.102,0.01,0.044,0.059,0.005
1.92,-0.039,-0.034,0.005,0.039,-0.024,-0.015,0.088,0.122,0.02,0.049,0.083,0.015
1.922,-0.059,-0.034,0.024,0.049,-0.044,-0.005,0.098,0.132,0.024,0.059,0.093,0.024
1.924,-0.068,-0.039,0.029,0.054,-0.049,-0.005,0.098,0.137,0.029,0.059,0.093,0.024
1.926,-0.063,-0.039,0.024,0.054,-0.044,-0.01,0.102,0.142,0.034,0.063,0.088,0.024
1.928,-0.063,-0.044,0.02,0.054,-0.044,-0.015,0.098,0.137,0.034,0.063,0.078,0.02
1.93,-0.059,-0.029,0.029,0.044,-0.044,0.0,0.098,0.142,0.044,0.063,0.093,0.024
1.932,-0.059,-0.034,0.024,0.049,-0.044,-0.005,0.098,0.146,0.044,0.068,0.102,0.029
1.934,-0.059,-0.049,0.01,0.054,-0.034,-0.02,0.093,0.146,0.044,0.068,0.088,0.029
1.936,-0.039,-0.029,0.01,0.034,-0.024,-0.01,0.093,0.146,0.044,0.073,0.088,0.029
1.938,-0.029,-0.029,0.0,0.029,-0.015,-0.015,0.093,0.151,0.049,0.073,0.093,0.029
1.94,-0.02,-0.02,0.0,0.02,-0.01,-0.01,0.107,0.151,0.059,0.073,0.098,0.039
1.942,-0.02,-0.015,0.005,0.02,-0.015,-0.005,0.112,0.156,0.063,0.078,0.098,0.049
1.944,-0.044,-0.029,0.015,0.039,-0.029,-0.01,0.122,0.176,0.078,0.078,0.102,0.049
1.946,-0.044,-0.029,0.015,0.039,-0.029,-0.01,0.122,0.185,0.083,0.083,0.112,0.049
1.948,-0.029,-0.01,0.02,0.02,-0.024,0.005,0.132,0.195,0.088,0.098,0.117,0.049
1.95,-0.024,-0.005,0.02,0.015,-0.024,0.005,0.137,0.21,0.093,0.107,0.122,0.049
1.952,-0.039,-0.01,0.029,0.024,-0.034,0.01,0.142,0.224,0.098,0.112,0.137,0.049
1.954,-0.054,-0.015,0.039,0.034,-0.049,0.01,0.142,0.234,0.107,0.112,0.137,0.049
1.956,-0.059,-0.02,0.039,0.039,-0.049,0.01,0.146,0.234,0.107,0.112,0.137,0.049
1.958,-0.068,-0.02,0.049,0.044,-0.059,0.015,0.146,0.239,0.112,0.117,0.142,0.054
1.96,-0.044,-0.01,0.034,0.029,-0.039,0.01,0.151,0.244,0.107,0.117,0.142,0.059
1.962,-0.039,-0.01,0.029,0.024,-0.034,0.01,0.151,0.244,0.107,0.117,0.137,0.059
1.964,-0.039,-0.01,0.029,0.024,-0.034,0.01,0.156,0.254,0.107,0.117,0.137,0.063
1.966,-0.039,-0.005,0.034,0.024,-0.039,0.015,0.166,0.259,0.122,0.127,0.142,0.068
1.968,-0.02,0.01,0.029,0.005,-0.024,0.02,0.166,0.268,0.122,0.127,0.132,0.059
1.97,-0.01,0.02,0.029,-0.005,-0.02,0.024,0.166,0.273,0.122,0.127,0.137,0.059
1.972,0.0,0.034,0.034,-0.015,-0.02,0.034,0.171,0.278,0.127,0.137,0.146,0.068
1.974,0.015,0.044,0.029,-0.029,-0.01,0.034,0.171,0.283,0.137,0.142,0.151,0.073
1.976,0.02,0.044,0.024,-0.029,-0.005,0.034,0.161,0.278,0.127,0.132,0.161,0.078
1.978,0.029,0.044,0.015,-0.034,0.005,0.029,0.161,0.278,0.127,0.137,0.171,0.083
1.98,0.024,0.044,0.02,-0.034,0.0,0.029,0.166,0.288,0.137,0.137,0.181,0.088
1.982,0.01,0.039,0.029,-0.024,-0.01,0.034,0.171,0.293,0.142,0.151,0.195,0.093
1.984,0.024,0.054,0.029,-0.039,-0.005,0.039,0.171,0.307,0.151,0.166,0.21,0.098
1.986,0.034,0.068,0.034,-0.049,0.0,0.049,0.171,0.312,0.156,0.171,0.215,0.112
1.988,0.049,0.083,0.034,-0.063,0.005,0.059,0.171,0.312,0.156,0.176,0.215,0.127
1.99,0.054,0.088,0.034,-0.068,0.01,0.059,0.176,0.317,0.161,0.185,0.22,0.132
1.992,0.01,0.073,0.063,-0.039,-0.029,0.068,0.166,0.317,0.151,0.181,0.215,0.127
1.994,0.005,0.054,0.049,-0.029,-0.024,0.049,0.161,0.312,0.151,0.181,0.21,0.122
1.996,0.005,0.039,0.034,-0.02,-0.015,0.034,0.161,0.307,0.156,0.176,0.21,0.117
1.998,-0.005,0.034,0.039,-0.015,-0.024,0.034,0.161,0.303,0.161,0.176,0.21,0.122
2.0,0.01,0.044,0.034,-0.024,-0.015,0.039,0.161,0.317,0.161,0.185,0.215,0.132
2.002,0.02,0.049,0.029,-0.034,-0.005,0.039,0.161,0.317,0.161,0.185,0.22,0.132
2.004,0.02,0.059,0.039,-0.039,-0.01,0.049,0.161,0.312,0.161,0.185,0.229,0.132
2.006,0.02,0.063,0.044,-0.039,-0.015,0.054,0.161,0.312,0.151,0.19,0.234,0.137
2.008,0.029,0.059,0.029,-0.044,0.0,0.044,0.156,0.298,0.146,0.185,0.224,0.127
2.01,0.034,0.049,0.015,-0.039,0.01,0.029,0.142,0.283,0.142,0.176,0.22,0.122
2.012,0.044,0.044,0.0,-0.044,0.02,0.02,0.127,0.273,0.132,0.166,0.215,0.112
2.014,0.068,0.044,-0.024,-0.054,0.044,0.01,0.122,0.264,0.122,0.161,0.21,0.107
2.016,0.059,0.063,0.005,-0.059,0.024,0.034,0.122,0.264,0.122,0.176,0.22,0.117
2.018,0.049,0.073,0.024,-0.059,0.01,0.049,0.127,0.264,0.127,0.176,0.229,0.132
2.02,0.034,0.073,0.039,-0.054,-0.005,0.054,0.127,0.259,0.127,0.181,0.239,0.137
2.022,0.02,0.093,0.073,-0.054,-0.029,0.083,0.127,0.254,0.127,0.181,0.249,0.142
2.024,0.005,0.078,0.073,-0.039,-0.034,0.073,0.122,0.244,0.112,0.171,0.244,0.137
2.026,0.01,0.078,0.068,-0.044,-0.029,0.073,0.102,0.22,0.098,0.166,0.234,0.137
2.028,0.005,0.073,0.068,-0.039,-0.034,0.068,0.088,0.215,0.093,0.166,0.229,0.132
2.03,-0.005,0.068,0.073,-0.029,-0.039,0.068,0.083,0.215,0.088,0.161,0.224,0.132
2.032,0.005,0.073,0.068,-0.039,-0.034,0.068,0.083,0.22,0.098,0.171,0.234,0.142
2.034,0.02,0.078,0.059,-0.049,-0.02,0.068,0.073,0.205,0.093,0.171,0.234,0.142
2.036,0.034,0.088,0.054,-0.059,-0.01,0.068,0.063,0.205,0.093,0.171,0.234,0.142
2.038,0.044,0.088,0.044,-0.063,0.0,0.063,0.063,0.205,0.098,0.171,0.239,0.146
2.04,0.029,0.093,0.063,-0.059,-0.02,0.078,0.054,0.19,0.088,0.171,0.249,0.156
2.042,0.029,0.088,0.059,-0.059,-0.015,0.073,0.039,0.176,0.078,0.156,0.239,0.146
2.044,0.029,0.078,0.049,-0.054,-0.01,0.063,0.024,0.166,0.073,0.156,0.234,0.137
2.046,0.039,0.068,0.029,-0.054,0.005,0.049,0.01,0.161,0.063,0.151,0.229,0.137
2.048,0.039,0.059,0.02,-0.049,0.01,0.039,0.005,0.151,0.073,0.161,0.229,0.132
2.05,0.02,0.044,0.024,-0.029,-0.005,0.034,0.0,0.142,0.063,0.161,0.215,0.127
2.052,0.005,0.039,0.034,-0.02,-0.015,0.034,-0.005,0.132,0.059,0.171,0.215,0.127
2.054,0.005,0.034,0.029,-0.02,-0.015,0.029,-0.01,0.132,0.059,0.171,0.215,0.127
2.056,0.01,0.039,0.029,-0.024,-0.01,0.034,-0.005,0.122,0.044,0.156,0.2,0.117
2.058,0.0,0.029,0.029,-0.015,-0.015,0.029,-0.02,0.112,0.034,0.142,0.181,0.098
2.06,0.005,0.029,0.024,-0.015,-0.01,0.024,-0.024,0.102,0.029,0.132,0.181,0.083
2.062,0.005,0.034,0.029,-0.02,-0.015,0.029,-0.024,0.098,0.029,0.132,0.181,0.078
2.064,0.0,0.039,0.039,-0.02,-0.02,0.039,-0.01,0.098,0.039,0.146,0.181,0.078
2.066,0.0,0.039,0.039,-0.02,-0.02,0.039,-0.01,0.098,0.034,0.146,0.171,0.078
2.068,-0.005,0.044,0.049,-0.02,-0.029,0.044,-0.01,0.093,0.029,0.137,0.166,0.073
2.07,-0.02,0.044,0.063,-0.01,-0.044,0.054,-0.015,0.083,0.024,0.127,0.161,0.059
2.072,-0.005,0.034,0.039,-0.015,-0.024,0.034,-0.029,0.073,0.015,0.112,0.146,0.059
2.074,-0.005,0.029,0.034,-0.01,-0.02,0.029,-0.029,0.063,0.01,0.102,0.142,0.063
2.076,-0.005,0.029,0.034,-0.01,-0.02,0.029,-0.034,0.059,0.0,0.102,0.142,0.059
2.078,-0.01,0.029,0.039,-0.01,-0.024,0.034,-0.034,0.059,0.0,0.098,0.142,0.059
2.08,-0.024,0.015,0.039,0.005,-0.034,0.024,-0.039,0.049,-0.01,0.083,0.127,0.054
2.082,-0.034,0.005,0.039,0.015,-0.039,0.02,-0.049,0.029,-0.024,0.073,0.117,0.039
2.084,-0.049,-0.005,0.044,0.029,-0.049,0.02,-0.054,0.02,-0.039,0.063,0.102,0.024
2.086,-0.054,-0.01,0.044,0.034,-0.049,0.015,-0.059,0.005,-0.049,0.063,0.088,0.015
2.088,-0.073,-0.024,0.049,0.049,-0.063,0.01,-0.059,0.0,-0.049,0.059,0.073,0.015
2.09,-0.073,-0.029,0.044,0.054,-0.059,0.005,-0.059,-0.005,-0.059,0.054,0.073,0.015
2.092,-0.073,-0.039,0.034,0.059,-0.054,-0.005,-0.059,-0.005,-0.059,0.049,0.073,0.015
2.094,-0.078,-0.049,0.029,0.063,-0.054,-0.01,-0.054,-0.005,-0.063,0.044,0.063,0.005
2.096,-0.068,-0.044,0.024,0.059,-0.049,-0.01,-0.054,-0.01,-0.063,0.049,0.063,0.01
2.098,-0.068,-0.039,0.029,0.054,-0.049,-0.005,-0.063,-0.024,-0.073,0.039,0.068,0.005
2.1,-0.068,-0.034,0.034,0.054,-0.054,0.0,-0.063,-0.024,-0.078,0.039,0.068,0.005
2.102,-0.088,-0.039,0.049,0.063,-0.068,0.005,-0.063,-0.024,-0.078,0.034,0.063,0.005
2.104,-0.102,-0.054,0.049,0.078,-0.078,-0.005,-0.059,-0.024,-0.078,0.024,0.054,0.005
2.106,-0.098,-0.059,0.039,0.078,-0.068,-0.01,-0.059,-0.029,-0.083,0.02,0.049,0.0
2.108,-0.102,-0.063,0.039,0.083,-0.073,-0.015,-0.059,-0.034,-0.088,0.01,0.049,0.0
2.11,-0.093,-0.068,0.024,0.083,-0.059,-0.024,-0.063,-0.039,-0.093,0.01,0.049,0.0
2.112,-0.078,-0.073,0.005,0.078,-0.044,-0.034,-0.073,-0.044,-0.102,-0.005,0.029,-0.01
2.114,-0.063,-0.068,-0.005,0.068,-0.029,-0.039,-0.073,-0.059,-0.117,-0.015,0.02,-0.024
2.116,-0.073,-0.068,0.005,0.073,-0.039,-0.034,-0.073,-0.068,-0.122,-0.02,0.015,-0.039
2.118,-0.093,-0.093,0.0,0.093,-0.049,-0.049,-0.073,-0.073,-0.127,-0.02,0.01,-0.049
2.12,-0.093,-0.078,0.015,0.088,-0.054,-0.034,-0.078,-0.083,-0.117,-0.024,0.01,-0.039
2.122,-0.093,-0.068,0.024,0.083,-0.059,-0.024,-0.078,-0.083,-0.117,-0.024,0.005,-0.039
2.124,-0.102,-0.063,0.039,0.083,-0.073,-0.015,-0.078,-0.078,-0.127,-0.029,0.0,-0.039
2.126,-0.112,-0.068,0.044,0.093,-0.078,-0.015,-0.078,-0.078,-0.127,-0.029,-0.005,-0.039
2.128,-0.102,-0.068,0.034,0.088,-0.068,-0.02,-0.073,-0.068,-0.117,-0.024,0.005,-0.024
2.13,-0.088,-0.068,0.02,0.078,-0.054,-0.024,-0.068,-0.078,-0.122,-0.029,0.01,-0.02
2.132,-0.083,-0.068,0.015,0.078,-0.049,-0.029,-0.063,-0.078,-0.122,-0.024,0.005,-0.024
2.134,-0.083,-0.068,0.015,0.078,-0.049,-0.029,-0.059,-0.073,-0.122,-0.02,0.01,-0.02
2.136,-0.088,-0.073,0.015,0.083,-0.054,-0.029,-0.063,-0.078,-0.132,-0.029,0.0,-0.029
2.138,-0.078,-0.078,0.0,0.078,-0.039,-0.039,-0.068,-0.088,-0.132,-0.034,0.0,-0.034
2.14,-0.083,-0.088,-0.005,0.088,-0.039,-0.049,-0.073,-0.093,-0.132,-0.034,0.0,-0.034
2.142,-0.107,-0.107,0.0,0.107,-0.054,-0.054,-0.073,-0.098,-0.132,-0.029,0.0,-0.029
2.144,-0.107,-0.102,0.005,0.107,-0.059,-0.049,-0.068,-0.093,-0.132,-0.029,0.0,-0.029
2.146,-0.117,-0.112,0.005,0.117,-0.063,-0.054,-0.078,-0.093,-0.132,-0.034,0.0,-0.034
2.148,-0.122,-0.107,0.015,0.117,-0.068,-0.049,-0.078,-0.093,-0.137,-0.034,0.0,-0.034
2.15,-0.122,-0.102,0.02,0.112,-0.073,-0.044,-0.083,-0.098,-0.142,-0.034,0.0,-0.034
2.152,-0.117,-0.098,0.02,0.107,-0.068,-0.039,-0.083,-0.102,-0.137,-0.039,-0.02,-0.039
2.154,-0.117,-0.093,0.024,0.107,-0.073,-0.034,-0.078,-0.102,-0.132,-0.039,-0.02,-0.044
2.156,-0.122,-0.083,0.039,0.102,-0.083,-0.024,-0.068,-0.098,-0.122,-0.034,-0.015,-0.049
2.158,-0.122,-0.073,0.049,0.098,-0.088,-0.015,-0.054,-0.093,-0.112,-0.034,-0.01,-0.054
2.16,-0.093,-0.073,0.02,0.083,-0.059,-0.029,-0.068,-0.102,-0.122,-0.039,-0.015,-0.054
2.162,-0.107,-0.073,0.034,0.093,-0.073,-0.02,-0.068,-0.102,-0.122,-0.039,-0.02,-0.054
2.164,-0.112,-0.078,0.034,0.098,-0.073,-0.024,-0.063,-0.102,-0.117,-0.029,-0.024,-0.054
2.166,-0.112,-0.083,0.029,0.098,-0.073,-0.029,-0.068,-0.098,-0.117,-0.044,-0.024,-0.044
2.168,-0.098,-0.088,0.01,0.093,-0.054,-0.039,-0.068,-0.088,-0.107,-0.039,-0.01,-0.039
2.17,-0.093,-0.083,0.01,0.088,-0.054,-0.039,-0.078,-0.088,-0.102,-0.034,-0.005,-0.034
2.172,-0.093,-0.098,-0.005,0.098,-0.044,-0.054,-0.073,-0.088,-0.102,-0.029,0.0,-0.029
2.174,-0.098,-0.112,-0.015,0.107,-0.044,-0.063,-0.073,-0.088,-0.098,-0.029,0.0,-0.024
2.176,-0.088,-0.117,-0.029,0.102,-0.029,-0.073,-0.068,-0.083,-0.098,-0.02,0.01,-0.029
2.178,-0.088,-0.122,-0.034,0.107,-0.029,-0.078,-0.073,-0.088,-0.098,-0.02,0.01,-0.034
2.18,-0.083,-0.127,-0.044,0.107,-0.02,-0.088,-0.073,-0.088,-0.098,-0.02,0.005,-0.029
2.182,-0.083,-0.117,-0.034,0.102,-0.024,-0.078,-0.068,-0.088,-0.098,-0.015,0.005,-0.02
2.184,-0.073,-0.102,-0.029,0.088,-0.024,-0.068,-0.059,-0.083,-0.083,-0.01,0.0,-0.029
2.186,-0.073,-0.093,-0.02,0.083,-0.029,-0.059,-0.059,-0.078,-0.083,-0.01,0.01,-0.029
2.188,-0.068,-0.083,-0.015,0.078,-0.029,-0.049,-0.059,-0.073,-0.083,-0.01,0.02,-0.029
2.19,-0.063,-0.073,-0.01,0.068,-0.029,-0.044,-0.063,-0.073,-0.083,-0.01,0.02,-0.024
2.192,-0.102,-0.102,0.0,0.102,-0.054,-0.054,-0.068,-0.088,-0.098,-0.039,0.0,-0.044
2.194,-0.117,-0.127,-0.01,0.122,-0.054,-0.068,-0.073,-0.088,-0.102,-0.029,-0.01,-0.044
2.196,-0.156,-0.146,0.01,0.151,-0.083,-0.068,-0.078,-0.093,-0.102,-0.034,-0.02,-0.054
2.198,-0.185,-0.181,0.005,0.185,-0.098,-0.088,-0.083,-0.098,-0.107,-0.039,-0.024,-0.063
2.2,-0.166,-0.161,0.005,0.166,-0.088,-0.078,-0.073,-0.098,-0.098,-0.034,-0.015,-0.054
2.202,-0.151,-0.137,0.015,0.146,-0.083,-0.063,-0.073,-0.093,-0.093,-0.024,-0.01,-0.059
2.204,-0.137,-0.117,0.02,0.127,-0.078,-0.049,-0.073,-0.088,-0.088,-0.02,-0.005,-0.054
2.206,-0.132,-0.127,0.005,0.132,-0.068,-0.063,-0.078,-0.088,-0.088,-0.02,-0.005,-0.044
2.208,-0.127,-0.137,-0.01,0.132,-0.059,-0.073,-0.078,-0.078,-0.088,-0.01,-0.005,-0.029
2.21,-0.122,-0.132,-0.01,0.127,-0.059,-0.073,-0.078,-0.078,-0.088,-0.01,-0.005,-0.029
2.212,-0.093,-0.122,-0.029,0.107,-0.034,-0.078,-0.073,-0.078,-0.083,-0.005,0.0,-0.029
2.214,-0.068,-0.122,-0.054,0.098,-0.01,-0.088,-0.068,-0.078,-0.073,0.0,0.01,-0.029
2.216,-0.078,-0.093,-0.015,0.088,-0.034,-0.054,-0.078,-0.078,-0.068,0.005,0.01,-0.024
2.218,-0.083,-0.088,-0.005,0.088,-0.039,-0.049,-0.073,-0.078,-0.068,0.005,0.01,-0.024
2.22,-0.098,-0.083,0.015,0.093,-0.059,-0.034,-0.073,-0.083,-0.073,0.0,0.01,-0.024
2.222,-0.098,-0.093,0.005,0.098,-0.054,-0.044,-0.078,-0.083,-0.073,-0.005,0.0,-0.024
2.224,-0.107,-0.083,0.024,0.098,-0.068,-0.029,-0.088,-0.073,-0.083,-0.015,-0.015,-0.039
2.226,-0.102,-0.093,0.01,0.098,-0.059,-0.044,-0.093,-0.083,-0.083,-0.015,-0.015,-0.044
2.228,-0.098,-0.107,-0.01,0.102,-0.044,-0.059,-0.107,-0.083,-0.088,-0.02,-0.015,-0.044
2.23,-0.093,-0.107,-0.015,0.102,-0.039,-0.063,-0.107,-0.083,-0.088,-0.02,-0.015,-0.039
2.232,-0.102,-0.098,0.005,0.102,-0.054,-0.049,-0.098,-0.073,-0.073,-0.005,-0.01,-0.024
2.234,-0.112,-0.093,0.02,0.102,-0.068,-0.039,-0.088,-0.063,-0.068,0.005,-0.005,-0.02
2.236,-0.117,-0.112,0.005,0.117,-0.063,-0.054,-0.083,-0.059,-0.063,0.005,0.0,-0.02
2.238,-0.127,-0.127,0.0,0.127,-0.063,-0.063,-0.078,-0.059,-0.068,-0.01,0.005,-0.029
2.24,-0.112,-0.107,0.005,0.112,-0.059,-0.054,-0.083,-0.059,-0.063,-0.01,0.015,-0.029
2.242,-0.102,-0.107,-0.005,0.107,-0.049,-0.059,-0.088,-0.063,-0.068,0.0,0.01,-0.034
2.244,-0.122,-0.132,-0.01,0.127,-0.059,-0.073,-0.093,-0.073,-0.078,0.0,-0.005,-0.034
2.246,-0.117,-0.142,-0.024,0.132,-0.049,-0.083,-0.098,-0.093,-0.083,-0.01,-0.02,-0.034
2.248,-0.107,-0.137,-0.029,0.122,-0.039,-0.083,-0.107,-0.088,-0.083,-0.005,-0.01,-0.039
2.25,-0.088,-0.122,-0.034,0.107,-0.029,-0.078,-0.112,-0.098,-0.083,-0.005,-0.005,-0.034
2.252,-0.088,-0.117,-0.029,0.102,-0.029,-0.073,-0.112,-0.093,-0.078,-0.01,-0.005,-0.029
2.254,-0.088,-0.117,-0.029,0.102,-0.029,-0.073,-0.112,-0.088,-0.073,0.005,-0.005,-0.024
2.256,-0.083,-0.112,-0.029,0.098,-0.029,-0.073,-0.102,-0.088,-0.073,0.005,-0.005,-0.034
2.258,-0.063,-0.107,-0.044,0.088,-0.01,-0.078,-0.102,-0.088,-0.073,0.0,0.0,-0.029
2.26,-0.044,-0.098,-0.054,0.073,0.005,-0.078,-0.107,-0.088,-0.073,-0.005,0.0,-0.029
2.262,-0.024,-0.083,-0.059,0.054,0.015,-0.073,-0.107,-0.093,-0.073,-0.01,0.005,-0.029
2.264,-0.039,-0.083,-0.044,0.063,0.0,-0.063,-0.107,-0.093,-0.073,-0.01,0.005,-0.029
2.266,-0.063,-0.093,-0.029,0.078,-0.02,-0.063,-0.107,-0.098,-0.083,-0.01,0.0,-0.029
2.268,-0.107,-0.093,0.015,0.102,-0.063,-0.039,-0.117,-0.098,-0.083,-0.005,-0.01,-0.029
2.27,-0.112,-0.093,0.02,0.102,-0.068,-0.039,-0.117,-0.093,-0.083,0.0,-0.015,-0.034
2.272,-0.127,-0.102,0.024,0.117,-0.078,-0.039,-0.122,-0.088,-0.093,-0.005,-0.015,-0.034
2.274,-0.142,-0.112,0.029,0.127,-0.088,-0.044,-0.122,-0.093,-0.093,-0.01,-0.01,-0.034
2.276,-0.146,-0.122,0.024,0.137,-0.088,-0.049,-0.122,-0.098,-0.093,-0.015,-0.005,-0.034
2.278,-0.146,-0.132,0.015,0.142,-0.083,-0.059,-0.117,-0.102,-0.088,-0.02,-0.005,-0.034
2.28,-0.146,-0.122,0.024,0.137,-0.088,-0.049,-0.117,-0.098,-0.078,-0.015,-0.005,-0.029
2.282,-0.146,-0.122,0.024,0.137,-0.088,-0.049,-0.122,-0.102,-0.088,-0.024,-0.005,-0.029
2.284,-0.156,-0.132,0.024,0.146,-0.093,-0.054,-0.122,-0.107,-0.088,-0.02,-0.005,-0.024
2.286,-0.146,-0.132,0.015,0.142,-0.083,-0.059,-0.122,-0.112,-0.088,-0.015,-0.005,-0.02
2.288,-0.127,-0.122,0.005,0.127,-0.068,-0.059,-0.137,-0.122,-0.098,-0.02,-0.015,-0.029
2.29,-0.122,-0.117,0.005,0.122,-0.063,-0.059,-0.137,-0.117,-0.098,-0.024,-0.02,-0.029
2.292,-0.112,-0.112,0.0,0.112,-0.059,-0.059,-0.137,-0.117,-0.098,-0.024,-0.024,-0.029
2.294,-0.098,-0.107,-0.01,0.102,-0.044,-0.059,-0.137,-0.117,-0.098,-0.029,-0.029,-0.029
2.296,-0.098,-0.117,-0.02,0.107,-0.039,-0.068,-0.142,-0.117,-0.102,-0.039,-0.034,-0.039
2.298,-0.088,-0.117,-0.029,0.102,-0.029,-0.073,-0.142,-0.122,-0.102,-0.039,-0.034,-0.039
2.3,-0.078,-0.112,-0.034,0.098,-0.024,-0.073,-0.146,-0.127,-0.102,-0.039,-0.029,-0.039
2.302,-0.088,-0.112,-0.024,0.102,-0.034,-0.068,-0.146,-0.127,-0.107,-0.039,-0.029,-0.044
2.304,-0.093,-0.112,-0.02,0.102,-0.039,-0.068,-0.127,-0.122,-0.098,-0.034,-0.024,-0.034
2.306,-0.093,-0.112,-0.02,0.102,-0.039,-0.068,-0.127,-0.122,-0.098,-0.029,-0.024,-0.034
2.308,-0.098,-0.112,-0.015,0.107,-0.044,-0.063,-0.137,-0.132,-0.102,-0.029,-0.02,-0.039
2.31,-0.112,-0.112,0.0,0.112,-0.059,-0.059,-0.137,-0.132,-0.102,-0.024,-0.015,-0.039
2.312,-0.112,-0.107,0.005,0.112,-0.059,-0.054,-0.127,-0.132,-0.107,-0.024,-0.015,-0.029
2.314,-0.127,-0.107,0.02,0.117,-0.073,-0.044,-0.127,-0.132,-0.098,-0.029,-0.02,-0.029
2.316,-0.137,-0.112,0.024,0.127,-0.083,-0.044,-0.132,-0.137,-0.112,-0.034,-0.029,-0.034
2.318,-0.102,-0.112,-0.01,0.107,-0.049,-0.063,-0.132,-0.137,-0.112,-0.039,-0.034,-0.034
2.32,-0.112,-0.112,0.0,0.112,-0.059,-0.059,-0.137,-0.146,-0.112,-0.049,-0.034,-0.039
2.322,-0.132,-0.132,0.0,0.132,-0.068,-0.068,-0.142,-0.146,-0.112,-0.054,-0.029,-0.034
2.324,-0.142,-0.142,0.0,0.142,-0.073,-0.073,-0.151,-0.146,-0.117,-0.059,-0.029,-0.034
2.326,-0.142,-0.156,-0.015,0.151,-0.063,-0.088,-0.156,-0.151,-0.122,-0.059,-0.039,-0.044
2.328,-0.117,-0.142,-0.024,0.132,-0.049,-0.083,-0.146,-0.156,-0.122,-0.059,-0.039,-0.044
2.33,-0.098,-0.122,-0.024,0.112,-0.039,-0.073,-0.146,-0.156,-0.117,-0.049,-0.034,-0.044
2.332,-0.073,-0.102,-0.029,0.088,-0.024,-0.068,-0.146,-0.151,-0.117,-0.049,-0.034,-0.044
2.334,-0.059,-0.088,-0.029,0.073,-0.015,-0.059,-0.146,-0.151,-0.112,-0.049,-0.034,-0.049
2.336,-0.068,-0.098,-0.029,0.083,-0.02,-0.063,-0.142,-0.137,-0.112,-0.049,-0.034,-0.049
2.338,-0.073,-0.098,-0.024,0.088,-0.024,-0.063,-0.142,-0.137,-0.112,-0.049,-0.034,-0.044
2.34,-0.078,-0.093,-0.015,0.088,-0.034,-0.054,-0.142,-0.146,-0.112,-0.049,-0.034,-0.044
2.342,-0.083,-0.093,-0.01,0.088,-0.039,-0.054,-0.142,-0.146,-0.112,-0.054,-0.034,-0.044
2.344,-0.102,-0.098,0.005,0.102,-0.054,-0.049,-0.142,-0.156,-0.112,-0.054,-0.024,-0.044
2.346,-0.088,-0.102,-0.015,0.098,-0.039,-0.059,-0.142,-0.156,-0.122,-0.059,-0.034,-0.049
2.348,-0.098,-0.112,-0.015,0.107,-0.044,-0.063,-0.146,-0.156,-0.127,-0.068,-0.034,-0.049
2.35,-0.122,-0.127,-0.005,0.127,-0.059,-0.068,-0.146,-0.156,-0.127,-0.068,-0.034,-0.049
2.352,-0.132,-0.117,0.015,0.127,-0.073,-0.054,-0.137,-0.156,-0.117,-0.068,-0.044,-0.044
2.354,-0.122,-0.112,0.01,0.117,-0.068,-0.054,-0.142,-0.161,-0.112,-0.068,-0.044,-0.044
2.356,-0.102,-0.102,0.0,0.102,-0.054,-0.054,-0.142,-0.161,-0.112,-0.078,-0.044,-0.044
2.358,-0.093,-0.098,-0.005,0.098,-0.044,-0.054,-0.142,-0.156,-0.112,-0.068,-0.044,-0.044
2.36,-0.102,-0.112,-0.01,0.107,-0.049,-0.063,-0.156,-0.161,-0.122,-0.078,-0.044,-0.049
2.362,-0.112,-0.122,-0.01,0.117,-0.054,-0.068,-0.161,-0.166,-0.122,-0.078,-0.044,-0.049
2.364,-0.127,-0.132,-0.005,0.132,-0.063,-0.068,-0.161,-0.171,-0.127,-0.078,-0.044,-0.049
2.366,-0.137,-0.137,0.0,0.137,-0.068,-0.068,-0.166,-0.176,-0.127,-0.078,-0.044,-0.049
2.368,-0.127,-0.122,0.005,0.127,-0.068,-0.059,-0.156,-0.161,-0.122,-0.073,-0.039,-0.044
2.37,-0.132,-0.122,0.01,0.127,-0.073,-0.059,-0.151,-0.156,-0.112,-0.078,-0.034,-0.044
2.372,-0.132,-0.117,0.015,0.127,-0.073,-0.054,-0.146,-0.151,-0.107,-0.063,-0.029,-0.044
2.374,-0.132,-0.112,0.02,0.122,-0.078,-0.049,-0.142,-0.146,-0.102,-0.059,-0.029,-0.044
2.376,-0.107,-0.107,0.0,0.107,-0.054,-0.054,-0.151,-0.161,-0.122,-0.068,-0.034,-0.034
2.378,-0.098,-0.102,-0.005,0.102,-0.049,-0.054,-0.151,-0.166,-0.122,-0.068,-0.034,-0.034
2.38,-0.093,-0.098,-0.005,0.098,-0.044,-0.054,-0.151,-0.166,-0.122,-0.073,-0.034,-0.034
2.382,-0.098,-0.088,0.01,0.093,-0.054,-0.039,-0.151,-0.171,-0.122,-0.073,-0.029,-0.029
2.384,-0.088,-0.088,0.0,0.088,-0.044,-0.044,-0.156,-0.176,-0.127,-0.073,-0.029,-0.044
2.386,-0.093,-0.107,-0.015,0.102,-0.039,-0.063,-0.166,-0.176,-0.127,-0.078,-0.034,-0.044
2.388,-0.098,-0.117,-0.02,0.107,-0.039,-0.068,-0.171,-0.176,-0.127,-0.083,-0.039,-0.049
2.39,-0.112,-0.127,-0.015,0.122,-0.049,-0.073,-0.171,-0.176,-0.127,-0.088,-0.044,-0.054
2.392,-0.112,-0.112,0.0,0.112,-0.059,-0.059,-0.161,-0.166,-0.122,-0.073,-0.044,-0.054
2.394,-0.112,-0.107,0.005,0.112,-0.059,-0.054,-0.161,-0.166,-0.122,-0.068,-0.044,-0.054
2.396,-0.132,-0.107,0.024,0.122,-0.078,-0.044,-0.161,-0.166,-0.122,-0.068,-0.044,-0.054
2.398,-0.142,-0.112,0.029,0.127,-0.088,-0.044,-0.161,-0.166,-0.122,-0.068,-0.044,-0.054
2.4,-0.117,-0.107,0.01,0.112,-0.063,-0.049,-0.171,-0.171,-0.127,-0.078,-0.054,-0.059
2.402,-0.117,-0.107,0.01,0.112,-0.063,-0.049,-0.171,-0.176,-0.132,-0.088,-0.059,-0.063
2.404,-0.122,-0.112,0.01,0.117,-0.068,-0.054,-0.176,-0.176,-0.137,-0.093,-0.063,-0.063
2.406,-0.122,-0.122,0.0,0.122,-0.063,-0.063,-0.181,-0.176,-0.137,-0.098,-0.063,-0.063
2.408,-0.117,-0.117,0.0,0.117,-0.059,-0.059,-0.171,-0.171,-0.142,-0.088,-0.054,-0.059
2.41,-0.107,-0.112,-0.005,0.112,-0.054,-0.059,-0.166,-0.171,-0.137,-0.083,-0.049,-0.054
2.412,-0.083,-0.102,-0.02,0.093,-0.034,-0.063,-0.166,-0.166,-0.137,-0.083,-0.049,-0.044
2.414,-0.063,-0.098,-0.034,0.083,-0.015,-0.068,-0.166,-0.166,-0.137,-0.088,-0.049,-0.039
2.416,-0.068,-0.098,-0.029,0.083,-0.02,-0.063,-0.161,-0.166,-0.137,-0.088,-0.049,-0.044
2.418,-0.073,-0.102,-0.029,0.088,-0.024,-0.068,-0.166,-0.166,-0.137,-0.083,-0.049,-0.044
2.42,-0.098,-0.098,0.0,0.098,-0.049,-0.049,-0.166,-0.166,-0.132,-0.078,-0.044,-0.044
2.422,-0.112,-0.083,0.029,0.098,-0.073,-0.029,-0.156,-0.161,-0.122,-0.068,-0.044,-0.044
2.424,-0.107,-0.088,0.02,0.098,-0.063,-0.034,-0.166,-0.161,-0.132,-0.073,-0.054,-0.049
2.426,-0.107,-0.088,0.02,0.098,-0.063,-0.034,-0.166,-0.161,-0.132,-0.078,-0.054,-0.049
2.428,-0.107,-0.093,0.015,0.102,-0.063,-0.039,-0.166,-0.161,-0.132,-0.083,-0.049,-0.044
2.43,-0.093,-0.088,0.005,0.093,-0.049,-0.044,-0.166,-0.161,-0.127,-0.083,-0.044,-0.039
2.432,-0.049,-0.073,-0.024,0.063,-0.015,-0.049,-0.181,-0.161,-0.137,-0.083,-0.044,-0.039
2.434,-0.098,-0.098,0.0,0.098,-0.049,-0.049,-0.185,-0.166,-0.146,-0.098,-0.059,-0.049
2.436,-0.112,-0.112,0.0,0.112,-0.059,-0.059,-0.185,-0.171,-0.156,-0.102,-0.063,-0.054
2.438,-0.117,-0.117,0.0,0.117,-0.059,-0.059,-0.185,-0.176,-0.156,-0.107,-0.068,-0.059
2.44,-0.122,-0.122,0.0,0.122,-0.063,-0.063,-0.185,-0.181,-0.156,-0.112,-0.073,-0.063
2.442,-0.127,-0.127,0.0,0.127,-0.063,-0.063,-0.185,-0.185,-0.156,-0.117,-0.078,-0.068
2.444,-0.107,-0.117,-0.01,0.112,-0.049,-0.063,-0.176,-0.181,-0.151,-0.112,-0.063,-0.063
2.446,-0.098,-0.107,-0.01,0.102,-0.044,-0.059,-0.176,-0.176,-0.146,-0.107,-0.059,-0.059
2.448,-0.088,-0.098,-0.01,0.093,-0.039,-0.054,-0.176,-0.171,-0.142,-0.102,-0.054,-0.054
2.45,-0.078,-0.088,-0.01,0.083,-0.034,-0.049,-0.176,-0.166,-0.137,-0.098,-0.049,-0.049
2.452,-0.078,-0.083,-0.005,0.083,-0.039,-0.044,-0.166,-0.156,-0.127,-0.088,-0.039,-0.039
2.454,-0.078,-0.078,0.0,0.078,-0.039,-0.039,-0.166,-0.156,-0.127,-0.088,-0.039,-0.039
2.456,-0.078,-0.073,0.005,0.078,-0.044,-0.034,-0.166,-0.156,-0.127,-0.088,-0.039,-0.039
2.458,-0.078,-0.068,0.01,0.073,-0.044,-0.029,-0.166,-0.156,-0.127,-0.088,-0.039,-0.039
2.46,-0.093,-0.073,0.02,0.083,-0.059,-0.029,-0.166,-0.161,-0.127,-0.088,-0.039,-0.029
2.462,-0.098,-0.078,0.02,0.088,-0.059,-0.029,-0.166,-0.166,-0.127,-0.088,-0.039,-0.029
2.464,-0.102,-0.083,0.02,0.093,-0.063,-0.034,-0.166,-0.171,-0.127,-0.088,-0.039,-0.029
2.466,-0.107,-0.088,0.02,0.098,-0.063,-0.034,-0.166,-0.176,-0.127,-0.088,-0.039,-0.029
2.468,-0.117,-0.098,0.02,0.107,-0.068,-0.039,-0.176,-0.176,-0.127,-0.093,-0.049,-0.039
2.47,-0.117,-0.098,0.02,0.107,-0.068,-0.039,-0.176,-0.176,-0.127,-0.098,-0.049,-0.039
2.472,-0.117,-0.098,0.02,0.107,-0.068,-0.039,-0.176,-0.176,-0.127,-0.102,-0.049,-0.039
2.474,-0.117,-0.098,0.02,0.107,-0.068,-0.039,-0.176,-0.176,-0.127,-0.107,-0.049,-0.039
2.476,-0.102,-0.088,0.015,0.098,-0.059,-0.039,-0.166,-0.171,-0.117,-0.102,-0.044,-0.039
2.478,-0.098,-0.088,0.01,0.093,-0.054,-0.039,-0.166,-0.166,-0.117,-0.098,-0.039,-0.039
2.48,-0.093,-0.088,0.005,0.093,-0.049,-0.044,-0.166,-0.161,-0.117,-0.093,-0.034,-0.039
2.482,-0.088,-0.088,0.0,0.088,-0.044,-0.044,-0.166,-0.156,-0.117,-0.088,-0.029,-0.039
2.484,-0.078,-0.088,-0.01,0.083,-0.034,-0.049,-0.171,-0.171,-0.122,-0.102,-0.044,-0.049
2.486,-0.068,-0.088,-0.02,0.078,-0.024,-0.054,-0.176,-0.176,-0.127,-0.107,-0.049,-0.049
2.488,-0.059,-0.088,-0.029,0.073,-0.015,-0.059,-0.181,-0.181,-0.132,-0.112,-0.054,-0.049
2.49,-0.049,-0.088,-0.039,0.068,-0.005,-0.063,-0.185,-0.185,-0.137,-0.117,-0.059,-0.049
2.492,-0.063,-0.093,-0.029,0.078,-0.02,-0.063,-0.195,-0.195,-0.137,-0.117,-0.049,-0.049
2.494,-0.068,-0.098,-0.029,0.083,-0.02,-0.063,-0.195,-0.195,-0.137,-0.117,-0.049,-0.049
2.496,-0.073,-0.102,-0.029,0.088,-0.024,-0.068,-0.195,-0.195,-0.137,-0.117,-0.049,-0.049
2.498,-0.078,-0.107,-0.029,0.093,-0.024,-0.068,-0.195,-0.195,-0.137,-0.117,-0.049,-0.049
2.5,-0.083,-0.093,-0.01,0.088,-0.039,-0.054,-0.185,-0.181,-0.122,-0.112,-0.044,-0.039
2.502,-0.088,-0.088,0.0,0.088,-0.044,-0.044,-0.176,-0.176,-0.117,-0.107,-0.039,-0.039
2.504,-0.093,-0.083,0.01,0.088,-0.054,-0.039,-0.166,-0.171,-0.112,-0.102,-0.034,-0.039
2.506,-0.098,-0.078,0.02,0.088,-0.059,-0.029,-0.156,-0.166,-0.107,-0.098,-0.029,-0.039
2.508,-0.107,-0.078,0.029,0.093,-0.068,-0.024,-0.161,-0.171,-0.117,-0.107,-0.029,-0.039
2.51,-0.107,-0.078,0.029,0.093,-0.068,-0.024,-0.166,-0.176,-0.117,-0.107,-0.029,-0.039
2.512,-0.107,-0.078,0.029,0.093,-0.068,-0.024,-0.171,-0.181,-0.117,-0.107,-0.029,-0.039
2.514,-0.107,-0.078,0.029,0.093,-0.068,-0.024,-0.176,-0.185,-0.117,-0.107,-0.029,-0.039
2.516,-0.102,-0.088,0.015,0.098,-0.059,-0.039,-0.176,-0.185,-0.117,-0.098,-0.039,-0.049
2.518,-0.098,-0.088,0.01,0.093,-0.054,-0.039,-0.176,-0.185,-0.117,-0.098,-0.039,-0.049
2.52,-0.093,-0.088,0.005,0.093,-0.049,-0.044,-0.176,-0.185,-0.117,-0.098,-0.039,-0.049
2.522,-0.088,-0.088,0.0,0.088,-0.044,-0.044,-0.176,-0.185,-0.117,-0.098,-0.039,-0.049
2.524,-0.083,-0.083,0.0,0.083,-0.044,-0.044,-0.166,-0.195,-0.122,-0.102,-0.049,-0.049
2.526,-0.078,-0.078,0.0,0.078,-0.039,-0.039,-0.166,-0.195,-0.127,-0.107,-0.049,-0.049
2.528,-0.073,-0.073,0.0,0.073,-0.039,-0.039,-0.166,-0.195,-0.132,-0.112,-0.049,-0.049
2.53,-0.068,-0.068,0.0,0.068,-0.034,-0.034,-0.166,-0.195,-0.137,-0.117,-0.049,-0.049
2.532,-0.068,-0.068,0.0,0.068,-0.034,-0.034,-0.166,-0.185,-0.127,-0.107,-0.039,-0.049
2.534,-0.068,-0.068,0.0,0.068,-0.034,-0.034,-0.166,-0.185,-0.127,-0.107,-0.039,-0.049
2.536,-0.068,-0.068,0.0,0.068,-0.034,-0.034,-0.166,-0.185,-0.127,-0.107,-0.039,-0.049
2.538,-0.068,-0.068,0.0,0.068,-0.034,-0.034,-0.166,-0.185,-0.127,-0.107,-0.039,-0.049
2.54,-0.073,-0.073,0.0,0.073,-0.039,-0.039,-0.166,-0.195,-0.137,-0.107,-0.039,-0.039
2.542,-0.078,-0.078,0.0,0.078,-0.039,-0.039,-0.166,-0.195,-0.137,-0.107,-0.039,-0.039
2.544,-0.083,-0.083,0.0,0.083,-0.044,-0.044,-0.166,-0.195,-0.137,-0.107,-0.039,-0.039
2.546,-0.088,-0.088,0.0,0.088,-0.044,-0.044,-0.166,-0.195,-0.137,-0.107,-0.039,-0.039
2.548,-0.073,-0.088,-0.015,0.083,-0.029,-0.054,-0.176,-0.195,-0.137,-0.107,-0.039,-0.029
2.55,-0.068,-0.088,-0.02,0.078,-0.024,-0.054,-0.176,-0.195,-0.137,-0.107,-0.039,-0.029
2.552,-0.063,-0.088,-0.024,0.078,-0.02,-0.059,-0.176,-0.195,-0.137,-0.107,-0.039,-0.029
2.554,-0.059,-0.088,-0.029,0.073,-0.015,-0.059,-0.176,-0.195,-0.137,-0.107,-0.039,-0.029
2.556,-0.059,-0.078,-0.02,0.068,-0.02,-0.049,-0.166,-0.195,-0.137,-0.117,-0.039,-0.039
2.558,-0.059,-0.078,-0.02,0.068,-0.02,-0.049,-0.166,-0.195,-0.137,-0.117,-0.039,-0.039
2.56,-0.059,-0.078,-0.02,0.068,-0.02,-0.049,-0.166,-0.195,-0.137,-0.117,-0.039,-0.039
2.562,-0.059,-0.078,-0.02,0.068,-0.02,-0.049,-0.166,-0.195,-0.137,-0.117,-0.039,-0.039
2.564,-0.078,-0.088,-0.01,0.083,-0.034,-0.049,-0.166,-0.195,-0.127,-0.107,-0.029,-0.034
2.566,-0.088,-0.088,0.0,0.088,-0.044,-0.044,-0.166,-0.195,-0.127,-0.107,-0.029,-0.029
2.568,-0.098,-0.088,0.01,0.093,-0.054,-0.039,-0.166,-0.195,-0.127,-0.107,-0.029,-0.024
2.57,-0.107,-0.088,0.02,0.098,-0.063,-0.034,-0.166,-0.195,-0.127,-0.107,-0.029,-0.02
2.572,-0.098,-0.078,0.02,0.088,-0.059,-0.029,-0.176,-0.205,-0.137,-0.107,-0.039,-0.029
2.574,-0.088,-0.078,0.01,0.083,-0.049,-0.034,-0.176,-0.205,-0.137,-0.107,-0.039,-0.029
2.576,-0.078,-0.078,0.0,0.078,-0.039,-0.039,-0.176,-0.205,-0.137,-0.107,-0.039,-0.029
2.578,-0.068,-0.078,-0.01,0.073,-0.029,-0.044,-0.176,-0.205,-0.137,-0.107,-0.039,-0.029
2.58,-0.059,-0.073,-0.015,0.068,-0.024,-0.044,-0.166,-0.205,-0.137,-0.117,-0.049,-0.039
2.582,-0.059,-0.068,-0.01,0.063,-0.024,-0.039,-0.166,-0.205,-0.137,-0.117,-0.049,-0.039
2.584,-0.059,-0.063,-0.005,0.063,-0.029,-0.034,-0.166,-0.205,-0.137,-0.117,-0.049,-0.039
2.586,-0.059,-0.059,0.0,0.059,-0.029,-0.029,-0.166,-0.205,-0.137,-0.117,-0.049,-0.039
2.588,-0.068,-0.063,0.005,0.068,-0.039,-0.029,-0.166,-0.195,-0.137,-0.117,-0.039,-0.039
2.59,-0.078,-0.068,0.01,0.073,-0.044,-0.029,-0.166,-0.195,-0.137,-0.117,-0.039,-0.039
2.592,-0.088,-0.073,0.015,0.083,-0.054,-0.029,-0.166,-0.195,-0.137,-0.117,-0.039,-0.039
2.594,-0.098,-0.078,0.02,0.088,-0.059,-0.029,-0.166,-0.195,-0.137,-0.117,-0.039,-0.039
2.596,-0.083,-0.073,0.01,0.078,-0.049,-0.034,-0.176,-0.195,-0.127,-0.117,-0.029,-0.039
2.598,-0.068,-0.068,0.0,0.068,-0.034,-0.034,-0.176,-0.195,-0.127,-0.117,-0.029,-0.039
2.6,-0.054,-0.063,-0.01,0.059,-0.024,-0.039,-0.176,-0.195,-0.127,-0.117,-0.029,-0.039
2.602,-0.039,-0.059,-0.02,0.049,-0.01,-0.039,-0.176,-0.195,-0.127,-0.117,-0.029,-0.039
2.604,-0.049,-0.073,-0.024,0.063,-0.015,-0.049,-0.166,-0.205,-0.127,-0.117,-0.02,-0.029
2.606,-0.059,-0.078,-0.02,0.068,-0.02,-0.049,-0.166,-0.205,-0.127,-0.117,-0.02,-0.029
2.608,-0.068,-0.083,-0.015,0.078,-0.029,-0.049,-0.166,-0.205,-0.127,-0.117,-0.02,-0.029
2.61,-0.078,-0.088,-0.01,0.083,-0.034,-0.049,-0.166,-0.205,-0.127,-0.117,-0.02,-0.029
2.612,-0.068,-0.078,-0.01,0.073,-0.029,-0.044,-0.171,-0.205,-0.127,-0.127,-0.024,-0.034
2.614,-0.068,-0.078,-0.01,0.073,-0.029,-0.044,-0.176,-0.205,-0.127,-0.127,-0.029,-0.039
2.616,-0.068,-0.078,-0.01,0.073,-0.029,-0.044,-0.181,-0.205,-0.127,-0.127,-0.034,-0.044
2.618,-0.068,-0.078,-0.01,0.073,-0.029,-0.044,-0.185,-0.205,-0.127,-0.127,-0.039,-0.049
2.62,-0.063,-0.063,0.0,0.063,-0.034,-0.034,-0.176,-0.205,-0.117,-0.117,-0.029,-0.049
2.622,-0.059,-0.059,0.0,0.059,-0.029,-0.029,-0.176,-0.205,-0.117,-0.117,-0.029,-0.049
2.624,-0.054,-0.054,0.0,0.054,-0.029,-0.029,-0.176,-0.205,-0.117,-0.117,-0.029,-0.049
2.626,-0.049,-0.049,0.0,0.049,-0.024,-0.024,-0.176,-0.205,-0.117,-0.117,-0.029,-0.049
2.628,-0.054,-0.054,0.0,0.054,-0.029,-0.029,-0.171,-0.195,-0.107,-0.107,-0.02,-0.034
2.63,-0.059,-0.059,0.0,0.059,-0.029,-0.029,-0.166,-0.195,-0.107,-0.107,-0.02,-0.029
2.632,-0.063,-0.063,0.0,0.063,-0.034,-0.034,-0.161,-0.195,-0.107,-0.107,-0.02,-0.024
2.634,-0.068,-0.068,0.0,0.068,-0.034,-0.034,-0.156,-0.195,-0.107,-0.107,-0.02,-0.02
2.636,-0.078,-0.059,0.02,0.068,-0.049,-0.02,-0.156,-0.195,-0.098,-0.107,-0.02,-0.02
2.638,-0.078,-0.059,0.02,0.068,-0.049,-0.02,-0.156,-0.195,-0.098,-0.107,-0.02,-0.02
2.64,-0.078,-0.059,0.02,0.068,-0.049,-0.02,-0.156,-0.195,-0.098,-0.107,-0.02,-0.02
2.642,-0.078,-0.059,0.02,0.068,-0.049,-0.02,-0.156,-0.195,-0.098,-0.107,-0.02,-0.02
2.644,-0.063,-0.049,0.015,0.059,-0.039,-0.02,-0.166,-0.2,-0.102,-0.117,-0.029,-0.029
2.646,-0.049,-0.049,0.0,0.049,-0.024,-0.024,-0.166,-0.205,-0.107,-0.117,-0.029,-0.029
2.648,-0.034,-0.049,-0.015,0.044,-0.01,-0.034,-0.166,-0.21,-0.112,-0.117,-0.029,-0.029
2.65,-0.02,-0.049,-0.029,0.034,0.005,-0.039,-0.166,-0.215,-0.117,-0.117,-0.029,-0.029
2.652,-0.024,-0.034,-0.01,0.029,-0.01,-0.024,-0.161,-0.205,-0.112,-0.112,-0.024,-0.015
2.654,-0.029,-0.029,0.0,0.029,-0.015,-0.015,-0.156,-0.205,-0.107,-0.107,-0.02,-0.01
2.656,-0.034,-0.024,0.01,0.029,-0.024,-0.01,-0.151,-0.205,-0.102,-0.102,-0.015,-0.005
2.658,-0.039,-0.02,0.02,0.029,-0.029,0.0,-0.146,-0.205,-0.098,-0.098,-0.01,0.0
2.66,-0.034,-0.015,0.02,0.024,-0.029,0.0,-0.137,-0.195,-0.088,-0.088,-0.01,-0.01
2.662,-0.029,-0.01,0.02,0.02,-0.024,0.005,-0.137,-0.195,-0.088,-0.088,-0.01,-0.01
2.664,-0.024,-0.005,0.02,0.015,-0.024,0.005,-0.137,-0.195,-0.088,-0.088,-0.01,-0.01
2.666,-0.02,0.0,0.02,0.01,-0.02,0.01,-0.137,-0.195,-0.088,-0.088,-0.01,-0.01
2.668,-0.024,0.01,0.034,0.01,-0.029,0.02,-0.132,-0.185,-0.078,-0.088,-0.01,0.0
2.67,-0.029,0.01,0.039,0.01,-0.034,0.024,-0.127,-0.185,-0.078,-0.088,-0.01,0.0
2.672,-0.034,0.01,0.044,0.015,-0.039,0.024,-0.122,-0.185,-0.078,-0.088,-0.01,0.0
2.674,-0.039,0.01,0.049,0.015,-0.044,0.029,-0.117,-0.185,-0.078,-0.088,-0.01,0.0
2.676,-0.049,0.005,0.054,0.024,-0.054,0.029,-0.112,-0.185,-0.068,-0.083,0.0,-0.01
2.678,-0.049,0.0,0.049,0.024,-0.049,0.024,-0.107,-0.185,-0.068,-0.078,0.0,-0.01
2.68,-0.049,-0.005,0.044,0.029,-0.049,0.02,-0.102,-0.185,-0.068,-0.073,0.0,-0.01
2.682,-0.049,-0.01,0.039,0.029,-0.044,0.015,-0.098,-0.185,-0.068,-0.068,0.0,-0.01
2.684,-0.044,0.0,0.044,0.024,-0.044,0.02,-0.098,-0.195,-0.068,-0.068,0.0,0.0
2.686,-0.039,0.0,0.039,0.02,-0.039,0.02,-0.098,-0.195,-0.068,-0.068,0.0,0.0
2.688,-0.034,0.0,0.034,0.02,-0.034,0.015,-0.098,-0.195,-0.068,-0.068,0.0,0.0
2.69,-0.024,0.0,0.024,0.015,-0.024,0.01,-0.112,-0.19,-0.063,-0.068,0.01,0.0
2.692,-0.015,0.01,0.024,0.005,-0.02,0.015,-0.122,-0.19,-0.063,-0.059,0.02,0.005
2.694,-0.01,0.02,0.029,-0.005,-0.02,0.024,-0.137,-0.2,-0.078,-0.059,0.02,0.01
2.696,-0.005,0.029,0.034,-0.01,-0.02,0.029,-0.146,-0.2,-0.078,-0.063,0.01,0.01
2.698,-0.005,0.044,0.049,-0.02,-0.029,0.044,-0.146,-0.2,-0.078,-0.063,0.01,0.015
2.7,0.005,0.054,0.049,-0.029,-0.024,0.049,-0.146,-0.19,-0.068,-0.054,0.015,0.015
2.702,0.01,0.054,0.044,-0.029,-0.02,0.049,-0.142,-0.195,-0.068,-0.054,0.015,0.02
2.704,0.01,0.054,0.044,-0.029,-0.02,0.049,-0.142,-0.195,-0.068,-0.049,0.02,0.02
2.706,0.015,0.054,0.039,-0.034,-0.015,0.044,-0.137,-0.195,-0.063,-0.049,0.02,0.02
2.708,0.02,0.063,0.044,-0.039,-0.015,0.054,-0.142,-0.185,-0.054,-0.049,0.029,0.029
2.71,0.02,0.068,0.049,-0.044,-0.015,0.059,-0.142,-0.185,-0.054,-0.049,0.029,0.029
2.712,0.029,0.078,0.049,-0.054,-0.01,0.063,-0.142,-0.181,-0.054,-0.044,0.034,0.039
2.714,0.039,0.078,0.039,-0.059,0.0,0.059,-0.142,-0.181,-0.054,-0.044,0.034,0.044
2.716,0.029,0.073,0.044,-0.049,-0.01,0.059,-0.146,-0.181,-0.054,-0.034,0.034,0.044
2.718,0.01,0.068,0.059,-0.039,-0.024,0.063,-0.146,-0.19,-0.059,-0.039,0.034,0.044
2.72,0.01,0.068,0.059,-0.039,-0.024,0.063,-0.146,-0.19,-0.059,-0.039,0.034,0.044
2.722,0.02,0.063,0.044,-0.039,-0.015,0.054,-0.151,-0.19,-0.059,-0.039,0.034,0.044
2.724,0.044,0.059,0.015,-0.049,0.015,0.034,-0.156,-0.19,-0.059,-0.029,0.044,0.044
2.726,0.054,0.049,-0.005,-0.049,0.029,0.02,-0.156,-0.19,-0.059,-0.034,0.044,0.039
2.728,0.039,0.039,0.0,-0.039,0.02,0.02,-0.146,-0.19,-0.063,-0.039,0.044,0.039
2.73,0.029,0.02,-0.01,-0.024,0.02,0.005,-0.146,-0.195,-0.068,-0.044,0.034,0.029
2.732,0.02,-0.02,-0.039,0.0,0.029,-0.029,-0.181,-0.215,-0.083,-0.068,0.01,0.015
2.734,0.02,-0.024,-0.044,0.005,0.029,-0.034,-0.181,-0.22,-0.093,-0.078,-0.005,0.01
2.736,0.039,-0.01,-0.049,-0.015,0.044,-0.029,-0.181,-0.224,-0.102,-0.088,0.0,0.01
2.738,0.049,-0.005,-0.054,-0.02,0.049,-0.029,-0.181,-0.229,-0.112,-0.098,-0.005,0.005
2.74,0.039,-0.01,-0.049,-0.015,0.044,-0.029,-0.171,-0.22,-0.112,-0.102,0.0,0.01
2.742,0.039,-0.005,-0.044,-0.015,0.039,-0.024,-0.171,-0.22,-0.102,-0.093,0.005,0.015
2.744,0.039,0.0,-0.039,-0.02,0.039,-0.02,-0.161,-0.215,-0.093,-0.073,0.015,0.029
2.746,0.034,0.005,-0.029,-0.02,0.029,-0.015,-0.161,-0.205,-0.078,-0.063,0.02,0.034
2.748,0.024,-0.015,-0.039,-0.005,0.029,-0.029,-0.171,-0.205,-0.088,-0.068,0.01,0.024
2.75,0.02,-0.02,-0.039,0.0,0.029,-0.029,-0.171,-0.205,-0.088,-0.068,0.01,0.024
2.752,0.024,-0.02,-0.044,0.0,0.034,-0.034,-0.171,-0.205,-0.088,-0.068,0.01,0.024
2.754,0.01,-0.024,-0.034,0.01,0.02,-0.029,-0.161,-0.205,-0.088,-0.068,0.0,0.02
2.756,0.0,-0.024,-0.024,0.015,0.01,-0.024,-0.151,-0.195,-0.078,-0.068,0.01,0.01
2.758,-0.01,-0.029,-0.02,0.02,0.005,-0.024,-0.142,-0.19,-0.078,-0.073,0.005,0.005
2.76,0.0,-0.015,-0.015,0.01,0.005,-0.015,-0.137,-0.19,-0.078,-0.078,0.0,0.0
2.762,0.02,0.0,-0.02,-0.01,0.02,-0.01,-0.137,-0.2,-0.088,-0.088,-0.005,0.0
2.764,0.0,-0.034,-0.034,0.02,0.015,-0.034,-0.137,-0.22,-0.112,-0.102,-0.015,-0.005
2.766,-0.024,-0.054,-0.029,0.039,0.0,-0.044,-0.142,-0.229,-0.122,-0.107,-0.024,-0.01
2.768,-0.024,-0.059,-0.034,0.044,0.005,-0.049,-0.142,-0.234,-0.127,-0.117,-0.044,-0.015
2.77,-0.015,-0.068,-0.054,0.044,0.02,-0.063,-0.146,-0.239,-0.132,-0.117,-0.049,-0.02
2.772,-0.02,-0.073,-0.054,0.049,0.015,-0.063,-0.151,-0.229,-0.132,-0.117,-0.049,-0.029
2.774,-0.029,-0.073,-0.044,0.054,0.005,-0.059,-0.151,-0.224,-0.127,-0.117,-0.044,-0.024
2.776,-0.039,-0.078,-0.039,0.059,0.0,-0.059,-0.156,-0.224,-0.122,-0.112,-0.039,-0.02
2.778,-0.049,-0.088,-0.039,0.068,-0.005,-0.063,-0.156,-0.229,-0.122,-0.112,-0.039,-0.02
2.78,-0.034,-0.078,-0.044,0.059,0.005,-0.063,-0.171,-0.239,-0.142,-0.122,-0.059,-0.034
2.782,-0.029,-0.078,-0.049,0.054,0.01,-0.063,-0.171,-0.239,-0.142,-0.127,-0.059,-0.034
2.784,-0.024,-0.078,-0.054,0.054,0.015,-0.068,-0.161,-0.239,-0.142,-0.127,-0.059,-0.034
2.786,-0.034,-0.073,-0.039,0.054,0.0,-0.059,-0.161,-0.239,-0.142,-0.122,-0.059,-0.034
2.788,-0.034,-0.059,-0.024,0.049,-0.005,-0.044,-0.156,-0.224,-0.137,-0.112,-0.044,-0.02
2.79,-0.02,-0.054,-0.034,0.039,0.005,-0.044,-0.151,-0.22,-0.132,-0.102,-0.034,-0.015
2.792,-0.044,-0.054,-0.01,0.049,-0.02,-0.034,-0.142,-0.21,-0.122,-0.093,-0.029,-0.01
2.794,-0.068,-0.059,0.01,0.063,-0.039,-0.024,-0.137,-0.205,-0.117,-0.088,-0.024,-0.015
2.796,-0.039,-0.068,-0.029,0.054,-0.005,-0.049,-0.142,-0.22,-0.137,-0.093,-0.044,-0.024
2.798,-0.034,-0.063,-0.029,0.049,-0.005,-0.049,-0.146,-0.22,-0.137,-0.102,-0.044,-0.024
2.8,-0.039,-0.063,-0.024,0.054,-0.01,-0.044,-0.142,-0.22,-0.132,-0.107,-0.039,-0.024
2.802,-0.039,-0.063,-0.024,0.054,-0.01,-0.044,-0.146,-0.215,-0.127,-0.107,-0.039,-0.02
2.804,-0.039,-0.054,-0.015,0.049,-0.015,-0.034,-0.127,-0.21,-0.127,-0.093,-0.029,-0.015
2.806,-0.049,-0.059,-0.01,0.054,-0.02,-0.034,-0.127,-0.21,-0.127,-0.093,-0.024,-0.015
2.808,-0.034,-0.054,-0.02,0.044,-0.01,-0.039,-0.127,-0.21,-0.127,-0.093,-0.024,-0.02
2.81,-0.015,-0.049,-0.034,0.034,0.01,-0.044,-0.122,-0.21,-0.127,-0.088,-0.024,-0.02
2.812,-0.02,-0.059,-0.039,0.039,0.01,-0.049,-0.127,-0.205,-0.127,-0.098,-0.034,-0.029
2.814,-0.024,-0.063,-0.039,0.044,0.005,-0.054,-0.137,-0.21,-0.132,-0.102,-0.039,-0.039
2.816,-0.024,-0.073,-0.049,0.049,0.01,-0.063,-0.142,-0.21,-0.132,-0.102,-0.039,-0.039
2.818,-0.029,-0.083,-0.054,0.059,0.01,-0.068,-0.146,-0.205,-0.132,-0.102,-0.034,-0.034
2.82,-0.044,-0.073,-0.029,0.059,-0.01,-0.054,-0.142,-0.195,-0.117,-0.098,-0.024,-0.02
2.822,-0.044,-0.073,-0.029,0.059,-0.01,-0.054,-0.137,-0.195,-0.117,-0.098,-0.024,-0.02
2.824,-0.039,-0.068,-0.029,0.054,-0.005,-0.049,-0.132,-0.205,-0.127,-0.098,-0.029,-0.029
2.826,-0.039,-0.068,-0.029,0.054,-0.005,-0.049,-0.127,-0.195,-0.117,-0.098,-0.029,-0.02
2.828,-0.01,-0.073,-0.063,0.044,0.024,-0.068,-0.127,-0.205,-0.117,-0.093,-0.024,-0.02
2.83,-0.034,-0.068,-0.034,0.054,0.0,-0.054,-0.122,-0.19,-0.107,-0.088,-0.015,-0.01
2.832,-0.054,-0.068,-0.015,0.063,-0.02,-0.044,-0.122,-0.181,-0.098,-0.083,-0.01,-0.01
2.834,-0.059,-0.083,-0.024,0.073,-0.02,-0.054,-0.132,-0.185,-0.098,-0.083,-0.02,-0.01
2.836,-0.063,-0.093,-0.029,0.078,-0.02,-0.063,-0.127,-0.171,-0.083,-0.078,-0.02,-0.02
2.838,-0.044,-0.093,-0.049,0.068,0.0,-0.073,-0.122,-0.166,-0.078,-0.073,-0.02,-0.024
2.84,-0.024,-0.088,-0.063,0.059,0.02,-0.078,-0.107,-0.142,-0.059,-0.073,-0.029,-0.034
2.842,-0.039,-0.088,-0.049,0.063,0.005,-0.068,-0.088,-0.107,-0.015,-0.044,-0.01,-0.029
2.844,-0.049,-0.078,-0.029,0.063,-0.01,-0.054,-0.049,-0.049,0.044,-0.005,0.01,-0.029
2.846,-0.049,-0.073,-0.024,0.063,-0.015,-0.049,-0.02,0.01,0.112,0.054,0.044,-0.015
2.848,-0.059,-0.102,-0.044,0.083,-0.01,-0.073,0.024,0.083,0.185,0.107,0.078,0.0
2.85,-0.068,-0.102,-0.034,0.088,-0.02,-0.068,0.078,0.142,0.254,0.185,0.117,0.02
2.852,-0.044,-0.039,0.005,0.044,-0.024,-0.02,0.122,0.2,0.351,0.293,0.19,0.078
2.854,0.029,0.0,-0.029,-0.015,0.029,-0.015,0.146,0.278,0.483,0.434,0.298,0.151
2.856,0.063,0.024,-0.039,-0.044,0.049,-0.01,0.156,0.366,0.644,0.581,0.415,0.21
2.858,0.044,0.063,0.02,-0.054,0.01,0.039,0.176,0.468,0.786,0.737,0.532,0.273
2.86,0.063,0.107,0.044,-0.083,0.01,0.073,0.137,0.551,0.952,0.898,0.669,0.366
2.862,0.185,0.156,-0.029,-0.171,0.107,0.063,0.029,0.61,1.103,1.059,0.825,0.449
2.864,0.283,0.181,-0.102,-0.229,0.19,0.039,-0.132,0.62,1.196,1.181,0.947,0.522
2.866,0.312,0.2,-0.112,-0.254,0.21,0.044,-0.298,0.625,1.269,1.264,1.049,0.605
2.868,0.376,0.244,-0.132,-0.307,0.254,0.054,-0.454,0.634,1.332,1.347,1.137,0.688
2.87,0.449,0.303,-0.146,-0.376,0.298,0.078,-0.61,0.644,1.401,1.435,1.24,0.776
2.872,0.532,0.39,-0.142,-0.459,0.337,0.122,-0.805,0.566,1.381,1.464,1.303,0.859
2.874,0.571,0.468,-0.102,-0.517,0.337,0.181,-0.976,0.346,1.186,1.313,1.244,0.859
2.876,0.551,0.508,-0.044,-0.527,0.298,0.229,-1.059,0.034,0.854,1.015,1.059,0.791
2.878,0.459,0.449,-0.01,-0.454,0.234,0.22,-1.103,-0.356,0.371,0.61,0.781,0.669
2.88,0.327,0.312,-0.015,-0.317,0.171,0.146,-1.137,-0.849,-0.254,0.063,0.429,0.478
2.882,0.244,0.2,-0.044,-0.22,0.142,0.078,-1.161,-1.23,-0.791,-0.42,0.102,0.312
2.884,0.195,0.161,-0.034,-0.176,0.112,0.063,-1.176,-1.401,-1.088,-0.669,-0.059,0.234
2.886,0.19,0.146,-0.044,-0.166,0.117,0.049,-1.186,-1.469,-1.191,-0.756,-0.137,0.195
2.888,0.185,0.098,-0.088,-0.142,0.137,0.005,-1.181,-1.449,-1.21,-0.791,-0.205,0.137
2.89,0.166,0.054,-0.112,-0.107,0.137,-0.029,-1.161,-1.386,-1.161,-0.8,-0.273,0.063
2.892,0.122,0.039,-0.083,-0.078,0.102,-0.024,-1.122,-1.303,-1.098,-0.776,-0.307,0.015
2.894,0.093,0.029,-0.063,-0.059,0.078,-0.02,-1.064,-1.215,-1.01,-0.732,-0.293,0.01
2.896,0.068,0.02,-0.049,-0.044,0.059,-0.015,-0.971,-1.122,-0.932,-0.683,-0.273,0.005
2.898,0.039,0.01,-0.029,-0.024,0.034,-0.01,-0.898,-1.044,-0.869,-0.654,-0.278,-0.01
2.9,0.02,-0.01,-0.029,-0.005,0.024,-0.02,-0.82,-0.971,-0.805,-0.639,-0.293,-0.044
2.902,0.015,-0.044,-0.059,0.015,0.034,-0.054,-0.722,-0.878,-0.722,-0.6,-0.293,-0.073
2.904,0.024,-0.044,-0.068,0.01,0.044,-0.059,-0.615,-0.776,-0.63,-0.527,-0.259,-0.068
2.906,0.029,-0.024,-0.054,0.0,0.039,-0.039,-0.522,-0.673,-0.542,-0.454,-0.215,-0.068
2.908,0.0,-0.049,-0.049,0.024,0.024,-0.049,-0.444,-0.59,-0.468,-0.39,-0.2,-0.054
2.91,-0.044,-0.068,-0.024,0.059,-0.01,-0.049,-0.361,-0.508,-0.386,-0.322,-0.151,-0.034
2.912,-0.024,-0.049,-0.024,0.039,0.0,-0.039,-0.298,-0.429,-0.312,-0.259,-0.112,-0.01
2.914,0.01,-0.049,-0.059,0.02,0.034,-0.054,-0.264,-0.381,-0.268,-0.224,-0.098,-0.015
