time,I,II,III,aVR,aVL,aVF,V1,V2,V3,V4,V5,V6
0.0,-0.068,-0.029,0.039,0.049,-0.054,0.005,-0.039,-0.117,-0.166,0.459,-0.156,0.098
0.002,-0.068,-0.029,0.039,0.049,-0.054,0.005,-0.039,-0.117,-0.166,0.459,-0.156,0.098
0.004,-0.068,-0.029,0.039,0.049,-0.054,0.005,-0.039,-0.117,-0.166,0.459,-0.156,0.098
0.006,-0.068,-0.029,0.039,0.049,-0.054,0.005,-0.039,-0.117,-0.166,0.459,-0.156,0.098
0.008,-0.059,-0.024,0.034,0.044,-0.049,0.005,-0.039,-0.127,-0.176,0.459,-0.166,0.088
0.01,-0.059,-0.02,0.039,0.039,-0.049,0.01,-0.039,-0.127,-0.176,0.459,-0.166,0.088
0.012,-0.059,-0.015,0.044,0.039,-0.054,0.015,-0.039,-0.127,-0.176,0.459,-0.166,0.088
0.014,-0.059,-0.01,0.049,0.034,-0.054,0.02,-0.039,-0.127,-0.176,0.459,-0.166,0.088
0.016,-0.049,-0.01,0.039,0.029,-0.044,0.015,-0.029,-0.127,-0.176,0.454,-0.156,0.098
0.018,-0.049,-0.01,0.039,0.029,-0.044,0.015,-0.029,-0.127,-0.176,0.449,-0.156,0.098
0.02,-0.049,-0.01,0.039,0.029,-0.044,0.015,-0.029,-0.127,-0.176,0.444,-0.156,0.098
0.022,-0.049,-0.01,0.039,0.029,-0.044,0.015,-0.029,-0.127,-0.176,0.439,-0.156,0.098
0.024,-0.059,-0.02,0.039,0.039,-0.049,0.01,-0.034,-0.137,-0.176,0.434,-0.161,0.098
0.026,-0.059,-0.02,0.039,0.039,-0.049,0.01,-0.039,-0.137,-0.176,0.429,-0.166,0.098
0.028,-0.059,-0.02,0.039,0.039,-0.049,0.01,-0.044,-0.137,-0.176,0.425,-0.171,0.098
0.03,-0.059,-0.02,0.039,0.039,-0.049,0.01,-0.049,-0.137,-0.176,0.42,-0.176,0.098
0.032,-0.049,-0.02,0.029,0.034,-0.039,0.005,-0.039,-0.122,-0.176,0.41,-0.166,0.107
0.034,-0.049,-0.02,0.029,0.034,-0.039,0.005,-0.039,-0.117,-0.176,0.41,-0.166,0.107
0.036,-0.049,-0.02,0.029,0.034,-0.039,0.005,-0.039,-0.112,-0.176,0.41,-0.166,0.107
0.038,-0.049,-0.02,0.029,0.034,-0.039,0.005,-0.039,-0.107,-0.176,0.41,-0.166,0.107
0.04,-0.049,-0.029,0.02,0.039,-0.034,-0.005,-0.049,-0.107,-0.176,0.395,-0.176,0.107
0.042,-0.049,-0.029,0.02,0.039,-0.034,-0.005,-0.049,-0.107,-0.176,0.39,-0.176,0.107
0.044,-0.049,-0.029,0.02,0.039,-0.034,-0.005,-0.049,-0.107,-0.176,0.386,-0.176,0.107
0.046,-0.049,-0.029,0.02,0.039,-0.034,-0.005,-0.049,-0.107,-0.176,0.381,-0.176,0.107
0.048,-0.039,-0.015,0.024,0.029,-0.034,0.005,-0.034,-0.098,-0.166,0.366,-0.176,0.098
0.05,-0.039,-0.01,0.029,0.024,-0.034,0.01,-0.029,-0.098,-0.166,0.361,-0.176,0.098
0.052,-0.039,-0.005,0.034,0.024,-0.039,0.015,-0.024,-0.098,-0.166,0.356,-0.176,0.098
0.054,-0.039,0.0,0.039,0.02,-0.039,0.02,-0.02,-0.098,-0.166,0.351,-0.176,0.098
0.056,-0.054,-0.01,0.044,0.034,-0.049,0.015,-0.024,-0.107,-0.171,0.332,-0.181,0.093
0.058,-0.059,-0.02,0.039,0.039,-0.049,0.01,-0.029,-0.107,-0.176,0.322,-0.185,0.088
0.06,-0.063,-0.029,0.034,0.049,-0.049,0.0,-0.034,-0.107,-0.181,0.312,-0.19,0.083
0.062,-0.068,-0.039,0.029,0.054,-0.049,-0.005,-0.039,-0.107,-0.185,0.303,-0.195,0.078
0.064,-0.073,-0.049,0.024,0.063,-0.049,-0.015,-0.049,-0.117,-0.185,0.293,-0.195,0.088
0.066,-0.078,-0.049,0.029,0.063,-0.054,-0.01,-0.049,-0.117,-0.185,0.293,-0.195,0.088
0.068,-0.083,-0.049,0.034,0.068,-0.059,-0.01,-0.049,-0.117,-0.185,0.293,-0.195,0.088
0.07,-0.088,-0.049,0.039,0.068,-0.063,-0.005,-0.049,-0.117,-0.185,0.293,-0.195,0.088
0.072,-0.083,-0.044,0.039,0.063,-0.063,-0.005,-0.044,-0.112,-0.176,0.288,-0.185,0.088
0.074,-0.078,-0.039,0.039,0.059,-0.059,0.0,-0.039,-0.107,-0.176,0.283,-0.185,0.088
0.076,-0.073,-0.034,0.039,0.054,-0.059,0.0,-0.034,-0.102,-0.176,0.278,-0.185,0.088
0.078,-0.068,-0.029,0.039,0.049,-0.054,0.005,-0.029,-0.098,-0.176,0.273,-0.185,0.088
0.08,-0.063,-0.015,0.049,0.039,-0.059,0.015,-0.039,-0.098,-0.166,0.268,-0.195,0.098
0.082,-0.059,-0.01,0.049,0.034,-0.054,0.02,-0.039,-0.098,-0.166,0.264,-0.195,0.098
0.084,-0.054,-0.005,0.049,0.029,-0.054,0.02,-0.039,-0.098,-0.166,0.259,-0.195,0.098
0.086,-0.049,0.0,0.049,0.024,-0.049,0.024,-0.039,-0.098,-0.166,0.254,-0.195,0.098
0.088,-0.059,0.0,0.059,0.029,-0.059,0.029,-0.034,-0.093,-0.156,0.244,-0.185,0.107
0.09,-0.059,0.0,0.059,0.029,-0.059,0.029,-0.029,-0.088,-0.156,0.234,-0.185,0.107
0.092,-0.059,0.0,0.059,0.029,-0.059,0.029,-0.024,-0.083,-0.156,0.224,-0.185,0.107
0.094,-0.059,0.0,0.059,0.029,-0.059,0.029,-0.02,-0.078,-0.156,0.215,-0.185,0.107
0.096,-0.044,0.01,0.054,0.02,-0.049,0.029,-0.01,-0.068,-0.146,0.224,-0.176,0.117
0.098,-0.039,0.02,0.059,0.01,-0.049,0.039,-0.01,-0.068,-0.146,0.224,-0.176,0.117
0.1,-0.034,0.029,0.063,0.005,-0.049,0.044,-0.01,-0.068,-0.146,0.224,-0.176,0.117
0.102,-0.029,0.039,0.068,-0.005,-0.049,0.054,-0.01,-0.068,-0.146,0.224,-0.176,0.117
0.104,-0.029,0.029,0.059,0.0,-0.044,0.044,-0.02,-0.059,-0.142,0.215,-0.166,0.127
0.106,-0.029,0.029,0.059,0.0,-0.044,0.044,-0.02,-0.059,-0.137,0.205,-0.166,0.127
0.108,-0.029,0.029,0.059,0.0,-0.044,0.044,-0.02,-0.059,-0.132,0.195,-0.166,0.127
0.11,-0.029,0.029,0.059,0.0,-0.044,0.044,-0.02,-0.059,-0.127,0.185,-0.166,0.127
0.112,-0.02,0.029,0.049,-0.005,-0.034,0.039,-0.024,-0.068,-0.127,0.166,-0.166,0.127
0.114,-0.01,0.029,0.039,-0.01,-0.024,0.034,-0.029,-0.068,-0.127,0.156,-0.166,0.127
0.116,0.0,0.029,0.029,-0.015,-0.015,0.029,-0.034,-0.068,-0.127,0.146,-0.166,0.127
0.118,0.01,0.029,0.02,-0.02,-0.005,0.024,-0.039,-0.068,-0.127,0.137,-0.166,0.127
0.12,-0.005,0.015,0.02,-0.005,-0.015,0.015,-0.054,-0.078,-0.137,0.122,-0.176,0.127
0.122,-0.01,0.01,0.02,0.0,-0.015,0.015,-0.059,-0.078,-0.137,0.117,-0.176,0.127
0.124,-0.015,0.005,0.02,0.005,-0.02,0.01,-0.063,-0.078,-0.137,0.112,-0.176,0.127
0.126,-0.02,0.0,0.02,0.01,-0.02,0.01,-0.068,-0.078,-0.137,0.107,-0.176,0.127
0.128,-0.02,0.02,0.039,0.0,-0.029,0.029,-0.078,-0.093,-0.151,0.088,-0.181,0.122
0.13,-0.02,0.02,0.039,0.0,-0.029,0.029,-0.078,-0.093,-0.151,0.078,-0.181,0.122
0.132,-0.024,0.02,0.044,0.005,-0.034,0.029,-0.083,-0.093,-0.156,0.073,-0.185,0.117
0.134,-0.034,0.01,0.044,0.015,-0.039,0.024,-0.083,-0.102,-0.166,0.063,-0.19,0.107
0.136,-0.049,-0.005,0.044,0.029,-0.049,0.02,-0.068,-0.098,-0.161,0.054,-0.181,0.107
0.138,-0.049,-0.01,0.039,0.029,-0.044,0.015,-0.068,-0.102,-0.166,0.049,-0.181,0.107
0.14,-0.044,-0.015,0.029,0.029,-0.039,0.005,-0.078,-0.107,-0.176,0.039,-0.19,0.107
0.142,-0.044,-0.015,0.029,0.029,-0.039,0.005,-0.078,-0.107,-0.176,0.034,-0.19,0.107
0.144,-0.039,-0.015,0.024,0.029,-0.034,0.005,-0.073,-0.093,-0.161,0.034,-0.19,0.117
0.146,-0.029,-0.01,0.02,0.02,-0.024,0.005,-0.068,-0.093,-0.161,0.039,-0.185,0.122
0.148,-0.02,-0.01,0.01,0.015,-0.015,0.0,-0.063,-0.088,-0.161,0.039,-0.185,0.122
0.15,-0.015,-0.02,-0.005,0.02,-0.005,-0.015,-0.063,-0.083,-0.156,0.034,-0.185,0.117
0.152,-0.029,-0.034,-0.005,0.034,-0.015,-0.02,-0.063,-0.093,-0.161,0.024,-0.195,0.107
0.154,-0.029,-0.039,-0.01,0.034,-0.01,-0.024,-0.063,-0.093,-0.166,0.015,-0.2,0.102
0.156,-0.029,-0.039,-0.01,0.034,-0.01,-0.024,-0.068,-0.098,-0.181,-0.005,-0.205,0.098
0.158,-0.034,-0.029,0.005,0.034,-0.02,-0.015,-0.073,-0.102,-0.19,-0.02,-0.205,0.088
0.16,-0.029,-0.029,0.0,0.029,-0.015,-0.015,-0.083,-0.117,-0.19,-0.024,-0.205,0.083
0.162,-0.039,-0.029,0.01,0.034,-0.024,-0.01,-0.083,-0.117,-0.195,-0.024,-0.21,0.088
0.164,-0.039,-0.029,0.01,0.034,-0.024,-0.01,-0.083,-0.122,-0.195,-0.024,-0.215,0.093
0.166,-0.039,-0.024,0.015,0.034,-0.029,-0.005,-0.078,-0.122,-0.195,-0.029,-0.215,0.098
0.168,-0.039,-0.02,0.02,0.029,-0.029,0.0,-0.073,-0.122,-0.195,-0.039,-0.205,0.098
0.17,-0.044,-0.024,0.02,0.034,-0.034,-0.005,-0.073,-0.122,-0.205,-0.054,-0.21,0.088
0.172,-0.049,-0.02,0.029,0.034,-0.039,0.005,-0.073,-0.122,-0.205,-0.054,-0.22,0.088
0.174,-0.054,-0.015,0.039,0.034,-0.049,0.01,-0.073,-0.122,-0.21,-0.059,-0.22,0.083
0.176,-0.063,-0.024,0.039,0.044,-0.054,0.005,-0.063,-0.132,-0.215,-0.068,-0.234,0.073
0.178,-0.063,-0.034,0.029,0.049,-0.049,-0.005,-0.063,-0.132,-0.215,-0.078,-0.234,0.073
0.18,-0.063,-0.049,0.015,0.059,-0.039,-0.02,-0.059,-0.132,-0.215,-0.083,-0.234,0.068
0.182,-0.068,-0.049,0.02,0.059,-0.044,-0.015,-0.059,-0.132,-0.22,-0.093,-0.234,0.063
0.184,-0.063,-0.044,0.02,0.054,-0.044,-0.015,-0.054,-0.132,-0.215,-0.098,-0.244,0.068
0.186,-0.059,-0.044,0.015,0.054,-0.039,-0.015,-0.054,-0.127,-0.22,-0.102,-0.244,0.068
0.188,-0.059,-0.049,0.01,0.054,-0.034,-0.02,-0.054,-0.122,-0.22,-0.102,-0.244,0.068
0.19,-0.054,-0.049,0.005,0.054,-0.029,-0.024,-0.054,-0.117,-0.22,-0.102,-0.244,0.068
0.192,-0.049,-0.029,0.02,0.039,-0.034,-0.005,-0.063,-0.127,-0.22,-0.112,-0.254,0.054
0.194,-0.049,-0.02,0.029,0.034,-0.039,0.005,-0.063,-0.127,-0.22,-0.112,-0.254,0.054
0.196,-0.049,-0.029,0.02,0.039,-0.034,-0.005,-0.063,-0.127,-0.22,-0.112,-0.254,0.059
0.198,-0.049,-0.034,0.015,0.044,-0.034,-0.01,-0.063,-0.122,-0.22,-0.117,-0.254,0.059
0.2,-0.063,-0.039,0.024,0.054,-0.044,-0.01,-0.063,-0.122,-0.22,-0.127,-0.254,0.049
0.202,-0.068,-0.044,0.024,0.059,-0.049,-0.01,-0.068,-0.127,-0.224,-0.132,-0.254,0.049
0.204,-0.068,-0.049,0.02,0.059,-0.044,-0.015,-0.073,-0.137,-0.229,-0.132,-0.254,0.049
0.206,-0.073,-0.054,0.02,0.063,-0.049,-0.02,-0.078,-0.142,-0.239,-0.132,-0.254,0.049
0.208,-0.088,-0.054,0.034,0.073,-0.063,-0.01,-0.068,-0.137,-0.239,-0.137,-0.268,0.049
0.21,-0.088,-0.059,0.029,0.073,-0.059,-0.015,-0.068,-0.137,-0.239,-0.137,-0.268,0.049
0.212,-0.088,-0.059,0.029,0.073,-0.059,-0.015,-0.068,-0.132,-0.239,-0.137,-0.268,0.054
0.214,-0.088,-0.059,0.029,0.073,-0.059,-0.015,-0.068,-0.132,-0.234,-0.137,-0.268,0.054
0.216,-0.078,-0.049,0.029,0.063,-0.054,-0.01,-0.068,-0.122,-0.224,-0.137,-0.264,0.054
0.218,-0.073,-0.044,0.029,0.059,-0.054,-0.01,-0.068,-0.122,-0.224,-0.137,-0.264,0.054
0.22,-0.068,-0.034,0.034,0.054,-0.054,0.0,-0.068,-0.122,-0.224,-0.137,-0.264,0.054
0.222,-0.063,-0.029,0.034,0.049,-0.049,0.0,-0.063,-0.122,-0.22,-0.137,-0.264,0.054
0.224,-0.059,-0.02,0.039,0.039,-0.049,0.01,-0.063,-0.122,-0.229,-0.142,-0.264,0.054
0.226,-0.059,-0.02,0.039,0.039,-0.049,0.01,-0.063,-0.122,-0.234,-0.156,-0.264,0.054
0.228,-0.063,-0.029,0.034,0.049,-0.049,0.0,-0.068,-0.122,-0.239,-0.161,-0.264,0.054
0.23,-0.063,-0.034,0.029,0.049,-0.049,-0.005,-0.068,-0.122,-0.239,-0.166,-0.264,0.054
0.232,-0.068,-0.049,0.02,0.059,-0.044,-0.015,-0.068,-0.112,-0.229,-0.166,-0.264,0.054
0.234,-0.068,-0.049,0.02,0.059,-0.044,-0.015,-0.063,-0.112,-0.229,-0.166,-0.264,0.054
0.236,-0.073,-0.049,0.024,0.063,-0.049,-0.015,-0.063,-0.112,-0.229,-0.166,-0.264,0.054
0.238,-0.078,-0.054,0.024,0.068,-0.054,-0.015,-0.063,-0.112,-0.224,-0.166,-0.264,0.054
0.24,-0.078,-0.063,0.015,0.073,-0.049,-0.024,-0.054,-0.122,-0.224,-0.171,-0.264,0.054
0.242,-0.083,-0.059,0.024,0.073,-0.054,-0.02,-0.054,-0.127,-0.224,-0.171,-0.264,0.054
0.244,-0.078,-0.049,0.029,0.063,-0.054,-0.01,-0.054,-0.127,-0.224,-0.171,-0.264,0.054
0.246,-0.063,-0.044,0.02,0.054,-0.044,-0.015,-0.049,-0.122,-0.224,-0.176,-0.264,0.054
0.248,-0.078,-0.063,0.015,0.073,-0.049,-0.024,-0.059,-0.112,-0.234,-0.195,-0.264,0.049
0.25,-0.088,-0.063,0.024,0.078,-0.059,-0.02,-0.059,-0.117,-0.239,-0.195,-0.264,0.049
0.252,-0.093,-0.054,0.039,0.073,-0.068,-0.01,-0.068,-0.117,-0.239,-0.19,-0.259,0.049
0.254,-0.088,-0.049,0.039,0.068,-0.063,-0.005,-0.068,-0.112,-0.239,-0.19,-0.259,0.049
0.256,-0.068,-0.034,0.034,0.054,-0.054,0.0,-0.068,-0.122,-0.234,-0.205,-0.268,0.049
0.258,-0.068,-0.024,0.044,0.049,-0.059,0.01,-0.068,-0.122,-0.234,-0.21,-0.268,0.044
0.26,-0.059,-0.024,0.034,0.044,-0.049,0.005,-0.063,-0.122,-0.239,-0.215,-0.268,0.039
0.262,-0.044,-0.015,0.029,0.029,-0.039,0.005,-0.063,-0.122,-0.239,-0.215,-0.268,0.039
0.264,-0.054,-0.02,0.034,0.039,-0.044,0.005,-0.063,-0.112,-0.224,-0.224,-0.254,0.044
0.266,-0.054,-0.02,0.034,0.039,-0.044,0.005,-0.063,-0.112,-0.22,-0.224,-0.244,0.054
0.268,-0.049,-0.02,0.029,0.034,-0.039,0.005,-0.059,-0.107,-0.22,-0.229,-0.244,0.059
0.27,-0.049,-0.02,0.029,0.034,-0.039,0.005,-0.054,-0.107,-0.22,-0.229,-0.249,0.059
0.272,-0.093,-0.073,0.02,0.083,-0.059,-0.029,-0.024,-0.088,-0.22,-0.229,-0.229,0.068
0.274,-0.073,-0.044,0.029,0.059,-0.054,-0.01,-0.024,-0.088,-0.21,-0.244,-0.229,0.059
0.276,-0.063,-0.044,0.02,0.054,-0.044,-0.015,-0.034,-0.088,-0.22,-0.259,-0.229,0.059
0.278,-0.093,-0.063,0.029,0.078,-0.063,-0.02,-0.044,-0.098,-0.229,-0.268,-0.239,0.059
0.28,-0.112,-0.044,0.068,0.078,-0.093,0.01,-0.044,-0.098,-0.224,-0.273,-0.244,0.049
0.282,-0.117,-0.015,0.102,0.068,-0.112,0.044,-0.029,-0.093,-0.22,-0.278,-0.234,0.054
0.284,-0.117,0.015,0.132,0.054,-0.127,0.073,-0.005,-0.054,-0.181,-0.264,-0.215,0.068
0.286,-0.098,0.044,0.142,0.029,-0.122,0.093,0.034,0.029,-0.102,-0.215,-0.176,0.093
0.288,-0.068,0.063,0.132,0.005,-0.102,0.098,0.093,0.156,0.02,-0.137,-0.117,0.122
0.29,-0.034,0.063,0.098,-0.015,-0.068,0.078,0.156,0.298,0.156,-0.034,-0.049,0.146
0.292,-0.005,0.083,0.088,-0.039,-0.049,0.083,0.185,0.371,0.268,0.073,0.034,0.2
0.294,0.024,0.093,0.068,-0.059,-0.024,0.078,0.171,0.366,0.342,0.19,0.142,0.268
0.296,0.063,0.059,-0.005,-0.059,0.034,0.024,0.112,0.288,0.361,0.298,0.244,0.342
0.298,0.098,0.034,-0.063,-0.063,0.078,-0.015,0.039,0.161,0.371,0.395,0.356,0.425
0.3,0.151,0.078,-0.073,-0.112,0.112,0.0,-0.044,0.024,0.381,0.537,0.508,0.532
0.302,0.22,0.122,-0.098,-0.171,0.156,0.01,-0.146,-0.151,0.381,0.688,0.669,0.649
0.304,0.268,0.122,-0.146,-0.195,0.205,-0.015,-0.293,-0.376,0.332,0.8,0.83,0.776
0.306,0.337,0.122,-0.215,-0.229,0.273,-0.049,-0.468,-0.6,0.239,0.854,0.942,0.878
0.308,0.395,0.132,-0.264,-0.264,0.327,-0.068,-0.634,-0.844,0.093,0.839,0.996,0.942
0.31,0.434,0.142,-0.293,-0.288,0.361,-0.078,-0.8,-1.093,-0.073,0.781,1.0,0.981
0.312,0.449,0.146,-0.303,-0.298,0.376,-0.078,-0.942,-1.303,-0.273,0.625,0.922,0.961
0.314,0.439,0.093,-0.346,-0.264,0.39,-0.127,-1.044,-1.464,-0.512,0.312,0.688,0.834
0.316,0.39,-0.068,-0.459,-0.161,0.425,-0.264,-1.069,-1.566,-0.766,-0.073,0.327,0.59
0.318,0.366,-0.156,-0.522,-0.102,0.444,-0.342,-1.064,-1.625,-0.942,-0.376,0.039,0.39
0.32,0.361,-0.156,-0.517,-0.102,0.439,-0.337,-1.064,-1.669,-1.083,-0.581,-0.122,0.298
0.322,0.312,-0.181,-0.493,-0.063,0.4,-0.337,-1.039,-1.693,-1.24,-0.795,-0.278,0.22
0.324,0.215,-0.234,-0.449,0.01,0.332,-0.342,-1.0,-1.698,-1.391,-1.054,-0.478,0.083
0.326,0.098,-0.264,-0.361,0.083,0.229,-0.312,-0.996,-1.747,-1.586,-1.313,-0.678,-0.049
0.328,-0.02,-0.244,-0.224,0.132,0.102,-0.234,-0.996,-1.796,-1.786,-1.557,-0.844,-0.161
0.33,-0.127,-0.239,-0.112,0.185,-0.01,-0.176,-0.942,-1.776,-1.908,-1.728,-0.976,-0.249
0.332,-0.156,-0.229,-0.073,0.195,-0.044,-0.151,-0.874,-1.688,-1.908,-1.771,-1.03,-0.303
0.334,-0.127,-0.19,-0.063,0.161,-0.034,-0.127,-0.839,-1.596,-1.835,-1.747,-1.02,-0.322
0.336,-0.137,-0.132,0.005,0.137,-0.073,-0.063,-0.825,-1.508,-1.737,-1.674,-0.996,-0.332
0.338,-0.181,-0.122,0.059,0.151,-0.122,-0.034,-0.815,-1.415,-1.62,-1.576,-0.971,-0.327
0.34,-0.229,-0.137,0.093,0.185,-0.161,-0.024,-0.815,-1.337,-1.523,-1.493,-0.932,-0.312
0.342,-0.239,-0.122,0.117,0.181,-0.181,-0.005,-0.8,-1.274,-1.43,-1.415,-0.903,-0.298
0.344,-0.229,-0.098,0.132,0.166,-0.181,0.015,-0.737,-1.171,-1.308,-1.322,-0.834,-0.273
0.346,-0.195,-0.059,0.137,0.127,-0.166,0.039,-0.644,-1.025,-1.147,-1.186,-0.732,-0.21
0.348,-0.181,-0.005,0.176,0.093,-0.181,0.083,-0.542,-0.854,-0.956,-1.02,-0.62,-0.151
0.35,-0.181,0.024,0.205,0.078,-0.195,0.112,-0.454,-0.703,-0.795,-0.859,-0.517,-0.102
0.352,-0.161,0.054,0.215,0.054,-0.19,0.132,-0.381,-0.586,-0.659,-0.747,-0.434,-0.063
0.354,-0.132,0.093,0.224,0.02,-0.181,0.156,-0.332,-0.493,-0.586,-0.659,-0.386,-0.039
0.356,-0.117,0.112,0.229,0.005,-0.176,0.171,-0.283,-0.429,-0.522,-0.595,-0.366,-0.024
0.358,-0.112,0.102,0.215,0.005,-0.166,0.156,-0.229,-0.356,-0.468,-0.547,-0.337,-0.01
0.36,-0.078,0.083,0.161,0.0,-0.122,0.122,-0.161,-0.283,-0.405,-0.503,-0.327,0.01
0.362,-0.063,0.088,0.151,-0.01,-0.107,0.117,-0.117,-0.229,-0.376,-0.483,-0.317,0.015
0.364,-0.063,0.093,0.156,-0.015,-0.112,0.122,-0.107,-0.185,-0.342,-0.464,-0.317,0.01
0.366,-0.063,0.073,0.137,-0.005,-0.102,0.102,-0.088,-0.142,-0.303,-0.434,-0.288,0.015
0.368,-0.063,0.059,0.122,0.005,-0.093,0.088,-0.073,-0.102,-0.254,-0.39,-0.259,0.029
0.37,-0.063,0.034,0.098,0.015,-0.083,0.063,-0.063,-0.083,-0.224,-0.361,-0.234,0.029
0.372,-0.063,0.015,0.078,0.024,-0.073,0.044,-0.059,-0.073,-0.2,-0.337,-0.215,0.034
0.374,-0.068,0.0,0.068,0.034,-0.068,0.034,-0.054,-0.063,-0.195,-0.322,-0.215,0.034
0.376,-0.068,0.0,0.068,0.034,-0.068,0.034,-0.044,-0.063,-0.195,-0.298,-0.215,0.024
0.378,-0.063,0.005,0.068,0.029,-0.068,0.034,-0.034,-0.039,-0.195,-0.293,-0.22,0.029
0.38,-0.063,0.005,0.068,0.029,-0.068,0.034,-0.024,-0.034,-0.19,-0.293,-0.224,0.029
0.382,-0.063,0.0,0.063,0.034,-0.063,0.029,-0.024,-0.02,-0.185,-0.293,-0.229,0.029
0.384,-0.054,-0.005,0.049,0.029,-0.054,0.02,-0.015,-0.005,-0.181,-0.278,-0.224,0.034
0.386,-0.054,0.0,0.054,0.029,-0.054,0.024,-0.01,0.0,-0.161,-0.259,-0.22,0.034
0.388,-0.049,0.005,0.054,0.024,-0.054,0.029,-0.005,0.01,-0.146,-0.234,-0.205,0.034
0.39,-0.049,0.01,0.059,0.02,-0.054,0.034,0.0,0.02,-0.132,-0.2,-0.195,0.034
0.392,-0.049,0.005,0.054,0.024,-0.054,0.029,0.005,0.024,-0.127,-0.176,-0.19,0.034
0.394,-0.049,0.0,0.049,0.024,-0.049,0.024,0.005,0.024,-0.127,-0.166,-0.19,0.034
0.396,-0.059,-0.01,0.049,0.034,-0.054,0.02,0.015,0.039,-0.122,-0.161,-0.185,0.039
0.398,-0.049,-0.015,0.034,0.034,-0.044,0.01,0.015,0.044,-0.117,-0.156,-0.185,0.039
0.4,-0.044,-0.015,0.029,0.029,-0.039,0.005,0.005,0.044,-0.127,-0.142,-0.181,0.029
0.402,-0.049,-0.015,0.034,0.034,-0.044,0.01,0.005,0.044,-0.127,-0.137,-0.195,0.024
0.404,-0.059,-0.029,0.029,0.044,-0.044,0.0,0.005,0.044,-0.127,-0.132,-0.2,0.02
0.406,-0.063,-0.02,0.044,0.044,-0.054,0.01,0.01,0.044,-0.117,-0.127,-0.205,0.02
0.408,-0.049,-0.01,0.039,0.029,-0.044,0.015,0.024,0.054,-0.093,-0.107,-0.195,0.024
0.41,-0.039,-0.01,0.029,0.024,-0.034,0.01,0.024,0.063,-0.093,-0.083,-0.19,0.029
0.412,-0.034,-0.015,0.02,0.024,-0.029,0.0,0.024,0.068,-0.088,-0.054,-0.181,0.034
0.414,-0.029,-0.015,0.015,0.024,-0.024,0.0,0.029,0.083,-0.088,-0.034,-0.171,0.034
0.416,-0.029,0.0,0.029,0.015,-0.029,0.015,0.029,0.078,-0.098,-0.034,-0.176,0.024
0.418,-0.029,0.005,0.034,0.015,-0.034,0.02,0.029,0.078,-0.093,-0.024,-0.181,0.024
0.42,-0.024,0.01,0.034,0.01,-0.029,0.02,0.029,0.083,-0.093,-0.02,-0.181,0.024
0.422,-0.024,0.015,0.039,0.005,-0.034,0.024,0.029,0.083,-0.088,-0.02,-0.185,0.029
0.424,-0.015,0.024,0.039,-0.005,-0.029,0.029,0.039,0.093,-0.083,0.0,-0.181,0.044
0.426,-0.01,0.029,0.039,-0.01,-0.024,0.034,0.044,0.098,-0.068,0.015,-0.181,0.044
0.428,-0.005,0.034,0.039,-0.015,-0.024,0.034,0.044,0.102,-0.054,0.039,-0.181,0.044
0.43,-0.005,0.039,0.044,-0.015,-0.024,0.039,0.044,0.112,-0.044,0.054,-0.176,0.044
0.432,-0.024,0.02,0.044,0.005,-0.034,0.029,0.034,0.107,-0.054,0.068,-0.176,0.049
0.434,-0.029,0.01,0.039,0.01,-0.034,0.024,0.034,0.107,-0.049,0.078,-0.181,0.049
0.436,-0.039,-0.01,0.029,0.024,-0.034,0.01,0.034,0.112,-0.049,0.088,-0.181,0.049
0.438,-0.054,-0.034,0.02,0.044,-0.039,-0.01,0.039,0.112,-0.049,0.098,-0.181,0.044
0.44,-0.054,-0.029,0.024,0.044,-0.039,-0.005,0.049,0.112,-0.054,0.112,-0.181,0.044
0.442,-0.049,-0.024,0.024,0.039,-0.039,0.0,0.049,0.112,-0.054,0.122,-0.185,0.044
0.444,-0.049,-0.02,0.029,0.034,-0.039,0.005,0.049,0.112,-0.054,0.127,-0.185,0.034
0.446,-0.054,-0.02,0.034,0.039,-0.044,0.005,0.054,0.112,-0.054,0.132,-0.185,0.044
0.448,-0.044,-0.02,0.024,0.034,-0.034,0.0,0.054,0.137,-0.034,0.156,-0.181,0.049
0.45,-0.044,-0.029,0.015,0.039,-0.029,-0.01,0.063,0.142,-0.024,0.176,-0.181,0.054
0.452,-0.034,-0.015,0.02,0.024,-0.029,0.0,0.068,0.151,-0.015,0.195,-0.176,0.054
0.454,-0.034,-0.015,0.02,0.024,-0.029,0.0,0.073,0.151,-0.01,0.21,-0.176,0.054
0.456,-0.029,-0.01,0.02,0.02,-0.024,0.005,0.063,0.161,-0.005,0.229,-0.185,0.044
0.458,-0.024,-0.005,0.02,0.015,-0.024,0.005,0.063,0.166,-0.005,0.234,-0.181,0.044
0.46,-0.02,0.01,0.029,0.005,-0.024,0.02,0.059,0.171,0.005,0.244,-0.176,0.049
0.462,-0.01,0.02,0.029,-0.005,-0.02,0.024,0.054,0.181,0.01,0.254,-0.171,0.054
0.464,-0.01,0.02,0.029,-0.005,-0.02,0.024,0.063,0.19,0.01,0.264,-0.171,0.044
0.466,-0.015,0.015,0.029,0.0,-0.024,0.02,0.068,0.19,0.015,0.273,-0.166,0.044
0.468,-0.024,0.005,0.029,0.01,-0.029,0.015,0.073,0.19,0.024,0.283,-0.166,0.054
0.47,-0.029,-0.005,0.024,0.02,-0.029,0.01,0.078,0.185,0.029,0.293,-0.166,0.054
0.472,-0.029,0.005,0.034,0.015,-0.034,0.02,0.083,0.2,0.034,0.307,-0.161,0.063
0.474,-0.029,0.005,0.034,0.015,-0.034,0.02,0.093,0.21,0.039,0.322,-0.151,0.063
0.476,-0.015,0.005,0.02,0.005,-0.02,0.01,0.098,0.224,0.049,0.337,-0.146,0.073
0.478,-0.015,0.005,0.02,0.005,-0.02,0.01,0.102,0.229,0.063,0.356,-0.127,0.073
0.48,-0.015,-0.005,0.01,0.01,-0.015,0.0,0.107,0.249,0.073,0.366,-0.117,0.078
0.482,-0.01,0.01,0.02,0.0,-0.015,0.015,0.107,0.254,0.078,0.371,-0.127,0.078
0.484,0.0,0.02,0.02,-0.01,-0.01,0.02,0.107,0.259,0.083,0.376,-0.127,0.083
0.486,-0.01,0.02,0.029,-0.005,-0.02,0.024,0.107,0.264,0.083,0.395,-0.127,0.083
0.488,-0.015,0.02,0.034,0.0,-0.024,0.024,0.098,0.268,0.078,0.386,-0.142,0.073
0.49,-0.01,0.024,0.034,-0.005,-0.024,0.029,0.088,0.278,0.088,0.395,-0.142,0.063
0.492,-0.015,0.024,0.039,-0.005,-0.029,0.029,0.083,0.288,0.102,0.395,-0.142,0.063
0.494,-0.029,0.01,0.039,0.01,-0.034,0.024,0.078,0.283,0.102,0.39,-0.142,0.054
0.496,-0.01,0.01,0.02,0.0,-0.015,0.015,0.093,0.298,0.107,0.41,-0.132,0.059
0.498,0.005,0.02,0.015,-0.01,-0.005,0.015,0.107,0.307,0.137,0.425,-0.127,0.068
0.5,0.024,0.044,0.02,-0.034,0.0,0.029,0.127,0.327,0.151,0.434,-0.122,0.078
0.502,0.034,0.073,0.039,-0.054,-0.005,0.054,0.142,0.346,0.171,0.444,-0.107,0.083
0.504,0.044,0.068,0.024,-0.054,0.01,0.044,0.156,0.366,0.19,0.464,-0.102,0.093
0.506,0.044,0.059,0.015,-0.049,0.015,0.034,0.166,0.371,0.2,0.478,-0.093,0.098
0.508,0.044,0.054,0.01,-0.049,0.015,0.029,0.166,0.376,0.205,0.483,-0.088,0.102
0.51,0.044,0.054,0.01,-0.049,0.015,0.029,0.166,0.386,0.21,0.493,-0.083,0.112
0.512,0.034,0.049,0.015,-0.039,0.01,0.029,0.151,0.395,0.215,0.498,-0.088,0.102
0.514,0.024,0.044,0.02,-0.034,0.0,0.029,0.151,0.405,0.224,0.503,-0.088,0.098
0.516,0.015,0.034,0.02,-0.024,-0.005,0.024,0.156,0.41,0.234,0.503,-0.083,0.098
0.518,0.01,0.029,0.02,-0.02,-0.005,0.024,0.156,0.425,0.244,0.517,-0.078,0.107
0.52,0.02,0.054,0.034,-0.034,-0.01,0.044,0.156,0.429,0.254,0.527,-0.078,0.102
0.522,0.024,0.059,0.034,-0.039,-0.005,0.044,0.156,0.434,0.264,0.532,-0.073,0.107
0.524,0.029,0.068,0.039,-0.049,-0.005,0.054,0.161,0.444,0.278,0.532,-0.068,0.107
0.526,0.039,0.073,0.034,-0.054,0.0,0.054,0.166,0.459,0.293,0.547,-0.063,0.112
0.528,0.049,0.083,0.034,-0.063,0.005,0.059,0.185,0.483,0.303,0.561,-0.044,0.117
0.53,0.059,0.088,0.029,-0.073,0.015,0.059,0.195,0.503,0.312,0.581,-0.039,0.122
0.532,0.063,0.098,0.034,-0.078,0.015,0.063,0.195,0.508,0.322,0.595,-0.034,0.127
0.534,0.078,0.112,0.034,-0.093,0.02,0.073,0.195,0.512,0.337,0.6,-0.029,0.132
0.536,0.068,0.102,0.034,-0.083,0.015,0.068,0.19,0.508,0.332,0.6,-0.024,0.137
0.538,0.068,0.098,0.029,-0.083,0.02,0.063,0.19,0.517,0.346,0.61,-0.02,0.137
0.54,0.073,0.098,0.024,-0.083,0.024,0.059,0.19,0.527,0.356,0.61,-0.02,0.142
0.542,0.073,0.098,0.024,-0.083,0.024,0.059,0.19,0.532,0.361,0.625,-0.02,0.151
0.544,0.073,0.112,0.039,-0.093,0.015,0.073,0.19,0.542,0.381,0.63,-0.01,0.142
0.546,0.083,0.117,0.034,-0.098,0.024,0.073,0.195,0.551,0.395,0.649,0.0,0.151
0.548,0.088,0.127,0.039,-0.107,0.024,0.083,0.195,0.556,0.405,0.664,0.01,0.161
0.55,0.088,0.142,0.054,-0.112,0.015,0.098,0.195,0.556,0.41,0.673,0.02,0.161
0.552,0.093,0.142,0.049,-0.117,0.02,0.093,0.21,0.571,0.42,0.688,0.024,0.161
0.554,0.093,0.142,0.049,-0.117,0.02,0.093,0.21,0.586,0.429,0.698,0.034,0.166
0.556,0.093,0.151,0.059,-0.122,0.015,0.102,0.215,0.595,0.439,0.708,0.039,0.176
0.558,0.088,0.156,0.068,-0.122,0.01,0.112,0.224,0.595,0.449,0.712,0.044,0.185
0.56,0.093,0.171,0.078,-0.132,0.005,0.122,0.215,0.59,0.449,0.712,0.054,0.19
0.562,0.098,0.161,0.063,-0.127,0.015,0.112,0.215,0.59,0.459,0.717,0.054,0.2
0.564,0.102,0.151,0.049,-0.127,0.024,0.098,0.21,0.6,0.464,0.722,0.063,0.205
0.566,0.107,0.161,0.054,-0.132,0.024,0.107,0.205,0.6,0.468,0.727,0.078,0.205
0.568,0.117,0.171,0.054,-0.142,0.029,0.112,0.205,0.6,0.473,0.727,0.088,0.205
0.57,0.112,0.176,0.063,-0.142,0.024,0.117,0.205,0.6,0.478,0.727,0.093,0.205
0.572,0.107,0.181,0.073,-0.142,0.015,0.127,0.205,0.595,0.483,0.742,0.093,0.215
0.574,0.117,0.185,0.068,-0.151,0.024,0.127,0.195,0.59,0.483,0.747,0.098,0.224
0.576,0.122,0.195,0.073,-0.156,0.024,0.132,0.205,0.6,0.493,0.742,0.093,0.224
0.578,0.122,0.2,0.078,-0.161,0.02,0.137,0.21,0.59,0.493,0.737,0.093,0.224
0.58,0.117,0.2,0.083,-0.156,0.015,0.142,0.21,0.586,0.493,0.732,0.093,0.229
0.582,0.122,0.205,0.083,-0.161,0.02,0.142,0.2,0.576,0.483,0.722,0.093,0.234
0.584,0.112,0.215,0.102,-0.161,0.005,0.156,0.176,0.566,0.478,0.722,0.093,0.229
0.586,0.117,0.215,0.098,-0.166,0.01,0.156,0.161,0.547,0.473,0.717,0.093,0.229
0.588,0.117,0.224,0.107,-0.171,0.005,0.166,0.161,0.537,0.473,0.708,0.093,0.229
0.59,0.117,0.21,0.093,-0.161,0.01,0.151,0.161,0.522,0.459,0.708,0.098,0.229
0.592,0.107,0.205,0.098,-0.156,0.005,0.151,0.166,0.512,0.439,0.703,0.098,0.224
0.594,0.102,0.2,0.098,-0.151,0.0,0.146,0.166,0.493,0.439,0.698,0.093,0.224
0.596,0.098,0.19,0.093,-0.142,0.0,0.142,0.161,0.478,0.425,0.693,0.093,0.224
0.598,0.098,0.181,0.083,-0.137,0.005,0.132,0.151,0.468,0.415,0.688,0.088,0.229
0.6,0.098,0.19,0.093,-0.142,0.0,0.142,0.142,0.464,0.415,0.683,0.083,0.224
0.602,0.098,0.19,0.093,-0.142,0.0,0.142,0.132,0.439,0.405,0.673,0.078,0.224
0.604,0.088,0.176,0.088,-0.132,0.0,0.132,0.127,0.42,0.386,0.654,0.078,0.224
0.606,0.088,0.166,0.078,-0.127,0.005,0.122,0.117,0.4,0.371,0.649,0.073,0.22
0.608,0.093,0.166,0.073,-0.127,0.01,0.117,0.102,0.371,0.346,0.62,0.068,0.215
0.61,0.093,0.171,0.078,-0.132,0.005,0.122,0.098,0.351,0.332,0.605,0.063,0.21
0.612,0.088,0.181,0.093,-0.132,-0.005,0.137,0.098,0.332,0.312,0.586,0.059,0.205
0.614,0.083,0.171,0.088,-0.127,-0.005,0.127,0.083,0.317,0.298,0.566,0.054,0.205
0.616,0.078,0.166,0.088,-0.122,-0.005,0.127,0.068,0.298,0.264,0.542,0.039,0.181
0.618,0.068,0.156,0.088,-0.112,-0.01,0.122,0.059,0.264,0.244,0.522,0.029,0.176
0.62,0.068,0.156,0.088,-0.112,-0.01,0.122,0.059,0.249,0.234,0.508,0.02,0.171
0.622,0.078,0.156,0.078,-0.117,0.0,0.117,0.059,0.229,0.22,0.488,0.015,0.171
0.624,0.078,0.146,0.068,-0.112,0.005,0.107,0.068,0.22,0.21,0.473,0.024,0.156
0.626,0.059,0.137,0.078,-0.098,-0.01,0.107,0.068,0.215,0.19,0.454,0.015,0.156
0.628,0.049,0.127,0.078,-0.088,-0.015,0.102,0.059,0.2,0.181,0.439,0.005,0.156
0.63,0.049,0.117,0.068,-0.083,-0.01,0.093,0.054,0.185,0.171,0.434,-0.005,0.146
0.632,0.049,0.107,0.059,-0.078,-0.005,0.083,0.059,0.151,0.142,0.395,-0.024,0.132
0.634,0.044,0.102,0.059,-0.073,-0.01,0.078,0.044,0.137,0.107,0.371,-0.039,0.107
0.636,0.044,0.098,0.054,-0.068,-0.005,0.073,0.034,0.127,0.088,0.351,-0.054,0.093
0.638,0.044,0.093,0.049,-0.068,-0.005,0.068,0.034,0.117,0.073,0.337,-0.054,0.088
0.64,0.034,0.093,0.059,-0.063,-0.015,0.073,0.034,0.117,0.063,0.337,-0.073,0.083
0.642,0.024,0.083,0.059,-0.054,-0.02,0.068,0.024,0.102,0.059,0.317,-0.083,0.068
0.644,0.024,0.078,0.054,-0.049,-0.015,0.063,0.02,0.102,0.059,0.303,-0.093,0.068
0.646,0.02,0.068,0.049,-0.044,-0.015,0.059,0.015,0.083,0.049,0.283,-0.098,0.068
0.648,0.005,0.059,0.054,-0.029,-0.024,0.054,0.005,0.063,0.024,0.259,-0.102,0.049
0.65,0.005,0.054,0.049,-0.029,-0.024,0.049,0.005,0.049,0.01,0.239,-0.122,0.039
0.652,0.01,0.054,0.044,-0.029,-0.02,0.049,0.005,0.044,-0.024,0.22,-0.132,0.029
0.654,0.01,0.054,0.044,-0.029,-0.02,0.049,0.0,0.034,-0.044,0.205,-0.137,0.02
0.656,-0.015,0.024,0.039,-0.005,-0.029,0.029,0.005,0.029,-0.039,0.185,-0.142,0.01
0.658,-0.015,0.02,0.034,0.0,-0.024,0.024,0.005,0.024,-0.044,0.176,-0.156,0.005
0.66,-0.015,0.015,0.029,0.0,-0.024,0.02,0.005,0.024,-0.044,0.166,-0.161,0.005
0.662,-0.015,0.0,0.015,0.01,-0.015,0.005,0.005,0.024,-0.049,0.161,-0.171,-0.005
0.664,-0.024,0.005,0.029,0.01,-0.029,0.015,0.0,0.01,-0.063,0.146,-0.181,-0.01
0.666,-0.024,0.005,0.029,0.01,-0.029,0.015,0.0,0.005,-0.068,0.132,-0.185,-0.015
0.668,-0.024,0.01,0.034,0.01,-0.029,0.02,0.0,0.005,-0.078,0.127,-0.19,-0.015
0.67,-0.02,0.01,0.029,0.005,-0.024,0.02,-0.005,0.0,-0.083,0.122,-0.19,-0.015
0.672,-0.02,-0.01,0.01,0.015,-0.015,0.0,0.005,-0.01,-0.093,0.102,-0.19,-0.02
0.674,-0.024,-0.01,0.015,0.02,-0.02,0.0,0.005,-0.02,-0.107,0.073,-0.195,-0.024
0.676,-0.034,-0.015,0.02,0.024,-0.029,0.0,0.0,-0.024,-0.117,0.054,-0.2,-0.029
0.678,-0.034,-0.024,0.01,0.029,-0.024,-0.01,-0.005,-0.024,-0.117,0.044,-0.205,-0.029
0.68,-0.034,-0.024,0.01,0.029,-0.024,-0.01,-0.01,-0.015,-0.107,0.049,-0.205,-0.02
0.682,-0.034,-0.02,0.015,0.029,-0.024,-0.005,-0.015,-0.02,-0.107,0.044,-0.205,-0.02
0.684,-0.034,-0.015,0.02,0.024,-0.029,0.0,-0.015,-0.02,-0.107,0.039,-0.21,-0.02
0.686,-0.034,-0.015,0.02,0.024,-0.029,0.0,-0.005,-0.024,-0.107,0.034,-0.21,-0.024
0.688,-0.024,-0.005,0.02,0.015,-0.024,0.005,-0.01,-0.034,-0.117,0.024,-0.2,-0.015
0.69,-0.024,-0.005,0.02,0.015,-0.024,0.005,-0.01,-0.034,-0.122,0.024,-0.21,-0.015
0.692,-0.024,-0.005,0.02,0.015,-0.024,0.005,-0.015,-0.034,-0.122,0.024,-0.21,-0.02
0.694,-0.029,-0.005,0.024,0.02,-0.029,0.01,-0.015,-0.034,-0.132,0.02,-0.21,-0.024
0.696,-0.029,-0.02,0.01,0.024,-0.02,-0.005,-0.015,-0.034,-0.137,0.005,-0.22,-0.034
0.698,-0.034,-0.024,0.01,0.029,-0.024,-0.01,-0.015,-0.034,-0.137,-0.005,-0.22,-0.039
0.7,-0.034,-0.029,0.005,0.034,-0.02,-0.015,-0.01,-0.034,-0.137,-0.015,-0.22,-0.044
0.702,-0.034,-0.034,0.0,0.034,-0.02,-0.02,-0.005,-0.039,-0.137,-0.02,-0.22,-0.049
0.704,-0.034,-0.02,0.015,0.029,-0.024,-0.005,-0.005,-0.029,-0.127,-0.024,-0.239,-0.049
0.706,-0.034,-0.02,0.015,0.029,-0.024,-0.005,-0.01,-0.029,-0.127,-0.029,-0.239,-0.054
0.708,-0.029,-0.02,0.01,0.024,-0.02,-0.005,-0.015,-0.029,-0.127,-0.034,-0.234,-0.054
0.71,-0.029,-0.02,0.01,0.024,-0.02,-0.005,-0.015,-0.029,-0.127,-0.039,-0.229,-0.054
0.712,-0.024,-0.024,0.0,0.024,-0.015,-0.015,-0.015,-0.029,-0.137,-0.054,-0.229,-0.054
0.714,-0.024,-0.02,0.005,0.024,-0.015,-0.01,-0.015,-0.039,-0.142,-0.063,-0.234,-0.054
0.716,-0.024,-0.01,0.015,0.02,-0.02,0.0,-0.015,-0.039,-0.151,-0.063,-0.234,-0.054
0.718,-0.024,-0.005,0.02,0.015,-0.024,0.005,-0.015,-0.034,-0.151,-0.063,-0.234,-0.054
0.72,-0.039,-0.02,0.02,0.029,-0.029,0.0,-0.01,-0.034,-0.146,-0.068,-0.239,-0.063
0.722,-0.044,-0.029,0.015,0.039,-0.029,-0.01,-0.015,-0.034,-0.146,-0.078,-0.244,-0.063
0.724,-0.049,-0.039,0.01,0.044,-0.029,-0.015,-0.01,-0.039,-0.146,-0.083,-0.244,-0.063
0.726,-0.049,-0.049,0.0,0.049,-0.024,-0.024,-0.005,-0.039,-0.142,-0.088,-0.244,-0.063
0.728,-0.054,-0.049,0.005,0.054,-0.029,-0.024,-0.005,-0.029,-0.142,-0.093,-0.244,-0.063
0.73,-0.054,-0.039,0.015,0.049,-0.034,-0.015,-0.005,-0.029,-0.142,-0.098,-0.244,-0.059
0.732,-0.049,-0.039,0.01,0.044,-0.029,-0.015,-0.005,-0.029,-0.142,-0.098,-0.244,-0.059
0.734,-0.049,-0.029,0.02,0.039,-0.034,-0.005,0.0,-0.034,-0.142,-0.098,-0.244,-0.063
0.736,-0.039,-0.029,0.01,0.034,-0.024,-0.01,-0.01,-0.044,-0.151,-0.102,-0.244,-0.059
0.738,-0.044,-0.034,0.01,0.039,-0.029,-0.015,-0.005,-0.039,-0.151,-0.107,-0.244,-0.059
0.74,-0.044,-0.034,0.01,0.039,-0.029,-0.015,-0.005,-0.034,-0.151,-0.112,-0.244,-0.059
0.742,-0.044,-0.024,0.02,0.034,-0.034,-0.005,-0.005,-0.034,-0.151,-0.117,-0.244,-0.059
0.744,-0.034,-0.02,0.015,0.029,-0.024,-0.005,-0.01,-0.034,-0.151,-0.127,-0.244,-0.054
0.746,-0.029,-0.024,0.005,0.029,-0.02,-0.01,-0.01,-0.034,-0.156,-0.127,-0.244,-0.054
0.748,-0.034,-0.034,0.0,0.034,-0.02,-0.02,-0.005,-0.039,-0.156,-0.132,-0.239,-0.054
0.75,-0.039,-0.039,0.0,0.039,-0.02,-0.02,0.005,-0.044,-0.156,-0.137,-0.239,-0.054
0.752,-0.039,-0.034,0.005,0.039,-0.024,-0.015,0.005,-0.039,-0.146,-0.127,-0.234,-0.054
0.754,-0.034,-0.024,0.01,0.029,-0.024,-0.01,-0.005,-0.039,-0.146,-0.132,-0.234,-0.054
0.756,-0.034,-0.029,0.005,0.034,-0.02,-0.015,-0.015,-0.039,-0.146,-0.132,-0.224,-0.054
0.758,-0.034,-0.044,-0.01,0.039,-0.015,-0.029,-0.024,-0.039,-0.146,-0.127,-0.234,-0.054
0.76,-0.034,-0.049,-0.015,0.044,-0.01,-0.034,-0.024,-0.034,-0.146,-0.137,-0.229,-0.059
0.762,-0.044,-0.044,0.0,0.044,-0.024,-0.024,-0.02,-0.044,-0.156,-0.142,-0.234,-0.068
0.764,-0.044,-0.039,0.005,0.044,-0.024,-0.02,-0.015,-0.039,-0.156,-0.146,-0.234,-0.073
0.766,-0.034,-0.034,0.0,0.034,-0.02,-0.02,-0.01,-0.034,-0.151,-0.146,-0.234,-0.073
0.768,-0.039,-0.034,0.005,0.039,-0.024,-0.015,-0.005,-0.044,-0.161,-0.146,-0.239,-0.073
0.77,-0.044,-0.034,0.01,0.039,-0.029,-0.015,-0.005,-0.039,-0.161,-0.142,-0.244,-0.073
0.772,-0.039,-0.034,0.005,0.039,-0.024,-0.015,0.0,-0.034,-0.161,-0.142,-0.244,-0.073
0.774,-0.044,-0.034,0.01,0.039,-0.029,-0.015,0.005,-0.029,-0.161,-0.142,-0.249,-0.073
0.776,-0.029,-0.02,0.01,0.024,-0.02,-0.005,0.005,-0.024,-0.156,-0.132,-0.249,-0.078
0.778,-0.024,-0.005,0.02,0.015,-0.024,0.005,-0.005,-0.029,-0.156,-0.127,-0.244,-0.073
0.78,-0.02,0.005,0.024,0.01,-0.024,0.015,-0.005,-0.034,-0.156,-0.122,-0.244,-0.073
0.782,-0.015,0.015,0.029,0.0,-0.024,0.02,-0.005,-0.039,-0.156,-0.117,-0.239,-0.073
0.784,-0.01,0.005,0.015,0.005,-0.015,0.01,0.015,-0.02,-0.146,-0.102,-0.229,-0.059
0.786,-0.01,0.0,0.01,0.005,-0.01,0.005,0.015,-0.015,-0.142,-0.098,-0.22,-0.049
0.788,-0.01,0.0,0.01,0.005,-0.01,0.005,0.015,-0.015,-0.137,-0.088,-0.215,-0.044
0.79,-0.01,0.0,0.01,0.005,-0.01,0.005,0.02,-0.015,-0.137,-0.078,-0.21,-0.039
0.792,-0.029,-0.02,0.01,0.024,-0.02,-0.005,0.005,-0.02,-0.142,-0.078,-0.22,-0.044
0.794,-0.029,-0.02,0.01,0.024,-0.02,-0.005,-0.005,-0.02,-0.146,-0.078,-0.229,-0.049
0.796,-0.039,-0.02,0.02,0.029,-0.029,0.0,-0.01,-0.024,-0.151,-0.073,-0.234,-0.049
0.798,-0.034,-0.024,0.01,0.029,-0.024,-0.01,-0.015,-0.034,-0.156,-0.068,-0.239,-0.054
0.8,-0.034,-0.02,0.015,0.029,-0.024,-0.005,-0.005,-0.044,-0.156,-0.049,-0.229,-0.054
0.802,-0.039,-0.015,0.024,0.029,-0.034,0.005,-0.01,-0.044,-0.156,-0.044,-0.229,-0.054
0.804,-0.039,-0.015,0.024,0.029,-0.034,0.005,-0.01,-0.044,-0.156,-0.029,-0.224,-0.054
0.806,-0.039,-0.01,0.029,0.024,-0.034,0.01,-0.005,-0.034,-0.146,-0.024,-0.215,-0.054
0.808,-0.039,-0.02,0.02,0.029,-0.029,0.0,-0.005,-0.034,-0.137,-0.02,-0.215,-0.044
0.81,-0.034,-0.02,0.015,0.029,-0.024,-0.005,-0.005,-0.034,-0.132,-0.015,-0.215,-0.034
0.812,-0.034,-0.02,0.015,0.029,-0.024,-0.005,-0.005,-0.034,-0.132,-0.01,-0.21,-0.034
0.814,-0.034,-0.02,0.015,0.029,-0.024,-0.005,-0.005,-0.029,-0.132,-0.005,-0.21,-0.034
0.816,-0.024,-0.01,0.015,0.02,-0.02,0.0,0.0,-0.02,-0.142,0.005,-0.2,-0.044
0.818,-0.029,-0.01,0.02,0.02,-0.024,0.005,0.0,-0.02,-0.142,0.024,-0.2,-0.034
0.82,-0.029,-0.01,0.02,0.02,-0.024,0.005,-0.005,-0.02,-0.142,0.034,-0.19,-0.029
0.822,-0.024,-0.01,0.015,0.02,-0.02,0.0,-0.005,-0.02,-0.137,0.039,-0.19,-0.029
0.824,-0.029,-0.01,0.02,0.02,-0.024,0.005,-0.005,-0.029,-0.137,0.054,-0.2,-0.044
0.826,-0.029,-0.005,0.024,0.02,-0.029,0.01,-0.005,-0.029,-0.137,0.054,-0.2,-0.044
0.828,-0.029,-0.005,0.024,0.02,-0.029,0.01,-0.005,-0.029,-0.137,0.044,-0.195,-0.049
0.83,-0.029,-0.005,0.024,0.02,-0.029,0.01,0.0,-0.029,-0.137,0.034,-0.19,-0.049
0.832,-0.02,0.005,0.024,0.01,-0.024,0.015,0.0,-0.034,-0.137,0.049,-0.19,-0.039
0.834,-0.02,0.005,0.024,0.01,-0.024,0.015,-0.005,-0.034,-0.137,0.054,-0.195,-0.039
0.836,-0.034,-0.005,0.029,0.02,-0.034,0.01,-0.01,-0.034,-0.137,0.063,-0.2,-0.044
0.838,-0.034,-0.005,0.029,0.02,-0.034,0.01,-0.024,-0.029,-0.137,0.078,-0.2,-0.044
0.84,-0.034,-0.01,0.024,0.024,-0.029,0.005,-0.01,-0.015,-0.127,0.083,-0.19,-0.034
0.842,-0.029,-0.01,0.02,0.02,-0.024,0.005,0.0,-0.015,-0.127,0.083,-0.19,-0.034
0.844,-0.029,-0.015,0.015,0.024,-0.024,0.0,0.01,-0.02,-0.127,0.088,-0.19,-0.034
0.846,-0.034,-0.02,0.015,0.029,-0.024,-0.005,0.02,-0.02,-0.127,0.093,-0.195,-0.034
0.848,-0.02,-0.01,0.01,0.015,-0.015,0.0,0.01,-0.029,-0.132,0.098,-0.19,-0.044
0.85,-0.015,0.0,0.015,0.01,-0.015,0.005,0.005,-0.034,-0.127,0.102,-0.19,-0.044
0.852,-0.005,0.01,0.015,0.0,-0.01,0.01,0.0,-0.034,-0.127,0.107,-0.181,-0.039
0.854,0.0,0.024,0.024,-0.01,-0.015,0.024,0.0,-0.039,-0.132,0.117,-0.181,-0.039
0.856,-0.015,0.01,0.024,0.005,-0.02,0.015,-0.015,-0.059,-0.151,0.112,-0.185,-0.049
0.858,-0.024,-0.01,0.015,0.02,-0.02,0.0,-0.02,-0.059,-0.151,0.117,-0.19,-0.054
0.86,-0.034,-0.015,0.02,0.024,-0.029,0.0,-0.024,-0.059,-0.151,0.117,-0.195,-0.059
0.862,-0.049,-0.02,0.029,0.034,-0.039,0.005,-0.029,-0.059,-0.151,0.112,-0.2,-0.063
0.864,-0.049,-0.02,0.029,0.034,-0.039,0.005,-0.02,-0.059,-0.151,0.122,-0.2,-0.059
0.866,-0.049,-0.024,0.024,0.039,-0.039,0.0,-0.015,-0.059,-0.156,0.122,-0.2,-0.059
0.868,-0.049,-0.024,0.024,0.039,-0.039,0.0,-0.01,-0.054,-0.156,0.117,-0.2,-0.059
0.87,-0.054,-0.02,0.034,0.039,-0.044,0.005,-0.01,-0.054,-0.156,0.112,-0.205,-0.068
0.872,-0.044,-0.02,0.024,0.034,-0.034,0.0,-0.01,-0.063,-0.166,0.107,-0.2,-0.078
0.874,-0.044,-0.02,0.024,0.034,-0.034,0.0,-0.015,-0.063,-0.166,0.107,-0.205,-0.073
0.876,-0.029,0.0,0.029,0.015,-0.029,0.015,-0.024,-0.063,-0.166,0.107,-0.205,-0.073
0.878,-0.029,0.0,0.029,0.015,-0.029,0.015,-0.024,-0.063,-0.166,0.107,-0.205,-0.073
0.88,-0.039,-0.02,0.02,0.029,-0.029,0.0,-0.024,-0.063,-0.156,0.117,-0.205,-0.083
0.882,-0.044,-0.024,0.02,0.034,-0.034,-0.005,-0.02,-0.063,-0.166,0.107,-0.205,-0.083
0.884,-0.049,-0.024,0.024,0.039,-0.039,0.0,-0.015,-0.059,-0.166,0.102,-0.205,-0.083
0.886,-0.054,-0.024,0.029,0.039,-0.044,0.0,-0.01,-0.054,-0.161,0.102,-0.205,-0.083
0.888,-0.039,-0.005,0.034,0.024,-0.039,0.015,0.0,-0.049,-0.156,0.107,-0.19,-0.073
0.89,-0.034,0.0,0.034,0.02,-0.034,0.015,0.0,-0.044,-0.151,0.107,-0.185,-0.073
0.892,-0.034,0.005,0.039,0.015,-0.039,0.02,0.0,-0.044,-0.146,0.112,-0.185,-0.063
0.894,-0.029,0.01,0.039,0.01,-0.034,0.024,-0.01,-0.054,-0.146,0.107,-0.185,-0.049
0.896,-0.02,0.0,0.02,0.01,-0.02,0.01,-0.005,-0.054,-0.156,0.098,-0.185,-0.059
0.898,-0.015,0.0,0.015,0.01,-0.015,0.005,0.0,-0.054,-0.156,0.098,-0.185,-0.054
0.9,-0.01,-0.005,0.005,0.01,-0.01,0.0,-0.005,-0.054,-0.156,0.102,-0.185,-0.054
0.902,-0.015,-0.015,0.0,0.015,-0.01,-0.01,-0.02,-0.054,-0.161,0.107,-0.2,-0.054
0.904,-0.024,-0.015,0.01,0.02,-0.02,-0.005,-0.015,-0.054,-0.161,0.107,-0.205,-0.063
0.906,-0.024,-0.005,0.02,0.015,-0.024,0.005,-0.015,-0.054,-0.156,0.102,-0.205,-0.063
0.908,-0.024,-0.015,0.01,0.02,-0.02,-0.005,-0.015,-0.059,-0.156,0.098,-0.195,-0.059
0.91,-0.024,-0.015,0.01,0.02,-0.02,-0.005,-0.015,-0.063,-0.156,0.098,-0.195,-0.059
0.912,-0.02,0.0,0.02,0.01,-0.02,0.01,-0.005,-0.063,-0.156,0.088,-0.195,-0.063
0.914,-0.015,0.0,0.015,0.01,-0.015,0.005,-0.005,-0.063,-0.156,0.088,-0.195,-0.063
0.916,-0.01,0.0,0.01,0.005,-0.01,0.005,-0.005,-0.059,-0.161,0.088,-0.195,-0.063
0.918,-0.005,0.0,0.005,0.005,-0.005,0.0,-0.005,-0.054,-0.161,0.083,-0.2,-0.063
0.92,-0.015,-0.02,-0.005,0.02,-0.005,-0.015,-0.005,-0.054,-0.166,0.073,-0.2,-0.063
0.922,-0.024,-0.029,-0.005,0.029,-0.01,-0.02,-0.005,-0.054,-0.166,0.073,-0.195,-0.063
0.924,-0.034,-0.039,-0.005,0.039,-0.015,-0.024,-0.01,-0.059,-0.166,0.068,-0.195,-0.068
0.926,-0.039,-0.049,-0.01,0.044,-0.015,-0.029,-0.01,-0.059,-0.166,0.063,-0.2,-0.068
0.928,-0.049,-0.039,0.01,0.044,-0.029,-0.015,-0.02,-0.059,-0.166,0.073,-0.21,-0.059
0.93,-0.054,-0.044,0.01,0.049,-0.034,-0.02,-0.015,-0.068,-0.171,0.063,-0.21,-0.059
0.932,-0.054,-0.044,0.01,0.049,-0.034,-0.02,-0.015,-0.073,-0.171,0.063,-0.215,-0.063
0.934,-0.054,-0.044,0.01,0.049,-0.034,-0.02,-0.015,-0.073,-0.171,0.063,-0.22,-0.063
0.936,-0.044,-0.029,0.015,0.039,-0.029,-0.01,-0.024,-0.073,-0.181,0.059,-0.224,-0.068
0.938,-0.044,-0.015,0.029,0.029,-0.039,0.005,-0.024,-0.073,-0.181,0.054,-0.224,-0.073
0.94,-0.044,-0.024,0.02,0.034,-0.034,-0.005,-0.024,-0.068,-0.181,0.049,-0.22,-0.078
0.942,-0.039,-0.024,0.015,0.034,-0.029,-0.005,-0.024,-0.068,-0.181,0.054,-0.22,-0.083
0.944,-0.034,-0.02,0.015,0.029,-0.024,-0.005,-0.02,-0.059,-0.171,0.054,-0.21,-0.068
0.946,-0.039,-0.02,0.02,0.029,-0.029,0.0,-0.02,-0.059,-0.171,0.044,-0.21,-0.068
0.948,-0.034,-0.02,0.015,0.029,-0.024,-0.005,-0.015,-0.059,-0.176,0.044,-0.215,-0.078
0.95,-0.024,-0.02,0.005,0.024,-0.015,-0.01,-0.01,-0.059,-0.176,0.044,-0.215,-0.078
0.952,-0.039,-0.034,0.005,0.039,-0.024,-0.015,-0.02,-0.063,-0.181,0.039,-0.22,-0.078
0.954,-0.039,-0.034,0.005,0.039,-0.024,-0.015,-0.024,-0.073,-0.185,0.034,-0.22,-0.073
0.956,-0.044,-0.039,0.005,0.044,-0.024,-0.02,-0.029,-0.078,-0.19,0.029,-0.22,-0.073
0.958,-0.049,-0.044,0.005,0.049,-0.029,-0.02,-0.039,-0.083,-0.2,0.015,-0.229,-0.073
0.96,-0.049,-0.029,0.02,0.039,-0.034,-0.005,-0.034,-0.083,-0.195,0.02,-0.22,-0.073
0.962,-0.049,-0.029,0.02,0.039,-0.034,-0.005,-0.029,-0.083,-0.2,0.02,-0.215,-0.073
0.964,-0.054,-0.034,0.02,0.044,-0.039,-0.01,-0.024,-0.088,-0.2,0.02,-0.215,-0.078
0.966,-0.054,-0.029,0.024,0.044,-0.039,-0.005,-0.02,-0.088,-0.195,0.02,-0.215,-0.083
0.968,-0.039,-0.015,0.024,0.029,-0.034,0.005,-0.015,-0.083,-0.19,0.02,-0.215,-0.073
0.97,-0.034,-0.015,0.02,0.024,-0.029,0.0,-0.01,-0.078,-0.185,0.02,-0.215,-0.073
0.972,-0.029,-0.01,0.02,0.02,-0.024,0.005,-0.005,-0.073,-0.176,0.024,-0.215,-0.073
0.974,-0.024,-0.005,0.02,0.015,-0.024,0.005,0.0,-0.068,-0.171,0.024,-0.215,-0.078
0.976,-0.01,0.0,0.01,0.005,-0.01,0.005,-0.01,-0.059,-0.176,0.02,-0.205,-0.068
0.978,-0.005,0.0,0.005,0.005,-0.005,0.0,-0.01,-0.063,-0.176,0.02,-0.205,-0.068
0.98,0.0,0.005,0.005,0.0,-0.005,0.005,-0.01,-0.063,-0.176,0.02,-0.205,-0.063
0.982,0.01,0.01,0.0,-0.01,0.005,0.005,-0.01,-0.063,-0.176,0.02,-0.205,-0.063
0.984,-0.005,-0.005,0.0,0.005,-0.005,-0.005,-0.02,-0.063,-0.185,0.01,-0.215,-0.068
0.986,-0.024,-0.015,0.01,0.02,-0.02,-0.005,-0.02,-0.068,-0.19,0.0,-0.215,-0.078
0.988,-0.039,-0.029,0.01,0.034,-0.024,-0.01,-0.024,-0.083,-0.2,-0.01,-0.22,-0.083
0.99,-0.054,-0.039,0.015,0.049,-0.034,-0.015,-0.024,-0.088,-0.2,-0.02,-0.224,-0.088
0.992,-0.054,-0.034,0.02,0.044,-0.039,-0.01,-0.024,-0.088,-0.21,-0.024,-0.234,-0.088
0.994,-0.054,-0.029,0.024,0.044,-0.039,-0.005,-0.024,-0.088,-0.21,-0.024,-0.234,-0.088
0.996,-0.044,-0.024,0.02,0.034,-0.034,-0.005,-0.024,-0.093,-0.21,-0.029,-0.234,-0.083
0.998,-0.054,-0.02,0.034,0.039,-0.044,0.005,-0.024,-0.093,-0.21,-0.034,-0.234,-0.073
1.0,-0.044,-0.02,0.024,0.034,-0.034,0.0,-0.015,-0.083,-0.21,-0.034,-0.224,-0.063
1.002,-0.049,-0.02,0.029,0.034,-0.039,0.005,-0.015,-0.078,-0.205,-0.034,-0.22,-0.068
1.004,-0.049,-0.024,0.024,0.039,-0.039,0.0,-0.015,-0.078,-0.195,-0.034,-0.215,-0.073
1.006,-0.044,-0.024,0.02,0.034,-0.034,-0.005,-0.015,-0.078,-0.19,-0.034,-0.215,-0.073
1.008,-0.054,-0.029,0.024,0.044,-0.039,-0.005,-0.015,-0.078,-0.19,-0.049,-0.215,-0.068
1.01,-0.059,-0.039,0.02,0.049,-0.039,-0.01,-0.015,-0.073,-0.19,-0.049,-0.215,-0.063
1.012,-0.059,-0.044,0.015,0.054,-0.039,-0.015,-0.015,-0.068,-0.185,-0.049,-0.215,-0.063
1.014,-0.059,-0.044,0.015,0.054,-0.039,-0.015,-0.024,-0.059,-0.185,-0.049,-0.215,-0.063
1.016,-0.049,-0.029,0.02,0.039,-0.034,-0.005,-0.024,-0.063,-0.195,-0.059,-0.215,-0.078
1.018,-0.039,-0.029,0.01,0.034,-0.024,-0.01,-0.02,-0.063,-0.19,-0.059,-0.215,-0.078
1.02,-0.034,-0.029,0.005,0.034,-0.02,-0.015,-0.02,-0.068,-0.19,-0.059,-0.22,-0.078
1.022,-0.034,-0.024,0.01,0.029,-0.024,-0.01,-0.02,-0.078,-0.195,-0.054,-0.229,-0.083
1.024,-0.024,-0.015,0.01,0.02,-0.02,-0.005,-0.015,-0.083,-0.19,-0.059,-0.234,-0.083
1.026,-0.024,-0.015,0.01,0.02,-0.02,-0.005,-0.01,-0.083,-0.19,-0.054,-0.229,-0.078
1.028,-0.02,-0.02,0.0,0.02,-0.01,-0.01,-0.01,-0.078,-0.181,-0.054,-0.22,-0.068
1.03,-0.015,0.0,0.015,0.01,-0.015,0.005,-0.01,-0.073,-0.181,-0.054,-0.21,-0.054
1.032,-0.024,-0.01,0.015,0.02,-0.02,0.0,-0.02,-0.073,-0.19,-0.063,-0.215,-0.068
1.034,-0.034,-0.015,0.02,0.024,-0.029,0.0,-0.02,-0.083,-0.205,-0.068,-0.215,-0.073
1.036,-0.049,-0.024,0.024,0.039,-0.039,0.0,-0.029,-0.083,-0.21,-0.083,-0.22,-0.078
1.038,-0.059,-0.029,0.029,0.044,-0.044,0.0,-0.029,-0.083,-0.21,-0.083,-0.224,-0.078
1.04,-0.059,-0.029,0.029,0.044,-0.044,0.0,-0.034,-0.083,-0.21,-0.078,-0.234,-0.073
1.042,-0.059,-0.029,0.029,0.044,-0.044,0.0,-0.029,-0.083,-0.21,-0.073,-0.234,-0.073
1.044,-0.054,-0.039,0.015,0.049,-0.034,-0.015,-0.029,-0.078,-0.205,-0.078,-0.234,-0.078
1.046,-0.054,-0.024,0.029,0.039,-0.044,0.0,-0.029,-0.078,-0.205,-0.083,-0.234,-0.083
1.048,-0.044,-0.015,0.029,0.029,-0.039,0.005,-0.01,-0.068,-0.195,-0.083,-0.22,-0.063
1.05,-0.029,-0.01,0.02,0.02,-0.024,0.005,-0.01,-0.068,-0.195,-0.078,-0.215,-0.059
1.052,-0.02,-0.005,0.015,0.015,-0.02,0.005,0.0,-0.059,-0.185,-0.068,-0.215,-0.059
1.054,-0.02,0.0,0.02,0.01,-0.02,0.01,0.0,-0.059,-0.185,-0.068,-0.215,-0.059
1.056,-0.02,0.005,0.024,0.01,-0.024,0.015,0.0,-0.059,-0.185,-0.068,-0.215,-0.059
1.058,-0.02,0.01,0.029,0.005,-0.024,0.02,0.0,-0.059,-0.185,-0.068,-0.215,-0.059
1.06,-0.029,0.01,0.039,0.01,-0.034,0.024,0.01,-0.059,-0.185,-0.059,-0.205,-0.049
1.062,-0.029,0.01,0.039,0.01,-0.034,0.024,0.01,-0.059,-0.185,-0.059,-0.205,-0.049
1.064,-0.029,0.01,0.039,0.01,-0.034,0.024,0.01,-0.059,-0.185,-0.059,-0.205,-0.049
1.066,-0.029,0.01,0.039,0.01,-0.034,0.024,0.01,-0.059,-0.185,-0.059,-0.205,-0.049
1.068,-0.02,0.01,0.029,0.005,-0.024,0.02,0.01,-0.059,-0.176,-0.049,-0.195,-0.039
1.07,-0.02,0.01,0.029,0.005,-0.024,0.02,0.01,-0.059,-0.176,-0.049,-0.195,-0.039
1.072,-0.02,0.01,0.029,0.005,-0.024,0.02,0.01,-0.059,-0.176,-0.049,-0.195,-0.039
1.074,-0.02,0.01,0.029,0.005,-0.024,0.02,0.01,-0.059,-0.176,-0.049,-0.195,-0.039
1.076,-0.029,0.01,0.039,0.01,-0.034,0.024,0.02,-0.049,-0.176,-0.044,-0.195,-0.049
1.078,-0.029,0.01,0.039,0.01,-0.034,0.024,0.02,-0.049,-0.176,-0.039,-0.195,-0.049
1.08,-0.029,0.01,0.039,0.01,-0.034,0.024,0.02,-0.049,-0.176,-0.034,-0.195,-0.049
1.082,-0.029,0.01,0.039,0.01,-0.034,0.024,0.02,-0.049,-0.176,-0.029,-0.195,-0.049
1.084,-0.01,0.015,0.024,0.0,-0.02,0.02,0.015,-0.039,-0.166,-0.029,-0.185,-0.034
1.086,0.0,0.02,0.02,-0.01,-0.01,0.02,0.01,-0.039,-0.166,-0.029,-0.185,-0.029
1.088,0.01,0.024,0.015,-0.015,-0.005,0.02,0.005,-0.039,-0.166,-0.029,-0.185,-0.024
1.09,0.02,0.029,0.01,-0.024,0.005,0.02,0.0,-0.039,-0.166,-0.029,-0.185,-0.02
1.092,0.005,0.02,0.015,-0.01,-0.005,0.015,-0.01,-0.054,-0.171,-0.039,-0.195,-0.029
1.094,0.0,0.01,0.01,-0.005,-0.005,0.01,-0.02,-0.059,-0.176,-0.039,-0.195,-0.029
1.096,-0.005,0.0,0.005,0.005,-0.005,0.0,-0.029,-0.063,-0.181,-0.039,-0.195,-0.029
1.098,-0.01,-0.01,0.0,0.01,-0.005,-0.005,-0.039,-0.068,-0.185,-0.039,-0.195,-0.029
1.1,0.0,-0.005,-0.005,0.005,0.0,-0.005,-0.029,-0.078,-0.185,-0.029,-0.195,-0.029
1.102,0.01,0.01,0.0,-0.01,0.005,0.005,-0.029,-0.083,-0.19,-0.034,-0.19,-0.029
1.104,0.01,0.015,0.005,-0.01,0.0,0.01,-0.029,-0.083,-0.19,-0.039,-0.19,-0.024
1.106,0.005,0.02,0.015,-0.01,-0.005,0.015,-0.034,-0.083,-0.195,-0.039,-0.195,-0.024
1.108,-0.005,0.0,0.005,0.005,-0.005,0.0,-0.044,-0.083,-0.195,-0.049,-0.19,-0.029
1.11,-0.01,-0.015,-0.005,0.015,-0.005,-0.01,-0.039,-0.088,-0.2,-0.054,-0.19,-0.029
1.112,-0.01,-0.029,-0.02,0.02,0.005,-0.024,-0.039,-0.093,-0.205,-0.063,-0.19,-0.029
1.114,-0.005,-0.044,-0.039,0.024,0.015,-0.044,-0.049,-0.098,-0.215,-0.078,-0.2,-0.029
1.116,0.005,-0.034,-0.039,0.015,0.02,-0.039,-0.049,-0.107,-0.215,-0.093,-0.2,-0.029
1.118,0.005,-0.024,-0.029,0.01,0.015,-0.029,-0.044,-0.102,-0.21,-0.093,-0.2,-0.029
1.12,0.01,-0.01,-0.02,0.0,0.015,-0.015,-0.039,-0.102,-0.21,-0.088,-0.195,-0.024
1.122,0.015,0.0,-0.015,-0.005,0.015,-0.01,-0.034,-0.098,-0.21,-0.088,-0.195,-0.024
1.124,0.015,-0.015,-0.029,0.0,0.02,-0.024,-0.034,-0.083,-0.215,-0.102,-0.205,-0.029
1.126,0.01,-0.034,-0.044,0.015,0.024,-0.039,-0.034,-0.083,-0.215,-0.102,-0.205,-0.034
1.128,0.01,-0.044,-0.054,0.02,0.029,-0.049,-0.034,-0.083,-0.215,-0.102,-0.21,-0.034
1.13,0.01,-0.049,-0.059,0.02,0.034,-0.054,-0.039,-0.088,-0.224,-0.112,-0.215,-0.034
1.132,0.015,-0.029,-0.044,0.01,0.029,-0.039,-0.039,-0.083,-0.22,-0.127,-0.21,-0.039
1.134,0.01,-0.029,-0.039,0.01,0.024,-0.034,-0.034,-0.088,-0.22,-0.132,-0.205,-0.049
1.136,0.0,-0.029,-0.029,0.015,0.015,-0.029,-0.029,-0.088,-0.224,-0.132,-0.205,-0.049
1.138,0.0,-0.029,-0.029,0.015,0.015,-0.029,-0.024,-0.093,-0.224,-0.132,-0.205,-0.049
1.14,0.0,-0.015,-0.015,0.01,0.005,-0.015,-0.029,-0.093,-0.224,-0.142,-0.215,-0.039
1.142,-0.01,-0.015,-0.005,0.015,-0.005,-0.01,-0.024,-0.093,-0.224,-0.146,-0.215,-0.039
1.144,-0.015,-0.024,-0.01,0.02,-0.005,-0.02,-0.024,-0.093,-0.234,-0.166,-0.22,-0.049
1.146,-0.02,-0.024,-0.005,0.024,-0.01,-0.015,-0.024,-0.093,-0.234,-0.171,-0.229,-0.049
1.148,-0.015,-0.034,-0.02,0.024,0.0,-0.029,-0.024,-0.093,-0.239,-0.185,-0.229,-0.054
1.15,-0.015,-0.034,-0.02,0.024,0.0,-0.029,-0.024,-0.102,-0.244,-0.19,-0.234,-0.054
1.152,-0.015,-0.044,-0.029,0.029,0.005,-0.039,-0.024,-0.102,-0.244,-0.195,-0.234,-0.054
1.154,-0.015,-0.059,-0.044,0.039,0.015,-0.054,-0.02,-0.102,-0.244,-0.195,-0.234,-0.059
1.156,-0.034,-0.068,-0.034,0.054,0.0,-0.054,-0.029,-0.107,-0.259,-0.215,-0.244,-0.063
1.158,-0.049,-0.073,-0.024,0.063,-0.015,-0.049,-0.034,-0.117,-0.264,-0.224,-0.254,-0.068
1.16,-0.063,-0.083,-0.02,0.073,-0.024,-0.054,-0.034,-0.122,-0.268,-0.234,-0.254,-0.068
1.162,-0.083,-0.098,-0.015,0.093,-0.034,-0.059,-0.034,-0.127,-0.268,-0.239,-0.254,-0.068
1.164,-0.068,-0.093,-0.024,0.083,-0.024,-0.059,-0.024,-0.127,-0.268,-0.249,-0.254,-0.078
1.166,-0.059,-0.078,-0.02,0.068,-0.02,-0.049,-0.024,-0.127,-0.268,-0.249,-0.254,-0.083
1.168,-0.054,-0.063,-0.01,0.059,-0.024,-0.039,-0.024,-0.127,-0.268,-0.249,-0.254,-0.083
1.17,-0.049,-0.068,-0.02,0.059,-0.015,-0.044,-0.024,-0.127,-0.268,-0.249,-0.254,-0.078
1.172,-0.044,-0.068,-0.024,0.059,-0.01,-0.049,-0.024,-0.112,-0.259,-0.254,-0.244,-0.068
1.174,-0.049,-0.063,-0.015,0.059,-0.02,-0.039,-0.02,-0.107,-0.254,-0.254,-0.244,-0.068
1.176,-0.044,-0.059,-0.015,0.054,-0.015,-0.039,-0.02,-0.107,-0.254,-0.259,-0.244,-0.068
1.178,-0.034,-0.054,-0.02,0.044,-0.01,-0.039,-0.02,-0.112,-0.254,-0.259,-0.244,-0.068
1.18,-0.044,-0.059,-0.015,0.054,-0.015,-0.039,-0.029,-0.112,-0.268,-0.268,-0.254,-0.068
1.182,-0.049,-0.063,-0.015,0.059,-0.02,-0.039,-0.029,-0.117,-0.268,-0.273,-0.259,-0.068
1.184,-0.049,-0.073,-0.024,0.063,-0.015,-0.049,-0.029,-0.117,-0.268,-0.273,-0.259,-0.068
1.186,-0.049,-0.078,-0.029,0.063,-0.01,-0.054,-0.029,-0.112,-0.268,-0.273,-0.259,-0.063
1.188,-0.039,-0.068,-0.029,0.054,-0.005,-0.049,-0.015,-0.102,-0.259,-0.264,-0.254,-0.054
1.19,-0.034,-0.063,-0.029,0.049,-0.005,-0.049,-0.01,-0.102,-0.254,-0.264,-0.244,-0.054
1.192,-0.034,-0.063,-0.029,0.049,-0.005,-0.049,-0.005,-0.102,-0.249,-0.264,-0.239,-0.054
1.194,-0.034,-0.059,-0.024,0.049,-0.005,-0.044,0.0,-0.102,-0.244,-0.264,-0.234,-0.054
1.196,-0.034,-0.049,-0.015,0.044,-0.01,-0.034,-0.005,-0.102,-0.249,-0.264,-0.239,-0.063
1.198,-0.029,-0.039,-0.01,0.034,-0.01,-0.024,-0.005,-0.102,-0.249,-0.264,-0.244,-0.063
1.2,-0.029,-0.039,-0.01,0.034,-0.01,-0.024,-0.005,-0.102,-0.254,-0.273,-0.249,-0.063
1.202,-0.034,-0.049,-0.015,0.044,-0.01,-0.034,-0.01,-0.102,-0.259,-0.273,-0.254,-0.063
1.204,-0.024,-0.049,-0.024,0.039,0.0,-0.039,-0.02,-0.112,-0.259,-0.283,-0.254,-0.063
1.206,-0.024,-0.044,-0.02,0.034,-0.005,-0.034,-0.02,-0.112,-0.259,-0.283,-0.254,-0.063
1.208,-0.02,-0.034,-0.015,0.029,-0.005,-0.024,-0.015,-0.112,-0.259,-0.283,-0.254,-0.063
1.21,-0.02,-0.024,-0.005,0.024,-0.01,-0.015,-0.015,-0.112,-0.259,-0.283,-0.254,-0.063
1.212,-0.034,-0.034,0.0,0.034,-0.02,-0.02,-0.024,-0.122,-0.264,-0.283,-0.244,-0.054
1.214,-0.044,-0.059,-0.015,0.054,-0.015,-0.039,-0.024,-0.122,-0.264,-0.278,-0.244,-0.054
1.216,-0.059,-0.068,-0.01,0.063,-0.024,-0.039,-0.024,-0.127,-0.264,-0.278,-0.244,-0.054
1.218,-0.063,-0.073,-0.01,0.068,-0.029,-0.044,-0.024,-0.127,-0.264,-0.278,-0.244,-0.054
1.22,-0.049,-0.083,-0.034,0.068,-0.01,-0.059,-0.015,-0.117,-0.254,-0.278,-0.234,-0.054
1.222,-0.054,-0.093,-0.039,0.073,-0.01,-0.068,-0.01,-0.112,-0.254,-0.283,-0.244,-0.059
1.224,-0.054,-0.093,-0.039,0.073,-0.01,-0.068,-0.005,-0.112,-0.259,-0.278,-0.244,-0.059
1.226,-0.049,-0.083,-0.034,0.068,-0.01,-0.059,-0.01,-0.107,-0.259,-0.268,-0.239,-0.059
1.228,-0.044,-0.088,-0.044,0.068,0.0,-0.068,-0.005,-0.102,-0.249,-0.259,-0.239,-0.059
1.23,-0.049,-0.083,-0.034,0.068,-0.01,-0.059,0.0,-0.102,-0.244,-0.259,-0.239,-0.059
1.232,-0.063,-0.083,-0.02,0.073,-0.024,-0.054,0.005,-0.102,-0.244,-0.259,-0.239,-0.063
1.234,-0.068,-0.093,-0.024,0.083,-0.024,-0.059,0.015,-0.102,-0.249,-0.259,-0.239,-0.068
1.236,-0.059,-0.073,-0.015,0.068,-0.024,-0.044,0.005,-0.102,-0.259,-0.244,-0.249,-0.078
1.238,-0.054,-0.059,-0.005,0.059,-0.024,-0.034,0.005,-0.102,-0.254,-0.244,-0.244,-0.073
1.24,-0.049,-0.049,0.0,0.049,-0.024,-0.024,0.005,-0.102,-0.249,-0.244,-0.234,-0.063
1.242,-0.039,-0.039,0.0,0.039,-0.02,-0.02,0.01,-0.098,-0.249,-0.249,-0.234,-0.059
1.244,-0.049,-0.044,0.005,0.049,-0.029,-0.02,0.01,-0.098,-0.249,-0.239,-0.249,-0.068
1.246,-0.054,-0.054,0.0,0.054,-0.029,-0.029,0.005,-0.098,-0.249,-0.239,-0.249,-0.068
1.248,-0.054,-0.059,-0.005,0.059,-0.024,-0.034,0.0,-0.098,-0.249,-0.244,-0.249,-0.068
1.25,-0.054,-0.063,-0.01,0.059,-0.024,-0.039,-0.005,-0.098,-0.249,-0.249,-0.249,-0.068
1.252,-0.063,-0.073,-0.01,0.068,-0.029,-0.044,-0.015,-0.107,-0.259,-0.239,-0.259,-0.068
1.254,-0.073,-0.083,-0.01,0.078,-0.034,-0.049,0.005,-0.098,-0.244,-0.224,-0.244,-0.059
1.256,-0.078,-0.044,0.034,0.063,-0.059,-0.005,0.02,-0.073,-0.239,-0.22,-0.234,-0.044
1.258,-0.059,0.015,0.073,0.024,-0.068,0.044,0.054,-0.015,-0.19,-0.185,-0.205,-0.029
1.26,-0.039,0.054,0.093,-0.005,-0.068,0.073,0.132,0.098,-0.093,-0.107,-0.156,0.005
1.262,-0.039,0.054,0.093,-0.005,-0.068,0.073,0.21,0.244,0.039,-0.01,-0.098,0.024
1.264,-0.034,0.034,0.068,0.0,-0.054,0.049,0.254,0.346,0.156,0.093,-0.039,0.059
1.266,-0.005,0.034,0.039,-0.015,-0.024,0.034,0.264,0.381,0.268,0.21,0.054,0.112
1.268,0.044,0.054,0.01,-0.049,0.015,0.029,0.229,0.327,0.322,0.337,0.151,0.19
1.27,0.122,0.059,-0.063,-0.088,0.093,-0.005,0.151,0.21,0.332,0.444,0.264,0.264
1.272,0.215,0.102,-0.112,-0.156,0.161,-0.005,0.049,0.063,0.342,0.571,0.395,0.366
1.274,0.278,0.146,-0.132,-0.21,0.205,0.005,-0.093,-0.112,0.342,0.722,0.547,0.483
1.276,0.298,0.142,-0.156,-0.22,0.224,-0.01,-0.264,-0.327,0.342,0.874,0.698,0.59
1.278,0.327,0.102,-0.224,-0.215,0.273,-0.063,-0.468,-0.561,0.303,0.986,0.83,0.688
1.28,0.376,0.102,-0.273,-0.239,0.322,-0.088,-0.654,-0.795,0.22,1.02,0.903,0.771
1.282,0.444,0.151,-0.293,-0.298,0.366,-0.073,-0.81,-1.02,0.102,1.005,0.947,0.815
1.284,0.483,0.19,-0.293,-0.337,0.386,-0.054,-0.947,-1.24,-0.044,0.947,0.932,0.834
1.286,0.478,0.166,-0.312,-0.322,0.395,-0.073,-1.049,-1.401,-0.244,0.771,0.825,0.795
1.288,0.468,0.054,-0.415,-0.259,0.439,-0.181,-1.093,-1.513,-0.483,0.449,0.581,0.649
1.29,0.439,-0.098,-0.537,-0.171,0.488,-0.317,-1.078,-1.557,-0.688,0.093,0.259,0.434
1.292,0.415,-0.166,-0.581,-0.122,0.498,-0.376,-1.064,-1.596,-0.854,-0.161,0.02,0.283
1.294,0.4,-0.176,-0.576,-0.112,0.488,-0.376,-1.074,-1.63,-1.015,-0.346,-0.122,0.2
1.296,0.351,-0.19,-0.542,-0.078,0.444,-0.366,-1.059,-1.654,-1.171,-0.561,-0.278,0.112
1.298,0.273,-0.224,-0.498,-0.024,0.386,-0.361,-1.049,-1.688,-1.342,-0.8,-0.468,-0.005
1.3,0.156,-0.224,-0.381,0.034,0.268,-0.303,-1.054,-1.767,-1.566,-1.059,-0.669,-0.127
1.302,0.02,-0.215,-0.234,0.098,0.127,-0.224,-1.044,-1.835,-1.786,-1.303,-0.844,-0.249
1.304,-0.098,-0.229,-0.132,0.166,0.015,-0.181,-0.991,-1.825,-1.908,-1.454,-0.976,-0.337
1.306,-0.137,-0.249,-0.112,0.195,-0.015,-0.181,-0.942,-1.747,-1.898,-1.469,-1.01,-0.39
1.308,-0.156,-0.229,-0.073,0.195,-0.044,-0.151,-0.927,-1.664,-1.825,-1.425,-1.01,-0.4
1.31,-0.176,-0.2,-0.024,0.19,-0.078,-0.112,-0.903,-1.566,-1.728,-1.342,-0.966,-0.4
1.312,-0.171,-0.181,-0.01,0.176,-0.083,-0.098,-0.874,-1.454,-1.601,-1.244,-0.913,-0.366
1.314,-0.161,-0.146,0.015,0.156,-0.088,-0.068,-0.834,-1.347,-1.474,-1.132,-0.854,-0.342
1.316,-0.161,-0.122,0.039,0.142,-0.102,-0.044,-0.781,-1.254,-1.371,-1.054,-0.805,-0.317
1.318,-0.161,-0.098,0.063,0.132,-0.112,-0.02,-0.678,-1.113,-1.22,-0.942,-0.737,-0.293
1.32,-0.146,-0.059,0.088,0.102,-0.117,0.015,-0.556,-0.937,-1.02,-0.776,-0.634,-0.229
1.322,-0.132,0.015,0.146,0.059,-0.142,0.078,-0.444,-0.766,-0.839,-0.63,-0.542,-0.171
1.324,-0.122,0.073,0.195,0.024,-0.161,0.132,-0.356,-0.644,-0.698,-0.508,-0.468,-0.132
1.326,-0.112,0.102,0.215,0.005,-0.166,0.156,-0.283,-0.537,-0.6,-0.405,-0.405,-0.093
1.328,-0.102,0.112,0.215,-0.005,-0.161,0.161,-0.224,-0.454,-0.527,-0.337,-0.366,-0.068
1.33,-0.078,0.112,0.19,-0.015,-0.137,0.151,-0.185,-0.381,-0.483,-0.303,-0.337,-0.063
1.332,-0.054,0.093,0.146,-0.02,-0.102,0.117,-0.151,-0.327,-0.439,-0.273,-0.327,-0.059
1.334,-0.049,0.073,0.122,-0.01,-0.088,0.098,-0.122,-0.264,-0.405,-0.239,-0.317,-0.059
1.336,-0.054,0.049,0.102,0.005,-0.078,0.073,-0.098,-0.22,-0.366,-0.22,-0.307,-0.054
1.338,-0.054,0.015,0.068,0.02,-0.063,0.039,-0.068,-0.176,-0.322,-0.2,-0.288,-0.039
1.34,-0.044,0.015,0.059,0.015,-0.054,0.034,-0.039,-0.132,-0.273,-0.171,-0.278,-0.034
1.342,-0.044,0.02,0.063,0.015,-0.054,0.039,-0.015,-0.102,-0.234,-0.146,-0.259,-0.039
1.344,-0.054,0.005,0.059,0.024,-0.059,0.029,-0.005,-0.083,-0.205,-0.117,-0.244,-0.039
1.346,-0.063,-0.024,0.039,0.044,-0.054,0.005,0.01,-0.073,-0.181,-0.102,-0.234,-0.044
1.348,-0.049,0.0,0.049,0.024,-0.049,0.024,0.034,-0.054,-0.176,-0.078,-0.224,-0.034
1.35,-0.039,0.005,0.044,0.02,-0.044,0.024,0.044,-0.044,-0.176,-0.073,-0.22,-0.024
1.352,-0.024,0.015,0.039,0.005,-0.034,0.024,0.054,-0.02,-0.176,-0.068,-0.22,-0.02
1.354,-0.015,0.02,0.034,0.0,-0.024,0.024,0.063,-0.015,-0.171,-0.068,-0.22,-0.02
1.356,-0.005,0.02,0.024,-0.005,-0.015,0.02,0.063,0.0,-0.166,-0.068,-0.22,-0.02
1.358,-0.024,0.0,0.024,0.015,-0.024,0.01,0.049,0.005,-0.171,-0.083,-0.229,-0.034
1.36,-0.034,-0.01,0.024,0.024,-0.029,0.005,0.049,0.0,-0.151,-0.083,-0.229,-0.034
1.362,-0.039,-0.02,0.02,0.029,-0.029,0.0,0.049,0.0,-0.137,-0.078,-0.22,-0.034
1.364,-0.049,-0.029,0.02,0.039,-0.034,-0.005,0.049,0.0,-0.122,-0.063,-0.215,-0.034
1.366,-0.054,-0.029,0.024,0.044,-0.039,-0.005,0.054,-0.005,-0.127,-0.059,-0.21,-0.029
1.368,-0.059,-0.029,0.029,0.044,-0.044,0.0,0.054,-0.005,-0.127,-0.059,-0.21,-0.034
1.37,-0.073,-0.034,0.039,0.054,-0.059,0.0,0.063,0.01,-0.122,-0.063,-0.205,-0.034
1.372,-0.068,-0.034,0.034,0.054,-0.054,0.0,0.063,0.015,-0.117,-0.068,-0.205,-0.039
1.374,-0.044,-0.02,0.024,0.034,-0.034,0.0,0.073,0.029,-0.107,-0.068,-0.185,-0.029
1.376,-0.039,-0.015,0.024,0.029,-0.034,0.005,0.073,0.034,-0.107,-0.068,-0.195,-0.034
1.378,-0.039,-0.024,0.015,0.034,-0.029,-0.005,0.073,0.039,-0.107,-0.068,-0.195,-0.039
1.38,-0.034,-0.01,0.024,0.024,-0.029,0.005,0.078,0.044,-0.098,-0.068,-0.195,-0.039
1.382,-0.044,-0.02,0.024,0.034,-0.034,0.0,0.073,0.039,-0.073,-0.078,-0.19,-0.034
1.384,-0.039,-0.02,0.02,0.029,-0.029,0.0,0.073,0.044,-0.073,-0.073,-0.19,-0.029
1.386,-0.039,-0.024,0.015,0.034,-0.029,-0.005,0.073,0.044,-0.068,-0.063,-0.185,-0.024
1.388,-0.039,-0.024,0.015,0.034,-0.029,-0.005,0.078,0.054,-0.068,-0.063,-0.181,-0.024
1.39,-0.039,-0.024,0.015,0.034,-0.029,-0.005,0.098,0.054,-0.068,-0.068,-0.171,-0.015
1.392,-0.039,-0.024,0.015,0.034,-0.029,-0.005,0.098,0.059,-0.063,-0.063,-0.171,-0.015
1.394,-0.034,-0.024,0.01,0.029,-0.024,-0.01,0.098,0.068,-0.063,-0.063,-0.166,-0.015
1.396,-0.034,-0.024,0.01,0.029,-0.024,-0.01,0.098,0.073,-0.059,-0.068,-0.166,-0.01
1.398,-0.029,-0.02,0.01,0.024,-0.02,-0.005,0.107,0.088,-0.059,-0.078,-0.151,-0.005
1.4,-0.029,-0.02,0.01,0.024,-0.02,-0.005,0.112,0.088,-0.049,-0.083,-0.151,-0.005
1.402,-0.029,-0.02,0.01,0.024,-0.02,-0.005,0.112,0.088,-0.039,-0.078,-0.151,-0.005
1.404,-0.034,-0.02,0.015,0.029,-0.024,-0.005,0.112,0.093,-0.034,-0.083,-0.146,-0.005
1.406,-0.02,-0.02,0.0,0.02,-0.01,-0.01,0.112,0.107,-0.024,-0.078,-0.146,0.0
1.408,-0.01,-0.01,0.0,0.01,-0.005,-0.005,0.112,0.107,-0.02,-0.078,-0.151,0.0
1.41,-0.005,-0.01,-0.005,0.01,0.0,-0.01,0.112,0.112,-0.02,-0.078,-0.151,0.0
1.412,-0.005,-0.015,-0.01,0.01,0.0,-0.015,0.117,0.112,-0.02,-0.078,-0.151,-0.005
1.414,-0.015,-0.024,-0.01,0.02,-0.005,-0.02,0.112,0.112,-0.024,-0.088,-0.161,-0.005
1.416,-0.02,-0.024,-0.005,0.024,-0.01,-0.015,0.107,0.112,-0.024,-0.093,-0.166,-0.005
1.418,-0.029,-0.024,0.005,0.029,-0.02,-0.01,0.102,0.112,-0.024,-0.102,-0.166,-0.015
1.42,-0.044,-0.029,0.015,0.039,-0.029,-0.01,0.102,0.112,-0.024,-0.112,-0.166,-0.005
1.422,-0.034,-0.029,0.005,0.034,-0.02,-0.015,0.112,0.127,-0.005,-0.102,-0.151,0.0
1.424,-0.034,-0.039,-0.005,0.039,-0.015,-0.024,0.122,0.132,0.005,-0.098,-0.151,0.005
1.426,-0.024,-0.024,0.0,0.024,-0.015,-0.015,0.127,0.142,0.015,-0.093,-0.146,0.005
1.428,-0.024,-0.024,0.0,0.024,-0.015,-0.015,0.132,0.142,0.02,-0.093,-0.146,0.005
1.43,-0.024,-0.015,0.01,0.02,-0.02,-0.005,0.122,0.142,0.015,-0.102,-0.156,0.005
1.432,-0.024,-0.015,0.01,0.02,-0.02,-0.005,0.122,0.146,0.015,-0.107,-0.151,0.005
1.434,-0.024,-0.005,0.02,0.015,-0.024,0.005,0.117,0.151,0.024,-0.107,-0.146,0.01
1.436,-0.02,0.0,0.02,0.01,-0.02,0.01,0.112,0.161,0.029,-0.107,-0.142,0.015
1.438,-0.01,0.0,0.01,0.005,-0.01,0.005,0.117,0.185,0.039,-0.112,-0.142,0.015
1.44,-0.015,-0.005,0.01,0.01,-0.015,0.0,0.127,0.19,0.044,-0.117,-0.137,0.015
1.442,-0.024,-0.015,0.01,0.02,-0.02,-0.005,0.137,0.195,0.054,-0.122,-0.137,0.024
1.444,-0.029,-0.024,0.005,0.029,-0.02,-0.01,0.146,0.195,0.059,-0.127,-0.137,0.024
1.446,-0.034,-0.015,0.02,0.024,-0.029,0.0,0.142,0.2,0.054,-0.137,-0.146,0.015
1.448,-0.029,-0.015,0.015,0.024,-0.024,0.0,0.151,0.21,0.059,-0.137,-0.142,0.015
1.45,-0.01,-0.015,-0.005,0.015,-0.005,-0.01,0.156,0.224,0.068,-0.137,-0.142,0.024
1.452,-0.005,-0.015,-0.01,0.01,0.0,-0.015,0.161,0.229,0.083,-0.132,-0.127,0.024
1.454,0.005,-0.005,-0.01,0.0,0.005,-0.01,0.156,0.239,0.093,-0.132,-0.117,0.029
1.456,0.01,0.01,0.0,-0.01,0.005,0.005,0.156,0.244,0.098,-0.137,-0.127,0.029
1.458,0.02,0.02,0.0,-0.02,0.01,0.01,0.156,0.249,0.102,-0.142,-0.127,0.034
1.46,0.01,0.02,0.01,-0.015,0.0,0.015,0.156,0.254,0.102,-0.132,-0.127,0.034
1.462,0.0,0.02,0.02,-0.01,-0.01,0.02,0.166,0.264,0.117,-0.132,-0.117,0.044
1.464,0.01,0.024,0.015,-0.015,-0.005,0.02,0.166,0.278,0.127,-0.122,-0.112,0.044
1.466,0.01,0.024,0.015,-0.015,-0.005,0.02,0.171,0.293,0.142,-0.122,-0.107,0.054
1.468,0.0,0.01,0.01,-0.005,-0.005,0.01,0.176,0.293,0.142,-0.127,-0.102,0.054
1.47,-0.01,-0.01,0.0,0.01,-0.005,-0.005,0.176,0.303,0.132,-0.132,-0.102,0.044
1.472,-0.005,-0.01,-0.005,0.01,0.0,-0.01,0.185,0.307,0.156,-0.122,-0.098,0.049
1.474,0.005,0.005,0.0,-0.005,0.0,0.0,0.2,0.322,0.166,-0.117,-0.093,0.054
1.476,0.005,0.024,0.02,-0.015,-0.01,0.02,0.21,0.337,0.181,-0.112,-0.078,0.054
1.478,0.024,0.039,0.015,-0.029,0.005,0.024,0.224,0.361,0.195,-0.102,-0.068,0.063
1.48,0.034,0.039,0.005,-0.034,0.015,0.02,0.234,0.371,0.21,-0.088,-0.063,0.068
1.482,0.044,0.044,0.0,-0.044,0.02,0.02,0.234,0.381,0.22,-0.083,-0.063,0.073
1.484,0.054,0.054,0.0,-0.054,0.024,0.024,0.234,0.395,0.229,-0.073,-0.063,0.083
1.486,0.044,0.054,0.01,-0.049,0.015,0.029,0.229,0.395,0.234,-0.073,-0.068,0.083
1.488,0.034,0.054,0.02,-0.044,0.005,0.034,0.229,0.405,0.244,-0.073,-0.068,0.078
1.49,0.024,0.049,0.024,-0.034,0.0,0.034,0.234,0.41,0.254,-0.078,-0.063,0.078
1.492,0.02,0.049,0.029,-0.034,-0.005,0.039,0.234,0.425,0.264,-0.068,-0.059,0.088
1.494,0.024,0.049,0.024,-0.034,0.0,0.034,0.244,0.439,0.264,-0.063,-0.059,0.083
1.496,0.024,0.049,0.024,-0.034,0.0,0.034,0.244,0.444,0.273,-0.063,-0.054,0.088
1.498,0.024,0.054,0.029,-0.039,-0.005,0.039,0.249,0.454,0.288,-0.068,-0.049,0.088
1.5,0.029,0.054,0.024,-0.039,0.0,0.039,0.254,0.468,0.303,-0.059,-0.044,0.093
1.502,0.024,0.068,0.044,-0.044,-0.01,0.054,0.264,0.473,0.312,-0.059,-0.034,0.088
1.504,0.029,0.068,0.039,-0.049,-0.005,0.054,0.273,0.493,0.322,-0.044,-0.029,0.093
1.506,0.029,0.073,0.044,-0.049,-0.01,0.059,0.273,0.498,0.332,-0.034,-0.024,0.098
1.508,0.039,0.083,0.044,-0.059,-0.005,0.063,0.273,0.503,0.346,-0.034,-0.02,0.102
1.51,0.054,0.093,0.039,-0.073,0.005,0.063,0.278,0.512,0.361,-0.024,0.0,0.117
1.512,0.059,0.098,0.039,-0.078,0.01,0.068,0.278,0.527,0.376,-0.015,0.01,0.117
1.514,0.068,0.107,0.039,-0.088,0.015,0.073,0.278,0.542,0.386,-0.015,0.015,0.122
1.516,0.073,0.117,0.044,-0.093,0.015,0.078,0.278,0.551,0.39,0.0,0.02,0.132
1.518,0.063,0.107,0.044,-0.083,0.01,0.073,0.283,0.571,0.41,-0.01,0.024,0.132
1.52,0.073,0.107,0.034,-0.088,0.02,0.068,0.293,0.581,0.425,0.005,0.029,0.142
1.522,0.078,0.112,0.034,-0.093,0.02,0.073,0.298,0.586,0.434,0.015,0.034,0.151
1.524,0.078,0.122,0.044,-0.098,0.015,0.083,0.303,0.586,0.439,0.02,0.039,0.151
1.526,0.098,0.132,0.034,-0.112,0.029,0.083,0.298,0.59,0.449,0.034,0.054,0.161
1.528,0.102,0.132,0.029,-0.117,0.034,0.078,0.298,0.605,0.459,0.044,0.063,0.166
1.53,0.107,0.142,0.034,-0.122,0.034,0.088,0.303,0.615,0.468,0.054,0.068,0.176
1.532,0.107,0.146,0.039,-0.127,0.034,0.093,0.312,0.615,0.478,0.059,0.073,0.185
1.534,0.098,0.171,0.073,-0.132,0.01,0.122,0.307,0.61,0.468,0.054,0.078,0.185
1.536,0.098,0.161,0.063,-0.127,0.015,0.112,0.303,0.61,0.478,0.054,0.073,0.19
1.538,0.098,0.151,0.054,-0.122,0.02,0.102,0.293,0.62,0.483,0.054,0.078,0.19
1.54,0.098,0.161,0.063,-0.127,0.015,0.112,0.283,0.62,0.488,0.054,0.088,0.185
1.542,0.122,0.176,0.054,-0.146,0.034,0.112,0.293,0.61,0.493,0.059,0.088,0.185
1.544,0.122,0.185,0.063,-0.151,0.029,0.122,0.293,0.61,0.498,0.063,0.093,0.185
1.546,0.122,0.195,0.073,-0.156,0.024,0.132,0.293,0.605,0.503,0.083,0.093,0.195
1.548,0.137,0.205,0.068,-0.171,0.034,0.137,0.283,0.6,0.503,0.093,0.098,0.205
1.55,0.132,0.205,0.073,-0.166,0.029,0.137,0.283,0.6,0.503,0.088,0.112,0.2
1.552,0.122,0.2,0.078,-0.161,0.02,0.137,0.288,0.59,0.503,0.083,0.112,0.205
1.554,0.107,0.19,0.083,-0.146,0.01,0.137,0.288,0.586,0.503,0.078,0.112,0.215
1.556,0.102,0.185,0.083,-0.142,0.01,0.132,0.278,0.576,0.493,0.068,0.112,0.224
1.558,0.102,0.19,0.088,-0.146,0.005,0.137,0.264,0.561,0.478,0.054,0.102,0.22
1.56,0.107,0.195,0.088,-0.151,0.01,0.142,0.249,0.547,0.473,0.044,0.102,0.22
1.562,0.107,0.21,0.102,-0.156,0.0,0.156,0.249,0.542,0.473,0.029,0.102,0.22
1.564,0.107,0.2,0.093,-0.151,0.005,0.146,0.249,0.532,0.459,0.024,0.107,0.22
1.566,0.107,0.2,0.093,-0.151,0.005,0.146,0.234,0.522,0.459,0.02,0.107,0.215
1.568,0.102,0.2,0.098,-0.151,0.0,0.146,0.234,0.503,0.459,0.015,0.102,0.215
1.57,0.098,0.195,0.098,-0.146,0.0,0.146,0.229,0.488,0.444,0.01,0.102,0.215
1.572,0.098,0.19,0.093,-0.142,0.0,0.142,0.22,0.478,0.434,0.005,0.098,0.22
1.574,0.107,0.2,0.093,-0.151,0.005,0.146,0.22,0.464,0.425,-0.005,0.102,0.224
1.576,0.107,0.2,0.093,-0.151,0.005,0.146,0.21,0.439,0.415,-0.01,0.098,0.224
1.578,0.098,0.185,0.088,-0.142,0.005,0.137,0.205,0.42,0.395,-0.024,0.098,0.224
1.58,0.098,0.176,0.078,-0.137,0.01,0.127,0.195,0.4,0.381,-0.024,0.093,0.22
1.582,0.083,0.166,0.083,-0.122,0.0,0.122,0.181,0.371,0.361,-0.044,0.078,0.215
1.584,0.083,0.171,0.088,-0.127,-0.005,0.127,0.176,0.351,0.342,-0.059,0.073,0.21
1.586,0.078,0.181,0.102,-0.127,-0.015,0.142,0.176,0.332,0.317,-0.078,0.068,0.205
1.588,0.073,0.171,0.098,-0.122,-0.015,0.132,0.161,0.317,0.298,-0.098,0.063,0.205
1.59,0.068,0.156,0.088,-0.112,-0.01,0.122,0.146,0.303,0.283,-0.107,0.049,0.181
1.592,0.059,0.146,0.088,-0.102,-0.015,0.117,0.137,0.273,0.264,-0.122,0.039,0.176
1.594,0.059,0.146,0.088,-0.102,-0.015,0.117,0.137,0.264,0.254,-0.132,0.029,0.171
1.596,0.068,0.146,0.078,-0.107,-0.005,0.112,0.137,0.249,0.239,-0.146,0.024,0.171
1.598,0.078,0.146,0.068,-0.112,0.005,0.107,0.127,0.224,0.215,-0.156,0.034,0.171
1.6,0.068,0.146,0.078,-0.107,-0.005,0.112,0.127,0.215,0.19,-0.181,0.024,0.176
1.602,0.068,0.146,0.078,-0.107,-0.005,0.112,0.117,0.195,0.176,-0.2,0.015,0.181
1.604,0.078,0.146,0.068,-0.112,0.005,0.107,0.112,0.176,0.161,-0.21,0.005,0.176
1.606,0.054,0.117,0.063,-0.083,-0.005,0.088,0.102,0.146,0.132,-0.244,-0.02,0.156
1.608,0.034,0.102,0.068,-0.068,-0.02,0.083,0.083,0.127,0.098,-0.264,-0.039,0.127
1.61,0.02,0.088,0.068,-0.054,-0.024,0.078,0.068,0.112,0.078,-0.278,-0.059,0.107
1.612,0.005,0.073,0.068,-0.039,-0.034,0.068,0.063,0.098,0.063,-0.288,-0.063,0.098
1.614,0.0,0.068,0.068,-0.034,-0.034,0.068,0.068,0.093,0.054,-0.288,-0.068,0.098
1.616,-0.005,0.063,0.068,-0.029,-0.039,0.063,0.063,0.083,0.049,-0.307,-0.073,0.088
1.618,0.0,0.063,0.063,-0.029,-0.034,0.063,0.063,0.088,0.049,-0.322,-0.078,0.093
1.62,0.0,0.059,0.059,-0.029,-0.029,0.059,0.063,0.073,0.039,-0.342,-0.078,0.098
1.622,-0.005,0.039,0.044,-0.015,-0.024,0.039,0.054,0.054,0.01,-0.366,-0.093,0.088
1.624,-0.005,0.034,0.039,-0.015,-0.024,0.034,0.054,0.039,0.0,-0.376,-0.112,0.078
1.626,0.0,0.034,0.034,-0.015,-0.02,0.034,0.054,0.034,-0.029,-0.386,-0.122,0.068
1.628,0.0,0.034,0.034,-0.015,-0.02,0.034,0.049,0.024,-0.044,-0.39,-0.127,0.059
1.63,-0.005,0.029,0.034,-0.01,-0.02,0.029,0.044,0.02,-0.039,-0.4,-0.122,0.059
1.632,-0.005,0.029,0.034,-0.01,-0.02,0.029,0.044,0.015,-0.044,-0.41,-0.137,0.054
1.634,-0.005,0.029,0.034,-0.01,-0.02,0.029,0.044,0.015,-0.044,-0.42,-0.142,0.054
1.636,-0.005,0.02,0.024,-0.005,-0.015,0.02,0.044,0.015,-0.049,-0.425,-0.151,0.044
1.638,-0.015,0.024,0.039,-0.005,-0.029,0.029,0.039,0.005,-0.059,-0.439,-0.151,0.029
1.64,-0.015,0.024,0.039,-0.005,-0.029,0.029,0.039,-0.005,-0.068,-0.454,-0.156,0.024
1.642,-0.015,0.029,0.044,-0.005,-0.029,0.034,0.039,-0.01,-0.083,-0.459,-0.161,0.024
1.644,-0.01,0.029,0.039,-0.01,-0.024,0.034,0.034,-0.02,-0.093,-0.464,-0.161,0.024
1.646,-0.02,0.01,0.029,0.005,-0.024,0.02,0.034,-0.02,-0.093,-0.464,-0.171,0.02
1.648,-0.024,0.01,0.034,0.01,-0.029,0.02,0.034,-0.029,-0.107,-0.483,-0.176,0.015
1.65,-0.034,0.005,0.039,0.015,-0.039,0.02,0.029,-0.034,-0.117,-0.493,-0.181,0.01
1.652,-0.034,-0.005,0.029,0.02,-0.034,0.01,0.024,-0.034,-0.117,-0.493,-0.185,0.01
1.654,-0.024,-0.01,0.015,0.02,-0.02,0.0,0.02,-0.034,-0.117,-0.508,-0.185,0.01
1.656,-0.024,-0.01,0.015,0.02,-0.02,0.0,0.015,-0.039,-0.117,-0.512,-0.185,0.01
1.658,-0.024,-0.01,0.015,0.02,-0.02,0.0,0.015,-0.039,-0.117,-0.517,-0.19,0.01
1.66,-0.024,-0.015,0.01,0.02,-0.02,-0.005,0.024,-0.044,-0.117,-0.522,-0.19,0.005
1.662,-0.034,-0.015,0.02,0.024,-0.029,0.0,0.039,-0.044,-0.117,-0.532,-0.181,0.005
1.664,-0.034,-0.015,0.02,0.024,-0.029,0.0,0.039,-0.044,-0.122,-0.532,-0.19,0.005
1.666,-0.034,-0.015,0.02,0.024,-0.029,0.0,0.034,-0.044,-0.122,-0.532,-0.19,0.0
1.668,-0.039,-0.015,0.024,0.029,-0.034,0.005,0.034,-0.044,-0.132,-0.537,-0.19,-0.005
1.67,-0.029,-0.024,0.005,0.029,-0.02,-0.01,0.024,-0.044,-0.127,-0.542,-0.19,0.0
1.672,-0.034,-0.024,0.01,0.029,-0.024,-0.01,0.024,-0.044,-0.127,-0.551,-0.19,0.0
1.674,-0.034,-0.024,0.01,0.029,-0.024,-0.01,0.029,-0.044,-0.127,-0.561,-0.19,0.0
1.676,-0.034,-0.024,0.01,0.029,-0.024,-0.01,0.034,-0.049,-0.127,-0.566,-0.19,0.0
1.678,-0.029,-0.015,0.015,0.024,-0.024,0.0,0.044,-0.049,-0.137,-0.571,-0.195,0.01
1.68,-0.024,-0.01,0.015,0.02,-0.02,0.0,0.039,-0.049,-0.137,-0.576,-0.19,0.005
1.682,-0.015,-0.005,0.01,0.01,-0.015,0.0,0.034,-0.049,-0.137,-0.581,-0.181,0.005
1.684,-0.01,0.0,0.01,0.005,-0.01,0.005,0.034,-0.049,-0.137,-0.586,-0.171,0.005
1.686,-0.024,-0.02,0.005,0.024,-0.015,-0.01,0.034,-0.049,-0.137,-0.6,-0.185,0.0
1.688,-0.034,-0.029,0.005,0.034,-0.02,-0.015,0.034,-0.059,-0.142,-0.61,-0.195,-0.005
1.69,-0.044,-0.034,0.01,0.039,-0.029,-0.015,0.034,-0.059,-0.151,-0.61,-0.2,-0.01
1.692,-0.054,-0.044,0.01,0.049,-0.034,-0.02,0.034,-0.054,-0.151,-0.61,-0.205,-0.015
1.694,-0.054,-0.039,0.015,0.049,-0.034,-0.015,0.029,-0.054,-0.146,-0.62,-0.2,-0.024
1.696,-0.054,-0.039,0.015,0.049,-0.034,-0.015,0.015,-0.054,-0.146,-0.625,-0.205,-0.024
1.698,-0.054,-0.039,0.015,0.049,-0.034,-0.015,0.01,-0.059,-0.146,-0.625,-0.205,-0.024
1.7,-0.049,-0.039,0.01,0.044,-0.029,-0.015,0.005,-0.059,-0.142,-0.625,-0.205,-0.024
1.702,-0.034,-0.029,0.005,0.034,-0.02,-0.015,0.015,-0.068,-0.146,-0.634,-0.205,-0.024
1.704,-0.034,-0.02,0.015,0.029,-0.024,-0.005,0.015,-0.068,-0.151,-0.644,-0.205,-0.02
1.706,-0.029,-0.02,0.01,0.024,-0.02,-0.005,0.015,-0.068,-0.156,-0.649,-0.205,-0.02
1.708,-0.029,-0.01,0.02,0.02,-0.024,0.005,0.02,-0.073,-0.161,-0.654,-0.205,-0.024
1.71,-0.029,-0.01,0.02,0.02,-0.024,0.005,0.02,-0.063,-0.151,-0.644,-0.205,-0.02
1.712,-0.034,-0.015,0.02,0.024,-0.029,0.0,0.024,-0.059,-0.151,-0.644,-0.205,-0.02
1.714,-0.034,-0.015,0.02,0.024,-0.029,0.0,0.024,-0.054,-0.151,-0.644,-0.205,-0.02
1.716,-0.034,-0.005,0.029,0.02,-0.034,0.01,0.024,-0.054,-0.151,-0.644,-0.205,-0.02
1.718,-0.029,-0.01,0.02,0.02,-0.024,0.005,0.029,-0.049,-0.151,-0.644,-0.205,-0.015
1.72,-0.029,-0.024,0.005,0.029,-0.02,-0.01,0.029,-0.044,-0.156,-0.644,-0.205,-0.015
1.722,-0.039,-0.044,-0.005,0.044,-0.02,-0.024,0.034,-0.044,-0.156,-0.649,-0.2,-0.015
1.724,-0.049,-0.059,-0.01,0.054,-0.02,-0.034,0.044,-0.044,-0.156,-0.654,-0.2,-0.015
1.726,-0.029,-0.029,0.0,0.029,-0.015,-0.015,0.044,-0.039,-0.146,-0.644,-0.195,-0.015
1.728,-0.024,-0.015,0.01,0.02,-0.02,-0.005,0.034,-0.039,-0.146,-0.649,-0.195,-0.015
1.73,-0.024,-0.015,0.01,0.02,-0.02,-0.005,0.024,-0.039,-0.146,-0.649,-0.185,-0.015
1.732,-0.024,-0.024,0.0,0.024,-0.015,-0.015,0.015,-0.039,-0.146,-0.644,-0.195,-0.015
1.734,-0.039,-0.034,0.005,0.039,-0.024,-0.015,0.0,-0.049,-0.156,-0.649,-0.205,-0.024
1.736,-0.054,-0.034,0.02,0.044,-0.039,-0.01,0.0,-0.063,-0.166,-0.659,-0.215,-0.029
1.738,-0.059,-0.034,0.024,0.049,-0.044,-0.005,0.0,-0.063,-0.166,-0.669,-0.22,-0.029
1.74,-0.054,-0.034,0.02,0.044,-0.039,-0.01,0.0,-0.063,-0.161,-0.673,-0.224,-0.024
1.742,-0.063,-0.029,0.034,0.049,-0.049,0.0,0.015,-0.054,-0.171,-0.678,-0.215,-0.024
1.744,-0.063,-0.034,0.029,0.049,-0.049,-0.005,0.015,-0.049,-0.171,-0.678,-0.215,-0.024
1.746,-0.054,-0.039,0.015,0.049,-0.034,-0.015,0.02,-0.044,-0.171,-0.683,-0.21,-0.024
1.748,-0.054,-0.044,0.01,0.049,-0.034,-0.02,0.024,-0.039,-0.171,-0.688,-0.21,-0.024
1.75,-0.049,-0.024,0.024,0.039,-0.039,0.0,0.015,-0.034,-0.156,-0.678,-0.21,-0.02
1.752,-0.044,-0.015,0.029,0.029,-0.039,0.005,0.005,-0.039,-0.156,-0.673,-0.205,-0.015
1.754,-0.039,-0.01,0.029,0.024,-0.034,0.01,0.005,-0.044,-0.156,-0.669,-0.205,-0.015
1.756,-0.034,-0.005,0.029,0.02,-0.034,0.01,0.005,-0.049,-0.156,-0.664,-0.2,-0.015
1.758,-0.034,-0.015,0.02,0.024,-0.029,0.0,0.024,-0.034,-0.142,-0.673,-0.195,-0.015
1.76,-0.029,-0.02,0.01,0.024,-0.02,-0.005,0.024,-0.034,-0.142,-0.673,-0.19,-0.01
1.762,-0.024,-0.02,0.005,0.024,-0.015,-0.01,0.024,-0.039,-0.142,-0.669,-0.19,-0.01
1.764,-0.02,-0.02,0.0,0.02,-0.01,-0.01,0.029,-0.044,-0.146,-0.664,-0.19,-0.01
1.766,-0.034,-0.029,0.005,0.034,-0.02,-0.015,0.029,-0.044,-0.146,-0.669,-0.195,-0.02
1.768,-0.029,-0.02,0.01,0.024,-0.02,-0.005,0.024,-0.039,-0.146,-0.673,-0.2,-0.02
1.77,-0.034,-0.01,0.024,0.024,-0.029,0.005,0.024,-0.039,-0.146,-0.673,-0.2,-0.015
1.772,-0.024,-0.005,0.02,0.015,-0.024,0.005,0.024,-0.044,-0.146,-0.673,-0.2,-0.015
1.774,-0.034,-0.005,0.029,0.02,-0.034,0.01,0.024,-0.044,-0.137,-0.669,-0.2,-0.015
1.776,-0.039,-0.005,0.034,0.024,-0.039,0.015,0.02,-0.044,-0.137,-0.669,-0.2,-0.015
1.778,-0.039,-0.01,0.029,0.024,-0.034,0.01,0.02,-0.044,-0.137,-0.659,-0.195,-0.015
1.78,-0.039,-0.01,0.029,0.024,-0.034,0.01,0.024,-0.034,-0.127,-0.659,-0.185,-0.015
1.782,-0.029,-0.01,0.02,0.02,-0.024,0.005,0.024,-0.034,-0.137,-0.669,-0.185,-0.015
1.784,-0.024,-0.01,0.015,0.02,-0.02,0.0,0.024,-0.034,-0.132,-0.669,-0.185,-0.005
1.786,-0.024,-0.01,0.015,0.02,-0.02,0.0,0.024,-0.034,-0.132,-0.669,-0.181,-0.005
1.788,-0.024,-0.01,0.015,0.02,-0.02,0.0,0.024,-0.029,-0.132,-0.669,-0.181,-0.005
1.79,-0.024,-0.01,0.015,0.02,-0.02,0.0,0.02,-0.029,-0.132,-0.669,-0.181,-0.005
1.792,-0.029,-0.01,0.02,0.02,-0.024,0.005,0.02,-0.029,-0.132,-0.659,-0.181,0.005
1.794,-0.029,-0.01,0.02,0.02,-0.024,0.005,0.015,-0.029,-0.132,-0.659,-0.171,0.01
1.796,-0.024,-0.01,0.015,0.02,-0.02,0.0,0.015,-0.029,-0.127,-0.664,-0.171,0.01
1.798,-0.02,-0.01,0.01,0.015,-0.015,0.0,0.015,-0.029,-0.127,-0.649,-0.171,0.005
1.8,-0.02,-0.005,0.015,0.015,-0.02,0.005,0.015,-0.029,-0.127,-0.649,-0.171,0.005
1.802,-0.02,-0.005,0.015,0.015,-0.02,0.005,0.015,-0.029,-0.127,-0.659,-0.166,0.0
1.804,-0.02,-0.005,0.015,0.015,-0.02,0.005,0.02,-0.029,-0.127,-0.669,-0.161,0.0
1.806,-0.01,0.005,0.015,0.005,-0.015,0.01,0.024,-0.034,-0.127,-0.659,-0.161,0.0
1.808,-0.01,0.005,0.015,0.005,-0.015,0.01,0.024,-0.034,-0.127,-0.659,-0.166,0.0
1.81,-0.024,-0.005,0.02,0.015,-0.024,0.005,0.024,-0.034,-0.127,-0.654,-0.171,-0.005
1.812,-0.024,-0.005,0.02,0.015,-0.024,0.005,0.015,-0.029,-0.127,-0.644,-0.171,-0.005
1.814,-0.029,-0.01,0.02,0.02,-0.024,0.005,0.0,-0.034,-0.137,-0.649,-0.176,-0.015
1.816,-0.029,-0.01,0.02,0.02,-0.024,0.005,0.0,-0.034,-0.137,-0.659,-0.181,-0.015
1.818,-0.034,-0.015,0.02,0.024,-0.029,0.0,0.0,-0.039,-0.137,-0.664,-0.185,-0.015
1.82,-0.044,-0.02,0.024,0.034,-0.034,0.0,0.0,-0.039,-0.137,-0.669,-0.195,-0.015
1.822,-0.044,-0.029,0.015,0.039,-0.029,-0.01,0.005,-0.029,-0.142,-0.678,-0.19,-0.005
1.824,-0.044,-0.029,0.015,0.039,-0.029,-0.01,0.005,-0.034,-0.137,-0.678,-0.19,-0.005
1.826,-0.039,-0.029,0.01,0.034,-0.024,-0.01,0.005,-0.034,-0.137,-0.678,-0.181,0.0
1.828,-0.039,-0.024,0.015,0.034,-0.029,-0.005,0.01,-0.039,-0.142,-0.673,-0.181,0.0
1.83,-0.034,-0.02,0.015,0.029,-0.024,-0.005,0.01,-0.039,-0.146,-0.673,-0.171,-0.005
1.832,-0.034,-0.029,0.005,0.034,-0.02,-0.015,0.01,-0.039,-0.142,-0.673,-0.171,-0.005
1.834,-0.034,-0.024,0.01,0.029,-0.024,-0.01,0.01,-0.039,-0.137,-0.678,-0.171,-0.005
1.836,-0.039,-0.02,0.02,0.029,-0.029,0.0,0.01,-0.039,-0.132,-0.688,-0.171,-0.005
1.838,-0.039,-0.02,0.02,0.029,-0.029,0.0,0.01,-0.039,-0.132,-0.678,-0.181,0.0
1.84,-0.039,-0.024,0.015,0.034,-0.029,-0.005,0.015,-0.039,-0.137,-0.678,-0.181,0.0
1.842,-0.039,-0.024,0.015,0.034,-0.029,-0.005,0.02,-0.034,-0.137,-0.683,-0.181,0.0
1.844,-0.044,-0.02,0.024,0.034,-0.034,0.0,0.02,-0.034,-0.137,-0.688,-0.185,-0.01
1.846,-0.044,-0.02,0.024,0.034,-0.034,0.0,0.01,-0.034,-0.146,-0.703,-0.19,-0.02
1.848,-0.044,-0.02,0.024,0.034,-0.034,0.0,0.005,-0.034,-0.146,-0.703,-0.195,-0.015
1.85,-0.029,0.0,0.029,0.015,-0.029,0.015,-0.005,-0.034,-0.146,-0.703,-0.195,-0.015
1.852,-0.029,0.0,0.029,0.015,-0.029,0.015,-0.005,-0.034,-0.146,-0.703,-0.195,-0.015
1.854,-0.024,-0.01,0.015,0.02,-0.02,0.0,-0.01,-0.039,-0.146,-0.712,-0.185,-0.015
1.856,-0.024,-0.015,0.01,0.02,-0.02,-0.005,-0.01,-0.044,-0.156,-0.722,-0.185,-0.015
1.858,-0.024,-0.015,0.01,0.02,-0.02,-0.005,-0.01,-0.044,-0.156,-0.727,-0.185,-0.015
1.86,-0.024,-0.015,0.01,0.02,-0.02,-0.005,-0.01,-0.044,-0.151,-0.727,-0.185,-0.015
1.862,-0.034,-0.02,0.015,0.029,-0.024,-0.005,-0.01,-0.044,-0.161,-0.737,-0.185,-0.015
1.864,-0.034,-0.02,0.015,0.029,-0.024,-0.005,-0.01,-0.044,-0.161,-0.742,-0.185,-0.024
1.866,-0.039,-0.02,0.02,0.029,-0.029,0.0,-0.01,-0.049,-0.161,-0.742,-0.19,-0.024
1.868,-0.039,-0.02,0.02,0.029,-0.029,0.0,-0.02,-0.063,-0.166,-0.752,-0.195,-0.02
1.87,-0.029,-0.015,0.015,0.024,-0.024,0.0,0.0,-0.049,-0.161,-0.742,-0.185,-0.02
1.872,-0.024,-0.01,0.015,0.02,-0.02,0.0,0.01,-0.044,-0.156,-0.742,-0.185,-0.015
1.874,-0.02,-0.01,0.01,0.015,-0.015,0.0,0.01,-0.039,-0.151,-0.737,-0.185,-0.015
1.876,-0.024,-0.015,0.01,0.02,-0.02,-0.005,0.0,-0.034,-0.151,-0.732,-0.2,-0.015
1.878,-0.024,-0.024,0.0,0.024,-0.015,-0.015,-0.015,-0.039,-0.156,-0.747,-0.205,-0.024
1.88,-0.024,-0.015,0.01,0.02,-0.02,-0.005,-0.015,-0.044,-0.156,-0.756,-0.205,-0.024
1.882,-0.024,-0.024,0.0,0.024,-0.015,-0.015,-0.015,-0.054,-0.161,-0.766,-0.195,-0.02
1.884,-0.024,-0.024,0.0,0.024,-0.015,-0.015,-0.015,-0.063,-0.166,-0.771,-0.195,-0.02
1.886,-0.024,-0.02,0.005,0.024,-0.015,-0.01,-0.015,-0.063,-0.166,-0.771,-0.195,-0.015
1.888,-0.024,-0.02,0.005,0.024,-0.015,-0.01,-0.015,-0.063,-0.166,-0.771,-0.195,-0.015
1.89,-0.024,-0.02,0.005,0.024,-0.015,-0.01,-0.015,-0.059,-0.171,-0.771,-0.195,-0.015
1.892,-0.024,-0.02,0.005,0.024,-0.015,-0.01,-0.015,-0.054,-0.171,-0.776,-0.2,-0.015
1.894,-0.034,-0.02,0.015,0.029,-0.024,-0.005,-0.015,-0.063,-0.176,-0.781,-0.2,-0.024
1.896,-0.034,-0.02,0.015,0.029,-0.024,-0.005,-0.015,-0.063,-0.176,-0.786,-0.195,-0.024
1.898,-0.034,-0.02,0.015,0.029,-0.024,-0.005,-0.02,-0.068,-0.176,-0.795,-0.195,-0.029
1.9,-0.029,-0.02,0.01,0.024,-0.02,-0.005,-0.02,-0.068,-0.176,-0.805,-0.2,-0.029
1.902,-0.029,-0.02,0.01,0.024,-0.02,-0.005,-0.02,-0.063,-0.166,-0.815,-0.2,-0.029
1.904,-0.034,-0.024,0.01,0.029,-0.024,-0.01,-0.015,-0.068,-0.171,-0.825,-0.2,-0.029
1.906,-0.034,-0.024,0.01,0.029,-0.024,-0.01,-0.015,-0.068,-0.171,-0.825,-0.205,-0.034
1.908,-0.034,-0.024,0.01,0.029,-0.024,-0.01,-0.015,-0.063,-0.171,-0.825,-0.21,-0.034
1.91,-0.034,-0.029,0.005,0.034,-0.02,-0.015,-0.005,-0.054,-0.171,-0.83,-0.205,-0.024
1.912,-0.034,-0.015,0.02,0.024,-0.029,0.0,-0.005,-0.054,-0.171,-0.834,-0.205,-0.024
1.914,-0.034,-0.024,0.01,0.029,-0.024,-0.01,-0.005,-0.049,-0.171,-0.839,-0.2,-0.024
1.916,-0.029,-0.024,0.005,0.029,-0.02,-0.01,-0.005,-0.049,-0.171,-0.834,-0.2,-0.024
1.918,-0.039,-0.039,0.0,0.039,-0.02,-0.02,-0.015,-0.054,-0.181,-0.839,-0.21,-0.029
1.92,-0.049,-0.039,0.01,0.044,-0.029,-0.015,-0.02,-0.059,-0.181,-0.854,-0.21,-0.029
1.922,-0.049,-0.039,0.01,0.044,-0.029,-0.015,-0.02,-0.063,-0.185,-0.859,-0.215,-0.039
1.924,-0.044,-0.039,0.005,0.044,-0.024,-0.02,-0.02,-0.068,-0.185,-0.864,-0.215,-0.039
1.926,-0.029,-0.024,0.005,0.029,-0.02,-0.01,-0.005,-0.059,-0.181,-0.854,-0.205,-0.02
1.928,-0.02,-0.015,0.005,0.02,-0.015,-0.005,-0.005,-0.063,-0.176,-0.854,-0.2,-0.015
1.93,-0.015,-0.01,0.005,0.015,-0.01,-0.005,-0.005,-0.063,-0.171,-0.854,-0.195,-0.015
1.932,-0.01,-0.005,0.005,0.01,-0.01,0.0,-0.01,-0.063,-0.171,-0.864,-0.2,-0.015
1.934,-0.015,-0.01,0.005,0.015,-0.01,-0.005,-0.02,-0.063,-0.176,-0.874,-0.2,-0.024
1.936,-0.02,-0.02,0.0,0.02,-0.01,-0.01,-0.02,-0.063,-0.181,-0.878,-0.195,-0.024
1.938,-0.029,-0.034,-0.005,0.034,-0.015,-0.02,-0.02,-0.068,-0.181,-0.883,-0.195,-0.029
1.94,-0.034,-0.039,-0.005,0.039,-0.015,-0.024,-0.02,-0.068,-0.176,-0.888,-0.195,-0.034
1.942,-0.044,-0.039,0.005,0.044,-0.024,-0.02,-0.01,-0.059,-0.181,-0.893,-0.205,-0.034
1.944,-0.044,-0.044,0.0,0.044,-0.024,-0.024,-0.01,-0.059,-0.185,-0.898,-0.205,-0.034
1.946,-0.044,-0.044,0.0,0.044,-0.024,-0.024,-0.01,-0.059,-0.185,-0.898,-0.205,-0.034
1.948,-0.044,-0.044,0.0,0.044,-0.024,-0.024,-0.01,-0.059,-0.19,-0.903,-0.205,-0.039
1.95,-0.054,-0.034,0.02,0.044,-0.039,-0.01,-0.015,-0.068,-0.185,-0.917,-0.205,-0.039
1.952,-0.054,-0.039,0.015,0.049,-0.034,-0.015,-0.02,-0.073,-0.185,-0.917,-0.205,-0.039
1.954,-0.054,-0.039,0.015,0.049,-0.034,-0.015,-0.024,-0.073,-0.185,-0.917,-0.205,-0.034
1.956,-0.049,-0.039,0.01,0.044,-0.029,-0.015,-0.029,-0.073,-0.185,-0.917,-0.205,-0.034
1.958,-0.034,-0.029,0.005,0.034,-0.02,-0.015,-0.029,-0.059,-0.176,-0.927,-0.205,-0.024
1.96,-0.034,-0.024,0.01,0.029,-0.024,-0.01,-0.029,-0.059,-0.181,-0.927,-0.205,-0.029
1.962,-0.029,-0.024,0.005,0.029,-0.02,-0.01,-0.034,-0.068,-0.19,-0.927,-0.21,-0.029
1.964,-0.024,-0.02,0.005,0.024,-0.015,-0.01,-0.034,-0.068,-0.19,-0.927,-0.215,-0.029
1.966,-0.034,-0.029,0.005,0.034,-0.02,-0.015,-0.034,-0.078,-0.2,-0.932,-0.205,-0.039
1.968,-0.034,-0.029,0.005,0.034,-0.02,-0.015,-0.034,-0.078,-0.2,-0.932,-0.205,-0.039
1.97,-0.024,-0.029,-0.005,0.029,-0.01,-0.02,-0.034,-0.083,-0.2,-0.937,-0.205,-0.034
1.972,-0.034,-0.029,0.005,0.034,-0.02,-0.015,-0.034,-0.083,-0.2,-0.942,-0.205,-0.024
1.974,-0.034,-0.039,-0.005,0.039,-0.015,-0.024,-0.029,-0.073,-0.205,-0.947,-0.21,-0.034
1.976,-0.039,-0.039,0.0,0.039,-0.02,-0.02,-0.024,-0.068,-0.205,-0.952,-0.21,-0.039
1.978,-0.039,-0.044,-0.005,0.044,-0.02,-0.024,-0.02,-0.068,-0.2,-0.956,-0.21,-0.044
1.98,-0.034,-0.044,-0.01,0.039,-0.015,-0.029,-0.015,-0.068,-0.2,-0.961,-0.215,-0.044
1.982,-0.034,-0.034,0.0,0.034,-0.02,-0.02,-0.02,-0.083,-0.21,-0.981,-0.224,-0.049
1.984,-0.039,-0.039,0.0,0.039,-0.02,-0.02,-0.024,-0.083,-0.21,-0.986,-0.224,-0.044
1.986,-0.039,-0.039,0.0,0.039,-0.02,-0.02,-0.029,-0.083,-0.205,-0.991,-0.224,-0.044
1.988,-0.039,-0.034,0.005,0.039,-0.024,-0.015,-0.044,-0.078,-0.205,-0.996,-0.224,-0.044
1.99,-0.024,-0.005,0.02,0.015,-0.024,0.005,-0.039,-0.068,-0.195,-1.0,-0.21,-0.039
1.992,-0.01,0.0,0.01,0.005,-0.01,0.005,-0.029,-0.063,-0.19,-0.996,-0.205,-0.039
1.994,0.0,0.005,0.005,0.0,-0.005,0.005,-0.024,-0.063,-0.19,-0.991,-0.205,-0.039
1.996,0.005,0.015,0.01,-0.01,-0.005,0.01,-0.02,-0.068,-0.195,-0.981,-0.21,-0.044
1.998,-0.015,0.005,0.02,0.005,-0.02,0.01,-0.02,-0.083,-0.21,-0.986,-0.229,-0.049
2.0,-0.024,-0.015,0.01,0.02,-0.02,-0.005,-0.02,-0.083,-0.21,-0.991,-0.229,-0.049
2.002,-0.029,-0.039,-0.01,0.034,-0.01,-0.024,-0.024,-0.078,-0.2,-1.0,-0.224,-0.044
2.004,-0.034,-0.039,-0.005,0.039,-0.015,-0.024,-0.029,-0.073,-0.2,-1.01,-0.22,-0.034
2.006,-0.044,-0.044,0.0,0.044,-0.024,-0.024,-0.02,-0.073,-0.19,-1.01,-0.205,-0.039
2.008,-0.044,-0.044,0.0,0.044,-0.024,-0.024,-0.02,-0.083,-0.205,-1.015,-0.205,-0.044
2.01,-0.049,-0.049,0.0,0.049,-0.024,-0.024,-0.029,-0.083,-0.21,-1.03,-0.21,-0.049
2.012,-0.049,-0.049,0.0,0.049,-0.024,-0.024,-0.029,-0.083,-0.21,-1.03,-0.215,-0.049
2.014,-0.039,-0.034,0.005,0.039,-0.024,-0.015,-0.015,-0.083,-0.21,-1.025,-0.215,-0.054
2.016,-0.039,-0.029,0.01,0.034,-0.024,-0.01,-0.01,-0.083,-0.21,-1.02,-0.215,-0.054
2.018,-0.034,-0.034,0.0,0.034,-0.02,-0.02,-0.01,-0.078,-0.205,-1.025,-0.215,-0.059
2.02,-0.034,-0.015,0.02,0.024,-0.029,0.0,-0.01,-0.078,-0.205,-1.03,-0.215,-0.063
2.022,0.005,0.024,0.02,-0.015,-0.01,0.02,-0.01,-0.059,-0.185,-1.02,-0.21,-0.044
2.024,0.01,0.01,0.0,-0.01,0.005,0.005,-0.01,-0.059,-0.185,-1.015,-0.205,-0.039
2.026,0.0,-0.005,-0.005,0.005,0.0,-0.005,-0.01,-0.059,-0.185,-1.025,-0.195,-0.029
2.028,-0.01,-0.01,0.0,0.01,-0.005,-0.005,-0.01,-0.059,-0.185,-1.025,-0.195,-0.029
2.03,-0.02,-0.015,0.005,0.02,-0.015,-0.005,-0.01,-0.059,-0.185,-1.025,-0.195,-0.029
2.032,-0.029,-0.02,0.01,0.024,-0.02,-0.005,-0.01,-0.059,-0.185,-1.025,-0.195,-0.029
2.034,-0.02,-0.005,0.015,0.015,-0.02,0.005,0.0,-0.059,-0.185,-1.015,-0.195,-0.039
2.036,-0.02,0.0,0.02,0.01,-0.02,0.01,0.0,-0.059,-0.185,-1.015,-0.195,-0.039
2.038,-0.02,0.005,0.024,0.01,-0.024,0.015,0.0,-0.059,-0.185,-1.015,-0.195,-0.039
2.04,-0.02,0.01,0.029,0.005,-0.024,0.02,0.0,-0.059,-0.185,-1.015,-0.195,-0.039
2.042,-0.005,0.015,0.02,-0.005,-0.015,0.015,0.0,-0.059,-0.176,-1.005,-0.19,-0.034
2.044,0.0,0.02,0.02,-0.01,-0.01,0.02,0.0,-0.059,-0.176,-1.005,-0.185,-0.029
2.046,0.005,0.024,0.02,-0.015,-0.01,0.02,0.0,-0.059,-0.176,-1.005,-0.181,-0.024
2.048,0.01,0.029,0.02,-0.02,-0.005,0.024,0.0,-0.059,-0.176,-1.005,-0.176,-0.02
2.05,0.005,0.039,0.034,-0.02,-0.015,0.034,0.0,-0.059,-0.176,-1.015,-0.176,-0.029
2.052,0.0,0.039,0.039,-0.02,-0.02,0.039,0.0,-0.059,-0.176,-1.015,-0.176,-0.029
2.054,-0.005,0.039,0.044,-0.015,-0.024,0.039,0.0,-0.059,-0.176,-1.015,-0.176,-0.029
2.056,-0.01,0.039,0.049,-0.015,-0.029,0.044,0.0,-0.059,-0.176,-1.015,-0.176,-0.029
2.058,-0.01,0.02,0.029,-0.005,-0.02,0.024,0.0,-0.049,-0.166,-1.005,-0.166,-0.029
2.06,-0.01,0.01,0.02,0.0,-0.015,0.015,0.0,-0.049,-0.166,-1.005,-0.166,-0.029
2.062,-0.01,0.0,0.01,0.005,-0.01,0.005,0.0,-0.049,-0.166,-1.005,-0.166,-0.029
2.064,-0.01,-0.01,0.0,0.01,-0.005,-0.005,0.0,-0.049,-0.166,-1.005,-0.166,-0.029
2.066,-0.02,-0.024,-0.005,0.024,-0.01,-0.015,-0.015,-0.059,-0.166,-1.005,-0.156,-0.02
2.068,-0.02,-0.029,-0.01,0.024,-0.005,-0.02,-0.02,-0.059,-0.166,-1.005,-0.156,-0.02
2.07,-0.02,-0.034,-0.015,0.029,-0.005,-0.024,-0.024,-0.059,-0.166,-1.005,-0.156,-0.02
2.072,-0.02,-0.039,-0.02,0.029,0.0,-0.029,-0.029,-0.059,-0.166,-1.005,-0.156,-0.02
2.074,-0.01,-0.024,-0.015,0.02,0.0,-0.02,-0.034,-0.068,-0.176,-1.015,-0.166,-0.02
2.076,0.0,-0.02,-0.02,0.01,0.01,-0.02,-0.039,-0.068,-0.176,-1.015,-0.166,-0.02
2.078,0.02,-0.005,-0.024,-0.005,0.02,-0.015,-0.044,-0.073,-0.181,-1.02,-0.161,-0.02
2.08,0.029,0.0,-0.029,-0.015,0.029,-0.015,-0.049,-0.073,-0.181,-1.025,-0.161,-0.015
2.082,0.024,0.01,-0.015,-0.015,0.02,-0.005,-0.044,-0.073,-0.176,-1.025,-0.156,-0.015
2.084,0.015,0.0,-0.015,-0.005,0.015,-0.01,-0.044,-0.083,-0.185,-1.03,-0.161,-0.02
2.086,0.01,-0.005,-0.015,0.0,0.01,-0.01,-0.039,-0.088,-0.19,-1.03,-0.161,-0.02
2.088,0.01,-0.01,-0.02,0.0,0.015,-0.015,-0.039,-0.093,-0.195,-1.035,-0.161,-0.02
2.09,0.015,-0.01,-0.024,0.0,0.02,-0.02,-0.054,-0.107,-0.21,-1.054,-0.181,-0.024
2.092,0.015,-0.005,-0.02,-0.005,0.015,-0.015,-0.059,-0.107,-0.215,-1.059,-0.181,-0.029
2.094,0.015,0.0,-0.015,-0.005,0.015,-0.01,-0.059,-0.102,-0.215,-1.059,-0.181,-0.034
2.096,0.02,0.01,-0.01,-0.015,0.015,0.0,-0.059,-0.102,-0.22,-1.054,-0.176,-0.034
2.098,0.024,0.01,-0.015,-0.015,0.02,-0.005,-0.044,-0.088,-0.215,-1.039,-0.166,-0.024
2.1,0.024,0.0,-0.024,-0.01,0.024,-0.015,-0.044,-0.083,-0.205,-1.039,-0.166,-0.029
2.102,0.02,-0.015,-0.034,0.0,0.024,-0.024,-0.044,-0.083,-0.2,-1.035,-0.166,-0.034
2.104,0.02,-0.02,-0.039,0.0,0.029,-0.029,-0.044,-0.083,-0.195,-1.03,-0.171,-0.034
2.106,0.01,-0.029,-0.039,0.01,0.024,-0.034,-0.039,-0.088,-0.205,-1.03,-0.185,-0.024
2.108,0.005,-0.02,-0.024,0.01,0.015,-0.024,-0.044,-0.093,-0.21,-1.035,-0.185,-0.029
2.11,0.0,-0.02,-0.02,0.01,0.01,-0.02,-0.044,-0.098,-0.21,-1.039,-0.185,-0.039
2.112,-0.01,-0.02,-0.01,0.015,0.0,-0.015,-0.044,-0.098,-0.215,-1.039,-0.19,-0.039
2.114,0.005,-0.015,-0.02,0.005,0.01,-0.02,-0.044,-0.102,-0.224,-1.039,-0.185,-0.039
2.116,0.01,-0.005,-0.015,0.0,0.01,-0.01,-0.039,-0.102,-0.224,-1.044,-0.185,-0.039
2.118,0.005,0.0,-0.005,0.0,0.005,-0.005,-0.034,-0.102,-0.224,-1.044,-0.185,-0.039
2.12,0.005,-0.005,-0.01,0.0,0.005,-0.01,-0.034,-0.102,-0.234,-1.059,-0.19,-0.049
2.122,-0.015,-0.02,-0.005,0.02,-0.005,-0.015,-0.039,-0.112,-0.244,-1.049,-0.2,-0.054
2.124,-0.024,-0.024,0.0,0.024,-0.015,-0.015,-0.044,-0.112,-0.249,-1.054,-0.2,-0.063
2.126,-0.029,-0.029,0.0,0.029,-0.015,-0.015,-0.049,-0.122,-0.254,-1.059,-0.205,-0.068
2.128,-0.034,-0.044,-0.01,0.039,-0.015,-0.029,-0.054,-0.122,-0.254,-1.064,-0.205,-0.073
2.13,-0.039,-0.059,-0.02,0.049,-0.01,-0.039,-0.049,-0.122,-0.254,-1.074,-0.215,-0.068
2.132,-0.049,-0.059,-0.01,0.054,-0.02,-0.034,-0.049,-0.122,-0.259,-1.078,-0.215,-0.073
2.134,-0.054,-0.054,0.0,0.054,-0.029,-0.029,-0.054,-0.127,-0.264,-1.083,-0.224,-0.078
2.136,-0.059,-0.054,0.005,0.059,-0.034,-0.024,-0.054,-0.127,-0.268,-1.088,-0.224,-0.078
2.138,-0.049,-0.068,-0.02,0.059,-0.015,-0.044,-0.054,-0.127,-0.268,-1.088,-0.215,-0.078
2.14,-0.044,-0.068,-0.024,0.059,-0.01,-0.049,-0.054,-0.127,-0.268,-1.088,-0.215,-0.078
2.142,-0.034,-0.059,-0.024,0.049,-0.005,-0.044,-0.054,-0.127,-0.268,-1.088,-0.215,-0.083
2.144,-0.029,-0.049,-0.02,0.039,-0.005,-0.034,-0.054,-0.127,-0.268,-1.088,-0.215,-0.083
2.146,-0.039,-0.059,-0.02,0.049,-0.01,-0.039,-0.049,-0.122,-0.259,-1.088,-0.205,-0.078
2.148,-0.039,-0.063,-0.024,0.054,-0.01,-0.044,-0.044,-0.112,-0.259,-1.093,-0.205,-0.078
2.15,-0.049,-0.063,-0.015,0.059,-0.02,-0.039,-0.034,-0.102,-0.254,-1.093,-0.205,-0.078
2.152,-0.049,-0.063,-0.015,0.059,-0.02,-0.039,-0.029,-0.098,-0.254,-1.098,-0.205,-0.078
2.154,-0.054,-0.073,-0.02,0.063,-0.02,-0.049,-0.029,-0.112,-0.264,-1.103,-0.215,-0.078
2.156,-0.054,-0.073,-0.02,0.063,-0.02,-0.049,-0.029,-0.112,-0.268,-1.108,-0.215,-0.078
2.158,-0.059,-0.073,-0.015,0.068,-0.024,-0.044,-0.029,-0.117,-0.268,-1.118,-0.22,-0.078
2.16,-0.059,-0.078,-0.02,0.068,-0.02,-0.049,-0.029,-0.117,-0.268,-1.122,-0.22,-0.078
2.162,-0.049,-0.068,-0.02,0.059,-0.015,-0.044,-0.039,-0.112,-0.268,-1.132,-0.22,-0.078
2.164,-0.049,-0.068,-0.02,0.059,-0.015,-0.044,-0.039,-0.112,-0.264,-1.132,-0.22,-0.083
2.166,-0.044,-0.063,-0.02,0.054,-0.015,-0.044,-0.039,-0.112,-0.264,-1.132,-0.215,-0.088
2.168,-0.044,-0.063,-0.02,0.054,-0.015,-0.044,-0.039,-0.112,-0.264,-1.132,-0.215,-0.093
2.17,-0.034,-0.049,-0.015,0.044,-0.01,-0.034,-0.049,-0.122,-0.273,-1.132,-0.215,-0.093
2.172,-0.034,-0.049,-0.015,0.044,-0.01,-0.034,-0.044,-0.122,-0.268,-1.132,-0.215,-0.093
2.174,-0.029,-0.039,-0.01,0.034,-0.01,-0.024,-0.044,-0.122,-0.268,-1.132,-0.215,-0.093
2.176,-0.029,-0.039,-0.01,0.034,-0.01,-0.024,-0.044,-0.122,-0.273,-1.142,-0.215,-0.093
2.178,-0.034,-0.039,-0.005,0.039,-0.015,-0.024,-0.039,-0.122,-0.268,-1.152,-0.215,-0.093
2.18,-0.034,-0.044,-0.01,0.039,-0.015,-0.029,-0.039,-0.122,-0.268,-1.152,-0.215,-0.093
2.182,-0.034,-0.044,-0.01,0.039,-0.015,-0.029,-0.039,-0.122,-0.268,-1.152,-0.215,-0.093
2.184,-0.029,-0.039,-0.01,0.034,-0.01,-0.024,-0.034,-0.122,-0.268,-1.152,-0.215,-0.093
2.186,-0.024,-0.02,0.005,0.024,-0.015,-0.01,-0.029,-0.112,-0.259,-1.152,-0.205,-0.083
2.188,-0.02,-0.015,0.005,0.02,-0.015,-0.005,-0.024,-0.112,-0.254,-1.152,-0.205,-0.083
2.19,-0.02,-0.024,-0.005,0.024,-0.01,-0.015,-0.02,-0.112,-0.254,-1.147,-0.205,-0.083
2.192,-0.024,-0.02,0.005,0.024,-0.015,-0.01,-0.015,-0.117,-0.254,-1.147,-0.205,-0.083
2.194,-0.034,-0.034,0.0,0.034,-0.02,-0.02,-0.02,-0.117,-0.254,-1.157,-0.215,-0.093
2.196,-0.034,-0.044,-0.01,0.039,-0.015,-0.029,-0.02,-0.112,-0.254,-1.161,-0.215,-0.093
2.198,-0.054,-0.063,-0.01,0.059,-0.024,-0.039,-0.024,-0.112,-0.254,-1.171,-0.224,-0.098
2.2,-0.068,-0.073,-0.005,0.073,-0.034,-0.039,-0.029,-0.117,-0.259,-1.171,-0.224,-0.098
2.202,-0.059,-0.063,-0.005,0.063,-0.029,-0.034,-0.029,-0.127,-0.259,-1.171,-0.21,-0.088
2.204,-0.049,-0.059,-0.01,0.054,-0.02,-0.034,-0.029,-0.122,-0.259,-1.176,-0.21,-0.088
2.206,-0.049,-0.054,-0.005,0.054,-0.024,-0.029,-0.029,-0.122,-0.254,-1.181,-0.21,-0.088
2.208,-0.059,-0.054,0.005,0.059,-0.034,-0.024,-0.029,-0.122,-0.254,-1.186,-0.21,-0.093
2.21,-0.068,-0.054,0.015,0.063,-0.044,-0.02,-0.024,-0.122,-0.268,-1.196,-0.22,-0.107
2.212,-0.063,-0.054,0.01,0.059,-0.039,-0.024,-0.024,-0.122,-0.268,-1.191,-0.22,-0.107
2.214,-0.063,-0.049,0.015,0.059,-0.039,-0.02,-0.024,-0.122,-0.264,-1.191,-0.215,-0.102
2.216,-0.063,-0.049,0.015,0.059,-0.039,-0.02,-0.024,-0.122,-0.259,-1.191,-0.205,-0.093
2.218,-0.054,-0.044,0.01,0.049,-0.034,-0.02,-0.02,-0.107,-0.254,-1.196,-0.2,-0.078
2.22,-0.049,-0.039,0.01,0.044,-0.029,-0.015,-0.015,-0.107,-0.249,-1.196,-0.2,-0.078
2.222,-0.049,-0.039,0.01,0.044,-0.029,-0.015,-0.015,-0.107,-0.244,-1.196,-0.195,-0.078
2.224,-0.044,-0.034,0.01,0.039,-0.029,-0.015,-0.015,-0.107,-0.239,-1.2,-0.19,-0.078
2.226,-0.044,-0.044,0.0,0.044,-0.024,-0.024,-0.024,-0.107,-0.249,-1.205,-0.181,-0.088
2.228,-0.044,-0.024,0.02,0.034,-0.034,-0.005,-0.015,-0.117,-0.249,-1.205,-0.19,-0.088
2.23,-0.034,0.015,0.049,0.01,-0.044,0.029,-0.005,-0.107,-0.234,-1.2,-0.195,-0.098
2.232,-0.059,0.005,0.063,0.029,-0.063,0.034,0.01,-0.083,-0.22,-1.196,-0.195,-0.093
2.234,-0.088,-0.005,0.083,0.049,-0.088,0.039,0.044,-0.034,-0.19,-1.171,-0.166,-0.078
2.236,-0.068,0.024,0.093,0.024,-0.083,0.059,0.102,0.068,-0.102,-1.113,-0.117,-0.054
2.238,-0.039,0.034,0.073,0.005,-0.059,0.054,0.171,0.215,0.029,-1.035,-0.059,-0.024
2.24,-0.015,0.044,0.059,-0.015,-0.039,0.049,0.215,0.337,0.156,-0.942,0.0,0.01
2.242,0.015,0.063,0.049,-0.039,-0.02,0.054,0.224,0.371,0.249,-0.834,0.083,0.063
2.244,0.044,0.063,0.02,-0.054,0.01,0.039,0.2,0.327,0.303,-0.737,0.171,0.122
2.246,0.093,0.049,-0.044,-0.068,0.068,0.0,0.132,0.22,0.322,-0.639,0.273,0.195
2.248,0.166,0.063,-0.102,-0.112,0.132,-0.02,0.029,0.073,0.332,-0.522,0.395,0.288
2.25,0.249,0.107,-0.142,-0.176,0.195,-0.02,-0.083,-0.083,0.361,-0.371,0.556,0.405
2.252,0.337,0.151,-0.185,-0.244,0.259,-0.02,-0.224,-0.278,0.371,-0.21,0.717,0.532
2.254,0.405,0.161,-0.244,-0.283,0.322,-0.044,-0.42,-0.493,0.342,-0.098,0.849,0.639
2.256,0.434,0.142,-0.293,-0.288,0.361,-0.078,-0.634,-0.727,0.259,-0.073,0.922,0.703
2.258,0.444,0.132,-0.312,-0.288,0.376,-0.093,-0.82,-0.961,0.122,-0.107,0.947,0.737
2.26,0.444,0.132,-0.312,-0.288,0.376,-0.093,-0.976,-1.191,-0.024,-0.185,0.932,0.747
2.262,0.459,0.127,-0.332,-0.293,0.395,-0.102,-1.088,-1.362,-0.215,-0.361,0.844,0.717
2.264,0.478,0.083,-0.395,-0.278,0.434,-0.156,-1.132,-1.474,-0.444,-0.673,0.62,0.581
2.266,0.459,-0.02,-0.478,-0.22,0.468,-0.249,-1.118,-1.527,-0.659,-1.039,0.288,0.366
2.268,0.425,-0.117,-0.542,-0.151,0.483,-0.332,-1.113,-1.576,-0.834,-1.332,0.039,0.195
2.27,0.381,-0.176,-0.556,-0.102,0.468,-0.366,-1.122,-1.62,-0.996,-1.527,-0.112,0.112
2.272,0.342,-0.22,-0.561,-0.059,0.449,-0.39,-1.098,-1.645,-1.152,-1.723,-0.249,0.034
2.274,0.273,-0.234,-0.508,-0.02,0.39,-0.371,-1.088,-1.688,-1.332,-1.952,-0.429,-0.073
2.276,0.166,-0.224,-0.39,0.029,0.278,-0.307,-1.113,-1.786,-1.566,-2.22,-0.63,-0.195
2.278,0.039,-0.224,-0.264,0.093,0.151,-0.244,-1.093,-1.864,-1.786,-2.455,-0.786,-0.298
2.28,-0.059,-0.22,-0.161,0.142,0.049,-0.19,-1.03,-1.845,-1.898,-2.596,-0.888,-0.376
2.282,-0.107,-0.22,-0.112,0.166,0.0,-0.166,-0.991,-1.767,-1.898,-2.65,-0.932,-0.429
2.284,-0.146,-0.22,-0.073,0.185,-0.039,-0.146,-0.966,-1.684,-1.825,-2.616,-0.942,-0.449
2.286,-0.176,-0.21,-0.034,0.195,-0.073,-0.122,-0.932,-1.576,-1.718,-2.533,-0.898,-0.439
2.288,-0.19,-0.181,0.01,0.185,-0.102,-0.088,-0.903,-1.464,-1.591,-2.435,-0.854,-0.425
2.29,-0.171,-0.146,0.024,0.161,-0.098,-0.063,-0.854,-1.357,-1.474,-2.333,-0.795,-0.4
2.292,-0.161,-0.132,0.029,0.146,-0.098,-0.054,-0.781,-1.244,-1.352,-2.245,-0.747,-0.376
2.294,-0.161,-0.098,0.063,0.132,-0.112,-0.02,-0.708,-1.122,-1.22,-2.142,-0.688,-0.351
2.296,-0.146,-0.039,0.107,0.093,-0.127,0.034,-0.615,-0.976,-1.059,-2.015,-0.605,-0.307
2.298,-0.132,0.015,0.146,0.059,-0.142,0.078,-0.512,-0.815,-0.869,-1.859,-0.503,-0.249
2.3,-0.112,0.073,0.185,0.02,-0.151,0.127,-0.425,-0.673,-0.727,-1.747,-0.42,-0.2
2.302,-0.093,0.132,0.224,-0.02,-0.161,0.176,-0.361,-0.576,-0.63,-1.674,-0.366,-0.171
2.304,-0.073,0.122,0.195,-0.024,-0.137,0.156,-0.283,-0.483,-0.556,-1.625,-0.327,-0.146
2.306,-0.059,0.112,0.171,-0.024,-0.117,0.142,-0.205,-0.4,-0.493,-1.581,-0.298,-0.122
2.308,-0.044,0.112,0.156,-0.034,-0.102,0.132,-0.161,-0.327,-0.449,-1.552,-0.278,-0.117
2.31,-0.029,0.102,0.132,-0.034,-0.083,0.117,-0.122,-0.264,-0.405,-1.518,-0.268,-0.127
2.312,-0.034,0.068,0.102,-0.015,-0.068,0.083,-0.098,-0.21,-0.366,-1.488,-0.259,-0.122
2.314,-0.034,0.044,0.078,-0.005,-0.059,0.059,-0.078,-0.166,-0.322,-1.449,-0.239,-0.117
2.316,-0.005,0.054,0.059,-0.024,-0.034,0.054,-0.049,-0.132,-0.273,-1.42,-0.22,-0.102
2.318,0.015,0.068,0.054,-0.039,-0.02,0.059,-0.024,-0.102,-0.234,-1.386,-0.19,-0.098
2.32,0.005,0.054,0.049,-0.029,-0.024,0.049,-0.015,-0.083,-0.215,-1.376,-0.185,-0.098
2.322,-0.024,0.015,0.039,0.005,-0.034,0.024,-0.02,-0.093,-0.21,-1.371,-0.185,-0.102
2.324,-0.049,-0.01,0.039,0.029,-0.044,0.015,-0.024,-0.093,-0.215,-1.386,-0.195,-0.112
2.326,-0.049,-0.01,0.039,0.029,-0.044,0.015,-0.005,-0.083,-0.205,-1.376,-0.19,-0.112
2.328,-0.044,-0.005,0.039,0.024,-0.044,0.015,0.005,-0.059,-0.205,-1.376,-0.19,-0.107
2.33,-0.044,-0.005,0.039,0.024,-0.044,0.015,0.015,-0.054,-0.2,-1.381,-0.19,-0.107
2.332,-0.044,-0.01,0.034,0.029,-0.039,0.01,0.015,-0.039,-0.195,-1.386,-0.19,-0.107
2.334,-0.059,-0.029,0.029,0.044,-0.044,0.0,0.015,-0.029,-0.2,-1.396,-0.181,-0.112
2.336,-0.063,-0.039,0.024,0.054,-0.044,-0.01,0.02,-0.029,-0.181,-1.391,-0.181,-0.112
2.338,-0.063,-0.049,0.015,0.059,-0.039,-0.02,0.024,-0.024,-0.166,-1.381,-0.171,-0.112
2.34,-0.068,-0.059,0.01,0.063,-0.039,-0.024,0.029,-0.02,-0.151,-1.362,-0.166,-0.112
2.342,-0.054,-0.044,0.01,0.049,-0.034,-0.02,0.044,-0.01,-0.137,-1.352,-0.146,-0.093
2.344,-0.039,-0.029,0.01,0.034,-0.024,-0.01,0.044,-0.005,-0.137,-1.347,-0.142,-0.093
2.346,-0.034,-0.02,0.015,0.029,-0.024,-0.005,0.054,0.015,-0.132,-1.347,-0.132,-0.088
2.348,-0.01,-0.005,0.005,0.01,-0.01,0.0,0.054,0.024,-0.127,-1.347,-0.127,-0.088
2.35,-0.01,-0.005,0.005,0.01,-0.01,0.0,0.044,0.02,-0.127,-1.362,-0.122,-0.098
2.352,-0.01,-0.005,0.005,0.01,-0.01,0.0,0.044,0.024,-0.127,-1.366,-0.137,-0.102
2.354,-0.015,-0.02,-0.005,0.02,-0.005,-0.015,0.044,0.029,-0.127,-1.371,-0.142,-0.107
2.356,-0.015,-0.01,0.005,0.015,-0.01,-0.005,0.049,0.034,-0.117,-1.376,-0.146,-0.107
2.358,-0.02,-0.024,-0.005,0.024,-0.01,-0.015,0.054,0.039,-0.112,-1.381,-0.132,-0.102
2.36,-0.02,-0.029,-0.01,0.024,-0.005,-0.02,0.054,0.044,-0.112,-1.371,-0.132,-0.098
2.362,-0.024,-0.039,-0.015,0.034,-0.005,-0.029,0.054,0.044,-0.107,-1.357,-0.127,-0.093
2.364,-0.029,-0.044,-0.015,0.039,-0.01,-0.029,0.059,0.054,-0.107,-1.352,-0.122,-0.093
2.366,-0.02,-0.024,-0.005,0.024,-0.01,-0.015,0.073,0.063,-0.098,-1.357,-0.112,-0.093
2.368,-0.02,-0.015,0.005,0.02,-0.015,-0.005,0.078,0.068,-0.093,-1.352,-0.112,-0.093
2.37,-0.015,-0.005,0.01,0.01,-0.015,0.0,0.083,0.078,-0.093,-1.352,-0.107,-0.093
2.372,-0.015,0.005,0.02,0.005,-0.02,0.01,0.088,0.083,-0.088,-1.357,-0.107,-0.088
2.374,-0.02,-0.01,0.01,0.015,-0.015,0.0,0.083,0.078,-0.098,-1.362,-0.107,-0.093
2.376,-0.02,-0.01,0.01,0.015,-0.015,0.0,0.083,0.078,-0.088,-1.362,-0.112,-0.093
2.378,-0.02,-0.01,0.01,0.015,-0.015,0.0,0.078,0.078,-0.078,-1.352,-0.117,-0.093
2.38,-0.024,-0.01,0.015,0.02,-0.02,0.0,0.073,0.083,-0.073,-1.352,-0.117,-0.093
2.382,-0.01,-0.005,0.005,0.01,-0.01,0.0,0.083,0.088,-0.083,-1.347,-0.107,-0.088
2.384,0.0,0.01,0.01,-0.005,-0.005,0.01,0.083,0.088,-0.078,-1.347,-0.112,-0.088
2.386,0.005,0.015,0.01,-0.01,-0.005,0.01,0.083,0.093,-0.078,-1.347,-0.112,-0.088
2.388,0.005,0.015,0.01,-0.01,-0.005,0.01,0.088,0.093,-0.078,-1.347,-0.112,-0.093
2.39,0.005,0.005,0.0,-0.005,0.0,0.0,0.098,0.112,-0.059,-1.332,-0.107,-0.088
2.392,0.01,0.005,-0.005,-0.005,0.005,0.0,0.098,0.112,-0.054,-1.322,-0.107,-0.083
2.394,0.01,0.005,-0.005,-0.005,0.005,0.0,0.098,0.112,-0.049,-1.318,-0.102,-0.088
2.396,0.005,0.0,-0.005,0.0,0.005,-0.005,0.102,0.112,-0.044,-1.313,-0.098,-0.073
2.398,0.0,-0.01,-0.01,0.005,0.005,-0.01,0.093,0.122,-0.039,-1.318,-0.102,-0.073
2.4,-0.005,-0.02,-0.015,0.015,0.005,-0.02,0.102,0.122,-0.034,-1.318,-0.102,-0.073
2.402,0.0,-0.005,-0.005,0.005,0.0,-0.005,0.107,0.127,-0.029,-1.318,-0.098,-0.078
2.404,-0.005,-0.005,0.0,0.005,-0.005,-0.005,0.112,0.122,-0.029,-1.322,-0.098,-0.083
2.406,-0.015,-0.02,-0.005,0.02,-0.005,-0.015,0.102,0.132,-0.034,-1.318,-0.088,-0.083
2.408,-0.015,-0.024,-0.01,0.02,-0.005,-0.02,0.102,0.137,-0.034,-1.318,-0.083,-0.083
2.41,-0.015,-0.02,-0.005,0.02,-0.005,-0.015,0.098,0.142,-0.024,-1.313,-0.078,-0.078
2.412,-0.01,-0.02,-0.01,0.015,0.0,-0.015,0.093,0.151,-0.02,-1.308,-0.073,-0.073
2.414,0.015,-0.005,-0.02,-0.005,0.015,-0.015,0.093,0.156,-0.01,-1.303,-0.083,-0.083
2.416,0.015,-0.005,-0.02,-0.005,0.015,-0.015,0.098,0.161,-0.005,-1.298,-0.078,-0.083
2.418,0.01,-0.01,-0.02,0.0,0.015,-0.015,0.102,0.166,0.005,-1.293,-0.078,-0.073
2.42,0.01,-0.015,-0.024,0.005,0.015,-0.02,0.107,0.166,0.01,-1.288,-0.078,-0.073
2.422,-0.01,-0.015,-0.005,0.015,-0.005,-0.01,0.102,0.171,0.005,-1.293,-0.078,-0.083
2.424,-0.01,-0.015,-0.005,0.015,-0.005,-0.01,0.112,0.181,0.01,-1.288,-0.073,-0.083
2.426,0.005,-0.015,-0.02,0.005,0.01,-0.02,0.117,0.195,0.02,-1.283,-0.073,-0.073
2.428,0.005,-0.015,-0.02,0.005,0.01,-0.02,0.122,0.2,0.034,-1.274,-0.059,-0.073
2.43,0.005,-0.005,-0.01,0.0,0.005,-0.01,0.137,0.21,0.034,-1.274,-0.059,-0.078
2.432,0.01,0.01,0.0,-0.01,0.005,0.005,0.137,0.215,0.039,-1.279,-0.068,-0.078
2.434,0.02,0.02,0.0,-0.02,0.01,0.01,0.137,0.22,0.044,-1.283,-0.068,-0.073
2.436,0.01,0.02,0.01,-0.015,0.0,0.015,0.137,0.224,0.044,-1.274,-0.068,-0.073
2.438,0.024,0.029,0.005,-0.024,0.01,0.015,0.137,0.244,0.054,-1.269,-0.059,-0.073
2.44,0.039,0.034,-0.005,-0.034,0.02,0.015,0.137,0.259,0.068,-1.254,-0.054,-0.073
2.442,0.044,0.034,-0.01,-0.039,0.024,0.01,0.142,0.273,0.088,-1.249,-0.049,-0.063
2.444,0.039,0.02,-0.02,-0.029,0.029,0.0,0.146,0.273,0.093,-1.249,-0.044,-0.063
2.446,0.024,0.02,-0.005,-0.02,0.015,0.005,0.146,0.273,0.088,-1.249,-0.054,-0.073
2.448,0.024,0.02,-0.005,-0.02,0.015,0.005,0.156,0.278,0.107,-1.244,-0.049,-0.068
2.45,0.029,0.034,0.005,-0.029,0.01,0.02,0.171,0.293,0.112,-1.244,-0.044,-0.063
2.452,0.024,0.054,0.029,-0.039,-0.005,0.039,0.181,0.307,0.122,-1.244,-0.029,-0.063
2.454,0.054,0.068,0.015,-0.059,0.02,0.039,0.185,0.327,0.142,-1.235,-0.02,-0.063
2.456,0.063,0.068,0.005,-0.063,0.029,0.034,0.195,0.332,0.151,-1.22,-0.015,-0.059
2.458,0.073,0.073,0.0,-0.073,0.034,0.034,0.195,0.337,0.156,-1.215,-0.015,-0.054
2.46,0.083,0.083,0.0,-0.083,0.039,0.039,0.195,0.346,0.161,-1.205,-0.015,-0.044
2.462,0.068,0.073,0.005,-0.068,0.029,0.039,0.19,0.346,0.171,-1.2,-0.01,-0.054
2.464,0.054,0.063,0.01,-0.059,0.02,0.034,0.19,0.356,0.176,-1.196,-0.01,-0.059
2.466,0.039,0.049,0.01,-0.044,0.015,0.029,0.195,0.361,0.181,-1.196,-0.005,-0.059
2.468,0.029,0.039,0.01,-0.034,0.01,0.024,0.195,0.376,0.185,-1.181,0.0,-0.049
2.47,0.049,0.054,0.005,-0.049,0.02,0.029,0.2,0.395,0.205,-1.161,0.02,-0.034
2.472,0.054,0.059,0.005,-0.054,0.024,0.029,0.205,0.405,0.215,-1.157,0.024,-0.029
2.474,0.059,0.068,0.01,-0.063,0.024,0.039,0.215,0.42,0.229,-1.157,0.029,-0.029
2.476,0.068,0.073,0.005,-0.068,0.029,0.039,0.224,0.439,0.244,-1.142,0.034,-0.024
2.478,0.063,0.068,0.005,-0.063,0.029,0.034,0.224,0.454,0.254,-1.137,0.054,-0.01
2.48,0.068,0.068,0.0,-0.068,0.034,0.034,0.234,0.473,0.264,-1.118,0.059,-0.005
2.482,0.068,0.073,0.005,-0.068,0.029,0.039,0.234,0.478,0.273,-1.103,0.063,0.0
2.484,0.078,0.083,0.005,-0.078,0.034,0.044,0.234,0.483,0.288,-1.098,0.068,0.005
2.486,0.078,0.078,0.0,-0.078,0.039,0.039,0.239,0.478,0.288,-1.098,0.078,0.0
2.488,0.078,0.078,0.0,-0.078,0.039,0.039,0.239,0.488,0.298,-1.088,0.088,0.0
2.49,0.083,0.083,0.0,-0.083,0.039,0.039,0.239,0.498,0.303,-1.088,0.093,0.005
2.492,0.083,0.088,0.005,-0.083,0.039,0.044,0.239,0.503,0.303,-1.074,0.098,0.015
2.494,0.093,0.098,0.005,-0.093,0.044,0.049,0.244,0.522,0.312,-1.069,0.093,0.005
2.496,0.102,0.107,0.005,-0.102,0.049,0.054,0.254,0.532,0.327,-1.049,0.098,0.015
2.498,0.107,0.122,0.015,-0.112,0.044,0.068,0.259,0.537,0.337,-1.035,0.102,0.024
2.5,0.107,0.142,0.034,-0.122,0.034,0.088,0.264,0.537,0.342,-1.025,0.107,0.024
2.502,0.122,0.146,0.024,-0.132,0.049,0.083,0.278,0.551,0.361,-1.0,0.112,0.024
2.504,0.132,0.151,0.02,-0.142,0.054,0.083,0.278,0.566,0.371,-0.991,0.122,0.029
2.506,0.142,0.166,0.024,-0.151,0.059,0.093,0.283,0.576,0.381,-0.981,0.127,0.039
2.508,0.146,0.176,0.029,-0.161,0.059,0.102,0.293,0.576,0.39,-0.976,0.132,0.049
2.51,0.142,0.176,0.034,-0.156,0.054,0.102,0.283,0.561,0.386,-0.966,0.137,0.049
2.512,0.137,0.161,0.024,-0.146,0.054,0.093,0.273,0.561,0.39,-0.961,0.132,0.054
2.514,0.132,0.146,0.015,-0.137,0.059,0.078,0.259,0.571,0.39,-0.956,0.137,0.054
2.516,0.127,0.151,0.024,-0.137,0.049,0.088,0.244,0.571,0.39,-0.952,0.146,0.049
2.518,0.132,0.161,0.029,-0.146,0.049,0.093,0.249,0.571,0.386,-0.932,0.146,0.059
2.52,0.132,0.166,0.034,-0.146,0.049,0.098,0.254,0.571,0.39,-0.922,0.151,0.059
2.522,0.132,0.171,0.039,-0.151,0.044,0.102,0.259,0.566,0.395,-0.898,0.151,0.068
2.524,0.146,0.176,0.029,-0.161,0.059,0.102,0.254,0.561,0.395,-0.883,0.156,0.078
2.526,0.146,0.185,0.039,-0.166,0.054,0.112,0.264,0.571,0.395,-0.874,0.166,0.078
2.528,0.142,0.19,0.049,-0.166,0.044,0.117,0.268,0.561,0.395,-0.874,0.171,0.078
2.53,0.132,0.19,0.059,-0.161,0.034,0.122,0.268,0.556,0.395,-0.874,0.176,0.083
2.532,0.132,0.195,0.063,-0.161,0.034,0.127,0.259,0.547,0.386,-0.878,0.181,0.088
2.534,0.137,0.2,0.063,-0.166,0.034,0.132,0.254,0.542,0.386,-0.864,0.19,0.098
2.536,0.146,0.205,0.059,-0.176,0.044,0.132,0.239,0.527,0.386,-0.854,0.19,0.102
2.538,0.151,0.22,0.068,-0.185,0.039,0.142,0.239,0.522,0.39,-0.849,0.19,0.107
2.54,0.156,0.21,0.054,-0.181,0.049,0.132,0.239,0.512,0.381,-0.834,0.195,0.112
2.542,0.146,0.22,0.073,-0.181,0.034,0.146,0.224,0.488,0.356,-0.82,0.19,0.102
2.544,0.142,0.22,0.078,-0.181,0.029,0.146,0.215,0.464,0.351,-0.815,0.181,0.098
2.546,0.137,0.215,0.078,-0.176,0.029,0.146,0.2,0.444,0.332,-0.81,0.176,0.093
2.548,0.137,0.21,0.073,-0.171,0.029,0.142,0.181,0.429,0.317,-0.805,0.166,0.093
2.55,0.132,0.2,0.068,-0.166,0.029,0.132,0.181,0.415,0.307,-0.8,0.156,0.088
2.552,0.127,0.2,0.073,-0.161,0.024,0.137,0.171,0.39,0.298,-0.8,0.146,0.078
2.554,0.112,0.185,0.073,-0.146,0.02,0.127,0.166,0.371,0.278,-0.81,0.142,0.068
2.556,0.107,0.176,0.068,-0.142,0.02,0.122,0.156,0.351,0.264,-0.805,0.132,0.054
2.558,0.112,0.166,0.054,-0.137,0.029,0.107,0.142,0.342,0.249,-0.805,0.132,0.059
2.56,0.112,0.171,0.059,-0.142,0.024,0.112,0.137,0.322,0.234,-0.8,0.132,0.063
2.562,0.107,0.181,0.073,-0.142,0.015,0.127,0.137,0.303,0.215,-0.8,0.132,0.068
2.564,0.102,0.171,0.068,-0.137,0.015,0.117,0.122,0.288,0.2,-0.8,0.132,0.078
2.566,0.112,0.181,0.068,-0.146,0.02,0.122,0.117,0.264,0.185,-0.795,0.122,0.073
2.568,0.107,0.176,0.068,-0.142,0.02,0.122,0.107,0.234,0.166,-0.805,0.117,0.068
2.57,0.112,0.181,0.068,-0.146,0.02,0.122,0.107,0.224,0.156,-0.81,0.112,0.063
2.572,0.127,0.185,0.059,-0.156,0.034,0.122,0.107,0.21,0.142,-0.82,0.112,0.063
2.574,0.122,0.161,0.039,-0.142,0.039,0.098,0.098,0.19,0.127,-0.82,0.102,0.054
2.576,0.098,0.146,0.049,-0.122,0.024,0.098,0.098,0.185,0.102,-0.834,0.093,0.049
2.578,0.083,0.132,0.049,-0.107,0.015,0.088,0.088,0.171,0.088,-0.844,0.083,0.044
2.58,0.078,0.117,0.039,-0.098,0.02,0.078,0.083,0.156,0.073,-0.844,0.073,0.029
2.582,0.063,0.093,0.029,-0.078,0.015,0.059,0.078,0.122,0.049,-0.859,0.054,0.02
2.584,0.054,0.083,0.029,-0.068,0.01,0.054,0.063,0.107,0.02,-0.869,0.039,0.0
2.586,0.049,0.073,0.024,-0.059,0.01,0.049,0.054,0.098,0.005,-0.874,0.024,-0.01
2.588,0.044,0.063,0.02,-0.054,0.01,0.039,0.054,0.088,-0.005,-0.874,0.024,-0.01
2.59,0.044,0.063,0.02,-0.054,0.01,0.039,0.044,0.078,-0.02,-0.874,0.005,-0.01
2.592,0.034,0.063,0.029,-0.049,0.0,0.044,0.034,0.063,-0.029,-0.893,-0.005,-0.029
2.594,0.034,0.068,0.034,-0.049,0.0,0.049,0.029,0.063,-0.034,-0.908,-0.015,-0.034
2.596,0.029,0.068,0.039,-0.049,-0.005,0.054,0.024,0.044,-0.049,-0.927,-0.02,-0.039
2.598,0.024,0.068,0.044,-0.044,-0.01,0.054,0.034,0.024,-0.059,-0.932,-0.015,-0.039
2.6,0.024,0.063,0.039,-0.044,-0.01,0.049,0.034,0.01,-0.068,-0.932,-0.034,-0.049
2.602,0.029,0.063,0.034,-0.044,-0.005,0.049,0.034,0.005,-0.098,-0.932,-0.044,-0.059
2.604,0.029,0.063,0.034,-0.044,-0.005,0.049,0.029,-0.005,-0.112,-0.927,-0.049,-0.068
2.606,0.005,0.044,0.039,-0.024,-0.02,0.039,0.034,-0.01,-0.127,-0.932,-0.044,-0.078
2.608,0.005,0.039,0.034,-0.02,-0.015,0.034,0.034,-0.015,-0.132,-0.937,-0.059,-0.083
2.61,0.005,0.034,0.029,-0.02,-0.015,0.029,0.034,-0.015,-0.132,-0.942,-0.063,-0.083
2.612,0.005,0.02,0.015,-0.01,-0.005,0.015,0.034,-0.015,-0.137,-0.942,-0.073,-0.093
2.614,0.005,0.029,0.024,-0.015,-0.01,0.024,0.039,-0.01,-0.132,-0.932,-0.059,-0.083
2.616,0.015,0.034,0.02,-0.024,-0.005,0.024,0.039,-0.015,-0.137,-0.942,-0.059,-0.083
2.618,0.024,0.044,0.02,-0.034,0.0,0.029,0.039,-0.015,-0.146,-0.942,-0.059,-0.078
2.62,0.039,0.049,0.01,-0.044,0.015,0.029,0.034,-0.02,-0.151,-0.942,-0.054,-0.073
2.622,0.024,0.02,-0.005,-0.02,0.015,0.005,0.02,-0.039,-0.171,-0.942,-0.068,-0.083
2.624,0.005,0.01,0.005,-0.005,0.0,0.005,0.015,-0.049,-0.185,-0.961,-0.078,-0.093
2.626,-0.02,-0.005,0.015,0.015,-0.02,0.005,0.005,-0.054,-0.195,-0.971,-0.088,-0.102
2.628,-0.034,-0.024,0.01,0.029,-0.024,-0.01,-0.005,-0.054,-0.195,-0.971,-0.098,-0.107
2.63,-0.029,-0.02,0.01,0.024,-0.02,-0.005,0.0,-0.044,-0.185,-0.976,-0.098,-0.117
2.632,-0.024,-0.02,0.005,0.024,-0.015,-0.01,-0.005,-0.049,-0.185,-0.981,-0.098,-0.117
2.634,-0.02,-0.02,0.0,0.02,-0.01,-0.01,-0.005,-0.049,-0.185,-0.986,-0.102,-0.117
2.636,-0.015,-0.024,-0.01,0.02,-0.005,-0.02,0.005,-0.054,-0.185,-0.991,-0.102,-0.122
2.638,-0.015,-0.02,-0.005,0.02,-0.005,-0.015,0.0,-0.063,-0.195,-0.991,-0.093,-0.112
2.64,-0.015,-0.015,0.0,0.015,-0.01,-0.01,0.0,-0.063,-0.2,-0.991,-0.102,-0.112
2.642,-0.015,-0.01,0.005,0.015,-0.01,-0.005,-0.005,-0.063,-0.2,-0.991,-0.102,-0.117
2.644,-0.02,-0.005,0.015,0.015,-0.02,0.005,-0.005,-0.063,-0.21,-0.996,-0.102,-0.122
2.646,-0.02,-0.005,0.015,0.015,-0.02,0.005,0.005,-0.063,-0.215,-0.996,-0.112,-0.117
2.648,-0.024,-0.005,0.02,0.015,-0.024,0.005,0.005,-0.063,-0.215,-1.0,-0.112,-0.117
2.65,-0.024,-0.005,0.02,0.015,-0.024,0.005,0.01,-0.063,-0.215,-1.005,-0.112,-0.117
2.652,-0.024,-0.005,0.02,0.015,-0.024,0.005,0.015,-0.068,-0.215,-1.005,-0.112,-0.117
2.654,-0.024,-0.01,0.015,0.02,-0.02,0.0,0.015,-0.059,-0.215,-1.0,-0.122,-0.127
2.656,-0.024,-0.01,0.015,0.02,-0.02,0.0,0.01,-0.059,-0.215,-1.005,-0.122,-0.132
2.658,-0.02,-0.01,0.01,0.015,-0.015,0.0,0.005,-0.059,-0.215,-1.01,-0.117,-0.132
2.66,-0.02,-0.01,0.01,0.015,-0.015,0.0,0.005,-0.059,-0.215,-1.015,-0.112,-0.132
2.662,-0.024,-0.024,0.0,0.024,-0.015,-0.015,0.005,-0.059,-0.205,-1.015,-0.122,-0.142
2.664,-0.024,-0.029,-0.005,0.029,-0.01,-0.02,0.005,-0.068,-0.21,-1.02,-0.127,-0.142
2.666,-0.024,-0.029,-0.005,0.029,-0.01,-0.02,0.005,-0.068,-0.22,-1.015,-0.127,-0.142
2.668,-0.024,-0.034,-0.01,0.029,-0.01,-0.024,0.005,-0.063,-0.22,-1.01,-0.127,-0.142
2.67,-0.024,-0.039,-0.015,0.034,-0.005,-0.029,0.015,-0.063,-0.224,-1.02,-0.122,-0.151
2.672,-0.024,-0.039,-0.015,0.034,-0.005,-0.029,0.005,-0.063,-0.224,-1.025,-0.127,-0.151
2.674,-0.024,-0.039,-0.015,0.034,-0.005,-0.029,0.005,-0.068,-0.224,-1.025,-0.127,-0.151
2.676,-0.02,-0.039,-0.02,0.029,0.0,-0.029,0.005,-0.068,-0.22,-1.025,-0.127,-0.151
2.678,-0.005,-0.024,-0.02,0.015,0.005,-0.024,-0.005,-0.068,-0.22,-1.02,-0.117,-0.151
2.68,-0.005,-0.01,-0.005,0.01,0.0,-0.01,-0.005,-0.068,-0.22,-1.025,-0.117,-0.146
2.682,0.0,-0.005,-0.005,0.005,0.0,-0.005,-0.005,-0.068,-0.22,-1.025,-0.117,-0.146
2.684,0.0,0.01,0.01,-0.005,-0.005,0.01,0.0,-0.073,-0.22,-1.025,-0.117,-0.151
2.686,-0.01,-0.01,0.0,0.01,-0.005,-0.005,0.0,-0.073,-0.22,-1.025,-0.117,-0.151
2.688,-0.015,-0.015,0.0,0.015,-0.01,-0.01,0.005,-0.068,-0.22,-1.025,-0.117,-0.146
2.69,-0.015,-0.015,0.0,0.015,-0.01,-0.01,0.005,-0.063,-0.22,-1.025,-0.117,-0.142
2.692,-0.015,-0.005,0.01,0.01,-0.015,0.0,0.005,-0.063,-0.22,-1.025,-0.117,-0.137
2.694,0.0,-0.01,-0.01,0.005,0.005,-0.01,0.02,-0.049,-0.21,-1.02,-0.107,-0.132
2.696,0.0,-0.024,-0.024,0.015,0.01,-0.024,0.02,-0.044,-0.215,-1.015,-0.107,-0.132
2.698,-0.01,-0.044,-0.034,0.029,0.01,-0.039,0.024,-0.044,-0.215,-1.015,-0.102,-0.132
2.7,-0.02,-0.059,-0.039,0.039,0.01,-0.049,0.034,-0.044,-0.215,-1.015,-0.102,-0.132
2.702,-0.015,-0.039,-0.024,0.029,0.005,-0.034,0.034,-0.049,-0.215,-1.005,-0.117,-0.142
2.704,-0.015,-0.024,-0.01,0.02,-0.005,-0.02,0.024,-0.049,-0.215,-1.01,-0.117,-0.142
2.706,-0.02,-0.024,-0.005,0.024,-0.01,-0.015,0.015,-0.049,-0.215,-1.01,-0.107,-0.142
2.708,-0.024,-0.034,-0.01,0.029,-0.01,-0.024,0.005,-0.049,-0.215,-1.005,-0.117,-0.142
2.71,-0.034,-0.034,0.0,0.034,-0.02,-0.02,0.0,-0.049,-0.224,-1.01,-0.132,-0.146
2.712,-0.044,-0.034,0.01,0.039,-0.029,-0.015,0.0,-0.063,-0.234,-1.02,-0.137,-0.156
2.714,-0.044,-0.034,0.01,0.039,-0.029,-0.015,0.0,-0.063,-0.234,-1.03,-0.137,-0.161
2.716,-0.034,-0.034,0.0,0.034,-0.02,-0.02,0.0,-0.063,-0.229,-1.035,-0.137,-0.161
2.718,-0.024,-0.02,0.005,0.024,-0.015,-0.01,0.005,-0.054,-0.22,-1.035,-0.132,-0.151
2.72,-0.024,-0.015,0.01,0.02,-0.02,-0.005,0.005,-0.049,-0.22,-1.03,-0.127,-0.151
2.722,-0.015,-0.01,0.005,0.015,-0.01,-0.005,0.01,-0.044,-0.22,-1.03,-0.117,-0.151
2.724,-0.015,-0.005,0.01,0.01,-0.015,0.0,0.015,-0.039,-0.22,-1.03,-0.112,-0.151
2.726,-0.015,-0.005,0.01,0.01,-0.015,0.0,0.02,-0.029,-0.205,-1.03,-0.112,-0.146
2.728,-0.015,-0.005,0.01,0.01,-0.015,0.0,0.015,-0.029,-0.205,-1.025,-0.107,-0.142
2.73,-0.015,-0.01,0.005,0.015,-0.01,-0.005,0.02,-0.029,-0.205,-1.02,-0.107,-0.142
2.732,-0.015,-0.015,0.0,0.015,-0.01,-0.01,0.024,-0.029,-0.205,-1.015,-0.102,-0.142
2.734,-0.02,-0.024,-0.005,0.024,-0.01,-0.015,0.029,-0.034,-0.2,-1.02,-0.107,-0.142
2.736,-0.02,-0.029,-0.01,0.024,-0.005,-0.02,0.024,-0.034,-0.2,-1.025,-0.102,-0.137
2.738,-0.02,-0.029,-0.01,0.024,-0.005,-0.02,0.02,-0.039,-0.2,-1.025,-0.102,-0.137
2.74,-0.02,-0.029,-0.01,0.024,-0.005,-0.02,0.02,-0.044,-0.205,-1.025,-0.102,-0.137
2.742,-0.039,-0.039,0.0,0.039,-0.02,-0.02,0.01,-0.044,-0.195,-1.035,-0.098,-0.137
2.744,-0.029,-0.029,0.0,0.029,-0.015,-0.015,0.005,-0.039,-0.195,-1.035,-0.102,-0.137
2.746,-0.029,-0.02,0.01,0.024,-0.02,-0.005,0.005,-0.039,-0.195,-1.03,-0.102,-0.132
2.748,-0.015,-0.015,0.0,0.015,-0.01,-0.01,0.005,-0.044,-0.195,-1.025,-0.102,-0.132
2.75,-0.024,-0.024,0.0,0.024,-0.015,-0.015,0.01,-0.044,-0.195,-1.03,-0.112,-0.142
2.752,-0.029,-0.024,0.005,0.029,-0.02,-0.01,0.01,-0.044,-0.195,-1.03,-0.112,-0.142
2.754,-0.029,-0.029,0.0,0.029,-0.015,-0.015,0.015,-0.044,-0.195,-1.02,-0.107,-0.142
2.756,-0.029,-0.029,0.0,0.029,-0.015,-0.015,0.024,-0.034,-0.185,-1.02,-0.098,-0.142
2.758,-0.024,-0.024,0.0,0.024,-0.015,-0.015,0.029,-0.024,-0.185,-1.02,-0.098,-0.142
2.76,-0.015,-0.02,-0.005,0.02,-0.005,-0.015,0.034,-0.024,-0.181,-1.02,-0.098,-0.132
2.762,-0.01,-0.015,-0.005,0.015,-0.005,-0.01,0.039,-0.024,-0.181,-1.02,-0.093,-0.132
2.764,-0.005,-0.01,-0.005,0.01,0.0,-0.01,0.044,-0.02,-0.181,-1.02,-0.093,-0.132
2.766,-0.005,-0.005,0.0,0.005,-0.005,-0.005,0.034,-0.02,-0.171,-1.02,-0.083,-0.142
2.768,-0.01,0.0,0.01,0.005,-0.01,0.005,0.029,-0.02,-0.171,-1.01,-0.083,-0.132
2.77,-0.01,0.005,0.015,0.005,-0.015,0.01,0.02,-0.02,-0.171,-1.01,-0.073,-0.127
2.772,-0.005,0.01,0.015,0.0,-0.01,0.01,0.015,-0.02,-0.166,-1.015,-0.073,-0.127
2.774,0.0,0.005,0.005,0.0,-0.005,0.005,0.024,-0.01,-0.156,-1.025,-0.073,-0.127
2.776,0.0,0.005,0.005,0.0,-0.005,0.005,0.024,-0.01,-0.156,-1.03,-0.073,-0.122
2.778,0.0,0.0,0.0,0.0,0.0,0.0,0.024,-0.01,-0.156,-1.044,-0.068,-0.122
2.78,0.0,-0.005,-0.005,0.005,0.0,-0.005,0.029,-0.01,-0.156,-1.059,-0.063,-0.117
2.782,-0.01,-0.015,-0.005,0.015,-0.005,-0.01,0.024,-0.015,-0.156,-1.074,-0.073,-0.127
2.784,-0.01,-0.015,-0.005,0.015,-0.005,-0.01,0.024,-0.015,-0.156,-1.078,-0.078,-0.127
2.786,-0.024,-0.024,0.0,0.024,-0.015,-0.015,0.024,-0.015,-0.156,-1.078,-0.083,-0.132
2.788,-0.024,-0.024,0.0,0.024,-0.015,-0.015,0.015,-0.01,-0.156,-1.074,-0.083,-0.132
2.79,-0.024,-0.034,-0.01,0.029,-0.01,-0.024,0.015,-0.005,-0.156,-1.078,-0.083,-0.132
2.792,-0.02,-0.029,-0.01,0.024,-0.005,-0.02,0.02,-0.005,-0.156,-1.088,-0.083,-0.132
2.794,-0.02,-0.029,-0.01,0.024,-0.005,-0.02,0.024,-0.01,-0.156,-1.093,-0.083,-0.132
2.796,-0.024,-0.029,-0.005,0.029,-0.01,-0.02,0.029,-0.01,-0.156,-1.098,-0.088,-0.132
2.798,-0.02,-0.015,0.005,0.02,-0.015,-0.005,0.034,0.0,-0.161,-1.118,-0.093,-0.142
2.8,-0.015,-0.01,0.005,0.015,-0.01,-0.005,0.034,-0.005,-0.156,-1.118,-0.093,-0.142
2.802,-0.005,-0.005,0.0,0.005,-0.005,-0.005,0.034,-0.005,-0.156,-1.118,-0.083,-0.137
2.804,0.0,0.005,0.005,0.0,-0.005,0.005,0.039,-0.01,-0.161,-1.113,-0.083,-0.137
2.806,-0.005,0.005,0.01,0.0,-0.01,0.005,0.034,-0.015,-0.166,-1.122,-0.083,-0.132
2.808,-0.005,-0.01,-0.005,0.01,0.0,-0.01,0.029,-0.01,-0.161,-1.122,-0.083,-0.132
2.81,-0.005,-0.01,-0.005,0.01,0.0,-0.01,0.024,-0.005,-0.156,-1.127,-0.083,-0.132
2.812,-0.01,-0.01,0.0,0.01,-0.005,-0.005,0.02,0.0,-0.151,-1.137,-0.083,-0.132
2.814,-0.02,-0.015,0.005,0.02,-0.015,-0.005,0.02,-0.01,-0.142,-1.147,-0.083,-0.127
2.816,-0.02,-0.024,-0.005,0.024,-0.01,-0.015,0.024,-0.01,-0.146,-1.147,-0.083,-0.127
2.818,-0.02,-0.029,-0.01,0.024,-0.005,-0.02,0.029,-0.005,-0.146,-1.152,-0.083,-0.127
2.82,-0.024,-0.029,-0.005,0.029,-0.01,-0.02,0.029,-0.005,-0.146,-1.157,-0.088,-0.137
2.822,-0.015,-0.02,-0.005,0.02,-0.005,-0.015,0.039,0.005,-0.137,-1.152,-0.088,-0.146
2.824,-0.015,-0.02,-0.005,0.02,-0.005,-0.015,0.044,0.005,-0.137,-1.152,-0.088,-0.142
2.826,0.0,0.0,0.0,0.0,0.0,0.0,0.044,0.005,-0.137,-1.152,-0.083,-0.142
2.828,0.0,0.0,0.0,0.0,0.0,0.0,0.054,0.005,-0.137,-1.152,-0.078,-0.142
2.83,-0.005,0.0,0.005,0.005,-0.005,0.0,0.049,0.015,-0.137,-1.161,-0.088,-0.151
2.832,-0.005,-0.005,0.0,0.005,-0.005,-0.005,0.049,0.015,-0.146,-1.171,-0.088,-0.151
2.834,-0.005,-0.005,0.0,0.005,-0.005,-0.005,0.049,0.02,-0.146,-1.176,-0.088,-0.151
2.836,-0.005,-0.005,0.0,0.005,-0.005,-0.005,0.049,0.024,-0.142,-1.176,-0.088,-0.151
2.838,-0.015,-0.01,0.005,0.015,-0.01,-0.005,0.054,0.029,-0.132,-1.181,-0.083,-0.151
2.84,-0.015,-0.01,0.005,0.015,-0.01,-0.005,0.059,0.034,-0.132,-1.191,-0.078,-0.161
2.842,-0.02,-0.01,0.01,0.015,-0.015,0.0,0.063,0.034,-0.132,-1.196,-0.078,-0.161
2.844,-0.02,-0.01,0.01,0.015,-0.015,0.0,0.059,0.024,-0.137,-1.21,-0.078,-0.156
2.846,-0.015,-0.01,0.005,0.015,-0.01,-0.005,0.059,0.029,-0.132,-1.215,-0.088,-0.166
2.848,-0.015,-0.01,0.005,0.015,-0.01,-0.005,0.068,0.034,-0.127,-1.22,-0.088,-0.161
2.85,-0.015,-0.015,0.0,0.015,-0.01,-0.01,0.068,0.039,-0.122,-1.22,-0.088,-0.161
2.852,-0.024,-0.024,0.0,0.024,-0.015,-0.015,0.059,0.044,-0.122,-1.22,-0.102,-0.161
2.854,-0.024,-0.034,-0.01,0.029,-0.01,-0.024,0.063,0.044,-0.132,-1.22,-0.098,-0.161
2.856,-0.024,-0.024,0.0,0.024,-0.015,-0.015,0.063,0.044,-0.127,-1.225,-0.098,-0.161
2.858,-0.024,-0.034,-0.01,0.029,-0.01,-0.024,0.063,0.039,-0.127,-1.23,-0.088,-0.156
2.86,-0.024,-0.034,-0.01,0.029,-0.01,-0.024,0.063,0.034,-0.127,-1.23,-0.088,-0.156
2.862,-0.034,-0.034,0.0,0.034,-0.02,-0.02,0.073,0.044,-0.127,-1.23,-0.088,-0.151
2.864,-0.034,-0.039,-0.005,0.039,-0.015,-0.024,0.073,0.044,-0.127,-1.23,-0.088,-0.151
2.866,-0.034,-0.044,-0.01,0.039,-0.015,-0.029,0.073,0.049,-0.132,-1.23,-0.088,-0.151
2.868,-0.034,-0.049,-0.015,0.044,-0.01,-0.034,0.073,0.054,-0.132,-1.235,-0.093,-0.151
2.87,-0.02,-0.044,-0.024,0.034,0.0,-0.034,0.073,0.063,-0.132,-1.244,-0.078,-0.142
2.872,-0.015,-0.039,-0.024,0.029,0.005,-0.034,0.073,0.063,-0.127,-1.244,-0.068,-0.142
2.874,-0.01,-0.034,-0.024,0.024,0.005,-0.029,0.068,0.059,-0.122,-1.249,-0.063,-0.146
2.876,0.0,-0.029,-0.029,0.015,0.015,-0.029,0.068,0.059,-0.117,-1.254,-0.063,-0.146
2.878,-0.01,-0.02,-0.01,0.015,0.0,-0.015,0.073,0.063,-0.107,-1.259,-0.063,-0.146
2.88,-0.015,-0.024,-0.01,0.02,-0.005,-0.02,0.083,0.059,-0.112,-1.274,-0.063,-0.146
2.882,-0.015,-0.024,-0.01,0.02,-0.005,-0.02,0.088,0.059,-0.112,-1.279,-0.068,-0.151
2.884,-0.015,-0.024,-0.01,0.02,-0.005,-0.02,0.093,0.063,-0.112,-1.283,-0.073,-0.151
2.886,-0.02,-0.034,-0.015,0.029,-0.005,-0.024,0.102,0.068,-0.102,-1.293,-0.078,-0.151
2.888,-0.024,-0.024,0.0,0.024,-0.015,-0.015,0.102,0.073,-0.102,-1.303,-0.078,-0.151
2.89,-0.029,-0.039,-0.01,0.034,-0.01,-0.024,0.102,0.083,-0.102,-1.313,-0.073,-0.151
2.892,-0.029,-0.044,-0.015,0.039,-0.01,-0.029,0.102,0.088,-0.102,-1.313,-0.073,-0.151
2.894,-0.015,-0.044,-0.029,0.029,0.005,-0.039,0.093,0.078,-0.102,-1.318,-0.063,-0.156
2.896,-0.02,-0.039,-0.02,0.029,0.0,-0.029,0.088,0.078,-0.102,-1.332,-0.063,-0.156
2.898,-0.015,-0.034,-0.02,0.024,0.0,-0.029,0.088,0.078,-0.107,-1.337,-0.068,-0.166
2.9,-0.005,-0.029,-0.024,0.02,0.01,-0.029,0.088,0.078,-0.107,-1.342,-0.068,-0.166
2.902,-0.01,-0.029,-0.02,0.02,0.005,-0.024,0.088,0.088,-0.098,-1.347,-0.073,-0.161
2.904,-0.01,-0.024,-0.015,0.02,0.0,-0.02,0.083,0.083,-0.098,-1.352,-0.073,-0.161
2.906,-0.015,-0.024,-0.01,0.02,-0.005,-0.02,0.078,0.083,-0.098,-1.357,-0.073,-0.166
2.908,-0.02,-0.024,-0.005,0.024,-0.01,-0.015,0.068,0.083,-0.102,-1.371,-0.083,-0.171
2.91,-0.02,-0.024,-0.005,0.024,-0.01,-0.015,0.078,0.093,-0.098,-1.381,-0.073,-0.161
