time,I,II,III,aVR,aVL,aVF,V1,V2,V3,V4,V5,V6
0.0,-0.146,-0.117,0.029,0.132,-0.088,-0.044,0.239,0.102,-0.107,-0.21,-0.649,0.029
0.002,0.024,-0.049,-0.073,0.015,0.049,-0.063,0.239,0.088,-0.146,-0.224,-0.664,0.01
0.004,-0.015,-0.083,-0.068,0.049,0.024,-0.078,0.244,0.088,-0.156,-0.239,-0.683,-0.005
0.006,-0.063,-0.063,0.0,0.063,-0.034,-0.034,0.224,0.117,-0.137,-0.21,-0.659,0.024
0.008,-0.161,-0.117,0.044,0.142,-0.102,-0.039,0.239,0.117,-0.146,-0.224,-0.678,0.0
0.01,-0.151,-0.137,0.015,0.146,-0.083,-0.063,0.205,0.122,-0.142,-0.244,-0.688,-0.029
0.012,-0.068,-0.112,-0.044,0.093,-0.015,-0.078,0.19,0.102,-0.146,-0.249,-0.693,-0.039
0.014,-0.044,-0.122,-0.078,0.083,0.015,-0.102,0.181,0.093,-0.161,-0.259,-0.717,-0.063
0.016,-0.161,-0.122,0.039,0.142,-0.102,-0.044,0.215,0.127,-0.132,-0.224,-0.688,-0.029
0.018,-0.098,-0.083,0.015,0.093,-0.059,-0.034,0.171,0.137,-0.122,-0.224,-0.683,-0.039
0.02,-0.063,-0.093,-0.029,0.078,-0.02,-0.063,0.151,0.117,-0.112,-0.244,-0.703,-0.073
0.022,-0.068,-0.102,-0.034,0.088,-0.02,-0.068,0.151,0.117,-0.117,-0.239,-0.673,-0.063
0.024,-0.044,-0.083,-0.039,0.063,-0.005,-0.063,0.142,0.127,-0.093,-0.239,-0.654,-0.054
0.026,-0.059,-0.107,-0.049,0.083,-0.005,-0.078,0.137,0.122,-0.102,-0.254,-0.678,-0.059
0.028,-0.093,-0.117,-0.024,0.107,-0.034,-0.073,0.127,0.137,-0.073,-0.254,-0.698,-0.059
0.03,-0.127,-0.146,-0.02,0.137,-0.054,-0.083,0.122,0.127,-0.078,-0.273,-0.698,-0.068
0.032,-0.142,-0.156,-0.015,0.151,-0.063,-0.088,0.098,0.142,-0.088,-0.264,-0.683,-0.088
0.034,-0.093,-0.112,-0.02,0.102,-0.039,-0.068,0.137,0.171,-0.068,-0.234,-0.62,-0.078
0.036,-0.083,-0.107,-0.024,0.098,-0.029,-0.068,0.112,0.151,-0.073,-0.259,-0.625,-0.083
0.038,-0.029,-0.098,-0.068,0.063,0.02,-0.083,0.093,0.137,-0.098,-0.283,-0.659,-0.093
0.04,-0.005,-0.088,-0.083,0.049,0.039,-0.088,0.088,0.127,-0.083,-0.264,-0.659,-0.083
0.042,-0.083,-0.098,-0.015,0.093,-0.034,-0.059,0.063,0.161,-0.073,-0.259,-0.644,-0.068
0.044,-0.093,-0.117,-0.024,0.107,-0.034,-0.073,0.083,0.146,-0.059,-0.264,-0.649,-0.059
0.046,-0.024,-0.088,-0.063,0.059,0.02,-0.078,0.068,0.156,-0.029,-0.244,-0.634,-0.044
0.048,-0.102,-0.083,0.02,0.093,-0.063,-0.034,0.107,0.2,0.029,-0.21,-0.605,-0.02
0.05,-0.127,-0.029,0.098,0.078,-0.112,0.034,0.151,0.259,0.098,-0.156,-0.556,0.015
0.052,-0.137,-0.034,0.102,0.088,-0.122,0.034,0.107,0.259,0.137,-0.122,-0.547,0.02
0.054,-0.093,0.073,0.166,0.01,-0.132,0.117,0.107,0.307,0.254,0.02,-0.459,0.093
0.056,-0.068,0.195,0.264,-0.063,-0.166,0.229,0.151,0.41,0.444,0.22,-0.327,0.205
0.058,-0.088,0.2,0.288,-0.054,-0.19,0.244,0.132,0.517,0.625,0.434,-0.195,0.293
0.06,0.005,0.337,0.332,-0.171,-0.166,0.332,0.112,0.727,0.913,0.742,-0.005,0.434
0.062,0.073,0.415,0.342,-0.244,-0.137,0.376,0.098,0.976,1.22,1.069,0.195,0.581
0.064,0.044,0.508,0.464,-0.273,-0.21,0.483,0.156,1.244,1.576,1.454,0.464,0.786
0.066,0.029,0.566,0.537,-0.298,-0.254,0.551,0.156,1.488,1.928,1.845,0.737,0.981
0.068,0.224,0.737,0.512,-0.478,-0.146,0.625,0.146,1.801,2.342,2.298,1.0,1.205
0.07,0.278,0.747,0.468,-0.512,-0.098,0.605,0.137,2.133,2.713,2.645,1.196,1.362
0.072,0.317,0.786,0.468,-0.551,-0.078,0.625,0.161,2.45,3.065,2.977,1.386,1.527
0.074,0.493,0.971,0.478,-0.732,0.005,0.722,0.244,2.616,3.309,3.274,1.601,1.718
0.076,0.551,0.991,0.439,-0.771,0.054,0.712,0.215,2.503,3.377,3.445,1.732,1.835
0.078,0.625,1.0,0.376,-0.81,0.122,0.688,0.122,2.313,3.392,3.577,1.859,1.937
0.08,0.776,1.093,0.317,-0.932,0.229,0.703,0.093,2.079,3.328,3.709,2.035,2.079
0.082,0.956,1.274,0.317,-1.113,0.317,0.795,0.015,1.791,3.245,3.889,2.279,2.308
0.084,1.069,1.366,0.298,-1.215,0.386,0.83,-0.122,1.303,3.06,4.016,2.469,2.499
0.086,1.103,1.405,0.303,-1.254,0.4,0.854,-0.239,0.761,2.879,4.153,2.684,2.699
0.088,1.21,1.366,0.156,-1.288,0.527,0.761,-0.415,0.166,2.635,4.182,2.855,2.86
0.09,1.352,1.288,-0.063,-1.318,0.708,0.61,-0.639,-0.41,2.338,4.065,2.991,3.001
0.092,1.474,1.103,-0.371,-1.288,0.922,0.366,-0.82,-0.937,1.991,3.806,2.991,3.026
0.094,1.513,0.864,-0.649,-1.186,1.078,0.107,-0.844,-1.24,1.649,3.426,2.772,2.845
0.096,1.552,0.62,-0.932,-1.083,1.24,-0.156,-0.747,-1.415,1.337,2.982,2.42,2.542
0.098,1.396,0.268,-1.127,-0.83,1.259,-0.429,-0.703,-1.576,0.942,2.396,1.932,2.118
0.1,1.161,0.029,-1.132,-0.595,1.147,-0.551,-0.547,-1.62,0.503,1.723,1.322,1.63
0.102,0.942,-0.181,-1.122,-0.381,1.03,-0.654,-0.371,-1.747,-0.088,0.903,0.59,1.044
0.104,0.615,-0.376,-0.991,-0.117,0.8,-0.683,-0.205,-1.884,-0.756,0.034,-0.078,0.503
0.106,0.332,-0.478,-0.81,0.073,0.571,-0.644,-0.073,-1.903,-1.362,-0.761,-0.595,0.078
0.108,0.063,-0.605,-0.669,0.273,0.366,-0.639,-0.039,-1.83,-1.713,-1.371,-1.0,-0.283
0.11,-0.024,-0.547,-0.522,0.288,0.249,-0.537,-0.01,-1.698,-1.762,-1.645,-1.21,-0.488
0.112,-0.102,-0.503,-0.4,0.303,0.146,-0.454,-0.005,-1.503,-1.635,-1.62,-1.274,-0.571
0.114,-0.107,-0.444,-0.337,0.278,0.112,-0.39,-0.044,-1.342,-1.488,-1.513,-1.23,-0.581
0.116,-0.171,-0.449,-0.278,0.312,0.054,-0.366,-0.049,-1.176,-1.332,-1.396,-1.142,-0.556
0.118,-0.161,-0.425,-0.264,0.293,0.049,-0.346,-0.054,-1.01,-1.171,-1.283,-1.088,-0.537
0.12,-0.132,-0.371,-0.239,0.254,0.054,-0.307,-0.039,-0.83,-1.01,-1.166,-1.025,-0.503
0.122,-0.029,-0.249,-0.22,0.142,0.093,-0.234,0.088,-0.605,-0.839,-1.015,-0.893,-0.429
0.124,-0.156,-0.342,-0.185,0.249,0.015,-0.264,0.142,-0.468,-0.722,-0.952,-0.839,-0.425
0.126,-0.185,-0.371,-0.185,0.278,0.0,-0.278,0.127,-0.371,-0.649,-0.922,-0.81,-0.429
0.128,-0.137,-0.312,-0.176,0.224,0.02,-0.244,0.151,-0.264,-0.556,-0.839,-0.776,-0.4
0.13,-0.098,-0.21,-0.112,0.156,0.005,-0.161,0.244,-0.122,-0.42,-0.752,-0.732,-0.346
0.132,-0.117,-0.142,-0.024,0.132,-0.049,-0.083,0.298,0.0,-0.293,-0.659,-0.693,-0.288
0.134,-0.137,-0.161,-0.024,0.151,-0.059,-0.093,0.268,0.049,-0.239,-0.625,-0.708,-0.288
0.136,-0.122,-0.195,-0.073,0.161,-0.024,-0.137,0.264,0.073,-0.268,-0.61,-0.732,-0.298
0.138,-0.078,-0.156,-0.078,0.117,0.0,-0.117,0.283,0.132,-0.249,-0.571,-0.722,-0.283
0.14,-0.049,-0.146,-0.098,0.098,0.024,-0.122,0.239,0.102,-0.244,-0.576,-0.742,-0.283
0.142,-0.142,-0.2,-0.059,0.171,-0.044,-0.132,0.264,0.127,-0.244,-0.581,-0.742,-0.273
0.144,-0.142,-0.181,-0.039,0.161,-0.054,-0.112,0.264,0.151,-0.22,-0.581,-0.742,-0.264
0.146,-0.137,-0.166,-0.029,0.151,-0.054,-0.098,0.278,0.161,-0.21,-0.551,-0.722,-0.259
0.148,-0.068,-0.098,-0.029,0.083,-0.02,-0.063,0.288,0.19,-0.171,-0.512,-0.688,-0.249
0.15,-0.049,-0.044,0.005,0.049,-0.029,-0.02,0.303,0.21,-0.127,-0.429,-0.678,-0.22
0.152,-0.122,-0.112,0.01,0.117,-0.068,-0.054,0.303,0.181,-0.146,-0.39,-0.708,-0.249
0.154,-0.112,-0.098,0.015,0.107,-0.063,-0.044,0.312,0.176,-0.151,-0.332,-0.712,-0.259
0.156,-0.034,0.01,0.044,0.015,-0.039,0.024,0.327,0.215,-0.083,-0.259,-0.63,-0.2
0.158,-0.015,0.0,0.015,0.01,-0.015,0.005,0.317,0.19,-0.098,-0.249,-0.595,-0.195
0.16,-0.146,-0.117,0.029,0.132,-0.088,-0.044,0.273,0.142,-0.146,-0.254,-0.586,-0.22
0.162,-0.068,-0.073,-0.005,0.073,-0.034,-0.039,0.264,0.181,-0.127,-0.21,-0.566,-0.19
0.164,-0.132,-0.181,-0.049,0.156,-0.044,-0.117,0.195,0.156,-0.171,-0.249,-0.62,-0.234
0.166,-0.039,-0.102,-0.063,0.073,0.01,-0.083,0.181,0.166,-0.156,-0.244,-0.634,-0.234
0.168,-0.078,-0.112,-0.034,0.098,-0.024,-0.073,0.176,0.171,-0.156,-0.249,-0.654,-0.254
0.17,-0.034,-0.068,-0.034,0.054,0.0,-0.054,0.195,0.181,-0.122,-0.234,-0.654,-0.254
0.172,-0.127,-0.122,0.005,0.127,-0.068,-0.059,0.161,0.166,-0.132,-0.239,-0.669,-0.283
0.174,-0.181,-0.185,-0.005,0.185,-0.088,-0.098,0.142,0.137,-0.181,-0.268,-0.693,-0.322
0.176,-0.112,-0.127,-0.015,0.122,-0.049,-0.073,0.117,0.161,-0.176,-0.234,-0.678,-0.303
0.178,0.059,0.083,0.024,-0.068,0.015,0.054,0.195,0.195,-0.088,-0.166,-0.615,-0.224
0.18,0.039,0.005,-0.034,-0.02,0.034,-0.015,0.137,0.181,-0.146,-0.205,-0.659,-0.264
0.182,-0.078,-0.137,-0.059,0.107,-0.01,-0.098,0.073,0.161,-0.195,-0.249,-0.712,-0.303
0.184,-0.122,-0.132,-0.01,0.127,-0.059,-0.073,0.083,0.156,-0.176,-0.244,-0.683,-0.278
0.186,-0.078,-0.122,-0.044,0.102,-0.02,-0.083,0.102,0.161,-0.171,-0.288,-0.659,-0.293
0.188,0.029,-0.063,-0.093,0.02,0.059,-0.078,0.102,0.171,-0.181,-0.317,-0.62,-0.303
0.19,-0.054,-0.088,-0.034,0.073,-0.01,-0.063,0.102,0.195,-0.176,-0.322,-0.576,-0.293
0.192,-0.102,-0.083,0.02,0.093,-0.063,-0.034,0.127,0.205,-0.151,-0.298,-0.517,-0.273
0.194,-0.127,-0.112,0.015,0.122,-0.073,-0.049,0.117,0.19,-0.166,-0.303,-0.498,-0.278
0.196,-0.137,-0.132,0.005,0.137,-0.073,-0.063,0.117,0.171,-0.171,-0.307,-0.468,-0.273
0.198,-0.102,-0.102,0.0,0.102,-0.054,-0.054,0.146,0.19,-0.171,-0.312,-0.429,-0.244
0.2,-0.059,-0.088,-0.029,0.073,-0.015,-0.059,0.151,0.181,-0.195,-0.332,-0.415,-0.229
0.202,-0.039,-0.068,-0.029,0.054,-0.005,-0.049,0.156,0.2,-0.185,-0.327,-0.381,-0.2
0.204,-0.088,-0.098,-0.01,0.093,-0.039,-0.054,0.151,0.2,-0.176,-0.356,-0.366,-0.2
0.206,-0.107,-0.137,-0.029,0.122,-0.039,-0.083,0.117,0.171,-0.205,-0.395,-0.39,-0.229
0.208,-0.049,-0.059,-0.01,0.054,-0.02,-0.034,0.146,0.195,-0.181,-0.386,-0.351,-0.21
0.21,-0.102,-0.073,0.029,0.088,-0.068,-0.024,0.146,0.171,-0.176,-0.41,-0.342,-0.22
0.212,-0.093,-0.093,0.0,0.093,-0.049,-0.049,0.107,0.151,-0.195,-0.429,-0.346,-0.254
0.214,-0.034,-0.049,-0.015,0.044,-0.01,-0.034,0.137,0.156,-0.195,-0.415,-0.332,-0.249
0.216,-0.024,-0.015,0.01,0.02,-0.02,-0.005,0.151,0.166,-0.166,-0.415,-0.303,-0.239
0.218,-0.122,-0.102,0.02,0.112,-0.073,-0.044,0.161,0.142,-0.181,-0.439,-0.307,-0.249
0.22,-0.015,-0.039,-0.024,0.029,0.005,-0.034,0.176,0.151,-0.171,-0.434,-0.337,-0.239
0.222,-0.059,-0.093,-0.034,0.078,-0.015,-0.063,0.181,0.151,-0.205,-0.454,-0.366,-0.264
0.224,-0.137,-0.142,-0.005,0.142,-0.068,-0.073,0.181,0.156,-0.205,-0.483,-0.356,-0.273
0.226,-0.176,-0.151,0.024,0.166,-0.102,-0.063,0.19,0.156,-0.22,-0.503,-0.351,-0.278
0.228,-0.127,-0.127,0.0,0.127,-0.063,-0.063,0.195,0.166,-0.234,-0.508,-0.361,-0.273
0.23,-0.181,-0.137,0.044,0.161,-0.112,-0.049,0.215,0.185,-0.21,-0.498,-0.415,-0.268
0.232,-0.151,-0.117,0.034,0.137,-0.093,-0.044,0.215,0.181,-0.21,-0.508,-0.473,-0.293
0.234,-0.185,-0.156,0.029,0.171,-0.107,-0.063,0.19,0.181,-0.239,-0.512,-0.522,-0.312
0.236,-0.137,-0.117,0.02,0.127,-0.078,-0.049,0.21,0.171,-0.244,-0.512,-0.537,-0.298
0.238,-0.034,-0.054,-0.02,0.044,-0.01,-0.039,0.21,0.171,-0.259,-0.532,-0.537,-0.307
0.24,-0.063,-0.068,-0.005,0.068,-0.029,-0.039,0.215,0.166,-0.268,-0.542,-0.508,-0.317
0.242,-0.137,-0.102,0.034,0.122,-0.088,-0.034,0.229,0.171,-0.278,-0.537,-0.473,-0.307
0.244,-0.146,-0.112,0.034,0.132,-0.093,-0.039,0.298,0.19,-0.268,-0.537,-0.473,-0.303
0.246,-0.098,-0.083,0.015,0.093,-0.059,-0.034,0.303,0.205,-0.278,-0.566,-0.532,-0.317
0.248,-0.063,-0.024,0.039,0.044,-0.054,0.005,0.283,0.239,-0.259,-0.551,-0.522,-0.312
0.25,-0.161,-0.137,0.024,0.151,-0.093,-0.059,0.249,0.181,-0.303,-0.6,-0.542,-0.376
0.252,-0.171,-0.112,0.059,0.142,-0.117,-0.029,0.264,0.176,-0.303,-0.61,-0.512,-0.371
0.254,-0.142,-0.054,0.088,0.098,-0.117,0.015,0.303,0.19,-0.293,-0.576,-0.464,-0.337
0.256,-0.142,-0.049,0.093,0.098,-0.117,0.02,0.298,0.185,-0.259,-0.566,-0.425,-0.317
0.258,-0.166,-0.117,0.049,0.142,-0.107,-0.034,0.239,0.151,-0.293,-0.63,-0.464,-0.346
0.26,-0.2,-0.127,0.073,0.166,-0.137,-0.029,0.239,0.171,-0.303,-0.625,-0.508,-0.342
0.262,-0.127,-0.127,0.0,0.127,-0.063,-0.063,0.21,0.142,-0.342,-0.659,-0.576,-0.376
0.264,-0.132,-0.107,0.024,0.122,-0.078,-0.044,0.239,0.171,-0.327,-0.649,-0.595,-0.361
0.266,-0.107,-0.049,0.059,0.078,-0.083,0.005,0.259,0.215,-0.298,-0.61,-0.576,-0.337
0.268,-0.166,-0.137,0.029,0.151,-0.098,-0.054,0.19,0.156,-0.337,-0.644,-0.59,-0.371
0.27,-0.161,-0.068,0.093,0.117,-0.127,0.01,0.239,0.181,-0.288,-0.605,-0.508,-0.332
0.272,-0.098,-0.059,0.039,0.078,-0.068,-0.01,0.229,0.161,-0.303,-0.615,-0.498,-0.337
0.274,-0.166,-0.093,0.073,0.132,-0.122,-0.01,0.234,0.171,-0.298,-0.605,-0.508,-0.337
0.276,-0.102,-0.034,0.068,0.068,-0.088,0.015,0.239,0.171,-0.298,-0.576,-0.503,-0.307
0.278,-0.102,-0.059,0.044,0.083,-0.073,-0.01,0.195,0.127,-0.322,-0.595,-0.542,-0.317
0.28,-0.146,-0.112,0.034,0.132,-0.093,-0.039,0.171,0.093,-0.337,-0.61,-0.566,-0.342
0.282,-0.083,-0.063,0.02,0.073,-0.054,-0.024,0.205,0.112,-0.312,-0.571,-0.512,-0.312
0.284,-0.015,-0.01,0.005,0.015,-0.01,-0.005,0.215,0.146,-0.278,-0.566,-0.464,-0.303
0.286,-0.01,-0.005,0.005,0.01,-0.01,0.0,0.176,0.127,-0.307,-0.59,-0.449,-0.322
0.288,-0.068,-0.073,-0.005,0.073,-0.034,-0.039,0.156,0.093,-0.327,-0.615,-0.444,-0.342
0.29,-0.088,-0.049,0.039,0.068,-0.063,-0.005,0.19,0.098,-0.307,-0.6,-0.429,-0.332
0.292,-0.015,0.015,0.029,0.0,-0.024,0.02,0.142,0.102,-0.293,-0.581,-0.459,-0.327
0.294,-0.063,-0.044,0.02,0.054,-0.044,-0.015,0.093,0.098,-0.303,-0.571,-0.493,-0.342
0.296,-0.122,-0.107,0.015,0.117,-0.068,-0.049,0.049,0.073,-0.332,-0.59,-0.498,-0.346
0.298,-0.063,-0.088,-0.024,0.078,-0.02,-0.059,0.063,0.063,-0.332,-0.581,-0.488,-0.317
0.3,-0.044,-0.068,-0.024,0.059,-0.01,-0.049,0.083,0.073,-0.298,-0.537,-0.483,-0.288
0.302,-0.005,-0.078,-0.073,0.044,0.034,-0.078,0.083,0.078,-0.283,-0.537,-0.527,-0.298
0.304,0.059,-0.049,-0.107,-0.005,0.083,-0.078,0.078,0.098,-0.273,-0.547,-0.566,-0.317
0.306,-0.098,-0.127,-0.029,0.112,-0.034,-0.078,0.068,0.083,-0.298,-0.556,-0.59,-0.337
0.308,-0.088,-0.132,-0.044,0.112,-0.024,-0.088,0.02,0.078,-0.298,-0.542,-0.615,-0.371
0.31,-0.068,-0.122,-0.054,0.098,-0.01,-0.088,0.024,0.073,-0.259,-0.508,-0.644,-0.381
0.312,-0.005,-0.034,-0.029,0.02,0.01,-0.034,0.093,0.102,-0.234,-0.4,-0.615,-0.332
0.314,-0.063,-0.088,-0.024,0.078,-0.02,-0.059,0.059,0.083,-0.259,-0.351,-0.634,-0.351
0.316,-0.117,-0.132,-0.015,0.127,-0.054,-0.073,0.054,0.073,-0.249,-0.322,-0.634,-0.346
0.318,-0.088,-0.112,-0.024,0.102,-0.034,-0.068,0.054,0.073,-0.249,-0.283,-0.63,-0.337
0.32,0.01,-0.093,-0.102,0.044,0.054,-0.098,0.015,0.034,-0.278,-0.303,-0.634,-0.366
0.322,0.02,-0.054,-0.073,0.02,0.044,-0.063,0.049,0.044,-0.268,-0.278,-0.566,-0.346
0.324,-0.078,-0.107,-0.029,0.093,-0.024,-0.068,0.078,0.059,-0.254,-0.264,-0.512,-0.342
0.326,-0.034,-0.068,-0.034,0.054,0.0,-0.054,0.083,0.068,-0.259,-0.264,-0.473,-0.332
0.328,-0.039,-0.034,0.005,0.039,-0.024,-0.015,0.102,0.078,-0.229,-0.239,-0.454,-0.317
0.33,-0.068,-0.049,0.02,0.059,-0.044,-0.015,0.107,0.078,-0.195,-0.224,-0.459,-0.303
0.332,-0.063,-0.083,-0.02,0.073,-0.024,-0.054,0.107,0.054,-0.22,-0.234,-0.473,-0.312
0.334,-0.059,-0.093,-0.034,0.078,-0.015,-0.063,0.132,0.049,-0.2,-0.234,-0.439,-0.307
0.336,0.063,0.0,-0.063,-0.029,0.063,-0.034,0.137,0.078,-0.171,-0.215,-0.381,-0.278
0.338,-0.02,-0.107,-0.088,0.063,0.034,-0.098,0.083,0.01,-0.234,-0.288,-0.444,-0.317
0.34,-0.088,-0.122,-0.034,0.107,-0.029,-0.078,0.107,0.015,-0.21,-0.293,-0.478,-0.303
0.342,-0.049,-0.093,-0.044,0.073,-0.005,-0.068,0.137,0.049,-0.195,-0.283,-0.483,-0.293
0.344,0.049,-0.005,-0.054,-0.02,0.049,-0.029,0.195,0.083,-0.161,-0.259,-0.478,-0.264
0.346,-0.005,-0.083,-0.078,0.044,0.034,-0.083,0.176,0.054,-0.185,-0.303,-0.527,-0.317
0.348,0.01,-0.039,-0.049,0.015,0.029,-0.044,0.161,0.063,-0.156,-0.278,-0.527,-0.303
0.35,0.044,-0.015,-0.059,-0.015,0.049,-0.039,0.195,0.059,-0.132,-0.273,-0.547,-0.307
0.352,-0.102,-0.132,-0.029,0.117,-0.039,-0.083,0.2,0.034,-0.142,-0.312,-0.59,-0.351
0.354,-0.083,-0.117,-0.034,0.102,-0.024,-0.078,0.166,0.02,-0.122,-0.317,-0.61,-0.371
0.356,-0.034,-0.088,-0.054,0.063,0.01,-0.073,0.19,0.02,-0.137,-0.303,-0.605,-0.356
0.358,-0.024,-0.107,-0.083,0.068,0.029,-0.098,0.195,0.015,-0.156,-0.307,-0.61,-0.356
0.36,-0.034,-0.098,-0.063,0.068,0.015,-0.083,0.176,0.029,-0.137,-0.298,-0.61,-0.346
0.362,-0.024,-0.102,-0.078,0.063,0.024,-0.093,0.176,0.044,-0.117,-0.307,-0.615,-0.356
0.364,0.02,-0.093,-0.112,0.039,0.063,-0.102,0.19,0.039,-0.132,-0.322,-0.62,-0.366
0.366,-0.039,-0.078,-0.039,0.059,0.0,-0.059,0.239,0.059,-0.093,-0.278,-0.605,-0.342
0.368,-0.059,-0.107,-0.049,0.083,-0.005,-0.078,0.244,0.063,-0.068,-0.278,-0.625,-0.361
0.37,-0.093,-0.093,0.0,0.093,-0.049,-0.049,0.234,0.098,-0.044,-0.268,-0.62,-0.361
0.372,-0.112,-0.093,0.02,0.102,-0.068,-0.039,0.224,0.098,-0.044,-0.278,-0.615,-0.366
0.374,-0.029,-0.054,-0.024,0.044,-0.005,-0.039,0.249,0.073,-0.034,-0.283,-0.595,-0.371
0.376,-0.044,-0.073,-0.029,0.059,-0.01,-0.054,0.259,0.083,-0.049,-0.273,-0.537,-0.361
0.378,-0.093,-0.107,-0.015,0.102,-0.039,-0.063,0.234,0.083,-0.049,-0.273,-0.503,-0.351
0.38,-0.039,-0.073,-0.034,0.059,-0.005,-0.054,0.254,0.088,-0.01,-0.273,-0.532,-0.356
0.382,-0.02,-0.068,-0.049,0.044,0.015,-0.059,0.273,0.137,0.0,-0.254,-0.537,-0.356
0.384,0.049,-0.024,-0.073,-0.01,0.059,-0.049,0.283,0.137,-0.015,-0.249,-0.547,-0.346
0.386,-0.005,-0.073,-0.068,0.039,0.029,-0.073,0.259,0.117,-0.029,-0.268,-0.581,-0.381
0.388,-0.02,-0.093,-0.073,0.059,0.024,-0.083,0.229,0.132,-0.024,-0.259,-0.59,-0.395
0.39,-0.039,-0.044,-0.005,0.044,-0.02,-0.024,0.273,0.166,0.02,-0.229,-0.561,-0.366
0.392,0.034,-0.024,-0.059,-0.005,0.044,-0.044,0.234,0.151,0.015,-0.244,-0.581,-0.381
0.394,0.005,-0.039,-0.044,0.02,0.024,-0.044,0.249,0.151,0.024,-0.244,-0.581,-0.386
0.396,0.083,-0.054,-0.137,-0.015,0.107,-0.098,0.215,0.127,0.0,-0.264,-0.59,-0.42
0.398,-0.005,-0.078,-0.073,0.044,0.034,-0.078,0.205,0.151,0.015,-0.254,-0.571,-0.415
0.4,0.01,-0.039,-0.049,0.015,0.029,-0.044,0.229,0.156,0.029,-0.239,-0.547,-0.405
0.402,0.156,0.122,-0.034,-0.137,0.093,0.044,0.268,0.224,0.088,-0.19,-0.454,-0.342
0.404,-0.034,0.0,0.034,0.02,-0.034,0.015,0.259,0.229,0.078,-0.215,-0.464,-0.366
0.406,-0.005,-0.063,-0.059,0.034,0.024,-0.063,0.185,0.161,0.029,-0.259,-0.542,-0.439
0.408,-0.015,-0.049,-0.034,0.034,0.01,-0.044,0.166,0.176,0.034,-0.244,-0.517,-0.444
0.41,-0.059,-0.044,0.015,0.054,-0.039,-0.015,0.151,0.195,0.054,-0.224,-0.512,-0.439
0.412,0.073,0.054,-0.02,-0.063,0.044,0.015,0.146,0.224,0.078,-0.21,-0.517,-0.42
0.414,0.02,-0.029,-0.049,0.005,0.034,-0.039,0.132,0.195,0.068,-0.244,-0.551,-0.449
0.416,-0.049,-0.112,-0.063,0.083,0.005,-0.088,0.142,0.161,0.029,-0.268,-0.586,-0.473
0.418,0.01,-0.01,-0.02,0.0,0.015,-0.015,0.151,0.224,0.044,-0.224,-0.542,-0.425
0.42,0.063,0.049,-0.015,-0.054,0.039,0.015,0.166,0.224,0.044,-0.215,-0.537,-0.42
0.422,-0.02,-0.034,-0.015,0.029,-0.005,-0.024,0.142,0.185,0.024,-0.234,-0.561,-0.444
0.424,-0.01,-0.015,-0.005,0.015,-0.005,-0.01,0.117,0.19,0.01,-0.239,-0.571,-0.464
0.426,0.01,-0.024,-0.034,0.01,0.02,-0.029,0.107,0.2,0.015,-0.264,-0.586,-0.483
0.428,-0.039,-0.039,0.0,0.039,-0.02,-0.02,0.107,0.195,0.02,-0.268,-0.6,-0.508
0.43,-0.059,-0.029,0.029,0.044,-0.044,0.0,0.078,0.205,0.015,-0.264,-0.6,-0.498
0.432,-0.127,-0.068,0.059,0.098,-0.093,-0.005,0.078,0.2,0.02,-0.273,-0.605,-0.503
0.434,-0.093,-0.044,0.049,0.068,-0.073,0.0,0.083,0.22,0.039,-0.254,-0.586,-0.483
0.436,0.02,-0.01,-0.029,-0.005,0.024,-0.02,0.059,0.205,-0.01,-0.264,-0.6,-0.493
0.438,0.029,-0.078,-0.107,0.024,0.068,-0.093,0.029,0.156,-0.063,-0.327,-0.649,-0.537
0.44,0.098,-0.029,-0.127,-0.034,0.112,-0.078,0.039,0.171,-0.068,-0.327,-0.644,-0.542
0.442,0.015,-0.005,-0.02,-0.005,0.015,-0.015,0.063,0.224,-0.02,-0.283,-0.595,-0.488
0.444,0.054,0.015,-0.039,-0.034,0.044,-0.015,0.059,0.249,0.015,-0.278,-0.595,-0.493
0.446,0.102,0.083,-0.02,-0.093,0.059,0.029,0.093,0.273,0.029,-0.273,-0.59,-0.483
0.448,-0.059,-0.078,-0.02,0.068,-0.02,-0.049,0.088,0.205,-0.054,-0.342,-0.649,-0.551
0.45,-0.098,-0.122,-0.024,0.112,-0.039,-0.073,0.039,0.19,-0.078,-0.371,-0.673,-0.571
0.452,0.034,-0.049,-0.083,0.01,0.059,-0.068,0.054,0.195,-0.068,-0.361,-0.664,-0.566
0.454,0.01,-0.015,-0.024,0.005,0.015,-0.02,0.083,0.21,-0.039,-0.342,-0.644,-0.542
0.456,0.01,-0.024,-0.034,0.01,0.02,-0.029,0.054,0.185,-0.063,-0.351,-0.649,-0.547
0.458,0.049,-0.049,-0.098,0.0,0.073,-0.073,0.02,0.146,-0.078,-0.381,-0.669,-0.571
0.46,-0.039,-0.088,-0.049,0.063,0.005,-0.068,0.029,0.146,-0.083,-0.376,-0.664,-0.576
0.462,-0.098,-0.132,-0.034,0.117,-0.034,-0.083,0.054,0.142,-0.112,-0.4,-0.683,-0.595
0.464,-0.01,-0.049,-0.039,0.029,0.015,-0.044,0.073,0.166,-0.083,-0.376,-0.664,-0.571
0.466,-0.054,-0.073,-0.02,0.063,-0.02,-0.049,0.078,0.156,-0.102,-0.376,-0.678,-0.586
0.468,-0.005,-0.034,-0.029,0.02,0.01,-0.034,0.098,0.161,-0.083,-0.351,-0.683,-0.6
0.47,-0.102,-0.127,-0.024,0.117,-0.039,-0.078,0.049,0.137,-0.107,-0.322,-0.717,-0.63
0.472,-0.02,-0.049,-0.029,0.034,0.005,-0.039,0.059,0.151,-0.083,-0.229,-0.688,-0.605
0.474,0.034,0.0,-0.034,-0.015,0.034,-0.02,0.059,0.156,-0.078,-0.161,-0.673,-0.595
0.476,-0.005,-0.039,-0.034,0.024,0.015,-0.039,0.073,0.132,-0.102,-0.127,-0.688,-0.615
0.478,0.02,-0.049,-0.068,0.015,0.044,-0.059,0.059,0.117,-0.122,-0.142,-0.703,-0.63
0.48,-0.024,-0.093,-0.068,0.059,0.02,-0.083,0.049,0.117,-0.146,-0.146,-0.717,-0.649
0.482,-0.107,-0.142,-0.034,0.127,-0.039,-0.088,0.039,0.127,-0.146,-0.142,-0.727,-0.649
0.484,-0.049,-0.098,-0.049,0.073,0.0,-0.073,0.049,0.137,-0.127,-0.137,-0.717,-0.649
0.486,-0.02,-0.02,0.0,0.02,-0.01,-0.01,0.122,0.19,-0.063,-0.083,-0.673,-0.61
0.488,-0.054,-0.054,0.0,0.054,-0.029,-0.029,0.117,0.195,-0.078,-0.093,-0.698,-0.639
0.49,-0.068,-0.073,-0.005,0.073,-0.034,-0.039,0.122,0.21,-0.083,-0.093,-0.708,-0.63
0.492,-0.024,0.0,0.024,0.015,-0.024,0.01,0.161,0.244,-0.02,-0.073,-0.664,-0.6
0.494,-0.044,-0.044,0.0,0.044,-0.024,-0.024,0.132,0.22,-0.059,-0.098,-0.698,-0.639
0.496,-0.024,-0.059,-0.034,0.044,0.005,-0.049,0.093,0.195,-0.073,-0.112,-0.703,-0.649
0.498,-0.112,-0.034,0.078,0.073,-0.098,0.02,0.146,0.239,-0.049,-0.073,-0.673,-0.62
0.5,-0.083,-0.029,0.054,0.059,-0.068,0.01,0.161,0.254,-0.063,-0.073,-0.664,-0.625
0.502,0.059,0.01,-0.049,-0.034,0.054,-0.02,0.132,0.22,-0.107,-0.107,-0.688,-0.644
0.504,0.034,-0.073,-0.107,0.02,0.068,-0.093,0.093,0.195,-0.161,-0.156,-0.732,-0.693
0.506,0.029,-0.117,-0.146,0.044,0.088,-0.132,0.054,0.146,-0.195,-0.2,-0.766,-0.722
0.508,-0.088,-0.107,-0.02,0.098,-0.034,-0.063,0.098,0.19,-0.156,-0.161,-0.722,-0.688
0.51,-0.054,-0.068,-0.015,0.063,-0.02,-0.044,0.122,0.21,-0.122,-0.166,-0.708,-0.664
0.512,0.0,-0.039,-0.039,0.02,0.02,-0.039,0.107,0.224,-0.102,-0.176,-0.698,-0.659
0.514,0.044,-0.02,-0.063,-0.01,0.054,-0.044,0.102,0.254,-0.117,-0.185,-0.693,-0.659
0.516,0.024,-0.068,-0.093,0.024,0.059,-0.083,0.093,0.195,-0.127,-0.22,-0.703,-0.678
0.518,-0.088,-0.151,-0.063,0.122,-0.015,-0.107,0.078,0.176,-0.156,-0.254,-0.722,-0.698
0.52,0.015,-0.093,-0.107,0.039,0.059,-0.102,0.117,0.171,-0.156,-0.244,-0.708,-0.683
0.522,-0.044,-0.068,-0.024,0.059,-0.01,-0.049,0.146,0.215,-0.093,-0.2,-0.673,-0.654
0.524,-0.044,-0.073,-0.029,0.059,-0.01,-0.054,0.142,0.224,-0.083,-0.234,-0.669,-0.654
0.526,-0.083,-0.102,-0.02,0.093,-0.034,-0.063,0.122,0.22,-0.127,-0.244,-0.683,-0.669
0.528,-0.063,-0.102,-0.039,0.083,-0.015,-0.073,0.112,0.22,-0.127,-0.278,-0.698,-0.683
0.53,0.0,-0.068,-0.068,0.034,0.034,-0.068,0.107,0.195,-0.112,-0.293,-0.693,-0.683
0.532,-0.015,-0.098,-0.083,0.059,0.034,-0.093,0.098,0.176,-0.127,-0.303,-0.708,-0.698
0.534,-0.073,-0.137,-0.063,0.107,-0.005,-0.102,0.063,0.151,-0.151,-0.312,-0.727,-0.708
0.536,0.02,-0.054,-0.073,0.02,0.044,-0.063,0.107,0.171,-0.127,-0.298,-0.678,-0.683
0.538,0.078,0.005,-0.073,-0.039,0.073,-0.034,0.122,0.19,-0.102,-0.278,-0.654,-0.659
0.54,0.02,-0.083,-0.102,0.034,0.059,-0.093,0.039,0.151,-0.146,-0.303,-0.693,-0.688
0.542,0.068,-0.059,-0.127,-0.005,0.098,-0.093,0.059,0.161,-0.151,-0.307,-0.693,-0.683
0.544,0.049,-0.088,-0.137,0.02,0.093,-0.112,0.068,0.161,-0.166,-0.327,-0.698,-0.693
0.546,0.078,-0.078,-0.156,0.0,0.117,-0.117,0.049,0.171,-0.166,-0.332,-0.708,-0.703
0.548,0.059,0.0,-0.059,-0.029,0.059,-0.029,0.068,0.22,-0.107,-0.273,-0.669,-0.659
0.55,-0.005,-0.029,-0.024,0.02,0.01,-0.029,0.068,0.229,-0.088,-0.268,-0.669,-0.664
0.552,-0.034,-0.088,-0.054,0.063,0.01,-0.073,0.049,0.19,-0.102,-0.278,-0.688,-0.693
0.554,-0.093,-0.078,0.015,0.088,-0.054,-0.034,0.098,0.22,-0.068,-0.224,-0.673,-0.673
0.556,-0.107,-0.063,0.044,0.088,-0.078,-0.01,0.073,0.239,-0.015,-0.171,-0.649,-0.649
0.558,-0.142,-0.054,0.088,0.098,-0.117,0.015,0.049,0.254,0.034,-0.098,-0.615,-0.644
0.56,-0.107,0.073,0.181,0.02,-0.146,0.127,0.068,0.327,0.132,0.044,-0.512,-0.551
0.562,-0.059,0.19,0.249,-0.063,-0.156,0.22,0.073,0.415,0.259,0.215,-0.405,-0.459
0.564,-0.093,0.215,0.307,-0.059,-0.2,0.259,0.073,0.498,0.42,0.4,-0.307,-0.39
0.566,0.034,0.39,0.356,-0.21,-0.161,0.371,0.137,0.722,0.717,0.708,-0.117,-0.239
0.568,0.049,0.483,0.434,-0.264,-0.195,0.459,0.156,0.952,1.059,1.039,0.078,-0.088
0.57,0.044,0.478,0.434,-0.259,-0.195,0.454,0.137,1.152,1.352,1.337,0.259,0.039
0.572,0.176,0.63,0.454,-0.4,-0.142,0.542,0.127,1.396,1.703,1.747,0.542,0.273
0.574,0.2,0.688,0.488,-0.444,-0.146,0.586,0.107,1.688,2.064,2.162,0.815,0.483
0.576,0.293,0.752,0.459,-0.522,-0.083,0.605,0.127,2.045,2.43,2.557,1.049,0.664
0.578,0.41,0.854,0.444,-0.63,-0.02,0.649,0.181,2.333,2.777,2.918,1.283,0.849
0.58,0.542,1.005,0.464,-0.771,0.039,0.732,0.254,2.474,3.026,3.24,1.537,1.059
0.582,0.649,1.078,0.429,-0.864,0.107,0.752,0.249,2.406,3.109,3.455,1.728,1.225
0.584,0.737,1.157,0.42,-0.947,0.156,0.786,0.2,2.284,3.157,3.66,1.903,1.386
0.586,0.761,1.152,0.39,-0.956,0.185,0.771,0.107,2.045,3.089,3.792,2.054,1.537
0.588,0.825,1.2,0.376,-1.01,0.224,0.786,0.01,1.693,2.948,3.943,2.255,1.723
0.59,0.942,1.322,0.381,-1.132,0.278,0.849,-0.117,1.24,2.752,4.148,2.499,1.947
0.592,1.113,1.405,0.293,-1.259,0.41,0.849,-0.278,0.703,2.557,4.392,2.723,2.142
0.594,1.293,1.474,0.181,-1.381,0.556,0.825,-0.444,0.142,2.381,4.607,2.987,2.377
0.596,1.405,1.435,0.029,-1.42,0.688,0.732,-0.625,-0.395,2.147,4.641,3.187,2.572
0.598,1.415,1.21,-0.205,-1.313,0.81,0.503,-0.82,-0.869,1.845,4.465,3.221,2.606
0.6,1.518,1.015,-0.503,-1.264,1.01,0.254,-0.849,-1.166,1.542,4.172,3.06,2.479
0.602,1.464,0.654,-0.81,-1.059,1.137,-0.078,-0.825,-1.376,1.249,3.782,2.723,2.181
0.604,1.264,0.293,-0.971,-0.776,1.118,-0.342,-0.8,-1.508,0.942,3.274,2.269,1.791
0.606,1.181,0.117,-1.064,-0.649,1.122,-0.473,-0.634,-1.562,0.571,2.625,1.684,1.322
0.608,1.005,-0.015,-1.02,-0.493,1.01,-0.517,-0.41,-1.606,0.098,1.83,0.966,0.756
0.61,0.747,-0.229,-0.976,-0.259,0.859,-0.605,-0.273,-1.747,-0.532,0.888,0.161,0.117
0.612,0.381,-0.429,-0.81,0.024,0.595,-0.62,-0.2,-1.84,-1.171,-0.049,-0.498,-0.425
0.614,0.181,-0.454,-0.634,0.137,0.405,-0.547,-0.132,-1.796,-1.596,-0.776,-0.966,-0.8
0.616,-0.01,-0.508,-0.498,0.259,0.244,-0.503,-0.137,-1.708,-1.83,-1.264,-1.322,-1.108
0.618,-0.098,-0.498,-0.4,0.298,0.151,-0.449,-0.185,-1.527,-1.771,-1.371,-1.484,-1.269
0.62,-0.083,-0.41,-0.327,0.249,0.122,-0.371,-0.195,-1.337,-1.596,-1.283,-1.474,-1.279
0.622,-0.161,-0.42,-0.259,0.293,0.049,-0.342,-0.195,-1.176,-1.454,-1.176,-1.44,-1.274
0.624,-0.127,-0.39,-0.264,0.259,0.068,-0.327,-0.21,-1.0,-1.303,-1.083,-1.391,-1.249
0.626,-0.063,-0.351,-0.288,0.21,0.112,-0.322,-0.215,-0.839,-1.171,-0.986,-1.352,-1.23
0.628,-0.117,-0.312,-0.195,0.215,0.039,-0.254,-0.146,-0.659,-0.986,-0.844,-1.274,-1.161
0.63,-0.088,-0.293,-0.205,0.19,0.059,-0.249,-0.102,-0.512,-0.849,-0.766,-1.23,-1.122
0.632,-0.005,-0.215,-0.21,0.112,0.102,-0.215,-0.049,-0.386,-0.732,-0.693,-1.171,-1.069
0.634,-0.005,-0.185,-0.181,0.098,0.088,-0.185,-0.029,-0.278,-0.644,-0.634,-1.137,-1.039
0.636,-0.098,-0.239,-0.142,0.171,0.02,-0.19,-0.02,-0.181,-0.551,-0.61,-1.118,-1.025
0.638,-0.063,-0.195,-0.132,0.132,0.034,-0.166,0.044,-0.083,-0.464,-0.571,-1.088,-0.991
0.64,-0.02,-0.132,-0.112,0.078,0.044,-0.122,0.049,-0.005,-0.381,-0.517,-1.039,-0.952
0.642,-0.054,-0.117,-0.063,0.088,0.005,-0.093,0.068,0.054,-0.346,-0.478,-0.991,-0.903
0.644,-0.127,-0.151,-0.024,0.142,-0.054,-0.088,0.073,0.098,-0.337,-0.483,-0.981,-0.888
0.646,-0.151,-0.185,-0.034,0.171,-0.059,-0.112,0.063,0.093,-0.342,-0.493,-0.991,-0.898
0.648,-0.151,-0.137,0.015,0.146,-0.083,-0.063,0.122,0.132,-0.322,-0.459,-0.971,-0.869
0.65,-0.117,-0.098,0.02,0.107,-0.068,-0.039,0.137,0.151,-0.303,-0.459,-0.956,-0.869
0.652,-0.098,-0.127,-0.029,0.112,-0.034,-0.078,0.078,0.137,-0.337,-0.508,-0.996,-0.893
0.654,-0.078,-0.132,-0.054,0.107,-0.015,-0.093,0.078,0.122,-0.322,-0.517,-1.005,-0.913
0.656,-0.088,-0.146,-0.059,0.117,-0.015,-0.102,0.073,0.107,-0.312,-0.522,-1.005,-0.917
0.658,-0.078,-0.068,0.01,0.073,-0.044,-0.029,0.122,0.151,-0.303,-0.488,-0.966,-0.874
0.66,-0.024,-0.044,-0.02,0.034,-0.005,-0.034,0.102,0.127,-0.312,-0.493,-0.971,-0.888
0.662,-0.181,-0.161,0.02,0.171,-0.102,-0.073,0.083,0.112,-0.317,-0.498,-0.981,-0.898
0.664,-0.107,-0.142,-0.034,0.127,-0.039,-0.088,0.063,0.127,-0.307,-0.517,-0.981,-0.908
0.666,-0.088,-0.151,-0.063,0.122,-0.015,-0.107,0.044,0.127,-0.327,-0.527,-0.986,-0.927
0.668,-0.068,-0.107,-0.039,0.088,-0.015,-0.073,0.068,0.156,-0.303,-0.488,-0.956,-0.898
0.67,-0.059,-0.088,-0.029,0.073,-0.015,-0.059,0.093,0.166,-0.303,-0.498,-0.937,-0.888
0.672,-0.088,-0.151,-0.063,0.122,-0.015,-0.107,0.073,0.137,-0.317,-0.542,-0.971,-0.927
0.674,-0.063,-0.117,-0.054,0.093,-0.005,-0.088,0.093,0.156,-0.303,-0.527,-0.961,-0.917
0.676,-0.078,-0.156,-0.078,0.117,0.0,-0.117,0.034,0.127,-0.337,-0.556,-0.976,-0.942
0.678,-0.161,-0.156,0.005,0.161,-0.083,-0.078,0.039,0.127,-0.312,-0.551,-0.966,-0.942
0.68,-0.039,-0.024,0.015,0.034,-0.029,-0.005,0.093,0.171,-0.264,-0.493,-0.917,-0.893
0.682,-0.063,-0.093,-0.029,0.078,-0.02,-0.063,0.024,0.146,-0.312,-0.537,-0.966,-0.932
0.684,-0.073,-0.166,-0.093,0.122,0.01,-0.132,-0.005,0.093,-0.351,-0.581,-1.005,-0.966
0.686,-0.049,-0.112,-0.063,0.083,0.005,-0.088,0.02,0.122,-0.337,-0.556,-0.981,-0.932
0.688,-0.137,-0.137,0.0,0.137,-0.068,-0.068,0.039,0.142,-0.317,-0.556,-0.986,-0.932
0.69,-0.171,-0.185,-0.015,0.181,-0.078,-0.102,0.049,0.127,-0.322,-0.586,-1.005,-0.956
0.692,-0.19,-0.215,-0.024,0.205,-0.083,-0.122,0.034,0.107,-0.342,-0.61,-1.035,-0.981
0.694,-0.02,-0.132,-0.112,0.078,0.044,-0.122,0.049,0.127,-0.356,-0.6,-1.044,-0.981
0.696,-0.078,-0.107,-0.029,0.093,-0.024,-0.068,0.063,0.166,-0.317,-0.59,-1.015,-0.952
0.698,-0.176,-0.181,-0.005,0.181,-0.088,-0.093,0.049,0.142,-0.312,-0.615,-1.035,-0.961
0.7,-0.098,-0.146,-0.049,0.122,-0.024,-0.098,0.044,0.132,-0.332,-0.6,-1.044,-0.966
0.702,-0.005,-0.102,-0.098,0.054,0.044,-0.102,0.083,0.127,-0.332,-0.6,-1.039,-0.961
0.704,-0.117,-0.161,-0.044,0.142,-0.039,-0.102,0.098,0.142,-0.322,-0.605,-1.044,-0.961
0.706,-0.146,-0.146,0.0,0.146,-0.073,-0.073,0.093,0.151,-0.312,-0.595,-1.039,-0.942
0.708,-0.205,-0.195,0.01,0.2,-0.107,-0.093,0.102,0.156,-0.327,-0.61,-1.059,-0.947
0.71,-0.088,-0.122,-0.034,0.107,-0.029,-0.078,0.146,0.166,-0.337,-0.561,-1.03,-0.956
0.712,-0.029,-0.063,-0.034,0.049,0.0,-0.049,0.151,0.181,-0.312,-0.473,-0.937,-0.932
0.714,-0.22,-0.195,0.024,0.21,-0.122,-0.088,0.142,0.156,-0.322,-0.468,-0.893,-0.942
0.716,-0.22,-0.21,0.01,0.215,-0.117,-0.102,0.166,0.132,-0.346,-0.459,-0.839,-0.942
0.718,-0.127,-0.137,-0.01,0.132,-0.059,-0.073,0.19,0.132,-0.346,-0.444,-0.776,-0.922
0.72,-0.068,-0.107,-0.039,0.088,-0.015,-0.073,0.205,0.132,-0.342,-0.429,-0.732,-0.913
0.722,-0.015,-0.049,-0.034,0.034,0.01,-0.044,0.205,0.156,-0.322,-0.395,-0.659,-0.874
0.724,-0.156,-0.132,0.024,0.146,-0.093,-0.054,0.185,0.181,-0.327,-0.41,-0.615,-0.854
0.726,-0.127,-0.102,0.024,0.117,-0.078,-0.039,0.19,0.166,-0.332,-0.395,-0.59,-0.844
0.728,-0.205,-0.166,0.039,0.185,-0.122,-0.063,0.19,0.161,-0.332,-0.4,-0.566,-0.844
0.73,-0.2,-0.137,0.063,0.171,-0.132,-0.039,0.195,0.185,-0.317,-0.405,-0.517,-0.815
0.732,-0.107,-0.102,0.005,0.107,-0.059,-0.049,0.171,0.181,-0.322,-0.42,-0.512,-0.83
0.734,-0.215,-0.21,0.005,0.215,-0.112,-0.102,0.137,0.142,-0.361,-0.459,-0.522,-0.859
0.736,-0.146,-0.132,0.015,0.142,-0.083,-0.059,0.166,0.166,-0.337,-0.434,-0.478,-0.825
0.738,-0.137,-0.107,0.029,0.122,-0.083,-0.039,0.156,0.176,-0.337,-0.449,-0.454,-0.82
0.74,-0.117,-0.098,0.02,0.107,-0.068,-0.039,0.151,0.151,-0.346,-0.429,-0.429,-0.805
0.742,-0.146,-0.102,0.044,0.127,-0.098,-0.029,0.161,0.146,-0.342,-0.434,-0.4,-0.791
0.744,-0.195,-0.107,0.088,0.151,-0.142,-0.01,0.166,0.171,-0.332,-0.429,-0.366,-0.766
0.746,-0.171,-0.093,0.078,0.132,-0.127,-0.01,0.161,0.176,-0.332,-0.434,-0.346,-0.747
0.748,-0.161,-0.088,0.073,0.127,-0.117,-0.01,0.156,0.176,-0.342,-0.444,-0.337,-0.742
0.75,-0.278,-0.171,0.107,0.224,-0.195,-0.034,0.151,0.161,-0.356,-0.493,-0.346,-0.756
0.752,-0.19,-0.122,0.068,0.156,-0.132,-0.029,0.161,0.166,-0.327,-0.508,-0.337,-0.752
0.754,-0.059,-0.044,0.015,0.054,-0.039,-0.015,0.142,0.171,-0.327,-0.508,-0.312,-0.742
0.756,-0.127,-0.083,0.044,0.107,-0.088,-0.02,0.107,0.171,-0.351,-0.542,-0.312,-0.742
0.758,-0.244,-0.156,0.088,0.2,-0.166,-0.034,0.093,0.156,-0.371,-0.571,-0.307,-0.742
0.76,-0.195,-0.098,0.098,0.146,-0.146,0.0,0.102,0.171,-0.356,-0.556,-0.264,-0.712
0.762,-0.063,-0.039,0.024,0.054,-0.044,-0.01,0.102,0.156,-0.356,-0.576,-0.249,-0.693
0.764,-0.098,-0.073,0.024,0.088,-0.063,-0.024,0.093,0.132,-0.366,-0.61,-0.244,-0.688
0.766,-0.224,-0.132,0.093,0.181,-0.161,-0.02,0.117,0.132,-0.356,-0.615,-0.234,-0.673
0.768,-0.137,-0.088,0.049,0.112,-0.093,-0.02,0.107,0.132,-0.371,-0.615,-0.224,-0.659
0.77,-0.161,-0.122,0.039,0.142,-0.102,-0.044,0.049,0.122,-0.381,-0.639,-0.22,-0.649
0.772,-0.146,-0.073,0.073,0.112,-0.112,0.0,0.068,0.151,-0.342,-0.62,-0.181,-0.63
0.774,-0.117,-0.054,0.063,0.088,-0.093,0.005,0.088,0.146,-0.312,-0.615,-0.166,-0.61
0.776,-0.171,-0.093,0.078,0.132,-0.127,-0.01,0.059,0.117,-0.327,-0.615,-0.156,-0.6
0.778,-0.132,-0.015,0.117,0.073,-0.127,0.049,0.073,0.142,-0.317,-0.551,-0.093,-0.547
0.78,-0.181,-0.083,0.098,0.132,-0.142,0.005,0.078,0.117,-0.332,-0.542,-0.093,-0.566
0.782,-0.073,-0.039,0.034,0.059,-0.054,-0.005,0.049,0.098,-0.332,-0.542,-0.078,-0.556
0.784,-0.112,-0.088,0.024,0.102,-0.068,-0.034,0.02,0.098,-0.337,-0.551,-0.078,-0.566
0.786,-0.19,-0.181,0.01,0.185,-0.102,-0.088,-0.01,0.093,-0.371,-0.571,-0.088,-0.586
0.788,-0.112,-0.107,0.005,0.112,-0.059,-0.054,0.005,0.107,-0.342,-0.532,-0.054,-0.556
0.79,-0.063,-0.078,-0.015,0.073,-0.024,-0.049,0.029,0.078,-0.317,-0.537,-0.044,-0.556
0.792,-0.137,-0.137,0.0,0.137,-0.068,-0.068,0.015,0.068,-0.337,-0.566,-0.054,-0.576
0.794,0.005,-0.015,-0.02,0.005,0.01,-0.02,0.034,0.088,-0.307,-0.522,-0.01,-0.542
0.796,-0.063,-0.059,0.005,0.063,-0.034,-0.029,0.024,0.068,-0.307,-0.522,0.0,-0.537
0.798,-0.088,-0.122,-0.034,0.107,-0.029,-0.078,-0.029,0.029,-0.327,-0.556,-0.015,-0.566
0.8,-0.054,-0.093,-0.039,0.073,-0.01,-0.068,-0.015,0.034,-0.327,-0.537,0.01,-0.551
0.802,-0.229,-0.166,0.063,0.2,-0.146,-0.054,0.024,0.039,-0.317,-0.517,0.034,-0.537
0.804,-0.19,-0.161,0.029,0.176,-0.112,-0.068,0.015,0.044,-0.312,-0.512,0.039,-0.537
0.806,-0.078,-0.132,-0.054,0.107,-0.015,-0.093,0.02,0.034,-0.322,-0.537,0.034,-0.542
0.808,-0.063,-0.098,-0.034,0.083,-0.015,-0.068,0.015,0.034,-0.293,-0.522,0.068,-0.522
0.81,-0.063,-0.068,-0.005,0.068,-0.029,-0.039,0.049,0.059,-0.273,-0.493,0.093,-0.503
0.812,-0.102,-0.078,0.024,0.093,-0.063,-0.029,0.083,0.073,-0.259,-0.498,0.102,-0.498
0.814,-0.098,-0.073,0.024,0.088,-0.063,-0.024,0.073,0.073,-0.264,-0.508,0.107,-0.498
0.816,-0.068,-0.059,0.01,0.063,-0.039,-0.024,0.063,0.068,-0.244,-0.498,0.122,-0.478
0.818,-0.005,-0.015,-0.01,0.01,0.0,-0.015,0.112,0.078,-0.224,-0.444,0.151,-0.464
0.82,0.015,-0.01,-0.024,0.0,0.02,-0.02,0.107,0.068,-0.244,-0.449,0.151,-0.468
0.822,-0.044,-0.112,-0.068,0.078,0.01,-0.093,0.024,0.0,-0.283,-0.508,0.122,-0.498
0.824,-0.01,-0.093,-0.083,0.054,0.034,-0.088,0.044,0.01,-0.273,-0.493,0.151,-0.478
0.826,-0.029,-0.063,-0.034,0.049,0.0,-0.049,0.073,0.063,-0.249,-0.449,0.205,-0.429
0.828,-0.102,-0.098,0.005,0.102,-0.054,-0.049,0.059,0.049,-0.244,-0.405,0.19,-0.425
0.83,-0.083,-0.146,-0.063,0.117,-0.01,-0.107,0.049,0.01,-0.268,-0.366,0.161,-0.454
0.832,0.01,-0.093,-0.102,0.044,0.054,-0.098,0.044,0.039,-0.239,-0.307,0.171,-0.444
0.834,0.02,0.0,-0.02,-0.01,0.02,-0.01,0.088,0.083,-0.195,-0.224,0.234,-0.376
0.836,-0.024,-0.054,-0.029,0.039,0.0,-0.044,0.083,0.063,-0.22,-0.22,0.2,-0.381
0.838,-0.063,-0.054,0.01,0.059,-0.039,-0.024,0.122,0.059,-0.205,-0.19,0.132,-0.366
0.84,-0.107,-0.098,0.01,0.102,-0.059,-0.044,0.117,0.039,-0.205,-0.176,0.112,-0.376
0.842,-0.073,-0.093,-0.02,0.083,-0.029,-0.059,0.093,0.02,-0.215,-0.166,0.142,-0.376
0.844,-0.083,-0.093,-0.01,0.088,-0.039,-0.054,0.059,0.029,-0.229,-0.151,0.166,-0.361
0.846,-0.088,-0.098,-0.01,0.093,-0.039,-0.054,0.044,0.015,-0.229,-0.146,0.181,-0.351
0.848,-0.078,-0.117,-0.039,0.098,-0.02,-0.078,0.029,0.0,-0.239,-0.161,0.176,-0.366
0.85,0.034,-0.029,-0.063,0.0,0.049,-0.049,0.034,0.024,-0.21,-0.142,0.205,-0.337
0.852,-0.063,-0.044,0.02,0.054,-0.044,-0.015,0.073,0.049,-0.171,-0.117,0.244,-0.298
0.854,-0.102,-0.098,0.005,0.102,-0.054,-0.049,0.059,0.024,-0.176,-0.137,0.229,-0.332
0.856,-0.098,-0.122,-0.024,0.112,-0.039,-0.073,0.029,0.01,-0.2,-0.146,0.234,-0.332
0.858,-0.029,-0.034,-0.005,0.034,-0.015,-0.02,0.024,0.034,-0.156,-0.102,0.278,-0.293
0.86,0.0,-0.039,-0.039,0.02,0.02,-0.039,0.039,0.034,-0.161,-0.107,0.288,-0.293
0.862,-0.093,-0.117,-0.024,0.107,-0.034,-0.073,0.034,-0.015,-0.185,-0.132,0.273,-0.312
0.864,0.005,-0.024,-0.029,0.01,0.015,-0.029,0.088,0.015,-0.156,-0.102,0.307,-0.273
0.866,0.088,0.063,-0.024,-0.073,0.054,0.02,0.102,0.068,-0.112,-0.059,0.351,-0.234
0.868,0.063,0.024,-0.039,-0.044,0.049,-0.01,0.083,0.039,-0.137,-0.083,0.327,-0.264
0.87,-0.044,-0.063,-0.02,0.054,-0.015,-0.044,0.083,0.015,-0.166,-0.102,0.303,-0.293
0.872,-0.083,-0.088,-0.005,0.088,-0.039,-0.049,0.093,0.0,-0.166,-0.117,0.312,-0.303
0.874,-0.068,-0.083,-0.015,0.078,-0.029,-0.049,0.102,0.0,-0.151,-0.132,0.303,-0.312
0.876,-0.005,-0.034,-0.029,0.02,0.01,-0.034,0.117,0.01,-0.137,-0.122,0.317,-0.303
0.878,-0.024,0.005,0.029,0.01,-0.029,0.015,0.102,0.01,-0.112,-0.107,0.342,-0.278
0.88,-0.024,0.015,0.039,0.005,-0.034,0.024,0.146,0.01,-0.088,-0.098,0.366,-0.259
0.882,0.005,0.005,0.0,-0.005,0.0,0.0,0.107,0.01,-0.098,-0.117,0.361,-0.268
0.884,0.044,-0.005,-0.049,-0.02,0.044,-0.029,0.068,0.0,-0.112,-0.161,0.346,-0.283
0.886,0.0,-0.02,-0.02,0.01,0.01,-0.02,0.078,0.0,-0.102,-0.171,0.356,-0.268
0.888,-0.044,-0.034,0.01,0.039,-0.029,-0.015,0.054,0.034,-0.098,-0.181,0.366,-0.259
0.89,-0.015,-0.01,0.005,0.015,-0.01,-0.005,0.063,0.024,-0.078,-0.185,0.381,-0.254
0.892,-0.01,-0.034,-0.024,0.024,0.005,-0.029,0.049,-0.015,-0.098,-0.22,0.361,-0.273
0.894,0.02,-0.029,-0.049,0.005,0.034,-0.039,0.005,-0.02,-0.088,-0.224,0.361,-0.278
0.896,-0.039,-0.054,-0.015,0.049,-0.015,-0.034,0.01,-0.034,-0.083,-0.224,0.361,-0.278
0.898,-0.01,-0.005,0.005,0.01,-0.01,0.0,0.005,-0.015,-0.073,-0.185,0.39,-0.254
0.9,-0.015,-0.015,0.0,0.015,-0.01,-0.01,0.0,-0.024,-0.083,-0.166,0.361,-0.259
0.902,0.015,-0.015,-0.029,0.0,0.02,-0.024,0.02,-0.044,-0.088,-0.166,0.278,-0.268
0.904,-0.029,-0.073,-0.044,0.054,0.005,-0.059,0.015,-0.063,-0.112,-0.195,0.249,-0.283
0.906,-0.02,-0.029,-0.01,0.024,-0.005,-0.02,0.034,-0.024,-0.088,-0.171,0.288,-0.273
0.908,-0.02,-0.063,-0.044,0.044,0.01,-0.054,0.0,-0.029,-0.098,-0.205,0.293,-0.283
0.91,-0.142,-0.107,0.034,0.127,-0.088,-0.039,-0.039,-0.01,-0.102,-0.21,0.332,-0.259
0.912,-0.102,-0.088,0.015,0.098,-0.059,-0.039,-0.063,-0.005,-0.098,-0.22,0.337,-0.259
0.914,-0.029,-0.044,-0.015,0.039,-0.01,-0.029,-0.054,-0.01,-0.088,-0.21,0.356,-0.259
0.916,-0.01,0.0,0.01,0.005,-0.01,0.005,-0.034,0.005,-0.068,-0.185,0.366,-0.244
0.918,-0.039,0.044,0.083,0.0,-0.063,0.063,-0.029,0.034,-0.029,-0.156,0.332,-0.215
0.92,-0.073,-0.01,0.063,0.044,-0.068,0.024,-0.034,0.015,-0.054,-0.171,0.298,-0.229
0.922,-0.107,-0.107,0.0,0.107,-0.054,-0.054,-0.073,-0.039,-0.107,-0.21,0.278,-0.288
0.924,-0.005,-0.044,-0.039,0.024,0.015,-0.044,-0.078,-0.029,-0.117,-0.2,0.303,-0.283
0.926,0.015,0.024,0.01,-0.02,0.0,0.015,-0.054,0.005,-0.083,-0.176,0.346,-0.254
0.928,-0.117,-0.044,0.073,0.083,-0.098,0.015,-0.034,0.039,-0.068,-0.171,0.371,-0.239
0.93,-0.049,-0.024,0.024,0.039,-0.039,0.0,-0.01,0.034,-0.063,-0.2,0.371,-0.259
0.932,-0.034,-0.01,0.024,0.024,-0.029,0.005,0.02,0.029,-0.068,-0.215,0.381,-0.264
0.934,-0.005,0.02,0.024,-0.005,-0.015,0.02,0.01,0.015,-0.068,-0.22,0.39,-0.268
0.936,-0.015,0.0,0.015,0.01,-0.015,0.005,-0.015,0.005,-0.073,-0.239,0.386,-0.288
0.938,0.01,0.01,0.0,-0.01,0.005,0.005,-0.015,-0.005,-0.078,-0.249,0.395,-0.288
0.94,-0.063,-0.044,0.02,0.054,-0.044,-0.015,-0.02,-0.02,-0.093,-0.264,0.386,-0.298
0.942,-0.054,-0.02,0.034,0.039,-0.044,0.005,0.005,0.005,-0.078,-0.254,0.4,-0.298
0.944,-0.024,-0.039,-0.015,0.034,-0.005,-0.029,0.0,-0.015,-0.107,-0.283,0.381,-0.317
0.946,-0.044,-0.01,0.034,0.029,-0.039,0.01,0.029,0.0,-0.093,-0.229,0.41,-0.307
0.948,-0.029,-0.02,0.01,0.024,-0.02,-0.005,0.049,0.02,-0.107,-0.176,0.405,-0.312
0.95,-0.01,-0.034,-0.024,0.024,0.005,-0.029,0.034,0.01,-0.127,-0.146,0.395,-0.317
0.952,-0.034,-0.078,-0.044,0.059,0.005,-0.063,0.0,-0.02,-0.156,-0.166,0.366,-0.342
0.954,0.039,-0.068,-0.107,0.015,0.073,-0.088,0.005,-0.029,-0.185,-0.176,0.293,-0.366
0.956,0.034,-0.024,-0.059,-0.005,0.044,-0.044,0.034,0.015,-0.161,-0.142,0.278,-0.342
0.958,-0.117,-0.054,0.063,0.088,-0.093,0.005,0.024,0.015,-0.151,-0.117,0.322,-0.312
0.96,-0.107,-0.054,0.054,0.083,-0.083,0.0,0.034,0.005,-0.151,-0.107,0.342,-0.307
0.962,-0.039,-0.029,0.01,0.034,-0.024,-0.01,0.063,-0.015,-0.142,-0.107,0.361,-0.307
0.964,-0.107,-0.098,0.01,0.102,-0.059,-0.044,0.015,-0.039,-0.185,-0.122,0.356,-0.322
0.966,-0.073,-0.059,0.015,0.068,-0.044,-0.024,0.005,-0.039,-0.185,-0.127,0.366,-0.317
0.968,0.005,-0.024,-0.029,0.01,0.015,-0.029,0.02,-0.034,-0.171,-0.142,0.371,-0.312
0.97,-0.015,-0.024,-0.01,0.02,-0.005,-0.02,0.068,-0.029,-0.181,-0.151,0.376,-0.307
0.972,-0.01,0.005,0.015,0.005,-0.015,0.01,0.063,-0.005,-0.19,-0.151,0.395,-0.293
0.974,-0.054,-0.098,-0.044,0.078,-0.005,-0.073,0.02,-0.049,-0.244,-0.205,0.351,-0.342
0.976,-0.142,-0.122,0.02,0.132,-0.083,-0.054,0.02,-0.059,-0.239,-0.21,0.366,-0.322
0.978,-0.102,-0.083,0.02,0.093,-0.063,-0.034,0.015,-0.054,-0.229,-0.205,0.381,-0.303
0.98,-0.059,-0.063,-0.005,0.063,-0.029,-0.034,-0.005,-0.063,-0.234,-0.205,0.386,-0.288
0.982,-0.005,-0.044,-0.039,0.024,0.015,-0.044,0.015,-0.063,-0.234,-0.22,0.395,-0.288
0.984,-0.02,-0.044,-0.024,0.034,0.0,-0.034,0.015,-0.054,-0.239,-0.215,0.405,-0.273
0.986,-0.068,-0.078,-0.01,0.073,-0.029,-0.044,-0.005,-0.054,-0.249,-0.229,0.415,-0.268
0.988,-0.112,-0.107,0.005,0.112,-0.059,-0.054,-0.01,-0.054,-0.249,-0.234,0.42,-0.268
0.99,-0.044,-0.102,-0.059,0.073,0.005,-0.083,-0.039,-0.063,-0.259,-0.264,0.386,-0.283
0.992,-0.049,-0.083,-0.034,0.068,-0.01,-0.059,-0.034,-0.059,-0.244,-0.259,0.395,-0.278
0.994,-0.054,-0.044,0.01,0.049,-0.034,-0.02,-0.029,-0.049,-0.205,-0.239,0.415,-0.264
0.996,-0.088,-0.083,0.005,0.088,-0.049,-0.039,-0.034,-0.054,-0.22,-0.259,0.4,-0.278
0.998,0.0,-0.034,-0.034,0.02,0.015,-0.034,-0.034,-0.049,-0.205,-0.244,0.415,-0.278
1.0,-0.005,-0.063,-0.059,0.034,0.024,-0.063,-0.059,-0.068,-0.224,-0.283,0.39,-0.307
1.002,0.034,-0.063,-0.098,0.015,0.063,-0.083,-0.054,-0.063,-0.229,-0.298,0.381,-0.317
1.004,0.034,-0.054,-0.088,0.01,0.059,-0.073,-0.049,-0.049,-0.224,-0.298,0.395,-0.307
1.006,0.044,-0.034,-0.078,-0.005,0.059,-0.059,-0.034,-0.044,-0.215,-0.298,0.4,-0.293
1.008,-0.049,-0.102,-0.054,0.078,0.0,-0.078,-0.044,-0.049,-0.224,-0.332,0.386,-0.303
1.01,-0.127,-0.185,-0.059,0.156,-0.034,-0.122,-0.073,-0.063,-0.259,-0.386,0.346,-0.337
1.012,-0.044,-0.088,-0.044,0.068,0.0,-0.068,-0.044,-0.029,-0.22,-0.361,0.381,-0.312
1.014,0.024,-0.024,-0.049,0.0,0.034,-0.039,-0.039,-0.024,-0.195,-0.351,0.386,-0.317
1.016,-0.034,-0.093,-0.059,0.063,0.01,-0.078,-0.044,-0.049,-0.215,-0.376,0.322,-0.337
1.018,-0.137,-0.088,0.049,0.112,-0.093,-0.02,-0.015,0.0,-0.185,-0.337,0.259,-0.312
1.02,-0.146,-0.083,0.063,0.117,-0.107,-0.01,-0.01,0.005,-0.171,-0.307,0.2,-0.317
1.022,-0.015,-0.068,-0.054,0.044,0.02,-0.063,-0.063,-0.029,-0.195,-0.332,0.117,-0.371
1.024,-0.054,-0.088,-0.034,0.073,-0.01,-0.063,-0.059,-0.024,-0.19,-0.337,0.127,-0.376
1.026,-0.117,-0.102,0.015,0.112,-0.068,-0.044,-0.059,-0.039,-0.2,-0.342,0.171,-0.356
1.028,-0.083,-0.088,-0.005,0.088,-0.039,-0.049,-0.044,-0.029,-0.19,-0.337,0.195,-0.356
1.03,-0.073,-0.073,0.0,0.073,-0.039,-0.039,-0.059,-0.015,-0.185,-0.351,0.22,-0.351
1.032,-0.112,-0.102,0.01,0.107,-0.063,-0.049,-0.078,-0.024,-0.185,-0.371,0.229,-0.356
1.034,-0.171,-0.151,0.02,0.161,-0.098,-0.068,-0.107,-0.059,-0.205,-0.39,0.229,-0.376
1.036,-0.107,-0.132,-0.024,0.122,-0.044,-0.078,-0.112,-0.039,-0.2,-0.395,0.239,-0.376
1.038,0.024,-0.049,-0.073,0.015,0.049,-0.063,-0.093,-0.059,-0.195,-0.386,0.264,-0.361
1.04,-0.137,-0.161,-0.024,0.151,-0.059,-0.093,-0.122,-0.093,-0.224,-0.4,0.264,-0.366
1.042,-0.156,-0.137,0.02,0.146,-0.088,-0.059,-0.083,-0.063,-0.195,-0.351,0.215,-0.337
1.044,-0.049,-0.054,-0.005,0.054,-0.024,-0.029,-0.059,-0.044,-0.19,-0.273,0.137,-0.332
1.046,-0.044,-0.073,-0.029,0.059,-0.01,-0.054,-0.063,-0.059,-0.176,-0.244,0.137,-0.351
1.048,-0.073,-0.107,-0.034,0.093,-0.02,-0.073,-0.093,-0.063,-0.19,-0.22,0.146,-0.366
1.05,-0.073,-0.102,-0.029,0.088,-0.024,-0.068,-0.107,-0.024,-0.195,-0.19,0.171,-0.351
1.052,0.102,0.039,-0.063,-0.068,0.083,-0.015,-0.054,-0.015,-0.142,-0.151,0.22,-0.312
1.054,0.029,-0.024,-0.054,0.0,0.039,-0.039,-0.063,-0.054,-0.176,-0.156,0.224,-0.322
1.056,-0.132,-0.098,0.034,0.117,-0.083,-0.034,-0.039,-0.039,-0.166,-0.146,0.254,-0.312
1.058,-0.156,-0.146,0.01,0.151,-0.083,-0.068,-0.093,-0.068,-0.205,-0.171,0.244,-0.337
1.06,-0.102,-0.137,-0.034,0.122,-0.034,-0.088,-0.127,-0.088,-0.22,-0.166,0.254,-0.337
1.062,-0.083,-0.112,-0.029,0.098,-0.029,-0.073,-0.093,-0.063,-0.2,-0.146,0.293,-0.307
1.064,-0.073,-0.107,-0.034,0.093,-0.02,-0.073,-0.093,-0.044,-0.205,-0.146,0.307,-0.303
1.066,-0.039,-0.068,-0.029,0.054,-0.005,-0.049,-0.083,-0.034,-0.185,-0.142,0.322,-0.298
1.068,-0.02,-0.054,-0.034,0.039,0.005,-0.044,-0.059,-0.034,-0.176,-0.132,0.351,-0.283
1.07,-0.063,-0.102,-0.039,0.083,-0.015,-0.073,-0.049,-0.049,-0.21,-0.156,0.322,-0.298
1.072,-0.122,-0.127,-0.005,0.127,-0.059,-0.068,-0.063,-0.039,-0.195,-0.151,0.327,-0.293
1.074,-0.068,-0.142,-0.073,0.107,0.0,-0.107,-0.088,-0.073,-0.22,-0.181,0.303,-0.322
1.076,-0.078,-0.161,-0.083,0.122,0.0,-0.122,-0.098,-0.083,-0.239,-0.21,0.293,-0.342
1.078,-0.078,-0.102,-0.024,0.093,-0.029,-0.063,-0.068,-0.049,-0.19,-0.166,0.342,-0.298
1.08,-0.024,-0.059,-0.034,0.044,0.005,-0.049,-0.049,-0.049,-0.205,-0.142,0.361,-0.288
1.082,-0.176,-0.122,0.054,0.151,-0.117,-0.034,-0.029,-0.02,-0.195,-0.137,0.386,-0.268
1.084,-0.166,-0.171,-0.005,0.171,-0.083,-0.088,-0.044,-0.044,-0.205,-0.171,0.361,-0.293
1.086,-0.068,-0.073,-0.005,0.073,-0.034,-0.039,-0.005,-0.02,-0.181,-0.137,0.386,-0.264
1.088,0.0,-0.034,-0.034,0.02,0.015,-0.034,0.01,-0.01,-0.19,-0.142,0.395,-0.264
1.09,-0.054,-0.107,-0.054,0.083,0.0,-0.083,-0.039,-0.02,-0.2,-0.156,0.376,-0.288
1.092,-0.132,-0.127,0.005,0.132,-0.068,-0.063,-0.02,-0.02,-0.185,-0.161,0.371,-0.283
1.094,-0.185,-0.185,0.0,0.185,-0.093,-0.093,-0.054,-0.029,-0.21,-0.19,0.346,-0.317
1.096,-0.054,-0.044,0.01,0.049,-0.034,-0.02,-0.005,0.005,-0.166,-0.146,0.405,-0.264
1.098,-0.068,-0.083,-0.015,0.078,-0.029,-0.049,-0.01,-0.029,-0.19,-0.171,0.381,-0.283
1.1,-0.073,-0.068,0.005,0.073,-0.039,-0.034,0.005,-0.02,-0.166,-0.156,0.415,-0.254
1.102,-0.063,-0.088,-0.024,0.078,-0.02,-0.059,0.02,-0.039,-0.195,-0.166,0.415,-0.264
1.104,-0.112,-0.151,-0.039,0.132,-0.039,-0.098,-0.024,-0.068,-0.224,-0.195,0.39,-0.278
1.106,-0.093,-0.132,-0.039,0.112,-0.029,-0.088,-0.049,-0.044,-0.22,-0.195,0.395,-0.273
1.108,-0.01,-0.063,-0.054,0.039,0.02,-0.059,-0.029,-0.01,-0.195,-0.176,0.42,-0.249
1.11,-0.107,-0.088,0.02,0.098,-0.063,-0.034,-0.039,0.0,-0.181,-0.171,0.429,-0.234
1.112,-0.132,-0.142,-0.01,0.137,-0.063,-0.078,-0.059,-0.02,-0.21,-0.205,0.4,-0.259
1.114,-0.078,-0.083,-0.005,0.083,-0.039,-0.044,-0.049,-0.02,-0.195,-0.19,0.415,-0.244
1.116,-0.039,-0.073,-0.034,0.059,-0.005,-0.054,-0.063,-0.034,-0.2,-0.195,0.425,-0.239
1.118,0.044,0.01,-0.034,-0.024,0.039,-0.015,-0.024,-0.01,-0.161,-0.166,0.473,-0.2
1.12,-0.049,-0.059,-0.01,0.054,-0.02,-0.034,-0.059,-0.029,-0.166,-0.181,0.454,-0.21
1.122,-0.083,-0.088,-0.005,0.088,-0.039,-0.049,-0.093,-0.034,-0.176,-0.176,0.454,-0.195
1.124,-0.068,-0.127,-0.059,0.098,-0.005,-0.093,-0.151,-0.063,-0.224,-0.215,0.434,-0.215
1.126,0.01,-0.049,-0.059,0.02,0.034,-0.054,-0.142,-0.039,-0.21,-0.195,0.459,-0.185
1.128,-0.098,-0.112,-0.015,0.107,-0.044,-0.063,-0.142,-0.024,-0.21,-0.205,0.449,-0.19
1.13,-0.127,-0.122,0.005,0.127,-0.068,-0.059,-0.146,-0.015,-0.195,-0.21,0.459,-0.181
1.132,0.015,-0.083,-0.098,0.034,0.054,-0.093,-0.176,-0.034,-0.21,-0.244,0.434,-0.19
1.134,-0.078,-0.093,-0.015,0.088,-0.034,-0.054,-0.137,-0.015,-0.181,-0.234,0.454,-0.171
1.136,-0.146,-0.107,0.039,0.127,-0.093,-0.034,-0.142,0.024,-0.166,-0.239,0.473,-0.156
1.138,-0.054,-0.093,-0.039,0.073,-0.01,-0.068,-0.171,-0.01,-0.195,-0.259,0.459,-0.166
1.14,-0.068,-0.107,-0.039,0.088,-0.015,-0.073,-0.195,-0.034,-0.195,-0.268,0.459,-0.161
1.142,-0.034,-0.127,-0.093,0.083,0.029,-0.112,-0.22,-0.059,-0.229,-0.293,0.444,-0.181
1.144,-0.117,-0.132,-0.015,0.127,-0.054,-0.073,-0.195,-0.034,-0.195,-0.259,0.483,-0.142
1.146,-0.054,-0.088,-0.034,0.073,-0.01,-0.063,-0.2,-0.02,-0.181,-0.268,0.483,-0.137
1.148,0.088,-0.024,-0.112,-0.029,0.098,-0.068,-0.205,-0.024,-0.19,-0.283,0.473,-0.142
1.15,-0.015,-0.093,-0.078,0.054,0.029,-0.088,-0.21,-0.034,-0.195,-0.298,0.468,-0.137
1.152,-0.078,-0.107,-0.029,0.093,-0.024,-0.068,-0.195,-0.02,-0.181,-0.293,0.473,-0.122
1.154,-0.054,-0.073,-0.02,0.063,-0.02,-0.049,-0.156,-0.015,-0.166,-0.268,0.488,-0.098
1.156,0.039,-0.029,-0.068,-0.005,0.054,-0.049,-0.151,-0.005,-0.151,-0.283,0.503,-0.093
1.158,0.063,-0.02,-0.083,-0.02,0.073,-0.054,-0.161,0.0,-0.137,-0.278,0.503,-0.093
1.16,-0.005,-0.044,-0.039,0.024,0.015,-0.044,-0.156,-0.01,-0.117,-0.264,0.512,-0.078
1.162,-0.015,-0.078,-0.063,0.049,0.024,-0.073,-0.185,-0.015,-0.132,-0.298,0.503,-0.093
1.164,0.039,-0.015,-0.054,-0.01,0.044,-0.034,-0.142,0.015,-0.098,-0.273,0.527,-0.068
1.166,0.083,-0.034,-0.117,-0.024,0.098,-0.078,-0.2,0.005,-0.142,-0.303,0.522,-0.112
1.168,0.039,-0.049,-0.088,0.005,0.063,-0.068,-0.2,0.034,-0.112,-0.307,0.527,-0.093
1.17,-0.102,-0.093,0.01,0.098,-0.059,-0.044,-0.156,0.063,-0.102,-0.298,0.517,-0.083
1.172,-0.088,-0.073,0.015,0.083,-0.054,-0.029,-0.132,0.068,-0.102,-0.303,0.508,-0.088
1.174,-0.073,-0.083,-0.01,0.078,-0.034,-0.049,-0.137,0.044,-0.127,-0.322,0.483,-0.122
1.176,-0.029,-0.078,-0.049,0.054,0.01,-0.063,-0.132,0.029,-0.132,-0.327,0.483,-0.132
1.178,-0.015,-0.078,-0.063,0.049,0.024,-0.073,-0.142,0.029,-0.142,-0.307,0.488,-0.122
1.18,-0.107,-0.117,-0.01,0.112,-0.049,-0.063,-0.122,0.024,-0.142,-0.234,0.493,-0.122
1.182,-0.078,-0.059,0.02,0.068,-0.049,-0.02,-0.098,0.029,-0.127,-0.151,0.512,-0.098
1.184,-0.054,-0.044,0.01,0.049,-0.034,-0.02,-0.122,0.039,-0.107,-0.127,0.517,-0.093
1.186,-0.068,-0.083,-0.015,0.078,-0.029,-0.049,-0.122,0.024,-0.122,-0.132,0.498,-0.112
1.188,-0.02,-0.068,-0.049,0.044,0.015,-0.059,-0.156,0.02,-0.156,-0.122,0.483,-0.127
1.19,-0.098,-0.088,0.01,0.093,-0.054,-0.039,-0.127,0.029,-0.137,-0.088,0.493,-0.107
1.192,-0.034,-0.034,0.0,0.034,-0.02,-0.02,-0.098,0.034,-0.117,-0.068,0.503,-0.098
1.194,-0.068,-0.093,-0.024,0.083,-0.024,-0.059,-0.132,0.015,-0.146,-0.102,0.473,-0.122
1.196,-0.127,-0.088,0.039,0.107,-0.083,-0.024,-0.093,0.024,-0.127,-0.078,0.503,-0.098
1.198,-0.117,-0.107,0.01,0.112,-0.063,-0.049,-0.112,0.01,-0.137,-0.088,0.493,-0.107
1.2,-0.122,-0.107,0.015,0.117,-0.068,-0.049,-0.112,0.005,-0.151,-0.083,0.493,-0.098
1.202,-0.166,-0.161,0.005,0.166,-0.088,-0.078,-0.112,-0.024,-0.181,-0.098,0.478,-0.117
1.204,-0.166,-0.146,0.02,0.156,-0.093,-0.063,-0.083,-0.015,-0.181,-0.098,0.483,-0.107
1.206,-0.088,-0.078,0.01,0.083,-0.049,-0.034,-0.083,0.0,-0.171,-0.078,0.517,-0.078
1.208,-0.093,-0.112,-0.02,0.102,-0.039,-0.068,-0.068,-0.02,-0.185,-0.093,0.488,-0.098
1.21,-0.122,-0.117,0.005,0.122,-0.063,-0.059,-0.054,-0.02,-0.181,-0.088,0.488,-0.078
1.212,0.024,-0.039,-0.063,0.01,0.044,-0.054,-0.063,-0.005,-0.181,-0.088,0.473,-0.088
1.214,0.034,0.01,-0.024,-0.02,0.029,-0.01,-0.049,0.015,-0.151,-0.059,0.503,-0.063
1.216,-0.078,-0.102,-0.024,0.093,-0.029,-0.063,-0.073,-0.034,-0.181,-0.093,0.478,-0.093
1.218,-0.122,-0.137,-0.015,0.132,-0.054,-0.078,-0.063,-0.039,-0.19,-0.102,0.468,-0.102
1.22,-0.078,-0.073,0.005,0.078,-0.044,-0.034,-0.02,-0.01,-0.166,-0.068,0.503,-0.073
1.222,-0.093,-0.112,-0.02,0.102,-0.039,-0.068,-0.068,-0.044,-0.181,-0.088,0.483,-0.088
1.224,-0.146,-0.185,-0.039,0.166,-0.054,-0.112,-0.107,-0.068,-0.2,-0.117,0.459,-0.107
1.226,-0.122,-0.107,0.015,0.117,-0.068,-0.049,-0.039,-0.02,-0.161,-0.078,0.498,-0.068
1.228,-0.02,-0.063,-0.044,0.044,0.01,-0.054,-0.044,0.0,-0.181,-0.078,0.488,-0.054
1.23,-0.151,-0.156,-0.005,0.156,-0.073,-0.083,-0.078,-0.034,-0.195,-0.093,0.478,-0.059
1.232,-0.127,-0.098,0.029,0.112,-0.078,-0.034,-0.059,0.0,-0.166,-0.073,0.493,-0.054
1.234,-0.073,-0.117,-0.044,0.098,-0.015,-0.083,-0.083,-0.044,-0.2,-0.102,0.459,-0.093
1.236,-0.078,-0.185,-0.107,0.132,0.015,-0.146,-0.132,-0.063,-0.224,-0.122,0.434,-0.117
1.238,-0.127,-0.122,0.005,0.127,-0.068,-0.059,-0.098,-0.005,-0.171,-0.068,0.493,-0.073
1.24,-0.098,-0.083,0.015,0.093,-0.059,-0.034,-0.073,0.029,-0.132,-0.039,0.498,-0.073
1.242,-0.054,-0.015,0.039,0.034,-0.049,0.01,-0.083,0.073,-0.107,0.0,0.512,-0.059
1.244,-0.049,0.044,0.093,0.005,-0.073,0.068,-0.083,0.122,-0.039,0.073,0.556,-0.029
1.246,-0.2,-0.02,0.181,0.112,-0.19,0.078,-0.093,0.142,0.005,0.117,0.556,-0.039
1.248,-0.093,0.112,0.205,-0.01,-0.151,0.156,-0.078,0.205,0.117,0.21,0.625,0.024
1.25,-0.112,0.19,0.303,-0.039,-0.21,0.244,-0.063,0.332,0.244,0.371,0.722,0.107
1.252,-0.185,0.205,0.39,-0.01,-0.288,0.298,-0.054,0.483,0.464,0.566,0.83,0.19
1.254,-0.137,0.312,0.449,-0.088,-0.293,0.381,-0.029,0.717,0.752,0.859,0.996,0.312
1.256,-0.034,0.493,0.527,-0.229,-0.283,0.508,-0.02,0.981,1.093,1.196,1.21,0.473
1.258,0.029,0.62,0.59,-0.322,-0.283,0.605,-0.02,1.24,1.454,1.581,1.449,0.659
1.26,-0.005,0.673,0.678,-0.332,-0.342,0.673,-0.024,1.547,1.869,2.025,1.742,0.878
1.262,0.088,0.791,0.703,-0.439,-0.307,0.747,-0.005,1.864,2.284,2.469,2.006,1.103
1.264,0.283,1.0,0.717,-0.639,-0.22,0.859,0.049,2.079,2.65,2.899,2.284,1.327
1.266,0.366,1.078,0.712,-0.722,-0.176,0.893,0.093,2.157,2.918,3.24,2.503,1.513
1.268,0.429,1.103,0.673,-0.766,-0.122,0.888,-0.024,2.069,3.094,3.548,2.718,1.684
1.27,0.556,1.161,0.605,-0.859,-0.024,0.883,-0.112,1.874,3.152,3.797,2.938,1.874
1.272,0.59,1.21,0.62,-0.898,-0.015,0.913,-0.181,1.62,3.113,4.002,3.133,2.074
1.274,0.625,1.308,0.683,-0.966,-0.029,0.996,-0.278,1.181,2.967,4.187,3.362,2.289
1.276,0.722,1.415,0.693,-1.069,0.015,1.054,-0.371,0.654,2.782,4.348,3.606,2.513
1.278,0.883,1.503,0.62,-1.191,0.132,1.059,-0.566,0.039,2.591,4.534,3.85,2.733
1.28,1.039,1.576,0.537,-1.308,0.249,1.054,-0.834,-0.547,2.44,4.763,4.133,2.972
1.282,1.005,1.488,0.483,-1.244,0.259,0.986,-1.074,-1.088,2.274,4.924,4.412,3.221
1.284,1.23,1.459,0.229,-1.342,0.498,0.844,-1.24,-1.591,2.011,4.904,4.602,3.416
1.286,1.44,1.337,-0.102,-1.386,0.771,0.615,-1.337,-1.928,1.781,4.758,4.641,3.46
1.288,1.449,1.035,-0.415,-1.24,0.932,0.307,-1.347,-1.981,1.659,4.524,4.485,3.314
1.29,1.425,0.669,-0.756,-1.044,1.088,-0.044,-1.279,-1.918,1.542,4.211,4.172,3.04
1.292,1.225,0.268,-0.956,-0.747,1.088,-0.346,-1.152,-1.918,1.249,3.699,3.699,2.645
1.294,1.025,0.034,-0.991,-0.527,1.005,-0.478,-0.996,-1.859,0.834,3.011,3.128,2.196
1.296,0.913,-0.127,-1.039,-0.39,0.976,-0.586,-0.956,-1.879,0.254,2.123,2.386,1.615
1.298,0.693,-0.332,-1.025,-0.181,0.859,-0.678,-0.913,-1.942,-0.415,1.113,1.581,0.971
1.3,0.498,-0.381,-0.878,-0.059,0.688,-0.63,-0.834,-1.898,-1.049,0.176,0.976,0.483
1.302,0.21,-0.547,-0.756,0.171,0.483,-0.654,-0.82,-1.806,-1.532,-0.62,0.449,0.044
1.304,0.059,-0.537,-0.595,0.239,0.327,-0.566,-0.732,-1.615,-1.659,-1.059,0.083,-0.264
1.306,0.024,-0.468,-0.493,0.224,0.259,-0.483,-0.63,-1.381,-1.557,-1.137,-0.102,-0.439
1.308,-0.029,-0.42,-0.39,0.224,0.181,-0.405,-0.512,-1.152,-1.41,-1.064,-0.122,-0.483
1.31,-0.142,-0.493,-0.351,0.317,0.102,-0.425,-0.478,-0.996,-1.283,-0.981,-0.117,-0.508
1.312,-0.054,-0.434,-0.381,0.244,0.161,-0.41,-0.449,-0.839,-1.132,-0.883,-0.098,-0.498
1.314,-0.02,-0.4,-0.381,0.21,0.181,-0.39,-0.361,-0.673,-1.005,-0.781,-0.054,-0.473
1.316,-0.161,-0.449,-0.288,0.307,0.063,-0.371,-0.283,-0.527,-0.878,-0.703,-0.02,-0.454
1.318,-0.122,-0.381,-0.259,0.254,0.068,-0.322,-0.229,-0.39,-0.771,-0.605,0.034,-0.425
1.32,-0.068,-0.303,-0.234,0.185,0.083,-0.268,-0.181,-0.273,-0.673,-0.522,0.078,-0.395
1.322,-0.098,-0.268,-0.171,0.185,0.034,-0.22,-0.122,-0.137,-0.561,-0.454,0.127,-0.351
1.324,-0.132,-0.283,-0.151,0.21,0.01,-0.22,-0.117,-0.083,-0.522,-0.405,0.142,-0.351
1.326,-0.166,-0.234,-0.068,0.2,-0.049,-0.151,-0.088,0.0,-0.449,-0.346,0.185,-0.307
1.328,-0.122,-0.166,-0.044,0.146,-0.039,-0.107,-0.054,0.063,-0.386,-0.288,0.215,-0.264
1.33,-0.215,-0.234,-0.02,0.224,-0.098,-0.127,-0.049,0.054,-0.376,-0.303,0.21,-0.259
1.332,-0.166,-0.181,-0.015,0.176,-0.078,-0.098,-0.02,0.083,-0.371,-0.278,0.234,-0.234
1.334,-0.122,-0.151,-0.029,0.137,-0.049,-0.093,-0.01,0.093,-0.356,-0.278,0.244,-0.21
1.336,-0.166,-0.205,-0.039,0.185,-0.063,-0.122,-0.049,0.078,-0.361,-0.303,0.234,-0.224
1.338,-0.2,-0.19,0.01,0.195,-0.107,-0.093,-0.015,0.098,-0.346,-0.298,0.249,-0.205
1.34,-0.185,-0.171,0.015,0.181,-0.102,-0.078,0.02,0.098,-0.351,-0.293,0.254,-0.205
1.342,-0.137,-0.156,-0.02,0.146,-0.059,-0.088,0.0,0.088,-0.356,-0.288,0.254,-0.205
1.344,-0.166,-0.19,-0.024,0.181,-0.073,-0.107,-0.034,0.054,-0.366,-0.327,0.239,-0.2
1.346,-0.171,-0.195,-0.024,0.185,-0.073,-0.112,-0.029,0.039,-0.356,-0.332,0.239,-0.2
1.348,-0.112,-0.127,-0.015,0.122,-0.049,-0.073,-0.029,0.059,-0.346,-0.303,0.268,-0.171
1.35,-0.083,-0.146,-0.063,0.117,-0.01,-0.107,-0.107,0.044,-0.366,-0.317,0.249,-0.19
1.352,-0.146,-0.171,-0.024,0.161,-0.063,-0.098,-0.083,0.049,-0.351,-0.312,0.259,-0.181
1.354,-0.273,-0.215,0.059,0.244,-0.166,-0.078,-0.073,0.088,-0.342,-0.312,0.283,-0.176
1.356,-0.142,-0.185,-0.044,0.166,-0.049,-0.117,-0.127,0.078,-0.376,-0.351,0.268,-0.2
1.358,-0.107,-0.142,-0.034,0.127,-0.039,-0.088,-0.127,0.102,-0.356,-0.356,0.288,-0.195
1.36,-0.19,-0.176,0.015,0.185,-0.102,-0.083,-0.132,0.122,-0.332,-0.356,0.307,-0.19
1.362,-0.19,-0.161,0.029,0.176,-0.112,-0.068,-0.156,0.127,-0.327,-0.361,0.293,-0.195
1.364,-0.181,-0.171,0.01,0.176,-0.098,-0.083,-0.142,0.127,-0.337,-0.386,0.288,-0.2
1.366,-0.195,-0.19,0.005,0.195,-0.102,-0.093,-0.156,0.093,-0.361,-0.41,0.268,-0.229
1.368,-0.093,-0.098,-0.005,0.098,-0.044,-0.054,-0.146,0.122,-0.293,-0.371,0.303,-0.19
1.37,-0.132,-0.146,-0.015,0.142,-0.059,-0.083,-0.166,0.107,-0.337,-0.39,0.278,-0.205
1.372,-0.181,-0.195,-0.015,0.19,-0.083,-0.107,-0.166,0.088,-0.366,-0.4,0.264,-0.22
1.374,-0.185,-0.2,-0.015,0.195,-0.088,-0.107,-0.181,0.078,-0.371,-0.39,0.254,-0.229
1.376,-0.215,-0.224,-0.01,0.22,-0.102,-0.117,-0.166,0.093,-0.366,-0.381,0.244,-0.229
1.378,-0.195,-0.156,0.039,0.176,-0.117,-0.059,-0.122,0.137,-0.332,-0.332,0.288,-0.205
1.38,-0.176,-0.185,-0.01,0.181,-0.083,-0.098,-0.142,0.107,-0.366,-0.356,0.244,-0.234
1.382,-0.21,-0.22,-0.01,0.215,-0.102,-0.117,-0.195,0.093,-0.381,-0.381,0.21,-0.254
1.384,-0.22,-0.244,-0.024,0.234,-0.098,-0.137,-0.224,0.078,-0.381,-0.405,0.185,-0.273
1.386,-0.161,-0.195,-0.034,0.181,-0.063,-0.117,-0.205,0.117,-0.342,-0.386,0.166,-0.254
1.388,-0.107,-0.156,-0.049,0.132,-0.029,-0.102,-0.224,0.122,-0.312,-0.361,0.117,-0.244
1.39,-0.146,-0.181,-0.034,0.166,-0.059,-0.107,-0.234,0.122,-0.317,-0.361,0.102,-0.244
1.392,-0.185,-0.215,-0.029,0.2,-0.078,-0.122,-0.224,0.117,-0.312,-0.371,0.078,-0.244
1.394,-0.107,-0.117,-0.01,0.112,-0.049,-0.063,-0.2,0.181,-0.273,-0.342,0.093,-0.22
1.396,-0.142,-0.137,0.005,0.142,-0.073,-0.068,-0.229,0.176,-0.264,-0.332,0.107,-0.21
1.398,-0.156,-0.132,0.024,0.146,-0.093,-0.054,-0.215,0.19,-0.249,-0.342,0.146,-0.2
1.4,-0.229,-0.205,0.024,0.22,-0.127,-0.093,-0.259,0.171,-0.254,-0.371,0.137,-0.21
1.402,-0.278,-0.254,0.024,0.268,-0.151,-0.117,-0.303,0.166,-0.278,-0.395,0.112,-0.22
1.404,-0.205,-0.185,0.02,0.195,-0.112,-0.083,-0.278,0.181,-0.259,-0.386,0.137,-0.2
1.406,-0.088,-0.098,-0.01,0.093,-0.039,-0.054,-0.234,0.2,-0.224,-0.366,0.161,-0.185
1.408,-0.122,-0.156,-0.034,0.142,-0.044,-0.098,-0.254,0.161,-0.259,-0.4,0.132,-0.21
1.41,-0.181,-0.176,0.005,0.181,-0.093,-0.088,-0.278,0.176,-0.249,-0.386,0.166,-0.161
1.412,-0.112,-0.117,-0.005,0.117,-0.054,-0.063,-0.307,0.2,-0.234,-0.371,0.195,-0.122
1.414,-0.161,-0.146,0.015,0.156,-0.088,-0.068,-0.283,0.22,-0.234,-0.361,0.2,-0.117
1.416,-0.156,-0.166,-0.01,0.161,-0.073,-0.088,-0.273,0.215,-0.234,-0.376,0.195,-0.117
1.418,-0.146,-0.166,-0.02,0.156,-0.063,-0.093,-0.273,0.224,-0.239,-0.395,0.2,-0.117
1.42,-0.127,-0.166,-0.039,0.146,-0.044,-0.102,-0.244,0.21,-0.249,-0.41,0.195,-0.122
1.422,-0.151,-0.132,0.02,0.142,-0.088,-0.059,-0.156,0.259,-0.22,-0.386,0.239,-0.102
1.424,-0.142,-0.122,0.02,0.132,-0.083,-0.054,-0.181,0.254,-0.215,-0.39,0.239,-0.073
1.426,-0.098,-0.112,-0.015,0.107,-0.044,-0.063,-0.21,0.239,-0.239,-0.41,0.22,-0.078
1.428,-0.171,-0.142,0.029,0.156,-0.102,-0.059,-0.205,0.244,-0.234,-0.42,0.224,-0.063
1.43,-0.2,-0.112,0.088,0.156,-0.146,-0.015,-0.185,0.273,-0.234,-0.41,0.249,-0.044
1.432,-0.264,-0.19,0.073,0.229,-0.171,-0.059,-0.171,0.264,-0.268,-0.429,0.239,-0.049
1.434,-0.224,-0.195,0.029,0.21,-0.127,-0.083,-0.176,0.244,-0.293,-0.464,0.205,-0.073
1.436,-0.054,-0.068,-0.015,0.063,-0.02,-0.044,-0.161,0.293,-0.264,-0.439,0.234,-0.044
1.438,-0.142,-0.112,0.029,0.127,-0.088,-0.044,-0.137,0.283,-0.278,-0.439,0.229,-0.044
1.44,-0.239,-0.2,0.039,0.22,-0.142,-0.083,-0.156,0.268,-0.293,-0.449,0.205,-0.073
1.442,-0.268,-0.22,0.049,0.244,-0.161,-0.088,-0.166,0.283,-0.288,-0.381,0.224,-0.063
1.444,-0.215,-0.181,0.034,0.2,-0.127,-0.073,-0.171,0.288,-0.298,-0.342,0.22,-0.059
1.446,-0.176,-0.161,0.015,0.171,-0.098,-0.073,-0.176,0.264,-0.312,-0.322,0.205,-0.063
1.448,-0.195,-0.146,0.049,0.171,-0.122,-0.049,-0.146,0.283,-0.298,-0.273,0.22,-0.034
1.45,-0.224,-0.156,0.068,0.19,-0.146,-0.044,-0.107,0.298,-0.303,-0.273,0.22,-0.034
1.452,-0.137,-0.073,0.063,0.107,-0.102,-0.005,-0.073,0.322,-0.259,-0.239,0.244,0.0
1.454,-0.127,-0.078,0.049,0.102,-0.088,-0.015,-0.073,0.346,-0.268,-0.234,0.249,0.0
1.456,-0.229,-0.166,0.063,0.2,-0.146,-0.054,-0.093,0.317,-0.322,-0.249,0.224,-0.02
1.458,-0.195,-0.146,0.049,0.171,-0.122,-0.049,-0.073,0.312,-0.332,-0.259,0.22,-0.024
1.46,-0.127,-0.102,0.024,0.117,-0.078,-0.039,-0.107,0.317,-0.332,-0.254,0.215,-0.02
1.462,-0.185,-0.117,0.068,0.151,-0.127,-0.024,-0.083,0.307,-0.322,-0.234,0.229,-0.01
1.464,-0.205,-0.166,0.039,0.185,-0.122,-0.063,-0.068,0.273,-0.342,-0.278,0.205,-0.034
1.466,-0.137,-0.132,0.005,0.137,-0.073,-0.063,-0.083,0.273,-0.346,-0.273,0.22,-0.034
1.468,-0.122,-0.088,0.034,0.107,-0.078,-0.029,-0.044,0.273,-0.317,-0.234,0.234,-0.01
1.47,-0.117,-0.068,0.049,0.093,-0.083,-0.01,-0.054,0.273,-0.298,-0.22,0.239,0.005
1.472,-0.215,-0.117,0.098,0.166,-0.156,-0.01,-0.083,0.278,-0.293,-0.205,0.249,0.02
1.474,-0.22,-0.112,0.107,0.166,-0.166,-0.005,-0.044,0.288,-0.288,-0.185,0.259,0.039
1.476,-0.151,-0.088,0.063,0.122,-0.107,-0.015,-0.044,0.312,-0.278,-0.181,0.264,0.034
1.478,-0.146,-0.059,0.088,0.102,-0.117,0.015,-0.034,0.337,-0.264,-0.161,0.278,0.044
1.48,-0.107,-0.049,0.059,0.078,-0.083,0.005,-0.034,0.307,-0.254,-0.146,0.293,0.063
1.482,-0.102,-0.049,0.054,0.078,-0.078,0.0,-0.059,0.293,-0.229,-0.151,0.303,0.063
1.484,-0.156,-0.083,0.073,0.122,-0.117,-0.005,-0.049,0.278,-0.224,-0.151,0.307,0.063
1.486,-0.185,-0.088,0.098,0.137,-0.142,0.005,-0.073,0.288,-0.229,-0.107,0.322,0.073
1.488,-0.264,-0.181,0.083,0.224,-0.176,-0.049,-0.137,0.278,-0.249,-0.132,0.288,0.044
1.49,-0.21,-0.161,0.049,0.185,-0.132,-0.059,-0.146,0.283,-0.239,-0.142,0.298,0.044
1.492,-0.078,-0.078,0.0,0.078,-0.039,-0.039,-0.107,0.283,-0.239,-0.117,0.312,0.068
1.494,-0.166,-0.098,0.068,0.132,-0.117,-0.015,-0.107,0.337,-0.2,-0.083,0.346,0.102
1.496,-0.215,-0.117,0.098,0.166,-0.156,-0.01,-0.098,0.337,-0.176,-0.063,0.371,0.117
1.498,-0.146,-0.117,0.029,0.132,-0.088,-0.044,-0.122,0.317,-0.2,-0.083,0.361,0.102
1.5,-0.142,-0.107,0.034,0.127,-0.088,-0.039,-0.137,0.322,-0.185,-0.068,0.366,0.107
1.502,-0.146,-0.083,0.063,0.117,-0.107,-0.01,-0.098,0.342,-0.146,-0.039,0.395,0.142
1.504,-0.117,-0.083,0.034,0.102,-0.078,-0.024,-0.117,0.337,-0.146,-0.059,0.39,0.137
1.506,-0.034,-0.005,0.029,0.02,-0.034,0.01,-0.078,0.376,-0.117,-0.024,0.434,0.176
1.508,-0.02,0.02,0.039,0.0,-0.029,0.029,-0.063,0.39,-0.102,-0.005,0.439,0.185
1.51,-0.161,-0.112,0.049,0.137,-0.107,-0.034,-0.073,0.356,-0.122,-0.024,0.415,0.171
1.512,-0.161,-0.132,0.029,0.146,-0.098,-0.054,-0.146,0.351,-0.117,-0.039,0.415,0.171
1.514,0.044,0.059,0.015,-0.049,0.015,0.034,-0.112,0.42,-0.049,0.029,0.473,0.239
1.516,-0.034,-0.015,0.02,0.024,-0.029,0.0,-0.146,0.4,-0.073,0.02,0.468,0.229
1.518,-0.083,-0.049,0.034,0.068,-0.059,-0.01,-0.181,0.42,-0.059,0.01,0.468,0.239
1.52,0.01,0.054,0.044,-0.029,-0.02,0.049,-0.156,0.449,-0.01,0.049,0.512,0.283
1.522,-0.117,-0.039,0.078,0.078,-0.098,0.02,-0.181,0.415,-0.029,0.049,0.503,0.273
1.524,-0.107,-0.063,0.044,0.088,-0.078,-0.01,-0.224,0.39,-0.039,0.034,0.483,0.259
1.526,-0.059,-0.044,0.015,0.054,-0.039,-0.015,-0.244,0.4,-0.034,0.034,0.488,0.268
1.528,-0.054,-0.073,-0.02,0.063,-0.02,-0.049,-0.259,0.366,-0.049,0.029,0.473,0.259
1.53,-0.117,-0.088,0.029,0.102,-0.073,-0.029,-0.259,0.366,-0.024,0.044,0.503,0.283
1.532,0.005,0.029,0.024,-0.015,-0.01,0.024,-0.22,0.376,0.0,0.078,0.532,0.322
1.534,0.059,0.024,-0.034,-0.039,0.044,-0.005,-0.259,0.351,-0.005,0.078,0.522,0.312
1.536,-0.015,-0.063,-0.049,0.039,0.015,-0.059,-0.278,0.327,-0.024,0.059,0.512,0.293
1.538,-0.083,-0.049,0.034,0.068,-0.059,-0.01,-0.224,0.346,0.01,0.088,0.537,0.337
1.54,-0.039,-0.034,0.005,0.039,-0.024,-0.015,-0.239,0.327,0.0,0.102,0.532,0.332
1.542,-0.068,-0.029,0.039,0.049,-0.054,0.005,-0.239,0.322,0.01,0.098,0.542,0.337
1.544,0.0,0.044,0.044,-0.02,-0.024,0.044,-0.195,0.342,0.034,0.117,0.581,0.386
1.546,-0.049,-0.005,0.044,0.029,-0.049,0.02,-0.224,0.312,0.005,0.073,0.556,0.356
1.548,-0.054,-0.015,0.039,0.034,-0.049,0.01,-0.239,0.303,0.01,0.088,0.561,0.356
1.55,-0.015,0.005,0.02,0.005,-0.02,0.01,-0.239,0.293,0.029,0.083,0.566,0.356
1.552,0.015,0.005,-0.01,-0.01,0.01,-0.005,-0.22,0.298,0.015,0.059,0.556,0.346
1.554,0.02,-0.049,-0.068,0.015,0.044,-0.059,-0.259,0.264,-0.015,0.024,0.532,0.317
1.556,-0.054,-0.015,0.039,0.034,-0.049,0.01,-0.21,0.283,0.029,0.073,0.581,0.356
1.558,-0.117,-0.049,0.068,0.083,-0.093,0.01,-0.171,0.278,0.02,0.078,0.586,0.356
1.56,-0.112,-0.063,0.049,0.088,-0.083,-0.01,-0.195,0.273,0.01,0.117,0.571,0.337
1.562,0.0,-0.015,-0.015,0.01,0.005,-0.015,-0.2,0.264,0.01,0.161,0.576,0.346
1.564,0.02,-0.015,-0.034,0.0,0.024,-0.024,-0.171,0.264,0.0,0.181,0.566,0.342
1.566,-0.044,-0.083,-0.039,0.063,-0.005,-0.063,-0.215,0.21,-0.015,0.176,0.542,0.312
1.568,-0.024,-0.078,-0.054,0.054,0.015,-0.068,-0.205,0.205,-0.02,0.195,0.547,0.317
1.57,0.039,0.02,-0.02,-0.029,0.029,0.0,-0.142,0.239,-0.005,0.244,0.576,0.346
1.572,-0.024,-0.039,-0.015,0.034,-0.005,-0.029,-0.185,0.234,-0.015,0.239,0.566,0.342
1.574,-0.005,-0.039,-0.034,0.024,0.015,-0.039,-0.19,0.215,-0.015,0.254,0.576,0.356
1.576,-0.005,-0.024,-0.02,0.015,0.005,-0.024,-0.156,0.22,-0.005,0.264,0.595,0.371
1.578,-0.132,-0.142,-0.01,0.137,-0.063,-0.078,-0.195,0.176,-0.029,0.234,0.556,0.337
1.58,-0.088,-0.078,0.01,0.083,-0.049,-0.034,-0.171,0.2,-0.005,0.244,0.581,0.366
1.582,0.024,0.005,-0.02,-0.015,0.02,-0.01,-0.146,0.249,0.005,0.264,0.595,0.381
1.584,0.034,0.0,-0.034,-0.015,0.034,-0.02,-0.171,0.239,0.02,0.254,0.59,0.386
1.586,0.0,-0.073,-0.073,0.039,0.034,-0.073,-0.215,0.181,0.02,0.234,0.576,0.351
1.588,0.0,-0.068,-0.068,0.034,0.034,-0.068,-0.181,0.176,0.029,0.224,0.561,0.342
1.59,0.02,-0.015,-0.034,0.0,0.024,-0.024,-0.156,0.205,0.068,0.264,0.581,0.381
1.592,-0.054,-0.029,0.024,0.044,-0.039,-0.005,-0.142,0.224,0.102,0.283,0.6,0.4
1.594,0.0,-0.015,-0.015,0.01,0.005,-0.015,-0.117,0.224,0.088,0.288,0.595,0.39
1.596,0.02,-0.039,-0.059,0.01,0.039,-0.049,-0.151,0.205,0.063,0.264,0.581,0.371
1.598,-0.063,-0.088,-0.024,0.078,-0.02,-0.059,-0.156,0.215,0.063,0.259,0.581,0.366
1.6,-0.073,-0.049,0.024,0.063,-0.049,-0.015,-0.122,0.264,0.102,0.278,0.615,0.405
1.602,-0.078,-0.039,0.039,0.059,-0.059,0.0,-0.098,0.278,0.112,0.288,0.62,0.41
1.604,-0.063,-0.02,0.044,0.044,-0.054,0.01,-0.049,0.259,0.112,0.278,0.62,0.41
1.606,-0.024,-0.02,0.005,0.024,-0.015,-0.01,-0.063,0.278,0.117,0.283,0.615,0.41
1.608,-0.01,-0.024,-0.015,0.02,0.0,-0.02,-0.112,0.278,0.107,0.268,0.595,0.386
1.61,-0.015,0.0,0.015,0.01,-0.015,0.005,-0.093,0.288,0.102,0.288,0.62,0.395
1.612,-0.063,-0.044,0.02,0.054,-0.044,-0.015,-0.102,0.293,0.098,0.278,0.61,0.386
1.614,-0.024,-0.044,-0.02,0.034,-0.005,-0.034,-0.098,0.278,0.073,0.264,0.581,0.366
1.616,-0.059,-0.054,0.005,0.059,-0.034,-0.024,-0.098,0.288,0.098,0.268,0.581,0.381
1.618,0.01,0.0,-0.01,-0.005,0.01,-0.005,-0.112,0.303,0.112,0.278,0.6,0.39
1.62,-0.015,-0.015,0.0,0.015,-0.01,-0.01,-0.122,0.307,0.093,0.268,0.595,0.395
1.622,-0.078,-0.063,0.015,0.073,-0.049,-0.024,-0.161,0.283,0.063,0.244,0.561,0.371
1.624,-0.088,-0.088,0.0,0.088,-0.044,-0.044,-0.181,0.278,0.054,0.22,0.547,0.351
1.626,-0.102,-0.054,0.049,0.078,-0.078,-0.005,-0.185,0.278,0.088,0.239,0.561,0.366
1.628,-0.059,-0.034,0.024,0.049,-0.044,-0.005,-0.195,0.283,0.083,0.234,0.556,0.366
1.63,0.059,0.005,-0.054,-0.029,0.054,-0.024,-0.215,0.273,0.049,0.215,0.537,0.346
1.632,0.083,-0.015,-0.098,-0.034,0.088,-0.059,-0.229,0.249,0.034,0.195,0.527,0.351
1.634,-0.054,-0.083,-0.029,0.068,-0.015,-0.059,-0.224,0.234,0.024,0.2,0.532,0.346
1.636,-0.063,-0.073,-0.01,0.068,-0.029,-0.044,-0.195,0.244,0.029,0.215,0.547,0.356
1.638,-0.054,-0.034,0.02,0.044,-0.039,-0.01,-0.181,0.215,0.029,0.21,0.556,0.366
1.64,-0.024,-0.029,-0.005,0.029,-0.01,-0.02,-0.166,0.19,0.01,0.176,0.542,0.351
1.642,-0.044,-0.078,-0.034,0.063,-0.005,-0.059,-0.215,0.185,-0.029,0.137,0.517,0.322
1.644,-0.224,-0.117,0.107,0.171,-0.166,-0.005,-0.171,0.205,-0.01,0.151,0.551,0.351
1.646,-0.132,-0.073,0.059,0.102,-0.098,-0.01,-0.176,0.176,-0.02,0.146,0.532,0.342
1.648,0.044,0.029,-0.015,-0.034,0.029,0.005,-0.161,0.166,-0.024,0.151,0.532,0.346
1.65,0.039,0.005,-0.034,-0.02,0.034,-0.015,-0.171,0.146,-0.044,0.137,0.522,0.337
1.652,-0.083,-0.054,0.029,0.068,-0.059,-0.015,-0.137,0.127,-0.049,0.122,0.512,0.342
1.654,-0.117,-0.063,0.054,0.093,-0.088,-0.005,-0.127,0.137,-0.034,0.127,0.517,0.342
1.656,-0.102,-0.039,0.063,0.073,-0.083,0.01,-0.117,0.156,-0.039,0.117,0.517,0.346
1.658,0.034,0.059,0.024,-0.044,0.005,0.039,-0.122,0.156,-0.029,0.137,0.493,0.381
1.66,0.01,-0.005,-0.015,0.0,0.01,-0.01,-0.171,0.137,-0.063,0.088,0.386,0.351
1.662,-0.088,-0.078,0.01,0.083,-0.049,-0.034,-0.19,0.088,-0.073,0.044,0.278,0.317
1.664,-0.078,-0.063,0.015,0.073,-0.049,-0.024,-0.195,0.073,-0.088,0.024,0.21,0.312
1.666,-0.102,-0.059,0.044,0.083,-0.073,-0.01,-0.171,0.068,-0.088,0.015,0.156,0.298
1.668,-0.127,-0.107,0.02,0.117,-0.073,-0.044,-0.171,0.039,-0.122,-0.02,0.078,0.259
1.67,-0.068,-0.088,-0.02,0.078,-0.024,-0.054,-0.185,0.01,-0.132,-0.039,0.02,0.234
1.672,-0.015,-0.039,-0.024,0.029,0.005,-0.034,-0.185,0.005,-0.142,-0.049,-0.02,0.22
1.674,-0.132,-0.107,0.024,0.122,-0.078,-0.044,-0.21,-0.005,-0.161,-0.068,-0.049,0.2
1.676,-0.176,-0.137,0.039,0.156,-0.107,-0.049,-0.239,-0.02,-0.185,-0.098,-0.034,0.181
1.678,-0.117,-0.117,0.0,0.117,-0.059,-0.059,-0.254,-0.015,-0.224,-0.137,-0.005,0.176
1.68,0.059,0.01,-0.049,-0.034,0.054,-0.02,-0.229,0.01,-0.205,-0.137,0.054,0.195
1.682,0.034,-0.02,-0.054,-0.005,0.044,-0.039,-0.229,0.005,-0.22,-0.161,0.073,0.19
1.684,-0.034,-0.049,-0.015,0.044,-0.01,-0.034,-0.234,-0.02,-0.234,-0.176,0.044,0.19
1.686,0.024,0.024,0.0,-0.024,0.01,0.01,-0.185,0.0,-0.22,-0.176,0.0,0.21
1.688,-0.083,-0.112,-0.029,0.098,-0.029,-0.073,-0.224,-0.054,-0.278,-0.234,-0.088,0.146
1.69,-0.166,-0.132,0.034,0.151,-0.102,-0.049,-0.229,-0.02,-0.259,-0.22,-0.039,0.156
1.692,-0.098,-0.054,0.044,0.078,-0.073,-0.005,-0.22,0.01,-0.224,-0.195,0.02,0.185
1.694,-0.127,-0.093,0.034,0.112,-0.083,-0.029,-0.181,-0.02,-0.249,-0.2,0.039,0.181
1.696,-0.122,-0.054,0.068,0.088,-0.098,0.005,-0.166,0.0,-0.224,-0.142,0.083,0.2
1.698,-0.122,-0.098,0.024,0.112,-0.073,-0.039,-0.2,-0.024,-0.259,-0.132,0.063,0.166
1.7,-0.063,-0.112,-0.049,0.088,-0.01,-0.083,-0.19,-0.024,-0.268,-0.132,0.049,0.132
1.702,-0.02,-0.078,-0.059,0.049,0.02,-0.068,-0.185,0.0,-0.259,-0.093,0.078,0.156
1.704,-0.112,-0.102,0.01,0.107,-0.063,-0.049,-0.21,0.005,-0.239,-0.063,0.112,0.176
1.706,-0.176,-0.142,0.034,0.161,-0.107,-0.054,-0.215,-0.005,-0.254,-0.054,0.083,0.185
1.708,-0.127,-0.083,0.044,0.107,-0.088,-0.02,-0.176,0.024,-0.239,-0.024,0.102,0.205
1.71,-0.005,-0.02,-0.015,0.015,0.005,-0.02,-0.151,0.02,-0.224,-0.029,0.068,0.21
1.712,-0.093,-0.112,-0.02,0.102,-0.039,-0.068,-0.185,-0.005,-0.229,-0.044,-0.039,0.185
1.714,-0.063,-0.098,-0.034,0.083,-0.015,-0.068,-0.156,0.015,-0.249,-0.044,-0.088,0.185
1.716,-0.176,-0.137,0.039,0.156,-0.107,-0.049,-0.137,0.044,-0.239,-0.029,-0.107,0.19
1.718,-0.137,-0.122,0.015,0.132,-0.078,-0.054,-0.146,0.044,-0.234,-0.024,-0.117,0.195
1.72,-0.132,-0.127,0.005,0.132,-0.068,-0.063,-0.146,0.059,-0.224,-0.029,-0.088,0.2
1.722,-0.107,-0.102,0.005,0.107,-0.059,-0.049,-0.132,0.068,-0.2,-0.005,-0.034,0.215
1.724,-0.063,-0.078,-0.015,0.073,-0.024,-0.049,-0.132,0.059,-0.19,-0.005,-0.005,0.22
1.726,-0.063,-0.102,-0.039,0.083,-0.015,-0.073,-0.137,0.039,-0.195,-0.015,0.0,0.2
1.728,-0.034,-0.098,-0.063,0.068,0.015,-0.083,-0.151,0.049,-0.2,-0.01,0.02,0.195
1.73,0.029,-0.078,-0.107,0.024,0.068,-0.093,-0.146,0.049,-0.21,-0.005,0.029,0.205
1.732,-0.049,-0.093,-0.044,0.073,-0.005,-0.068,-0.102,0.054,-0.195,0.015,0.054,0.229
1.734,-0.039,-0.068,-0.029,0.054,-0.005,-0.049,-0.127,0.063,-0.171,0.034,0.093,0.244
1.736,0.039,-0.059,-0.098,0.01,0.068,-0.078,-0.137,0.054,-0.2,0.024,0.098,0.229
1.738,-0.073,-0.102,-0.029,0.088,-0.024,-0.068,-0.127,0.059,-0.19,0.024,0.122,0.239
1.74,-0.059,-0.073,-0.015,0.068,-0.024,-0.044,-0.093,0.068,-0.161,0.044,0.146,0.254
1.742,-0.034,-0.054,-0.02,0.044,-0.01,-0.039,-0.073,0.063,-0.161,0.044,0.166,0.249
1.744,-0.073,-0.078,-0.005,0.078,-0.034,-0.044,-0.078,0.083,-0.161,0.039,0.176,0.254
1.746,-0.112,-0.127,-0.015,0.122,-0.049,-0.073,-0.102,0.063,-0.171,0.029,0.137,0.239
1.748,-0.122,-0.112,0.01,0.117,-0.068,-0.054,-0.122,0.063,-0.166,0.034,0.117,0.244
1.75,-0.093,-0.083,0.01,0.088,-0.054,-0.039,-0.102,0.063,-0.151,0.059,0.102,0.259
1.752,-0.146,-0.127,0.02,0.137,-0.083,-0.054,-0.098,0.049,-0.166,0.049,0.112,0.259
1.754,-0.112,-0.102,0.01,0.107,-0.063,-0.049,-0.107,0.073,-0.151,0.063,0.146,0.268
1.756,0.015,-0.01,-0.024,0.0,0.02,-0.02,-0.098,0.088,-0.127,0.078,0.171,0.283
1.758,-0.005,-0.029,-0.024,0.02,0.01,-0.029,-0.083,0.068,-0.122,0.083,0.185,0.283
1.76,-0.19,-0.171,0.02,0.181,-0.107,-0.078,-0.117,0.005,-0.146,0.044,0.166,0.254
1.762,-0.063,-0.073,-0.01,0.068,-0.029,-0.044,-0.098,0.034,-0.122,0.078,0.21,0.288
1.764,-0.078,-0.117,-0.039,0.098,-0.02,-0.078,-0.107,-0.005,-0.142,0.068,0.2,0.278
1.766,-0.142,-0.176,-0.034,0.161,-0.054,-0.107,-0.122,-0.005,-0.156,0.059,0.2,0.268
1.768,-0.102,-0.156,-0.054,0.132,-0.024,-0.107,-0.093,0.0,-0.146,0.068,0.215,0.273
1.77,-0.093,-0.117,-0.024,0.107,-0.034,-0.073,-0.063,0.005,-0.117,0.093,0.244,0.307
1.772,-0.107,-0.127,-0.02,0.117,-0.044,-0.073,-0.073,-0.01,-0.122,0.088,0.249,0.303
1.774,0.0,-0.039,-0.039,0.02,0.02,-0.039,-0.049,0.02,-0.107,0.117,0.283,0.342
1.776,-0.039,-0.088,-0.049,0.063,0.005,-0.068,-0.098,0.015,-0.127,0.098,0.268,0.332
1.778,-0.015,-0.059,-0.044,0.039,0.015,-0.054,-0.063,0.039,-0.107,0.098,0.288,0.346
1.78,-0.102,-0.098,0.005,0.102,-0.054,-0.049,-0.093,0.049,-0.088,0.112,0.293,0.346
1.782,-0.132,-0.093,0.039,0.112,-0.088,-0.029,-0.078,0.073,-0.059,0.137,0.307,0.356
1.784,-0.068,-0.024,0.044,0.049,-0.059,0.01,-0.073,0.088,-0.029,0.166,0.327,0.381
1.786,-0.059,-0.049,0.01,0.054,-0.034,-0.02,-0.098,0.073,-0.01,0.176,0.317,0.361
1.788,-0.02,0.02,0.039,0.0,-0.029,0.029,-0.083,0.117,0.059,0.264,0.361,0.4
1.79,-0.044,0.127,0.171,-0.039,-0.107,0.146,-0.054,0.195,0.176,0.415,0.468,0.493
1.792,-0.078,0.205,0.283,-0.063,-0.181,0.244,-0.029,0.268,0.327,0.586,0.595,0.586
1.794,-0.093,0.239,0.332,-0.073,-0.215,0.283,-0.068,0.366,0.493,0.771,0.698,0.673
1.796,-0.142,0.307,0.449,-0.083,-0.298,0.376,-0.088,0.556,0.776,1.044,0.849,0.786
1.798,-0.107,0.376,0.483,-0.132,-0.298,0.429,-0.102,0.786,1.054,1.347,1.015,0.898
1.8,0.054,0.576,0.522,-0.312,-0.234,0.547,-0.073,1.054,1.43,1.732,1.254,1.088
1.802,0.127,0.737,0.61,-0.429,-0.244,0.673,-0.029,1.362,1.859,2.172,1.537,1.322
1.804,0.034,0.708,0.673,-0.371,-0.322,0.688,-0.078,1.635,2.274,2.586,1.791,1.508
1.806,0.117,0.805,0.688,-0.459,-0.288,0.747,-0.054,2.006,2.708,3.001,2.015,1.684
1.808,0.22,0.947,0.727,-0.581,-0.254,0.834,-0.02,2.269,3.094,3.377,2.255,1.874
1.81,0.346,1.088,0.742,-0.717,-0.2,0.913,0.024,2.357,3.367,3.704,2.474,2.059
1.812,0.42,1.122,0.703,-0.771,-0.142,0.913,-0.005,2.269,3.499,3.924,2.65,2.206
1.814,0.615,1.293,0.678,-0.952,-0.034,0.986,-0.02,2.133,3.611,4.153,2.85,2.396
1.816,0.595,1.249,0.654,-0.922,-0.029,0.952,-0.098,1.815,3.562,4.29,3.001,2.533
1.818,0.693,1.283,0.59,-0.986,0.049,0.937,-0.229,1.371,3.426,4.392,3.187,2.704
1.82,0.849,1.41,0.561,-1.127,0.142,0.986,-0.4,0.854,3.274,4.534,3.416,2.913
1.822,0.937,1.474,0.537,-1.205,0.2,1.005,-0.532,0.322,3.152,4.685,3.64,3.128
1.824,1.113,1.562,0.449,-1.337,0.332,1.005,-0.683,-0.2,3.04,4.856,3.924,3.377
1.826,1.181,1.42,0.239,-1.298,0.468,0.83,-0.966,-0.771,2.786,4.778,4.055,3.504
1.828,1.288,1.293,0.005,-1.288,0.639,0.649,-1.137,-1.23,2.528,4.616,4.124,3.577
1.83,1.401,1.064,-0.337,-1.23,0.869,0.361,-1.181,-1.527,2.23,4.299,3.982,3.455
1.832,1.415,0.683,-0.732,-1.049,1.074,-0.024,-1.2,-1.688,1.942,3.87,3.655,3.162
1.834,1.405,0.386,-1.02,-0.893,1.21,-0.317,-1.127,-1.747,1.635,3.367,3.221,2.811
1.836,1.235,0.083,-1.152,-0.659,1.191,-0.537,-0.971,-1.83,1.157,2.664,2.66,2.357
1.838,0.956,-0.156,-1.113,-0.4,1.035,-0.634,-0.776,-1.942,0.532,1.835,1.996,1.82
1.84,0.703,-0.351,-1.054,-0.176,0.878,-0.703,-0.634,-2.05,-0.19,0.932,1.274,1.259
1.842,0.488,-0.468,-0.956,-0.01,0.722,-0.712,-0.59,-2.142,-0.966,0.015,0.659,0.771
1.844,0.351,-0.537,-0.888,0.093,0.62,-0.712,-0.581,-2.162,-1.557,-0.766,0.181,0.371
1.846,0.22,-0.459,-0.678,0.122,0.449,-0.571,-0.498,-1.903,-1.713,-1.161,-0.073,0.146
1.848,-0.146,-0.551,-0.405,0.351,0.127,-0.478,-0.512,-1.718,-1.654,-1.274,-0.224,0.005
1.85,-0.166,-0.512,-0.346,0.342,0.088,-0.429,-0.478,-1.571,-1.532,-1.24,-0.249,-0.039
1.852,-0.098,-0.449,-0.351,0.273,0.127,-0.4,-0.464,-1.342,-1.352,-1.122,-0.2,-0.024
1.854,-0.088,-0.439,-0.351,0.264,0.132,-0.395,-0.444,-1.166,-1.191,-1.02,-0.161,-0.01
1.856,-0.044,-0.356,-0.312,0.2,0.132,-0.337,-0.356,-0.981,-1.025,-0.878,-0.098,0.044
1.858,-0.068,-0.371,-0.303,0.22,0.117,-0.337,-0.288,-0.839,-0.878,-0.786,-0.073,0.059
1.86,-0.176,-0.444,-0.268,0.312,0.044,-0.356,-0.259,-0.732,-0.815,-0.747,-0.059,0.068
1.862,-0.107,-0.361,-0.254,0.234,0.073,-0.307,-0.205,-0.59,-0.703,-0.644,-0.02,0.098
1.864,-0.102,-0.317,-0.215,0.21,0.054,-0.268,-0.146,-0.449,-0.586,-0.498,0.029,0.127
1.866,-0.054,-0.264,-0.21,0.161,0.078,-0.239,-0.122,-0.317,-0.483,-0.395,0.039,0.146
1.868,-0.093,-0.19,-0.098,0.142,0.0,-0.146,-0.034,-0.21,-0.356,-0.264,0.107,0.205
1.87,-0.244,-0.229,0.015,0.239,-0.132,-0.107,0.01,-0.142,-0.278,-0.176,0.146,0.244
1.872,-0.166,-0.19,-0.024,0.181,-0.073,-0.107,0.0,-0.132,-0.268,-0.137,0.171,0.268
1.874,-0.117,-0.166,-0.049,0.142,-0.034,-0.107,-0.029,-0.117,-0.273,-0.117,0.181,0.288
1.876,-0.146,-0.176,-0.029,0.161,-0.059,-0.102,0.0,-0.093,-0.259,-0.102,0.19,0.303
1.878,0.0,-0.093,-0.093,0.049,0.044,-0.093,0.044,-0.063,-0.239,-0.083,0.21,0.327
1.88,-0.151,-0.19,-0.039,0.171,-0.059,-0.117,0.005,-0.073,-0.254,-0.102,0.185,0.307
1.882,-0.185,-0.21,-0.024,0.2,-0.083,-0.117,-0.02,-0.034,-0.234,-0.102,0.181,0.303
1.884,-0.146,-0.205,-0.059,0.176,-0.044,-0.132,0.005,-0.02,-0.229,-0.107,0.176,0.298
1.886,-0.146,-0.181,-0.034,0.166,-0.059,-0.107,0.049,-0.005,-0.21,-0.098,0.185,0.303
1.888,-0.107,-0.127,-0.02,0.117,-0.044,-0.073,0.059,-0.024,-0.185,-0.068,0.19,0.312
1.89,-0.054,-0.073,-0.02,0.063,-0.02,-0.049,0.044,-0.029,-0.156,-0.039,0.215,0.327
1.892,-0.176,-0.137,0.039,0.156,-0.107,-0.049,0.034,-0.044,-0.142,-0.044,0.224,0.327
1.894,-0.098,-0.151,-0.054,0.127,-0.024,-0.102,0.01,-0.068,-0.185,-0.078,0.2,0.293
1.896,-0.083,-0.176,-0.093,0.132,0.005,-0.137,0.005,-0.102,-0.205,-0.083,0.19,0.283
1.898,-0.146,-0.151,-0.005,0.151,-0.073,-0.078,0.034,-0.068,-0.161,-0.054,0.234,0.312
1.9,-0.132,-0.122,0.01,0.127,-0.073,-0.059,0.039,-0.044,-0.137,-0.034,0.249,0.317
1.902,-0.2,-0.254,-0.054,0.229,-0.073,-0.156,-0.024,-0.073,-0.2,-0.117,0.176,0.249
1.904,-0.122,-0.171,-0.049,0.146,-0.039,-0.112,-0.015,-0.059,-0.19,-0.098,0.21,0.288
1.906,-0.029,-0.039,-0.01,0.034,-0.01,-0.024,0.034,0.015,-0.102,-0.054,0.268,0.351
1.908,-0.171,-0.181,-0.01,0.176,-0.083,-0.098,0.0,-0.059,-0.151,-0.112,0.205,0.307
1.91,-0.146,-0.181,-0.034,0.166,-0.059,-0.107,0.01,-0.063,-0.156,-0.102,0.215,0.322
1.912,-0.176,-0.19,-0.015,0.185,-0.083,-0.102,0.0,-0.068,-0.171,-0.107,0.229,0.332
1.914,-0.195,-0.151,0.044,0.176,-0.122,-0.054,0.024,-0.034,-0.146,-0.083,0.259,0.371
1.916,-0.151,-0.127,0.024,0.142,-0.088,-0.054,0.044,-0.02,-0.142,-0.083,0.283,0.381
1.918,-0.117,-0.137,-0.02,0.127,-0.049,-0.078,0.0,-0.02,-0.156,-0.112,0.264,0.371
1.92,-0.195,-0.195,0.0,0.195,-0.098,-0.098,0.015,-0.029,-0.161,-0.151,0.195,0.356
1.922,-0.22,-0.249,-0.029,0.234,-0.098,-0.142,0.005,-0.073,-0.166,-0.205,0.107,0.303
1.924,-0.151,-0.2,-0.049,0.176,-0.054,-0.127,-0.02,-0.063,-0.142,-0.224,0.107,0.298
1.926,-0.102,-0.137,-0.034,0.122,-0.034,-0.088,-0.005,-0.024,-0.102,-0.22,0.117,0.307
1.928,-0.215,-0.171,0.044,0.195,-0.132,-0.063,-0.024,-0.029,-0.073,-0.215,0.142,0.303
1.93,-0.107,-0.098,0.01,0.102,-0.059,-0.044,-0.02,-0.029,-0.068,-0.22,0.142,0.312
1.932,-0.088,-0.122,-0.034,0.107,-0.029,-0.078,-0.049,-0.049,-0.093,-0.254,0.112,0.288
1.934,-0.112,-0.151,-0.039,0.132,-0.039,-0.098,-0.063,-0.049,-0.112,-0.273,0.088,0.273
1.936,-0.088,-0.146,-0.059,0.117,-0.015,-0.102,-0.073,-0.034,-0.127,-0.288,0.049,0.264
1.938,-0.063,-0.098,-0.034,0.083,-0.015,-0.068,-0.054,0.005,-0.102,-0.288,0.039,0.273
1.94,-0.215,-0.127,0.088,0.171,-0.151,-0.02,0.02,0.044,-0.078,-0.268,0.024,0.303
1.942,-0.166,-0.117,0.049,0.142,-0.107,-0.034,-0.01,0.029,-0.093,-0.293,-0.034,0.273
1.944,-0.205,-0.181,0.024,0.195,-0.117,-0.078,-0.063,0.0,-0.112,-0.337,-0.107,0.224
1.946,-0.151,-0.161,-0.01,0.156,-0.073,-0.088,-0.073,-0.015,-0.107,-0.371,-0.161,0.2
1.948,-0.102,-0.112,-0.01,0.107,-0.049,-0.063,-0.063,0.0,-0.117,-0.376,-0.181,0.2
1.95,-0.224,-0.181,0.044,0.205,-0.137,-0.068,-0.059,-0.024,-0.127,-0.386,-0.215,0.195
1.952,-0.22,-0.205,0.015,0.215,-0.117,-0.098,-0.034,-0.068,-0.161,-0.395,-0.254,0.166
1.954,-0.181,-0.161,0.02,0.171,-0.102,-0.073,-0.015,-0.015,-0.127,-0.395,-0.244,0.195
1.956,-0.156,-0.137,0.02,0.146,-0.088,-0.059,-0.005,0.0,-0.122,-0.405,-0.264,0.19
1.958,-0.244,-0.244,0.0,0.244,-0.122,-0.122,-0.044,-0.039,-0.166,-0.459,-0.327,0.156
1.96,-0.146,-0.132,0.015,0.142,-0.083,-0.059,-0.015,-0.005,-0.122,-0.439,-0.317,0.195
1.962,-0.185,-0.127,0.059,0.156,-0.122,-0.034,0.02,0.02,-0.112,-0.429,-0.342,0.2
1.964,-0.2,-0.142,0.059,0.171,-0.132,-0.044,0.039,-0.005,-0.132,-0.41,-0.376,0.171
1.966,-0.161,-0.156,0.005,0.161,-0.083,-0.078,-0.01,-0.039,-0.156,-0.4,-0.425,0.142
1.968,-0.21,-0.151,0.059,0.181,-0.137,-0.049,0.005,-0.015,-0.127,-0.337,-0.425,0.161
1.97,-0.244,-0.171,0.073,0.21,-0.161,-0.049,0.0,-0.02,-0.142,-0.312,-0.449,0.151
1.972,-0.234,-0.156,0.078,0.195,-0.156,-0.039,0.01,0.0,-0.151,-0.293,-0.464,0.151
1.974,-0.205,-0.107,0.098,0.156,-0.151,-0.005,0.083,0.068,-0.137,-0.254,-0.444,0.176
1.976,-0.122,-0.054,0.068,0.088,-0.098,0.005,0.122,0.063,-0.142,-0.249,-0.454,0.181
1.978,-0.127,-0.088,0.039,0.107,-0.083,-0.024,0.063,0.044,-0.166,-0.268,-0.488,0.161
1.98,-0.234,-0.176,0.059,0.205,-0.146,-0.059,0.039,0.049,-0.19,-0.288,-0.517,0.142
1.982,-0.2,-0.117,0.083,0.161,-0.142,-0.02,0.063,0.039,-0.185,-0.283,-0.532,0.146
1.984,-0.146,-0.083,0.063,0.117,-0.107,-0.01,0.063,0.039,-0.181,-0.293,-0.551,0.127
1.986,-0.142,-0.078,0.063,0.112,-0.102,-0.01,0.059,0.054,-0.185,-0.303,-0.561,0.122
1.988,-0.166,-0.146,0.02,0.156,-0.093,-0.063,0.034,0.0,-0.239,-0.337,-0.61,0.083
1.99,-0.142,-0.132,0.01,0.137,-0.078,-0.063,0.044,-0.015,-0.244,-0.346,-0.625,0.073
1.992,-0.122,-0.068,0.054,0.098,-0.088,-0.01,0.063,0.029,-0.234,-0.312,-0.6,0.107
1.994,-0.127,-0.083,0.044,0.107,-0.088,-0.02,0.02,0.024,-0.249,-0.322,-0.605,0.127
1.996,-0.19,-0.151,0.039,0.171,-0.117,-0.059,-0.015,-0.015,-0.293,-0.366,-0.654,0.093
1.998,-0.22,-0.151,0.068,0.185,-0.146,-0.044,0.02,0.01,-0.283,-0.361,-0.644,0.107
2.0,-0.107,-0.068,0.039,0.088,-0.073,-0.015,0.034,0.005,-0.283,-0.366,-0.649,0.117
2.002,-0.2,-0.19,0.01,0.195,-0.107,-0.093,-0.015,-0.049,-0.346,-0.42,-0.717,0.063
2.004,-0.132,-0.151,-0.02,0.142,-0.059,-0.088,-0.024,-0.063,-0.351,-0.439,-0.737,0.049
2.006,-0.21,-0.112,0.098,0.161,-0.156,-0.01,0.015,-0.024,-0.278,-0.39,-0.693,0.117
2.008,-0.21,-0.088,0.122,0.151,-0.166,0.015,0.059,-0.024,-0.293,-0.371,-0.683,0.142
2.01,-0.034,0.063,0.098,-0.015,-0.068,0.078,0.127,0.029,-0.229,-0.307,-0.63,0.2
2.012,-0.195,-0.112,0.083,0.156,-0.142,-0.015,0.054,-0.034,-0.307,-0.361,-0.673,0.161
2.014,-0.283,-0.19,0.093,0.239,-0.19,-0.049,0.015,-0.054,-0.337,-0.366,-0.673,0.161
2.016,-0.151,-0.161,-0.01,0.156,-0.073,-0.088,0.01,-0.098,-0.371,-0.395,-0.708,0.142
2.018,-0.2,-0.195,0.005,0.2,-0.102,-0.098,0.024,-0.102,-0.376,-0.395,-0.703,0.151
2.02,-0.264,-0.195,0.068,0.229,-0.166,-0.063,0.024,-0.073,-0.351,-0.371,-0.683,0.171
2.022,-0.156,-0.078,0.078,0.117,-0.117,0.0,0.068,-0.029,-0.322,-0.351,-0.659,0.2
2.024,-0.117,-0.073,0.044,0.098,-0.083,-0.015,0.039,-0.063,-0.342,-0.361,-0.678,0.176
2.026,-0.112,-0.112,0.0,0.112,-0.059,-0.059,0.044,-0.073,-0.346,-0.376,-0.693,0.156
2.028,-0.156,-0.127,0.029,0.142,-0.093,-0.049,0.044,-0.098,-0.337,-0.376,-0.693,0.161
2.03,-0.19,-0.166,0.024,0.181,-0.107,-0.073,0.02,-0.122,-0.351,-0.386,-0.698,0.161
2.032,-0.181,-0.161,0.02,0.171,-0.102,-0.073,0.044,-0.098,-0.337,-0.371,-0.678,0.176
2.034,-0.093,-0.132,-0.039,0.112,-0.029,-0.088,0.059,-0.122,-0.317,-0.39,-0.673,0.185
2.036,-0.122,-0.098,0.024,0.112,-0.073,-0.039,0.054,-0.093,-0.298,-0.371,-0.63,0.22
2.038,-0.156,-0.088,0.068,0.122,-0.112,-0.01,0.093,-0.059,-0.283,-0.361,-0.561,0.239
2.04,-0.117,-0.107,0.01,0.112,-0.063,-0.049,0.107,-0.078,-0.283,-0.405,-0.542,0.22
2.042,-0.088,-0.151,-0.063,0.122,-0.015,-0.107,0.02,-0.132,-0.322,-0.464,-0.547,0.185
2.044,-0.166,-0.171,-0.005,0.171,-0.083,-0.088,0.029,-0.127,-0.322,-0.468,-0.508,0.185
2.046,-0.185,-0.146,0.039,0.166,-0.112,-0.054,0.044,-0.107,-0.293,-0.459,-0.483,0.2
2.048,-0.098,-0.068,0.029,0.083,-0.063,-0.02,0.068,-0.059,-0.249,-0.41,-0.429,0.234
2.05,-0.034,-0.054,-0.02,0.044,-0.01,-0.039,0.039,-0.083,-0.249,-0.415,-0.405,0.229
2.052,-0.093,-0.083,0.01,0.088,-0.054,-0.039,0.044,-0.088,-0.22,-0.429,-0.381,0.229
2.054,-0.083,-0.073,0.01,0.078,-0.049,-0.034,0.073,-0.088,-0.21,-0.42,-0.381,0.254
2.056,-0.127,-0.146,-0.02,0.137,-0.054,-0.083,0.063,-0.093,-0.224,-0.454,-0.41,0.234
2.058,0.015,-0.044,-0.059,0.015,0.034,-0.054,0.039,-0.059,-0.2,-0.429,-0.405,0.254
2.06,-0.146,-0.156,-0.01,0.151,-0.068,-0.083,0.039,-0.073,-0.205,-0.444,-0.429,0.244
2.062,-0.137,-0.151,-0.015,0.146,-0.063,-0.083,0.044,-0.059,-0.19,-0.444,-0.444,0.234
2.064,-0.015,-0.054,-0.039,0.034,0.01,-0.049,0.063,-0.039,-0.176,-0.439,-0.42,0.254
2.066,-0.093,-0.107,-0.015,0.102,-0.039,-0.063,0.059,-0.078,-0.171,-0.454,-0.439,0.239
2.068,-0.234,-0.2,0.034,0.22,-0.137,-0.083,0.039,-0.083,-0.161,-0.454,-0.468,0.229
2.07,-0.146,-0.146,0.0,0.146,-0.073,-0.073,0.039,-0.078,-0.132,-0.415,-0.464,0.249
2.072,-0.049,-0.098,-0.049,0.073,0.0,-0.073,0.024,-0.102,-0.137,-0.425,-0.464,0.259
2.074,-0.054,-0.107,-0.054,0.083,0.0,-0.083,0.024,-0.112,-0.166,-0.425,-0.473,0.264
2.076,0.01,-0.107,-0.117,0.049,0.063,-0.112,0.039,-0.107,-0.181,-0.4,-0.488,0.254
2.078,-0.078,-0.166,-0.088,0.122,0.005,-0.127,0.02,-0.112,-0.176,-0.337,-0.493,0.259
2.08,-0.254,-0.195,0.059,0.224,-0.156,-0.068,0.078,-0.088,-0.117,-0.259,-0.464,0.293
2.082,-0.044,-0.068,-0.024,0.059,-0.01,-0.049,0.088,-0.063,-0.107,-0.22,-0.468,0.288
2.084,-0.029,-0.068,-0.039,0.049,0.005,-0.054,0.112,-0.078,-0.098,-0.2,-0.473,0.288
2.086,-0.117,-0.146,-0.029,0.132,-0.044,-0.088,0.093,-0.107,-0.107,-0.21,-0.503,0.259
2.088,-0.112,-0.161,-0.049,0.137,-0.034,-0.107,0.044,-0.146,-0.122,-0.205,-0.522,0.239
2.09,-0.063,-0.107,-0.044,0.088,-0.01,-0.078,0.054,-0.117,-0.098,-0.171,-0.512,0.254
2.092,-0.005,-0.039,-0.034,0.024,0.015,-0.039,0.098,-0.093,-0.063,-0.122,-0.473,0.293
2.094,-0.146,-0.166,-0.02,0.156,-0.063,-0.093,0.078,-0.122,-0.088,-0.151,-0.508,0.259
2.096,-0.137,-0.146,-0.01,0.142,-0.063,-0.078,0.093,-0.102,-0.073,-0.117,-0.493,0.273
2.098,-0.112,-0.142,-0.029,0.127,-0.044,-0.088,0.107,-0.117,-0.073,-0.117,-0.493,0.273
2.1,0.01,-0.044,-0.054,0.02,0.029,-0.049,0.098,-0.088,-0.039,-0.098,-0.478,0.293
2.102,0.02,0.0,-0.02,-0.01,0.02,-0.01,0.161,-0.049,0.005,-0.068,-0.454,0.312
2.104,0.024,-0.078,-0.102,0.029,0.063,-0.093,0.098,-0.117,-0.054,-0.132,-0.517,0.249
2.106,0.0,-0.088,-0.088,0.044,0.044,-0.088,0.098,-0.112,-0.044,-0.132,-0.527,0.244
2.108,-0.127,-0.132,-0.005,0.132,-0.063,-0.068,0.122,-0.083,-0.015,-0.112,-0.503,0.273
2.11,-0.093,-0.132,-0.039,0.112,-0.029,-0.088,0.083,-0.093,-0.034,-0.102,-0.508,0.268
2.112,-0.127,-0.127,0.0,0.127,-0.063,-0.063,0.107,-0.073,-0.015,-0.088,-0.493,0.278
2.114,-0.132,-0.088,0.044,0.112,-0.088,-0.024,0.093,-0.044,0.015,-0.078,-0.464,0.298
2.116,-0.127,-0.127,0.0,0.127,-0.063,-0.063,0.093,-0.083,0.015,-0.093,-0.473,0.283
2.118,-0.127,-0.146,-0.02,0.137,-0.054,-0.083,0.098,-0.073,0.0,-0.102,-0.468,0.283
2.12,-0.098,-0.112,-0.015,0.107,-0.044,-0.063,0.078,-0.068,0.02,-0.112,-0.468,0.273
2.122,-0.122,-0.127,-0.005,0.127,-0.059,-0.068,0.093,-0.063,0.054,-0.132,-0.473,0.264
2.124,-0.078,-0.073,0.005,0.078,-0.044,-0.034,0.122,-0.039,0.078,-0.117,-0.459,0.273
2.126,-0.078,-0.068,0.01,0.073,-0.044,-0.029,0.107,-0.049,0.083,-0.137,-0.464,0.259
2.128,-0.039,-0.054,-0.015,0.049,-0.015,-0.034,0.098,-0.049,0.098,-0.151,-0.468,0.254
2.13,-0.015,-0.068,-0.054,0.044,0.02,-0.063,0.112,-0.059,0.098,-0.181,-0.488,0.244
2.132,-0.044,-0.054,-0.01,0.049,-0.02,-0.034,0.137,-0.034,0.127,-0.166,-0.459,0.259
2.134,-0.122,-0.127,-0.005,0.127,-0.059,-0.068,0.122,-0.059,0.117,-0.185,-0.478,0.239
2.136,-0.039,-0.127,-0.088,0.083,0.024,-0.107,0.073,-0.078,0.088,-0.215,-0.493,0.215
2.138,-0.044,-0.068,-0.024,0.059,-0.01,-0.049,0.156,-0.015,0.137,-0.195,-0.434,0.268
2.14,-0.073,-0.088,-0.015,0.083,-0.029,-0.054,0.171,-0.005,0.146,-0.2,-0.434,0.268
2.142,0.0,-0.044,-0.044,0.024,0.02,-0.044,0.151,0.005,0.146,-0.215,-0.42,0.273
2.144,0.005,-0.059,-0.063,0.029,0.034,-0.063,0.137,0.005,0.142,-0.234,-0.42,0.254
2.146,0.024,-0.068,-0.093,0.024,0.059,-0.083,0.132,-0.029,0.112,-0.249,-0.434,0.234
2.148,0.024,-0.039,-0.063,0.01,0.044,-0.054,0.156,-0.015,0.146,-0.229,-0.42,0.254
2.15,-0.068,-0.093,-0.024,0.083,-0.024,-0.059,0.156,-0.01,0.137,-0.234,-0.415,0.259
2.152,-0.059,-0.083,-0.024,0.073,-0.02,-0.054,0.161,0.0,0.127,-0.215,-0.4,0.264
2.154,-0.034,-0.005,0.029,0.02,-0.034,0.01,0.176,0.049,0.166,-0.185,-0.371,0.312
2.156,-0.044,-0.01,0.034,0.029,-0.039,0.01,0.176,0.068,0.171,-0.19,-0.366,0.322
2.158,-0.068,-0.073,-0.005,0.073,-0.034,-0.039,0.142,0.039,0.137,-0.224,-0.381,0.298
2.16,-0.01,-0.059,-0.049,0.034,0.02,-0.054,0.161,0.044,0.137,-0.239,-0.381,0.293
2.162,-0.005,-0.073,-0.068,0.039,0.029,-0.073,0.151,0.049,0.117,-0.264,-0.4,0.268
2.164,-0.015,-0.083,-0.068,0.049,0.024,-0.078,0.156,0.068,0.112,-0.259,-0.415,0.264
2.166,-0.029,-0.117,-0.088,0.073,0.029,-0.102,0.122,0.044,0.098,-0.288,-0.449,0.249
2.168,-0.015,-0.029,-0.015,0.024,0.0,-0.024,0.161,0.073,0.151,-0.229,-0.405,0.298
2.17,0.01,0.0,-0.01,-0.005,0.01,-0.005,0.171,0.098,0.156,-0.2,-0.395,0.307
2.172,0.01,-0.02,-0.029,0.005,0.02,-0.024,0.161,0.063,0.117,-0.239,-0.415,0.283
2.174,-0.044,-0.073,-0.029,0.059,-0.01,-0.054,0.151,0.029,0.093,-0.273,-0.429,0.273
2.176,-0.049,-0.049,0.0,0.049,-0.024,-0.024,0.156,0.044,0.098,-0.268,-0.415,0.288
2.178,0.0,-0.049,-0.049,0.024,0.024,-0.049,0.127,0.044,0.088,-0.278,-0.434,0.278
2.18,-0.068,-0.122,-0.054,0.098,-0.01,-0.088,0.107,0.029,0.044,-0.322,-0.464,0.249
2.182,-0.088,-0.107,-0.02,0.098,-0.034,-0.063,0.122,0.034,0.049,-0.332,-0.459,0.254
2.184,-0.02,-0.073,-0.054,0.049,0.015,-0.063,0.112,0.015,0.049,-0.337,-0.468,0.239
2.186,-0.093,-0.112,-0.02,0.102,-0.039,-0.068,0.127,0.039,0.068,-0.337,-0.473,0.239
2.188,-0.102,-0.102,0.0,0.102,-0.054,-0.054,0.127,0.059,0.078,-0.351,-0.473,0.239
2.19,-0.093,-0.059,0.034,0.078,-0.063,-0.015,0.142,0.078,0.093,-0.327,-0.444,0.268
2.192,-0.068,-0.073,-0.005,0.073,-0.034,-0.039,0.117,0.049,0.049,-0.361,-0.464,0.244
2.194,-0.117,-0.117,0.0,0.117,-0.059,-0.059,0.112,0.068,0.039,-0.371,-0.468,0.234
2.196,-0.049,-0.068,-0.02,0.059,-0.015,-0.044,0.117,0.044,0.029,-0.376,-0.459,0.234
2.198,0.01,-0.063,-0.073,0.029,0.039,-0.068,0.127,0.049,0.01,-0.39,-0.464,0.234
2.2,0.0,-0.078,-0.078,0.039,0.039,-0.078,0.142,0.044,0.01,-0.4,-0.468,0.229
2.202,-0.059,-0.117,-0.059,0.088,0.0,-0.088,0.151,0.02,0.005,-0.415,-0.478,0.215
2.204,-0.107,-0.205,-0.098,0.156,-0.005,-0.151,0.132,-0.015,-0.024,-0.459,-0.527,0.156
2.206,-0.024,-0.093,-0.068,0.059,0.02,-0.083,0.142,0.024,0.0,-0.405,-0.488,0.195
2.208,0.015,-0.01,-0.024,0.0,0.02,-0.02,0.195,0.044,0.039,-0.366,-0.42,0.22
2.21,-0.034,-0.112,-0.078,0.073,0.02,-0.098,0.137,-0.034,-0.024,-0.425,-0.478,0.151
2.212,-0.049,-0.054,-0.005,0.054,-0.024,-0.029,0.181,0.0,0.01,-0.386,-0.459,0.185
2.214,-0.049,-0.024,0.024,0.039,-0.039,0.0,0.22,0.015,0.015,-0.366,-0.464,0.185
2.216,-0.132,-0.127,0.005,0.132,-0.068,-0.063,0.161,-0.01,-0.034,-0.4,-0.508,0.132
2.218,-0.102,-0.112,-0.01,0.107,-0.049,-0.063,0.151,0.005,-0.034,-0.39,-0.512,0.127
2.22,-0.015,-0.039,-0.024,0.029,0.005,-0.034,0.166,0.02,-0.015,-0.386,-0.488,0.142
2.222,-0.049,-0.078,-0.029,0.063,-0.01,-0.054,0.127,0.01,-0.024,-0.4,-0.517,0.137
2.224,-0.044,-0.073,-0.029,0.059,-0.01,-0.054,0.122,0.02,-0.005,-0.395,-0.522,0.142
2.226,-0.073,-0.117,-0.044,0.098,-0.015,-0.083,0.083,-0.01,-0.02,-0.366,-0.542,0.122
2.228,0.015,-0.068,-0.083,0.029,0.049,-0.078,0.049,-0.024,-0.039,-0.307,-0.551,0.112
2.23,-0.034,-0.078,-0.044,0.059,0.005,-0.063,0.049,-0.015,-0.044,-0.244,-0.532,0.127
2.232,-0.122,-0.122,0.0,0.122,-0.063,-0.063,0.063,-0.015,-0.039,-0.215,-0.517,0.132
2.234,-0.137,-0.146,-0.01,0.142,-0.063,-0.078,0.044,-0.024,-0.049,-0.2,-0.512,0.122
2.236,-0.098,-0.122,-0.024,0.112,-0.039,-0.073,0.054,-0.01,-0.063,-0.181,-0.493,0.122
2.238,-0.039,-0.088,-0.049,0.063,0.005,-0.068,0.083,-0.005,-0.044,-0.151,-0.454,0.151
2.24,0.029,-0.059,-0.088,0.015,0.059,-0.073,0.078,0.0,-0.049,-0.151,-0.454,0.137
2.242,-0.156,-0.161,-0.005,0.161,-0.078,-0.083,0.044,-0.01,-0.059,-0.156,-0.464,0.132
2.244,-0.063,-0.068,-0.005,0.068,-0.029,-0.039,0.068,0.015,-0.029,-0.122,-0.454,0.151
2.246,-0.005,-0.029,-0.024,0.02,0.01,-0.029,0.073,0.024,-0.02,-0.117,-0.459,0.146
2.248,-0.078,-0.093,-0.015,0.088,-0.034,-0.054,0.054,-0.015,-0.039,-0.137,-0.483,0.127
2.25,-0.156,-0.151,0.005,0.156,-0.083,-0.073,0.044,-0.039,-0.044,-0.137,-0.503,0.117
2.252,-0.093,-0.142,-0.049,0.117,-0.024,-0.098,0.029,-0.054,-0.049,-0.146,-0.512,0.107
2.254,-0.2,-0.142,0.059,0.171,-0.132,-0.044,0.083,-0.01,-0.01,-0.093,-0.473,0.151
2.256,-0.024,-0.039,-0.015,0.034,-0.005,-0.029,0.102,0.015,-0.005,-0.093,-0.464,0.166
2.258,-0.039,-0.083,-0.044,0.063,0.0,-0.063,0.093,-0.01,-0.039,-0.112,-0.473,0.151
2.26,-0.107,-0.181,-0.073,0.146,-0.02,-0.127,0.073,-0.024,-0.078,-0.161,-0.512,0.112
2.262,0.005,-0.078,-0.083,0.039,0.044,-0.083,0.107,0.0,-0.054,-0.142,-0.488,0.137
2.264,-0.034,-0.063,-0.029,0.049,-0.005,-0.049,0.151,0.015,-0.024,-0.117,-0.464,0.151
2.266,-0.044,-0.063,-0.02,0.054,-0.015,-0.044,0.137,0.02,-0.015,-0.112,-0.464,0.146
2.268,-0.059,-0.078,-0.02,0.068,-0.02,-0.049,0.117,-0.01,-0.034,-0.137,-0.468,0.132
2.27,-0.029,-0.049,-0.02,0.039,-0.005,-0.034,0.137,0.02,-0.02,-0.122,-0.464,0.142
2.272,-0.122,-0.122,0.0,0.122,-0.063,-0.063,0.088,0.0,-0.029,-0.146,-0.488,0.122
2.274,-0.142,-0.146,-0.005,0.146,-0.068,-0.078,0.068,0.0,-0.039,-0.161,-0.493,0.117
2.276,-0.093,-0.142,-0.049,0.117,-0.024,-0.098,0.059,-0.044,-0.054,-0.185,-0.508,0.098
2.278,-0.073,-0.122,-0.049,0.098,-0.015,-0.088,0.073,-0.015,-0.059,-0.195,-0.508,0.088
2.28,-0.102,-0.093,0.01,0.098,-0.059,-0.044,0.117,0.01,-0.015,-0.166,-0.483,0.122
2.282,-0.005,-0.034,-0.029,0.02,0.01,-0.034,0.122,0.02,0.0,-0.171,-0.483,0.132
2.284,-0.039,-0.068,-0.029,0.054,-0.005,-0.049,0.107,0.005,-0.01,-0.2,-0.493,0.122
2.286,-0.083,-0.137,-0.054,0.112,-0.015,-0.098,0.107,-0.015,-0.039,-0.249,-0.512,0.093
2.288,0.029,-0.044,-0.073,0.01,0.049,-0.059,0.132,0.034,-0.015,-0.215,-0.478,0.127
2.29,-0.01,-0.068,-0.059,0.039,0.024,-0.063,0.137,0.029,0.0,-0.215,-0.473,0.127
2.292,-0.059,-0.083,-0.024,0.073,-0.02,-0.054,0.151,0.024,0.034,-0.21,-0.464,0.137
2.294,0.039,-0.039,-0.078,0.0,0.059,-0.059,0.161,0.034,0.054,-0.2,-0.459,0.132
2.296,-0.044,-0.137,-0.093,0.093,0.024,-0.117,0.137,0.02,0.034,-0.224,-0.498,0.093
2.298,-0.034,-0.068,-0.034,0.054,0.0,-0.054,0.181,0.093,0.102,-0.161,-0.454,0.132
2.3,-0.044,-0.083,-0.039,0.063,-0.005,-0.063,0.171,0.093,0.132,-0.142,-0.468,0.107
2.302,-0.112,-0.088,0.024,0.102,-0.068,-0.034,0.181,0.122,0.19,-0.078,-0.454,0.117
2.304,-0.068,0.078,0.146,-0.005,-0.107,0.112,0.249,0.229,0.346,0.093,-0.322,0.234
2.306,-0.029,0.181,0.21,-0.073,-0.122,0.195,0.249,0.307,0.473,0.244,-0.229,0.303
2.308,-0.107,0.181,0.288,-0.034,-0.2,0.234,0.224,0.386,0.605,0.41,-0.132,0.376
2.31,-0.054,0.293,0.346,-0.117,-0.2,0.317,0.254,0.581,0.854,0.693,0.054,0.522
2.312,-0.054,0.376,0.429,-0.161,-0.244,0.4,0.278,0.8,1.157,1.01,0.283,0.669
2.314,-0.039,0.449,0.488,-0.205,-0.264,0.468,0.264,1.025,1.459,1.332,0.532,0.83
2.316,0.083,0.586,0.503,-0.332,-0.21,0.542,0.298,1.293,1.806,1.713,0.834,1.049
2.318,0.21,0.664,0.454,-0.434,-0.122,0.556,0.268,1.552,2.157,2.108,1.127,1.249
2.32,0.307,0.737,0.429,-0.522,-0.063,0.581,0.244,1.893,2.533,2.469,1.381,1.425
2.322,0.293,0.771,0.478,-0.532,-0.093,0.625,0.283,2.22,2.904,2.796,1.615,1.591
2.324,0.395,0.878,0.483,-0.634,-0.044,0.678,0.356,2.386,3.172,3.113,1.835,1.781
2.326,0.512,0.976,0.464,-0.742,0.024,0.717,0.307,2.357,3.294,3.353,2.001,1.923
2.328,0.595,0.991,0.395,-0.791,0.098,0.693,0.259,2.167,3.323,3.567,2.162,2.045
2.33,0.712,1.093,0.381,-0.903,0.166,0.737,0.234,1.976,3.338,3.841,2.386,2.245
2.332,0.737,1.113,0.376,-0.922,0.181,0.742,0.098,1.62,3.206,4.002,2.562,2.42
2.334,0.869,1.249,0.381,-1.059,0.244,0.815,-0.02,1.157,3.03,4.211,2.801,2.655
2.336,1.093,1.391,0.298,-1.24,0.395,0.844,-0.122,0.654,2.865,4.421,3.026,2.869
2.338,1.2,1.42,0.22,-1.308,0.488,0.82,-0.283,0.117,2.713,4.597,3.26,3.094
2.34,1.274,1.313,0.039,-1.293,0.615,0.673,-0.547,-0.508,2.445,4.582,3.401,3.24
2.342,1.396,1.166,-0.229,-1.279,0.81,0.468,-0.761,-1.044,2.113,4.397,3.426,3.289
2.344,1.415,0.922,-0.493,-1.166,0.952,0.215,-0.815,-1.376,1.81,4.109,3.279,3.172
2.346,1.444,0.61,-0.834,-1.025,1.137,-0.112,-0.781,-1.586,1.532,3.714,2.972,2.894
2.348,1.464,0.337,-1.127,-0.898,1.293,-0.395,-0.737,-1.723,1.235,3.25,2.562,2.538
2.35,1.386,0.146,-1.24,-0.766,1.313,-0.547,-0.605,-1.776,0.878,2.674,2.035,2.103
2.352,1.093,-0.137,-1.23,-0.478,1.161,-0.683,-0.483,-1.869,0.346,1.869,1.308,1.523
2.354,0.752,-0.337,-1.088,-0.205,0.917,-0.712,-0.288,-1.928,-0.22,1.044,0.556,0.942
2.356,0.439,-0.459,-0.898,0.01,0.669,-0.678,-0.142,-1.972,-0.834,0.21,-0.054,0.449
2.358,0.307,-0.512,-0.82,0.102,0.561,-0.669,-0.117,-1.976,-1.386,-0.581,-0.556,0.034
2.36,0.19,-0.542,-0.732,0.176,0.459,-0.639,-0.127,-1.918,-1.684,-1.137,-0.903,-0.283
2.362,-0.034,-0.542,-0.508,0.288,0.234,-0.527,-0.127,-1.728,-1.674,-1.318,-1.03,-0.434
2.364,-0.122,-0.488,-0.366,0.307,0.122,-0.429,-0.098,-1.527,-1.498,-1.269,-1.025,-0.444
2.366,-0.146,-0.483,-0.337,0.317,0.093,-0.41,-0.122,-1.371,-1.347,-1.186,-1.005,-0.444
2.368,-0.132,-0.39,-0.259,0.264,0.063,-0.327,-0.107,-1.186,-1.186,-1.064,-0.922,-0.386
2.37,-0.049,-0.342,-0.293,0.195,0.122,-0.317,-0.112,-1.02,-1.064,-0.961,-0.874,-0.361
2.372,-0.142,-0.415,-0.273,0.278,0.063,-0.346,-0.073,-0.854,-0.932,-0.893,-0.854,-0.351
2.374,-0.215,-0.449,-0.234,0.332,0.01,-0.342,-0.034,-0.717,-0.795,-0.795,-0.83,-0.317
2.376,-0.112,-0.351,-0.239,0.234,0.063,-0.298,0.005,-0.576,-0.683,-0.708,-0.786,-0.268
2.378,-0.059,-0.298,-0.239,0.181,0.088,-0.268,0.054,-0.444,-0.586,-0.644,-0.752,-0.234
2.38,-0.137,-0.312,-0.176,0.224,0.02,-0.244,0.098,-0.346,-0.478,-0.61,-0.732,-0.205
2.382,-0.142,-0.278,-0.137,0.21,-0.005,-0.21,0.102,-0.244,-0.376,-0.576,-0.693,-0.185
2.384,-0.098,-0.224,-0.127,0.161,0.015,-0.176,0.127,-0.171,-0.303,-0.542,-0.639,-0.166
2.386,-0.098,-0.195,-0.098,0.146,0.0,-0.146,0.142,-0.117,-0.259,-0.512,-0.615,-0.146
2.388,-0.112,-0.19,-0.078,0.151,-0.02,-0.137,0.151,-0.083,-0.249,-0.508,-0.6,-0.127
2.39,-0.127,-0.166,-0.039,0.146,-0.044,-0.102,0.176,-0.049,-0.22,-0.488,-0.59,-0.098
2.392,-0.151,-0.229,-0.078,0.19,-0.039,-0.156,0.137,-0.078,-0.239,-0.517,-0.634,-0.137
2.394,-0.117,-0.215,-0.098,0.166,-0.01,-0.156,0.166,-0.059,-0.239,-0.522,-0.639,-0.137
2.396,-0.132,-0.195,-0.063,0.166,-0.034,-0.132,0.171,-0.044,-0.205,-0.517,-0.63,-0.122
2.398,-0.137,-0.195,-0.059,0.166,-0.039,-0.127,0.2,-0.029,-0.19,-0.527,-0.63,-0.127
2.4,-0.093,-0.137,-0.044,0.117,-0.024,-0.093,0.229,0.0,-0.137,-0.517,-0.61,-0.117
2.402,-0.156,-0.137,0.02,0.146,-0.088,-0.059,0.21,0.01,-0.142,-0.503,-0.615,-0.122
2.404,-0.083,-0.102,-0.02,0.093,-0.034,-0.063,0.2,-0.005,-0.151,-0.503,-0.63,-0.137
2.406,-0.122,-0.156,-0.034,0.142,-0.044,-0.098,0.21,-0.039,-0.171,-0.537,-0.649,-0.161
2.408,-0.156,-0.161,-0.005,0.161,-0.078,-0.083,0.205,-0.039,-0.166,-0.537,-0.63,-0.142
2.41,-0.151,-0.151,0.0,0.151,-0.078,-0.078,0.224,-0.049,-0.151,-0.532,-0.625,-0.137
2.412,-0.034,-0.078,-0.044,0.059,0.005,-0.063,0.254,-0.029,-0.137,-0.527,-0.61,-0.127
2.414,-0.068,-0.112,-0.044,0.093,-0.015,-0.078,0.21,-0.024,-0.146,-0.551,-0.605,-0.142
2.416,-0.122,-0.132,-0.01,0.127,-0.059,-0.073,0.2,-0.02,-0.156,-0.571,-0.581,-0.166
2.418,-0.142,-0.19,-0.049,0.166,-0.049,-0.122,0.166,-0.039,-0.185,-0.605,-0.605,-0.22
2.42,-0.117,-0.142,-0.024,0.132,-0.049,-0.083,0.21,-0.01,-0.151,-0.586,-0.595,-0.2
2.422,-0.049,-0.059,-0.01,0.054,-0.02,-0.034,0.229,0.039,-0.107,-0.571,-0.571,-0.176
2.424,-0.034,-0.083,-0.049,0.059,0.005,-0.068,0.205,0.024,-0.142,-0.586,-0.571,-0.2
2.426,-0.234,-0.215,0.02,0.224,-0.127,-0.098,0.176,-0.015,-0.171,-0.61,-0.566,-0.205
2.428,-0.224,-0.215,0.01,0.22,-0.117,-0.102,0.185,-0.034,-0.166,-0.615,-0.576,-0.185
2.43,-0.146,-0.171,-0.024,0.161,-0.063,-0.098,0.185,-0.034,-0.166,-0.605,-0.586,-0.185
2.432,-0.034,-0.117,-0.083,0.078,0.024,-0.102,0.181,-0.029,-0.171,-0.595,-0.595,-0.19
2.434,-0.083,-0.146,-0.063,0.117,-0.01,-0.107,0.171,-0.01,-0.166,-0.63,-0.62,-0.2
2.436,-0.146,-0.171,-0.024,0.161,-0.063,-0.098,0.176,0.01,-0.117,-0.63,-0.615,-0.195
2.438,-0.005,-0.102,-0.098,0.054,0.044,-0.102,0.176,0.029,-0.122,-0.634,-0.63,-0.2
2.44,-0.122,-0.146,-0.024,0.137,-0.049,-0.088,0.181,0.034,-0.117,-0.644,-0.634,-0.2
2.442,-0.181,-0.166,0.015,0.176,-0.098,-0.078,0.205,0.044,-0.117,-0.659,-0.654,-0.205
2.444,-0.088,-0.102,-0.015,0.098,-0.039,-0.059,0.249,0.063,-0.088,-0.639,-0.654,-0.2
2.446,-0.161,-0.132,0.029,0.146,-0.098,-0.054,0.215,0.063,-0.083,-0.634,-0.649,-0.195
2.448,-0.185,-0.142,0.044,0.166,-0.117,-0.049,0.22,0.059,-0.098,-0.639,-0.654,-0.195
2.45,-0.107,-0.102,0.005,0.107,-0.059,-0.049,0.22,0.088,-0.083,-0.63,-0.649,-0.19
2.452,-0.127,-0.166,-0.039,0.146,-0.044,-0.102,0.244,0.044,-0.122,-0.664,-0.673,-0.22
2.454,-0.171,-0.19,-0.02,0.181,-0.078,-0.107,0.224,0.054,-0.112,-0.669,-0.683,-0.224
2.456,-0.117,-0.112,0.005,0.117,-0.063,-0.054,0.234,0.088,-0.093,-0.654,-0.664,-0.195
2.458,-0.098,-0.151,-0.054,0.127,-0.024,-0.102,0.2,0.059,-0.146,-0.698,-0.712,-0.234
2.46,-0.132,-0.21,-0.078,0.171,-0.029,-0.146,0.161,0.015,-0.161,-0.742,-0.752,-0.273
2.462,-0.166,-0.2,-0.034,0.185,-0.068,-0.117,0.181,0.024,-0.151,-0.742,-0.747,-0.268
2.464,-0.142,-0.176,-0.034,0.161,-0.054,-0.107,0.176,0.02,-0.151,-0.756,-0.747,-0.278
2.466,-0.156,-0.205,-0.049,0.181,-0.054,-0.127,0.2,0.02,-0.146,-0.761,-0.756,-0.293
2.468,-0.049,-0.107,-0.059,0.078,0.005,-0.083,0.22,0.059,-0.132,-0.737,-0.727,-0.264
2.47,-0.063,-0.127,-0.063,0.098,0.0,-0.098,0.195,0.044,-0.151,-0.766,-0.727,-0.268
2.472,-0.127,-0.19,-0.063,0.161,-0.034,-0.127,0.146,-0.005,-0.2,-0.791,-0.747,-0.288
2.474,-0.015,-0.073,-0.059,0.044,0.02,-0.068,0.22,0.063,-0.161,-0.756,-0.688,-0.234
2.476,-0.146,-0.151,-0.005,0.151,-0.073,-0.078,0.22,0.063,-0.176,-0.781,-0.698,-0.249
2.478,-0.2,-0.244,-0.044,0.224,-0.078,-0.146,0.161,0.01,-0.224,-0.83,-0.756,-0.307
2.48,-0.02,-0.107,-0.088,0.063,0.034,-0.098,0.2,0.063,-0.185,-0.815,-0.737,-0.283
2.482,-0.083,-0.117,-0.034,0.102,-0.024,-0.078,0.224,0.078,-0.176,-0.805,-0.727,-0.268
2.484,-0.171,-0.176,-0.005,0.176,-0.083,-0.093,0.21,0.068,-0.181,-0.83,-0.737,-0.288
2.486,-0.273,-0.249,0.024,0.264,-0.151,-0.112,0.2,0.049,-0.21,-0.864,-0.756,-0.307
2.488,-0.146,-0.161,-0.015,0.156,-0.068,-0.088,0.2,0.044,-0.215,-0.864,-0.737,-0.293
2.49,-0.137,-0.112,0.024,0.127,-0.083,-0.044,0.185,0.059,-0.21,-0.834,-0.703,-0.273
2.492,-0.117,-0.151,-0.034,0.137,-0.044,-0.093,0.151,0.034,-0.249,-0.81,-0.698,-0.303
2.494,-0.102,-0.156,-0.054,0.132,-0.024,-0.107,0.166,0.024,-0.264,-0.776,-0.673,-0.307
2.496,-0.132,-0.142,-0.01,0.137,-0.063,-0.078,0.19,0.054,-0.249,-0.742,-0.654,-0.293
2.498,-0.127,-0.112,0.015,0.122,-0.073,-0.049,0.2,0.068,-0.234,-0.708,-0.649,-0.278
2.5,-0.166,-0.166,0.0,0.166,-0.083,-0.083,0.21,0.044,-0.249,-0.727,-0.693,-0.307
2.502,-0.181,-0.151,0.029,0.166,-0.107,-0.063,0.185,0.049,-0.239,-0.727,-0.712,-0.307
2.504,-0.107,-0.107,0.0,0.107,-0.054,-0.054,0.185,0.054,-0.254,-0.722,-0.727,-0.312
2.506,-0.088,-0.117,-0.029,0.102,-0.029,-0.073,0.181,0.054,-0.283,-0.732,-0.712,-0.317
2.508,-0.239,-0.21,0.029,0.224,-0.137,-0.093,0.166,0.01,-0.303,-0.756,-0.698,-0.332
2.51,-0.137,-0.112,0.024,0.127,-0.083,-0.044,0.151,0.034,-0.283,-0.727,-0.634,-0.293
2.512,-0.127,-0.093,0.034,0.112,-0.083,-0.029,0.185,0.044,-0.268,-0.698,-0.586,-0.268
2.514,-0.107,-0.088,0.02,0.098,-0.063,-0.034,0.19,0.049,-0.293,-0.742,-0.576,-0.259
2.516,-0.132,-0.156,-0.024,0.146,-0.054,-0.093,0.176,0.015,-0.327,-0.8,-0.63,-0.283
2.518,-0.146,-0.117,0.029,0.132,-0.088,-0.044,0.171,0.034,-0.298,-0.786,-0.63,-0.259
2.52,-0.137,-0.107,0.029,0.122,-0.083,-0.039,0.146,0.02,-0.307,-0.791,-0.639,-0.254
2.522,-0.132,-0.19,-0.059,0.161,-0.039,-0.127,0.107,-0.044,-0.371,-0.869,-0.708,-0.312
2.524,-0.132,-0.156,-0.024,0.146,-0.054,-0.093,0.132,-0.044,-0.346,-0.859,-0.712,-0.307
2.526,-0.132,-0.151,-0.02,0.142,-0.059,-0.088,0.112,-0.049,-0.351,-0.854,-0.712,-0.298
2.528,-0.151,-0.142,0.01,0.146,-0.083,-0.068,0.117,-0.044,-0.361,-0.844,-0.708,-0.293
2.53,-0.205,-0.171,0.034,0.19,-0.122,-0.068,0.112,-0.068,-0.342,-0.825,-0.712,-0.288
2.532,-0.151,-0.127,0.024,0.142,-0.088,-0.054,0.122,-0.059,-0.332,-0.8,-0.708,-0.278
2.534,-0.093,-0.107,-0.015,0.102,-0.039,-0.063,0.112,-0.073,-0.351,-0.815,-0.712,-0.288
2.536,-0.122,-0.093,0.029,0.107,-0.078,-0.034,0.142,-0.044,-0.332,-0.8,-0.693,-0.278
2.538,-0.083,-0.122,-0.039,0.102,-0.024,-0.083,0.146,-0.073,-0.361,-0.83,-0.742,-0.312
2.54,-0.137,-0.171,-0.034,0.156,-0.054,-0.102,0.142,-0.073,-0.371,-0.839,-0.747,-0.327
2.542,-0.166,-0.132,0.034,0.151,-0.102,-0.049,0.171,-0.039,-0.307,-0.805,-0.717,-0.293
2.544,-0.107,-0.093,0.015,0.102,-0.063,-0.039,0.205,-0.044,-0.312,-0.805,-0.722,-0.298
2.546,-0.068,-0.073,-0.005,0.073,-0.034,-0.039,0.205,-0.068,-0.312,-0.815,-0.712,-0.288
2.548,-0.107,-0.117,-0.01,0.112,-0.049,-0.063,0.19,-0.098,-0.312,-0.834,-0.722,-0.298
2.55,-0.112,-0.137,-0.024,0.127,-0.044,-0.083,0.146,-0.117,-0.327,-0.854,-0.747,-0.312
2.552,-0.093,-0.127,-0.034,0.112,-0.029,-0.083,0.127,-0.132,-0.332,-0.869,-0.742,-0.317
2.554,-0.029,-0.083,-0.054,0.059,0.01,-0.068,0.142,-0.098,-0.303,-0.859,-0.727,-0.303
2.556,-0.068,-0.078,-0.01,0.073,-0.029,-0.044,0.166,-0.083,-0.254,-0.83,-0.703,-0.278
2.558,-0.142,-0.151,-0.01,0.146,-0.068,-0.083,0.132,-0.083,-0.259,-0.834,-0.722,-0.293
2.56,-0.161,-0.195,-0.034,0.181,-0.063,-0.117,0.083,-0.054,-0.288,-0.849,-0.742,-0.317
2.562,-0.049,-0.049,0.0,0.049,-0.024,-0.024,0.137,-0.039,-0.205,-0.781,-0.688,-0.259
2.564,-0.049,-0.049,0.0,0.049,-0.024,-0.024,0.171,-0.068,-0.205,-0.766,-0.693,-0.264
2.566,-0.132,-0.161,-0.029,0.146,-0.054,-0.098,0.127,-0.107,-0.244,-0.781,-0.727,-0.298
2.568,-0.117,-0.161,-0.044,0.142,-0.039,-0.102,0.083,-0.098,-0.244,-0.771,-0.727,-0.307
2.57,-0.029,-0.102,-0.073,0.068,0.02,-0.088,0.093,-0.078,-0.22,-0.742,-0.703,-0.278
2.572,-0.073,-0.195,-0.122,0.137,0.024,-0.161,0.029,-0.132,-0.268,-0.766,-0.742,-0.322
2.574,-0.054,-0.195,-0.142,0.127,0.044,-0.171,0.005,-0.117,-0.264,-0.761,-0.752,-0.327
2.576,-0.098,-0.142,-0.044,0.122,-0.029,-0.093,0.063,-0.073,-0.185,-0.708,-0.712,-0.283
2.578,-0.107,-0.112,-0.005,0.112,-0.054,-0.059,0.102,-0.044,-0.161,-0.683,-0.698,-0.268
2.58,-0.044,-0.117,-0.073,0.083,0.015,-0.098,0.073,-0.044,-0.171,-0.693,-0.703,-0.288
2.582,-0.073,-0.098,-0.024,0.088,-0.024,-0.063,0.078,-0.024,-0.137,-0.659,-0.678,-0.268
2.584,-0.01,-0.068,-0.059,0.039,0.024,-0.063,0.078,-0.039,-0.146,-0.649,-0.678,-0.273
2.586,-0.015,-0.127,-0.112,0.073,0.049,-0.122,0.024,-0.112,-0.185,-0.683,-0.712,-0.317
2.588,0.0,-0.098,-0.098,0.049,0.049,-0.098,0.063,-0.088,-0.166,-0.654,-0.683,-0.288
2.59,-0.088,-0.156,-0.068,0.122,-0.01,-0.112,0.102,-0.098,-0.181,-0.649,-0.683,-0.283
2.592,0.02,-0.093,-0.112,0.039,0.063,-0.102,0.078,-0.088,-0.181,-0.634,-0.673,-0.268
2.594,0.02,-0.102,-0.122,0.044,0.068,-0.112,0.073,-0.073,-0.161,-0.62,-0.678,-0.268
2.596,-0.102,-0.151,-0.049,0.127,-0.029,-0.102,0.078,-0.054,-0.142,-0.59,-0.664,-0.254
2.598,-0.005,-0.088,-0.083,0.049,0.039,-0.088,0.088,-0.02,-0.107,-0.581,-0.659,-0.244
2.6,0.034,-0.049,-0.083,0.01,0.059,-0.068,0.132,-0.005,-0.088,-0.551,-0.644,-0.229
2.602,-0.059,-0.093,-0.034,0.078,-0.015,-0.063,0.127,-0.005,-0.068,-0.532,-0.639,-0.229
2.604,-0.083,-0.127,-0.044,0.107,-0.02,-0.088,0.098,-0.034,-0.083,-0.547,-0.649,-0.244
2.606,-0.107,-0.161,-0.054,0.137,-0.029,-0.107,0.122,-0.034,-0.083,-0.532,-0.659,-0.264
2.608,-0.078,-0.132,-0.054,0.107,-0.015,-0.093,0.127,-0.015,-0.049,-0.512,-0.649,-0.244
2.61,-0.093,-0.181,-0.088,0.137,-0.005,-0.137,0.078,-0.054,-0.073,-0.547,-0.688,-0.293
2.612,0.02,-0.117,-0.137,0.049,0.078,-0.127,0.093,-0.054,-0.073,-0.532,-0.664,-0.293
2.614,-0.044,-0.127,-0.083,0.088,0.02,-0.107,0.107,0.0,-0.059,-0.527,-0.644,-0.278
2.616,-0.054,-0.146,-0.093,0.102,0.02,-0.122,0.083,-0.015,-0.073,-0.527,-0.678,-0.288
2.618,-0.005,-0.137,-0.132,0.073,0.063,-0.137,0.083,-0.044,-0.078,-0.527,-0.683,-0.307
2.62,0.024,-0.083,-0.107,0.029,0.063,-0.098,0.102,-0.01,-0.029,-0.512,-0.654,-0.283
2.622,0.117,0.0,-0.117,-0.059,0.117,-0.059,0.137,0.034,0.029,-0.468,-0.62,-0.259
2.624,0.098,0.015,-0.083,-0.054,0.088,-0.034,0.161,0.029,0.039,-0.425,-0.605,-0.249
2.626,-0.034,-0.127,-0.093,0.083,0.029,-0.112,0.107,-0.034,-0.02,-0.405,-0.659,-0.303
2.628,-0.034,-0.151,-0.117,0.093,0.039,-0.137,0.122,-0.049,-0.044,-0.342,-0.659,-0.327
2.63,-0.015,-0.127,-0.112,0.073,0.049,-0.122,0.137,-0.034,-0.054,-0.278,-0.659,-0.317
2.632,-0.098,-0.146,-0.049,0.122,-0.024,-0.098,0.146,-0.01,-0.024,-0.224,-0.654,-0.307
2.634,-0.005,-0.112,-0.107,0.059,0.049,-0.112,0.176,0.005,-0.024,-0.22,-0.654,-0.312
2.636,-0.005,-0.112,-0.107,0.059,0.049,-0.112,0.171,0.005,-0.015,-0.215,-0.669,-0.327
2.638,-0.073,-0.151,-0.078,0.112,0.0,-0.117,0.176,-0.02,-0.015,-0.215,-0.678,-0.346
2.64,-0.063,-0.117,-0.054,0.093,-0.005,-0.088,0.195,-0.01,-0.005,-0.19,-0.639,-0.342
2.642,-0.005,-0.029,-0.024,0.02,0.01,-0.029,0.22,0.015,0.034,-0.156,-0.586,-0.312
2.644,-0.024,-0.054,-0.029,0.039,0.0,-0.044,0.244,0.044,0.034,-0.156,-0.551,-0.327
2.646,-0.024,-0.127,-0.102,0.078,0.039,-0.117,0.21,-0.02,0.0,-0.166,-0.547,-0.366
2.648,-0.049,-0.151,-0.102,0.102,0.024,-0.127,0.21,-0.054,0.0,-0.161,-0.532,-0.366
2.65,-0.063,-0.102,-0.039,0.083,-0.015,-0.073,0.244,-0.024,0.024,-0.112,-0.493,-0.332
2.652,-0.044,-0.112,-0.068,0.078,0.01,-0.093,0.254,-0.024,0.024,-0.093,-0.498,-0.342
2.654,0.0,-0.146,-0.146,0.073,0.073,-0.146,0.21,-0.063,-0.024,-0.151,-0.556,-0.4
2.656,-0.059,-0.117,-0.059,0.088,0.0,-0.088,0.239,-0.029,0.0,-0.127,-0.537,-0.376
2.658,0.034,-0.049,-0.083,0.01,0.059,-0.068,0.239,-0.005,0.005,-0.122,-0.537,-0.386
2.66,-0.078,-0.102,-0.024,0.093,-0.029,-0.063,0.254,0.005,0.005,-0.122,-0.537,-0.381
2.662,-0.063,-0.098,-0.034,0.083,-0.015,-0.068,0.239,-0.015,-0.01,-0.137,-0.547,-0.4
2.664,-0.049,-0.093,-0.044,0.073,-0.005,-0.068,0.249,-0.01,-0.015,-0.122,-0.561,-0.41
2.666,-0.059,-0.073,-0.015,0.068,-0.024,-0.044,0.249,0.029,0.0,-0.093,-0.556,-0.405
2.668,0.01,-0.005,-0.015,0.0,0.01,-0.01,0.283,0.024,0.02,-0.088,-0.537,-0.376
2.67,0.005,-0.01,-0.015,0.005,0.01,-0.015,0.288,0.024,0.01,-0.107,-0.537,-0.386
2.672,-0.039,-0.093,-0.054,0.068,0.005,-0.073,0.229,-0.005,-0.024,-0.146,-0.566,-0.42
2.674,-0.063,-0.117,-0.054,0.093,-0.005,-0.088,0.19,-0.005,-0.044,-0.185,-0.581,-0.429
2.676,0.034,-0.059,-0.093,0.015,0.063,-0.078,0.21,0.01,-0.049,-0.2,-0.581,-0.425
2.678,0.063,-0.049,-0.112,-0.005,0.088,-0.083,0.181,-0.01,-0.059,-0.229,-0.59,-0.449
2.68,-0.039,-0.049,-0.01,0.044,-0.015,-0.029,0.2,0.015,-0.015,-0.2,-0.551,-0.415
2.682,-0.015,-0.034,-0.02,0.024,0.0,-0.029,0.181,0.024,0.0,-0.21,-0.547,-0.41
2.684,-0.059,-0.088,-0.029,0.073,-0.015,-0.059,0.151,0.01,-0.034,-0.249,-0.566,-0.429
2.686,-0.073,-0.078,-0.005,0.078,-0.034,-0.044,0.137,0.015,-0.02,-0.249,-0.547,-0.42
2.688,-0.127,-0.122,0.005,0.127,-0.068,-0.059,0.107,0.0,-0.059,-0.288,-0.556,-0.434
2.69,-0.107,-0.127,-0.02,0.117,-0.044,-0.073,0.093,-0.005,-0.073,-0.303,-0.556,-0.454
2.692,-0.093,-0.107,-0.015,0.102,-0.039,-0.063,0.088,0.0,-0.078,-0.307,-0.561,-0.444
2.694,0.161,0.083,-0.078,-0.122,0.117,0.0,0.132,0.039,-0.049,-0.268,-0.532,-0.405
2.696,0.083,0.01,-0.073,-0.044,0.078,-0.034,0.122,0.044,-0.049,-0.283,-0.532,-0.415
2.698,-0.063,-0.112,-0.049,0.088,-0.01,-0.083,0.093,0.039,-0.107,-0.327,-0.556,-0.459
2.7,-0.044,-0.122,-0.078,0.083,0.015,-0.102,0.073,0.01,-0.132,-0.346,-0.561,-0.473
2.702,-0.02,-0.073,-0.054,0.049,0.015,-0.063,0.078,0.02,-0.112,-0.327,-0.517,-0.464
2.704,0.024,-0.034,-0.059,0.005,0.039,-0.049,0.098,0.029,-0.112,-0.342,-0.464,-0.464
2.706,-0.054,-0.078,-0.024,0.068,-0.015,-0.054,0.098,0.015,-0.112,-0.346,-0.439,-0.459
2.708,-0.02,-0.054,-0.034,0.039,0.005,-0.044,0.063,0.0,-0.117,-0.351,-0.41,-0.444
2.71,0.044,-0.015,-0.059,-0.015,0.049,-0.039,0.049,0.039,-0.102,-0.346,-0.39,-0.439
2.712,-0.024,-0.098,-0.073,0.063,0.024,-0.088,0.02,0.0,-0.146,-0.381,-0.425,-0.473
2.714,-0.098,-0.151,-0.054,0.127,-0.024,-0.102,0.005,-0.034,-0.146,-0.395,-0.439,-0.478
2.716,-0.093,-0.093,0.0,0.093,-0.049,-0.049,0.059,0.0,-0.122,-0.366,-0.42,-0.454
2.718,0.034,-0.093,-0.127,0.029,0.078,-0.112,0.029,-0.039,-0.176,-0.4,-0.478,-0.498
2.72,0.107,-0.083,-0.19,-0.01,0.146,-0.137,0.02,-0.068,-0.2,-0.425,-0.522,-0.517
2.722,0.083,-0.034,-0.117,-0.024,0.098,-0.078,0.063,-0.02,-0.156,-0.39,-0.464,-0.493
2.724,0.039,-0.088,-0.127,0.024,0.083,-0.107,0.059,-0.034,-0.171,-0.41,-0.483,-0.512
2.726,-0.122,-0.117,0.005,0.122,-0.063,-0.059,0.063,-0.034,-0.151,-0.376,-0.478,-0.473
2.728,-0.059,-0.063,-0.005,0.063,-0.029,-0.034,0.068,-0.015,-0.127,-0.356,-0.468,-0.454
2.73,-0.049,-0.083,-0.034,0.068,-0.01,-0.059,0.034,-0.049,-0.156,-0.395,-0.517,-0.498
2.732,-0.068,-0.102,-0.034,0.088,-0.02,-0.068,0.024,-0.044,-0.176,-0.42,-0.537,-0.503
2.734,-0.024,-0.078,-0.054,0.054,0.015,-0.068,0.063,-0.044,-0.176,-0.415,-0.542,-0.503
2.736,-0.039,-0.112,-0.073,0.078,0.015,-0.093,0.068,-0.073,-0.205,-0.439,-0.581,-0.532
2.738,-0.015,-0.093,-0.078,0.054,0.029,-0.088,0.073,-0.068,-0.195,-0.439,-0.586,-0.537
2.74,-0.029,-0.073,-0.044,0.054,0.005,-0.059,0.088,-0.029,-0.171,-0.42,-0.571,-0.517
2.742,0.02,-0.059,-0.078,0.02,0.049,-0.068,0.098,-0.039,-0.181,-0.434,-0.595,-0.547
2.744,0.02,-0.059,-0.078,0.02,0.049,-0.068,0.122,-0.044,-0.181,-0.439,-0.61,-0.551
2.746,-0.01,-0.088,-0.078,0.049,0.034,-0.083,0.102,-0.063,-0.176,-0.444,-0.634,-0.566
2.748,0.073,-0.024,-0.098,-0.024,0.083,-0.063,0.127,-0.044,-0.151,-0.429,-0.62,-0.551
2.75,-0.073,-0.132,-0.059,0.102,-0.01,-0.098,0.142,-0.049,-0.142,-0.439,-0.649,-0.576
2.752,-0.122,-0.166,-0.044,0.146,-0.039,-0.107,0.161,-0.039,-0.156,-0.434,-0.644,-0.571
2.754,-0.024,-0.102,-0.078,0.063,0.024,-0.093,0.176,-0.039,-0.161,-0.42,-0.634,-0.566
2.756,-0.102,-0.176,-0.073,0.142,-0.015,-0.127,0.166,-0.054,-0.195,-0.429,-0.654,-0.586
2.758,-0.054,-0.132,-0.078,0.093,0.01,-0.107,0.166,-0.01,-0.2,-0.429,-0.654,-0.576
2.76,-0.054,-0.078,-0.024,0.068,-0.015,-0.054,0.2,0.034,-0.156,-0.395,-0.62,-0.547
2.762,-0.078,-0.112,-0.034,0.098,-0.024,-0.073,0.22,-0.01,-0.161,-0.405,-0.625,-0.566
2.764,0.015,-0.063,-0.078,0.024,0.044,-0.073,0.205,-0.015,-0.176,-0.395,-0.625,-0.571
2.766,0.044,-0.024,-0.068,-0.01,0.054,-0.049,0.224,0.01,-0.166,-0.4,-0.639,-0.571
2.768,-0.029,-0.093,-0.063,0.063,0.015,-0.078,0.21,0.02,-0.181,-0.405,-0.659,-0.59
2.77,-0.098,-0.146,-0.049,0.122,-0.024,-0.098,0.2,-0.005,-0.2,-0.4,-0.669,-0.61
2.772,-0.024,-0.078,-0.054,0.054,0.015,-0.068,0.229,0.005,-0.176,-0.332,-0.634,-0.586
2.774,-0.024,-0.073,-0.049,0.049,0.01,-0.063,0.224,0.02,-0.156,-0.259,-0.639,-0.581
2.776,0.01,-0.039,-0.049,0.015,0.029,-0.044,0.229,0.024,-0.151,-0.205,-0.639,-0.576
2.778,-0.098,-0.137,-0.039,0.117,-0.029,-0.088,0.21,-0.02,-0.19,-0.21,-0.678,-0.615
2.78,-0.034,-0.122,-0.088,0.078,0.024,-0.107,0.22,-0.005,-0.181,-0.195,-0.683,-0.625
2.782,-0.01,-0.107,-0.098,0.059,0.044,-0.102,0.21,-0.029,-0.205,-0.166,-0.698,-0.63
2.784,-0.02,-0.102,-0.083,0.063,0.029,-0.093,0.19,-0.039,-0.21,-0.146,-0.698,-0.625
2.786,-0.083,-0.098,-0.015,0.093,-0.034,-0.059,0.22,-0.02,-0.181,-0.127,-0.654,-0.6
2.788,-0.015,-0.073,-0.059,0.044,0.02,-0.068,0.2,-0.039,-0.185,-0.127,-0.61,-0.595
2.79,0.005,-0.039,-0.044,0.02,0.024,-0.044,0.21,-0.02,-0.161,-0.093,-0.542,-0.581
2.792,-0.024,-0.093,-0.068,0.059,0.02,-0.083,0.21,-0.039,-0.171,-0.112,-0.503,-0.576
2.794,-0.02,-0.093,-0.073,0.059,0.024,-0.083,0.239,-0.039,-0.166,-0.142,-0.459,-0.571
2.796,-0.063,-0.137,-0.073,0.102,0.005,-0.107,0.185,-0.039,-0.176,-0.166,-0.439,-0.586
2.798,-0.127,-0.127,0.0,0.127,-0.063,-0.063,0.19,-0.015,-0.122,-0.142,-0.376,-0.547
2.8,-0.063,-0.122,-0.059,0.093,-0.005,-0.093,0.205,-0.039,-0.156,-0.176,-0.371,-0.547
2.802,-0.015,-0.098,-0.083,0.059,0.034,-0.093,0.185,-0.039,-0.151,-0.19,-0.342,-0.547
2.804,-0.01,-0.078,-0.068,0.044,0.029,-0.073,0.166,-0.034,-0.137,-0.2,-0.317,-0.537
2.806,-0.102,-0.117,-0.015,0.112,-0.044,-0.068,0.146,-0.068,-0.132,-0.234,-0.293,-0.532
2.808,0.063,0.0,-0.063,-0.029,0.063,-0.034,0.161,-0.049,-0.132,-0.224,-0.249,-0.498
2.81,0.024,-0.049,-0.073,0.015,0.049,-0.063,0.142,-0.068,-0.137,-0.244,-0.249,-0.512
2.812,-0.073,-0.098,-0.024,0.088,-0.024,-0.063,0.151,-0.049,-0.142,-0.239,-0.2,-0.498
2.814,-0.039,-0.073,-0.034,0.059,-0.005,-0.054,0.146,-0.039,-0.156,-0.239,-0.181,-0.483
2.816,-0.068,-0.122,-0.054,0.098,-0.01,-0.088,0.142,-0.068,-0.166,-0.264,-0.19,-0.503
2.818,-0.132,-0.142,-0.01,0.137,-0.063,-0.078,0.107,-0.068,-0.146,-0.264,-0.166,-0.493
2.82,-0.117,-0.117,0.0,0.117,-0.059,-0.059,0.112,-0.063,-0.112,-0.254,-0.142,-0.483
2.822,0.024,-0.01,-0.034,-0.005,0.029,-0.024,0.117,-0.034,-0.102,-0.239,-0.112,-0.464
2.824,0.015,-0.044,-0.059,0.015,0.034,-0.054,0.093,-0.059,-0.146,-0.244,-0.122,-0.488
2.826,-0.005,-0.112,-0.107,0.059,0.049,-0.112,0.078,-0.093,-0.19,-0.278,-0.142,-0.503
2.828,0.098,-0.005,-0.102,-0.044,0.098,-0.054,0.102,-0.078,-0.176,-0.244,-0.083,-0.449
2.83,-0.005,-0.068,-0.063,0.039,0.029,-0.068,0.102,-0.073,-0.185,-0.254,-0.073,-0.449
2.832,-0.034,-0.059,-0.024,0.049,-0.005,-0.044,0.112,-0.063,-0.181,-0.239,-0.044,-0.42
2.834,-0.024,-0.063,-0.039,0.044,0.005,-0.054,0.102,-0.073,-0.2,-0.264,-0.039,-0.429
2.836,-0.068,-0.117,-0.049,0.093,-0.01,-0.083,0.073,-0.088,-0.234,-0.312,-0.049,-0.449
2.838,-0.029,-0.078,-0.049,0.054,0.01,-0.063,0.093,-0.054,-0.224,-0.307,-0.029,-0.444
2.84,0.049,-0.039,-0.088,-0.005,0.068,-0.063,0.068,-0.078,-0.215,-0.327,-0.024,-0.434
2.842,-0.044,-0.068,-0.024,0.059,-0.01,-0.049,0.068,-0.088,-0.19,-0.317,0.005,-0.42
2.844,0.039,-0.054,-0.093,0.01,0.063,-0.073,0.078,-0.102,-0.195,-0.322,-0.005,-0.429
2.846,0.044,-0.054,-0.098,0.005,0.068,-0.078,0.083,-0.098,-0.171,-0.307,0.005,-0.439
2.848,-0.059,0.01,0.068,0.024,-0.063,0.039,0.132,-0.024,-0.054,-0.21,0.088,-0.361
2.85,-0.078,-0.015,0.063,0.049,-0.073,0.024,0.098,-0.015,-0.029,-0.171,0.093,-0.366
2.852,-0.01,0.068,0.078,-0.029,-0.044,0.073,0.083,0.029,0.039,-0.078,0.166,-0.307
2.854,-0.059,0.127,0.185,-0.034,-0.122,0.156,0.093,0.083,0.156,0.068,0.288,-0.215
2.856,-0.068,0.22,0.288,-0.073,-0.181,0.254,0.142,0.19,0.332,0.264,0.439,-0.102
2.858,-0.02,0.332,0.351,-0.156,-0.185,0.342,0.146,0.361,0.586,0.522,0.62,0.024
2.86,0.01,0.42,0.41,-0.215,-0.2,0.415,0.151,0.586,0.869,0.81,0.795,0.151
2.862,0.044,0.517,0.473,-0.278,-0.215,0.493,0.156,0.849,1.186,1.157,1.03,0.332
2.864,0.078,0.59,0.512,-0.332,-0.22,0.551,0.132,1.074,1.503,1.537,1.283,0.517
