time,I,II,III,aVR,aVL,aVF,V1,V2,V3,V4,V5,V6
0.0,0.107,-0.039,-0.146,-0.034,0.127,-0.093,-0.307,-0.107,0.024,-0.332,-0.127,-0.107
0.002,0.102,-0.049,-0.151,-0.024,0.127,-0.102,-0.307,-0.117,0.02,-0.332,-0.132,-0.112
0.004,0.088,-0.049,-0.137,-0.02,0.112,-0.093,-0.307,-0.112,0.024,-0.332,-0.132,-0.112
0.006,0.088,-0.049,-0.137,-0.02,0.112,-0.093,-0.303,-0.107,0.029,-0.332,-0.132,-0.112
0.008,0.088,-0.059,-0.146,-0.015,0.117,-0.102,-0.317,-0.132,0.02,-0.346,-0.142,-0.122
0.01,0.073,-0.063,-0.137,-0.005,0.102,-0.102,-0.317,-0.127,0.024,-0.342,-0.137,-0.117
0.012,0.078,-0.063,-0.142,-0.005,0.107,-0.102,-0.317,-0.132,0.029,-0.332,-0.137,-0.117
0.014,0.107,-0.039,-0.146,-0.034,0.127,-0.093,-0.307,-0.122,0.029,-0.317,-0.127,-0.112
0.016,0.083,-0.059,-0.142,-0.01,0.112,-0.102,-0.307,-0.122,0.02,-0.317,-0.127,-0.107
0.018,0.068,-0.054,-0.122,-0.005,0.093,-0.088,-0.303,-0.117,0.024,-0.307,-0.122,-0.102
0.02,0.078,-0.039,-0.117,-0.02,0.098,-0.078,-0.298,-0.102,0.024,-0.293,-0.122,-0.098
0.022,0.093,-0.039,-0.132,-0.024,0.112,-0.088,-0.298,-0.117,0.015,-0.298,-0.122,-0.107
0.024,0.093,-0.049,-0.142,-0.02,0.117,-0.098,-0.307,-0.117,0.015,-0.312,-0.127,-0.117
0.026,0.088,-0.044,-0.132,-0.02,0.107,-0.088,-0.307,-0.112,0.02,-0.312,-0.127,-0.107
0.028,0.073,-0.044,-0.117,-0.015,0.093,-0.083,-0.298,-0.112,0.024,-0.303,-0.122,-0.102
0.03,0.083,-0.039,-0.122,-0.02,0.102,-0.083,-0.298,-0.112,0.029,-0.293,-0.117,-0.107
0.032,0.073,-0.049,-0.122,-0.01,0.098,-0.088,-0.303,-0.117,0.024,-0.303,-0.127,-0.112
0.034,0.083,-0.044,-0.127,-0.02,0.102,-0.088,-0.298,-0.122,0.024,-0.298,-0.122,-0.107
0.036,0.102,-0.024,-0.127,-0.039,0.112,-0.078,-0.288,-0.107,0.024,-0.283,-0.117,-0.102
0.038,0.073,-0.049,-0.122,-0.01,0.098,-0.088,-0.293,-0.107,0.024,-0.283,-0.117,-0.102
0.04,0.059,-0.059,-0.117,0.0,0.088,-0.088,-0.293,-0.102,0.02,-0.293,-0.122,-0.102
0.042,0.063,-0.049,-0.112,-0.005,0.088,-0.083,-0.288,-0.093,0.024,-0.278,-0.117,-0.093
0.044,0.059,-0.049,-0.107,-0.005,0.083,-0.078,-0.298,-0.098,0.024,-0.288,-0.122,-0.102
0.046,0.063,-0.049,-0.112,-0.005,0.088,-0.083,-0.293,-0.098,0.024,-0.288,-0.122,-0.102
0.048,0.044,-0.059,-0.102,0.01,0.073,-0.083,-0.283,-0.102,0.029,-0.278,-0.122,-0.102
0.05,0.049,-0.063,-0.112,0.01,0.078,-0.088,-0.283,-0.102,0.034,-0.283,-0.122,-0.107
0.052,0.049,-0.054,-0.102,0.005,0.073,-0.078,-0.283,-0.102,0.034,-0.273,-0.117,-0.098
0.054,0.054,-0.044,-0.098,-0.005,0.073,-0.073,-0.278,-0.102,0.039,-0.264,-0.112,-0.093
0.056,0.063,-0.039,-0.102,-0.01,0.083,-0.073,-0.273,-0.098,0.039,-0.249,-0.107,-0.083
0.058,0.054,-0.044,-0.098,-0.005,0.073,-0.073,-0.283,-0.098,0.039,-0.254,-0.107,-0.083
0.06,0.049,-0.039,-0.088,-0.005,0.068,-0.063,-0.283,-0.093,0.034,-0.249,-0.107,-0.088
0.062,0.054,-0.024,-0.078,-0.015,0.063,-0.054,-0.268,-0.088,0.034,-0.239,-0.102,-0.083
0.064,0.054,-0.029,-0.083,-0.01,0.068,-0.059,-0.268,-0.088,0.039,-0.234,-0.107,-0.083
0.066,0.054,-0.034,-0.088,-0.01,0.068,-0.063,-0.273,-0.088,0.034,-0.229,-0.107,-0.088
0.068,0.054,-0.039,-0.093,-0.005,0.073,-0.068,-0.268,-0.088,0.034,-0.229,-0.112,-0.088
0.07,0.029,-0.044,-0.073,0.01,0.049,-0.059,-0.268,-0.093,0.034,-0.224,-0.112,-0.093
0.072,0.044,-0.029,-0.073,-0.005,0.059,-0.054,-0.259,-0.088,0.039,-0.215,-0.102,-0.078
0.074,0.054,-0.02,-0.073,-0.015,0.063,-0.049,-0.259,-0.088,0.039,-0.205,-0.102,-0.078
0.076,0.044,-0.024,-0.068,-0.01,0.054,-0.049,-0.259,-0.093,0.039,-0.205,-0.102,-0.088
0.078,0.01,-0.049,-0.059,0.02,0.034,-0.054,-0.273,-0.102,0.034,-0.205,-0.107,-0.093
0.08,0.005,-0.049,-0.054,0.024,0.029,-0.054,-0.268,-0.093,0.029,-0.2,-0.112,-0.088
0.082,0.01,-0.054,-0.063,0.024,0.034,-0.059,-0.268,-0.093,0.024,-0.195,-0.112,-0.093
0.084,0.015,-0.044,-0.059,0.015,0.034,-0.054,-0.259,-0.083,0.029,-0.185,-0.107,-0.088
0.086,0.02,-0.034,-0.054,0.01,0.034,-0.044,-0.249,-0.078,0.039,-0.176,-0.098,-0.078
0.088,0.02,-0.039,-0.059,0.01,0.039,-0.049,-0.249,-0.083,0.039,-0.181,-0.098,-0.083
0.09,0.005,-0.044,-0.049,0.02,0.024,-0.049,-0.254,-0.088,0.039,-0.181,-0.102,-0.088
0.092,0.005,-0.039,-0.044,0.02,0.024,-0.044,-0.259,-0.088,0.039,-0.176,-0.102,-0.088
0.094,0.005,-0.039,-0.044,0.02,0.024,-0.044,-0.254,-0.088,0.039,-0.176,-0.098,-0.078
0.096,0.0,-0.049,-0.049,0.024,0.024,-0.049,-0.259,-0.093,0.039,-0.181,-0.098,-0.083
0.098,0.0,-0.034,-0.034,0.02,0.015,-0.034,-0.259,-0.083,0.039,-0.176,-0.093,-0.083
0.1,0.005,-0.034,-0.039,0.015,0.02,-0.039,-0.249,-0.078,0.039,-0.166,-0.093,-0.073
0.102,0.005,-0.039,-0.044,0.02,0.024,-0.044,-0.249,-0.083,0.029,-0.176,-0.098,-0.078
0.104,0.015,-0.039,-0.054,0.015,0.034,-0.049,-0.239,-0.073,0.034,-0.171,-0.098,-0.078
0.106,-0.01,-0.044,-0.034,0.029,0.01,-0.039,-0.239,-0.068,0.044,-0.161,-0.088,-0.078
0.108,-0.015,-0.044,-0.029,0.029,0.005,-0.039,-0.234,-0.073,0.044,-0.161,-0.088,-0.078
0.11,0.01,-0.02,-0.029,0.005,0.02,-0.024,-0.229,-0.073,0.054,-0.156,-0.083,-0.068
0.112,0.005,-0.029,-0.034,0.015,0.02,-0.034,-0.229,-0.073,0.049,-0.166,-0.088,-0.068
0.114,-0.01,-0.039,-0.029,0.024,0.01,-0.034,-0.229,-0.078,0.044,-0.166,-0.088,-0.068
0.116,-0.015,-0.024,-0.01,0.02,-0.005,-0.02,-0.215,-0.068,0.059,-0.151,-0.073,-0.054
0.118,-0.029,-0.039,-0.01,0.034,-0.01,-0.024,-0.229,-0.073,0.049,-0.156,-0.088,-0.068
0.12,-0.029,-0.049,-0.02,0.039,-0.005,-0.034,-0.234,-0.083,0.039,-0.161,-0.093,-0.073
0.122,-0.024,-0.039,-0.015,0.034,-0.005,-0.029,-0.224,-0.073,0.049,-0.151,-0.093,-0.068
0.124,-0.024,-0.034,-0.01,0.029,-0.01,-0.024,-0.22,-0.063,0.054,-0.146,-0.083,-0.059
0.126,-0.015,-0.024,-0.01,0.02,-0.005,-0.02,-0.215,-0.059,0.054,-0.137,-0.083,-0.054
0.128,-0.015,-0.024,-0.01,0.02,-0.005,-0.02,-0.21,-0.063,0.054,-0.137,-0.083,-0.059
0.13,-0.029,-0.034,-0.005,0.034,-0.015,-0.02,-0.215,-0.068,0.054,-0.137,-0.083,-0.063
0.132,-0.039,-0.039,0.0,0.039,-0.02,-0.02,-0.21,-0.063,0.049,-0.137,-0.078,-0.054
0.134,-0.029,-0.024,0.005,0.029,-0.02,-0.01,-0.21,-0.063,0.054,-0.127,-0.083,-0.054
0.136,-0.029,-0.029,0.0,0.029,-0.015,-0.015,-0.205,-0.063,0.054,-0.122,-0.078,-0.054
0.138,-0.049,-0.044,0.005,0.049,-0.029,-0.02,-0.215,-0.063,0.044,-0.132,-0.083,-0.063
0.14,-0.039,-0.039,0.0,0.039,-0.02,-0.02,-0.224,-0.068,0.044,-0.132,-0.083,-0.068
0.142,-0.034,-0.034,0.0,0.034,-0.02,-0.02,-0.22,-0.063,0.044,-0.127,-0.083,-0.063
0.144,-0.059,-0.039,0.02,0.049,-0.039,-0.01,-0.215,-0.063,0.044,-0.132,-0.083,-0.068
0.146,-0.063,-0.049,0.015,0.059,-0.039,-0.02,-0.22,-0.063,0.044,-0.127,-0.083,-0.073
0.148,-0.049,-0.049,0.0,0.049,-0.024,-0.024,-0.205,-0.063,0.049,-0.122,-0.073,-0.068
0.15,-0.054,-0.049,0.005,0.054,-0.029,-0.024,-0.2,-0.059,0.054,-0.117,-0.078,-0.068
0.152,-0.049,-0.034,0.015,0.044,-0.034,-0.01,-0.2,-0.059,0.054,-0.107,-0.073,-0.059
0.154,-0.049,-0.034,0.015,0.044,-0.034,-0.01,-0.2,-0.054,0.054,-0.107,-0.068,-0.059
0.156,-0.054,-0.034,0.02,0.044,-0.039,-0.01,-0.2,-0.054,0.049,-0.107,-0.068,-0.059
0.158,-0.063,-0.034,0.029,0.049,-0.049,-0.005,-0.2,-0.049,0.054,-0.107,-0.068,-0.054
0.16,-0.068,-0.044,0.024,0.059,-0.049,-0.01,-0.2,-0.059,0.044,-0.107,-0.073,-0.063
0.162,-0.059,-0.039,0.02,0.049,-0.039,-0.01,-0.195,-0.054,0.049,-0.102,-0.068,-0.063
0.164,-0.054,-0.034,0.02,0.044,-0.039,-0.01,-0.195,-0.059,0.044,-0.112,-0.078,-0.063
0.166,-0.059,-0.039,0.02,0.049,-0.039,-0.01,-0.19,-0.049,0.049,-0.102,-0.073,-0.063
0.168,-0.063,-0.029,0.034,0.049,-0.049,0.0,-0.181,-0.059,0.054,-0.088,-0.063,-0.049
0.17,-0.088,-0.039,0.049,0.063,-0.068,0.005,-0.185,-0.054,0.059,-0.088,-0.063,-0.049
0.172,-0.098,-0.034,0.063,0.068,-0.083,0.015,-0.19,-0.054,0.054,-0.083,-0.059,-0.044
0.174,-0.083,-0.029,0.054,0.059,-0.068,0.01,-0.181,-0.044,0.059,-0.068,-0.054,-0.044
0.176,-0.078,-0.015,0.063,0.049,-0.073,0.024,-0.181,-0.049,0.059,-0.068,-0.054,-0.044
0.178,-0.068,-0.005,0.063,0.039,-0.068,0.029,-0.176,-0.039,0.068,-0.054,-0.049,-0.039
0.18,-0.073,0.01,0.083,0.034,-0.078,0.044,-0.161,-0.024,0.073,-0.044,-0.034,-0.029
0.182,-0.088,0.005,0.093,0.044,-0.093,0.049,-0.151,-0.02,0.078,-0.039,-0.034,-0.024
0.184,-0.073,0.015,0.088,0.029,-0.083,0.049,-0.151,-0.02,0.078,-0.044,-0.034,-0.024
0.186,-0.063,0.029,0.093,0.02,-0.078,0.059,-0.142,-0.015,0.078,-0.029,-0.029,-0.024
0.188,-0.093,0.02,0.112,0.039,-0.102,0.063,-0.146,-0.024,0.078,-0.029,-0.029,-0.024
0.19,-0.098,0.02,0.117,0.039,-0.107,0.068,-0.142,-0.02,0.088,-0.024,-0.024,-0.02
0.192,-0.088,0.024,0.112,0.034,-0.102,0.068,-0.137,-0.015,0.088,-0.02,-0.024,-0.02
0.194,-0.083,0.044,0.127,0.02,-0.107,0.083,-0.127,-0.005,0.098,-0.005,-0.01,-0.01
0.196,-0.083,0.039,0.122,0.024,-0.102,0.078,-0.137,-0.01,0.093,-0.01,-0.015,-0.01
0.198,-0.098,0.02,0.117,0.039,-0.107,0.068,-0.142,-0.01,0.088,-0.01,-0.024,-0.015
0.2,-0.098,0.029,0.127,0.034,-0.112,0.078,-0.132,0.0,0.088,-0.005,-0.02,-0.005
0.202,-0.107,0.029,0.137,0.039,-0.122,0.083,-0.122,0.0,0.088,0.0,-0.02,-0.01
0.204,-0.107,0.029,0.137,0.039,-0.122,0.083,-0.117,0.0,0.088,-0.005,-0.024,-0.01
0.206,-0.098,0.024,0.122,0.039,-0.112,0.073,-0.122,0.005,0.088,0.0,-0.024,-0.015
0.208,-0.117,0.024,0.142,0.049,-0.132,0.083,-0.117,0.0,0.088,0.0,-0.024,-0.02
0.21,-0.102,0.049,0.151,0.029,-0.127,0.098,-0.102,0.01,0.107,0.02,-0.005,-0.01
0.212,-0.107,0.049,0.156,0.029,-0.132,0.102,-0.107,0.0,0.088,0.015,-0.015,-0.015
0.214,-0.132,0.024,0.156,0.054,-0.146,0.088,-0.122,-0.029,0.068,-0.005,-0.024,-0.024
0.216,-0.112,0.034,0.146,0.039,-0.132,0.088,-0.122,-0.039,0.068,-0.005,-0.024,-0.02
0.218,-0.107,0.039,0.146,0.034,-0.127,0.093,-0.127,-0.034,0.068,-0.005,-0.02,-0.015
0.22,-0.107,0.039,0.146,0.034,-0.127,0.093,-0.122,-0.034,0.059,0.0,-0.02,-0.01
0.222,-0.102,0.063,0.166,0.02,-0.137,0.112,-0.122,-0.029,0.063,0.005,-0.01,-0.005
0.224,-0.112,0.059,0.171,0.029,-0.142,0.112,-0.127,-0.039,0.059,0.0,-0.015,-0.01
0.226,-0.122,0.059,0.181,0.034,-0.151,0.117,-0.132,-0.049,0.059,0.0,-0.01,0.0
0.228,-0.112,0.073,0.185,0.02,-0.151,0.127,-0.127,-0.044,0.063,0.015,0.0,0.01
0.23,-0.102,0.073,0.176,0.015,-0.142,0.122,-0.132,-0.049,0.068,0.015,0.0,0.01
0.232,-0.098,0.068,0.166,0.015,-0.132,0.117,-0.137,-0.054,0.049,0.015,-0.01,0.0
0.234,-0.098,0.068,0.166,0.015,-0.132,0.117,-0.132,-0.059,0.049,0.005,-0.01,0.0
0.236,-0.102,0.073,0.176,0.015,-0.142,0.122,-0.132,-0.059,0.049,0.015,-0.005,0.005
0.238,-0.107,0.063,0.171,0.024,-0.142,0.117,-0.146,-0.063,0.039,0.015,-0.005,0.01
0.24,-0.107,0.059,0.166,0.024,-0.137,0.112,-0.142,-0.068,0.024,0.01,-0.01,0.005
0.242,-0.107,0.059,0.166,0.024,-0.137,0.112,-0.132,-0.054,0.039,0.02,-0.005,0.015
0.244,-0.098,0.059,0.156,0.02,-0.127,0.107,-0.132,-0.044,0.039,0.029,0.0,0.015
0.246,-0.102,0.039,0.142,0.034,-0.122,0.088,-0.122,-0.044,0.039,0.034,-0.005,0.015
0.248,-0.098,0.034,0.132,0.034,-0.117,0.083,-0.117,-0.034,0.039,0.039,0.0,0.015
0.25,-0.112,0.02,0.132,0.049,-0.122,0.073,-0.112,-0.029,0.039,0.034,-0.005,0.015
0.252,-0.137,-0.01,0.127,0.073,-0.132,0.059,-0.102,-0.034,0.034,0.034,-0.01,0.01
0.254,-0.132,-0.02,0.112,0.078,-0.122,0.044,-0.107,-0.054,0.02,0.029,-0.02,0.0
0.256,-0.142,-0.024,0.117,0.083,-0.132,0.044,-0.107,-0.054,0.015,0.024,-0.024,-0.005
0.258,-0.132,-0.015,0.117,0.073,-0.127,0.049,-0.093,-0.044,0.02,0.034,-0.015,0.0
0.26,-0.127,-0.005,0.122,0.068,-0.127,0.059,-0.088,-0.044,0.02,0.039,-0.02,0.0
0.262,-0.142,-0.01,0.132,0.078,-0.137,0.059,-0.088,-0.044,0.01,0.034,-0.024,-0.005
0.264,-0.151,-0.015,0.137,0.083,-0.146,0.059,-0.083,-0.039,0.015,0.044,-0.02,0.0
0.266,-0.156,-0.02,0.137,0.088,-0.146,0.059,-0.078,-0.044,0.01,0.049,-0.024,0.0
0.268,-0.146,-0.02,0.127,0.083,-0.137,0.054,-0.073,-0.044,0.005,0.049,-0.029,-0.01
0.27,-0.151,-0.024,0.127,0.088,-0.142,0.049,-0.059,-0.029,0.01,0.059,-0.024,-0.01
0.272,-0.156,-0.034,0.122,0.098,-0.142,0.044,-0.063,-0.034,0.0,0.049,-0.034,-0.02
0.274,-0.161,-0.034,0.127,0.098,-0.146,0.044,-0.063,-0.034,0.0,0.049,-0.034,-0.02
0.276,-0.171,-0.034,0.137,0.102,-0.156,0.049,-0.059,-0.029,0.0,0.054,-0.034,-0.024
0.278,-0.166,-0.039,0.127,0.102,-0.146,0.044,-0.063,-0.039,-0.01,0.044,-0.039,-0.029
0.28,-0.161,-0.039,0.122,0.102,-0.142,0.039,-0.063,-0.044,-0.02,0.034,-0.049,-0.039
0.282,-0.19,-0.059,0.132,0.127,-0.161,0.034,-0.063,-0.044,-0.029,0.029,-0.059,-0.049
0.284,-0.21,-0.073,0.137,0.142,-0.176,0.029,-0.059,-0.039,-0.029,0.034,-0.059,-0.044
0.286,-0.19,-0.063,0.127,0.127,-0.161,0.029,-0.059,-0.039,-0.029,0.029,-0.054,-0.044
0.288,-0.181,-0.059,0.122,0.122,-0.151,0.029,-0.059,-0.039,-0.029,0.029,-0.054,-0.039
0.29,-0.166,-0.039,0.127,0.102,-0.146,0.044,-0.049,-0.034,-0.029,0.034,-0.054,-0.034
0.292,-0.185,-0.044,0.142,0.117,-0.166,0.049,-0.049,-0.029,-0.029,0.044,-0.049,-0.029
0.294,-0.2,-0.029,0.171,0.117,-0.185,0.068,-0.044,-0.024,-0.015,0.059,-0.034,-0.02
0.296,-0.19,-0.024,0.166,0.107,-0.181,0.068,-0.039,-0.024,-0.015,0.063,-0.034,-0.02
0.298,-0.2,-0.044,0.156,0.122,-0.181,0.054,-0.044,-0.024,-0.029,0.054,-0.044,-0.029
0.3,-0.195,-0.039,0.156,0.117,-0.176,0.059,-0.039,-0.02,-0.029,0.063,-0.039,-0.029
0.302,-0.185,-0.024,0.161,0.107,-0.176,0.068,-0.024,-0.01,-0.02,0.078,-0.029,-0.015
0.304,-0.195,-0.034,0.161,0.117,-0.181,0.063,-0.029,-0.015,-0.024,0.068,-0.034,-0.024
0.306,-0.2,-0.039,0.161,0.122,-0.181,0.059,-0.02,-0.01,-0.024,0.073,-0.034,-0.024
0.308,-0.22,-0.049,0.171,0.137,-0.195,0.059,-0.02,-0.015,-0.029,0.078,-0.039,-0.029
0.31,-0.22,-0.054,0.166,0.137,-0.195,0.054,-0.02,-0.01,-0.029,0.083,-0.039,-0.029
0.312,-0.21,-0.044,0.166,0.127,-0.19,0.059,-0.01,-0.005,-0.029,0.088,-0.039,-0.024
0.314,-0.224,-0.054,0.171,0.142,-0.2,0.059,-0.01,-0.005,-0.029,0.093,-0.039,-0.029
0.316,-0.229,-0.044,0.185,0.137,-0.21,0.068,-0.005,-0.005,-0.024,0.102,-0.029,-0.02
0.318,-0.22,-0.039,0.181,0.132,-0.2,0.068,0.01,0.005,-0.024,0.107,-0.029,-0.015
0.32,-0.22,-0.039,0.181,0.132,-0.2,0.068,0.01,0.005,-0.029,0.107,-0.029,-0.02
0.322,-0.22,-0.039,0.181,0.132,-0.2,0.068,0.005,0.0,-0.034,0.107,-0.034,-0.024
0.324,-0.249,-0.063,0.185,0.156,-0.22,0.059,0.01,0.005,-0.034,0.112,-0.034,-0.029
0.326,-0.249,-0.068,0.181,0.161,-0.215,0.054,0.005,-0.005,-0.039,0.102,-0.044,-0.034
0.328,-0.224,-0.044,0.181,0.137,-0.205,0.068,0.015,-0.005,-0.034,0.107,-0.034,-0.029
0.33,-0.234,-0.039,0.195,0.137,-0.215,0.078,0.024,0.005,-0.029,0.122,-0.02,-0.02
0.332,-0.22,-0.034,0.185,0.127,-0.205,0.073,0.029,0.01,-0.024,0.132,-0.02,-0.015
0.334,-0.239,-0.063,0.176,0.151,-0.21,0.054,0.015,0.0,-0.039,0.122,-0.039,-0.029
0.336,-0.273,-0.063,0.21,0.171,-0.244,0.073,0.029,0.005,-0.029,0.127,-0.024,-0.02
0.338,-0.244,-0.034,0.21,0.142,-0.229,0.088,0.034,0.024,-0.015,0.142,-0.01,-0.005
0.34,-0.239,-0.029,0.21,0.137,-0.224,0.088,0.049,0.029,-0.015,0.142,-0.005,0.0
0.342,-0.249,-0.039,0.21,0.146,-0.229,0.083,0.049,0.029,-0.015,0.137,-0.01,-0.005
0.344,-0.254,-0.054,0.2,0.156,-0.229,0.073,0.044,0.02,-0.034,0.127,-0.029,-0.02
0.346,-0.264,-0.068,0.195,0.166,-0.229,0.063,0.049,0.034,-0.034,0.122,-0.034,-0.029
0.348,-0.244,-0.063,0.181,0.156,-0.215,0.059,0.059,0.059,-0.029,0.112,-0.049,-0.039
0.35,-0.239,-0.088,0.151,0.166,-0.195,0.029,0.083,0.102,-0.015,0.102,-0.063,-0.059
0.352,-0.244,-0.132,0.112,0.19,-0.181,-0.01,0.107,0.166,-0.034,0.054,-0.122,-0.112
0.354,-0.234,-0.205,0.029,0.22,-0.132,-0.088,0.151,0.293,-0.054,-0.044,-0.224,-0.205
0.356,-0.224,-0.288,-0.063,0.259,-0.083,-0.176,0.21,0.468,-0.049,-0.142,-0.346,-0.303
0.358,-0.2,-0.361,-0.161,0.283,-0.02,-0.264,0.259,0.639,-0.024,-0.21,-0.425,-0.371
0.36,-0.166,-0.42,-0.254,0.293,0.044,-0.337,0.312,0.815,0.01,-0.249,-0.483,-0.42
0.362,-0.146,-0.468,-0.322,0.307,0.088,-0.395,0.351,0.991,0.063,-0.264,-0.498,-0.449
0.364,-0.127,-0.464,-0.337,0.298,0.102,-0.4,0.386,1.137,0.166,-0.19,-0.444,-0.41
0.366,-0.122,-0.42,-0.298,0.273,0.088,-0.361,0.439,1.288,0.322,-0.063,-0.337,-0.342
0.368,-0.093,-0.361,-0.268,0.229,0.088,-0.317,0.483,1.454,0.493,0.117,-0.195,-0.254
0.37,-0.054,-0.234,-0.181,0.146,0.063,-0.21,0.542,1.664,0.737,0.415,0.054,-0.083
0.372,-0.063,0.0,0.063,0.034,-0.063,0.029,0.6,1.815,1.059,0.883,0.483,0.22
0.374,-0.044,0.254,0.298,-0.102,-0.171,0.273,0.615,1.835,1.391,1.435,0.981,0.581
0.376,-0.034,0.498,0.532,-0.229,-0.283,0.512,0.547,1.513,1.606,1.976,1.479,0.947
0.378,-0.049,0.795,0.844,-0.371,-0.449,0.82,0.434,0.971,1.796,2.523,1.981,1.322
0.38,-0.029,1.074,1.103,-0.522,-0.566,1.088,0.337,0.512,1.981,3.03,2.44,1.674
0.382,-0.005,1.215,1.22,-0.605,-0.615,1.215,0.278,0.268,2.118,3.387,2.752,1.937
0.384,-0.015,1.215,1.23,-0.6,-0.625,1.22,0.273,0.146,2.196,3.523,2.845,2.05
0.386,-0.005,1.142,1.147,-0.566,-0.576,1.142,0.229,0.015,2.157,3.47,2.777,2.054
0.388,-0.02,1.0,1.02,-0.488,-0.522,1.01,0.161,-0.171,1.947,3.187,2.557,1.976
0.39,-0.059,0.927,0.986,-0.434,-0.522,0.956,0.093,-0.498,1.469,2.621,2.157,1.781
0.392,-0.117,0.908,1.025,-0.395,-0.571,0.966,0.059,-0.83,0.888,1.869,1.645,1.532
0.394,-0.2,0.854,1.054,-0.327,-0.63,0.952,0.024,-1.015,0.512,1.269,1.166,1.249
0.396,-0.259,0.795,1.054,-0.268,-0.659,0.922,-0.029,-1.176,0.098,0.747,0.781,1.005
0.398,-0.283,0.669,0.952,-0.19,-0.62,0.81,-0.102,-1.298,-0.454,0.166,0.395,0.732
0.4,-0.278,0.537,0.815,-0.127,-0.547,0.673,-0.171,-1.337,-0.795,-0.137,0.146,0.508
0.402,-0.288,0.425,0.712,-0.068,-0.503,0.566,-0.185,-1.322,-0.913,-0.244,-0.005,0.337
0.404,-0.298,0.337,0.634,-0.02,-0.468,0.483,-0.205,-1.288,-0.942,-0.298,-0.122,0.185
0.406,-0.288,0.268,0.556,0.01,-0.425,0.41,-0.229,-1.225,-0.913,-0.298,-0.181,0.102
0.408,-0.249,0.244,0.493,0.005,-0.371,0.366,-0.259,-1.147,-0.864,-0.264,-0.181,0.073
0.41,-0.224,0.2,0.425,0.015,-0.327,0.312,-0.259,-1.039,-0.81,-0.244,-0.19,0.034
0.412,-0.244,0.127,0.371,0.059,-0.307,0.249,-0.234,-0.903,-0.781,-0.268,-0.22,-0.01
0.414,-0.254,0.078,0.332,0.088,-0.293,0.205,-0.22,-0.795,-0.752,-0.278,-0.259,-0.054
0.416,-0.224,0.068,0.293,0.078,-0.259,0.181,-0.21,-0.732,-0.717,-0.278,-0.264,-0.088
0.418,-0.2,0.088,0.288,0.059,-0.244,0.185,-0.2,-0.659,-0.664,-0.249,-0.249,-0.093
0.42,-0.22,0.083,0.303,0.068,-0.264,0.19,-0.171,-0.556,-0.59,-0.2,-0.229,-0.093
0.422,-0.229,0.088,0.317,0.073,-0.273,0.2,-0.117,-0.429,-0.473,-0.122,-0.181,-0.068
0.424,-0.22,0.112,0.332,0.054,-0.278,0.22,-0.059,-0.303,-0.356,-0.034,-0.127,-0.044
0.426,-0.22,0.112,0.332,0.054,-0.278,0.22,0.0,-0.195,-0.254,0.034,-0.088,-0.02
0.428,-0.21,0.112,0.322,0.049,-0.268,0.215,0.015,-0.156,-0.21,0.063,-0.078,-0.02
0.43,-0.185,0.083,0.268,0.054,-0.229,0.176,0.029,-0.132,-0.176,0.083,-0.073,-0.029
0.432,-0.205,0.049,0.254,0.078,-0.229,0.151,0.044,-0.088,-0.142,0.112,-0.044,-0.015
0.434,-0.22,0.034,0.254,0.093,-0.239,0.142,0.073,-0.039,-0.102,0.142,-0.024,0.0
0.436,-0.205,0.01,0.215,0.098,-0.21,0.112,0.078,-0.015,-0.078,0.161,-0.015,0.0
0.438,-0.176,0.005,0.181,0.088,-0.181,0.093,0.068,-0.005,-0.078,0.156,-0.024,-0.005
0.44,-0.195,0.01,0.205,0.093,-0.2,0.107,0.083,0.024,-0.073,0.161,-0.02,0.0
0.442,-0.205,0.015,0.22,0.098,-0.215,0.117,0.093,0.044,-0.059,0.176,-0.01,-0.005
0.444,-0.176,0.005,0.181,0.088,-0.181,0.093,0.102,0.054,-0.054,0.176,-0.015,-0.01
0.446,-0.181,-0.01,0.171,0.098,-0.176,0.078,0.107,0.068,-0.049,0.176,-0.02,-0.01
0.448,-0.176,-0.02,0.156,0.098,-0.166,0.068,0.107,0.059,-0.044,0.176,-0.029,-0.02
0.45,-0.19,-0.02,0.171,0.107,-0.181,0.073,0.117,0.068,-0.034,0.185,-0.02,-0.02
0.452,-0.205,-0.02,0.185,0.112,-0.195,0.083,0.122,0.073,-0.02,0.205,0.0,-0.005
0.454,-0.185,-0.005,0.181,0.098,-0.185,0.088,0.122,0.078,-0.015,0.205,-0.005,0.0
0.456,-0.171,0.0,0.171,0.088,-0.171,0.083,0.127,0.083,-0.015,0.21,0.0,0.005
0.458,-0.156,0.005,0.161,0.078,-0.161,0.083,0.117,0.098,-0.01,0.215,0.005,0.01
0.46,-0.151,0.0,0.151,0.078,-0.151,0.073,0.117,0.107,-0.02,0.205,0.0,0.005
0.462,-0.166,-0.02,0.146,0.093,-0.156,0.063,0.117,0.112,-0.02,0.195,-0.015,-0.01
0.464,-0.171,-0.015,0.156,0.093,-0.166,0.068,0.127,0.122,-0.01,0.2,-0.005,-0.01
0.466,-0.151,-0.02,0.132,0.088,-0.142,0.054,0.127,0.132,-0.005,0.205,-0.005,-0.015
0.468,-0.142,-0.024,0.117,0.083,-0.132,0.044,0.137,0.122,0.0,0.21,-0.01,-0.015
0.47,-0.151,-0.02,0.132,0.088,-0.142,0.054,0.137,0.127,0.015,0.229,0.0,-0.01
0.472,-0.156,-0.029,0.127,0.093,-0.142,0.049,0.137,0.112,0.015,0.234,0.005,-0.005
0.474,-0.142,-0.029,0.112,0.088,-0.127,0.039,0.127,0.107,0.015,0.239,0.0,-0.01
0.476,-0.127,-0.01,0.117,0.068,-0.122,0.054,0.132,0.117,0.02,0.254,0.01,0.0
0.478,-0.102,0.01,0.112,0.049,-0.107,0.059,0.132,0.132,0.024,0.259,0.02,0.01
0.48,-0.102,-0.005,0.098,0.054,-0.102,0.044,0.127,0.132,0.005,0.249,0.005,0.0
0.482,-0.083,-0.015,0.068,0.049,-0.078,0.024,0.117,0.132,-0.005,0.224,-0.015,-0.02
0.484,-0.107,-0.034,0.073,0.073,-0.093,0.02,0.127,0.132,0.005,0.229,-0.005,-0.02
0.486,-0.127,-0.029,0.098,0.078,-0.112,0.034,0.137,0.142,0.01,0.239,0.0,-0.015
0.488,-0.137,-0.029,0.107,0.083,-0.122,0.039,0.146,0.142,0.02,0.239,0.0,-0.01
0.49,-0.142,-0.02,0.122,0.083,-0.132,0.049,0.151,0.142,0.029,0.244,0.01,-0.01
0.492,-0.112,-0.005,0.107,0.059,-0.112,0.049,0.151,0.137,0.034,0.254,0.02,0.0
0.494,-0.107,0.005,0.112,0.054,-0.112,0.059,0.156,0.137,0.039,0.254,0.02,0.01
0.496,-0.127,0.01,0.137,0.059,-0.132,0.073,0.161,0.146,0.044,0.254,0.029,0.02
0.498,-0.117,0.024,0.142,0.049,-0.132,0.083,0.161,0.166,0.044,0.259,0.034,0.024
0.5,-0.142,-0.015,0.127,0.078,-0.137,0.054,0.156,0.166,0.034,0.249,0.024,0.024
0.502,-0.137,-0.015,0.122,0.078,-0.132,0.054,0.151,0.171,0.024,0.224,0.005,0.0
0.504,-0.127,-0.01,0.117,0.068,-0.122,0.054,0.151,0.176,0.029,0.224,0.01,0.0
0.506,-0.142,-0.015,0.127,0.078,-0.137,0.054,0.161,0.185,0.039,0.234,0.015,0.005
0.508,-0.127,-0.024,0.102,0.078,-0.117,0.039,0.166,0.176,0.044,0.229,0.01,0.005
0.51,-0.127,-0.034,0.093,0.083,-0.112,0.029,0.156,0.171,0.044,0.224,0.005,-0.01
0.512,-0.112,-0.02,0.093,0.068,-0.102,0.034,0.161,0.171,0.059,0.234,0.015,0.005
0.514,-0.107,-0.015,0.093,0.063,-0.102,0.039,0.161,0.166,0.054,0.239,0.02,0.01
0.516,-0.107,-0.01,0.098,0.059,-0.102,0.044,0.171,0.166,0.059,0.234,0.024,0.015
0.518,-0.083,0.01,0.093,0.039,-0.088,0.049,0.166,0.185,0.059,0.239,0.029,0.02
0.52,-0.093,0.005,0.098,0.044,-0.098,0.049,0.171,0.205,0.059,0.239,0.034,0.024
0.522,-0.083,0.005,0.088,0.039,-0.088,0.044,0.166,0.205,0.054,0.229,0.024,0.01
0.524,-0.083,0.005,0.088,0.039,-0.088,0.044,0.171,0.22,0.059,0.224,0.024,0.015
0.526,-0.098,0.01,0.107,0.044,-0.102,0.059,0.19,0.239,0.073,0.244,0.034,0.024
0.528,-0.093,0.01,0.102,0.044,-0.098,0.054,0.195,0.234,0.083,0.244,0.039,0.029
0.53,-0.093,0.005,0.098,0.044,-0.098,0.049,0.195,0.224,0.088,0.239,0.034,0.024
0.532,-0.093,0.005,0.098,0.044,-0.098,0.049,0.19,0.22,0.088,0.254,0.039,0.024
0.534,-0.102,0.005,0.107,0.049,-0.107,0.054,0.181,0.21,0.088,0.249,0.039,0.024
0.536,-0.117,-0.015,0.102,0.068,-0.112,0.044,0.185,0.215,0.088,0.254,0.044,0.024
0.538,-0.107,0.005,0.112,0.054,-0.112,0.059,0.185,0.229,0.088,0.259,0.054,0.029
0.54,-0.093,0.029,0.122,0.034,-0.107,0.073,0.195,0.249,0.098,0.264,0.068,0.044
0.542,-0.098,0.024,0.122,0.039,-0.112,0.073,0.195,0.259,0.098,0.259,0.063,0.039
0.544,-0.117,0.01,0.127,0.054,-0.122,0.068,0.205,0.268,0.098,0.249,0.068,0.039
0.546,-0.112,0.015,0.127,0.049,-0.122,0.068,0.21,0.283,0.107,0.259,0.068,0.044
0.548,-0.098,0.01,0.107,0.044,-0.102,0.059,0.22,0.278,0.112,0.259,0.068,0.044
0.55,-0.088,0.01,0.098,0.039,-0.093,0.054,0.215,0.273,0.122,0.259,0.068,0.039
0.552,-0.093,0.01,0.102,0.044,-0.098,0.054,0.215,0.268,0.127,0.273,0.078,0.049
0.554,-0.093,0.015,0.107,0.039,-0.102,0.059,0.205,0.264,0.127,0.268,0.078,0.049
0.556,-0.083,0.029,0.112,0.029,-0.098,0.068,0.21,0.273,0.127,0.268,0.083,0.054
0.558,-0.068,0.034,0.102,0.02,-0.088,0.068,0.205,0.278,0.127,0.278,0.088,0.059
0.56,-0.068,0.039,0.107,0.015,-0.088,0.073,0.2,0.293,0.127,0.278,0.088,0.059
0.562,-0.063,0.034,0.098,0.015,-0.083,0.063,0.2,0.303,0.127,0.278,0.088,0.059
0.564,-0.073,0.02,0.093,0.029,-0.083,0.054,0.195,0.307,0.122,0.259,0.083,0.049
0.566,-0.137,0.02,0.156,0.059,-0.146,0.088,0.234,0.346,0.156,0.298,0.112,0.083
0.568,-0.127,0.024,0.151,0.054,-0.142,0.088,0.244,0.346,0.166,0.303,0.117,0.093
0.57,-0.088,0.029,0.117,0.029,-0.102,0.073,0.229,0.332,0.166,0.293,0.107,0.078
0.572,-0.054,0.044,0.098,0.005,-0.078,0.068,0.215,0.322,0.161,0.293,0.107,0.073
0.574,-0.063,0.049,0.112,0.01,-0.088,0.078,0.22,0.327,0.161,0.298,0.112,0.083
0.576,-0.078,0.054,0.132,0.015,-0.107,0.093,0.234,0.346,0.185,0.322,0.137,0.107
0.578,-0.083,0.063,0.146,0.01,-0.117,0.102,0.229,0.361,0.181,0.327,0.142,0.112
0.58,-0.093,0.063,0.156,0.015,-0.127,0.107,0.234,0.371,0.181,0.332,0.146,0.112
0.582,-0.088,0.063,0.151,0.015,-0.122,0.107,0.229,0.376,0.185,0.327,0.146,0.112
0.584,-0.073,0.068,0.142,0.005,-0.107,0.102,0.224,0.386,0.19,0.322,0.142,0.112
0.586,-0.093,0.068,0.161,0.015,-0.127,0.112,0.229,0.39,0.195,0.332,0.146,0.117
0.588,-0.083,0.068,0.151,0.01,-0.117,0.107,0.234,0.39,0.205,0.337,0.156,0.127
0.59,-0.054,0.078,0.132,-0.01,-0.093,0.102,0.239,0.4,0.21,0.342,0.161,0.127
0.592,-0.068,0.083,0.151,-0.005,-0.112,0.117,0.239,0.395,0.215,0.351,0.176,0.137
0.594,-0.073,0.078,0.151,0.0,-0.112,0.112,0.244,0.405,0.22,0.356,0.185,0.151
0.596,-0.063,0.088,0.151,-0.01,-0.107,0.117,0.234,0.4,0.22,0.361,0.19,0.156
0.598,-0.073,0.098,0.171,-0.01,-0.122,0.132,0.234,0.415,0.224,0.371,0.205,0.171
0.6,-0.063,0.102,0.166,-0.02,-0.117,0.132,0.229,0.415,0.22,0.386,0.21,0.171
0.602,-0.063,0.102,0.166,-0.02,-0.117,0.132,0.229,0.425,0.224,0.386,0.215,0.176
0.604,-0.02,0.117,0.137,-0.049,-0.078,0.127,0.22,0.42,0.22,0.376,0.21,0.176
0.606,0.0,0.122,0.122,-0.059,-0.063,0.122,0.21,0.415,0.22,0.366,0.21,0.176
0.608,0.024,0.122,0.098,-0.073,-0.039,0.107,0.215,0.41,0.22,0.376,0.215,0.181
0.61,0.01,0.132,0.122,-0.068,-0.059,0.127,0.22,0.415,0.234,0.4,0.234,0.205
0.612,-0.083,0.142,0.224,-0.029,-0.156,0.181,0.254,0.434,0.259,0.439,0.283,0.239
0.614,-0.054,0.166,0.22,-0.054,-0.137,0.19,0.254,0.439,0.264,0.449,0.293,0.259
0.616,-0.039,0.181,0.22,-0.068,-0.132,0.2,0.244,0.434,0.259,0.449,0.303,0.268
0.618,-0.063,0.171,0.234,-0.054,-0.151,0.2,0.229,0.429,0.249,0.444,0.307,0.273
0.62,-0.068,0.156,0.224,-0.044,-0.146,0.19,0.215,0.415,0.224,0.429,0.303,0.268
0.622,-0.063,0.166,0.229,-0.049,-0.146,0.195,0.215,0.415,0.224,0.429,0.307,0.268
0.624,-0.049,0.185,0.234,-0.068,-0.142,0.21,0.22,0.415,0.234,0.434,0.322,0.288
0.626,-0.054,0.19,0.244,-0.068,-0.151,0.215,0.215,0.415,0.234,0.434,0.322,0.298
0.628,-0.049,0.185,0.234,-0.068,-0.142,0.21,0.21,0.395,0.229,0.434,0.332,0.298
0.63,-0.044,0.2,0.244,-0.078,-0.146,0.22,0.21,0.386,0.229,0.439,0.337,0.307
0.632,-0.049,0.22,0.268,-0.083,-0.161,0.244,0.205,0.376,0.234,0.449,0.356,0.327
0.634,-0.034,0.224,0.259,-0.093,-0.146,0.239,0.205,0.366,0.229,0.449,0.366,0.342
0.636,-0.01,0.239,0.249,-0.112,-0.132,0.244,0.19,0.346,0.215,0.454,0.371,0.346
0.638,-0.02,0.239,0.259,-0.107,-0.142,0.249,0.19,0.351,0.21,0.459,0.381,0.361
0.64,-0.034,0.249,0.283,-0.107,-0.161,0.264,0.19,0.346,0.205,0.468,0.395,0.376
0.642,-0.054,0.254,0.307,-0.098,-0.181,0.278,0.19,0.346,0.205,0.468,0.405,0.386
0.644,-0.02,0.264,0.283,-0.122,-0.151,0.273,0.171,0.317,0.19,0.444,0.39,0.371
0.646,-0.02,0.268,0.288,-0.122,-0.156,0.278,0.181,0.312,0.19,0.454,0.4,0.381
0.648,-0.059,0.273,0.332,-0.107,-0.195,0.303,0.181,0.303,0.19,0.459,0.41,0.395
0.65,-0.054,0.268,0.322,-0.107,-0.19,0.293,0.171,0.273,0.185,0.454,0.41,0.395
0.652,-0.034,0.273,0.307,-0.117,-0.171,0.288,0.166,0.254,0.181,0.454,0.415,0.41
0.654,-0.034,0.273,0.307,-0.117,-0.171,0.288,0.161,0.239,0.171,0.444,0.425,0.41
0.656,-0.049,0.293,0.342,-0.122,-0.195,0.317,0.161,0.239,0.171,0.454,0.439,0.429
0.658,-0.049,0.283,0.332,-0.117,-0.19,0.307,0.151,0.224,0.156,0.444,0.429,0.425
0.66,-0.039,0.273,0.312,-0.117,-0.176,0.293,0.142,0.21,0.137,0.429,0.42,0.415
0.662,-0.024,0.298,0.322,-0.137,-0.176,0.307,0.142,0.205,0.132,0.42,0.42,0.42
0.664,-0.02,0.293,0.312,-0.137,-0.166,0.303,0.142,0.195,0.122,0.41,0.415,0.415
0.666,-0.015,0.283,0.298,-0.132,-0.156,0.288,0.142,0.176,0.112,0.386,0.405,0.4
0.668,-0.039,0.283,0.322,-0.122,-0.181,0.303,0.161,0.181,0.122,0.395,0.42,0.415
0.67,-0.054,0.273,0.327,-0.107,-0.19,0.298,0.151,0.156,0.112,0.386,0.405,0.4
0.672,-0.054,0.254,0.307,-0.098,-0.181,0.278,0.142,0.127,0.093,0.371,0.39,0.39
0.674,-0.068,0.22,0.288,-0.073,-0.181,0.254,0.127,0.102,0.068,0.346,0.366,0.371
0.676,-0.078,0.2,0.278,-0.059,-0.181,0.239,0.112,0.083,0.044,0.322,0.351,0.351
0.678,-0.093,0.19,0.283,-0.049,-0.19,0.234,0.112,0.088,0.039,0.322,0.342,0.346
0.68,-0.088,0.19,0.278,-0.049,-0.185,0.234,0.117,0.083,0.024,0.317,0.332,0.337
0.682,-0.083,0.195,0.278,-0.054,-0.181,0.234,0.132,0.093,0.029,0.317,0.322,0.332
0.684,-0.078,0.195,0.273,-0.059,-0.176,0.234,0.142,0.093,0.024,0.312,0.312,0.322
0.686,-0.078,0.181,0.259,-0.049,-0.171,0.22,0.132,0.078,0.01,0.293,0.288,0.298
0.688,-0.063,0.171,0.234,-0.054,-0.151,0.2,0.127,0.054,-0.005,0.268,0.254,0.268
0.69,-0.073,0.156,0.229,-0.039,-0.151,0.19,0.127,0.034,-0.01,0.249,0.234,0.249
0.692,-0.098,0.142,0.239,-0.02,-0.171,0.19,0.122,0.02,-0.02,0.234,0.224,0.234
0.694,-0.112,0.142,0.254,-0.015,-0.185,0.195,0.127,0.02,-0.024,0.229,0.22,0.234
0.696,-0.107,0.122,0.229,-0.005,-0.171,0.176,0.127,0.01,-0.034,0.21,0.2,0.22
0.698,-0.098,0.127,0.224,-0.015,-0.161,0.176,0.122,0.005,-0.044,0.19,0.19,0.205
0.7,-0.078,0.117,0.195,-0.02,-0.137,0.156,0.117,0.0,-0.059,0.166,0.171,0.185
0.702,-0.112,0.088,0.2,0.015,-0.156,0.142,0.117,0.0,-0.068,0.142,0.146,0.166
0.704,-0.127,0.078,0.205,0.024,-0.166,0.142,0.127,0.0,-0.068,0.137,0.142,0.156
0.706,-0.132,0.068,0.2,0.034,-0.166,0.132,0.137,0.005,-0.068,0.132,0.127,0.146
0.708,-0.117,0.063,0.181,0.029,-0.151,0.122,0.137,-0.01,-0.073,0.107,0.107,0.127
0.71,-0.102,0.054,0.156,0.024,-0.132,0.102,0.132,-0.024,-0.083,0.102,0.088,0.107
0.712,-0.112,0.044,0.156,0.034,-0.137,0.098,0.132,-0.034,-0.093,0.098,0.078,0.098
0.714,-0.127,0.049,0.176,0.039,-0.151,0.112,0.142,-0.029,-0.083,0.107,0.083,0.102
0.716,-0.132,0.054,0.185,0.039,-0.161,0.117,0.142,-0.029,-0.083,0.102,0.083,0.098
0.718,-0.102,0.059,0.161,0.024,-0.132,0.107,0.127,-0.034,-0.093,0.088,0.068,0.078
0.72,-0.102,0.054,0.156,0.024,-0.132,0.102,0.132,-0.029,-0.102,0.078,0.059,0.078
0.722,-0.127,0.024,0.151,0.054,-0.142,0.088,0.137,-0.024,-0.102,0.073,0.044,0.073
0.724,-0.151,-0.005,0.146,0.078,-0.151,0.068,0.122,-0.039,-0.117,0.049,0.024,0.049
0.726,-0.132,-0.005,0.127,0.068,-0.132,0.059,0.117,-0.039,-0.122,0.039,0.015,0.039
0.728,-0.137,-0.01,0.127,0.073,-0.132,0.059,0.127,-0.039,-0.117,0.039,0.01,0.034
0.73,-0.137,0.0,0.137,0.068,-0.137,0.068,0.137,-0.039,-0.107,0.044,0.01,0.039
0.732,-0.132,-0.01,0.122,0.073,-0.127,0.054,0.132,-0.049,-0.117,0.034,0.005,0.034
0.734,-0.142,-0.02,0.122,0.083,-0.132,0.049,0.127,-0.054,-0.122,0.029,0.005,0.029
0.736,-0.132,0.0,0.132,0.068,-0.132,0.063,0.122,-0.059,-0.122,0.029,0.01,0.034
0.738,-0.127,0.005,0.132,0.063,-0.132,0.068,0.127,-0.049,-0.127,0.029,0.005,0.039
0.74,-0.117,0.01,0.127,0.054,-0.122,0.068,0.122,-0.059,-0.142,0.02,0.0,0.024
0.742,-0.088,0.005,0.093,0.044,-0.093,0.049,0.107,-0.059,-0.146,0.015,-0.024,0.01
0.744,-0.098,-0.01,0.088,0.054,-0.093,0.039,0.107,-0.059,-0.146,0.005,-0.024,0.005
0.746,-0.132,-0.01,0.122,0.073,-0.127,0.054,0.132,-0.044,-0.132,0.02,-0.02,0.015
0.748,-0.171,-0.01,0.161,0.093,-0.166,0.073,0.151,-0.029,-0.112,0.044,0.0,0.029
0.75,-0.142,-0.01,0.132,0.078,-0.137,0.059,0.137,-0.049,-0.117,0.034,-0.015,0.02
0.752,-0.117,-0.005,0.112,0.063,-0.117,0.054,0.122,-0.063,-0.127,0.029,-0.024,0.015
0.754,-0.122,-0.024,0.098,0.073,-0.112,0.034,0.122,-0.059,-0.127,0.029,-0.02,0.015
0.756,-0.117,-0.024,0.093,0.073,-0.107,0.034,0.112,-0.063,-0.127,0.024,-0.015,0.015
0.758,-0.107,-0.015,0.093,0.063,-0.102,0.039,0.117,-0.059,-0.127,0.024,-0.015,0.024
0.76,-0.112,-0.01,0.102,0.063,-0.107,0.044,0.107,-0.059,-0.137,0.024,-0.02,0.02
0.762,-0.122,-0.015,0.107,0.068,-0.117,0.044,0.107,-0.049,-0.132,0.024,-0.024,0.015
0.764,-0.117,-0.024,0.093,0.073,-0.107,0.034,0.107,-0.054,-0.132,0.02,-0.029,0.01
0.766,-0.112,-0.02,0.093,0.068,-0.102,0.034,0.102,-0.059,-0.137,0.015,-0.034,-0.005
0.768,-0.098,-0.02,0.078,0.059,-0.088,0.029,0.112,-0.063,-0.132,0.02,-0.034,-0.005
0.77,-0.093,-0.024,0.068,0.059,-0.083,0.02,0.098,-0.073,-0.132,0.01,-0.044,-0.01
0.772,-0.093,-0.024,0.068,0.059,-0.083,0.02,0.093,-0.078,-0.142,0.015,-0.044,-0.005
0.774,-0.122,-0.039,0.083,0.083,-0.102,0.02,0.102,-0.063,-0.132,0.024,-0.029,0.01
0.776,-0.107,-0.034,0.073,0.073,-0.093,0.02,0.088,-0.073,-0.137,0.024,-0.029,0.0
0.778,-0.112,-0.029,0.083,0.073,-0.098,0.024,0.098,-0.063,-0.127,0.029,-0.024,0.015
0.78,-0.122,-0.02,0.102,0.073,-0.112,0.039,0.093,-0.054,-0.132,0.029,-0.029,0.01
0.782,-0.117,-0.02,0.098,0.068,-0.107,0.039,0.093,-0.054,-0.132,0.01,-0.034,0.0
0.784,-0.102,-0.02,0.083,0.063,-0.093,0.029,0.098,-0.049,-0.127,0.01,-0.029,0.0
0.786,-0.098,-0.02,0.078,0.059,-0.088,0.029,0.093,-0.054,-0.132,0.01,-0.034,-0.005
0.788,-0.098,-0.049,0.049,0.073,-0.073,0.0,0.088,-0.063,-0.137,0.0,-0.044,-0.015
0.79,-0.098,-0.059,0.039,0.078,-0.068,-0.01,0.083,-0.073,-0.137,0.0,-0.044,-0.02
0.792,-0.112,-0.044,0.068,0.078,-0.093,0.01,0.093,-0.068,-0.127,0.015,-0.034,-0.005
0.794,-0.107,-0.024,0.083,0.068,-0.098,0.029,0.093,-0.063,-0.127,0.02,-0.029,0.005
0.796,-0.088,-0.015,0.073,0.054,-0.083,0.029,0.093,-0.063,-0.127,0.02,-0.024,0.005
0.798,-0.083,-0.02,0.063,0.054,-0.073,0.02,0.088,-0.063,-0.127,0.015,-0.029,0.005
0.8,-0.083,-0.015,0.068,0.049,-0.078,0.024,0.088,-0.049,-0.127,0.015,-0.029,0.01
0.802,-0.083,-0.02,0.063,0.054,-0.073,0.02,0.083,-0.044,-0.127,0.015,-0.034,0.005
0.804,-0.083,-0.024,0.059,0.054,-0.073,0.015,0.083,-0.044,-0.127,0.005,-0.034,-0.005
0.806,-0.083,-0.02,0.063,0.054,-0.073,0.02,0.083,-0.044,-0.122,0.005,-0.039,0.0
0.808,-0.083,-0.024,0.059,0.054,-0.073,0.015,0.083,-0.054,-0.127,0.0,-0.044,-0.015
0.81,-0.078,-0.02,0.059,0.049,-0.068,0.02,0.083,-0.054,-0.117,0.015,-0.034,-0.015
0.812,-0.078,-0.024,0.054,0.054,-0.068,0.015,0.083,-0.059,-0.117,0.01,-0.029,-0.005
0.814,-0.068,-0.02,0.049,0.044,-0.059,0.015,0.073,-0.063,-0.122,0.01,-0.039,-0.005
0.816,-0.068,-0.024,0.044,0.049,-0.059,0.01,0.073,-0.063,-0.122,0.015,-0.034,-0.005
0.818,-0.044,-0.024,0.02,0.034,-0.034,-0.005,0.068,-0.068,-0.127,0.01,-0.034,-0.005
0.82,-0.073,-0.034,0.039,0.054,-0.059,0.0,0.068,-0.063,-0.127,0.005,-0.039,-0.01
0.822,-0.083,-0.039,0.044,0.063,-0.063,0.0,0.068,-0.049,-0.117,0.015,-0.034,-0.01
0.824,-0.083,-0.054,0.029,0.068,-0.059,-0.015,0.063,-0.049,-0.122,0.0,-0.039,-0.015
0.826,-0.083,-0.044,0.039,0.063,-0.063,-0.005,0.068,-0.044,-0.112,0.005,-0.039,-0.01
0.828,-0.073,-0.034,0.039,0.054,-0.059,0.0,0.068,-0.049,-0.112,-0.005,-0.044,-0.02
0.83,-0.068,-0.034,0.034,0.054,-0.054,0.0,0.068,-0.054,-0.102,0.0,-0.039,-0.02
0.832,-0.063,-0.034,0.029,0.049,-0.049,-0.005,0.063,-0.063,-0.107,-0.01,-0.044,-0.02
0.834,-0.083,-0.049,0.034,0.068,-0.059,-0.01,0.059,-0.059,-0.107,-0.01,-0.044,-0.015
0.836,-0.078,-0.039,0.039,0.059,-0.059,0.0,0.054,-0.059,-0.107,-0.005,-0.039,-0.02
0.838,-0.054,-0.029,0.024,0.044,-0.039,-0.005,0.049,-0.059,-0.107,-0.005,-0.034,-0.02
0.84,-0.068,-0.044,0.024,0.059,-0.049,-0.01,0.049,-0.049,-0.107,-0.01,-0.049,-0.01
0.842,-0.068,-0.029,0.039,0.049,-0.054,0.005,0.054,-0.034,-0.112,-0.005,-0.054,-0.01
0.844,-0.059,-0.02,0.039,0.039,-0.049,0.01,0.063,-0.024,-0.098,-0.01,-0.044,-0.01
0.846,-0.054,-0.029,0.024,0.044,-0.039,-0.005,0.059,-0.024,-0.102,-0.015,-0.054,-0.015
0.848,-0.059,-0.034,0.024,0.049,-0.044,-0.005,0.054,-0.029,-0.102,-0.01,-0.054,-0.015
0.85,-0.068,-0.049,0.02,0.059,-0.044,-0.015,0.049,-0.039,-0.102,-0.01,-0.054,-0.029
0.852,-0.059,-0.039,0.02,0.049,-0.039,-0.01,0.044,-0.044,-0.098,-0.005,-0.049,-0.024
0.854,-0.054,-0.034,0.02,0.044,-0.039,-0.01,0.049,-0.039,-0.098,0.005,-0.044,-0.02
0.856,-0.068,-0.044,0.024,0.059,-0.049,-0.01,0.049,-0.049,-0.102,0.01,-0.049,-0.029
0.858,-0.068,-0.044,0.024,0.059,-0.049,-0.01,0.039,-0.044,-0.102,0.005,-0.049,-0.024
0.86,-0.054,-0.034,0.02,0.044,-0.039,-0.01,0.044,-0.034,-0.102,0.01,-0.049,-0.01
0.862,-0.034,-0.015,0.02,0.024,-0.029,0.0,0.044,-0.024,-0.098,0.02,-0.044,-0.015
0.864,-0.02,-0.015,0.005,0.02,-0.015,-0.005,0.049,-0.02,-0.093,0.015,-0.039,-0.015
0.866,-0.039,-0.039,0.0,0.039,-0.02,-0.02,0.039,-0.02,-0.098,0.0,-0.054,-0.024
0.868,-0.039,-0.049,-0.01,0.044,-0.015,-0.029,0.044,-0.029,-0.098,0.0,-0.059,-0.024
0.87,-0.034,-0.049,-0.015,0.044,-0.01,-0.034,0.044,-0.034,-0.093,0.0,-0.054,-0.034
0.872,-0.068,-0.068,0.0,0.068,-0.034,-0.034,0.044,-0.039,-0.088,0.01,-0.044,-0.024
0.874,-0.063,-0.049,0.015,0.059,-0.039,-0.02,0.044,-0.039,-0.083,0.01,-0.044,-0.015
0.876,-0.024,-0.029,-0.005,0.029,-0.01,-0.02,0.044,-0.034,-0.078,0.015,-0.034,-0.01
0.878,-0.015,-0.024,-0.01,0.02,-0.005,-0.02,0.029,-0.034,-0.078,0.015,-0.039,-0.015
0.88,-0.01,-0.039,-0.029,0.024,0.01,-0.034,0.024,-0.029,-0.088,0.005,-0.049,-0.015
0.882,-0.034,-0.054,-0.02,0.044,-0.01,-0.039,0.02,-0.034,-0.093,-0.005,-0.054,-0.024
0.884,-0.049,-0.049,0.0,0.049,-0.024,-0.024,0.039,-0.01,-0.083,0.01,-0.039,-0.015
0.886,-0.039,-0.039,0.0,0.039,-0.02,-0.02,0.039,-0.005,-0.083,0.0,-0.049,-0.01
0.888,-0.039,-0.044,-0.005,0.044,-0.02,-0.024,0.039,-0.015,-0.083,-0.01,-0.054,-0.015
0.89,-0.015,-0.029,-0.015,0.024,0.0,-0.024,0.034,-0.015,-0.078,-0.005,-0.049,-0.02
0.892,0.0,-0.039,-0.039,0.02,0.02,-0.039,0.034,-0.015,-0.078,0.0,-0.049,-0.02
0.894,-0.029,-0.044,-0.015,0.039,-0.01,-0.029,0.034,-0.02,-0.078,0.0,-0.044,-0.015
0.896,-0.049,-0.054,-0.005,0.054,-0.024,-0.029,0.029,-0.01,-0.073,0.005,-0.039,-0.015
0.898,-0.049,-0.068,-0.02,0.059,-0.015,-0.044,0.015,-0.024,-0.083,-0.005,-0.054,-0.024
0.9,-0.039,-0.063,-0.024,0.054,-0.01,-0.044,0.015,-0.02,-0.088,-0.015,-0.059,-0.024
0.902,-0.024,-0.049,-0.024,0.039,0.0,-0.039,0.015,-0.01,-0.083,-0.015,-0.054,-0.024
0.904,-0.039,-0.059,-0.02,0.049,-0.01,-0.039,0.015,-0.015,-0.078,-0.01,-0.054,-0.029
0.906,-0.034,-0.063,-0.029,0.049,-0.005,-0.049,0.015,-0.02,-0.078,-0.015,-0.059,-0.034
0.908,-0.029,-0.063,-0.034,0.049,0.0,-0.049,0.02,-0.015,-0.078,-0.015,-0.059,-0.029
0.91,-0.034,-0.073,-0.039,0.054,0.0,-0.059,0.02,-0.024,-0.073,-0.01,-0.059,-0.034
0.912,-0.024,-0.059,-0.034,0.044,0.005,-0.049,0.02,-0.024,-0.068,0.0,-0.049,-0.024
0.914,-0.024,-0.054,-0.029,0.039,0.0,-0.044,0.02,-0.024,-0.073,0.01,-0.044,-0.02
0.916,-0.02,-0.054,-0.034,0.039,0.005,-0.044,0.015,-0.029,-0.078,0.005,-0.049,-0.029
0.918,-0.024,-0.059,-0.034,0.044,0.005,-0.049,0.01,-0.024,-0.073,0.01,-0.049,-0.024
0.92,0.005,-0.054,-0.059,0.024,0.029,-0.059,0.005,-0.024,-0.083,-0.005,-0.054,-0.029
0.922,0.015,-0.044,-0.059,0.015,0.034,-0.054,-0.01,-0.029,-0.088,-0.01,-0.063,-0.039
0.924,-0.02,-0.049,-0.029,0.034,0.005,-0.039,0.005,-0.015,-0.078,0.0,-0.044,-0.024
0.926,-0.029,-0.044,-0.015,0.039,-0.01,-0.029,0.0,-0.02,-0.078,-0.01,-0.049,-0.029
0.928,-0.01,-0.039,-0.029,0.024,0.01,-0.034,0.005,-0.02,-0.078,-0.015,-0.049,-0.024
0.93,0.005,-0.044,-0.049,0.02,0.024,-0.049,0.005,-0.024,-0.073,-0.02,-0.059,-0.034
0.932,0.01,-0.049,-0.059,0.02,0.034,-0.054,0.0,-0.024,-0.078,-0.015,-0.059,-0.029
0.934,0.0,-0.063,-0.063,0.034,0.029,-0.063,-0.005,-0.02,-0.078,-0.015,-0.063,-0.029
0.936,0.0,-0.068,-0.068,0.034,0.034,-0.068,-0.015,-0.029,-0.088,-0.02,-0.068,-0.034
0.938,-0.01,-0.063,-0.054,0.039,0.02,-0.059,-0.01,-0.024,-0.078,-0.01,-0.054,-0.024
0.94,0.0,-0.054,-0.054,0.029,0.024,-0.054,-0.005,-0.01,-0.083,-0.01,-0.054,-0.015
0.942,-0.005,-0.059,-0.054,0.034,0.024,-0.059,-0.005,-0.01,-0.078,-0.015,-0.059,-0.02
0.944,-0.01,-0.059,-0.049,0.034,0.02,-0.054,-0.005,-0.005,-0.073,-0.005,-0.059,-0.02
0.946,-0.005,-0.049,-0.044,0.029,0.02,-0.049,-0.01,-0.015,-0.078,-0.01,-0.068,-0.029
0.948,-0.01,-0.054,-0.044,0.034,0.015,-0.049,-0.01,-0.015,-0.078,-0.01,-0.068,-0.029
0.95,-0.015,-0.063,-0.049,0.039,0.015,-0.059,-0.005,-0.015,-0.073,-0.005,-0.059,-0.034
0.952,-0.005,-0.059,-0.054,0.034,0.024,-0.059,-0.005,-0.015,-0.078,-0.005,-0.054,-0.024
0.954,0.015,-0.044,-0.059,0.015,0.034,-0.054,-0.015,-0.02,-0.083,-0.01,-0.063,-0.024
0.956,0.005,-0.054,-0.059,0.024,0.029,-0.059,-0.01,-0.015,-0.078,0.0,-0.059,-0.02
0.958,-0.015,-0.059,-0.044,0.039,0.015,-0.054,-0.015,-0.015,-0.073,0.005,-0.059,-0.02
0.96,0.015,-0.059,-0.073,0.024,0.044,-0.068,-0.02,-0.01,-0.083,-0.005,-0.059,-0.02
0.962,0.015,-0.054,-0.068,0.02,0.039,-0.063,-0.02,-0.01,-0.088,-0.005,-0.063,-0.024
0.964,0.01,-0.044,-0.054,0.02,0.029,-0.049,-0.015,0.0,-0.078,0.0,-0.054,-0.02
0.966,0.01,-0.049,-0.059,0.02,0.034,-0.054,-0.015,-0.005,-0.078,-0.005,-0.059,-0.024
0.968,0.01,-0.054,-0.063,0.024,0.034,-0.059,-0.02,-0.005,-0.078,-0.01,-0.059,-0.029
0.97,-0.01,-0.083,-0.073,0.049,0.029,-0.078,-0.029,-0.02,-0.088,-0.01,-0.068,-0.044
0.972,-0.015,-0.098,-0.083,0.059,0.034,-0.093,-0.034,-0.034,-0.093,-0.015,-0.073,-0.044
0.974,0.0,-0.073,-0.073,0.039,0.034,-0.073,-0.039,-0.034,-0.093,-0.01,-0.073,-0.039
0.976,0.01,-0.073,-0.083,0.034,0.044,-0.078,-0.034,-0.029,-0.088,0.0,-0.068,-0.034
0.978,0.0,-0.083,-0.083,0.044,0.039,-0.083,-0.039,-0.024,-0.083,0.005,-0.063,-0.029
0.98,0.01,-0.078,-0.088,0.034,0.049,-0.083,-0.039,-0.02,-0.093,0.0,-0.063,-0.029
0.982,0.015,-0.073,-0.088,0.029,0.049,-0.083,-0.044,-0.02,-0.093,-0.005,-0.073,-0.029
0.984,0.02,-0.068,-0.088,0.024,0.054,-0.078,-0.039,-0.015,-0.093,0.0,-0.068,-0.034
0.986,0.02,-0.068,-0.088,0.024,0.054,-0.078,-0.039,-0.015,-0.093,-0.01,-0.073,-0.034
0.988,0.01,-0.078,-0.088,0.034,0.049,-0.083,-0.044,-0.015,-0.088,-0.015,-0.073,-0.034
0.99,0.024,-0.063,-0.088,0.02,0.054,-0.078,-0.034,-0.015,-0.078,-0.01,-0.063,-0.029
0.992,0.02,-0.073,-0.093,0.029,0.054,-0.083,-0.044,-0.02,-0.093,-0.01,-0.063,-0.039
0.994,0.015,-0.078,-0.093,0.034,0.054,-0.088,-0.049,-0.029,-0.098,-0.024,-0.073,-0.044
0.996,0.024,-0.088,-0.112,0.034,0.068,-0.102,-0.049,-0.029,-0.093,-0.02,-0.068,-0.044
0.998,0.015,-0.098,-0.112,0.044,0.063,-0.107,-0.049,-0.029,-0.093,-0.015,-0.068,-0.034
1.0,0.015,-0.078,-0.093,0.034,0.054,-0.088,-0.049,-0.02,-0.093,-0.015,-0.059,-0.034
1.002,0.024,-0.073,-0.098,0.024,0.059,-0.088,-0.049,-0.015,-0.093,-0.02,-0.068,-0.029
1.004,0.015,-0.088,-0.102,0.039,0.059,-0.098,-0.039,-0.015,-0.088,-0.015,-0.063,-0.034
1.006,0.015,-0.083,-0.098,0.034,0.054,-0.093,-0.039,-0.01,-0.088,-0.01,-0.063,-0.034
1.008,0.039,-0.073,-0.112,0.02,0.073,-0.093,-0.049,-0.01,-0.093,-0.015,-0.073,-0.039
1.01,0.01,-0.088,-0.098,0.039,0.054,-0.093,-0.044,-0.02,-0.088,-0.01,-0.068,-0.039
1.012,-0.01,-0.093,-0.083,0.054,0.034,-0.088,-0.034,-0.01,-0.083,0.005,-0.059,-0.029
1.014,0.005,-0.073,-0.078,0.034,0.039,-0.078,-0.034,-0.01,-0.088,0.005,-0.059,-0.024
1.016,0.0,-0.078,-0.078,0.039,0.039,-0.078,-0.039,-0.02,-0.088,0.0,-0.063,-0.029
1.018,0.015,-0.073,-0.088,0.029,0.049,-0.083,-0.044,-0.02,-0.093,-0.005,-0.063,-0.029
1.02,0.02,-0.083,-0.102,0.034,0.059,-0.093,-0.049,-0.02,-0.098,-0.005,-0.068,-0.039
1.022,0.02,-0.078,-0.098,0.029,0.059,-0.088,-0.039,-0.005,-0.088,0.0,-0.063,-0.029
1.024,0.02,-0.073,-0.093,0.029,0.054,-0.083,-0.034,0.0,-0.088,0.005,-0.059,-0.029
1.026,0.015,-0.073,-0.088,0.029,0.049,-0.083,-0.034,-0.005,-0.093,0.0,-0.068,-0.039
1.028,0.024,-0.063,-0.088,0.02,0.054,-0.078,-0.034,0.0,-0.083,0.005,-0.063,-0.034
1.03,0.01,-0.078,-0.088,0.034,0.049,-0.083,-0.029,-0.01,-0.088,0.0,-0.063,-0.034
1.032,-0.005,-0.098,-0.093,0.054,0.044,-0.098,-0.039,-0.02,-0.102,-0.005,-0.068,-0.044
1.034,0.015,-0.073,-0.088,0.029,0.049,-0.083,-0.039,-0.015,-0.102,0.0,-0.063,-0.039
1.036,0.01,-0.078,-0.088,0.034,0.049,-0.083,-0.039,-0.02,-0.102,0.0,-0.068,-0.039
1.038,0.01,-0.078,-0.088,0.034,0.049,-0.083,-0.039,-0.015,-0.102,-0.005,-0.063,-0.044
1.04,0.0,-0.093,-0.093,0.049,0.044,-0.093,-0.039,-0.01,-0.102,0.0,-0.063,-0.044
1.042,-0.01,-0.088,-0.078,0.049,0.034,-0.083,-0.044,-0.01,-0.102,-0.005,-0.068,-0.044
1.044,-0.005,-0.088,-0.083,0.049,0.039,-0.088,-0.039,-0.005,-0.098,0.0,-0.063,-0.044
1.046,-0.005,-0.098,-0.093,0.054,0.044,-0.098,-0.034,-0.005,-0.102,0.0,-0.073,-0.054
1.048,0.0,-0.093,-0.093,0.049,0.044,-0.093,-0.034,-0.005,-0.098,0.0,-0.068,-0.049
1.05,0.01,-0.078,-0.088,0.034,0.049,-0.083,-0.024,-0.005,-0.093,0.01,-0.063,-0.039
1.052,0.015,-0.078,-0.093,0.034,0.054,-0.088,-0.029,-0.005,-0.098,0.02,-0.059,-0.039
1.054,0.015,-0.059,-0.073,0.024,0.044,-0.068,-0.02,0.0,-0.093,0.02,-0.049,-0.029
1.056,0.005,-0.059,-0.063,0.029,0.034,-0.063,-0.024,-0.005,-0.093,0.02,-0.054,-0.034
1.058,0.0,-0.068,-0.068,0.034,0.034,-0.068,-0.034,-0.01,-0.102,0.015,-0.054,-0.039
1.06,-0.005,-0.078,-0.073,0.044,0.034,-0.078,-0.034,-0.005,-0.102,0.01,-0.059,-0.039
1.062,-0.01,-0.088,-0.078,0.049,0.034,-0.083,-0.039,-0.015,-0.107,0.0,-0.063,-0.044
1.064,-0.005,-0.093,-0.088,0.049,0.039,-0.093,-0.034,-0.015,-0.112,0.005,-0.063,-0.049
1.066,0.015,-0.078,-0.093,0.034,0.054,-0.088,-0.039,-0.01,-0.107,0.0,-0.059,-0.044
1.068,0.02,-0.078,-0.098,0.029,0.059,-0.088,-0.034,-0.015,-0.107,0.005,-0.054,-0.044
1.07,0.01,-0.054,-0.063,0.024,0.034,-0.059,-0.01,0.0,-0.083,0.029,-0.039,-0.024
1.072,0.005,-0.059,-0.063,0.029,0.034,-0.063,-0.01,0.005,-0.088,0.034,-0.039,-0.02
1.074,0.01,-0.063,-0.073,0.029,0.039,-0.068,-0.015,-0.005,-0.098,0.024,-0.044,-0.024
1.076,-0.01,-0.073,-0.063,0.044,0.024,-0.068,-0.024,-0.015,-0.102,0.02,-0.054,-0.034
1.078,-0.01,-0.068,-0.059,0.039,0.024,-0.063,-0.02,-0.005,-0.107,0.02,-0.049,-0.034
1.08,0.0,-0.063,-0.063,0.034,0.029,-0.063,-0.02,0.0,-0.107,0.02,-0.044,-0.024
1.082,-0.02,-0.083,-0.063,0.054,0.02,-0.073,-0.024,0.0,-0.112,0.02,-0.049,-0.029
1.084,-0.039,-0.098,-0.059,0.068,0.01,-0.078,-0.029,-0.015,-0.117,0.005,-0.059,-0.044
1.086,-0.039,-0.098,-0.059,0.068,0.01,-0.078,-0.029,-0.01,-0.117,0.0,-0.059,-0.044
1.088,-0.02,-0.093,-0.073,0.059,0.024,-0.083,-0.024,-0.01,-0.117,0.0,-0.054,-0.044
1.09,-0.015,-0.078,-0.063,0.049,0.024,-0.073,-0.015,-0.005,-0.107,0.01,-0.049,-0.039
1.092,-0.005,-0.073,-0.068,0.039,0.029,-0.073,-0.01,-0.005,-0.107,0.01,-0.049,-0.029
1.094,-0.02,-0.073,-0.054,0.049,0.015,-0.063,-0.015,-0.005,-0.107,0.02,-0.054,-0.024
1.096,-0.015,-0.073,-0.059,0.044,0.02,-0.068,-0.024,-0.015,-0.117,0.01,-0.059,-0.034
1.098,-0.01,-0.068,-0.059,0.039,0.024,-0.063,-0.01,-0.005,-0.112,0.02,-0.049,-0.024
1.1,-0.005,-0.063,-0.059,0.034,0.024,-0.063,-0.015,0.0,-0.117,0.02,-0.054,-0.029
1.102,-0.02,-0.068,-0.049,0.044,0.015,-0.059,-0.015,0.0,-0.117,0.02,-0.049,-0.029
1.104,-0.024,-0.068,-0.044,0.049,0.01,-0.059,-0.01,0.005,-0.112,0.02,-0.049,-0.029
1.106,-0.02,-0.073,-0.054,0.049,0.015,-0.063,-0.005,0.0,-0.112,0.015,-0.054,-0.029
1.108,-0.024,-0.083,-0.059,0.054,0.015,-0.073,-0.015,0.0,-0.117,0.01,-0.054,-0.029
1.11,-0.02,-0.083,-0.063,0.054,0.02,-0.073,-0.01,-0.015,-0.117,0.005,-0.059,-0.039
1.112,-0.024,-0.083,-0.059,0.054,0.015,-0.073,-0.01,-0.015,-0.117,0.01,-0.054,-0.039
1.114,-0.024,-0.083,-0.059,0.054,0.015,-0.073,-0.005,-0.01,-0.112,0.015,-0.044,-0.029
1.116,-0.029,-0.073,-0.044,0.054,0.005,-0.059,-0.015,-0.015,-0.112,0.015,-0.049,-0.029
1.118,-0.024,-0.059,-0.034,0.044,0.005,-0.049,-0.01,-0.01,-0.112,0.029,-0.044,-0.024
1.12,-0.024,-0.063,-0.039,0.044,0.005,-0.054,-0.01,0.0,-0.122,0.02,-0.049,-0.024
1.122,-0.034,-0.063,-0.029,0.049,-0.005,-0.049,-0.01,0.0,-0.117,0.024,-0.049,-0.024
1.124,-0.029,-0.059,-0.029,0.044,0.0,-0.044,-0.005,0.0,-0.122,0.02,-0.049,-0.029
1.126,-0.034,-0.068,-0.034,0.054,0.0,-0.054,-0.01,-0.005,-0.122,0.02,-0.044,-0.034
1.128,-0.039,-0.078,-0.039,0.059,0.0,-0.059,-0.005,-0.01,-0.127,0.005,-0.049,-0.034
1.13,-0.044,-0.083,-0.039,0.063,-0.005,-0.063,-0.005,-0.005,-0.122,0.015,-0.049,-0.029
1.132,-0.049,-0.083,-0.034,0.068,-0.01,-0.059,-0.005,-0.015,-0.127,0.01,-0.049,-0.039
1.134,-0.054,-0.083,-0.029,0.068,-0.015,-0.059,0.0,-0.01,-0.117,0.01,-0.044,-0.029
1.136,-0.034,-0.068,-0.034,0.054,0.0,-0.054,-0.01,-0.01,-0.117,0.015,-0.044,-0.029
1.138,-0.015,-0.044,-0.029,0.029,0.005,-0.039,-0.005,-0.01,-0.122,0.015,-0.044,-0.029
1.14,-0.015,-0.044,-0.029,0.029,0.005,-0.039,-0.005,0.005,-0.122,0.015,-0.039,-0.02
1.142,-0.049,-0.068,-0.02,0.059,-0.015,-0.044,0.005,0.005,-0.122,0.01,-0.044,-0.024
1.144,-0.054,-0.073,-0.02,0.063,-0.02,-0.049,0.0,0.005,-0.122,0.01,-0.049,-0.029
1.146,-0.029,-0.059,-0.029,0.044,0.0,-0.044,0.005,0.005,-0.117,0.015,-0.044,-0.024
1.148,-0.01,-0.039,-0.029,0.024,0.01,-0.034,0.015,0.015,-0.117,0.024,-0.039,-0.02
1.15,-0.024,-0.049,-0.024,0.039,0.0,-0.039,0.01,0.005,-0.117,0.02,-0.039,-0.02
1.152,-0.049,-0.073,-0.024,0.063,-0.015,-0.049,0.005,0.0,-0.117,0.015,-0.044,-0.029
1.154,-0.059,-0.073,-0.015,0.068,-0.024,-0.044,0.01,0.0,-0.117,0.015,-0.044,-0.024
1.156,-0.034,-0.049,-0.015,0.044,-0.01,-0.034,0.015,0.005,-0.107,0.015,-0.034,-0.015
1.158,-0.034,-0.049,-0.015,0.044,-0.01,-0.034,-0.005,0.0,-0.127,0.0,-0.044,-0.024
1.16,-0.049,-0.054,-0.005,0.054,-0.024,-0.029,-0.005,0.005,-0.127,0.005,-0.044,-0.02
1.162,-0.068,-0.068,0.0,0.068,-0.034,-0.034,0.0,0.01,-0.122,0.005,-0.034,-0.015
1.164,-0.063,-0.068,-0.005,0.068,-0.029,-0.039,0.005,0.005,-0.127,0.005,-0.039,-0.024
1.166,-0.049,-0.068,-0.02,0.059,-0.015,-0.044,0.005,0.015,-0.127,0.005,-0.039,-0.02
1.168,-0.044,-0.059,-0.015,0.054,-0.015,-0.039,0.01,0.02,-0.127,0.005,-0.034,-0.02
1.17,-0.054,-0.054,0.0,0.054,-0.029,-0.029,0.02,0.015,-0.117,0.015,-0.034,-0.015
1.172,-0.049,-0.054,-0.005,0.054,-0.024,-0.029,0.02,0.015,-0.117,0.015,-0.024,-0.015
1.174,-0.049,-0.063,-0.015,0.059,-0.02,-0.039,0.015,0.005,-0.127,0.0,-0.029,-0.02
1.176,-0.049,-0.049,0.0,0.049,-0.024,-0.024,0.01,0.0,-0.132,-0.005,-0.029,-0.02
1.178,-0.044,-0.049,-0.005,0.049,-0.02,-0.029,0.015,0.01,-0.127,-0.005,-0.029,-0.015
1.18,-0.039,-0.054,-0.015,0.049,-0.015,-0.034,0.005,0.01,-0.137,-0.01,-0.034,-0.02
1.182,-0.044,-0.054,-0.01,0.049,-0.02,-0.034,0.015,0.01,-0.132,-0.005,-0.034,-0.02
1.184,-0.063,-0.063,0.0,0.063,-0.034,-0.034,0.005,0.01,-0.132,-0.01,-0.039,-0.024
1.186,-0.054,-0.059,-0.005,0.059,-0.024,-0.034,0.015,0.01,-0.132,-0.01,-0.029,-0.024
1.188,-0.049,-0.049,0.0,0.049,-0.024,-0.024,0.015,0.015,-0.127,-0.005,-0.029,-0.015
1.19,-0.054,-0.059,-0.005,0.059,-0.024,-0.034,0.02,0.01,-0.127,-0.005,-0.034,-0.02
1.192,-0.044,-0.054,-0.01,0.049,-0.02,-0.034,0.02,0.015,-0.127,-0.01,-0.029,-0.02
1.194,-0.059,-0.063,-0.005,0.063,-0.029,-0.034,0.015,0.01,-0.122,0.0,-0.029,-0.02
1.196,-0.068,-0.063,0.005,0.068,-0.039,-0.029,0.01,0.005,-0.132,-0.015,-0.034,-0.024
1.198,-0.049,-0.049,0.0,0.049,-0.024,-0.024,0.015,0.005,-0.132,-0.02,-0.034,-0.024
1.2,-0.049,-0.044,0.005,0.049,-0.029,-0.02,0.01,0.005,-0.132,-0.015,-0.029,-0.02
1.202,-0.068,-0.068,0.0,0.068,-0.034,-0.034,0.005,0.0,-0.137,-0.02,-0.039,-0.024
1.204,-0.044,-0.063,-0.02,0.054,-0.015,-0.044,0.01,0.0,-0.137,-0.024,-0.039,-0.029
1.206,-0.029,-0.059,-0.029,0.044,0.0,-0.044,0.01,0.005,-0.142,-0.029,-0.034,-0.029
1.208,-0.029,-0.039,-0.01,0.034,-0.01,-0.024,0.015,0.005,-0.137,-0.029,-0.029,-0.02
1.21,-0.039,-0.054,-0.015,0.049,-0.015,-0.034,0.02,0.005,-0.132,-0.015,-0.024,-0.02
1.212,-0.049,-0.068,-0.02,0.059,-0.015,-0.044,0.015,0.005,-0.132,-0.02,-0.029,-0.02
1.214,-0.029,-0.063,-0.034,0.049,0.0,-0.049,0.015,0.005,-0.137,-0.015,-0.024,-0.015
1.216,-0.029,-0.049,-0.02,0.039,-0.005,-0.034,0.015,0.005,-0.137,-0.015,-0.024,-0.015
1.218,-0.029,-0.044,-0.015,0.039,-0.01,-0.029,0.02,0.01,-0.132,-0.005,-0.02,-0.015
1.22,-0.024,-0.034,-0.01,0.029,-0.01,-0.024,0.024,0.015,-0.132,-0.005,-0.024,-0.01
1.222,-0.024,-0.044,-0.02,0.034,-0.005,-0.034,0.01,0.005,-0.142,-0.005,-0.039,-0.02
1.224,-0.029,-0.039,-0.01,0.034,-0.01,-0.024,0.01,0.005,-0.146,-0.005,-0.034,-0.024
1.226,-0.034,-0.049,-0.015,0.044,-0.01,-0.034,0.015,0.01,-0.146,-0.005,-0.034,-0.024
1.228,-0.034,-0.054,-0.02,0.044,-0.01,-0.039,0.015,0.005,-0.142,0.005,-0.034,-0.02
1.23,-0.039,-0.054,-0.015,0.049,-0.015,-0.034,0.024,0.01,-0.132,0.01,-0.029,-0.02
1.232,-0.024,-0.049,-0.024,0.039,0.0,-0.039,0.024,0.01,-0.132,0.015,-0.029,-0.02
1.234,-0.02,-0.039,-0.02,0.029,0.0,-0.029,0.02,0.01,-0.137,0.024,-0.029,-0.015
1.236,-0.029,-0.029,0.0,0.029,-0.015,-0.015,0.024,0.015,-0.132,0.034,-0.024,-0.01
1.238,-0.024,-0.034,-0.01,0.029,-0.01,-0.024,0.029,0.015,-0.132,0.034,-0.024,-0.01
1.24,-0.029,-0.029,0.0,0.029,-0.015,-0.015,0.024,0.015,-0.137,0.039,-0.024,-0.01
1.242,-0.044,-0.044,0.0,0.044,-0.024,-0.024,0.02,0.02,-0.142,0.039,-0.029,-0.01
1.244,-0.054,-0.049,0.005,0.054,-0.029,-0.024,0.024,0.015,-0.146,0.034,-0.029,-0.015
1.246,-0.049,-0.044,0.005,0.049,-0.029,-0.02,0.029,0.02,-0.142,0.044,-0.024,-0.01
1.248,-0.049,-0.044,0.005,0.049,-0.029,-0.02,0.02,0.01,-0.146,0.039,-0.029,-0.015
1.25,-0.044,-0.049,-0.005,0.049,-0.02,-0.029,0.02,0.01,-0.137,0.039,-0.029,-0.02
1.252,-0.024,-0.034,-0.01,0.029,-0.01,-0.024,0.02,0.01,-0.137,0.044,-0.029,-0.01
1.254,-0.034,-0.039,-0.005,0.039,-0.015,-0.024,0.02,0.01,-0.142,0.044,-0.024,-0.015
1.256,-0.049,-0.024,0.024,0.039,-0.039,0.0,0.024,0.015,-0.137,0.049,-0.02,0.0
1.258,-0.049,-0.024,0.024,0.039,-0.039,0.0,0.024,0.015,-0.137,0.054,-0.015,0.0
1.26,-0.054,-0.044,0.01,0.049,-0.034,-0.02,0.015,0.015,-0.146,0.044,-0.024,-0.01
1.262,-0.054,-0.054,0.0,0.054,-0.029,-0.029,0.015,0.015,-0.156,0.049,-0.024,-0.015
1.264,-0.073,-0.063,0.01,0.068,-0.044,-0.029,0.015,0.01,-0.151,0.039,-0.029,-0.015
1.266,-0.073,-0.054,0.02,0.063,-0.049,-0.02,0.029,0.015,-0.142,0.049,-0.02,-0.01
1.268,-0.054,-0.029,0.024,0.044,-0.039,-0.005,0.029,0.02,-0.137,0.059,-0.02,-0.005
1.27,-0.059,-0.039,0.02,0.049,-0.039,-0.01,0.029,0.01,-0.137,0.059,-0.02,-0.01
1.272,-0.049,-0.029,0.02,0.039,-0.034,-0.005,0.024,0.015,-0.137,0.068,-0.015,-0.01
1.274,-0.044,-0.029,0.015,0.039,-0.029,-0.01,0.015,0.01,-0.142,0.068,-0.02,-0.01
1.276,-0.049,-0.024,0.024,0.039,-0.039,0.0,0.02,0.01,-0.146,0.068,-0.02,-0.005
1.278,-0.049,-0.029,0.02,0.039,-0.034,-0.005,0.02,0.015,-0.142,0.068,-0.02,-0.005
1.28,-0.063,-0.034,0.029,0.049,-0.049,-0.005,0.02,0.02,-0.146,0.068,-0.02,-0.005
1.282,-0.054,-0.029,0.024,0.044,-0.039,-0.005,0.024,0.02,-0.146,0.068,-0.015,0.0
1.284,-0.029,-0.02,0.01,0.024,-0.02,-0.005,0.029,0.02,-0.146,0.063,-0.02,0.0
1.286,0.024,-0.024,-0.049,0.0,0.034,-0.039,0.01,0.005,-0.161,0.049,-0.034,-0.02
1.288,0.063,-0.015,-0.078,-0.024,0.068,-0.049,-0.01,-0.01,-0.176,0.029,-0.054,-0.039
1.29,0.063,-0.02,-0.083,-0.02,0.073,-0.054,-0.01,-0.02,-0.176,0.024,-0.054,-0.039
1.292,0.044,-0.039,-0.083,0.0,0.063,-0.063,-0.024,-0.029,-0.19,0.015,-0.063,-0.054
1.294,0.054,-0.039,-0.093,-0.005,0.073,-0.068,-0.02,-0.029,-0.19,0.02,-0.063,-0.054
1.296,0.073,-0.01,-0.083,-0.029,0.078,-0.049,-0.015,-0.024,-0.181,0.024,-0.054,-0.039
1.298,0.083,0.0,-0.083,-0.039,0.083,-0.044,-0.005,-0.01,-0.171,0.029,-0.049,-0.034
1.3,0.068,-0.024,-0.093,-0.02,0.078,-0.059,-0.01,-0.01,-0.181,0.029,-0.054,-0.034
1.302,0.049,-0.029,-0.078,-0.01,0.063,-0.054,-0.015,-0.015,-0.181,0.029,-0.054,-0.039
1.304,0.044,-0.029,-0.073,-0.005,0.059,-0.054,-0.01,-0.015,-0.185,0.02,-0.054,-0.039
1.306,0.054,-0.024,-0.078,-0.015,0.063,-0.054,-0.01,-0.01,-0.185,0.029,-0.054,-0.039
1.308,0.044,-0.024,-0.068,-0.01,0.054,-0.049,-0.005,-0.01,-0.181,0.029,-0.054,-0.039
1.31,0.049,-0.024,-0.073,-0.01,0.059,-0.049,-0.015,-0.02,-0.181,0.024,-0.054,-0.039
1.312,0.049,-0.034,-0.083,-0.005,0.063,-0.059,-0.015,-0.02,-0.181,0.024,-0.054,-0.044
1.314,0.039,-0.029,-0.068,-0.005,0.054,-0.049,-0.015,-0.02,-0.185,0.024,-0.049,-0.044
1.316,0.029,-0.029,-0.059,0.0,0.044,-0.044,-0.015,-0.02,-0.185,0.024,-0.049,-0.039
1.318,0.01,-0.034,-0.044,0.015,0.024,-0.039,-0.015,-0.015,-0.181,0.034,-0.044,-0.039
1.32,0.024,-0.02,-0.044,0.0,0.034,-0.034,-0.01,-0.01,-0.181,0.034,-0.044,-0.039
1.322,0.034,-0.015,-0.049,-0.01,0.039,-0.034,-0.01,-0.01,-0.181,0.034,-0.039,-0.034
1.324,0.034,-0.005,-0.039,-0.015,0.034,-0.024,-0.005,-0.01,-0.181,0.034,-0.044,-0.034
1.326,0.039,-0.005,-0.044,-0.015,0.039,-0.024,0.0,-0.005,-0.176,0.039,-0.039,-0.029
1.328,0.039,-0.01,-0.049,-0.015,0.044,-0.029,0.0,-0.005,-0.176,0.034,-0.039,-0.029
1.33,0.054,0.015,-0.039,-0.034,0.044,-0.015,0.01,0.0,-0.161,0.049,-0.029,-0.02
1.332,0.034,-0.005,-0.039,-0.015,0.034,-0.024,0.0,0.0,-0.166,0.044,-0.029,-0.024
1.334,0.02,-0.02,-0.039,0.0,0.029,-0.029,-0.005,-0.015,-0.185,0.034,-0.044,-0.034
1.336,0.029,-0.015,-0.044,-0.005,0.034,-0.029,-0.005,-0.02,-0.19,0.034,-0.044,-0.034
1.338,0.015,-0.024,-0.039,0.005,0.024,-0.034,-0.01,-0.02,-0.195,0.034,-0.049,-0.039
1.34,0.005,-0.034,-0.039,0.015,0.02,-0.039,-0.01,-0.024,-0.195,0.034,-0.049,-0.039
1.342,0.024,-0.01,-0.034,-0.005,0.029,-0.024,-0.005,-0.015,-0.19,0.039,-0.039,-0.029
1.344,0.02,-0.01,-0.029,-0.005,0.024,-0.02,-0.01,-0.015,-0.185,0.044,-0.044,-0.034
1.346,0.015,-0.01,-0.024,0.0,0.02,-0.02,0.0,-0.01,-0.185,0.049,-0.039,-0.029
1.348,0.024,0.005,-0.02,-0.015,0.02,-0.01,0.005,-0.01,-0.181,0.049,-0.034,-0.024
1.35,0.029,0.005,-0.024,-0.015,0.024,-0.01,0.005,-0.01,-0.171,0.054,-0.034,-0.02
1.352,0.02,-0.005,-0.024,-0.005,0.02,-0.015,0.005,-0.01,-0.176,0.054,-0.034,-0.024
1.354,0.02,0.0,-0.02,-0.01,0.02,-0.01,0.01,-0.005,-0.171,0.059,-0.029,-0.015
1.356,0.015,0.015,0.0,-0.015,0.005,0.005,0.01,-0.005,-0.171,0.059,-0.029,-0.02
1.358,0.02,0.024,0.005,-0.02,0.005,0.015,0.015,0.005,-0.166,0.068,-0.024,-0.015
1.36,0.024,0.039,0.015,-0.029,0.005,0.024,0.015,0.01,-0.151,0.078,-0.015,-0.01
1.362,0.029,0.049,0.02,-0.039,0.005,0.034,0.02,0.015,-0.151,0.088,-0.005,0.0
1.364,0.024,0.044,0.02,-0.034,0.0,0.029,0.015,0.015,-0.151,0.093,-0.01,-0.005
1.366,0.01,0.039,0.029,-0.024,-0.01,0.034,0.02,0.02,-0.146,0.098,-0.01,0.0
1.368,0.01,0.049,0.039,-0.029,-0.015,0.044,0.024,0.02,-0.146,0.098,-0.015,0.005
1.37,0.005,0.049,0.044,-0.024,-0.02,0.044,0.02,0.015,-0.146,0.098,-0.015,0.0
1.372,0.015,0.063,0.049,-0.039,-0.02,0.054,0.029,0.024,-0.137,0.117,0.0,0.005
1.374,0.024,0.078,0.054,-0.049,-0.015,0.063,0.034,0.029,-0.132,0.127,0.0,0.015
1.376,0.024,0.068,0.044,-0.044,-0.01,0.054,0.029,0.024,-0.137,0.122,-0.005,0.01
1.378,0.034,0.088,0.054,-0.059,-0.01,0.068,0.039,0.034,-0.127,0.132,0.0,0.01
1.38,0.024,0.088,0.063,-0.054,-0.02,0.073,0.034,0.034,-0.132,0.127,0.005,0.01
1.382,-0.01,0.054,0.063,-0.02,-0.039,0.059,0.02,0.02,-0.151,0.117,-0.01,-0.005
1.384,-0.015,0.068,0.083,-0.024,-0.049,0.073,0.029,0.034,-0.137,0.122,0.0,0.005
1.386,-0.01,0.068,0.078,-0.029,-0.044,0.073,0.024,0.029,-0.137,0.127,0.0,0.005
1.388,-0.005,0.078,0.083,-0.034,-0.044,0.078,0.024,0.024,-0.132,0.127,0.0,0.005
1.39,-0.005,0.078,0.083,-0.034,-0.044,0.078,0.024,0.029,-0.127,0.127,0.0,0.005
1.392,-0.015,0.073,0.088,-0.029,-0.054,0.078,0.029,0.029,-0.127,0.122,0.0,0.005
1.394,-0.01,0.073,0.083,-0.029,-0.049,0.078,0.024,0.02,-0.132,0.127,0.005,0.005
1.396,-0.015,0.078,0.093,-0.029,-0.054,0.083,0.015,0.005,-0.142,0.122,0.0,0.01
1.398,-0.015,0.078,0.093,-0.029,-0.054,0.083,0.02,0.0,-0.151,0.112,-0.005,0.005
1.4,-0.01,0.073,0.083,-0.029,-0.049,0.078,0.01,-0.005,-0.156,0.112,-0.005,0.005
1.402,-0.015,0.078,0.093,-0.029,-0.054,0.083,0.005,-0.015,-0.161,0.102,-0.01,0.005
1.404,-0.015,0.093,0.107,-0.039,-0.063,0.098,0.005,-0.02,-0.161,0.098,-0.01,0.01
1.406,0.015,0.102,0.088,-0.059,-0.039,0.093,-0.01,-0.024,-0.161,0.093,-0.005,0.01
1.408,0.034,0.107,0.073,-0.068,-0.02,0.088,-0.029,-0.039,-0.171,0.093,-0.005,0.005
1.41,0.039,0.098,0.059,-0.068,-0.01,0.078,-0.029,-0.039,-0.166,0.093,-0.005,0.01
1.412,0.049,0.088,0.039,-0.068,0.005,0.063,-0.034,-0.039,-0.171,0.088,-0.01,0.01
1.414,0.063,0.102,0.039,-0.083,0.01,0.068,-0.039,-0.044,-0.176,0.088,-0.005,0.005
1.416,0.083,0.117,0.034,-0.098,0.024,0.073,-0.039,-0.044,-0.176,0.088,-0.005,0.015
1.418,0.073,0.102,0.029,-0.088,0.02,0.063,-0.049,-0.054,-0.19,0.068,-0.02,0.005
1.42,0.078,0.107,0.029,-0.093,0.024,0.068,-0.049,-0.063,-0.2,0.068,-0.02,0.01
1.422,0.093,0.112,0.02,-0.102,0.034,0.063,-0.049,-0.054,-0.2,0.068,-0.02,0.015
1.424,0.093,0.098,0.005,-0.093,0.044,0.049,-0.044,-0.049,-0.205,0.068,-0.024,0.01
1.426,0.093,0.088,-0.005,-0.088,0.049,0.039,-0.039,-0.034,-0.195,0.078,-0.015,0.015
1.428,0.098,0.098,0.0,-0.098,0.049,0.049,-0.044,-0.034,-0.195,0.078,-0.015,0.015
1.43,0.073,0.073,0.0,-0.073,0.034,0.034,-0.054,-0.044,-0.195,0.073,-0.02,0.005
1.432,0.073,0.073,0.0,-0.073,0.034,0.034,-0.044,-0.044,-0.19,0.068,-0.024,0.005
1.434,0.068,0.054,-0.015,-0.059,0.039,0.02,-0.049,-0.049,-0.2,0.068,-0.029,-0.005
1.436,0.068,0.049,-0.02,-0.059,0.044,0.015,-0.049,-0.054,-0.21,0.059,-0.039,-0.01
1.438,0.068,0.039,-0.029,-0.054,0.049,0.005,-0.044,-0.044,-0.215,0.059,-0.044,-0.01
1.44,0.068,0.034,-0.034,-0.049,0.049,0.0,-0.044,-0.049,-0.215,0.049,-0.049,-0.015
1.442,0.073,0.044,-0.029,-0.059,0.049,0.005,-0.049,-0.049,-0.224,0.049,-0.049,-0.015
1.444,0.059,0.044,-0.015,-0.049,0.034,0.015,-0.039,-0.044,-0.215,0.049,-0.049,-0.01
1.446,0.049,0.044,-0.005,-0.044,0.024,0.02,-0.044,-0.044,-0.224,0.039,-0.054,-0.02
1.448,0.054,0.044,-0.01,-0.049,0.029,0.015,-0.034,-0.049,-0.215,0.034,-0.054,-0.02
1.45,0.044,0.034,-0.01,-0.039,0.024,0.01,-0.039,-0.044,-0.22,0.034,-0.059,-0.024
1.452,0.034,0.01,-0.024,-0.02,0.029,-0.01,-0.044,-0.044,-0.224,0.029,-0.063,-0.034
1.454,0.034,0.0,-0.034,-0.015,0.034,-0.02,-0.049,-0.044,-0.22,0.024,-0.068,-0.039
1.456,0.039,0.005,-0.034,-0.02,0.034,-0.015,-0.049,-0.049,-0.229,0.015,-0.073,-0.049
1.458,0.049,0.015,-0.034,-0.029,0.039,-0.01,-0.044,-0.044,-0.229,0.015,-0.073,-0.044
1.46,0.054,0.02,-0.034,-0.034,0.044,-0.01,-0.044,-0.049,-0.229,0.015,-0.073,-0.044
1.462,0.034,0.01,-0.024,-0.02,0.029,-0.01,-0.054,-0.049,-0.239,0.005,-0.078,-0.049
1.464,0.024,-0.005,-0.029,-0.01,0.024,-0.02,-0.049,-0.039,-0.234,0.01,-0.078,-0.049
1.466,0.01,-0.024,-0.034,0.01,0.02,-0.029,-0.054,-0.044,-0.239,-0.005,-0.088,-0.059
1.468,0.015,-0.024,-0.039,0.005,0.024,-0.034,-0.054,-0.049,-0.239,-0.01,-0.093,-0.059
1.47,0.015,-0.024,-0.039,0.005,0.024,-0.034,-0.059,-0.049,-0.239,-0.01,-0.093,-0.059
1.472,0.015,-0.015,-0.029,0.0,0.02,-0.024,-0.063,-0.054,-0.234,-0.005,-0.093,-0.059
1.474,0.029,-0.005,-0.034,-0.01,0.029,-0.02,-0.063,-0.059,-0.239,-0.005,-0.093,-0.063
1.476,0.01,-0.024,-0.034,0.01,0.02,-0.029,-0.068,-0.059,-0.244,-0.005,-0.093,-0.068
1.478,0.01,-0.02,-0.029,0.005,0.02,-0.024,-0.059,-0.049,-0.239,0.0,-0.088,-0.068
1.48,0.015,-0.02,-0.034,0.005,0.024,-0.029,-0.063,-0.054,-0.234,0.0,-0.088,-0.068
1.482,0.02,-0.015,-0.034,0.0,0.024,-0.024,-0.063,-0.044,-0.234,0.01,-0.083,-0.059
1.484,0.039,0.005,-0.034,-0.02,0.034,-0.015,-0.054,-0.029,-0.22,0.015,-0.078,-0.049
1.486,0.0,-0.024,-0.024,0.015,0.01,-0.024,-0.054,-0.034,-0.224,0.01,-0.088,-0.054
1.488,-0.024,-0.049,-0.024,0.039,0.0,-0.039,-0.063,-0.049,-0.234,-0.005,-0.098,-0.068
1.49,-0.015,-0.034,-0.02,0.024,0.0,-0.029,-0.063,-0.044,-0.229,0.0,-0.093,-0.063
1.492,-0.005,-0.024,-0.02,0.015,0.005,-0.024,-0.054,-0.034,-0.22,0.0,-0.088,-0.059
1.494,-0.01,-0.029,-0.02,0.02,0.005,-0.024,-0.063,-0.044,-0.224,0.005,-0.093,-0.063
1.496,0.0,-0.02,-0.02,0.01,0.01,-0.02,-0.059,-0.039,-0.22,0.01,-0.088,-0.059
1.498,0.0,-0.015,-0.015,0.01,0.005,-0.015,-0.054,-0.029,-0.215,0.015,-0.083,-0.054
1.5,-0.01,-0.029,-0.02,0.02,0.005,-0.024,-0.059,-0.039,-0.229,0.005,-0.093,-0.059
1.502,-0.015,-0.034,-0.02,0.024,0.0,-0.029,-0.073,-0.039,-0.224,0.0,-0.102,-0.059
1.504,-0.01,-0.024,-0.015,0.02,0.0,-0.02,-0.068,-0.034,-0.215,0.01,-0.093,-0.054
1.506,-0.01,-0.029,-0.02,0.02,0.005,-0.024,-0.068,-0.039,-0.215,0.01,-0.098,-0.059
1.508,-0.005,-0.024,-0.02,0.015,0.005,-0.024,-0.059,-0.034,-0.21,0.015,-0.088,-0.054
1.51,0.0,-0.015,-0.015,0.01,0.005,-0.015,-0.059,-0.029,-0.195,0.024,-0.083,-0.044
1.512,-0.005,-0.02,-0.015,0.015,0.005,-0.02,-0.059,-0.029,-0.2,0.024,-0.088,-0.049
1.514,0.005,-0.01,-0.015,0.005,0.01,-0.015,-0.059,-0.034,-0.2,0.024,-0.083,-0.044
1.516,0.01,0.0,-0.01,-0.005,0.01,-0.005,-0.059,-0.034,-0.195,0.029,-0.078,-0.039
1.518,0.0,-0.015,-0.015,0.01,0.005,-0.015,-0.068,-0.024,-0.195,0.024,-0.078,-0.044
1.52,0.01,-0.015,-0.024,0.005,0.015,-0.02,-0.068,-0.029,-0.19,0.029,-0.083,-0.049
1.522,0.015,-0.01,-0.024,0.0,0.02,-0.02,-0.068,-0.024,-0.185,0.029,-0.083,-0.049
1.524,0.0,-0.024,-0.024,0.015,0.01,-0.024,-0.073,-0.02,-0.19,0.024,-0.088,-0.059
1.526,-0.01,-0.044,-0.034,0.029,0.01,-0.039,-0.063,-0.005,-0.19,0.015,-0.102,-0.073
1.528,-0.02,-0.063,-0.044,0.044,0.01,-0.054,-0.059,0.024,-0.185,0.005,-0.117,-0.088
1.53,-0.015,-0.102,-0.088,0.059,0.034,-0.098,-0.039,0.073,-0.19,-0.034,-0.161,-0.127
1.532,-0.01,-0.161,-0.151,0.088,0.068,-0.156,-0.005,0.176,-0.19,-0.098,-0.239,-0.185
1.534,0.01,-0.239,-0.249,0.117,0.127,-0.244,0.054,0.342,-0.19,-0.19,-0.351,-0.283
1.536,0.015,-0.312,-0.327,0.151,0.171,-0.322,0.102,0.508,-0.171,-0.268,-0.454,-0.381
1.538,0.034,-0.39,-0.425,0.181,0.229,-0.41,0.142,0.669,-0.142,-0.322,-0.522,-0.444
1.54,0.054,-0.449,-0.503,0.2,0.278,-0.478,0.185,0.834,-0.093,-0.351,-0.561,-0.488
1.542,0.093,-0.464,-0.556,0.185,0.322,-0.512,0.22,0.996,-0.015,-0.327,-0.542,-0.483
1.544,0.122,-0.42,-0.542,0.151,0.332,-0.483,0.259,1.132,0.127,-0.22,-0.454,-0.42
1.546,0.137,-0.366,-0.503,0.117,0.317,-0.434,0.298,1.283,0.283,-0.063,-0.327,-0.342
1.548,0.151,-0.268,-0.42,0.059,0.283,-0.346,0.356,1.484,0.493,0.171,-0.127,-0.2
1.55,0.171,-0.098,-0.268,-0.034,0.22,-0.185,0.405,1.679,0.771,0.547,0.215,0.044
1.552,0.19,0.142,-0.049,-0.166,0.117,0.044,0.439,1.801,1.103,1.064,0.703,0.395
1.554,0.185,0.366,0.181,-0.273,0.0,0.273,0.42,1.703,1.381,1.596,1.196,0.766
1.556,0.185,0.649,0.464,-0.415,-0.142,0.556,0.332,1.279,1.576,2.098,1.718,1.152
1.558,0.205,0.947,0.742,-0.576,-0.268,0.844,0.234,0.776,1.767,2.621,2.211,1.527
1.56,0.224,1.147,0.922,-0.683,-0.351,1.035,0.132,0.395,1.893,3.03,2.591,1.845
1.562,0.229,1.196,0.966,-0.712,-0.371,1.078,0.098,0.234,1.976,3.245,2.777,2.025
1.564,0.224,1.142,0.917,-0.683,-0.346,1.03,0.093,0.132,2.006,3.265,2.772,2.069
1.566,0.239,1.059,0.82,-0.649,-0.293,0.937,0.034,-0.02,1.889,3.099,2.63,2.035
1.568,0.224,0.947,0.722,-0.586,-0.249,0.834,-0.039,-0.288,1.532,2.655,2.294,1.884
1.57,0.151,0.903,0.752,-0.527,-0.303,0.825,-0.098,-0.669,0.976,1.972,1.825,1.664
1.572,0.078,0.878,0.8,-0.478,-0.361,0.839,-0.127,-0.937,0.517,1.308,1.318,1.396
1.574,0.034,0.869,0.834,-0.449,-0.4,0.849,-0.161,-1.113,0.2,0.825,0.927,1.161
1.576,-0.015,0.776,0.791,-0.381,-0.405,0.781,-0.234,-1.279,-0.298,0.254,0.537,0.903
1.578,-0.039,0.644,0.683,-0.303,-0.361,0.664,-0.307,-1.362,-0.722,-0.166,0.229,0.649
1.58,-0.039,0.522,0.561,-0.239,-0.303,0.542,-0.361,-1.376,-0.922,-0.337,0.039,0.454
1.582,-0.068,0.395,0.464,-0.161,-0.268,0.429,-0.381,-1.366,-1.015,-0.425,-0.107,0.273
1.584,-0.054,0.307,0.361,-0.127,-0.21,0.332,-0.4,-1.322,-1.025,-0.459,-0.21,0.137
1.586,-0.044,0.254,0.298,-0.102,-0.171,0.273,-0.425,-1.249,-0.981,-0.444,-0.234,0.083
1.588,-0.029,0.224,0.254,-0.098,-0.142,0.239,-0.459,-1.157,-0.917,-0.415,-0.229,0.044
1.59,-0.02,0.166,0.185,-0.073,-0.102,0.176,-0.459,-1.049,-0.878,-0.42,-0.259,-0.005
1.592,-0.015,0.098,0.112,-0.039,-0.063,0.102,-0.444,-0.917,-0.859,-0.449,-0.307,-0.059
1.594,0.005,0.078,0.073,-0.039,-0.034,0.073,-0.434,-0.83,-0.825,-0.454,-0.327,-0.093
1.596,0.029,0.098,0.068,-0.063,-0.02,0.083,-0.425,-0.771,-0.791,-0.444,-0.322,-0.102
1.598,0.024,0.098,0.073,-0.059,-0.024,0.083,-0.405,-0.678,-0.732,-0.405,-0.307,-0.107
1.6,0.02,0.102,0.083,-0.059,-0.034,0.093,-0.371,-0.571,-0.649,-0.356,-0.283,-0.098
1.602,0.024,0.117,0.093,-0.068,-0.034,0.102,-0.317,-0.434,-0.527,-0.273,-0.229,-0.078
1.604,0.015,0.107,0.093,-0.059,-0.039,0.098,-0.273,-0.312,-0.42,-0.205,-0.185,-0.059
1.606,0.024,0.107,0.083,-0.063,-0.029,0.093,-0.234,-0.234,-0.342,-0.156,-0.156,-0.049
1.608,0.02,0.093,0.073,-0.054,-0.029,0.083,-0.215,-0.2,-0.298,-0.127,-0.137,-0.054
1.61,0.024,0.083,0.059,-0.054,-0.02,0.068,-0.2,-0.166,-0.249,-0.098,-0.117,-0.049
1.612,0.034,0.078,0.044,-0.054,-0.005,0.059,-0.181,-0.122,-0.2,-0.063,-0.093,-0.029
1.614,0.054,0.063,0.01,-0.059,0.02,0.034,-0.171,-0.088,-0.171,-0.039,-0.083,-0.02
1.616,0.059,0.054,-0.005,-0.054,0.029,0.024,-0.171,-0.068,-0.161,-0.034,-0.078,-0.029
1.618,0.063,0.049,-0.015,-0.054,0.039,0.015,-0.166,-0.039,-0.151,-0.015,-0.078,-0.02
1.62,0.068,0.049,-0.02,-0.059,0.044,0.015,-0.161,-0.024,-0.142,-0.024,-0.083,-0.015
1.622,0.054,0.034,-0.02,-0.044,0.034,0.005,-0.151,0.0,-0.132,-0.02,-0.078,-0.02
1.624,0.044,0.02,-0.024,-0.029,0.034,-0.005,-0.151,0.01,-0.117,-0.02,-0.088,-0.02
1.626,0.059,0.015,-0.044,-0.034,0.049,-0.015,-0.146,0.02,-0.112,-0.02,-0.088,-0.029
1.628,0.073,0.02,-0.054,-0.044,0.063,-0.02,-0.142,0.02,-0.102,-0.02,-0.083,-0.029
1.63,0.054,0.005,-0.049,-0.029,0.049,-0.024,-0.142,0.015,-0.088,-0.01,-0.078,-0.034
1.632,0.054,0.005,-0.049,-0.029,0.049,-0.024,-0.146,0.02,-0.088,-0.005,-0.073,-0.024
1.634,0.044,-0.005,-0.049,-0.02,0.044,-0.029,-0.151,0.02,-0.088,-0.005,-0.073,-0.029
1.636,0.01,-0.034,-0.044,0.015,0.024,-0.039,-0.166,0.01,-0.098,-0.01,-0.078,-0.039
1.638,-0.015,-0.049,-0.034,0.034,0.01,-0.044,-0.171,0.024,-0.098,-0.01,-0.078,-0.039
1.64,-0.005,-0.039,-0.034,0.024,0.015,-0.039,-0.166,0.044,-0.102,-0.01,-0.083,-0.034
1.642,0.024,-0.029,-0.054,0.005,0.039,-0.044,-0.161,0.059,-0.088,-0.005,-0.078,-0.039
1.644,0.015,-0.049,-0.063,0.02,0.039,-0.059,-0.161,0.063,-0.088,-0.01,-0.083,-0.044
1.646,0.01,-0.059,-0.068,0.024,0.039,-0.063,-0.166,0.068,-0.088,-0.01,-0.088,-0.054
1.648,0.005,-0.059,-0.063,0.029,0.034,-0.063,-0.151,0.073,-0.044,0.0,-0.073,-0.039
1.65,0.005,-0.059,-0.063,0.029,0.034,-0.063,-0.151,0.068,0.01,0.015,-0.063,-0.034
1.652,-0.005,-0.073,-0.068,0.039,0.029,-0.073,-0.161,0.059,0.029,0.015,-0.063,-0.029
1.654,0.01,-0.054,-0.063,0.024,0.034,-0.059,-0.161,0.063,0.059,0.024,-0.054,-0.029
1.656,0.01,-0.044,-0.054,0.02,0.029,-0.049,-0.171,0.063,0.078,0.029,-0.054,-0.024
1.658,0.02,-0.039,-0.059,0.01,0.039,-0.049,-0.176,0.073,0.093,0.034,-0.054,-0.024
1.66,0.024,-0.039,-0.063,0.01,0.044,-0.054,-0.171,0.088,0.107,0.029,-0.054,-0.015
1.662,0.005,-0.059,-0.063,0.029,0.034,-0.063,-0.176,0.093,0.112,0.02,-0.068,-0.039
1.664,-0.005,-0.073,-0.068,0.039,0.029,-0.073,-0.181,0.093,0.122,0.01,-0.073,-0.039
1.666,0.01,-0.068,-0.078,0.029,0.044,-0.073,-0.171,0.102,0.151,0.01,-0.073,-0.034
1.668,0.005,-0.063,-0.068,0.029,0.034,-0.068,-0.156,0.102,0.171,0.02,-0.063,-0.024
1.67,0.015,-0.044,-0.059,0.015,0.034,-0.054,-0.151,0.102,0.195,0.039,-0.044,-0.02
1.672,0.005,-0.049,-0.054,0.024,0.029,-0.054,-0.156,0.093,0.2,0.039,-0.044,-0.01
1.674,-0.02,-0.073,-0.054,0.049,0.015,-0.063,-0.176,0.078,0.19,0.029,-0.054,-0.029
1.676,-0.005,-0.059,-0.054,0.034,0.024,-0.059,-0.181,0.083,0.2,0.039,-0.049,-0.024
1.678,0.005,-0.059,-0.063,0.029,0.034,-0.063,-0.181,0.098,0.205,0.039,-0.054,-0.02
1.68,0.015,-0.054,-0.068,0.02,0.039,-0.063,-0.176,0.107,0.21,0.034,-0.059,-0.02
1.682,0.01,-0.059,-0.068,0.024,0.039,-0.063,-0.171,0.117,0.215,0.034,-0.059,-0.034
1.684,-0.01,-0.078,-0.068,0.044,0.029,-0.073,-0.166,0.122,0.229,0.029,-0.059,-0.029
1.686,0.0,-0.078,-0.078,0.039,0.039,-0.078,-0.166,0.127,0.244,0.024,-0.059,-0.029
1.688,-0.015,-0.093,-0.078,0.054,0.029,-0.088,-0.166,0.122,0.249,0.029,-0.059,-0.029
1.69,-0.024,-0.098,-0.073,0.063,0.024,-0.088,-0.166,0.112,0.264,0.034,-0.049,-0.034
1.692,-0.01,-0.073,-0.063,0.044,0.024,-0.068,-0.161,0.117,0.283,0.044,-0.044,-0.015
1.694,-0.005,-0.063,-0.059,0.034,0.024,-0.063,-0.156,0.122,0.288,0.049,-0.034,-0.01
1.696,-0.005,-0.054,-0.049,0.029,0.02,-0.054,-0.161,0.127,0.298,0.059,-0.024,0.0
1.698,0.01,-0.044,-0.054,0.02,0.029,-0.049,-0.161,0.142,0.298,0.063,-0.024,0.015
1.7,0.0,-0.063,-0.063,0.034,0.029,-0.063,-0.161,0.151,0.298,0.049,-0.034,0.01
1.702,-0.005,-0.063,-0.059,0.034,0.024,-0.063,-0.156,0.161,0.303,0.054,-0.034,0.0
1.704,0.0,-0.059,-0.059,0.029,0.029,-0.059,-0.151,0.176,0.307,0.054,-0.029,0.005
1.706,-0.005,-0.063,-0.059,0.034,0.024,-0.063,-0.151,0.176,0.317,0.049,-0.034,0.0
1.708,-0.005,-0.063,-0.059,0.034,0.024,-0.063,-0.151,0.171,0.322,0.049,-0.039,0.0
1.71,0.0,-0.068,-0.068,0.034,0.034,-0.068,-0.151,0.161,0.332,0.054,-0.034,-0.005
1.712,-0.005,-0.068,-0.063,0.039,0.029,-0.068,-0.151,0.161,0.342,0.068,-0.024,0.015
1.714,-0.005,-0.063,-0.059,0.034,0.024,-0.063,-0.156,0.161,0.337,0.068,-0.024,0.01
1.716,-0.005,-0.063,-0.059,0.034,0.024,-0.063,-0.161,0.161,0.337,0.083,-0.02,0.01
1.718,0.0,-0.059,-0.059,0.029,0.029,-0.059,-0.151,0.19,0.346,0.093,0.0,0.029
1.72,0.02,-0.039,-0.059,0.01,0.039,-0.049,-0.156,0.2,0.342,0.083,-0.01,0.024
1.722,0.01,-0.039,-0.049,0.015,0.029,-0.044,-0.151,0.215,0.351,0.088,-0.005,0.024
1.724,-0.01,-0.059,-0.049,0.034,0.02,-0.054,-0.156,0.21,0.356,0.078,-0.01,0.02
1.726,-0.005,-0.059,-0.054,0.034,0.024,-0.059,-0.151,0.215,0.371,0.078,-0.005,0.02
1.728,0.01,-0.049,-0.059,0.02,0.034,-0.054,-0.146,0.205,0.376,0.083,-0.01,0.015
1.73,-0.005,-0.059,-0.054,0.034,0.024,-0.059,-0.142,0.21,0.39,0.098,0.005,0.024
1.732,-0.01,-0.068,-0.059,0.039,0.024,-0.063,-0.151,0.2,0.386,0.093,0.005,0.029
1.734,0.015,-0.034,-0.049,0.01,0.029,-0.044,-0.151,0.205,0.395,0.102,0.02,0.034
1.736,0.029,-0.024,-0.054,0.0,0.039,-0.039,-0.146,0.215,0.405,0.107,0.02,0.044
1.738,0.02,-0.034,-0.054,0.01,0.034,-0.044,-0.156,0.224,0.4,0.107,0.024,0.049
1.74,0.029,-0.024,-0.054,0.0,0.039,-0.039,-0.151,0.244,0.4,0.102,0.02,0.049
1.742,0.01,-0.049,-0.059,0.02,0.034,-0.054,-0.156,0.239,0.395,0.093,0.015,0.039
1.744,0.015,-0.049,-0.063,0.02,0.039,-0.059,-0.151,0.254,0.405,0.093,0.015,0.044
1.746,0.024,-0.044,-0.068,0.01,0.044,-0.059,-0.142,0.264,0.415,0.098,0.024,0.044
1.748,0.015,-0.054,-0.068,0.02,0.039,-0.063,-0.142,0.254,0.425,0.088,0.02,0.034
1.75,0.034,-0.044,-0.078,0.005,0.054,-0.063,-0.146,0.254,0.434,0.098,0.029,0.044
1.752,0.039,-0.029,-0.068,-0.005,0.054,-0.049,-0.142,0.259,0.439,0.098,0.039,0.059
1.754,0.029,-0.034,-0.063,0.005,0.044,-0.049,-0.151,0.249,0.434,0.093,0.039,0.054
1.756,0.034,-0.024,-0.059,-0.005,0.044,-0.044,-0.156,0.254,0.434,0.093,0.044,0.063
1.758,0.044,-0.015,-0.059,-0.015,0.049,-0.039,-0.156,0.264,0.444,0.102,0.054,0.073
1.76,0.054,0.0,-0.054,-0.024,0.054,-0.029,-0.146,0.288,0.454,0.107,0.068,0.083
1.762,0.054,0.0,-0.054,-0.024,0.054,-0.029,-0.142,0.307,0.459,0.112,0.073,0.088
1.764,0.049,0.0,-0.049,-0.024,0.049,-0.024,-0.142,0.312,0.464,0.112,0.073,0.088
1.766,0.059,0.01,-0.049,-0.034,0.054,-0.02,-0.132,0.322,0.473,0.117,0.083,0.093
1.768,0.059,0.0,-0.059,-0.029,0.059,-0.029,-0.137,0.312,0.473,0.117,0.078,0.093
1.77,0.059,0.005,-0.054,-0.029,0.054,-0.024,-0.137,0.317,0.493,0.127,0.098,0.107
1.772,0.059,0.015,-0.044,-0.034,0.049,-0.015,-0.137,0.312,0.493,0.132,0.107,0.127
1.774,0.063,0.02,-0.044,-0.039,0.054,-0.015,-0.142,0.307,0.493,0.137,0.117,0.127
1.776,0.078,0.029,-0.049,-0.054,0.063,-0.01,-0.146,0.312,0.488,0.142,0.122,0.132
1.778,0.083,0.039,-0.044,-0.059,0.063,-0.005,-0.151,0.322,0.483,0.146,0.132,0.146
1.78,0.083,0.039,-0.044,-0.059,0.063,-0.005,-0.151,0.327,0.488,0.142,0.127,0.151
1.782,0.078,0.044,-0.034,-0.059,0.054,0.005,-0.142,0.346,0.493,0.156,0.142,0.161
1.784,0.088,0.054,-0.034,-0.068,0.059,0.01,-0.146,0.351,0.498,0.161,0.146,0.171
1.786,0.093,0.059,-0.034,-0.073,0.063,0.01,-0.146,0.351,0.503,0.166,0.156,0.176
1.788,0.093,0.068,-0.024,-0.078,0.059,0.02,-0.142,0.346,0.503,0.176,0.161,0.185
1.79,0.093,0.068,-0.024,-0.078,0.059,0.02,-0.142,0.342,0.517,0.19,0.181,0.195
1.792,0.093,0.078,-0.015,-0.083,0.054,0.029,-0.151,0.332,0.517,0.2,0.19,0.21
1.794,0.088,0.078,-0.01,-0.083,0.049,0.034,-0.151,0.317,0.512,0.205,0.195,0.215
1.796,0.093,0.098,0.005,-0.093,0.044,0.049,-0.151,0.322,0.512,0.21,0.205,0.229
1.798,0.102,0.107,0.005,-0.102,0.049,0.054,-0.156,0.327,0.508,0.224,0.224,0.254
1.8,0.112,0.122,0.01,-0.117,0.049,0.063,-0.156,0.332,0.512,0.22,0.229,0.259
1.802,0.107,0.127,0.02,-0.117,0.044,0.073,-0.156,0.332,0.508,0.22,0.234,0.259
1.804,0.112,0.127,0.015,-0.117,0.049,0.068,-0.161,0.322,0.498,0.215,0.239,0.268
1.806,0.107,0.127,0.02,-0.117,0.044,0.073,-0.161,0.317,0.498,0.22,0.249,0.273
1.808,0.117,0.132,0.015,-0.122,0.049,0.073,-0.156,0.307,0.493,0.22,0.254,0.283
1.81,0.102,0.122,0.02,-0.112,0.039,0.068,-0.161,0.293,0.498,0.234,0.268,0.293
1.812,0.122,0.142,0.02,-0.132,0.049,0.078,-0.166,0.278,0.498,0.244,0.283,0.312
1.814,0.117,0.146,0.029,-0.132,0.044,0.088,-0.171,0.268,0.488,0.244,0.298,0.317
1.816,0.112,0.156,0.044,-0.132,0.034,0.098,-0.19,0.254,0.468,0.244,0.303,0.327
1.818,0.112,0.171,0.059,-0.142,0.024,0.112,-0.19,0.249,0.468,0.254,0.322,0.351
1.82,0.102,0.176,0.073,-0.137,0.015,0.122,-0.195,0.244,0.454,0.254,0.317,0.356
1.822,0.098,0.176,0.078,-0.137,0.01,0.127,-0.2,0.234,0.444,0.249,0.317,0.346
1.824,0.102,0.181,0.078,-0.142,0.01,0.127,-0.2,0.224,0.449,0.249,0.332,0.366
1.826,0.112,0.2,0.088,-0.156,0.01,0.142,-0.195,0.22,0.444,0.259,0.337,0.376
1.828,0.122,0.21,0.088,-0.166,0.015,0.146,-0.195,0.195,0.439,0.254,0.342,0.381
1.83,0.112,0.195,0.083,-0.151,0.015,0.137,-0.205,0.181,0.429,0.254,0.342,0.39
1.832,0.107,0.195,0.088,-0.151,0.01,0.142,-0.205,0.156,0.42,0.254,0.351,0.4
1.834,0.122,0.21,0.088,-0.166,0.015,0.146,-0.215,0.132,0.41,0.249,0.356,0.39
1.836,0.127,0.215,0.088,-0.171,0.02,0.151,-0.22,0.117,0.395,0.249,0.351,0.4
1.838,0.127,0.22,0.093,-0.171,0.015,0.156,-0.224,0.107,0.386,0.254,0.356,0.41
1.84,0.142,0.229,0.088,-0.185,0.024,0.156,-0.229,0.102,0.376,0.244,0.346,0.405
1.842,0.127,0.21,0.083,-0.166,0.02,0.146,-0.234,0.093,0.361,0.239,0.337,0.395
1.844,0.112,0.205,0.093,-0.156,0.01,0.146,-0.234,0.078,0.361,0.229,0.327,0.395
1.846,0.112,0.19,0.078,-0.151,0.015,0.132,-0.234,0.068,0.346,0.22,0.322,0.386
1.848,0.127,0.195,0.068,-0.161,0.029,0.132,-0.234,0.044,0.337,0.2,0.307,0.376
1.85,0.132,0.2,0.068,-0.166,0.029,0.132,-0.229,0.034,0.337,0.205,0.312,0.371
1.852,0.112,0.181,0.068,-0.146,0.02,0.122,-0.229,0.024,0.327,0.195,0.307,0.371
1.854,0.093,0.166,0.073,-0.127,0.01,0.117,-0.234,0.01,0.312,0.181,0.288,0.351
1.856,0.093,0.161,0.068,-0.127,0.01,0.112,-0.234,0.0,0.303,0.166,0.278,0.346
1.858,0.098,0.156,0.059,-0.127,0.02,0.107,-0.244,-0.01,0.288,0.142,0.259,0.327
1.86,0.088,0.142,0.054,-0.112,0.015,0.098,-0.244,-0.02,0.268,0.122,0.234,0.307
1.862,0.083,0.127,0.044,-0.102,0.02,0.083,-0.244,-0.02,0.264,0.102,0.215,0.283
1.864,0.093,0.127,0.034,-0.107,0.029,0.078,-0.239,-0.029,0.254,0.088,0.2,0.264
1.866,0.078,0.102,0.024,-0.088,0.024,0.063,-0.244,-0.039,0.234,0.063,0.181,0.244
1.868,0.068,0.083,0.015,-0.073,0.024,0.049,-0.229,-0.054,0.229,0.044,0.156,0.22
1.87,0.063,0.078,0.015,-0.068,0.024,0.044,-0.229,-0.063,0.224,0.044,0.156,0.215
1.872,0.059,0.063,0.005,-0.059,0.024,0.034,-0.234,-0.083,0.21,0.029,0.137,0.195
1.874,0.068,0.059,-0.01,-0.063,0.039,0.024,-0.229,-0.088,0.21,0.02,0.127,0.19
1.876,0.068,0.063,-0.005,-0.063,0.034,0.029,-0.22,-0.088,0.2,0.01,0.117,0.185
1.878,0.063,0.059,-0.005,-0.059,0.034,0.024,-0.229,-0.093,0.181,-0.02,0.088,0.166
1.88,0.063,0.039,-0.024,-0.049,0.044,0.005,-0.229,-0.093,0.166,-0.044,0.063,0.146
1.882,0.059,0.034,-0.024,-0.044,0.039,0.005,-0.224,-0.093,0.156,-0.059,0.049,0.127
1.884,0.049,0.02,-0.029,-0.034,0.039,-0.005,-0.229,-0.098,0.146,-0.078,0.024,0.107
1.886,0.034,-0.005,-0.039,-0.015,0.034,-0.024,-0.229,-0.107,0.151,-0.093,0.01,0.083
1.888,0.044,0.0,-0.044,-0.02,0.044,-0.024,-0.224,-0.122,0.146,-0.102,-0.005,0.068
1.89,0.049,0.0,-0.049,-0.024,0.049,-0.024,-0.22,-0.127,0.146,-0.102,-0.005,0.063
1.892,0.049,-0.005,-0.054,-0.02,0.049,-0.029,-0.224,-0.142,0.137,-0.112,-0.02,0.054
1.894,0.039,-0.01,-0.049,-0.015,0.044,-0.029,-0.224,-0.151,0.127,-0.112,-0.039,0.044
1.896,0.039,-0.024,-0.063,-0.005,0.049,-0.044,-0.229,-0.151,0.117,-0.122,-0.044,0.039
1.898,0.049,-0.015,-0.063,-0.015,0.054,-0.039,-0.224,-0.142,0.117,-0.132,-0.049,0.034
1.9,0.044,-0.02,-0.063,-0.01,0.054,-0.044,-0.224,-0.146,0.102,-0.146,-0.063,0.024
1.902,0.024,-0.039,-0.063,0.01,0.044,-0.054,-0.22,-0.142,0.093,-0.146,-0.073,0.01
1.904,0.034,-0.044,-0.078,0.005,0.054,-0.063,-0.215,-0.137,0.093,-0.146,-0.073,0.015
1.906,0.044,-0.034,-0.078,-0.005,0.059,-0.059,-0.22,-0.137,0.093,-0.146,-0.078,0.005
1.908,0.044,-0.039,-0.083,0.0,0.063,-0.063,-0.205,-0.142,0.098,-0.146,-0.078,0.005
1.91,0.039,-0.039,-0.078,0.0,0.059,-0.059,-0.21,-0.151,0.093,-0.142,-0.078,0.0
1.912,0.034,-0.049,-0.083,0.01,0.059,-0.068,-0.22,-0.166,0.083,-0.151,-0.088,-0.02
1.914,0.039,-0.049,-0.088,0.005,0.063,-0.068,-0.224,-0.176,0.083,-0.146,-0.093,-0.02
1.916,0.024,-0.059,-0.083,0.02,0.054,-0.073,-0.224,-0.176,0.073,-0.151,-0.088,-0.02
1.918,0.039,-0.049,-0.088,0.005,0.063,-0.068,-0.229,-0.171,0.078,-0.151,-0.098,-0.02
1.92,0.039,-0.044,-0.083,0.005,0.059,-0.063,-0.22,-0.151,0.078,-0.146,-0.102,-0.01
1.922,0.02,-0.063,-0.083,0.024,0.049,-0.073,-0.224,-0.156,0.068,-0.161,-0.117,-0.034
1.924,0.024,-0.063,-0.088,0.02,0.054,-0.078,-0.22,-0.156,0.068,-0.161,-0.122,-0.034
1.926,0.039,-0.063,-0.102,0.015,0.068,-0.083,-0.22,-0.151,0.073,-0.161,-0.122,-0.034
1.928,0.029,-0.063,-0.093,0.02,0.059,-0.078,-0.205,-0.156,0.073,-0.161,-0.117,-0.034
1.93,0.039,-0.063,-0.102,0.015,0.068,-0.083,-0.215,-0.161,0.073,-0.161,-0.122,-0.039
1.932,0.034,-0.063,-0.098,0.015,0.063,-0.083,-0.224,-0.181,0.059,-0.171,-0.127,-0.044
1.934,0.029,-0.073,-0.102,0.024,0.063,-0.088,-0.224,-0.185,0.059,-0.176,-0.132,-0.049
1.936,0.024,-0.078,-0.102,0.029,0.063,-0.093,-0.22,-0.181,0.054,-0.171,-0.122,-0.044
1.938,0.039,-0.073,-0.112,0.02,0.073,-0.093,-0.224,-0.171,0.054,-0.176,-0.122,-0.044
1.94,0.044,-0.063,-0.107,0.01,0.073,-0.088,-0.224,-0.181,0.054,-0.176,-0.127,-0.044
1.942,0.034,-0.063,-0.098,0.015,0.063,-0.083,-0.22,-0.171,0.049,-0.181,-0.132,-0.049
1.944,0.024,-0.073,-0.098,0.024,0.059,-0.088,-0.215,-0.171,0.049,-0.181,-0.127,-0.044
1.946,0.02,-0.083,-0.102,0.034,0.059,-0.093,-0.21,-0.161,0.054,-0.181,-0.132,-0.044
1.948,0.02,-0.088,-0.107,0.034,0.063,-0.098,-0.21,-0.181,0.044,-0.19,-0.142,-0.049
1.95,0.02,-0.093,-0.112,0.039,0.063,-0.102,-0.215,-0.185,0.049,-0.19,-0.142,-0.054
1.952,0.024,-0.083,-0.107,0.029,0.063,-0.098,-0.22,-0.19,0.044,-0.185,-0.137,-0.044
1.954,0.029,-0.078,-0.107,0.024,0.068,-0.093,-0.22,-0.19,0.049,-0.176,-0.137,-0.044
1.956,0.039,-0.073,-0.112,0.02,0.073,-0.093,-0.21,-0.185,0.044,-0.171,-0.132,-0.039
1.958,0.044,-0.063,-0.107,0.01,0.073,-0.088,-0.22,-0.181,0.044,-0.171,-0.142,-0.044
1.96,0.029,-0.073,-0.102,0.024,0.063,-0.088,-0.22,-0.181,0.034,-0.176,-0.151,-0.049
1.962,0.034,-0.063,-0.098,0.015,0.063,-0.083,-0.215,-0.176,0.029,-0.166,-0.151,-0.054
1.964,0.029,-0.078,-0.107,0.024,0.068,-0.093,-0.205,-0.166,0.034,-0.161,-0.142,-0.049
1.966,0.015,-0.093,-0.107,0.039,0.059,-0.102,-0.21,-0.176,0.034,-0.166,-0.156,-0.059
1.968,0.024,-0.093,-0.117,0.034,0.068,-0.107,-0.2,-0.185,0.034,-0.161,-0.151,-0.054
1.97,0.015,-0.098,-0.112,0.044,0.063,-0.107,-0.2,-0.181,0.039,-0.156,-0.142,-0.054
1.972,0.024,-0.098,-0.122,0.039,0.073,-0.112,-0.205,-0.19,0.034,-0.156,-0.137,-0.044
1.974,0.029,-0.083,-0.112,0.029,0.068,-0.098,-0.195,-0.181,0.044,-0.142,-0.132,-0.039
1.976,0.015,-0.093,-0.107,0.039,0.059,-0.102,-0.205,-0.181,0.034,-0.151,-0.132,-0.039
1.978,0.029,-0.078,-0.107,0.024,0.068,-0.093,-0.21,-0.171,0.034,-0.146,-0.127,-0.034
1.98,0.034,-0.078,-0.112,0.024,0.073,-0.098,-0.205,-0.166,0.034,-0.151,-0.127,-0.034
1.982,0.01,-0.093,-0.102,0.044,0.054,-0.098,-0.205,-0.161,0.029,-0.146,-0.132,-0.049
1.984,0.01,-0.093,-0.102,0.044,0.054,-0.098,-0.2,-0.156,0.034,-0.151,-0.127,-0.044
1.986,0.029,-0.078,-0.107,0.024,0.068,-0.093,-0.205,-0.161,0.034,-0.156,-0.137,-0.049
1.988,0.034,-0.073,-0.107,0.02,0.068,-0.093,-0.19,-0.151,0.044,-0.146,-0.127,-0.034
1.99,0.039,-0.068,-0.107,0.015,0.073,-0.088,-0.195,-0.156,0.044,-0.142,-0.127,-0.039
1.992,0.015,-0.088,-0.102,0.039,0.059,-0.098,-0.2,-0.171,0.034,-0.146,-0.132,-0.049
1.994,0.015,-0.088,-0.102,0.039,0.059,-0.098,-0.195,-0.171,0.034,-0.146,-0.132,-0.049
1.996,0.024,-0.078,-0.102,0.029,0.063,-0.093,-0.19,-0.171,0.034,-0.137,-0.132,-0.044
1.998,0.015,-0.078,-0.093,0.034,0.054,-0.088,-0.2,-0.171,0.024,-0.142,-0.137,-0.054
2.0,0.005,-0.088,-0.093,0.044,0.049,-0.093,-0.195,-0.161,0.034,-0.137,-0.132,-0.044
2.002,-0.01,-0.102,-0.093,0.059,0.039,-0.098,-0.2,-0.161,0.024,-0.146,-0.142,-0.063
2.004,0.005,-0.093,-0.098,0.044,0.049,-0.098,-0.2,-0.161,0.024,-0.151,-0.137,-0.063
2.006,0.034,-0.068,-0.102,0.02,0.068,-0.088,-0.19,-0.156,0.029,-0.151,-0.137,-0.059
2.008,0.02,-0.078,-0.098,0.029,0.059,-0.088,-0.19,-0.176,0.029,-0.156,-0.137,-0.059
2.01,0.0,-0.088,-0.088,0.044,0.044,-0.088,-0.19,-0.181,0.034,-0.161,-0.137,-0.063
2.012,-0.005,-0.107,-0.102,0.059,0.049,-0.107,-0.19,-0.185,0.034,-0.166,-0.137,-0.059
2.014,0.01,-0.093,-0.102,0.044,0.054,-0.098,-0.19,-0.181,0.039,-0.156,-0.137,-0.054
2.016,0.01,-0.088,-0.098,0.039,0.054,-0.093,-0.19,-0.176,0.034,-0.151,-0.137,-0.049
2.018,0.005,-0.088,-0.093,0.044,0.049,-0.093,-0.19,-0.161,0.034,-0.146,-0.132,-0.049
2.02,0.015,-0.088,-0.102,0.039,0.059,-0.098,-0.19,-0.156,0.034,-0.142,-0.137,-0.044
2.022,0.015,-0.098,-0.112,0.044,0.063,-0.107,-0.181,-0.151,0.029,-0.146,-0.142,-0.049
2.024,-0.005,-0.102,-0.098,0.054,0.044,-0.102,-0.181,-0.151,0.024,-0.151,-0.132,-0.054
2.026,-0.005,-0.098,-0.093,0.054,0.044,-0.098,-0.171,-0.146,0.034,-0.142,-0.132,-0.049
2.028,-0.005,-0.107,-0.102,0.059,0.049,-0.107,-0.181,-0.156,0.029,-0.146,-0.137,-0.054
2.03,0.02,-0.088,-0.107,0.034,0.063,-0.098,-0.176,-0.161,0.034,-0.142,-0.132,-0.059
2.032,0.015,-0.083,-0.098,0.034,0.054,-0.093,-0.171,-0.156,0.039,-0.127,-0.122,-0.049
2.034,0.005,-0.098,-0.102,0.049,0.054,-0.102,-0.171,-0.161,0.034,-0.127,-0.132,-0.049
2.036,0.02,-0.083,-0.102,0.034,0.059,-0.093,-0.161,-0.146,0.039,-0.122,-0.122,-0.039
2.038,0.015,-0.078,-0.093,0.034,0.054,-0.088,-0.166,-0.137,0.039,-0.127,-0.127,-0.044
2.04,-0.005,-0.098,-0.093,0.054,0.044,-0.098,-0.166,-0.137,0.039,-0.137,-0.122,-0.039
2.042,0.01,-0.088,-0.098,0.039,0.054,-0.093,-0.166,-0.132,0.034,-0.146,-0.132,-0.044
2.044,-0.005,-0.102,-0.098,0.054,0.044,-0.102,-0.166,-0.127,0.029,-0.156,-0.132,-0.049
2.046,-0.01,-0.107,-0.098,0.059,0.044,-0.102,-0.166,-0.132,0.029,-0.156,-0.142,-0.059
2.048,0.015,-0.088,-0.102,0.039,0.059,-0.098,-0.156,-0.132,0.029,-0.156,-0.137,-0.059
2.05,0.02,-0.083,-0.102,0.034,0.059,-0.093,-0.151,-0.142,0.034,-0.151,-0.132,-0.059
2.052,0.01,-0.078,-0.088,0.034,0.049,-0.083,-0.151,-0.146,0.034,-0.146,-0.127,-0.054
2.054,-0.005,-0.088,-0.083,0.049,0.039,-0.088,-0.151,-0.146,0.034,-0.142,-0.127,-0.054
2.056,0.015,-0.083,-0.098,0.034,0.054,-0.093,-0.156,-0.146,0.029,-0.142,-0.122,-0.049
2.058,0.015,-0.078,-0.093,0.034,0.054,-0.088,-0.151,-0.132,0.034,-0.137,-0.117,-0.039
2.06,0.005,-0.083,-0.088,0.039,0.044,-0.088,-0.166,-0.137,0.02,-0.156,-0.132,-0.049
2.062,0.02,-0.083,-0.102,0.034,0.059,-0.093,-0.161,-0.137,0.02,-0.156,-0.127,-0.049
2.064,0.024,-0.073,-0.098,0.024,0.059,-0.088,-0.151,-0.117,0.024,-0.146,-0.112,-0.034
2.066,0.0,-0.088,-0.088,0.044,0.044,-0.088,-0.146,-0.122,0.02,-0.156,-0.122,-0.049
2.068,-0.005,-0.093,-0.088,0.049,0.039,-0.093,-0.151,-0.137,0.015,-0.161,-0.122,-0.054
2.07,-0.01,-0.098,-0.088,0.054,0.039,-0.093,-0.151,-0.146,0.02,-0.156,-0.117,-0.059
2.072,-0.005,-0.088,-0.083,0.049,0.039,-0.088,-0.151,-0.142,0.024,-0.151,-0.122,-0.054
2.074,0.0,-0.078,-0.078,0.039,0.039,-0.078,-0.151,-0.146,0.029,-0.146,-0.122,-0.049
2.076,-0.015,-0.093,-0.078,0.054,0.029,-0.088,-0.161,-0.146,0.02,-0.156,-0.122,-0.049
2.078,-0.02,-0.098,-0.078,0.059,0.029,-0.088,-0.156,-0.142,0.015,-0.161,-0.127,-0.054
2.08,-0.01,-0.102,-0.093,0.059,0.039,-0.098,-0.156,-0.137,0.02,-0.171,-0.127,-0.054
2.082,-0.015,-0.093,-0.078,0.054,0.029,-0.088,-0.151,-0.137,0.02,-0.171,-0.127,-0.054
2.084,0.005,-0.098,-0.102,0.049,0.054,-0.102,-0.132,-0.117,0.024,-0.171,-0.117,-0.044
2.086,0.0,-0.098,-0.098,0.049,0.049,-0.098,-0.132,-0.112,0.029,-0.171,-0.122,-0.054
2.088,0.0,-0.102,-0.102,0.054,0.049,-0.102,-0.137,-0.127,0.02,-0.171,-0.127,-0.063
2.09,-0.01,-0.112,-0.102,0.063,0.044,-0.107,-0.132,-0.127,0.024,-0.166,-0.122,-0.063
2.092,-0.024,-0.127,-0.102,0.078,0.039,-0.117,-0.142,-0.142,0.01,-0.171,-0.132,-0.073
2.094,0.0,-0.098,-0.098,0.049,0.049,-0.098,-0.146,-0.146,0.015,-0.166,-0.132,-0.068
2.096,0.0,-0.093,-0.093,0.049,0.044,-0.093,-0.137,-0.137,0.01,-0.156,-0.122,-0.059
2.098,-0.015,-0.102,-0.088,0.059,0.034,-0.098,-0.146,-0.142,-0.005,-0.171,-0.132,-0.073
2.1,-0.015,-0.102,-0.088,0.059,0.034,-0.098,-0.151,-0.146,-0.005,-0.176,-0.137,-0.073
2.102,-0.024,-0.107,-0.083,0.068,0.029,-0.098,-0.146,-0.142,-0.005,-0.181,-0.142,-0.078
2.104,-0.02,-0.107,-0.088,0.063,0.034,-0.098,-0.137,-0.132,-0.005,-0.185,-0.137,-0.073
2.106,-0.015,-0.098,-0.083,0.059,0.034,-0.093,-0.127,-0.127,0.005,-0.176,-0.132,-0.073
2.108,-0.02,-0.102,-0.083,0.063,0.029,-0.093,-0.132,-0.142,-0.005,-0.185,-0.132,-0.073
2.11,-0.01,-0.102,-0.093,0.059,0.039,-0.098,-0.122,-0.142,-0.005,-0.185,-0.132,-0.073
2.112,-0.015,-0.098,-0.083,0.059,0.034,-0.093,-0.122,-0.137,-0.005,-0.176,-0.127,-0.063
2.114,-0.02,-0.098,-0.078,0.059,0.029,-0.088,-0.122,-0.146,-0.005,-0.171,-0.127,-0.063
2.116,-0.015,-0.098,-0.083,0.059,0.034,-0.093,-0.122,-0.137,-0.005,-0.166,-0.117,-0.054
2.118,-0.01,-0.093,-0.083,0.054,0.034,-0.088,-0.122,-0.132,-0.01,-0.171,-0.122,-0.059
2.12,-0.024,-0.107,-0.083,0.068,0.029,-0.098,-0.122,-0.132,-0.015,-0.181,-0.127,-0.059
2.122,-0.015,-0.112,-0.098,0.063,0.039,-0.107,-0.117,-0.127,-0.01,-0.181,-0.132,-0.059
2.124,-0.024,-0.117,-0.093,0.073,0.034,-0.107,-0.107,-0.122,-0.015,-0.181,-0.122,-0.059
2.126,-0.01,-0.102,-0.093,0.059,0.039,-0.098,-0.102,-0.112,-0.01,-0.176,-0.122,-0.063
2.128,0.0,-0.102,-0.102,0.054,0.049,-0.102,-0.098,-0.122,-0.01,-0.176,-0.122,-0.059
2.13,-0.01,-0.102,-0.093,0.059,0.039,-0.098,-0.088,-0.122,0.0,-0.171,-0.117,-0.059
2.132,-0.029,-0.112,-0.083,0.073,0.024,-0.098,-0.088,-0.122,0.0,-0.166,-0.112,-0.054
2.134,-0.015,-0.102,-0.088,0.059,0.034,-0.098,-0.088,-0.127,-0.01,-0.166,-0.117,-0.054
2.136,-0.01,-0.102,-0.093,0.059,0.039,-0.098,-0.088,-0.132,-0.02,-0.166,-0.107,-0.049
2.138,-0.024,-0.117,-0.093,0.073,0.034,-0.107,-0.098,-0.137,-0.029,-0.176,-0.117,-0.059
2.14,-0.049,-0.127,-0.078,0.088,0.015,-0.102,-0.102,-0.142,-0.039,-0.181,-0.127,-0.073
2.142,-0.044,-0.127,-0.083,0.088,0.02,-0.107,-0.093,-0.127,-0.029,-0.181,-0.127,-0.068
2.144,-0.024,-0.117,-0.093,0.073,0.034,-0.107,-0.083,-0.122,-0.029,-0.176,-0.117,-0.063
2.146,-0.02,-0.117,-0.098,0.068,0.039,-0.107,-0.088,-0.127,-0.034,-0.185,-0.132,-0.073
2.148,-0.02,-0.122,-0.102,0.073,0.039,-0.112,-0.073,-0.122,-0.029,-0.181,-0.127,-0.063
2.15,-0.015,-0.117,-0.102,0.068,0.044,-0.112,-0.063,-0.117,-0.024,-0.176,-0.117,-0.059
2.152,-0.02,-0.112,-0.093,0.068,0.034,-0.102,-0.068,-0.122,-0.029,-0.176,-0.117,-0.063
2.154,-0.01,-0.098,-0.088,0.054,0.039,-0.093,-0.068,-0.122,-0.024,-0.176,-0.122,-0.054
2.156,-0.01,-0.098,-0.088,0.054,0.039,-0.093,-0.068,-0.122,-0.034,-0.171,-0.117,-0.054
2.158,-0.005,-0.093,-0.088,0.049,0.039,-0.093,-0.063,-0.117,-0.029,-0.156,-0.112,-0.054
2.16,-0.01,-0.102,-0.093,0.059,0.039,-0.098,-0.063,-0.117,-0.034,-0.156,-0.117,-0.054
2.162,-0.005,-0.107,-0.102,0.059,0.049,-0.107,-0.063,-0.122,-0.034,-0.161,-0.117,-0.059
2.164,0.01,-0.102,-0.112,0.049,0.059,-0.107,-0.059,-0.107,-0.034,-0.151,-0.112,-0.063
2.166,0.005,-0.102,-0.107,0.049,0.054,-0.107,-0.044,-0.107,-0.029,-0.146,-0.102,-0.059
2.168,0.005,-0.107,-0.112,0.054,0.059,-0.112,-0.049,-0.112,-0.034,-0.151,-0.102,-0.063
2.17,0.01,-0.102,-0.112,0.049,0.059,-0.107,-0.044,-0.112,-0.029,-0.142,-0.098,-0.063
2.172,0.005,-0.098,-0.102,0.049,0.054,-0.102,-0.039,-0.107,-0.024,-0.127,-0.088,-0.054
2.174,0.02,-0.073,-0.093,0.029,0.054,-0.083,-0.034,-0.102,-0.024,-0.112,-0.078,-0.049
2.176,0.029,-0.073,-0.102,0.024,0.063,-0.088,-0.029,-0.102,-0.029,-0.112,-0.078,-0.044
2.178,0.015,-0.083,-0.098,0.034,0.054,-0.093,-0.034,-0.102,-0.034,-0.117,-0.083,-0.054
2.18,0.015,-0.093,-0.107,0.039,0.059,-0.102,-0.034,-0.107,-0.039,-0.122,-0.088,-0.054
2.182,0.015,-0.088,-0.102,0.039,0.059,-0.098,-0.029,-0.093,-0.039,-0.127,-0.093,-0.059
2.184,0.005,-0.102,-0.107,0.049,0.054,-0.107,-0.024,-0.093,-0.039,-0.132,-0.102,-0.068
2.186,0.005,-0.093,-0.098,0.044,0.049,-0.098,-0.015,-0.088,-0.034,-0.132,-0.102,-0.063
2.188,0.01,-0.102,-0.112,0.049,0.059,-0.107,-0.024,-0.102,-0.034,-0.142,-0.107,-0.073
2.19,0.015,-0.107,-0.122,0.049,0.068,-0.117,-0.015,-0.107,-0.034,-0.137,-0.102,-0.073
2.192,0.015,-0.088,-0.102,0.039,0.059,-0.098,-0.01,-0.102,-0.034,-0.127,-0.098,-0.068
2.194,0.024,-0.073,-0.098,0.024,0.059,-0.088,-0.01,-0.102,-0.039,-0.127,-0.093,-0.063
2.196,0.02,-0.078,-0.098,0.029,0.059,-0.088,-0.015,-0.102,-0.044,-0.127,-0.098,-0.063
2.198,0.01,-0.073,-0.083,0.034,0.044,-0.078,-0.01,-0.098,-0.039,-0.127,-0.088,-0.059
2.2,0.015,-0.073,-0.088,0.029,0.049,-0.083,-0.005,-0.093,-0.044,-0.132,-0.088,-0.059
2.202,0.005,-0.083,-0.088,0.039,0.044,-0.088,-0.01,-0.098,-0.054,-0.142,-0.088,-0.063
2.204,-0.005,-0.093,-0.088,0.049,0.039,-0.093,-0.01,-0.093,-0.059,-0.146,-0.107,-0.073
2.206,0.01,-0.078,-0.088,0.034,0.049,-0.083,0.005,-0.083,-0.054,-0.146,-0.102,-0.073
2.208,0.005,-0.088,-0.093,0.044,0.049,-0.093,-0.005,-0.098,-0.059,-0.151,-0.117,-0.083
2.21,0.0,-0.088,-0.088,0.044,0.044,-0.088,0.0,-0.102,-0.059,-0.146,-0.112,-0.088
2.212,0.01,-0.068,-0.078,0.029,0.044,-0.073,0.005,-0.098,-0.049,-0.132,-0.102,-0.083
2.214,0.0,-0.088,-0.088,0.044,0.044,-0.088,0.005,-0.102,-0.054,-0.137,-0.102,-0.083
2.216,-0.015,-0.098,-0.083,0.059,0.034,-0.093,-0.01,-0.112,-0.063,-0.146,-0.112,-0.093
2.218,0.0,-0.073,-0.073,0.039,0.034,-0.073,0.0,-0.102,-0.054,-0.142,-0.098,-0.078
2.22,0.005,-0.083,-0.088,0.039,0.044,-0.088,0.0,-0.098,-0.059,-0.146,-0.102,-0.078
2.222,0.005,-0.088,-0.093,0.044,0.049,-0.093,0.005,-0.093,-0.059,-0.151,-0.102,-0.078
2.224,-0.01,-0.098,-0.088,0.054,0.039,-0.093,0.005,-0.093,-0.063,-0.151,-0.107,-0.078
2.226,-0.024,-0.107,-0.083,0.068,0.029,-0.098,0.01,-0.093,-0.059,-0.151,-0.102,-0.073
2.228,-0.005,-0.098,-0.093,0.054,0.044,-0.098,0.015,-0.088,-0.059,-0.142,-0.098,-0.078
2.23,-0.01,-0.098,-0.088,0.054,0.039,-0.093,0.015,-0.098,-0.059,-0.137,-0.098,-0.083
2.232,-0.005,-0.093,-0.088,0.049,0.039,-0.093,0.015,-0.102,-0.063,-0.132,-0.093,-0.083
2.234,-0.024,-0.102,-0.078,0.063,0.024,-0.093,0.01,-0.112,-0.068,-0.137,-0.093,-0.083
2.236,-0.02,-0.098,-0.078,0.059,0.029,-0.088,0.005,-0.107,-0.068,-0.127,-0.083,-0.083
2.238,0.0,-0.078,-0.078,0.039,0.039,-0.078,0.01,-0.098,-0.063,-0.122,-0.078,-0.073
2.24,0.0,-0.088,-0.088,0.044,0.044,-0.088,0.0,-0.098,-0.073,-0.127,-0.083,-0.073
2.242,-0.015,-0.083,-0.068,0.049,0.024,-0.078,0.005,-0.098,-0.078,-0.142,-0.083,-0.083
2.244,-0.024,-0.088,-0.063,0.059,0.02,-0.078,0.005,-0.098,-0.078,-0.142,-0.093,-0.093
2.246,-0.039,-0.098,-0.059,0.068,0.01,-0.078,0.01,-0.093,-0.078,-0.142,-0.093,-0.093
2.248,-0.024,-0.078,-0.054,0.054,0.015,-0.068,0.01,-0.102,-0.083,-0.142,-0.098,-0.098
2.25,-0.015,-0.063,-0.049,0.039,0.015,-0.059,0.024,-0.088,-0.068,-0.127,-0.083,-0.083
2.252,-0.02,-0.068,-0.049,0.044,0.015,-0.059,0.02,-0.098,-0.078,-0.132,-0.098,-0.088
2.254,-0.02,-0.073,-0.054,0.049,0.015,-0.063,0.024,-0.093,-0.078,-0.127,-0.093,-0.078
2.256,-0.024,-0.073,-0.049,0.049,0.01,-0.063,0.015,-0.098,-0.083,-0.132,-0.098,-0.088
2.258,-0.015,-0.073,-0.059,0.044,0.02,-0.068,0.02,-0.098,-0.078,-0.122,-0.093,-0.083
2.26,0.005,-0.049,-0.054,0.024,0.029,-0.054,0.024,-0.093,-0.083,-0.122,-0.088,-0.078
2.262,-0.024,-0.078,-0.054,0.054,0.015,-0.068,0.015,-0.102,-0.093,-0.137,-0.098,-0.088
2.264,-0.024,-0.073,-0.049,0.049,0.01,-0.063,0.02,-0.093,-0.093,-0.137,-0.107,-0.088
2.266,-0.02,-0.078,-0.059,0.049,0.02,-0.068,0.024,-0.083,-0.088,-0.137,-0.102,-0.083
2.268,-0.049,-0.102,-0.054,0.078,0.0,-0.078,0.024,-0.088,-0.088,-0.146,-0.112,-0.098
2.27,-0.034,-0.098,-0.063,0.068,0.015,-0.083,0.029,-0.088,-0.088,-0.142,-0.112,-0.098
2.272,-0.02,-0.088,-0.068,0.054,0.024,-0.078,0.034,-0.083,-0.083,-0.137,-0.112,-0.093
2.274,-0.044,-0.098,-0.054,0.073,0.005,-0.078,0.029,-0.088,-0.088,-0.151,-0.117,-0.102
2.276,-0.029,-0.083,-0.054,0.059,0.01,-0.068,0.024,-0.093,-0.093,-0.156,-0.122,-0.107
2.278,-0.044,-0.093,-0.049,0.068,0.0,-0.073,0.015,-0.098,-0.102,-0.161,-0.127,-0.107
2.28,-0.044,-0.093,-0.049,0.068,0.0,-0.073,0.02,-0.093,-0.107,-0.161,-0.127,-0.112
2.282,-0.044,-0.083,-0.039,0.063,-0.005,-0.063,0.024,-0.093,-0.112,-0.161,-0.122,-0.112
2.284,-0.039,-0.068,-0.029,0.054,-0.005,-0.049,0.02,-0.098,-0.102,-0.156,-0.117,-0.117
2.286,-0.034,-0.068,-0.034,0.054,0.0,-0.054,0.02,-0.093,-0.098,-0.146,-0.112,-0.112
2.288,-0.039,-0.083,-0.044,0.063,0.0,-0.063,0.015,-0.098,-0.102,-0.142,-0.117,-0.112
2.29,-0.039,-0.093,-0.054,0.068,0.005,-0.073,0.01,-0.102,-0.107,-0.142,-0.112,-0.112
2.292,-0.034,-0.088,-0.054,0.063,0.01,-0.073,0.015,-0.098,-0.102,-0.127,-0.102,-0.098
2.294,-0.049,-0.083,-0.034,0.068,-0.01,-0.059,0.015,-0.107,-0.112,-0.137,-0.102,-0.102
2.296,-0.059,-0.098,-0.039,0.078,-0.01,-0.068,0.015,-0.107,-0.112,-0.137,-0.098,-0.102
2.298,-0.068,-0.102,-0.034,0.088,-0.02,-0.068,0.01,-0.102,-0.112,-0.132,-0.098,-0.093
2.3,-0.029,-0.068,-0.039,0.049,0.005,-0.054,0.015,-0.093,-0.112,-0.132,-0.102,-0.098
2.302,-0.015,-0.059,-0.044,0.039,0.015,-0.054,0.015,-0.088,-0.102,-0.127,-0.098,-0.098
2.304,-0.044,-0.098,-0.054,0.073,0.005,-0.078,0.01,-0.088,-0.107,-0.137,-0.102,-0.102
2.306,-0.063,-0.107,-0.044,0.088,-0.01,-0.078,0.005,-0.093,-0.107,-0.146,-0.107,-0.107
2.308,-0.059,-0.102,-0.044,0.083,-0.01,-0.073,0.005,-0.098,-0.107,-0.142,-0.107,-0.107
2.31,-0.049,-0.088,-0.039,0.068,-0.005,-0.063,0.01,-0.098,-0.098,-0.132,-0.093,-0.098
2.312,-0.049,-0.083,-0.034,0.068,-0.01,-0.059,0.02,-0.088,-0.098,-0.122,-0.083,-0.088
2.314,-0.049,-0.093,-0.044,0.073,-0.005,-0.068,0.015,-0.088,-0.102,-0.132,-0.088,-0.083
2.316,-0.044,-0.088,-0.044,0.068,0.0,-0.068,0.01,-0.098,-0.112,-0.137,-0.093,-0.098
2.318,-0.034,-0.073,-0.039,0.054,0.0,-0.059,0.015,-0.093,-0.112,-0.146,-0.083,-0.093
2.32,-0.029,-0.063,-0.034,0.049,0.0,-0.049,0.015,-0.078,-0.117,-0.142,-0.093,-0.098
2.322,-0.029,-0.073,-0.044,0.054,0.005,-0.059,0.015,-0.083,-0.122,-0.146,-0.098,-0.107
2.324,-0.034,-0.073,-0.039,0.054,0.0,-0.059,0.005,-0.088,-0.127,-0.161,-0.112,-0.117
2.326,-0.059,-0.093,-0.034,0.078,-0.015,-0.063,0.005,-0.093,-0.122,-0.166,-0.117,-0.122
2.328,-0.059,-0.073,-0.015,0.068,-0.024,-0.044,0.015,-0.088,-0.117,-0.166,-0.122,-0.122
2.33,-0.049,-0.068,-0.02,0.059,-0.015,-0.044,0.02,-0.093,-0.112,-0.166,-0.117,-0.117
2.332,-0.024,-0.049,-0.024,0.039,0.0,-0.039,0.024,-0.083,-0.107,-0.151,-0.112,-0.117
2.334,-0.034,-0.044,-0.01,0.039,-0.015,-0.029,0.024,-0.083,-0.107,-0.146,-0.107,-0.122
2.336,-0.039,-0.063,-0.024,0.054,-0.01,-0.044,0.01,-0.093,-0.117,-0.156,-0.117,-0.132
2.338,-0.044,-0.063,-0.02,0.054,-0.015,-0.044,0.01,-0.098,-0.112,-0.151,-0.112,-0.127
2.34,-0.078,-0.078,0.0,0.078,-0.039,-0.039,0.01,-0.088,-0.127,-0.151,-0.112,-0.122
2.342,-0.059,-0.073,-0.015,0.068,-0.024,-0.044,0.02,-0.083,-0.122,-0.151,-0.107,-0.117
2.344,-0.039,-0.059,-0.02,0.049,-0.01,-0.039,0.024,-0.083,-0.117,-0.151,-0.102,-0.117
2.346,-0.054,-0.078,-0.024,0.068,-0.015,-0.054,0.024,-0.083,-0.122,-0.156,-0.102,-0.112
2.348,-0.073,-0.093,-0.02,0.083,-0.029,-0.059,0.02,-0.088,-0.127,-0.156,-0.102,-0.117
2.35,-0.068,-0.083,-0.015,0.078,-0.029,-0.049,0.02,-0.093,-0.122,-0.156,-0.107,-0.117
2.352,-0.068,-0.083,-0.015,0.078,-0.029,-0.049,0.015,-0.093,-0.122,-0.156,-0.107,-0.122
2.354,-0.083,-0.088,-0.005,0.088,-0.039,-0.049,0.015,-0.098,-0.127,-0.156,-0.112,-0.127
2.356,-0.068,-0.073,-0.005,0.073,-0.034,-0.039,0.015,-0.098,-0.127,-0.156,-0.112,-0.127
2.358,-0.039,-0.063,-0.024,0.054,-0.01,-0.044,0.01,-0.098,-0.132,-0.161,-0.112,-0.132
2.36,-0.049,-0.054,-0.005,0.054,-0.024,-0.029,0.01,-0.088,-0.122,-0.156,-0.107,-0.122
2.362,-0.039,-0.063,-0.024,0.054,-0.01,-0.044,0.01,-0.088,-0.127,-0.156,-0.107,-0.127
2.364,-0.039,-0.073,-0.034,0.059,-0.005,-0.054,0.01,-0.083,-0.122,-0.161,-0.112,-0.132
2.366,-0.054,-0.078,-0.024,0.068,-0.015,-0.054,0.01,-0.088,-0.122,-0.166,-0.117,-0.137
2.368,-0.068,-0.078,-0.01,0.073,-0.029,-0.044,0.01,-0.088,-0.122,-0.166,-0.112,-0.137
2.37,-0.054,-0.068,-0.015,0.063,-0.02,-0.044,0.015,-0.088,-0.117,-0.166,-0.107,-0.127
2.372,-0.054,-0.068,-0.015,0.063,-0.02,-0.044,0.01,-0.088,-0.117,-0.161,-0.102,-0.132
2.374,-0.054,-0.068,-0.015,0.063,-0.02,-0.044,0.005,-0.098,-0.127,-0.166,-0.107,-0.132
2.376,-0.044,-0.054,-0.01,0.049,-0.02,-0.034,0.005,-0.098,-0.127,-0.166,-0.107,-0.132
2.378,-0.039,-0.044,-0.005,0.044,-0.02,-0.024,0.005,-0.088,-0.132,-0.166,-0.102,-0.132
2.38,-0.039,-0.034,0.005,0.039,-0.024,-0.015,0.015,-0.083,-0.127,-0.156,-0.102,-0.127
2.382,-0.049,-0.049,0.0,0.049,-0.024,-0.024,0.01,-0.078,-0.132,-0.166,-0.112,-0.127
2.384,-0.068,-0.068,0.0,0.068,-0.034,-0.034,0.005,-0.083,-0.132,-0.171,-0.122,-0.142
2.386,-0.044,-0.049,-0.005,0.049,-0.02,-0.029,0.015,-0.078,-0.132,-0.161,-0.122,-0.142
2.388,-0.044,-0.044,0.0,0.044,-0.024,-0.024,0.02,-0.078,-0.122,-0.151,-0.117,-0.137
2.39,-0.054,-0.054,0.0,0.054,-0.029,-0.029,0.02,-0.078,-0.127,-0.156,-0.117,-0.142
2.392,-0.049,-0.049,0.0,0.049,-0.024,-0.024,0.02,-0.078,-0.132,-0.161,-0.117,-0.146
2.394,-0.044,-0.049,-0.005,0.049,-0.02,-0.029,0.015,-0.083,-0.137,-0.166,-0.122,-0.142
2.396,-0.054,-0.049,0.005,0.054,-0.029,-0.024,0.01,-0.088,-0.137,-0.166,-0.127,-0.151
2.398,-0.054,-0.059,-0.005,0.059,-0.024,-0.034,0.01,-0.088,-0.142,-0.161,-0.122,-0.142
2.4,-0.063,-0.063,0.0,0.063,-0.034,-0.034,0.005,-0.088,-0.142,-0.166,-0.127,-0.146
2.402,-0.059,-0.059,0.0,0.059,-0.029,-0.029,0.01,-0.083,-0.137,-0.166,-0.127,-0.146
2.404,-0.054,-0.059,-0.005,0.059,-0.024,-0.034,0.015,-0.083,-0.137,-0.161,-0.127,-0.137
2.406,-0.049,-0.054,-0.005,0.054,-0.024,-0.029,0.01,-0.083,-0.137,-0.156,-0.117,-0.132
2.408,-0.039,-0.039,0.0,0.039,-0.02,-0.02,0.024,-0.073,-0.127,-0.151,-0.102,-0.127
2.41,-0.039,-0.034,0.005,0.039,-0.024,-0.015,0.02,-0.083,-0.127,-0.156,-0.102,-0.132
2.412,-0.039,-0.029,0.01,0.034,-0.024,-0.01,0.02,-0.083,-0.127,-0.151,-0.107,-0.132
2.414,-0.024,-0.029,-0.005,0.029,-0.01,-0.02,0.01,-0.083,-0.132,-0.151,-0.102,-0.127
2.416,-0.034,-0.029,0.005,0.034,-0.02,-0.015,0.01,-0.083,-0.127,-0.146,-0.098,-0.127
2.418,-0.01,-0.01,0.0,0.01,-0.005,-0.005,0.01,-0.088,-0.127,-0.151,-0.102,-0.132
2.42,-0.034,-0.034,0.0,0.034,-0.02,-0.02,0.015,-0.078,-0.132,-0.146,-0.107,-0.127
2.422,-0.054,-0.063,-0.01,0.059,-0.024,-0.039,0.0,-0.093,-0.146,-0.156,-0.117,-0.142
2.424,-0.039,-0.039,0.0,0.039,-0.02,-0.02,0.01,-0.083,-0.137,-0.151,-0.112,-0.142
2.426,-0.044,-0.049,-0.005,0.049,-0.02,-0.029,0.01,-0.083,-0.132,-0.146,-0.117,-0.142
2.428,-0.039,-0.044,-0.005,0.044,-0.02,-0.024,0.01,-0.078,-0.122,-0.146,-0.117,-0.142
2.43,-0.044,-0.059,-0.015,0.054,-0.015,-0.039,0.0,-0.078,-0.127,-0.151,-0.122,-0.146
2.432,-0.054,-0.059,-0.005,0.059,-0.024,-0.034,0.01,-0.073,-0.117,-0.146,-0.117,-0.146
2.434,-0.039,-0.049,-0.01,0.044,-0.015,-0.029,0.01,-0.073,-0.122,-0.137,-0.112,-0.142
2.436,-0.034,-0.034,0.0,0.034,-0.02,-0.02,0.01,-0.073,-0.117,-0.132,-0.107,-0.137
2.438,-0.034,-0.029,0.005,0.034,-0.02,-0.015,0.005,-0.078,-0.122,-0.137,-0.117,-0.146
2.44,-0.039,-0.034,0.005,0.039,-0.024,-0.015,0.005,-0.068,-0.122,-0.137,-0.112,-0.146
2.442,-0.044,-0.049,-0.005,0.049,-0.02,-0.029,0.0,-0.083,-0.137,-0.156,-0.122,-0.161
2.444,-0.059,-0.063,-0.005,0.063,-0.029,-0.034,-0.005,-0.083,-0.146,-0.171,-0.132,-0.176
2.446,-0.044,-0.059,-0.015,0.054,-0.015,-0.039,0.0,-0.078,-0.146,-0.166,-0.127,-0.171
2.448,-0.044,-0.049,-0.005,0.049,-0.02,-0.029,0.0,-0.073,-0.137,-0.161,-0.127,-0.166
2.45,-0.044,-0.044,0.0,0.044,-0.024,-0.024,0.005,-0.073,-0.137,-0.161,-0.122,-0.156
2.452,-0.063,-0.039,0.024,0.054,-0.044,-0.01,0.0,-0.073,-0.137,-0.161,-0.122,-0.156
2.454,-0.054,-0.034,0.02,0.044,-0.039,-0.01,-0.01,-0.078,-0.127,-0.151,-0.117,-0.156
2.456,-0.049,-0.02,0.029,0.034,-0.039,0.005,-0.005,-0.078,-0.117,-0.137,-0.102,-0.146
2.458,-0.049,-0.024,0.024,0.039,-0.039,0.0,0.0,-0.078,-0.122,-0.137,-0.102,-0.146
2.46,-0.049,-0.029,0.02,0.039,-0.034,-0.005,-0.005,-0.073,-0.117,-0.137,-0.102,-0.146
2.462,-0.044,-0.034,0.01,0.039,-0.029,-0.015,0.005,-0.063,-0.117,-0.137,-0.098,-0.142
2.464,-0.044,-0.049,-0.005,0.049,-0.02,-0.029,0.005,-0.068,-0.117,-0.142,-0.102,-0.146
2.466,-0.044,-0.059,-0.015,0.054,-0.015,-0.039,0.01,-0.063,-0.112,-0.137,-0.098,-0.137
2.468,-0.054,-0.054,0.0,0.054,-0.029,-0.029,0.02,-0.054,-0.098,-0.127,-0.088,-0.137
2.47,-0.039,-0.049,-0.01,0.044,-0.015,-0.029,0.02,-0.059,-0.102,-0.122,-0.088,-0.142
2.472,-0.034,-0.049,-0.015,0.044,-0.01,-0.034,0.01,-0.063,-0.107,-0.122,-0.093,-0.142
2.474,-0.034,-0.049,-0.015,0.044,-0.01,-0.034,0.0,-0.068,-0.107,-0.122,-0.088,-0.137
2.476,-0.044,-0.054,-0.01,0.049,-0.02,-0.034,-0.005,-0.078,-0.117,-0.132,-0.098,-0.156
2.478,-0.039,-0.049,-0.01,0.044,-0.015,-0.029,0.0,-0.068,-0.117,-0.132,-0.098,-0.146
2.48,-0.073,-0.063,0.01,0.068,-0.044,-0.029,-0.005,-0.063,-0.122,-0.142,-0.102,-0.151
2.482,-0.063,-0.049,0.015,0.059,-0.039,-0.02,0.0,-0.068,-0.122,-0.132,-0.102,-0.161
2.484,-0.049,-0.049,0.0,0.049,-0.024,-0.024,0.0,-0.068,-0.122,-0.137,-0.122,-0.176
2.486,-0.049,-0.059,-0.01,0.054,-0.02,-0.034,0.0,-0.068,-0.122,-0.137,-0.122,-0.181
2.488,-0.044,-0.054,-0.01,0.049,-0.02,-0.034,0.0,-0.068,-0.117,-0.137,-0.122,-0.181
2.49,-0.063,-0.063,0.0,0.063,-0.034,-0.034,-0.005,-0.068,-0.112,-0.132,-0.122,-0.181
2.492,-0.063,-0.054,0.01,0.059,-0.039,-0.024,-0.005,-0.068,-0.102,-0.127,-0.117,-0.176
2.494,-0.059,-0.044,0.015,0.054,-0.039,-0.015,0.0,-0.059,-0.098,-0.117,-0.107,-0.161
2.496,-0.059,-0.039,0.02,0.049,-0.039,-0.01,-0.005,-0.063,-0.098,-0.122,-0.107,-0.161
2.498,-0.039,-0.029,0.01,0.034,-0.024,-0.01,0.0,-0.059,-0.098,-0.117,-0.098,-0.146
2.5,-0.044,-0.02,0.024,0.034,-0.034,0.0,0.005,-0.044,-0.093,-0.112,-0.088,-0.137
2.502,-0.049,-0.015,0.034,0.034,-0.044,0.01,0.015,-0.039,-0.083,-0.102,-0.083,-0.132
2.504,-0.049,-0.015,0.034,0.034,-0.044,0.01,0.015,-0.039,-0.088,-0.112,-0.088,-0.142
2.506,-0.063,-0.024,0.039,0.044,-0.054,0.005,0.01,-0.039,-0.088,-0.112,-0.083,-0.137
2.508,-0.059,-0.024,0.034,0.044,-0.049,0.005,0.01,-0.044,-0.088,-0.112,-0.088,-0.146
2.51,-0.059,-0.02,0.039,0.039,-0.049,0.01,0.01,-0.039,-0.088,-0.102,-0.093,-0.156
2.512,-0.059,-0.02,0.039,0.039,-0.049,0.01,0.005,-0.039,-0.088,-0.107,-0.093,-0.156
2.514,-0.054,-0.02,0.034,0.039,-0.044,0.005,0.005,-0.039,-0.083,-0.102,-0.088,-0.156
2.516,-0.068,-0.02,0.049,0.044,-0.059,0.015,0.0,-0.039,-0.078,-0.098,-0.088,-0.151
2.518,-0.068,-0.015,0.054,0.044,-0.063,0.02,-0.005,-0.039,-0.083,-0.102,-0.088,-0.151
2.52,-0.059,-0.005,0.054,0.034,-0.059,0.024,0.0,-0.029,-0.088,-0.117,-0.093,-0.151
2.522,-0.044,0.005,0.049,0.02,-0.049,0.024,0.005,-0.029,-0.083,-0.127,-0.102,-0.156
2.524,-0.029,0.029,0.059,0.0,-0.044,0.044,0.01,-0.02,-0.078,-0.117,-0.093,-0.156
2.526,-0.039,0.024,0.063,0.01,-0.054,0.044,0.02,-0.015,-0.073,-0.102,-0.083,-0.151
2.528,-0.049,0.015,0.063,0.02,-0.059,0.039,0.02,-0.015,-0.063,-0.098,-0.083,-0.151
2.53,-0.059,0.005,0.063,0.029,-0.063,0.034,0.02,-0.024,-0.073,-0.093,-0.088,-0.156
2.532,-0.068,0.005,0.073,0.034,-0.073,0.039,0.02,-0.02,-0.068,-0.093,-0.078,-0.146
2.534,-0.059,0.01,0.068,0.024,-0.063,0.039,0.005,-0.044,-0.083,-0.098,-0.083,-0.156
2.536,-0.073,0.0,0.073,0.039,-0.073,0.034,0.0,-0.054,-0.088,-0.098,-0.088,-0.161
2.538,-0.073,0.005,0.078,0.034,-0.078,0.039,0.0,-0.054,-0.083,-0.088,-0.083,-0.161
2.54,-0.059,0.029,0.088,0.015,-0.073,0.059,-0.005,-0.049,-0.088,-0.088,-0.078,-0.166
2.542,-0.068,0.029,0.098,0.02,-0.083,0.063,-0.005,-0.054,-0.093,-0.093,-0.083,-0.166
2.544,-0.068,0.024,0.093,0.024,-0.083,0.059,-0.015,-0.059,-0.088,-0.102,-0.078,-0.166
2.546,-0.063,0.039,0.102,0.015,-0.083,0.068,-0.01,-0.049,-0.073,-0.083,-0.068,-0.146
2.548,-0.059,0.044,0.102,0.01,-0.083,0.073,-0.02,-0.054,-0.073,-0.078,-0.063,-0.132
2.55,-0.049,0.034,0.083,0.01,-0.068,0.059,-0.029,-0.059,-0.073,-0.078,-0.063,-0.142
2.552,-0.049,0.024,0.073,0.015,-0.063,0.049,-0.024,-0.063,-0.078,-0.078,-0.068,-0.142
2.554,-0.063,0.015,0.078,0.024,-0.073,0.044,-0.039,-0.078,-0.093,-0.093,-0.088,-0.166
2.556,-0.063,0.024,0.088,0.02,-0.078,0.054,-0.024,-0.073,-0.083,-0.088,-0.088,-0.166
2.558,-0.054,0.029,0.083,0.015,-0.068,0.054,-0.034,-0.078,-0.093,-0.098,-0.093,-0.171
2.56,-0.059,0.029,0.088,0.015,-0.073,0.059,-0.044,-0.088,-0.102,-0.098,-0.098,-0.171
2.562,-0.049,0.034,0.083,0.01,-0.068,0.059,-0.034,-0.078,-0.093,-0.088,-0.088,-0.166
2.564,-0.054,0.015,0.068,0.02,-0.063,0.039,-0.029,-0.068,-0.088,-0.088,-0.078,-0.166
2.566,-0.059,0.005,0.063,0.029,-0.063,0.034,-0.029,-0.068,-0.093,-0.083,-0.073,-0.161
2.568,-0.068,-0.015,0.054,0.044,-0.063,0.02,-0.029,-0.068,-0.102,-0.083,-0.073,-0.151
2.57,-0.059,-0.024,0.034,0.044,-0.049,0.005,-0.029,-0.068,-0.093,-0.083,-0.073,-0.151
2.572,-0.029,-0.015,0.015,0.024,-0.024,0.0,-0.024,-0.063,-0.088,-0.078,-0.063,-0.142
2.574,-0.049,-0.024,0.024,0.039,-0.039,0.0,-0.024,-0.068,-0.098,-0.088,-0.073,-0.146
2.576,-0.068,-0.039,0.029,0.054,-0.049,-0.005,-0.024,-0.073,-0.102,-0.093,-0.088,-0.156
2.578,-0.059,-0.029,0.029,0.044,-0.044,0.0,-0.024,-0.068,-0.107,-0.102,-0.093,-0.166
2.58,-0.044,-0.02,0.024,0.034,-0.034,0.0,-0.02,-0.059,-0.112,-0.098,-0.093,-0.166
2.582,-0.054,-0.029,0.024,0.044,-0.039,-0.005,-0.024,-0.063,-0.122,-0.117,-0.098,-0.171
2.584,-0.063,-0.029,0.034,0.049,-0.049,0.0,-0.015,-0.059,-0.107,-0.102,-0.093,-0.171
2.586,-0.088,-0.054,0.034,0.073,-0.063,-0.01,-0.02,-0.068,-0.117,-0.107,-0.102,-0.185
2.588,-0.083,-0.054,0.029,0.068,-0.059,-0.015,-0.015,-0.063,-0.112,-0.102,-0.107,-0.19
2.59,-0.073,-0.054,0.02,0.063,-0.049,-0.02,0.0,-0.054,-0.102,-0.107,-0.112,-0.2
2.592,-0.068,-0.044,0.024,0.059,-0.049,-0.01,0.0,-0.044,-0.098,-0.098,-0.112,-0.2
2.594,-0.059,-0.034,0.024,0.049,-0.044,-0.005,0.01,-0.039,-0.083,-0.088,-0.107,-0.195
2.596,-0.059,-0.039,0.02,0.049,-0.039,-0.01,0.01,-0.044,-0.098,-0.093,-0.117,-0.2
2.598,-0.068,-0.039,0.029,0.054,-0.049,-0.005,0.01,-0.039,-0.098,-0.093,-0.112,-0.195
2.6,-0.073,-0.044,0.029,0.059,-0.054,-0.01,0.0,-0.044,-0.107,-0.098,-0.112,-0.205
2.602,-0.083,-0.068,0.015,0.078,-0.049,-0.029,0.005,-0.049,-0.112,-0.102,-0.117,-0.205
2.604,-0.063,-0.063,0.0,0.063,-0.034,-0.034,0.0,-0.049,-0.112,-0.107,-0.122,-0.22
2.606,-0.068,-0.068,0.0,0.068,-0.034,-0.034,0.005,-0.039,-0.107,-0.098,-0.122,-0.21
2.608,-0.073,-0.068,0.005,0.073,-0.039,-0.034,0.01,-0.044,-0.107,-0.098,-0.122,-0.21
2.61,-0.044,-0.039,0.005,0.044,-0.024,-0.02,0.01,-0.039,-0.098,-0.088,-0.117,-0.2
2.612,-0.063,-0.054,0.01,0.059,-0.039,-0.024,0.0,-0.044,-0.102,-0.098,-0.122,-0.21
2.614,-0.102,-0.093,0.01,0.098,-0.059,-0.044,0.0,-0.049,-0.112,-0.098,-0.132,-0.215
2.616,-0.093,-0.068,0.024,0.083,-0.059,-0.024,0.015,-0.034,-0.102,-0.088,-0.127,-0.21
2.618,-0.078,-0.059,0.02,0.068,-0.049,-0.02,0.02,-0.02,-0.098,-0.083,-0.117,-0.2
2.62,-0.093,-0.073,0.02,0.083,-0.059,-0.029,0.02,-0.029,-0.102,-0.102,-0.127,-0.21
2.622,-0.102,-0.093,0.01,0.098,-0.059,-0.044,0.015,-0.039,-0.112,-0.112,-0.132,-0.215
2.624,-0.098,-0.083,0.015,0.093,-0.059,-0.034,0.02,-0.029,-0.098,-0.112,-0.127,-0.215
2.626,-0.088,-0.073,0.015,0.083,-0.054,-0.029,0.034,-0.015,-0.088,-0.098,-0.107,-0.2
2.628,-0.102,-0.088,0.015,0.098,-0.059,-0.039,0.034,-0.02,-0.088,-0.102,-0.112,-0.21
2.63,-0.098,-0.078,0.02,0.088,-0.059,-0.029,0.029,-0.024,-0.083,-0.102,-0.112,-0.21
2.632,-0.093,-0.068,0.024,0.083,-0.059,-0.024,0.039,-0.02,-0.078,-0.093,-0.102,-0.195
2.634,-0.093,-0.068,0.024,0.083,-0.059,-0.024,0.039,-0.029,-0.088,-0.093,-0.112,-0.195
2.636,-0.078,-0.059,0.02,0.068,-0.049,-0.02,0.039,-0.024,-0.083,-0.088,-0.112,-0.195
2.638,-0.083,-0.054,0.029,0.068,-0.059,-0.015,0.039,-0.02,-0.083,-0.083,-0.107,-0.19
2.64,-0.098,-0.078,0.02,0.088,-0.059,-0.029,0.044,-0.02,-0.088,-0.083,-0.107,-0.195
2.642,-0.107,-0.088,0.02,0.098,-0.063,-0.034,0.049,-0.01,-0.083,-0.083,-0.102,-0.2
2.644,-0.127,-0.107,0.02,0.117,-0.073,-0.044,0.044,-0.02,-0.083,-0.093,-0.107,-0.205
2.646,-0.122,-0.098,0.024,0.112,-0.073,-0.039,0.054,-0.015,-0.073,-0.088,-0.102,-0.2
2.648,-0.093,-0.088,0.005,0.093,-0.049,-0.044,0.049,-0.015,-0.073,-0.088,-0.102,-0.205
2.65,-0.102,-0.088,0.015,0.098,-0.059,-0.039,0.054,-0.02,-0.063,-0.088,-0.102,-0.205
2.652,-0.102,-0.078,0.024,0.093,-0.063,-0.029,0.054,-0.02,-0.068,-0.088,-0.112,-0.21
2.654,-0.107,-0.078,0.029,0.093,-0.068,-0.024,0.054,-0.02,-0.068,-0.088,-0.122,-0.22
2.656,-0.102,-0.063,0.039,0.083,-0.073,-0.015,0.059,-0.015,-0.063,-0.083,-0.117,-0.22
2.658,-0.088,-0.049,0.039,0.068,-0.063,-0.005,0.059,-0.01,-0.063,-0.078,-0.117,-0.215
2.66,-0.078,-0.049,0.029,0.063,-0.054,-0.01,0.063,-0.005,-0.063,-0.083,-0.117,-0.215
2.662,-0.083,-0.049,0.034,0.068,-0.059,-0.01,0.063,0.01,-0.049,-0.073,-0.107,-0.21
2.664,-0.088,-0.049,0.039,0.068,-0.063,-0.005,0.068,0.015,-0.049,-0.083,-0.112,-0.21
2.666,-0.098,-0.078,0.02,0.088,-0.059,-0.029,0.068,0.024,-0.059,-0.098,-0.127,-0.229
2.668,-0.098,-0.098,0.0,0.098,-0.049,-0.049,0.088,0.068,-0.039,-0.107,-0.142,-0.239
2.67,-0.112,-0.161,-0.049,0.137,-0.034,-0.107,0.098,0.112,-0.039,-0.137,-0.185,-0.283
2.672,-0.107,-0.229,-0.122,0.171,0.005,-0.176,0.127,0.215,-0.039,-0.215,-0.268,-0.366
2.674,-0.083,-0.298,-0.215,0.19,0.063,-0.259,0.181,0.376,-0.02,-0.307,-0.376,-0.454
2.676,-0.068,-0.361,-0.293,0.215,0.112,-0.327,0.244,0.551,0.034,-0.361,-0.449,-0.522
2.678,-0.034,-0.429,-0.395,0.234,0.181,-0.415,0.278,0.708,0.078,-0.4,-0.508,-0.566
2.68,-0.015,-0.488,-0.473,0.254,0.229,-0.483,0.317,0.874,0.142,-0.42,-0.547,-0.605
2.682,0.02,-0.488,-0.508,0.234,0.264,-0.498,0.337,1.005,0.229,-0.376,-0.508,-0.595
2.684,0.049,-0.425,-0.473,0.19,0.259,-0.449,0.371,1.127,0.381,-0.244,-0.405,-0.527
2.686,0.073,-0.346,-0.42,0.137,0.244,-0.386,0.41,1.259,0.547,-0.073,-0.254,-0.42
2.688,0.083,-0.234,-0.317,0.078,0.2,-0.278,0.454,1.44,0.761,0.176,-0.024,-0.244
2.69,0.107,-0.039,-0.146,-0.034,0.127,-0.093,0.493,1.615,1.035,0.581,0.376,0.039
2.692,0.107,0.171,0.063,-0.137,0.02,0.117,0.517,1.732,1.332,1.074,0.864,0.395
2.694,0.102,0.386,0.283,-0.244,-0.093,0.332,0.493,1.654,1.552,1.576,1.357,0.761
2.696,0.117,0.673,0.556,-0.395,-0.22,0.615,0.434,1.303,1.718,2.103,1.879,1.166
2.698,0.102,0.947,0.844,-0.522,-0.371,0.893,0.356,0.869,1.85,2.601,2.357,1.532
2.7,0.127,1.122,0.996,-0.625,-0.434,1.059,0.268,0.503,1.893,2.991,2.723,1.83
2.702,0.137,1.147,1.01,-0.639,-0.439,1.078,0.249,0.4,1.942,3.187,2.865,1.986
2.704,0.122,1.088,0.966,-0.605,-0.425,1.025,0.259,0.337,1.962,3.201,2.821,2.006
2.706,0.122,0.961,0.839,-0.542,-0.361,0.898,0.22,0.195,1.815,2.996,2.621,1.918
2.708,0.083,0.834,0.752,-0.459,-0.337,0.791,0.171,-0.054,1.449,2.508,2.216,1.723
2.71,0.01,0.766,0.756,-0.386,-0.376,0.761,0.117,-0.415,0.913,1.786,1.669,1.44
2.712,-0.068,0.717,0.786,-0.322,-0.429,0.752,0.088,-0.703,0.522,1.161,1.127,1.113
2.714,-0.122,0.688,0.81,-0.283,-0.468,0.747,0.073,-0.908,0.2,0.683,0.703,0.82
2.716,-0.161,0.62,0.781,-0.229,-0.473,0.698,0.029,-1.074,-0.259,0.073,0.268,0.527
2.718,-0.19,0.483,0.673,-0.146,-0.434,0.576,-0.044,-1.166,-0.615,-0.342,-0.015,0.288
2.72,-0.21,0.376,0.586,-0.083,-0.4,0.478,-0.098,-1.2,-0.776,-0.478,-0.151,0.127
2.722,-0.19,0.317,0.508,-0.063,-0.351,0.41,-0.122,-1.235,-0.903,-0.566,-0.254,0.0
2.724,-0.19,0.254,0.444,-0.029,-0.317,0.346,-0.156,-1.244,-0.966,-0.595,-0.307,-0.083
2.726,-0.176,0.215,0.39,-0.02,-0.283,0.303,-0.19,-1.205,-0.956,-0.586,-0.312,-0.112
2.728,-0.171,0.205,0.376,-0.015,-0.273,0.288,-0.224,-1.132,-0.883,-0.537,-0.288,-0.117
2.73,-0.166,0.176,0.342,-0.005,-0.254,0.259,-0.239,-1.039,-0.839,-0.512,-0.288,-0.142
2.732,-0.142,0.107,0.249,0.02,-0.195,0.176,-0.229,-0.922,-0.8,-0.542,-0.332,-0.195
2.734,-0.132,0.054,0.185,0.039,-0.161,0.117,-0.215,-0.815,-0.761,-0.561,-0.356,-0.229
2.736,-0.107,0.039,0.146,0.034,-0.127,0.093,-0.22,-0.752,-0.727,-0.556,-0.371,-0.254
2.738,-0.112,0.034,0.146,0.039,-0.132,0.088,-0.21,-0.688,-0.688,-0.537,-0.371,-0.273
2.74,-0.122,0.024,0.146,0.049,-0.137,0.083,-0.185,-0.59,-0.61,-0.493,-0.361,-0.288
2.742,-0.112,0.039,0.151,0.039,-0.132,0.093,-0.146,-0.459,-0.478,-0.4,-0.307,-0.268
2.744,-0.122,0.039,0.161,0.044,-0.142,0.098,-0.102,-0.337,-0.356,-0.312,-0.254,-0.244
2.746,-0.112,0.059,0.171,0.029,-0.142,0.112,-0.049,-0.229,-0.254,-0.239,-0.2,-0.21
2.748,-0.098,0.078,0.176,0.01,-0.137,0.127,-0.01,-0.161,-0.171,-0.185,-0.166,-0.185
2.75,-0.102,0.059,0.161,0.024,-0.132,0.107,-0.005,-0.132,-0.132,-0.151,-0.137,-0.181
2.752,-0.107,0.034,0.142,0.039,-0.127,0.088,0.02,-0.093,-0.078,-0.117,-0.112,-0.156
2.754,-0.102,0.02,0.122,0.044,-0.112,0.068,0.034,-0.059,-0.044,-0.088,-0.098,-0.146
2.756,-0.112,0.005,0.117,0.054,-0.117,0.059,0.039,-0.029,-0.029,-0.073,-0.078,-0.132
2.758,-0.098,0.01,0.107,0.044,-0.102,0.059,0.054,0.005,-0.015,-0.063,-0.068,-0.122
2.76,-0.088,-0.005,0.083,0.049,-0.088,0.039,0.054,0.029,-0.005,-0.063,-0.068,-0.122
2.762,-0.083,-0.02,0.063,0.054,-0.073,0.02,0.054,0.044,0.0,-0.073,-0.068,-0.122
2.764,-0.093,-0.024,0.068,0.059,-0.083,0.02,0.068,0.059,0.015,-0.073,-0.073,-0.122
2.766,-0.098,-0.039,0.059,0.068,-0.078,0.01,0.083,0.073,0.015,-0.068,-0.068,-0.117
2.768,-0.093,-0.044,0.049,0.068,-0.073,0.0,0.073,0.068,0.034,-0.073,-0.073,-0.122
2.77,-0.083,-0.034,0.049,0.059,-0.068,0.005,0.083,0.073,0.044,-0.054,-0.059,-0.117
2.772,-0.088,-0.034,0.054,0.063,-0.073,0.01,0.083,0.073,0.049,-0.049,-0.054,-0.122
2.774,-0.093,-0.029,0.063,0.063,-0.078,0.015,0.078,0.078,0.054,-0.044,-0.054,-0.117
2.776,-0.098,-0.02,0.078,0.059,-0.088,0.029,0.078,0.078,0.049,-0.054,-0.063,-0.122
2.778,-0.078,-0.005,0.073,0.044,-0.078,0.034,0.078,0.098,0.044,-0.049,-0.059,-0.122
2.78,-0.088,-0.01,0.078,0.049,-0.083,0.034,0.083,0.112,0.049,-0.054,-0.073,-0.137
2.782,-0.102,-0.029,0.073,0.068,-0.088,0.02,0.083,0.122,0.059,-0.054,-0.078,-0.151
2.784,-0.098,-0.034,0.063,0.068,-0.083,0.015,0.093,0.127,0.068,-0.054,-0.073,-0.151
2.786,-0.098,-0.049,0.049,0.073,-0.073,0.0,0.093,0.137,0.073,-0.054,-0.068,-0.142
2.788,-0.102,-0.049,0.054,0.078,-0.078,0.0,0.102,0.127,0.102,-0.044,-0.054,-0.137
2.79,-0.078,-0.02,0.059,0.049,-0.068,0.02,0.107,0.127,0.117,-0.024,-0.029,-0.117
2.792,-0.093,-0.039,0.054,0.068,-0.073,0.005,0.102,0.117,0.117,-0.015,-0.024,-0.112
2.794,-0.112,-0.059,0.054,0.088,-0.083,-0.005,0.102,0.112,0.112,-0.015,-0.02,-0.102
2.796,-0.088,-0.039,0.049,0.063,-0.068,0.005,0.107,0.122,0.117,0.0,-0.01,-0.088
2.798,-0.073,-0.02,0.054,0.049,-0.063,0.015,0.112,0.132,0.117,0.0,-0.01,-0.088
2.8,-0.068,-0.029,0.039,0.049,-0.054,0.005,0.107,0.142,0.112,-0.015,-0.024,-0.102
2.802,-0.073,-0.02,0.054,0.049,-0.063,0.015,0.122,0.166,0.122,-0.015,-0.024,-0.107
2.804,-0.083,-0.024,0.059,0.054,-0.073,0.015,0.117,0.166,0.127,-0.024,-0.049,-0.132
2.806,-0.102,-0.024,0.078,0.063,-0.093,0.024,0.127,0.176,0.132,-0.029,-0.049,-0.127
2.808,-0.117,-0.034,0.083,0.078,-0.102,0.024,0.122,0.166,0.137,-0.029,-0.054,-0.142
2.81,-0.112,-0.029,0.083,0.073,-0.098,0.024,0.122,0.156,0.142,-0.024,-0.044,-0.142
2.812,-0.088,-0.024,0.063,0.059,-0.078,0.02,0.122,0.151,0.142,-0.02,-0.034,-0.127
2.814,-0.083,-0.01,0.073,0.049,-0.078,0.029,0.127,0.151,0.146,-0.01,-0.02,-0.107
2.816,-0.093,-0.02,0.073,0.059,-0.083,0.024,0.127,0.151,0.137,-0.015,-0.02,-0.098
2.818,-0.093,-0.02,0.073,0.059,-0.083,0.024,0.122,0.161,0.117,-0.02,-0.02,-0.098
2.82,-0.102,-0.034,0.068,0.068,-0.088,0.015,0.122,0.171,0.127,-0.02,-0.02,-0.098
2.822,-0.102,-0.024,0.078,0.063,-0.093,0.024,0.132,0.185,0.132,-0.01,-0.01,-0.098
2.824,-0.088,-0.015,0.073,0.054,-0.083,0.029,0.142,0.21,0.151,-0.005,0.0,-0.088
2.826,-0.102,-0.029,0.073,0.068,-0.088,0.02,0.146,0.22,0.166,-0.015,0.0,-0.088
2.828,-0.117,-0.039,0.078,0.078,-0.098,0.02,0.146,0.21,0.171,-0.024,-0.01,-0.098
2.83,-0.132,-0.054,0.078,0.093,-0.107,0.01,0.151,0.205,0.176,-0.024,0.0,-0.093
2.832,-0.112,-0.039,0.073,0.078,-0.093,0.015,0.151,0.205,0.181,-0.015,0.005,-0.083
2.834,-0.112,-0.034,0.078,0.073,-0.098,0.02,0.156,0.215,0.19,0.0,0.015,-0.063
2.836,-0.112,-0.029,0.083,0.073,-0.098,0.024,0.151,0.205,0.19,0.005,0.024,-0.063
2.838,-0.117,-0.034,0.083,0.078,-0.102,0.024,0.146,0.215,0.181,0.0,0.029,-0.059
2.84,-0.117,-0.034,0.083,0.078,-0.102,0.024,0.156,0.229,0.181,-0.01,0.01,-0.068
2.842,-0.107,-0.024,0.083,0.068,-0.098,0.029,0.161,0.244,0.19,-0.01,0.005,-0.073
2.844,-0.112,-0.024,0.088,0.068,-0.102,0.029,0.161,0.254,0.19,-0.02,-0.01,-0.078
2.846,-0.112,-0.029,0.083,0.073,-0.098,0.024,0.161,0.254,0.185,-0.029,-0.02,-0.083
2.848,-0.093,-0.005,0.088,0.049,-0.093,0.039,0.171,0.249,0.205,-0.024,-0.01,-0.088
2.85,-0.117,-0.015,0.102,0.068,-0.112,0.044,0.171,0.239,0.21,-0.005,0.01,-0.073
2.852,-0.117,-0.02,0.098,0.068,-0.107,0.039,0.156,0.229,0.21,0.0,0.01,-0.068
2.854,-0.117,-0.024,0.093,0.073,-0.107,0.034,0.166,0.234,0.215,0.0,0.02,-0.049
2.856,-0.132,-0.044,0.088,0.088,-0.112,0.02,0.166,0.244,0.224,0.01,0.034,-0.049
2.858,-0.107,-0.02,0.088,0.063,-0.098,0.034,0.166,0.259,0.224,0.01,0.034,-0.049
2.86,-0.102,0.0,0.102,0.054,-0.102,0.049,0.181,0.268,0.229,0.015,0.034,-0.049
2.862,-0.107,-0.015,0.093,0.063,-0.102,0.039,0.171,0.273,0.224,0.015,0.029,-0.068
2.864,-0.102,-0.005,0.098,0.054,-0.102,0.044,0.181,0.293,0.234,0.02,0.039,-0.044
2.866,-0.098,0.0,0.098,0.049,-0.098,0.049,0.185,0.298,0.234,0.024,0.044,-0.039
2.868,-0.117,-0.01,0.107,0.063,-0.112,0.049,0.195,0.288,0.244,0.034,0.054,-0.044
2.87,-0.112,0.0,0.112,0.059,-0.112,0.054,0.19,0.293,0.259,0.049,0.063,-0.034
2.872,-0.098,0.005,0.102,0.049,-0.102,0.054,0.195,0.293,0.264,0.054,0.073,-0.02
2.874,-0.098,0.01,0.107,0.044,-0.102,0.059,0.19,0.298,0.273,0.059,0.078,-0.01
2.876,-0.112,-0.01,0.102,0.063,-0.107,0.044,0.19,0.298,0.283,0.068,0.088,0.005
2.878,-0.117,-0.015,0.102,0.068,-0.112,0.044,0.181,0.298,0.268,0.054,0.073,-0.005
2.88,-0.107,-0.01,0.098,0.059,-0.102,0.044,0.19,0.317,0.278,0.063,0.083,0.0
2.882,-0.112,-0.005,0.107,0.059,-0.112,0.049,0.2,0.332,0.283,0.068,0.083,0.005
2.884,-0.098,-0.01,0.088,0.054,-0.093,0.039,0.2,0.342,0.293,0.073,0.093,0.01
2.886,-0.083,-0.015,0.068,0.049,-0.078,0.024,0.195,0.346,0.293,0.068,0.083,0.005
2.888,-0.098,-0.015,0.083,0.059,-0.093,0.034,0.21,0.346,0.307,0.073,0.088,-0.005
2.89,-0.102,-0.005,0.098,0.054,-0.102,0.044,0.21,0.346,0.317,0.083,0.093,0.0
2.892,-0.083,0.005,0.088,0.039,-0.088,0.044,0.22,0.351,0.327,0.088,0.098,0.01
