time,I,II,III,aVR,aVL,aVF,V1,V2,V3,V4,V5,V6
0.0,0.005,0.0,-0.005,0.0,0.005,-0.005,0.132,0.117,0.049,0.005,-0.078,-0.098
0.002,0.024,0.029,0.005,-0.024,0.01,0.015,0.137,0.137,0.073,0.024,-0.063,-0.088
0.004,-0.02,0.024,0.044,0.0,-0.034,0.034,0.151,0.146,0.083,0.039,-0.054,-0.078
0.006,-0.054,0.01,0.063,0.024,-0.059,0.034,0.156,0.156,0.088,0.034,-0.054,-0.068
0.008,-0.024,0.01,0.034,0.01,-0.029,0.02,0.142,0.146,0.073,0.029,-0.059,-0.083
0.01,-0.029,0.0,0.029,0.015,-0.029,0.015,0.132,0.137,0.063,0.024,-0.068,-0.088
0.012,0.015,0.024,0.01,-0.02,0.0,0.015,0.137,0.146,0.068,0.029,-0.063,-0.078
0.014,0.02,0.01,-0.01,-0.015,0.015,0.0,0.132,0.146,0.059,0.024,-0.068,-0.078
0.016,0.0,-0.02,-0.02,0.01,0.01,-0.02,0.112,0.132,0.044,0.005,-0.088,-0.102
0.018,-0.02,-0.024,-0.005,0.024,-0.01,-0.015,0.122,0.142,0.049,0.015,-0.088,-0.102
0.02,-0.01,-0.005,0.005,0.01,-0.01,0.0,0.127,0.156,0.059,0.024,-0.073,-0.102
0.022,0.034,0.054,0.02,-0.044,0.005,0.034,0.146,0.176,0.088,0.049,-0.054,-0.088
0.024,0.005,0.02,0.015,-0.01,-0.005,0.015,0.122,0.137,0.068,0.034,-0.068,-0.102
0.026,0.005,0.015,0.01,-0.01,-0.005,0.01,0.098,0.107,0.059,0.02,-0.078,-0.117
0.028,0.015,0.0,-0.015,-0.005,0.015,-0.01,0.073,0.083,0.049,0.015,-0.083,-0.122
0.03,0.005,0.02,0.015,-0.01,-0.005,0.015,0.073,0.088,0.049,0.01,-0.078,-0.112
0.032,-0.039,0.02,0.059,0.01,-0.049,0.039,0.083,0.102,0.059,0.015,-0.059,-0.093
0.034,-0.063,-0.015,0.049,0.039,-0.059,0.015,0.073,0.093,0.049,0.0,-0.068,-0.102
0.036,-0.078,-0.029,0.049,0.054,-0.063,0.01,0.063,0.093,0.044,0.005,-0.073,-0.107
0.038,-0.063,-0.01,0.054,0.039,-0.059,0.02,0.063,0.093,0.054,0.01,-0.073,-0.107
0.04,-0.044,-0.005,0.039,0.024,-0.044,0.015,0.049,0.083,0.049,0.01,-0.073,-0.117
0.042,-0.073,-0.039,0.034,0.059,-0.054,-0.005,0.029,0.059,0.039,0.0,-0.088,-0.132
0.044,-0.049,-0.029,0.02,0.039,-0.034,-0.005,0.015,0.049,0.044,-0.015,-0.093,-0.137
0.046,-0.068,-0.054,0.015,0.063,-0.044,-0.02,0.005,0.044,0.039,-0.015,-0.107,-0.142
0.048,-0.073,-0.044,0.029,0.059,-0.054,-0.01,0.01,0.059,0.054,0.005,-0.083,-0.127
0.05,-0.049,-0.034,0.015,0.044,-0.034,-0.01,0.015,0.059,0.059,0.01,-0.078,-0.127
0.052,-0.024,-0.024,0.0,0.024,-0.015,-0.015,0.01,0.054,0.059,0.01,-0.078,-0.127
0.054,-0.029,-0.02,0.01,0.024,-0.02,-0.005,0.015,0.063,0.059,0.024,-0.078,-0.122
0.056,0.015,0.02,0.005,-0.015,0.005,0.01,0.015,0.068,0.073,0.039,-0.068,-0.112
0.058,0.005,-0.02,-0.024,0.01,0.015,-0.024,0.0,0.054,0.059,0.02,-0.088,-0.132
0.06,0.01,-0.02,-0.029,0.005,0.02,-0.024,-0.01,0.054,0.059,0.015,-0.098,-0.137
0.062,0.005,-0.015,-0.02,0.005,0.01,-0.02,0.0,0.059,0.068,0.02,-0.107,-0.142
0.064,0.024,0.005,-0.02,-0.015,0.02,-0.01,0.005,0.059,0.078,0.029,-0.098,-0.137
0.066,-0.01,-0.024,-0.015,0.02,0.0,-0.02,-0.01,0.049,0.068,0.01,-0.117,-0.156
0.068,-0.029,-0.039,-0.01,0.034,-0.01,-0.024,-0.01,0.054,0.078,0.02,-0.112,-0.151
0.07,-0.005,-0.029,-0.024,0.02,0.01,-0.029,-0.015,0.049,0.073,0.01,-0.122,-0.146
0.072,-0.02,-0.044,-0.024,0.034,0.0,-0.034,-0.024,0.049,0.068,0.0,-0.127,-0.156
0.074,-0.005,-0.015,-0.01,0.01,0.0,-0.015,-0.01,0.068,0.078,0.024,-0.117,-0.142
0.076,-0.015,-0.029,-0.015,0.024,0.0,-0.024,-0.015,0.068,0.078,0.02,-0.117,-0.142
0.078,-0.044,-0.059,-0.015,0.054,-0.015,-0.039,-0.02,0.068,0.073,0.005,-0.137,-0.156
0.08,-0.029,-0.044,-0.015,0.039,-0.01,-0.029,-0.02,0.083,0.083,0.005,-0.137,-0.161
0.082,0.005,-0.02,-0.024,0.01,0.015,-0.024,-0.005,0.088,0.098,0.015,-0.137,-0.161
0.084,-0.029,-0.059,-0.029,0.044,0.0,-0.044,-0.01,0.088,0.102,0.01,-0.146,-0.171
0.086,0.015,-0.005,-0.02,-0.005,0.015,-0.015,0.005,0.107,0.117,0.015,-0.137,-0.166
0.088,-0.015,-0.02,-0.005,0.02,-0.005,-0.015,0.005,0.107,0.112,0.01,-0.142,-0.171
0.09,-0.01,-0.015,-0.005,0.015,-0.005,-0.01,0.01,0.112,0.117,0.015,-0.137,-0.166
0.092,-0.049,-0.044,0.005,0.049,-0.029,-0.02,0.015,0.122,0.107,0.005,-0.137,-0.166
0.094,-0.054,-0.044,0.01,0.049,-0.034,-0.02,0.024,0.132,0.112,0.005,-0.137,-0.166
0.096,-0.029,-0.024,0.005,0.029,-0.02,-0.01,0.039,0.146,0.132,0.02,-0.132,-0.151
0.098,-0.044,-0.024,0.02,0.034,-0.034,-0.005,0.049,0.156,0.127,0.015,-0.137,-0.156
0.1,-0.059,-0.015,0.044,0.039,-0.054,0.015,0.063,0.181,0.142,0.02,-0.127,-0.156
0.102,-0.059,-0.01,0.049,0.034,-0.054,0.02,0.073,0.185,0.146,0.02,-0.137,-0.156
0.104,-0.029,0.015,0.044,0.01,-0.039,0.029,0.083,0.195,0.151,0.02,-0.132,-0.156
0.106,-0.054,0.0,0.054,0.029,-0.054,0.024,0.088,0.205,0.151,0.02,-0.132,-0.161
0.108,-0.029,0.034,0.063,0.0,-0.049,0.049,0.098,0.215,0.161,0.029,-0.122,-0.146
0.11,-0.063,0.015,0.078,0.024,-0.073,0.044,0.093,0.205,0.146,0.024,-0.127,-0.142
0.112,-0.083,-0.01,0.073,0.049,-0.078,0.029,0.093,0.2,0.137,0.02,-0.132,-0.146
0.114,-0.044,0.024,0.068,0.01,-0.059,0.044,0.102,0.215,0.137,0.024,-0.132,-0.146
0.116,-0.01,0.059,0.068,-0.024,-0.039,0.063,0.117,0.229,0.146,0.034,-0.127,-0.137
0.118,-0.005,0.034,0.039,-0.015,-0.024,0.034,0.107,0.22,0.132,0.015,-0.142,-0.151
0.12,-0.005,0.02,0.024,-0.005,-0.015,0.02,0.102,0.215,0.127,0.01,-0.156,-0.166
0.122,0.01,0.063,0.054,-0.034,-0.024,0.059,0.127,0.239,0.151,0.029,-0.137,-0.142
0.124,0.054,0.132,0.078,-0.093,-0.015,0.102,0.151,0.273,0.181,0.059,-0.107,-0.112
0.126,-0.01,0.088,0.098,-0.039,-0.054,0.093,0.142,0.254,0.171,0.054,-0.112,-0.122
0.128,-0.054,0.063,0.117,-0.005,-0.088,0.088,0.142,0.254,0.166,0.059,-0.107,-0.112
0.13,-0.044,0.088,0.132,-0.02,-0.088,0.107,0.156,0.264,0.171,0.078,-0.093,-0.093
0.132,-0.024,0.102,0.127,-0.039,-0.078,0.112,0.146,0.259,0.161,0.078,-0.093,-0.088
0.134,-0.068,0.034,0.102,0.02,-0.088,0.068,0.112,0.22,0.122,0.049,-0.107,-0.107
0.136,0.024,0.073,0.049,-0.049,-0.015,0.059,0.112,0.215,0.122,0.054,-0.107,-0.098
0.138,0.044,0.093,0.049,-0.068,-0.005,0.068,0.107,0.205,0.112,0.054,-0.098,-0.093
0.14,0.073,0.112,0.039,-0.093,0.015,0.073,0.112,0.21,0.112,0.059,-0.093,-0.088
0.142,0.083,0.117,0.034,-0.098,0.024,0.073,0.112,0.195,0.102,0.059,-0.102,-0.088
0.144,-0.005,0.034,0.039,-0.015,-0.024,0.034,0.093,0.176,0.083,0.039,-0.127,-0.107
0.146,-0.02,0.034,0.054,-0.005,-0.039,0.044,0.098,0.171,0.083,0.034,-0.117,-0.102
0.148,-0.039,0.034,0.073,0.005,-0.059,0.054,0.102,0.171,0.088,0.049,-0.098,-0.088
0.15,-0.039,0.059,0.098,-0.01,-0.068,0.078,0.098,0.161,0.088,0.063,-0.073,-0.063
0.152,0.044,0.142,0.098,-0.093,-0.029,0.117,0.102,0.171,0.102,0.098,-0.044,-0.024
0.154,0.0,0.088,0.088,-0.044,-0.044,0.088,0.063,0.122,0.063,0.078,-0.049,-0.029
0.156,0.034,0.088,0.054,-0.059,-0.01,0.068,0.024,0.088,0.054,0.073,-0.049,-0.034
0.158,-0.029,0.01,0.039,0.01,-0.034,0.024,-0.029,0.044,0.024,0.044,-0.078,-0.059
0.16,-0.02,0.005,0.024,0.01,-0.024,0.015,-0.049,0.034,0.024,0.049,-0.073,-0.063
0.162,0.044,0.073,0.029,-0.059,0.005,0.049,-0.039,0.049,0.039,0.078,-0.044,-0.039
0.164,0.01,0.034,0.024,-0.02,-0.01,0.029,-0.059,0.029,0.029,0.063,-0.049,-0.044
0.166,0.005,0.02,0.015,-0.01,-0.005,0.015,-0.068,0.015,0.029,0.054,-0.049,-0.044
0.168,-0.005,0.024,0.029,-0.01,-0.02,0.024,-0.063,0.02,0.029,0.068,-0.034,-0.034
0.17,0.0,0.034,0.034,-0.015,-0.02,0.034,-0.068,0.01,0.024,0.073,-0.024,-0.02
0.172,0.059,0.063,0.005,-0.059,0.024,0.034,-0.078,-0.01,0.01,0.063,-0.024,-0.024
0.174,0.059,0.054,-0.005,-0.054,0.029,0.024,-0.083,-0.024,0.0,0.068,-0.024,-0.02
0.176,0.01,0.039,0.029,-0.024,-0.01,0.034,-0.073,-0.015,0.015,0.078,-0.01,-0.005
0.178,-0.029,0.029,0.059,0.0,-0.044,0.044,-0.078,-0.02,0.01,0.073,-0.015,-0.005
0.18,0.0,0.034,0.034,-0.015,-0.02,0.034,-0.068,-0.02,0.015,0.078,-0.01,-0.01
0.182,-0.005,0.015,0.02,-0.005,-0.015,0.015,-0.088,-0.039,0.0,0.049,-0.034,-0.029
0.184,0.029,0.054,0.024,-0.039,0.0,0.039,-0.078,-0.029,0.015,0.059,-0.015,-0.01
0.186,0.083,0.107,0.024,-0.093,0.029,0.063,-0.068,-0.02,0.02,0.073,-0.005,0.0
0.188,-0.02,0.015,0.034,0.005,-0.029,0.024,-0.102,-0.059,-0.01,0.039,-0.034,-0.024
0.19,-0.01,0.015,0.024,0.0,-0.02,0.02,-0.102,-0.063,-0.015,0.044,-0.029,-0.015
0.192,0.02,0.039,0.02,-0.029,0.0,0.029,-0.098,-0.063,-0.02,0.039,-0.029,-0.015
0.194,0.01,0.01,0.0,-0.01,0.005,0.005,-0.117,-0.083,-0.034,0.02,-0.049,-0.034
0.196,-0.024,-0.02,0.005,0.024,-0.015,-0.01,-0.127,-0.088,-0.039,0.015,-0.054,-0.044
0.198,0.01,0.02,0.01,-0.015,0.0,0.015,-0.117,-0.073,-0.029,0.02,-0.044,-0.039
0.2,0.054,0.054,0.0,-0.054,0.024,0.024,-0.102,-0.054,-0.015,0.029,-0.034,-0.024
0.202,0.107,0.107,0.0,-0.107,0.054,0.054,-0.098,-0.049,-0.005,0.039,-0.024,-0.02
0.204,-0.02,-0.024,-0.005,0.024,-0.01,-0.015,-0.132,-0.088,-0.044,-0.01,-0.068,-0.063
0.206,-0.068,-0.044,0.024,0.059,-0.049,-0.01,-0.127,-0.078,-0.039,-0.01,-0.059,-0.059
0.208,-0.005,0.054,0.059,-0.024,-0.034,0.054,-0.083,-0.029,0.015,0.044,-0.01,-0.01
0.21,-0.024,0.029,0.054,0.0,-0.039,0.039,-0.088,-0.044,0.005,0.034,-0.015,-0.01
0.212,-0.059,-0.005,0.054,0.034,-0.059,0.024,-0.088,-0.039,-0.005,0.034,-0.015,-0.015
0.214,-0.01,0.044,0.054,-0.015,-0.034,0.049,-0.073,-0.015,0.005,0.044,0.0,-0.005
0.216,0.02,0.044,0.024,-0.029,-0.005,0.034,-0.078,-0.02,0.0,0.034,-0.01,-0.015
0.218,-0.034,0.0,0.034,0.02,-0.034,0.015,-0.078,-0.024,-0.01,0.029,-0.015,-0.015
0.22,-0.029,0.01,0.039,0.01,-0.034,0.024,-0.068,-0.015,0.005,0.034,-0.005,-0.015
0.222,-0.02,0.02,0.039,0.0,-0.029,0.029,-0.063,-0.015,0.015,0.039,-0.005,-0.015
0.224,0.015,0.034,0.02,-0.024,-0.005,0.024,-0.059,-0.01,0.015,0.044,-0.01,-0.01
0.226,0.039,0.039,0.0,-0.039,0.02,0.02,-0.063,-0.01,0.01,0.034,-0.015,-0.02
0.228,-0.02,0.029,0.049,-0.005,-0.034,0.039,-0.054,0.0,0.015,0.049,-0.01,-0.015
0.23,-0.01,0.068,0.078,-0.029,-0.044,0.073,-0.024,0.02,0.034,0.073,0.024,0.015
0.232,0.0,0.059,0.059,-0.029,-0.029,0.059,-0.039,0.015,0.02,0.063,0.015,0.01
0.234,-0.01,0.02,0.029,-0.005,-0.02,0.024,-0.054,0.005,0.005,0.054,0.0,-0.01
0.236,0.02,0.039,0.02,-0.029,0.0,0.029,-0.044,0.005,0.01,0.054,0.005,-0.01
0.238,0.039,0.063,0.024,-0.049,0.005,0.044,-0.029,0.02,0.02,0.059,0.015,0.0
0.24,0.063,0.078,0.015,-0.068,0.024,0.044,-0.024,0.02,0.02,0.059,0.01,-0.005
0.242,0.02,0.039,0.02,-0.029,0.0,0.029,-0.034,0.005,0.005,0.044,-0.005,-0.015
0.244,-0.005,0.049,0.054,-0.02,-0.029,0.049,-0.024,0.015,0.015,0.054,0.01,0.0
0.246,0.005,0.073,0.068,-0.039,-0.034,0.068,-0.01,0.02,0.024,0.063,0.024,0.015
0.248,0.0,0.054,0.054,-0.024,-0.029,0.054,-0.02,0.005,0.015,0.054,0.01,0.0
0.25,0.029,0.054,0.024,-0.039,0.0,0.039,-0.034,-0.015,-0.005,0.044,0.0,-0.005
0.252,0.044,0.054,0.01,-0.049,0.015,0.029,-0.024,-0.015,-0.015,0.039,0.0,-0.01
0.254,0.049,0.068,0.02,-0.059,0.015,0.044,0.0,0.0,-0.01,0.049,0.01,0.0
0.256,-0.024,0.02,0.044,0.005,-0.034,0.029,-0.01,-0.015,-0.02,0.034,-0.005,-0.01
0.258,-0.068,-0.01,0.059,0.039,-0.063,0.024,0.0,-0.015,-0.029,0.024,-0.015,-0.01
0.26,-0.078,-0.015,0.063,0.049,-0.073,0.024,0.005,-0.015,-0.029,0.02,-0.024,-0.02
0.262,-0.005,0.059,0.063,-0.024,-0.034,0.059,0.02,-0.01,-0.02,0.024,-0.02,-0.02
0.264,0.02,0.054,0.034,-0.034,-0.01,0.044,0.02,-0.02,-0.02,0.034,-0.015,-0.015
0.266,0.034,0.068,0.034,-0.049,0.0,0.049,0.034,-0.015,-0.01,0.039,0.0,-0.01
0.268,0.039,0.098,0.059,-0.068,-0.01,0.078,0.044,0.005,0.01,0.054,0.015,0.01
0.27,-0.024,0.024,0.049,0.0,-0.039,0.034,0.024,-0.015,-0.01,0.034,-0.005,-0.01
0.272,-0.034,0.024,0.059,0.005,-0.049,0.039,0.029,-0.015,-0.015,0.039,-0.005,-0.005
0.274,-0.005,0.078,0.083,-0.034,-0.044,0.078,0.059,0.015,0.01,0.063,0.024,0.02
0.276,0.034,0.107,0.073,-0.068,-0.02,0.088,0.068,0.024,0.02,0.073,0.029,0.029
0.278,-0.024,0.054,0.078,-0.015,-0.054,0.063,0.059,0.02,0.005,0.044,0.005,0.0
0.28,-0.044,0.034,0.078,0.005,-0.063,0.054,0.059,0.015,0.005,0.039,-0.01,-0.015
0.282,-0.029,0.044,0.073,-0.005,-0.054,0.059,0.073,0.024,0.015,0.044,-0.005,-0.01
0.284,-0.088,0.01,0.098,0.039,-0.093,0.054,0.073,0.015,0.02,0.044,-0.01,-0.01
0.286,-0.073,0.039,0.112,0.02,-0.093,0.073,0.068,0.02,0.024,0.049,0.0,-0.005
0.288,-0.068,0.034,0.102,0.02,-0.088,0.068,0.054,0.005,0.024,0.049,0.0,-0.005
0.29,-0.015,0.078,0.093,-0.029,-0.054,0.083,0.054,0.015,0.044,0.073,0.024,0.024
0.292,-0.029,0.059,0.088,-0.015,-0.059,0.073,0.034,0.005,0.029,0.059,0.015,0.01
0.294,-0.034,0.049,0.083,-0.005,-0.059,0.063,0.024,0.005,0.024,0.054,0.015,0.01
0.296,-0.068,0.024,0.093,0.024,-0.083,0.059,0.015,-0.005,0.024,0.054,0.0,0.0
0.298,-0.024,0.063,0.088,-0.02,-0.059,0.073,0.02,0.005,0.034,0.059,0.005,0.0
0.3,-0.015,0.059,0.073,-0.02,-0.044,0.063,0.015,0.0,0.024,0.049,-0.01,-0.01
0.302,-0.034,0.049,0.083,-0.005,-0.059,0.063,0.02,0.005,0.029,0.059,0.0,-0.005
0.304,-0.054,0.039,0.093,0.01,-0.073,0.063,0.02,0.01,0.039,0.063,0.0,0.0
0.306,-0.01,0.068,0.078,-0.029,-0.044,0.073,0.01,0.01,0.034,0.054,0.0,0.0
0.308,0.0,0.049,0.049,-0.024,-0.024,0.049,-0.015,-0.005,0.024,0.044,-0.01,-0.01
0.31,-0.029,0.039,0.068,-0.005,-0.049,0.054,-0.02,0.0,0.034,0.054,0.005,0.005
0.312,-0.059,0.034,0.093,0.015,-0.078,0.063,-0.024,0.005,0.034,0.054,0.01,0.015
0.314,-0.034,0.049,0.083,-0.005,-0.059,0.063,-0.039,0.0,0.029,0.049,0.005,0.01
0.316,-0.005,0.054,0.059,-0.024,-0.034,0.054,-0.044,0.0,0.029,0.049,0.005,0.01
0.318,-0.029,0.029,0.059,0.0,-0.044,0.044,-0.063,-0.015,0.015,0.029,-0.01,-0.01
0.32,-0.02,0.024,0.044,0.0,-0.034,0.034,-0.059,-0.015,0.01,0.024,-0.02,-0.015
0.322,0.005,0.034,0.029,-0.02,-0.015,0.029,-0.054,-0.005,0.02,0.029,-0.015,-0.01
0.324,-0.063,-0.015,0.049,0.039,-0.059,0.015,-0.063,-0.015,0.015,0.02,-0.029,-0.02
0.326,-0.083,-0.029,0.054,0.059,-0.068,0.01,-0.059,-0.015,0.005,0.01,-0.034,-0.024
0.328,-0.039,-0.01,0.029,0.024,-0.034,0.01,-0.054,-0.005,0.015,0.024,-0.024,-0.02
0.33,0.01,0.034,0.024,-0.02,-0.01,0.029,-0.034,0.015,0.029,0.029,-0.01,-0.005
0.332,0.059,0.049,-0.01,-0.054,0.034,0.02,-0.029,0.02,0.024,0.029,-0.02,-0.005
0.334,0.054,-0.005,-0.059,-0.024,0.054,-0.034,-0.049,-0.005,-0.005,-0.005,-0.044,-0.034
0.336,0.044,-0.015,-0.059,-0.015,0.049,-0.039,-0.049,0.0,-0.01,-0.015,-0.054,-0.039
0.338,0.005,-0.01,-0.015,0.005,0.01,-0.015,-0.024,0.02,0.01,0.005,-0.034,-0.02
0.34,-0.015,-0.015,0.0,0.015,-0.01,-0.01,-0.015,0.034,0.015,0.015,-0.034,-0.02
0.342,-0.049,-0.059,-0.01,0.054,-0.02,-0.034,-0.034,0.015,0.0,-0.005,-0.054,-0.039
0.344,-0.01,-0.029,-0.02,0.02,0.005,-0.024,-0.039,0.024,0.01,0.0,-0.049,-0.039
0.346,0.063,0.049,-0.015,-0.054,0.039,0.015,-0.015,0.039,0.024,0.024,-0.015,-0.005
0.348,0.024,0.015,-0.01,-0.02,0.015,0.0,-0.02,0.024,0.015,0.024,-0.02,-0.01
0.35,0.005,0.005,0.0,-0.005,0.0,0.0,-0.029,0.01,0.005,0.01,-0.024,-0.01
0.352,0.005,0.01,0.005,-0.005,0.0,0.005,-0.039,-0.005,-0.01,0.005,-0.029,-0.015
0.354,0.015,0.01,-0.005,-0.01,0.01,0.0,-0.039,-0.015,-0.015,0.005,-0.029,-0.02
0.356,0.029,0.005,-0.024,-0.015,0.024,-0.01,-0.044,-0.015,-0.02,0.0,-0.039,-0.029
0.358,0.039,0.02,-0.02,-0.029,0.029,0.0,-0.034,-0.02,-0.024,0.0,-0.039,-0.029
0.36,0.01,0.024,0.015,-0.015,-0.005,0.02,-0.02,-0.005,-0.015,0.01,-0.029,-0.015
0.362,-0.044,0.029,0.073,0.01,-0.059,0.049,-0.01,0.01,0.005,0.024,-0.015,0.0
0.364,-0.059,0.024,0.083,0.02,-0.073,0.054,-0.015,-0.005,0.0,0.015,-0.02,-0.005
0.366,-0.049,0.01,0.059,0.02,-0.054,0.034,-0.015,-0.005,-0.01,0.01,-0.02,-0.005
0.368,0.024,0.073,0.049,-0.049,-0.015,0.059,0.005,0.02,0.01,0.034,0.0,0.015
0.37,0.015,0.039,0.024,-0.024,-0.005,0.029,-0.015,-0.01,-0.015,0.0,-0.024,-0.01
0.372,-0.044,-0.044,0.0,0.044,-0.024,-0.024,-0.039,-0.039,-0.059,-0.044,-0.068,-0.049
0.374,0.0,-0.015,-0.015,0.01,0.005,-0.015,-0.02,-0.029,-0.059,-0.039,-0.073,-0.049
0.376,-0.015,-0.015,0.0,0.015,-0.01,-0.01,-0.01,-0.015,-0.063,-0.034,-0.068,-0.044
0.378,-0.039,-0.005,0.034,0.024,-0.039,0.015,0.005,-0.005,-0.063,-0.039,-0.063,-0.039
0.38,-0.088,-0.024,0.063,0.059,-0.078,0.02,0.015,-0.01,-0.063,-0.039,-0.068,-0.044
0.382,-0.102,-0.02,0.083,0.063,-0.093,0.029,0.034,0.0,-0.044,-0.02,-0.059,-0.029
0.384,-0.137,-0.049,0.088,0.093,-0.112,0.02,0.024,-0.015,-0.049,-0.029,-0.068,-0.044
0.386,-0.059,0.01,0.068,0.024,-0.063,0.039,0.044,0.005,-0.029,-0.015,-0.049,-0.024
0.388,0.029,0.088,0.059,-0.059,-0.015,0.073,0.059,0.029,-0.01,0.005,-0.024,-0.005
0.39,-0.059,0.0,0.059,0.029,-0.059,0.029,0.039,0.005,-0.044,-0.029,-0.059,-0.039
0.392,-0.088,-0.049,0.039,0.068,-0.063,-0.005,0.034,-0.005,-0.059,-0.039,-0.068,-0.059
0.394,-0.015,0.015,0.029,0.0,-0.024,0.02,0.044,0.005,-0.049,-0.029,-0.059,-0.049
0.396,-0.034,-0.01,0.024,0.024,-0.029,0.005,0.044,0.005,-0.054,-0.039,-0.068,-0.059
0.398,-0.01,0.02,0.029,-0.005,-0.02,0.024,0.059,0.015,-0.044,-0.029,-0.054,-0.049
0.4,-0.044,0.005,0.049,0.02,-0.049,0.024,0.068,0.02,-0.034,-0.029,-0.054,-0.044
0.402,-0.073,-0.015,0.059,0.044,-0.068,0.02,0.073,0.015,-0.044,-0.039,-0.068,-0.059
0.404,-0.024,0.034,0.059,-0.005,-0.044,0.044,0.088,0.039,-0.024,-0.024,-0.054,-0.054
0.406,-0.029,0.044,0.073,-0.005,-0.054,0.059,0.107,0.049,-0.02,-0.015,-0.049,-0.039
0.408,-0.098,-0.01,0.088,0.054,-0.093,0.039,0.088,0.029,-0.034,-0.034,-0.063,-0.054
0.41,-0.078,0.015,0.093,0.034,-0.088,0.054,0.093,0.034,-0.034,-0.034,-0.054,-0.044
0.412,-0.083,0.005,0.088,0.039,-0.088,0.044,0.083,0.024,-0.039,-0.034,-0.054,-0.044
0.414,-0.078,-0.01,0.068,0.044,-0.073,0.029,0.059,-0.005,-0.063,-0.054,-0.073,-0.063
0.416,-0.059,0.0,0.059,0.029,-0.059,0.029,0.049,-0.01,-0.059,-0.054,-0.073,-0.068
0.418,-0.088,-0.005,0.083,0.049,-0.088,0.039,0.054,0.005,-0.044,-0.044,-0.059,-0.059
0.42,-0.078,0.02,0.098,0.029,-0.088,0.059,0.044,0.01,-0.039,-0.034,-0.049,-0.049
0.422,-0.068,0.024,0.093,0.024,-0.083,0.059,0.029,0.01,-0.029,-0.034,-0.054,-0.049
0.424,-0.088,-0.015,0.073,0.054,-0.083,0.029,-0.01,-0.02,-0.054,-0.059,-0.073,-0.073
0.426,-0.117,-0.024,0.093,0.073,-0.107,0.034,-0.01,-0.02,-0.054,-0.054,-0.059,-0.063
0.428,-0.098,0.0,0.098,0.049,-0.098,0.049,-0.005,-0.015,-0.044,-0.049,-0.054,-0.049
0.43,-0.068,-0.02,0.049,0.044,-0.059,0.015,-0.024,-0.034,-0.063,-0.073,-0.073,-0.078
0.432,-0.044,-0.02,0.024,0.034,-0.034,0.0,-0.02,-0.029,-0.063,-0.073,-0.063,-0.073
0.434,-0.044,-0.02,0.024,0.034,-0.034,0.0,-0.029,-0.039,-0.073,-0.073,-0.073,-0.073
0.436,-0.049,-0.029,0.02,0.039,-0.034,-0.005,-0.039,-0.049,-0.078,-0.083,-0.083,-0.088
0.438,-0.029,-0.01,0.02,0.02,-0.024,0.005,-0.034,-0.039,-0.078,-0.078,-0.078,-0.083
0.44,-0.039,-0.015,0.024,0.029,-0.034,0.005,-0.044,-0.044,-0.088,-0.088,-0.088,-0.093
0.442,-0.034,-0.024,0.01,0.029,-0.024,-0.01,-0.044,-0.044,-0.078,-0.088,-0.093,-0.098
0.444,-0.005,0.0,0.005,0.005,-0.005,0.0,-0.024,-0.02,-0.054,-0.068,-0.068,-0.078
0.446,-0.029,0.005,0.034,0.015,-0.034,0.02,-0.015,-0.01,-0.044,-0.059,-0.054,-0.063
0.448,-0.112,-0.059,0.054,0.088,-0.083,-0.005,-0.024,-0.029,-0.054,-0.068,-0.063,-0.068
0.45,-0.073,-0.039,0.034,0.059,-0.054,-0.005,-0.024,-0.029,-0.059,-0.068,-0.063,-0.068
0.452,-0.049,-0.024,0.024,0.039,-0.039,0.0,-0.024,-0.029,-0.059,-0.063,-0.054,-0.063
0.454,-0.093,-0.063,0.029,0.078,-0.063,-0.02,-0.039,-0.044,-0.078,-0.078,-0.068,-0.078
0.456,-0.044,-0.039,0.005,0.044,-0.024,-0.02,-0.044,-0.049,-0.078,-0.078,-0.068,-0.078
0.458,-0.02,-0.039,-0.02,0.029,0.0,-0.029,-0.059,-0.054,-0.088,-0.088,-0.083,-0.093
0.46,-0.024,-0.039,-0.015,0.034,-0.005,-0.029,-0.068,-0.049,-0.078,-0.078,-0.078,-0.083
0.462,-0.044,-0.034,0.01,0.039,-0.029,-0.015,-0.049,-0.024,-0.054,-0.063,-0.063,-0.068
0.464,-0.054,-0.039,0.015,0.049,-0.034,-0.015,-0.049,-0.024,-0.054,-0.063,-0.063,-0.068
0.466,-0.073,-0.059,0.015,0.068,-0.044,-0.024,-0.054,-0.029,-0.059,-0.068,-0.068,-0.078
0.468,-0.059,-0.039,0.02,0.049,-0.039,-0.01,-0.039,-0.024,-0.049,-0.063,-0.054,-0.059
0.47,-0.01,0.005,0.015,0.005,-0.015,0.01,-0.024,-0.01,-0.039,-0.049,-0.044,-0.044
0.472,0.039,0.049,0.01,-0.044,0.015,0.029,-0.01,0.015,-0.02,-0.02,-0.015,-0.02
0.474,-0.054,-0.029,0.024,0.044,-0.039,-0.005,-0.02,0.0,-0.034,-0.044,-0.029,-0.034
0.476,-0.112,-0.098,0.015,0.107,-0.063,-0.044,-0.049,-0.034,-0.068,-0.068,-0.063,-0.068
0.478,-0.098,-0.132,-0.034,0.117,-0.034,-0.083,-0.068,-0.049,-0.093,-0.093,-0.093,-0.098
0.48,-0.024,-0.093,-0.068,0.059,0.02,-0.083,-0.054,-0.034,-0.073,-0.078,-0.083,-0.088
0.482,-0.049,-0.102,-0.054,0.078,0.0,-0.078,-0.049,-0.029,-0.068,-0.078,-0.083,-0.093
0.484,-0.059,-0.088,-0.029,0.073,-0.015,-0.059,-0.034,-0.01,-0.049,-0.059,-0.068,-0.078
0.486,-0.034,-0.054,-0.02,0.044,-0.01,-0.039,-0.02,0.005,-0.034,-0.054,-0.059,-0.063
0.488,-0.029,-0.044,-0.015,0.039,-0.01,-0.029,-0.01,0.02,-0.024,-0.044,-0.044,-0.054
0.49,-0.073,-0.063,0.01,0.068,-0.044,-0.029,-0.005,0.024,-0.024,-0.034,-0.039,-0.049
0.492,-0.083,-0.083,0.0,0.083,-0.044,-0.044,-0.005,0.024,-0.024,-0.039,-0.039,-0.049
0.494,-0.059,-0.068,-0.01,0.063,-0.024,-0.039,-0.01,0.024,-0.029,-0.039,-0.034,-0.049
0.496,-0.015,-0.01,0.005,0.015,-0.01,-0.005,0.02,0.054,-0.005,-0.01,-0.005,-0.02
0.498,-0.063,-0.044,0.02,0.054,-0.044,-0.015,0.02,0.049,0.0,-0.015,-0.015,-0.029
0.5,-0.024,-0.005,0.02,0.015,-0.024,0.005,0.034,0.068,0.015,0.005,0.0,-0.015
0.502,-0.073,-0.044,0.029,0.059,-0.054,-0.01,0.024,0.049,0.005,-0.01,-0.01,-0.029
0.504,-0.059,-0.029,0.029,0.044,-0.044,0.0,0.024,0.044,0.01,-0.01,-0.01,-0.034
0.506,-0.059,-0.024,0.034,0.044,-0.049,0.005,0.02,0.044,0.005,-0.01,-0.01,-0.034
0.508,-0.098,-0.044,0.054,0.073,-0.078,0.005,0.024,0.044,0.0,-0.015,-0.005,-0.024
0.51,-0.102,-0.024,0.078,0.063,-0.093,0.024,0.034,0.049,0.01,0.0,0.015,-0.005
0.512,-0.093,-0.034,0.059,0.063,-0.078,0.01,0.02,0.039,-0.005,-0.015,-0.005,-0.015
0.514,-0.078,-0.049,0.029,0.063,-0.054,-0.01,0.0,0.02,-0.029,-0.039,-0.029,-0.039
0.516,0.0,0.044,0.044,-0.02,-0.024,0.044,0.029,0.039,-0.015,-0.034,-0.024,-0.029
0.518,-0.063,0.024,0.088,0.02,-0.078,0.054,0.034,0.044,-0.02,-0.054,-0.049,-0.044
0.52,-0.098,0.044,0.142,0.029,-0.122,0.093,0.049,0.054,-0.01,-0.059,-0.054,-0.044
0.522,-0.083,0.093,0.176,-0.005,-0.132,0.132,0.073,0.068,0.0,-0.059,-0.044,-0.039
0.524,-0.098,0.107,0.205,-0.005,-0.151,0.156,0.073,0.059,-0.01,-0.063,-0.054,-0.029
0.526,-0.088,0.107,0.195,-0.01,-0.142,0.151,0.073,0.063,-0.015,-0.059,-0.034,-0.005
0.528,-0.122,0.049,0.171,0.039,-0.146,0.107,0.078,0.059,-0.015,-0.049,0.0,0.029
0.53,-0.112,0.01,0.122,0.054,-0.117,0.063,0.068,0.044,-0.029,-0.029,0.044,0.063
0.532,-0.039,0.01,0.049,0.015,-0.044,0.029,0.063,0.054,0.005,0.049,0.146,0.146
0.534,0.034,-0.005,-0.039,-0.015,0.034,-0.024,0.034,0.068,0.073,0.176,0.293,0.244
0.536,0.083,0.005,-0.078,-0.044,0.078,-0.039,-0.005,0.068,0.151,0.361,0.512,0.415
0.538,0.171,0.059,-0.112,-0.112,0.142,-0.029,-0.034,0.073,0.229,0.551,0.791,0.634
0.54,0.205,0.015,-0.19,-0.107,0.195,-0.088,-0.112,0.02,0.264,0.693,0.996,0.795
0.542,0.288,0.0,-0.288,-0.142,0.288,-0.146,-0.21,-0.039,0.327,0.854,1.225,0.966
0.544,0.381,-0.005,-0.386,-0.185,0.381,-0.195,-0.312,-0.107,0.425,1.069,1.479,1.161
0.546,0.483,0.078,-0.405,-0.278,0.444,-0.166,-0.4,-0.151,0.537,1.327,1.781,1.401
0.548,0.512,0.122,-0.39,-0.317,0.449,-0.137,-0.468,-0.229,0.547,1.484,1.996,1.576
0.55,0.571,0.151,-0.42,-0.361,0.493,-0.137,-0.522,-0.337,0.449,1.518,2.084,1.649
0.552,0.654,0.151,-0.503,-0.4,0.576,-0.176,-0.551,-0.395,0.361,1.518,2.074,1.63
0.554,0.649,0.098,-0.551,-0.371,0.6,-0.229,-0.571,-0.449,0.283,1.469,1.976,1.508
0.556,0.688,0.112,-0.576,-0.4,0.63,-0.234,-0.551,-0.503,0.166,1.327,1.81,1.371
0.558,0.654,0.068,-0.586,-0.361,0.62,-0.259,-0.537,-0.547,0.02,1.069,1.523,1.166
0.56,0.561,-0.039,-0.6,-0.259,0.581,-0.322,-0.493,-0.551,-0.112,0.761,1.157,0.888
0.562,0.522,-0.078,-0.6,-0.22,0.561,-0.342,-0.395,-0.488,-0.156,0.503,0.81,0.63
0.564,0.449,-0.137,-0.586,-0.156,0.517,-0.361,-0.298,-0.434,-0.278,0.156,0.429,0.381
0.566,0.332,-0.2,-0.532,-0.063,0.429,-0.366,-0.244,-0.488,-0.537,-0.332,-0.034,0.122
0.568,0.185,-0.264,-0.449,0.039,0.317,-0.356,-0.21,-0.561,-0.805,-0.786,-0.478,-0.117
0.57,0.073,-0.322,-0.395,0.127,0.234,-0.361,-0.181,-0.605,-0.966,-1.025,-0.732,-0.264
0.572,0.034,-0.317,-0.351,0.142,0.19,-0.337,-0.146,-0.63,-1.035,-1.147,-0.888,-0.371
0.574,0.005,-0.381,-0.386,0.19,0.195,-0.386,-0.185,-0.698,-1.069,-1.186,-0.996,-0.459
0.576,-0.059,-0.439,-0.381,0.249,0.161,-0.41,-0.239,-0.737,-1.02,-1.103,-0.956,-0.459
0.578,-0.049,-0.371,-0.322,0.21,0.137,-0.346,-0.249,-0.688,-0.898,-0.932,-0.83,-0.405
0.58,-0.063,-0.346,-0.283,0.205,0.107,-0.317,-0.244,-0.625,-0.781,-0.8,-0.722,-0.356
0.582,-0.063,-0.259,-0.195,0.161,0.063,-0.229,-0.21,-0.537,-0.644,-0.664,-0.605,-0.293
0.584,-0.083,-0.195,-0.112,0.142,0.015,-0.156,-0.185,-0.454,-0.522,-0.551,-0.512,-0.239
0.586,-0.146,-0.166,-0.02,0.156,-0.063,-0.093,-0.166,-0.39,-0.434,-0.464,-0.444,-0.205
0.588,-0.156,-0.132,0.024,0.146,-0.093,-0.054,-0.137,-0.303,-0.322,-0.371,-0.376,-0.171
0.59,-0.166,-0.132,0.034,0.151,-0.102,-0.049,-0.132,-0.229,-0.244,-0.312,-0.327,-0.156
0.592,-0.146,-0.102,0.044,0.127,-0.098,-0.029,-0.117,-0.161,-0.166,-0.244,-0.264,-0.122
0.594,-0.132,-0.093,0.039,0.112,-0.088,-0.029,-0.088,-0.102,-0.098,-0.19,-0.22,-0.107
0.596,-0.02,-0.039,-0.02,0.029,0.0,-0.029,-0.054,-0.039,-0.039,-0.142,-0.176,-0.083
0.598,-0.039,-0.088,-0.049,0.063,0.005,-0.068,-0.059,-0.029,-0.034,-0.137,-0.171,-0.098
0.6,-0.068,-0.132,-0.063,0.102,-0.005,-0.098,-0.059,-0.029,-0.039,-0.137,-0.171,-0.107
0.602,-0.024,-0.088,-0.063,0.059,0.02,-0.078,-0.039,-0.01,-0.024,-0.117,-0.156,-0.098
0.604,-0.029,-0.078,-0.049,0.054,0.01,-0.063,-0.029,0.005,-0.024,-0.107,-0.142,-0.093
0.606,-0.063,-0.083,-0.02,0.073,-0.024,-0.054,-0.024,0.015,-0.015,-0.093,-0.137,-0.093
0.608,-0.083,-0.112,-0.029,0.098,-0.029,-0.073,-0.029,0.01,-0.024,-0.107,-0.146,-0.112
0.61,-0.083,-0.107,-0.024,0.098,-0.029,-0.068,-0.02,0.015,-0.02,-0.102,-0.137,-0.107
0.612,-0.02,-0.039,-0.02,0.029,0.0,-0.029,0.005,0.049,0.01,-0.063,-0.102,-0.078
0.614,-0.049,-0.054,-0.005,0.054,-0.024,-0.029,0.01,0.059,0.015,-0.063,-0.098,-0.078
0.616,-0.068,-0.063,0.005,0.068,-0.039,-0.029,0.02,0.059,0.024,-0.059,-0.093,-0.073
0.618,-0.044,-0.024,0.02,0.034,-0.034,-0.005,0.039,0.078,0.049,-0.039,-0.068,-0.054
0.62,-0.117,-0.068,0.049,0.093,-0.083,-0.01,0.024,0.068,0.034,-0.034,-0.073,-0.059
0.622,-0.059,-0.005,0.054,0.034,-0.059,0.024,0.034,0.083,0.044,-0.024,-0.049,-0.034
0.624,-0.083,-0.044,0.039,0.063,-0.063,-0.005,0.034,0.063,0.039,-0.029,-0.054,-0.049
0.626,-0.098,-0.024,0.073,0.063,-0.088,0.024,0.039,0.073,0.039,-0.024,-0.054,-0.054
0.628,-0.044,-0.01,0.034,0.029,-0.039,0.01,0.044,0.078,0.049,-0.02,-0.049,-0.049
0.63,-0.059,-0.044,0.015,0.054,-0.039,-0.015,0.034,0.059,0.034,-0.044,-0.063,-0.063
0.632,-0.088,-0.024,0.063,0.059,-0.078,0.02,0.054,0.073,0.054,-0.024,-0.039,-0.039
0.634,-0.117,-0.039,0.078,0.078,-0.098,0.02,0.059,0.088,0.054,-0.02,-0.039,-0.034
0.636,-0.102,-0.049,0.054,0.078,-0.078,0.0,0.054,0.078,0.049,-0.034,-0.049,-0.049
0.638,-0.083,-0.039,0.044,0.063,-0.063,0.0,0.063,0.088,0.054,-0.024,-0.044,-0.044
0.64,-0.093,-0.034,0.059,0.063,-0.078,0.01,0.073,0.102,0.063,-0.015,-0.034,-0.039
0.642,-0.083,-0.049,0.034,0.068,-0.059,-0.01,0.059,0.088,0.049,-0.029,-0.049,-0.054
0.644,-0.054,-0.068,-0.015,0.063,-0.02,-0.044,0.039,0.073,0.039,-0.039,-0.063,-0.073
0.646,-0.044,-0.073,-0.029,0.059,-0.01,-0.054,0.029,0.063,0.024,-0.049,-0.083,-0.093
0.648,-0.029,-0.044,-0.015,0.039,-0.01,-0.029,0.044,0.078,0.044,-0.049,-0.078,-0.088
0.65,-0.029,0.005,0.034,0.015,-0.034,0.02,0.073,0.107,0.073,-0.015,-0.044,-0.054
0.652,0.0,0.059,0.059,-0.029,-0.029,0.059,0.093,0.117,0.088,0.01,-0.024,-0.029
0.654,-0.127,-0.078,0.049,0.102,-0.088,-0.015,0.044,0.068,0.039,-0.034,-0.073,-0.073
0.656,-0.098,-0.054,0.044,0.078,-0.073,-0.005,0.049,0.073,0.049,-0.029,-0.063,-0.063
0.658,-0.098,-0.029,0.068,0.063,-0.083,0.02,0.059,0.088,0.059,-0.01,-0.044,-0.044
0.66,-0.117,-0.044,0.073,0.083,-0.098,0.015,0.059,0.088,0.063,-0.005,-0.044,-0.049
0.662,-0.127,-0.044,0.083,0.088,-0.107,0.02,0.068,0.098,0.068,-0.005,-0.034,-0.039
0.664,-0.093,-0.02,0.073,0.059,-0.083,0.024,0.073,0.093,0.073,0.005,-0.029,-0.039
0.666,-0.073,-0.034,0.039,0.054,-0.059,0.0,0.063,0.083,0.059,-0.01,-0.049,-0.059
0.668,-0.068,-0.034,0.034,0.054,-0.054,0.0,0.059,0.078,0.054,-0.02,-0.054,-0.073
0.67,-0.093,-0.034,0.059,0.063,-0.078,0.01,0.068,0.088,0.073,-0.005,-0.039,-0.059
0.672,-0.102,-0.005,0.098,0.054,-0.102,0.044,0.078,0.102,0.088,0.005,-0.024,-0.044
0.674,-0.059,0.01,0.068,0.024,-0.063,0.039,0.073,0.098,0.083,0.005,-0.02,-0.044
0.676,-0.093,-0.024,0.068,0.059,-0.083,0.02,0.059,0.078,0.068,-0.01,-0.029,-0.059
0.678,-0.068,-0.005,0.063,0.039,-0.068,0.029,0.059,0.078,0.073,0.0,-0.024,-0.049
0.68,-0.073,0.005,0.078,0.034,-0.078,0.039,0.063,0.093,0.088,0.015,-0.01,-0.044
0.682,-0.112,-0.049,0.063,0.083,-0.088,0.005,0.049,0.073,0.073,0.0,-0.029,-0.063
0.684,-0.117,-0.059,0.059,0.088,-0.088,0.0,0.039,0.073,0.068,-0.005,-0.034,-0.059
0.686,-0.098,-0.039,0.059,0.068,-0.078,0.01,0.034,0.083,0.078,-0.005,-0.029,-0.059
0.688,-0.112,-0.034,0.078,0.073,-0.098,0.02,0.029,0.088,0.088,0.0,-0.029,-0.059
0.69,-0.112,-0.024,0.088,0.068,-0.102,0.029,0.029,0.098,0.098,0.01,-0.02,-0.049
0.692,-0.098,-0.015,0.083,0.059,-0.093,0.034,0.024,0.107,0.107,0.015,-0.024,-0.049
0.694,-0.088,-0.029,0.059,0.059,-0.073,0.015,0.01,0.098,0.093,0.0,-0.029,-0.059
0.696,-0.068,-0.005,0.063,0.039,-0.068,0.029,0.01,0.098,0.098,0.01,-0.024,-0.059
0.698,-0.005,0.044,0.049,-0.02,-0.029,0.044,0.005,0.102,0.107,0.02,-0.015,-0.049
0.7,-0.088,-0.039,0.049,0.063,-0.068,0.005,-0.029,0.083,0.093,0.0,-0.034,-0.073
0.702,-0.088,-0.044,0.044,0.068,-0.068,0.0,-0.034,0.083,0.098,0.0,-0.039,-0.078
0.704,-0.02,0.01,0.029,0.005,-0.024,0.02,-0.024,0.098,0.112,0.015,-0.029,-0.068
0.706,-0.059,-0.024,0.034,0.044,-0.049,0.005,-0.039,0.102,0.102,0.015,-0.034,-0.078
0.708,-0.068,-0.029,0.039,0.049,-0.054,0.005,-0.029,0.107,0.112,0.015,-0.029,-0.078
0.71,-0.078,-0.044,0.034,0.063,-0.059,-0.005,-0.034,0.107,0.112,0.01,-0.039,-0.088
0.712,-0.098,-0.063,0.034,0.083,-0.068,-0.015,-0.049,0.107,0.117,0.005,-0.044,-0.093
0.714,-0.015,0.02,0.034,0.0,-0.024,0.024,-0.034,0.137,0.142,0.029,-0.02,-0.073
0.716,-0.059,-0.005,0.054,0.034,-0.059,0.024,-0.034,0.137,0.142,0.029,-0.015,-0.073
0.718,-0.112,-0.049,0.063,0.083,-0.088,0.005,-0.044,0.132,0.132,0.02,-0.034,-0.088
0.72,-0.088,-0.034,0.054,0.063,-0.073,0.01,-0.034,0.142,0.142,0.039,-0.024,-0.078
0.722,-0.039,0.0,0.039,0.02,-0.039,0.02,-0.01,0.166,0.171,0.059,-0.01,-0.063
0.724,-0.024,0.015,0.039,0.005,-0.034,0.024,-0.02,0.161,0.161,0.039,-0.029,-0.083
0.726,-0.054,-0.02,0.034,0.039,-0.044,0.005,-0.024,0.161,0.156,0.039,-0.039,-0.093
0.728,-0.068,-0.029,0.039,0.049,-0.054,0.005,-0.02,0.171,0.166,0.034,-0.034,-0.102
0.73,-0.049,0.0,0.049,0.024,-0.049,0.024,-0.01,0.19,0.181,0.044,-0.039,-0.093
0.732,-0.073,-0.024,0.049,0.049,-0.063,0.01,-0.01,0.2,0.185,0.039,-0.039,-0.102
0.734,-0.083,-0.039,0.044,0.063,-0.063,0.0,-0.015,0.2,0.19,0.044,-0.044,-0.098
0.736,-0.107,-0.044,0.063,0.078,-0.088,0.01,-0.01,0.2,0.185,0.034,-0.054,-0.107
0.738,-0.078,-0.005,0.073,0.044,-0.078,0.034,0.015,0.22,0.195,0.049,-0.044,-0.093
0.74,0.005,0.068,0.063,-0.034,-0.029,0.063,0.034,0.239,0.21,0.068,-0.024,-0.078
0.742,-0.005,0.044,0.049,-0.02,-0.029,0.044,0.024,0.224,0.195,0.039,-0.049,-0.098
0.744,-0.049,0.005,0.054,0.024,-0.054,0.029,0.029,0.215,0.195,0.034,-0.059,-0.098
0.746,-0.039,0.024,0.063,0.01,-0.054,0.044,0.039,0.224,0.195,0.034,-0.059,-0.098
0.748,-0.034,0.039,0.073,0.0,-0.054,0.054,0.049,0.234,0.195,0.034,-0.063,-0.102
0.75,-0.063,0.01,0.073,0.029,-0.068,0.039,0.054,0.239,0.185,0.015,-0.083,-0.117
0.752,-0.093,-0.01,0.083,0.054,-0.088,0.034,0.068,0.244,0.181,0.015,-0.093,-0.132
0.754,-0.073,0.015,0.088,0.029,-0.083,0.049,0.088,0.264,0.19,0.01,-0.098,-0.132
0.756,-0.029,0.029,0.059,0.0,-0.044,0.044,0.093,0.278,0.19,0.005,-0.098,-0.142
0.758,-0.015,0.034,0.049,-0.01,-0.034,0.039,0.093,0.278,0.19,0.0,-0.107,-0.137
0.76,-0.063,0.02,0.083,0.024,-0.073,0.049,0.107,0.288,0.195,0.005,-0.098,-0.127
0.762,-0.137,-0.01,0.127,0.073,-0.132,0.059,0.112,0.298,0.19,0.01,-0.098,-0.122
0.764,-0.127,0.005,0.132,0.063,-0.132,0.068,0.122,0.298,0.19,0.015,-0.098,-0.122
0.766,-0.073,0.049,0.122,0.015,-0.098,0.083,0.122,0.307,0.195,0.01,-0.098,-0.122
0.768,-0.054,0.054,0.107,0.0,-0.083,0.078,0.122,0.293,0.19,0.01,-0.102,-0.122
0.77,-0.107,0.015,0.122,0.049,-0.117,0.068,0.098,0.244,0.156,-0.01,-0.122,-0.132
0.772,-0.102,0.02,0.122,0.044,-0.112,0.068,0.078,0.205,0.132,-0.029,-0.132,-0.137
0.774,-0.098,0.029,0.127,0.034,-0.112,0.078,0.063,0.176,0.112,-0.044,-0.132,-0.137
0.776,-0.088,0.034,0.122,0.029,-0.107,0.078,0.068,0.161,0.102,-0.039,-0.127,-0.127
0.778,-0.083,0.029,0.112,0.029,-0.098,0.068,0.059,0.146,0.088,-0.049,-0.122,-0.127
0.78,-0.098,0.039,0.137,0.029,-0.117,0.088,0.063,0.151,0.093,-0.039,-0.112,-0.117
0.782,-0.073,0.073,0.146,0.0,-0.112,0.107,0.083,0.161,0.098,-0.024,-0.093,-0.098
0.784,-0.137,0.0,0.137,0.068,-0.137,0.068,0.059,0.127,0.063,-0.044,-0.117,-0.112
0.786,-0.083,0.024,0.107,0.029,-0.098,0.063,0.063,0.112,0.068,-0.044,-0.112,-0.107
0.788,0.054,0.142,0.088,-0.098,-0.02,0.112,0.088,0.142,0.093,-0.01,-0.073,-0.073
0.79,-0.078,0.02,0.098,0.029,-0.088,0.059,0.059,0.107,0.059,-0.029,-0.093,-0.098
0.792,-0.102,0.01,0.112,0.049,-0.107,0.059,0.054,0.098,0.054,-0.029,-0.093,-0.093
0.794,-0.098,0.024,0.122,0.039,-0.112,0.073,0.068,0.102,0.059,-0.015,-0.068,-0.068
0.796,-0.083,0.059,0.142,0.015,-0.112,0.098,0.083,0.122,0.078,0.0,-0.049,-0.054
0.798,-0.107,0.049,0.156,0.029,-0.132,0.102,0.083,0.117,0.068,0.01,-0.034,-0.044
0.8,-0.132,0.029,0.161,0.054,-0.146,0.093,0.078,0.098,0.059,0.01,-0.029,-0.039
0.802,-0.078,0.078,0.156,0.0,-0.117,0.117,0.088,0.098,0.068,0.024,-0.01,-0.02
0.804,-0.083,0.059,0.142,0.015,-0.112,0.098,0.073,0.078,0.059,0.029,-0.015,-0.029
0.806,-0.068,0.049,0.117,0.01,-0.093,0.083,0.054,0.059,0.049,0.01,-0.024,-0.044
0.808,-0.005,0.088,0.093,-0.039,-0.049,0.088,0.054,0.063,0.049,0.015,-0.015,-0.034
0.81,0.024,0.107,0.083,-0.063,-0.029,0.093,0.049,0.063,0.059,0.029,0.0,-0.015
0.812,-0.044,0.068,0.112,-0.01,-0.078,0.088,0.044,0.059,0.054,0.034,0.005,-0.01
0.814,-0.102,0.044,0.146,0.029,-0.127,0.093,0.039,0.049,0.059,0.034,0.01,-0.005
0.816,-0.093,0.063,0.156,0.015,-0.127,0.107,0.044,0.059,0.068,0.054,0.034,0.02
0.818,-0.073,0.088,0.161,-0.005,-0.117,0.122,0.044,0.068,0.078,0.078,0.054,0.039
0.82,-0.02,0.088,0.107,-0.034,-0.063,0.098,0.024,0.044,0.054,0.063,0.039,0.024
0.822,0.005,0.078,0.073,-0.039,-0.034,0.073,-0.005,0.015,0.029,0.029,0.01,-0.005
0.824,0.0,0.063,0.063,-0.029,-0.034,0.063,-0.01,0.01,0.024,0.034,0.015,-0.005
0.826,0.044,0.083,0.039,-0.063,0.0,0.059,-0.005,0.02,0.034,0.039,0.02,0.0
0.828,-0.005,0.059,0.063,-0.024,-0.034,0.059,-0.015,0.005,0.024,0.024,0.01,-0.01
0.83,-0.117,-0.024,0.093,0.073,-0.107,0.034,-0.034,-0.01,0.005,0.005,-0.01,-0.029
0.832,-0.083,0.02,0.102,0.034,-0.093,0.059,-0.024,0.01,0.02,0.029,0.01,-0.01
0.834,-0.039,0.068,0.107,-0.015,-0.073,0.088,-0.015,0.02,0.034,0.039,0.02,0.0
0.836,-0.073,0.039,0.112,0.02,-0.093,0.073,-0.02,0.015,0.024,0.029,0.015,0.0
0.838,-0.102,-0.005,0.098,0.054,-0.102,0.044,-0.039,0.005,0.01,0.015,-0.005,-0.015
0.84,-0.063,0.02,0.083,0.024,-0.073,0.049,-0.034,0.0,0.01,0.01,-0.005,-0.015
0.842,-0.049,0.015,0.063,0.02,-0.059,0.039,-0.054,-0.015,-0.01,0.0,-0.02,-0.029
0.844,0.0,0.063,0.063,-0.029,-0.034,0.063,-0.039,0.005,0.005,0.015,0.0,-0.01
0.846,-0.01,0.063,0.073,-0.024,-0.044,0.068,-0.044,0.005,0.015,0.02,0.005,-0.005
0.848,-0.112,-0.044,0.068,0.078,-0.093,0.01,-0.083,-0.039,-0.024,-0.015,-0.034,-0.044
0.85,-0.073,-0.005,0.068,0.039,-0.073,0.029,-0.083,-0.029,-0.015,-0.005,-0.024,-0.039
0.852,-0.054,0.02,0.073,0.02,-0.063,0.044,-0.073,-0.01,0.0,0.0,-0.02,-0.024
0.854,-0.044,0.039,0.083,0.005,-0.063,0.059,-0.068,0.005,0.02,0.01,-0.01,-0.02
0.856,-0.059,0.024,0.083,0.02,-0.073,0.054,-0.083,-0.005,0.01,0.005,-0.015,-0.024
0.858,-0.034,0.039,0.073,0.0,-0.054,0.054,-0.083,0.0,0.015,0.015,0.0,-0.01
0.86,-0.02,0.049,0.068,-0.015,-0.044,0.059,-0.073,0.0,0.015,0.015,0.0,-0.005
0.862,-0.034,0.02,0.054,0.01,-0.044,0.034,-0.078,-0.01,0.005,0.01,-0.005,-0.02
0.864,-0.01,0.015,0.024,0.0,-0.02,0.02,-0.088,-0.015,0.0,0.0,-0.01,-0.029
0.866,0.0,0.02,0.02,-0.01,-0.01,0.02,-0.083,-0.01,0.0,-0.005,-0.015,-0.029
0.868,-0.01,0.034,0.044,-0.01,-0.029,0.039,-0.063,0.01,0.015,0.0,-0.005,-0.02
0.87,-0.044,0.024,0.068,0.01,-0.059,0.044,-0.054,0.029,0.029,0.015,0.015,-0.015
0.872,-0.024,0.039,0.063,-0.005,-0.044,0.049,-0.049,0.039,0.034,0.015,0.015,-0.01
0.874,-0.029,0.029,0.059,0.0,-0.044,0.044,-0.054,0.034,0.029,0.01,0.005,-0.02
0.876,-0.044,0.015,0.059,0.015,-0.054,0.034,-0.059,0.034,0.029,0.01,0.005,-0.024
0.878,-0.015,0.044,0.059,-0.015,-0.039,0.049,-0.044,0.049,0.039,0.02,0.02,-0.01
0.88,-0.063,0.015,0.078,0.024,-0.073,0.044,-0.044,0.044,0.034,0.015,0.01,-0.02
0.882,-0.034,0.034,0.068,0.0,-0.054,0.049,-0.029,0.059,0.044,0.02,0.02,-0.01
0.884,-0.029,0.044,0.073,-0.005,-0.054,0.059,-0.02,0.059,0.044,0.029,0.029,0.0
0.886,0.02,0.107,0.088,-0.063,-0.034,0.098,0.005,0.068,0.063,0.044,0.049,0.02
0.888,0.034,0.107,0.073,-0.068,-0.02,0.088,0.015,0.068,0.059,0.049,0.049,0.015
0.89,-0.029,0.034,0.063,0.0,-0.049,0.049,-0.015,0.034,0.02,0.01,0.015,-0.02
0.892,-0.059,0.0,0.059,0.029,-0.059,0.029,-0.015,0.024,0.015,0.005,0.005,-0.02
0.894,-0.068,-0.01,0.059,0.039,-0.063,0.024,-0.01,0.02,0.02,0.0,0.0,-0.034
0.896,0.029,0.098,0.068,-0.063,-0.02,0.083,0.034,0.073,0.063,0.044,0.044,0.015
0.898,0.044,0.122,0.078,-0.083,-0.02,0.098,0.054,0.088,0.088,0.063,0.068,0.034
0.9,0.015,0.098,0.083,-0.054,-0.034,0.088,0.063,0.083,0.078,0.054,0.059,0.024
0.902,-0.015,0.063,0.078,-0.024,-0.049,0.068,0.049,0.063,0.059,0.039,0.039,0.005
0.904,-0.107,-0.02,0.088,0.063,-0.098,0.034,0.034,0.049,0.039,0.02,0.02,-0.015
0.906,-0.083,0.024,0.107,0.029,-0.098,0.063,0.059,0.073,0.073,0.039,0.044,0.005
0.908,-0.063,0.054,0.117,0.005,-0.093,0.083,0.073,0.093,0.083,0.054,0.054,0.015
0.91,-0.093,0.02,0.112,0.039,-0.102,0.063,0.063,0.093,0.078,0.044,0.049,0.005
0.912,-0.015,0.107,0.122,-0.044,-0.068,0.112,0.088,0.107,0.093,0.068,0.073,0.024
0.914,-0.034,0.098,0.132,-0.029,-0.083,0.112,0.098,0.102,0.098,0.073,0.078,0.029
0.916,-0.093,0.039,0.132,0.029,-0.112,0.083,0.088,0.088,0.083,0.068,0.073,0.024
0.918,-0.059,0.054,0.112,0.005,-0.088,0.083,0.073,0.073,0.068,0.063,0.068,0.015
0.92,-0.02,0.098,0.117,-0.039,-0.068,0.107,0.083,0.068,0.073,0.068,0.073,0.024
0.922,-0.044,0.078,0.122,-0.015,-0.083,0.098,0.073,0.054,0.073,0.073,0.073,0.024
0.924,-0.039,0.083,0.122,-0.02,-0.083,0.102,0.073,0.063,0.083,0.078,0.083,0.034
0.926,-0.015,0.122,0.137,-0.054,-0.078,0.127,0.083,0.068,0.088,0.088,0.093,0.044
0.928,-0.034,0.102,0.137,-0.034,-0.088,0.117,0.083,0.073,0.088,0.088,0.083,0.034
0.93,-0.039,0.112,0.151,-0.034,-0.098,0.132,0.098,0.093,0.102,0.088,0.088,0.054
0.932,-0.063,0.098,0.161,-0.015,-0.112,0.127,0.093,0.088,0.098,0.088,0.083,0.049
0.934,-0.083,0.102,0.185,-0.01,-0.137,0.142,0.107,0.098,0.112,0.102,0.093,0.054
0.936,-0.093,0.112,0.205,-0.01,-0.151,0.156,0.107,0.107,0.117,0.102,0.098,0.059
0.938,-0.078,0.088,0.166,-0.005,-0.122,0.127,0.093,0.093,0.102,0.093,0.088,0.049
0.94,-0.015,0.137,0.151,-0.059,-0.083,0.142,0.088,0.093,0.102,0.093,0.088,0.044
0.942,-0.059,0.073,0.132,-0.005,-0.098,0.102,0.073,0.068,0.093,0.073,0.063,0.029
0.944,-0.054,0.073,0.127,-0.01,-0.093,0.098,0.068,0.068,0.083,0.068,0.059,0.02
0.946,-0.029,0.088,0.117,-0.029,-0.073,0.102,0.068,0.073,0.088,0.078,0.063,0.024
0.948,-0.01,0.102,0.112,-0.044,-0.063,0.107,0.068,0.083,0.093,0.078,0.059,0.024
0.95,0.039,0.166,0.127,-0.102,-0.044,0.146,0.083,0.107,0.122,0.107,0.083,0.054
0.952,0.044,0.146,0.102,-0.093,-0.029,0.122,0.063,0.093,0.112,0.102,0.083,0.049
0.954,0.015,0.112,0.098,-0.063,-0.044,0.102,0.034,0.073,0.102,0.083,0.063,0.029
0.956,-0.059,0.073,0.132,-0.005,-0.098,0.102,0.034,0.083,0.107,0.088,0.068,0.039
0.958,-0.112,0.063,0.176,0.024,-0.146,0.117,0.039,0.093,0.117,0.098,0.078,0.049
0.96,-0.034,0.132,0.166,-0.049,-0.102,0.146,0.054,0.107,0.132,0.107,0.088,0.059
0.962,-0.01,0.156,0.166,-0.073,-0.088,0.161,0.054,0.117,0.137,0.122,0.102,0.073
0.964,-0.044,0.132,0.176,-0.044,-0.112,0.151,0.049,0.107,0.122,0.112,0.088,0.054
0.966,-0.029,0.137,0.166,-0.054,-0.098,0.151,0.049,0.102,0.122,0.107,0.088,0.054
0.968,-0.078,0.068,0.146,0.005,-0.112,0.107,0.029,0.083,0.102,0.078,0.059,0.034
0.97,-0.088,0.059,0.146,0.015,-0.117,0.102,0.015,0.078,0.098,0.073,0.049,0.029
0.972,-0.049,0.078,0.127,-0.015,-0.088,0.102,0.01,0.073,0.093,0.073,0.054,0.029
0.974,0.01,0.107,0.098,-0.059,-0.044,0.102,0.005,0.083,0.098,0.078,0.054,0.034
0.976,0.044,0.117,0.073,-0.078,-0.015,0.093,-0.01,0.078,0.093,0.068,0.049,0.029
0.978,-0.01,0.078,0.088,-0.034,-0.049,0.083,-0.02,0.073,0.093,0.073,0.049,0.029
0.98,0.0,0.122,0.122,-0.059,-0.063,0.122,0.0,0.098,0.122,0.102,0.073,0.054
0.982,-0.049,0.098,0.146,-0.024,-0.098,0.122,0.0,0.093,0.122,0.102,0.078,0.054
0.984,-0.068,0.098,0.166,-0.015,-0.117,0.132,0.005,0.107,0.127,0.112,0.083,0.063
0.986,-0.02,0.127,0.146,-0.054,-0.083,0.137,0.01,0.102,0.127,0.112,0.088,0.068
0.988,-0.02,0.093,0.112,-0.034,-0.068,0.102,-0.01,0.083,0.112,0.088,0.063,0.039
0.99,-0.049,0.044,0.093,0.005,-0.073,0.068,-0.024,0.078,0.088,0.068,0.044,0.02
0.992,-0.005,0.073,0.078,-0.034,-0.044,0.073,-0.015,0.093,0.098,0.078,0.054,0.029
0.994,0.039,0.098,0.059,-0.068,-0.01,0.078,-0.005,0.102,0.107,0.088,0.059,0.034
0.996,0.024,0.073,0.049,-0.049,-0.015,0.059,-0.02,0.093,0.083,0.063,0.039,0.015
0.998,-0.039,0.044,0.083,0.0,-0.063,0.063,-0.02,0.073,0.073,0.063,0.044,0.024
1.0,-0.034,0.059,0.093,-0.01,-0.063,0.073,-0.02,0.063,0.073,0.063,0.049,0.034
1.002,-0.063,0.039,0.102,0.015,-0.083,0.068,-0.02,0.049,0.059,0.049,0.039,0.024
1.004,-0.054,0.044,0.098,0.005,-0.078,0.068,-0.02,0.034,0.044,0.034,0.024,0.015
1.006,-0.01,0.073,0.083,-0.029,-0.049,0.078,-0.01,0.039,0.044,0.039,0.029,0.02
1.008,-0.01,0.039,0.049,-0.015,-0.029,0.044,-0.015,0.029,0.029,0.02,0.01,0.0
1.01,-0.02,0.039,0.059,-0.01,-0.039,0.049,-0.01,0.024,0.02,0.01,-0.005,-0.01
1.012,-0.029,0.044,0.073,-0.005,-0.054,0.059,0.0,0.024,0.02,0.01,0.0,-0.01
1.014,-0.034,0.044,0.078,-0.005,-0.059,0.059,0.01,0.029,0.02,0.01,0.0,-0.01
1.016,-0.049,0.049,0.098,0.0,-0.073,0.073,0.034,0.044,0.024,0.02,0.01,0.005
1.018,-0.02,0.068,0.088,-0.024,-0.054,0.078,0.049,0.059,0.039,0.039,0.024,0.02
1.02,-0.054,0.015,0.068,0.02,-0.063,0.039,0.024,0.034,0.015,0.005,0.0,-0.005
1.022,-0.078,-0.029,0.049,0.054,-0.063,0.01,0.005,0.005,-0.01,-0.02,-0.024,-0.029
1.024,-0.039,-0.015,0.024,0.029,-0.034,0.005,0.005,0.0,-0.01,-0.02,-0.024,-0.034
1.026,-0.01,-0.02,-0.01,0.015,0.0,-0.015,-0.005,-0.005,-0.02,-0.029,-0.044,-0.049
1.028,-0.01,-0.015,-0.005,0.015,-0.005,-0.01,0.005,0.005,-0.02,-0.029,-0.044,-0.054
1.03,0.044,0.098,0.054,-0.068,-0.005,0.073,0.059,0.059,0.029,0.02,0.01,0.0
1.032,-0.024,0.088,0.112,-0.029,-0.068,0.098,0.078,0.073,0.044,0.039,0.024,0.015
1.034,-0.117,-0.005,0.112,0.063,-0.117,0.054,0.049,0.044,0.015,0.01,-0.005,-0.015
1.036,-0.122,-0.054,0.068,0.088,-0.098,0.005,0.015,0.02,-0.015,-0.024,-0.044,-0.054
1.038,-0.039,0.029,0.068,0.005,-0.054,0.049,0.039,0.049,0.02,0.0,-0.02,-0.029
1.04,0.0,0.107,0.107,-0.054,-0.054,0.107,0.078,0.083,0.054,0.034,0.01,0.0
1.042,-0.034,0.127,0.161,-0.044,-0.098,0.142,0.098,0.102,0.068,0.034,0.015,0.005
1.044,-0.078,0.112,0.19,-0.015,-0.137,0.151,0.098,0.098,0.059,0.02,-0.005,-0.01
1.046,-0.078,0.151,0.229,-0.034,-0.156,0.19,0.102,0.102,0.059,0.029,0.0,0.0
1.048,-0.034,0.22,0.254,-0.093,-0.146,0.234,0.122,0.132,0.078,0.044,0.024,0.029
1.05,-0.024,0.215,0.239,-0.093,-0.132,0.224,0.142,0.151,0.093,0.059,0.059,0.059
1.052,-0.107,0.112,0.22,0.0,-0.166,0.166,0.142,0.151,0.083,0.063,0.078,0.078
1.054,-0.044,0.122,0.166,-0.039,-0.107,0.142,0.146,0.171,0.102,0.107,0.151,0.137
1.056,0.015,0.088,0.073,-0.049,-0.029,0.078,0.122,0.176,0.132,0.181,0.239,0.195
1.058,0.068,0.059,-0.01,-0.063,0.039,0.024,0.088,0.185,0.19,0.307,0.395,0.303
1.06,0.21,0.127,-0.083,-0.166,0.146,0.02,0.063,0.185,0.273,0.498,0.649,0.493
1.062,0.244,0.088,-0.156,-0.166,0.2,-0.034,0.0,0.151,0.312,0.649,0.874,0.683
1.064,0.283,0.068,-0.215,-0.176,0.249,-0.073,-0.068,0.122,0.361,0.791,1.088,0.864
1.066,0.356,0.107,-0.249,-0.229,0.303,-0.073,-0.132,0.093,0.464,0.996,1.352,1.078
1.068,0.459,0.166,-0.293,-0.312,0.376,-0.063,-0.224,0.059,0.586,1.249,1.654,1.308
1.07,0.556,0.234,-0.322,-0.395,0.439,-0.044,-0.283,0.034,0.722,1.518,1.942,1.537
1.072,0.683,0.293,-0.39,-0.488,0.537,-0.049,-0.351,-0.049,0.708,1.625,2.089,1.649
1.074,0.708,0.239,-0.468,-0.473,0.586,-0.117,-0.42,-0.171,0.581,1.62,2.094,1.64
1.076,0.795,0.264,-0.532,-0.527,0.664,-0.137,-0.425,-0.224,0.527,1.64,2.059,1.576
1.078,0.825,0.21,-0.615,-0.517,0.717,-0.205,-0.439,-0.283,0.439,1.571,1.937,1.43
1.08,0.771,0.171,-0.6,-0.468,0.683,-0.215,-0.449,-0.366,0.303,1.401,1.747,1.279
1.082,0.673,0.137,-0.537,-0.405,0.605,-0.2,-0.39,-0.376,0.185,1.147,1.484,1.083
1.084,0.63,0.132,-0.498,-0.381,0.561,-0.185,-0.298,-0.337,0.098,0.893,1.166,0.859
1.086,0.556,0.049,-0.508,-0.303,0.532,-0.229,-0.21,-0.293,0.024,0.62,0.83,0.605
1.088,0.468,-0.024,-0.493,-0.22,0.478,-0.259,-0.117,-0.283,-0.127,0.254,0.449,0.361
1.09,0.356,-0.054,-0.41,-0.151,0.381,-0.234,-0.059,-0.351,-0.4,-0.229,0.0,0.117
1.092,0.244,-0.078,-0.322,-0.083,0.283,-0.2,-0.039,-0.459,-0.678,-0.654,-0.386,-0.078
1.094,0.083,-0.146,-0.229,0.034,0.156,-0.19,-0.02,-0.517,-0.839,-0.883,-0.62,-0.21
1.096,0.107,-0.068,-0.176,-0.02,0.142,-0.122,0.049,-0.527,-0.883,-0.966,-0.727,-0.268
1.098,0.039,-0.166,-0.205,0.063,0.122,-0.185,-0.005,-0.6,-0.922,-1.015,-0.82,-0.361
1.1,0.024,-0.2,-0.224,0.088,0.122,-0.215,-0.073,-0.61,-0.839,-0.898,-0.756,-0.351
1.102,-0.015,-0.176,-0.161,0.098,0.073,-0.171,-0.073,-0.532,-0.693,-0.722,-0.625,-0.288
1.104,0.01,-0.117,-0.127,0.054,0.068,-0.122,-0.059,-0.459,-0.576,-0.59,-0.522,-0.244
1.106,-0.005,-0.068,-0.063,0.039,0.029,-0.068,-0.044,-0.395,-0.478,-0.488,-0.444,-0.21
1.108,-0.083,-0.039,0.044,0.063,-0.063,0.0,-0.029,-0.317,-0.371,-0.381,-0.351,-0.151
1.11,-0.078,0.034,0.112,0.024,-0.098,0.073,-0.005,-0.229,-0.254,-0.278,-0.264,-0.102
1.112,-0.122,0.01,0.132,0.059,-0.127,0.068,-0.024,-0.171,-0.19,-0.234,-0.234,-0.107
1.114,-0.127,-0.005,0.122,0.068,-0.127,0.059,-0.029,-0.112,-0.112,-0.176,-0.19,-0.093
1.116,-0.024,0.093,0.117,-0.034,-0.073,0.102,-0.01,-0.029,-0.024,-0.093,-0.122,-0.039
1.118,0.01,0.098,0.088,-0.054,-0.039,0.093,0.0,0.015,0.034,-0.044,-0.083,-0.029
1.12,-0.015,0.054,0.068,-0.02,-0.044,0.059,0.0,0.044,0.063,-0.02,-0.068,-0.024
1.122,-0.02,0.049,0.068,-0.015,-0.044,0.059,0.0,0.059,0.073,0.0,-0.054,-0.024
1.124,0.02,0.078,0.059,-0.049,-0.02,0.068,0.01,0.078,0.098,0.024,-0.024,-0.005
1.126,0.044,0.127,0.083,-0.083,-0.02,0.102,0.029,0.098,0.107,0.039,-0.01,0.005
1.128,0.0,0.088,0.088,-0.044,-0.044,0.088,0.024,0.093,0.093,0.029,-0.02,0.0
1.13,-0.054,0.015,0.068,0.02,-0.063,0.039,-0.01,0.063,0.063,0.01,-0.049,-0.039
1.132,0.01,0.059,0.049,-0.034,-0.02,0.054,-0.015,0.068,0.068,0.015,-0.044,-0.039
1.134,0.063,0.107,0.044,-0.083,0.01,0.073,0.005,0.073,0.088,0.029,-0.024,-0.029
1.136,0.044,0.107,0.063,-0.073,-0.01,0.083,0.0,0.083,0.098,0.044,-0.005,-0.02
1.138,-0.01,0.083,0.093,-0.034,-0.054,0.088,0.0,0.083,0.102,0.049,-0.005,-0.01
1.14,-0.059,0.044,0.102,0.01,-0.083,0.073,-0.005,0.073,0.088,0.039,-0.005,-0.015
1.142,-0.039,0.083,0.122,-0.02,-0.083,0.102,0.01,0.088,0.102,0.059,0.015,0.0
1.144,0.0,0.117,0.117,-0.059,-0.059,0.117,0.015,0.098,0.107,0.068,0.034,0.024
1.146,-0.039,0.059,0.098,-0.01,-0.068,0.078,-0.024,0.054,0.073,0.034,0.005,-0.01
1.148,-0.063,0.015,0.078,0.024,-0.073,0.044,-0.054,0.029,0.054,0.02,-0.015,-0.029
1.15,-0.029,0.005,0.034,0.015,-0.034,0.02,-0.078,0.01,0.039,0.01,-0.034,-0.044
1.152,0.02,0.049,0.029,-0.034,-0.005,0.039,-0.073,0.02,0.054,0.02,-0.02,-0.034
1.154,-0.015,0.029,0.044,-0.005,-0.029,0.034,-0.073,0.02,0.049,0.01,-0.024,-0.039
1.156,-0.034,0.005,0.039,0.015,-0.039,0.02,-0.078,0.015,0.044,0.0,-0.034,-0.054
1.158,-0.029,0.005,0.034,0.015,-0.034,0.02,-0.063,0.015,0.044,-0.005,-0.039,-0.059
1.16,-0.034,-0.015,0.02,0.024,-0.029,0.0,-0.059,0.01,0.029,-0.024,-0.049,-0.063
1.162,-0.059,-0.034,0.024,0.049,-0.044,-0.005,-0.054,0.0,0.015,-0.029,-0.049,-0.078
1.164,-0.029,-0.005,0.024,0.02,-0.029,0.01,-0.039,0.02,0.029,-0.01,-0.034,-0.059
1.166,0.015,0.039,0.024,-0.024,-0.005,0.029,-0.015,0.034,0.044,-0.005,-0.02,-0.044
1.168,0.029,0.054,0.024,-0.039,0.0,0.039,0.0,0.044,0.054,0.01,-0.015,-0.049
1.17,-0.049,-0.029,0.02,0.039,-0.034,-0.005,-0.024,0.02,0.034,-0.015,-0.049,-0.083
1.172,-0.049,-0.029,0.02,0.039,-0.034,-0.005,-0.015,0.029,0.044,-0.015,-0.059,-0.088
1.174,-0.005,0.039,0.044,-0.015,-0.024,0.039,0.029,0.068,0.083,0.015,-0.024,-0.059
1.176,-0.034,0.044,0.078,-0.005,-0.059,0.059,0.044,0.093,0.102,0.034,-0.005,-0.049
1.178,-0.034,0.044,0.078,-0.005,-0.059,0.059,0.054,0.098,0.102,0.039,0.0,-0.044
1.18,-0.068,0.015,0.083,0.029,-0.078,0.049,0.054,0.098,0.102,0.044,-0.005,-0.039
1.182,-0.063,0.015,0.078,0.024,-0.073,0.044,0.054,0.098,0.107,0.049,0.01,-0.034
1.184,-0.029,0.049,0.078,-0.01,-0.054,0.063,0.068,0.117,0.127,0.073,0.024,-0.02
1.186,0.049,0.127,0.078,-0.088,-0.015,0.102,0.093,0.151,0.156,0.098,0.059,0.01
1.188,-0.015,0.054,0.068,-0.02,-0.044,0.059,0.073,0.132,0.132,0.073,0.024,-0.02
1.19,-0.098,-0.039,0.059,0.068,-0.078,0.01,0.039,0.102,0.098,0.039,-0.005,-0.063
1.192,-0.005,0.049,0.054,-0.02,-0.029,0.049,0.073,0.142,0.132,0.068,0.02,-0.034
1.194,0.034,0.073,0.039,-0.054,-0.005,0.054,0.093,0.156,0.146,0.068,0.029,-0.034
1.196,-0.02,0.039,0.059,-0.01,-0.039,0.049,0.088,0.161,0.146,0.073,0.034,-0.029
1.198,-0.063,0.02,0.083,0.024,-0.073,0.049,0.093,0.156,0.151,0.073,0.039,-0.029
1.2,-0.063,0.02,0.083,0.024,-0.073,0.049,0.093,0.161,0.156,0.073,0.044,-0.024
1.202,-0.044,0.068,0.112,-0.01,-0.078,0.088,0.112,0.185,0.185,0.102,0.078,0.005
1.204,-0.01,0.073,0.083,-0.029,-0.049,0.078,0.093,0.171,0.171,0.088,0.068,-0.01
1.206,0.034,0.083,0.049,-0.059,-0.01,0.063,0.093,0.171,0.181,0.098,0.078,0.0
1.208,-0.005,0.063,0.068,-0.029,-0.039,0.063,0.083,0.166,0.181,0.098,0.078,-0.005
1.21,-0.034,0.024,0.059,0.005,-0.049,0.039,0.054,0.146,0.166,0.083,0.059,-0.029
1.212,-0.015,0.054,0.068,-0.02,-0.044,0.059,0.068,0.161,0.185,0.098,0.068,-0.015
1.214,-0.005,0.088,0.093,-0.039,-0.049,0.088,0.078,0.181,0.21,0.112,0.088,0.0
1.216,0.024,0.112,0.088,-0.068,-0.034,0.098,0.083,0.2,0.22,0.132,0.102,0.01
1.218,-0.02,0.073,0.093,-0.024,-0.059,0.083,0.068,0.185,0.215,0.122,0.098,0.0
1.22,0.005,0.088,0.083,-0.044,-0.039,0.083,0.059,0.185,0.22,0.127,0.102,0.01
1.222,0.0,0.068,0.068,-0.034,-0.034,0.068,0.044,0.181,0.21,0.122,0.102,-0.005
1.224,-0.029,0.034,0.063,0.0,-0.049,0.049,0.029,0.166,0.19,0.112,0.088,-0.015
1.226,-0.01,0.078,0.088,-0.034,-0.049,0.083,0.044,0.185,0.215,0.137,0.107,0.005
1.228,-0.01,0.083,0.093,-0.034,-0.054,0.088,0.044,0.185,0.22,0.146,0.117,0.015
1.23,0.024,0.107,0.083,-0.063,-0.029,0.093,0.049,0.19,0.229,0.151,0.122,0.015
1.232,0.059,0.122,0.063,-0.088,-0.005,0.093,0.044,0.19,0.229,0.151,0.112,0.01
1.234,0.059,0.122,0.063,-0.088,-0.005,0.093,0.044,0.19,0.234,0.151,0.107,0.0
1.236,0.044,0.122,0.078,-0.083,-0.02,0.098,0.054,0.205,0.254,0.161,0.122,0.02
1.238,0.0,0.117,0.117,-0.059,-0.059,0.117,0.059,0.22,0.264,0.171,0.127,0.02
1.24,-0.063,0.078,0.142,-0.005,-0.102,0.107,0.054,0.224,0.268,0.166,0.122,0.02
1.242,-0.059,0.073,0.132,-0.005,-0.098,0.102,0.049,0.22,0.268,0.171,0.127,0.02
1.244,0.068,0.171,0.102,-0.117,-0.02,0.137,0.068,0.249,0.303,0.205,0.156,0.049
1.246,0.049,0.137,0.088,-0.093,-0.02,0.112,0.049,0.239,0.278,0.19,0.132,0.02
1.248,-0.01,0.063,0.073,-0.024,-0.044,0.068,0.024,0.215,0.259,0.166,0.102,-0.005
1.25,0.015,0.112,0.098,-0.063,-0.044,0.102,0.044,0.215,0.273,0.181,0.122,0.01
1.252,-0.01,0.112,0.122,-0.049,-0.068,0.117,0.044,0.205,0.273,0.181,0.117,0.01
1.254,0.01,0.127,0.117,-0.068,-0.054,0.122,0.044,0.2,0.278,0.185,0.122,0.02
1.256,-0.015,0.142,0.156,-0.063,-0.088,0.146,0.039,0.2,0.278,0.19,0.127,0.024
1.258,-0.039,0.132,0.171,-0.044,-0.107,0.151,0.029,0.2,0.283,0.19,0.127,0.029
1.26,-0.044,0.122,0.166,-0.039,-0.107,0.142,0.024,0.19,0.278,0.181,0.127,0.024
1.262,-0.039,0.107,0.146,-0.034,-0.093,0.127,0.01,0.176,0.268,0.176,0.122,0.02
1.264,-0.02,0.127,0.146,-0.054,-0.083,0.137,-0.005,0.166,0.268,0.181,0.122,0.02
1.266,0.02,0.137,0.117,-0.078,-0.049,0.127,-0.024,0.151,0.259,0.176,0.112,0.015
1.268,0.015,0.142,0.127,-0.078,-0.059,0.132,-0.029,0.151,0.259,0.166,0.112,0.015
1.27,-0.034,0.127,0.161,-0.044,-0.098,0.142,-0.034,0.156,0.264,0.171,0.112,0.01
1.272,-0.044,0.122,0.166,-0.039,-0.107,0.142,-0.039,0.161,0.264,0.161,0.098,0.005
1.274,-0.02,0.151,0.171,-0.063,-0.098,0.161,-0.034,0.171,0.268,0.166,0.107,0.015
1.276,0.005,0.166,0.161,-0.083,-0.078,0.161,-0.029,0.171,0.264,0.161,0.098,0.01
1.278,0.0,0.156,0.156,-0.078,-0.078,0.156,-0.039,0.171,0.254,0.151,0.088,0.0
1.28,-0.015,0.127,0.142,-0.054,-0.078,0.132,-0.049,0.161,0.239,0.127,0.063,-0.01
1.282,-0.029,0.117,0.146,-0.044,-0.088,0.132,-0.054,0.161,0.229,0.122,0.063,-0.01
1.284,-0.029,0.132,0.161,-0.049,-0.098,0.146,-0.049,0.166,0.239,0.127,0.068,-0.005
1.286,-0.034,0.112,0.146,-0.039,-0.093,0.127,-0.054,0.156,0.224,0.112,0.059,-0.01
1.288,-0.029,0.088,0.117,-0.029,-0.073,0.102,-0.068,0.127,0.195,0.093,0.034,-0.029
1.29,0.02,0.112,0.093,-0.063,-0.039,0.102,-0.078,0.112,0.185,0.088,0.034,-0.034
1.292,0.034,0.122,0.088,-0.078,-0.029,0.102,-0.083,0.098,0.181,0.078,0.029,-0.039
1.294,0.01,0.102,0.093,-0.054,-0.044,0.098,-0.083,0.098,0.176,0.073,0.029,-0.039
1.296,0.0,0.107,0.107,-0.054,-0.054,0.107,-0.063,0.117,0.19,0.093,0.054,-0.01
1.298,-0.049,0.098,0.146,-0.024,-0.098,0.122,-0.049,0.127,0.2,0.107,0.068,0.01
1.3,-0.039,0.127,0.166,-0.044,-0.102,0.146,-0.034,0.142,0.205,0.112,0.073,0.02
1.302,-0.01,0.117,0.127,-0.054,-0.068,0.122,-0.024,0.142,0.21,0.117,0.088,0.029
1.304,0.024,0.122,0.098,-0.073,-0.039,0.107,-0.024,0.142,0.2,0.122,0.088,0.029
1.306,0.049,0.137,0.088,-0.093,-0.02,0.112,-0.015,0.142,0.2,0.127,0.098,0.034
1.308,0.068,0.132,0.063,-0.098,0.0,0.098,-0.02,0.142,0.19,0.122,0.102,0.034
1.31,0.078,0.112,0.034,-0.093,0.02,0.073,-0.029,0.132,0.181,0.112,0.093,0.02
1.312,0.029,0.063,0.034,-0.044,-0.005,0.049,-0.054,0.102,0.146,0.088,0.068,0.0
1.314,0.068,0.073,0.005,-0.068,0.029,0.039,-0.044,0.102,0.142,0.083,0.078,0.0
1.316,0.01,0.044,0.034,-0.024,-0.015,0.039,-0.044,0.093,0.137,0.088,0.078,0.005
1.318,0.029,0.088,0.059,-0.059,-0.015,0.073,-0.02,0.112,0.156,0.117,0.107,0.039
1.32,-0.02,0.059,0.078,-0.02,-0.049,0.068,-0.02,0.102,0.146,0.117,0.117,0.044
1.322,-0.015,0.068,0.083,-0.024,-0.049,0.073,-0.02,0.098,0.151,0.127,0.127,0.054
1.324,0.015,0.068,0.054,-0.039,-0.02,0.059,-0.024,0.083,0.142,0.132,0.132,0.059
1.326,0.02,0.078,0.059,-0.049,-0.02,0.068,-0.015,0.088,0.142,0.132,0.142,0.063
1.328,0.029,0.083,0.054,-0.054,-0.015,0.068,-0.015,0.093,0.146,0.142,0.151,0.073
1.33,0.083,0.127,0.044,-0.102,0.02,0.083,0.0,0.107,0.156,0.156,0.166,0.088
1.332,0.049,0.088,0.039,-0.068,0.005,0.063,-0.015,0.098,0.142,0.142,0.146,0.073
1.334,-0.005,0.039,0.044,-0.015,-0.024,0.039,-0.024,0.078,0.122,0.127,0.127,0.054
1.336,0.015,0.034,0.02,-0.024,-0.005,0.024,-0.039,0.073,0.112,0.127,0.122,0.049
1.338,0.039,0.059,0.02,-0.049,0.01,0.039,-0.029,0.073,0.122,0.127,0.132,0.059
1.34,0.083,0.098,0.015,-0.088,0.034,0.054,-0.02,0.083,0.127,0.137,0.146,0.073
1.342,0.088,0.098,0.01,-0.093,0.039,0.054,-0.015,0.093,0.127,0.137,0.146,0.068
1.344,0.044,0.049,0.005,-0.044,0.02,0.024,-0.029,0.073,0.107,0.122,0.122,0.054
1.346,0.024,0.049,0.024,-0.034,0.0,0.034,-0.01,0.083,0.117,0.122,0.132,0.063
1.348,0.059,0.098,0.039,-0.078,0.01,0.068,0.01,0.102,0.137,0.142,0.142,0.083
1.35,0.049,0.107,0.059,-0.078,-0.005,0.083,0.015,0.112,0.146,0.146,0.146,0.088
1.352,0.063,0.117,0.054,-0.088,0.005,0.083,0.015,0.122,0.146,0.146,0.137,0.083
1.354,0.078,0.132,0.054,-0.102,0.01,0.093,0.02,0.122,0.151,0.146,0.142,0.078
1.356,0.093,0.127,0.034,-0.107,0.029,0.078,0.01,0.122,0.151,0.151,0.142,0.073
1.358,0.063,0.093,0.029,-0.078,0.015,0.059,-0.015,0.102,0.142,0.137,0.132,0.059
1.36,0.02,0.068,0.049,-0.044,-0.015,0.059,-0.024,0.102,0.137,0.132,0.132,0.059
1.362,0.044,0.137,0.093,-0.088,-0.024,0.112,0.005,0.137,0.171,0.171,0.171,0.093
1.364,0.088,0.185,0.098,-0.137,-0.005,0.142,0.015,0.156,0.185,0.19,0.181,0.117
1.366,0.01,0.093,0.083,-0.049,-0.039,0.088,-0.015,0.122,0.151,0.151,0.142,0.083
1.368,0.068,0.146,0.078,-0.107,-0.005,0.112,-0.005,0.132,0.161,0.156,0.146,0.083
1.37,0.063,0.146,0.083,-0.102,-0.01,0.112,0.0,0.137,0.166,0.156,0.146,0.078
1.372,0.02,0.132,0.112,-0.073,-0.049,0.122,-0.01,0.127,0.161,0.156,0.146,0.078
1.374,-0.01,0.146,0.156,-0.068,-0.083,0.151,0.0,0.137,0.181,0.171,0.161,0.093
1.376,0.0,0.171,0.171,-0.083,-0.088,0.171,-0.015,0.122,0.181,0.176,0.166,0.102
1.378,-0.029,0.122,0.151,-0.044,-0.093,0.137,-0.054,0.078,0.146,0.146,0.142,0.078
1.38,-0.005,0.127,0.132,-0.059,-0.068,0.127,-0.073,0.049,0.122,0.132,0.127,0.068
1.382,0.044,0.151,0.107,-0.098,-0.034,0.127,-0.073,0.029,0.107,0.122,0.117,0.068
1.384,0.063,0.171,0.107,-0.117,-0.024,0.137,-0.078,0.01,0.098,0.112,0.112,0.059
1.386,0.024,0.137,0.112,-0.078,-0.044,0.122,-0.083,-0.01,0.073,0.093,0.093,0.044
1.388,0.015,0.132,0.117,-0.073,-0.054,0.122,-0.078,-0.024,0.068,0.078,0.093,0.044
1.39,-0.01,0.083,0.093,-0.034,-0.054,0.088,-0.093,-0.044,0.044,0.054,0.068,0.02
1.392,0.01,0.102,0.093,-0.054,-0.044,0.098,-0.088,-0.049,0.044,0.049,0.063,0.02
1.394,0.0,0.093,0.093,-0.044,-0.049,0.093,-0.078,-0.049,0.039,0.044,0.059,0.015
1.396,-0.005,0.088,0.093,-0.039,-0.049,0.088,-0.083,-0.054,0.039,0.039,0.059,0.01
1.398,0.029,0.122,0.093,-0.073,-0.034,0.107,-0.063,-0.034,0.054,0.059,0.073,0.024
1.4,0.0,0.098,0.098,-0.049,-0.049,0.098,-0.063,-0.039,0.049,0.054,0.073,0.02
1.402,0.049,0.146,0.098,-0.098,-0.024,0.122,-0.039,-0.02,0.073,0.068,0.093,0.034
1.404,0.068,0.146,0.078,-0.107,-0.005,0.112,-0.039,-0.015,0.073,0.063,0.093,0.034
1.406,0.024,0.102,0.078,-0.063,-0.029,0.088,-0.049,-0.029,0.049,0.049,0.073,0.015
1.408,-0.01,0.102,0.112,-0.044,-0.063,0.107,-0.039,-0.02,0.059,0.054,0.083,0.029
1.41,-0.015,0.093,0.107,-0.039,-0.063,0.098,-0.044,-0.02,0.054,0.049,0.073,0.024
1.412,-0.044,0.068,0.112,-0.01,-0.078,0.088,-0.039,-0.01,0.059,0.049,0.078,0.034
1.414,-0.005,0.088,0.093,-0.039,-0.049,0.088,-0.044,-0.015,0.049,0.044,0.068,0.024
1.416,0.015,0.098,0.083,-0.054,-0.034,0.088,-0.049,-0.015,0.054,0.044,0.078,0.029
1.418,-0.01,0.083,0.093,-0.034,-0.054,0.088,-0.063,-0.024,0.049,0.044,0.068,0.024
1.42,-0.078,0.034,0.112,0.024,-0.098,0.073,-0.068,-0.029,0.049,0.039,0.073,0.024
1.422,0.01,0.112,0.102,-0.059,-0.049,0.107,-0.054,0.0,0.083,0.063,0.093,0.044
1.424,0.112,0.215,0.102,-0.161,0.005,0.156,-0.02,0.039,0.122,0.093,0.132,0.088
1.426,0.054,0.142,0.088,-0.098,-0.02,0.112,-0.039,0.01,0.083,0.063,0.102,0.054
1.428,-0.029,0.039,0.068,-0.005,-0.049,0.054,-0.073,-0.024,0.039,0.02,0.063,0.02
1.43,-0.024,0.039,0.063,-0.005,-0.044,0.049,-0.068,-0.02,0.039,0.024,0.063,0.015
1.432,0.0,0.083,0.083,-0.039,-0.044,0.083,-0.049,-0.005,0.054,0.044,0.083,0.034
1.434,0.015,0.102,0.088,-0.059,-0.039,0.093,-0.044,-0.005,0.068,0.054,0.093,0.044
1.436,-0.015,0.063,0.078,-0.024,-0.049,0.068,-0.054,-0.01,0.063,0.044,0.073,0.034
1.438,0.0,0.068,0.068,-0.034,-0.034,0.068,-0.054,-0.01,0.059,0.039,0.073,0.029
1.44,0.029,0.083,0.054,-0.054,-0.015,0.068,-0.049,-0.01,0.054,0.044,0.073,0.029
1.442,0.01,0.068,0.059,-0.039,-0.024,0.063,-0.044,0.0,0.049,0.049,0.078,0.034
1.444,-0.029,0.044,0.073,-0.005,-0.054,0.059,-0.039,0.005,0.044,0.049,0.078,0.039
1.446,-0.024,0.044,0.068,-0.01,-0.049,0.054,-0.039,-0.005,0.049,0.049,0.083,0.034
1.448,0.015,0.068,0.054,-0.039,-0.02,0.059,-0.024,0.01,0.059,0.063,0.088,0.044
1.45,0.059,0.093,0.034,-0.073,0.01,0.063,-0.02,0.02,0.063,0.068,0.093,0.049
1.452,0.0,0.044,0.044,-0.02,-0.024,0.044,-0.029,0.01,0.054,0.054,0.073,0.029
1.454,0.0,0.059,0.059,-0.029,-0.029,0.059,-0.02,0.02,0.059,0.063,0.088,0.039
1.456,-0.01,0.039,0.049,-0.015,-0.029,0.044,-0.024,0.02,0.063,0.068,0.083,0.044
1.458,-0.015,0.044,0.059,-0.015,-0.039,0.049,-0.02,0.02,0.063,0.073,0.093,0.049
1.46,0.015,0.088,0.073,-0.049,-0.029,0.078,0.005,0.054,0.093,0.102,0.122,0.078
1.462,-0.02,0.078,0.098,-0.029,-0.059,0.088,0.01,0.059,0.098,0.112,0.132,0.083
1.464,-0.034,0.039,0.073,0.0,-0.054,0.054,-0.005,0.054,0.088,0.098,0.117,0.073
1.466,0.034,0.044,0.01,-0.039,0.01,0.024,-0.01,0.049,0.083,0.093,0.117,0.068
1.468,0.112,0.098,-0.015,-0.102,0.063,0.039,-0.005,0.049,0.088,0.093,0.117,0.073
1.47,0.137,0.107,-0.029,-0.122,0.083,0.039,-0.005,0.054,0.093,0.093,0.112,0.063
1.472,0.063,0.029,-0.034,-0.044,0.049,-0.005,-0.029,0.034,0.068,0.063,0.073,0.029
1.474,0.102,0.063,-0.039,-0.083,0.068,0.01,-0.029,0.044,0.073,0.068,0.078,0.029
1.476,0.024,0.01,-0.015,-0.015,0.02,-0.005,-0.034,0.044,0.073,0.073,0.073,0.029
1.478,0.059,0.078,0.02,-0.068,0.02,0.049,0.0,0.078,0.117,0.112,0.117,0.063
1.48,0.029,0.083,0.054,-0.054,-0.015,0.068,0.02,0.098,0.142,0.132,0.137,0.093
1.482,0.034,0.102,0.068,-0.068,-0.02,0.083,0.024,0.107,0.151,0.146,0.151,0.107
1.484,0.039,0.107,0.068,-0.073,-0.015,0.088,0.024,0.112,0.171,0.166,0.156,0.117
1.486,0.024,0.083,0.059,-0.054,-0.02,0.068,0.01,0.088,0.151,0.146,0.146,0.102
1.488,0.063,0.102,0.039,-0.083,0.01,0.068,0.005,0.083,0.151,0.146,0.142,0.102
1.49,0.068,0.088,0.02,-0.078,0.024,0.054,-0.01,0.078,0.142,0.137,0.132,0.088
1.492,0.02,0.063,0.044,-0.039,-0.015,0.054,-0.02,0.073,0.137,0.132,0.122,0.078
1.494,0.034,0.068,0.034,-0.049,0.0,0.049,-0.029,0.068,0.127,0.122,0.112,0.078
1.496,0.083,0.098,0.015,-0.088,0.034,0.054,-0.034,0.068,0.122,0.127,0.107,0.073
1.498,0.078,0.098,0.02,-0.088,0.029,0.059,-0.044,0.068,0.122,0.117,0.112,0.078
1.5,-0.015,0.015,0.029,0.0,-0.024,0.02,-0.078,0.034,0.102,0.098,0.093,0.059
1.502,0.015,0.034,0.02,-0.024,-0.005,0.024,-0.078,0.039,0.112,0.107,0.107,0.073
1.504,0.088,0.093,0.005,-0.088,0.039,0.049,-0.083,0.044,0.122,0.117,0.117,0.088
1.506,0.093,0.122,0.029,-0.107,0.029,0.073,-0.083,0.049,0.132,0.127,0.122,0.102
1.508,0.024,0.088,0.063,-0.054,-0.02,0.073,-0.088,0.044,0.132,0.122,0.117,0.102
1.51,-0.015,0.054,0.068,-0.02,-0.044,0.059,-0.107,0.024,0.112,0.107,0.102,0.083
1.512,0.02,0.068,0.049,-0.044,-0.015,0.059,-0.107,0.015,0.102,0.102,0.093,0.073
1.514,0.063,0.098,0.034,-0.078,0.015,0.063,-0.102,0.015,0.098,0.093,0.088,0.073
1.516,0.073,0.098,0.024,-0.083,0.024,0.059,-0.112,0.01,0.088,0.083,0.078,0.063
1.518,0.068,0.088,0.02,-0.078,0.024,0.054,-0.112,0.005,0.088,0.083,0.073,0.054
1.52,0.059,0.083,0.024,-0.068,0.015,0.054,-0.112,0.0,0.083,0.078,0.068,0.054
1.522,0.039,0.073,0.034,-0.054,0.0,0.054,-0.117,-0.015,0.078,0.063,0.073,0.059
1.524,0.0,0.054,0.054,-0.024,-0.029,0.054,-0.122,-0.015,0.068,0.068,0.073,0.059
1.526,0.005,0.059,0.054,-0.029,-0.024,0.054,-0.117,-0.01,0.073,0.063,0.068,0.063
1.528,0.029,0.083,0.054,-0.054,-0.015,0.068,-0.117,-0.01,0.068,0.068,0.073,0.063
1.53,0.059,0.117,0.059,-0.088,0.0,0.088,-0.107,-0.015,0.088,0.083,0.088,0.083
1.532,0.059,0.112,0.054,-0.083,0.0,0.083,-0.122,-0.029,0.073,0.068,0.073,0.073
1.534,0.054,0.093,0.039,-0.073,0.005,0.063,-0.132,-0.029,0.068,0.059,0.063,0.063
1.536,0.059,0.093,0.034,-0.073,0.01,0.063,-0.132,-0.029,0.063,0.054,0.054,0.049
1.538,0.059,0.093,0.034,-0.073,0.01,0.063,-0.127,-0.024,0.063,0.054,0.059,0.049
1.54,0.063,0.102,0.039,-0.083,0.01,0.068,-0.112,-0.015,0.073,0.054,0.063,0.049
1.542,0.034,0.107,0.073,-0.068,-0.02,0.088,-0.093,0.005,0.088,0.073,0.083,0.068
1.544,0.005,0.102,0.098,-0.054,-0.049,0.098,-0.083,0.01,0.088,0.073,0.078,0.068
1.546,-0.01,0.088,0.098,-0.039,-0.054,0.093,-0.093,0.0,0.063,0.059,0.063,0.054
1.548,0.024,0.083,0.059,-0.054,-0.02,0.068,-0.093,-0.005,0.059,0.054,0.054,0.039
1.55,0.054,0.088,0.034,-0.068,0.01,0.059,-0.083,0.005,0.063,0.059,0.059,0.049
1.552,0.034,0.083,0.049,-0.059,-0.01,0.063,-0.083,-0.01,0.054,0.044,0.039,0.034
1.554,-0.005,0.088,0.093,-0.039,-0.049,0.088,-0.063,0.005,0.063,0.054,0.054,0.049
1.556,0.01,0.122,0.112,-0.063,-0.054,0.117,-0.044,0.034,0.078,0.068,0.068,0.063
1.558,0.024,0.117,0.093,-0.068,-0.034,0.102,-0.039,0.034,0.073,0.063,0.068,0.059
1.56,0.0,0.068,0.068,-0.034,-0.034,0.068,-0.054,0.02,0.049,0.044,0.044,0.044
1.562,0.029,0.083,0.054,-0.054,-0.015,0.068,-0.049,0.015,0.054,0.044,0.049,0.049
1.564,-0.054,0.0,0.054,0.029,-0.054,0.024,-0.078,-0.015,0.015,0.02,0.015,0.02
1.566,0.044,0.073,0.029,-0.059,0.005,0.049,-0.068,-0.01,0.034,0.034,0.034,0.029
1.568,0.083,0.117,0.034,-0.098,0.024,0.073,-0.039,0.02,0.059,0.059,0.049,0.054
1.57,0.029,0.088,0.059,-0.059,-0.015,0.073,-0.034,0.015,0.049,0.044,0.039,0.039
1.572,0.039,0.102,0.063,-0.068,-0.015,0.083,-0.015,0.034,0.063,0.059,0.049,0.049
1.574,0.039,0.073,0.034,-0.054,0.0,0.054,-0.024,0.02,0.039,0.034,0.029,0.024
1.576,0.01,0.059,0.049,-0.034,-0.02,0.054,-0.015,0.039,0.044,0.044,0.034,0.029
1.578,-0.044,0.054,0.098,-0.005,-0.073,0.073,0.01,0.059,0.063,0.063,0.054,0.049
1.58,-0.02,0.078,0.098,-0.029,-0.059,0.088,0.034,0.073,0.073,0.078,0.068,0.068
1.582,-0.01,0.054,0.063,-0.02,-0.039,0.059,0.02,0.049,0.054,0.059,0.059,0.054
1.584,-0.01,0.049,0.059,-0.02,-0.034,0.054,0.024,0.054,0.059,0.059,0.059,0.049
1.586,-0.044,0.024,0.068,0.01,-0.059,0.044,0.024,0.049,0.054,0.049,0.044,0.044
1.588,0.015,0.088,0.073,-0.049,-0.029,0.078,0.049,0.073,0.073,0.068,0.054,0.054
1.59,-0.01,0.102,0.112,-0.044,-0.063,0.107,0.068,0.093,0.093,0.078,0.063,0.063
1.592,-0.039,0.098,0.137,-0.029,-0.088,0.117,0.063,0.098,0.102,0.068,0.049,0.059
1.594,0.02,0.171,0.151,-0.093,-0.068,0.161,0.083,0.112,0.117,0.078,0.063,0.078
1.596,0.02,0.2,0.181,-0.107,-0.083,0.19,0.088,0.117,0.122,0.083,0.073,0.093
1.598,-0.005,0.166,0.171,-0.078,-0.088,0.166,0.078,0.112,0.107,0.078,0.083,0.107
1.6,0.02,0.151,0.132,-0.083,-0.059,0.142,0.073,0.112,0.098,0.083,0.102,0.127
1.602,-0.005,0.078,0.083,-0.034,-0.044,0.078,0.063,0.107,0.088,0.107,0.146,0.166
1.604,0.005,0.034,0.029,-0.02,-0.015,0.029,0.039,0.102,0.098,0.146,0.21,0.215
1.606,0.088,0.02,-0.068,-0.054,0.078,-0.024,0.029,0.127,0.156,0.254,0.337,0.298
1.608,0.142,0.02,-0.122,-0.078,0.132,-0.054,0.015,0.146,0.234,0.41,0.537,0.449
1.61,0.229,0.063,-0.166,-0.146,0.195,-0.054,-0.024,0.132,0.293,0.586,0.791,0.639
1.612,0.254,0.024,-0.229,-0.137,0.239,-0.102,-0.088,0.093,0.322,0.712,0.996,0.815
1.614,0.332,0.015,-0.317,-0.171,0.322,-0.151,-0.166,0.059,0.381,0.883,1.22,0.996
1.616,0.468,0.063,-0.405,-0.264,0.434,-0.171,-0.254,0.015,0.488,1.088,1.474,1.2
1.618,0.576,0.132,-0.444,-0.351,0.508,-0.156,-0.342,-0.024,0.62,1.352,1.762,1.415
1.62,0.703,0.21,-0.493,-0.454,0.595,-0.142,-0.395,-0.054,0.698,1.557,2.001,1.61
1.622,0.839,0.278,-0.561,-0.556,0.698,-0.142,-0.439,-0.146,0.634,1.61,2.079,1.669
1.624,0.888,0.239,-0.649,-0.561,0.766,-0.205,-0.488,-0.259,0.517,1.586,2.04,1.62
1.626,0.849,0.146,-0.703,-0.498,0.776,-0.278,-0.512,-0.332,0.429,1.537,1.932,1.484
1.628,0.815,0.093,-0.722,-0.454,0.766,-0.317,-0.527,-0.41,0.312,1.41,1.771,1.332
1.63,0.727,0.034,-0.693,-0.381,0.708,-0.332,-0.532,-0.459,0.161,1.186,1.532,1.157
1.632,0.693,0.039,-0.654,-0.366,0.673,-0.307,-0.454,-0.449,0.059,0.913,1.235,0.937
1.634,0.615,-0.01,-0.625,-0.303,0.62,-0.317,-0.381,-0.405,-0.015,0.664,0.913,0.703
1.636,0.512,-0.117,-0.63,-0.195,0.571,-0.376,-0.317,-0.371,-0.112,0.356,0.556,0.454
1.638,0.444,-0.132,-0.576,-0.156,0.508,-0.356,-0.249,-0.395,-0.317,-0.068,0.151,0.224
1.64,0.317,-0.171,-0.488,-0.073,0.4,-0.332,-0.229,-0.498,-0.625,-0.556,-0.298,-0.005
1.642,0.205,-0.21,-0.415,0.005,0.307,-0.312,-0.224,-0.605,-0.834,-0.859,-0.581,-0.161
1.644,0.195,-0.151,-0.346,-0.02,0.268,-0.249,-0.181,-0.625,-0.932,-0.996,-0.737,-0.259
1.646,0.146,-0.166,-0.312,0.01,0.229,-0.239,-0.161,-0.649,-0.981,-1.069,-0.849,-0.337
1.648,0.029,-0.312,-0.342,0.142,0.185,-0.327,-0.254,-0.742,-1.01,-1.069,-0.903,-0.405
1.65,-0.044,-0.346,-0.303,0.195,0.127,-0.327,-0.317,-0.766,-0.922,-0.937,-0.815,-0.376
1.652,-0.015,-0.259,-0.244,0.137,0.112,-0.254,-0.303,-0.688,-0.776,-0.771,-0.673,-0.307
1.654,0.015,-0.171,-0.185,0.078,0.098,-0.181,-0.273,-0.605,-0.649,-0.639,-0.571,-0.244
1.656,0.029,-0.093,-0.122,0.034,0.073,-0.107,-0.259,-0.542,-0.542,-0.537,-0.483,-0.21
1.658,0.005,-0.063,-0.068,0.029,0.034,-0.068,-0.264,-0.483,-0.459,-0.449,-0.415,-0.171
1.66,0.005,-0.034,-0.039,0.015,0.02,-0.039,-0.249,-0.405,-0.371,-0.371,-0.356,-0.142
1.662,-0.029,-0.059,-0.029,0.044,0.0,-0.044,-0.234,-0.337,-0.283,-0.307,-0.317,-0.137
1.664,0.024,0.0,-0.024,-0.01,0.024,-0.015,-0.224,-0.254,-0.195,-0.239,-0.249,-0.093
1.666,-0.01,0.0,0.01,0.005,-0.01,0.005,-0.2,-0.19,-0.127,-0.176,-0.21,-0.083
1.668,-0.034,-0.01,0.024,0.024,-0.029,0.005,-0.161,-0.127,-0.068,-0.132,-0.171,-0.059
1.67,-0.049,-0.015,0.034,0.034,-0.044,0.01,-0.132,-0.078,-0.029,-0.093,-0.137,-0.039
1.672,-0.059,-0.029,0.029,0.044,-0.044,0.0,-0.127,-0.073,-0.024,-0.083,-0.137,-0.049
1.674,0.0,0.01,0.01,-0.005,-0.005,0.01,-0.122,-0.059,-0.015,-0.073,-0.132,-0.049
1.676,-0.02,-0.034,-0.015,0.029,-0.005,-0.024,-0.137,-0.063,-0.034,-0.088,-0.146,-0.073
1.678,-0.059,-0.054,0.005,0.059,-0.034,-0.024,-0.137,-0.059,-0.029,-0.083,-0.142,-0.073
1.68,-0.049,-0.034,0.015,0.044,-0.034,-0.01,-0.122,-0.039,-0.024,-0.073,-0.132,-0.068
1.682,-0.01,0.005,0.015,0.005,-0.015,0.01,-0.112,-0.029,0.0,-0.059,-0.117,-0.059
1.684,-0.015,-0.01,0.005,0.015,-0.01,-0.005,-0.127,-0.044,-0.01,-0.073,-0.127,-0.068
1.686,-0.068,-0.068,0.0,0.068,-0.034,-0.034,-0.142,-0.059,-0.034,-0.088,-0.146,-0.088
1.688,-0.039,-0.029,0.01,0.034,-0.024,-0.01,-0.137,-0.044,-0.02,-0.073,-0.127,-0.073
1.69,0.015,0.01,-0.005,-0.01,0.01,0.0,-0.142,-0.034,-0.01,-0.068,-0.122,-0.073
1.692,0.015,0.01,-0.005,-0.01,0.01,0.0,-0.132,-0.029,0.0,-0.059,-0.107,-0.054
1.694,0.01,0.034,0.024,-0.02,-0.01,0.029,-0.102,-0.01,0.01,-0.049,-0.093,-0.049
1.696,-0.024,-0.015,0.01,0.02,-0.02,-0.005,-0.102,-0.02,-0.005,-0.068,-0.107,-0.063
1.698,0.01,-0.024,-0.034,0.01,0.02,-0.029,-0.102,-0.02,-0.015,-0.083,-0.122,-0.078
1.7,-0.029,-0.049,-0.02,0.039,-0.005,-0.034,-0.093,-0.02,-0.015,-0.078,-0.127,-0.088
1.702,-0.039,-0.044,-0.005,0.044,-0.02,-0.024,-0.063,0.0,-0.005,-0.068,-0.112,-0.078
1.704,-0.015,-0.02,-0.005,0.02,-0.005,-0.015,-0.044,0.024,0.02,-0.063,-0.102,-0.088
1.706,-0.044,-0.039,0.005,0.044,-0.024,-0.02,-0.034,0.034,0.024,-0.059,-0.102,-0.093
1.708,-0.01,0.015,0.024,0.0,-0.02,0.02,-0.005,0.063,0.044,-0.039,-0.088,-0.073
1.71,-0.01,0.029,0.039,-0.01,-0.024,0.034,0.02,0.088,0.073,-0.015,-0.068,-0.049
1.712,-0.015,0.029,0.044,-0.005,-0.029,0.034,0.029,0.098,0.078,-0.015,-0.054,-0.039
1.714,0.044,0.083,0.039,-0.063,0.0,0.059,0.044,0.107,0.083,-0.01,-0.054,-0.029
1.716,0.0,0.054,0.054,-0.024,-0.029,0.054,0.049,0.107,0.078,-0.01,-0.049,-0.034
1.718,-0.122,-0.054,0.068,0.088,-0.098,0.005,0.02,0.078,0.054,-0.029,-0.088,-0.068
1.72,-0.049,0.029,0.078,0.01,-0.063,0.054,0.054,0.117,0.088,0.0,-0.049,-0.034
1.722,-0.063,-0.015,0.049,0.039,-0.059,0.015,0.044,0.098,0.078,-0.01,-0.063,-0.049
1.724,-0.044,0.01,0.054,0.02,-0.049,0.029,0.044,0.112,0.073,-0.01,-0.063,-0.044
1.726,-0.063,-0.005,0.059,0.034,-0.063,0.024,0.044,0.102,0.068,-0.01,-0.068,-0.059
1.728,-0.049,0.01,0.059,0.02,-0.054,0.034,0.059,0.117,0.078,-0.005,-0.059,-0.034
1.73,-0.039,0.01,0.049,0.015,-0.044,0.029,0.059,0.107,0.073,-0.01,-0.059,-0.039
1.732,-0.068,-0.044,0.024,0.059,-0.049,-0.01,0.049,0.093,0.049,-0.034,-0.088,-0.068
1.734,-0.02,-0.02,0.0,0.02,-0.01,-0.01,0.068,0.102,0.059,-0.034,-0.093,-0.073
1.736,0.0,-0.02,-0.02,0.01,0.01,-0.02,0.063,0.107,0.063,-0.034,-0.088,-0.073
1.738,-0.01,-0.029,-0.02,0.02,0.005,-0.024,0.063,0.107,0.068,-0.034,-0.088,-0.073
1.74,-0.083,-0.073,0.01,0.078,-0.049,-0.034,0.063,0.117,0.078,-0.034,-0.083,-0.073
1.742,-0.112,-0.088,0.024,0.102,-0.068,-0.034,0.063,0.122,0.078,-0.029,-0.078,-0.063
1.744,-0.034,-0.015,0.02,0.024,-0.029,0.0,0.078,0.142,0.102,-0.01,-0.044,-0.044
1.746,0.029,0.029,0.0,-0.029,0.015,0.015,0.093,0.166,0.122,0.01,-0.034,-0.039
1.748,0.034,0.024,-0.01,-0.029,0.02,0.005,0.083,0.156,0.122,0.0,-0.039,-0.044
1.75,-0.044,-0.059,-0.015,0.054,-0.015,-0.039,0.049,0.132,0.098,-0.02,-0.059,-0.073
1.752,-0.044,-0.059,-0.015,0.054,-0.015,-0.039,0.044,0.137,0.102,-0.02,-0.059,-0.073
1.754,-0.005,-0.015,-0.01,0.01,0.0,-0.015,0.044,0.146,0.107,-0.015,-0.049,-0.068
1.756,0.0,-0.015,-0.015,0.01,0.005,-0.015,0.034,0.142,0.107,-0.01,-0.044,-0.063
1.758,-0.029,-0.039,-0.01,0.034,-0.01,-0.024,0.024,0.137,0.107,-0.01,-0.049,-0.068
1.76,-0.029,-0.024,0.005,0.029,-0.02,-0.01,0.02,0.137,0.117,-0.005,-0.044,-0.068
1.762,-0.039,-0.02,0.02,0.029,-0.029,0.0,0.02,0.137,0.122,0.005,-0.039,-0.059
1.764,-0.049,-0.034,0.015,0.044,-0.034,-0.01,0.005,0.127,0.117,0.005,-0.039,-0.063
1.766,-0.054,-0.039,0.015,0.049,-0.034,-0.015,-0.02,0.112,0.107,0.0,-0.054,-0.073
1.768,-0.039,-0.01,0.029,0.024,-0.034,0.01,-0.02,0.122,0.122,0.005,-0.034,-0.063
1.77,-0.049,-0.034,0.015,0.044,-0.034,-0.01,-0.034,0.102,0.112,0.0,-0.044,-0.063
1.772,-0.02,-0.02,0.0,0.02,-0.01,-0.01,-0.049,0.098,0.098,0.0,-0.054,-0.078
1.774,0.005,0.02,0.015,-0.01,-0.005,0.015,-0.039,0.098,0.112,0.01,-0.039,-0.059
1.776,-0.01,0.0,0.01,0.005,-0.01,0.005,-0.039,0.088,0.102,0.005,-0.039,-0.059
1.778,-0.039,-0.044,-0.005,0.044,-0.02,-0.024,-0.059,0.063,0.078,-0.015,-0.059,-0.078
1.78,-0.054,-0.049,0.005,0.054,-0.029,-0.024,-0.063,0.054,0.068,-0.02,-0.073,-0.088
1.782,-0.02,-0.024,-0.005,0.024,-0.01,-0.015,-0.073,0.039,0.073,-0.02,-0.068,-0.088
1.784,-0.029,-0.034,-0.005,0.034,-0.015,-0.02,-0.088,0.034,0.063,-0.024,-0.073,-0.088
1.786,-0.034,-0.034,0.0,0.034,-0.02,-0.02,-0.093,0.024,0.059,-0.024,-0.083,-0.093
1.788,-0.073,-0.063,0.01,0.068,-0.044,-0.029,-0.107,0.005,0.054,-0.044,-0.093,-0.102
1.79,-0.005,-0.015,-0.01,0.01,0.0,-0.015,-0.098,0.015,0.063,-0.029,-0.088,-0.093
1.792,-0.039,-0.044,-0.005,0.044,-0.02,-0.024,-0.107,0.01,0.054,-0.049,-0.102,-0.107
1.794,-0.059,-0.059,0.0,0.059,-0.029,-0.029,-0.098,0.01,0.059,-0.044,-0.107,-0.107
1.796,-0.039,-0.024,0.015,0.034,-0.029,-0.005,-0.088,0.024,0.078,-0.034,-0.093,-0.102
1.798,0.02,0.024,0.005,-0.02,0.005,0.015,-0.073,0.039,0.088,-0.02,-0.083,-0.088
1.8,0.005,0.0,-0.005,0.0,0.005,-0.005,-0.083,0.034,0.083,-0.029,-0.102,-0.107
1.802,-0.034,-0.049,-0.015,0.044,-0.01,-0.034,-0.102,0.01,0.059,-0.063,-0.127,-0.132
1.804,-0.015,-0.054,-0.039,0.034,0.01,-0.049,-0.117,0.0,0.049,-0.078,-0.146,-0.146
1.806,0.015,-0.02,-0.034,0.005,0.024,-0.029,-0.098,0.015,0.059,-0.068,-0.137,-0.142
1.808,0.005,0.005,0.0,-0.005,0.0,0.0,-0.073,0.034,0.083,-0.059,-0.117,-0.117
1.81,-0.044,-0.015,0.029,0.029,-0.039,0.005,-0.078,0.034,0.088,-0.059,-0.122,-0.132
1.812,-0.083,-0.034,0.049,0.059,-0.068,0.005,-0.083,0.034,0.073,-0.073,-0.137,-0.142
1.814,-0.083,-0.049,0.034,0.068,-0.059,-0.01,-0.078,0.034,0.078,-0.068,-0.137,-0.146
1.816,-0.039,-0.024,0.015,0.034,-0.029,-0.005,-0.078,0.039,0.068,-0.083,-0.146,-0.161
1.818,0.02,0.02,0.0,-0.02,0.01,0.01,-0.063,0.059,0.078,-0.068,-0.142,-0.156
1.82,0.015,0.02,0.005,-0.015,0.005,0.01,-0.059,0.063,0.078,-0.078,-0.146,-0.161
1.822,-0.112,-0.083,0.029,0.098,-0.073,-0.029,-0.083,0.034,0.049,-0.107,-0.181,-0.19
1.824,-0.185,-0.107,0.078,0.146,-0.132,-0.015,-0.073,0.049,0.059,-0.102,-0.176,-0.181
1.826,-0.185,-0.117,0.068,0.151,-0.127,-0.024,-0.078,0.044,0.049,-0.112,-0.195,-0.195
1.828,-0.156,-0.122,0.034,0.142,-0.098,-0.044,-0.078,0.039,0.034,-0.137,-0.215,-0.2
1.83,-0.034,-0.024,0.01,0.029,-0.024,-0.01,-0.049,0.073,0.054,-0.112,-0.185,-0.176
1.832,-0.063,-0.034,0.029,0.049,-0.049,-0.005,-0.049,0.068,0.049,-0.117,-0.19,-0.181
1.834,-0.088,-0.068,0.02,0.078,-0.054,-0.024,-0.059,0.059,0.024,-0.137,-0.21,-0.19
1.836,-0.093,-0.093,0.0,0.093,-0.049,-0.049,-0.068,0.044,0.01,-0.156,-0.229,-0.22
1.838,-0.122,-0.132,-0.01,0.127,-0.059,-0.073,-0.063,0.029,-0.005,-0.171,-0.239,-0.224
1.84,-0.078,-0.073,0.005,0.078,-0.044,-0.034,-0.044,0.054,0.005,-0.151,-0.22,-0.205
1.842,-0.078,-0.059,0.02,0.068,-0.049,-0.02,-0.034,0.063,0.015,-0.151,-0.215,-0.2
1.844,-0.098,-0.054,0.044,0.078,-0.073,-0.005,-0.015,0.073,0.029,-0.132,-0.195,-0.185
1.846,-0.083,-0.005,0.078,0.044,-0.083,0.034,0.02,0.098,0.049,-0.102,-0.166,-0.156
1.848,-0.132,-0.054,0.078,0.093,-0.107,0.01,0.005,0.068,0.02,-0.132,-0.185,-0.171
1.85,-0.117,-0.044,0.073,0.083,-0.098,0.015,0.005,0.073,0.015,-0.137,-0.185,-0.171
1.852,-0.102,-0.02,0.083,0.063,-0.093,0.029,0.015,0.083,0.02,-0.122,-0.176,-0.151
1.854,-0.054,0.029,0.083,0.015,-0.068,0.054,0.034,0.098,0.034,-0.098,-0.156,-0.127
1.856,-0.015,0.044,0.059,-0.015,-0.039,0.049,0.015,0.088,0.029,-0.093,-0.142,-0.117
1.858,0.01,0.059,0.049,-0.034,-0.02,0.054,0.01,0.088,0.029,-0.083,-0.132,-0.107
1.86,-0.073,-0.02,0.054,0.049,-0.063,0.015,-0.01,0.068,0.01,-0.102,-0.142,-0.117
1.862,-0.122,-0.073,0.049,0.098,-0.088,-0.015,-0.029,0.049,-0.015,-0.122,-0.161,-0.132
1.864,-0.068,-0.034,0.034,0.054,-0.054,0.0,-0.02,0.063,0.005,-0.088,-0.137,-0.107
1.866,-0.049,-0.005,0.044,0.029,-0.049,0.02,0.005,0.088,0.024,-0.073,-0.107,-0.078
1.868,-0.083,-0.034,0.049,0.059,-0.068,0.005,-0.01,0.073,0.01,-0.083,-0.112,-0.088
1.87,-0.102,-0.059,0.044,0.083,-0.073,-0.01,-0.02,0.054,-0.005,-0.088,-0.122,-0.098
1.872,-0.068,-0.034,0.034,0.054,-0.054,0.0,-0.015,0.059,0.0,-0.078,-0.112,-0.088
1.874,-0.063,-0.044,0.02,0.054,-0.044,-0.015,-0.024,0.049,-0.02,-0.083,-0.107,-0.098
1.876,-0.015,0.0,0.015,0.01,-0.015,0.005,-0.01,0.059,-0.005,-0.063,-0.083,-0.073
1.878,-0.005,0.015,0.02,-0.005,-0.015,0.015,-0.005,0.059,0.01,-0.054,-0.073,-0.059
1.88,-0.01,0.01,0.02,0.0,-0.015,0.015,-0.005,0.063,0.0,-0.059,-0.078,-0.063
1.882,-0.01,-0.02,-0.01,0.015,0.0,-0.015,-0.015,0.054,-0.015,-0.063,-0.083,-0.068
1.884,-0.044,-0.073,-0.029,0.059,-0.01,-0.054,-0.039,0.024,-0.034,-0.088,-0.107,-0.093
1.886,-0.02,-0.044,-0.024,0.034,0.0,-0.034,-0.034,0.034,-0.034,-0.078,-0.093,-0.083
1.888,-0.054,-0.063,-0.01,0.059,-0.024,-0.039,-0.029,0.034,-0.034,-0.083,-0.098,-0.088
1.89,-0.088,-0.093,-0.005,0.093,-0.044,-0.049,-0.054,0.015,-0.039,-0.093,-0.107,-0.098
1.892,-0.107,-0.093,0.015,0.102,-0.063,-0.039,-0.044,0.02,-0.034,-0.078,-0.093,-0.088
1.894,-0.059,-0.044,0.015,0.054,-0.039,-0.015,-0.054,0.015,-0.039,-0.078,-0.088,-0.078
1.896,-0.029,-0.044,-0.015,0.039,-0.01,-0.029,-0.078,-0.02,-0.054,-0.093,-0.102,-0.093
1.898,-0.054,-0.073,-0.02,0.063,-0.02,-0.049,-0.098,-0.054,-0.078,-0.102,-0.117,-0.102
1.9,-0.049,-0.059,-0.01,0.054,-0.02,-0.034,-0.098,-0.068,-0.083,-0.112,-0.122,-0.102
1.902,-0.054,-0.068,-0.015,0.063,-0.02,-0.044,-0.102,-0.073,-0.098,-0.132,-0.137,-0.117
1.904,-0.073,-0.098,-0.024,0.088,-0.024,-0.063,-0.112,-0.093,-0.117,-0.156,-0.166,-0.132
1.906,-0.034,-0.059,-0.024,0.049,-0.005,-0.044,-0.093,-0.088,-0.117,-0.156,-0.156,-0.127
1.908,-0.049,-0.054,-0.005,0.054,-0.024,-0.029,-0.088,-0.093,-0.117,-0.156,-0.156,-0.122
1.91,-0.059,-0.063,-0.005,0.063,-0.029,-0.034,-0.098,-0.107,-0.132,-0.171,-0.171,-0.132
1.912,-0.122,-0.142,-0.02,0.132,-0.054,-0.083,-0.127,-0.146,-0.171,-0.195,-0.195,-0.161
1.914,-0.127,-0.176,-0.049,0.151,-0.039,-0.112,-0.132,-0.166,-0.19,-0.21,-0.21,-0.176
1.916,-0.054,-0.107,-0.054,0.083,0.0,-0.083,-0.117,-0.156,-0.176,-0.205,-0.195,-0.161
1.918,-0.054,-0.093,-0.039,0.073,-0.01,-0.068,-0.102,-0.146,-0.176,-0.195,-0.185,-0.146
1.92,-0.122,-0.142,-0.02,0.132,-0.054,-0.083,-0.112,-0.161,-0.195,-0.205,-0.2,-0.161
1.922,-0.137,-0.137,0.0,0.137,-0.068,-0.068,-0.107,-0.161,-0.19,-0.21,-0.205,-0.161
1.924,-0.093,-0.083,0.01,0.088,-0.054,-0.039,-0.078,-0.132,-0.161,-0.19,-0.185,-0.142
1.926,-0.093,-0.073,0.02,0.083,-0.059,-0.029,-0.078,-0.137,-0.171,-0.19,-0.2,-0.151
1.928,-0.098,-0.073,0.024,0.088,-0.063,-0.024,-0.078,-0.132,-0.171,-0.205,-0.21,-0.166
1.93,-0.142,-0.132,0.01,0.137,-0.078,-0.063,-0.102,-0.156,-0.19,-0.229,-0.229,-0.195
1.932,-0.112,-0.117,-0.005,0.117,-0.054,-0.063,-0.088,-0.151,-0.19,-0.224,-0.229,-0.185
1.934,-0.122,-0.142,-0.02,0.132,-0.054,-0.083,-0.093,-0.161,-0.205,-0.244,-0.244,-0.195
1.936,-0.054,-0.112,-0.059,0.083,0.0,-0.088,-0.088,-0.156,-0.205,-0.249,-0.239,-0.2
1.938,-0.054,-0.122,-0.068,0.088,0.005,-0.098,-0.083,-0.161,-0.205,-0.249,-0.249,-0.205
1.94,-0.102,-0.127,-0.024,0.117,-0.039,-0.078,-0.068,-0.156,-0.195,-0.239,-0.234,-0.185
1.942,-0.151,-0.137,0.015,0.146,-0.083,-0.063,-0.063,-0.146,-0.185,-0.234,-0.224,-0.176
1.944,-0.142,-0.156,-0.015,0.151,-0.063,-0.088,-0.063,-0.146,-0.185,-0.234,-0.224,-0.181
1.946,-0.112,-0.142,-0.029,0.127,-0.044,-0.088,-0.063,-0.142,-0.19,-0.234,-0.224,-0.185
1.948,-0.093,-0.132,-0.039,0.112,-0.029,-0.088,-0.063,-0.137,-0.19,-0.244,-0.229,-0.19
1.95,-0.063,-0.107,-0.044,0.088,-0.01,-0.078,-0.054,-0.122,-0.176,-0.229,-0.224,-0.185
1.952,-0.107,-0.137,-0.029,0.122,-0.039,-0.083,-0.049,-0.122,-0.176,-0.229,-0.22,-0.181
1.954,-0.132,-0.166,-0.034,0.151,-0.049,-0.102,-0.049,-0.117,-0.176,-0.224,-0.224,-0.185
1.956,-0.083,-0.132,-0.049,0.107,-0.02,-0.093,-0.044,-0.107,-0.166,-0.22,-0.215,-0.181
1.958,-0.054,-0.107,-0.054,0.083,0.0,-0.083,-0.039,-0.088,-0.151,-0.205,-0.205,-0.166
1.96,-0.088,-0.127,-0.039,0.107,-0.024,-0.083,-0.039,-0.093,-0.151,-0.2,-0.2,-0.166
1.962,-0.078,-0.122,-0.044,0.102,-0.02,-0.083,-0.044,-0.088,-0.146,-0.195,-0.195,-0.161
1.964,-0.073,-0.117,-0.044,0.098,-0.015,-0.083,-0.039,-0.088,-0.142,-0.19,-0.195,-0.161
1.966,-0.059,-0.112,-0.054,0.088,-0.005,-0.083,-0.029,-0.073,-0.122,-0.171,-0.171,-0.137
1.968,-0.093,-0.142,-0.049,0.117,-0.024,-0.098,-0.034,-0.078,-0.127,-0.176,-0.181,-0.151
1.97,-0.088,-0.142,-0.054,0.117,-0.02,-0.098,-0.029,-0.063,-0.112,-0.156,-0.171,-0.142
1.972,-0.083,-0.127,-0.044,0.107,-0.02,-0.088,-0.015,-0.049,-0.093,-0.137,-0.151,-0.132
1.974,-0.073,-0.102,-0.029,0.088,-0.024,-0.068,0.005,-0.015,-0.059,-0.102,-0.122,-0.102
1.976,-0.063,-0.059,0.005,0.063,-0.034,-0.029,0.024,0.015,-0.024,-0.068,-0.083,-0.073
1.978,-0.049,-0.029,0.02,0.039,-0.034,-0.005,0.024,0.02,-0.01,-0.049,-0.059,-0.049
1.98,-0.059,-0.029,0.029,0.044,-0.044,0.0,0.024,0.034,0.005,-0.034,-0.049,-0.049
1.982,-0.034,0.015,0.049,0.01,-0.044,0.029,0.02,0.039,0.02,-0.01,-0.029,-0.034
1.984,-0.015,0.044,0.059,-0.015,-0.039,0.049,0.01,0.044,0.044,0.015,0.0,-0.01
1.986,-0.059,0.029,0.088,0.015,-0.073,0.059,-0.005,0.049,0.059,0.044,0.024,0.015
1.988,-0.049,0.083,0.132,-0.015,-0.093,0.107,0.0,0.063,0.093,0.093,0.073,0.063
1.99,-0.015,0.132,0.146,-0.059,-0.083,0.137,-0.015,0.068,0.127,0.142,0.122,0.107
1.992,0.024,0.146,0.122,-0.083,-0.049,0.132,-0.054,0.063,0.161,0.176,0.171,0.142
1.994,0.068,0.195,0.127,-0.132,-0.029,0.161,-0.083,0.063,0.2,0.229,0.22,0.181
1.996,0.122,0.264,0.142,-0.19,-0.01,0.2,-0.083,0.088,0.268,0.317,0.298,0.254
1.998,0.068,0.22,0.151,-0.142,-0.044,0.185,-0.122,0.073,0.288,0.351,0.342,0.288
2.0,0.034,0.215,0.181,-0.122,-0.073,0.195,-0.176,0.039,0.288,0.376,0.366,0.312
2.002,0.078,0.278,0.2,-0.176,-0.063,0.239,-0.195,0.034,0.322,0.434,0.434,0.376
2.004,0.059,0.268,0.21,-0.161,-0.078,0.239,-0.224,0.024,0.361,0.493,0.493,0.429
2.006,0.122,0.293,0.171,-0.205,-0.024,0.229,-0.259,0.01,0.386,0.542,0.561,0.488
2.008,0.205,0.307,0.102,-0.254,0.049,0.205,-0.283,-0.005,0.395,0.576,0.605,0.527
2.01,0.224,0.239,0.015,-0.229,0.102,0.127,-0.337,-0.054,0.395,0.605,0.654,0.566
2.012,0.268,0.19,-0.078,-0.229,0.171,0.054,-0.386,-0.078,0.42,0.688,0.752,0.639
2.014,0.356,0.22,-0.137,-0.288,0.244,0.039,-0.381,-0.039,0.508,0.82,0.898,0.742
2.016,0.42,0.21,-0.21,-0.312,0.312,0.0,-0.4,-0.024,0.6,0.971,1.074,0.864
2.018,0.532,0.21,-0.322,-0.371,0.425,-0.059,-0.439,-0.029,0.693,1.157,1.293,1.015
2.02,0.571,0.142,-0.429,-0.356,0.498,-0.146,-0.512,-0.078,0.756,1.327,1.508,1.166
2.022,0.659,0.127,-0.532,-0.39,0.595,-0.205,-0.576,-0.122,0.83,1.518,1.752,1.342
2.024,0.732,0.112,-0.62,-0.42,0.673,-0.254,-0.634,-0.137,0.922,1.737,2.02,1.537
2.026,0.761,0.107,-0.654,-0.434,0.708,-0.273,-0.683,-0.151,1.02,1.947,2.294,1.732
2.028,0.8,0.093,-0.708,-0.444,0.752,-0.307,-0.712,-0.127,1.166,2.186,2.557,1.918
2.03,0.874,0.039,-0.834,-0.454,0.854,-0.4,-0.742,-0.068,1.347,2.42,2.772,2.035
2.032,1.03,0.059,-0.971,-0.542,1.0,-0.459,-0.678,0.107,1.62,2.684,2.952,2.123
2.034,1.122,-0.024,-1.147,-0.547,1.132,-0.586,-0.59,0.298,1.879,2.904,3.016,2.084
2.036,1.152,-0.166,-1.318,-0.493,1.235,-0.742,-0.468,0.478,2.045,2.982,2.938,1.918
2.038,1.157,-0.273,-1.43,-0.439,1.293,-0.854,-0.332,0.615,2.064,2.889,2.723,1.654
2.04,1.074,-0.386,-1.459,-0.342,1.264,-0.922,-0.195,0.756,2.045,2.694,2.45,1.381
2.042,1.02,-0.459,-1.479,-0.278,1.249,-0.971,-0.078,0.874,1.942,2.42,2.137,1.127
2.044,0.913,-0.464,-1.376,-0.224,1.142,-0.922,0.063,0.996,1.801,2.108,1.835,0.913
2.046,0.888,-0.356,-1.244,-0.264,1.064,-0.8,0.239,1.127,1.654,1.801,1.547,0.732
2.048,0.732,-0.371,-1.103,-0.181,0.917,-0.737,0.346,1.161,1.435,1.425,1.181,0.498
2.05,0.6,-0.337,-0.937,-0.132,0.766,-0.639,0.459,1.205,1.235,1.035,0.81,0.288
2.052,0.483,-0.312,-0.795,-0.083,0.639,-0.556,0.512,1.196,1.03,0.654,0.459,0.107
2.054,0.264,-0.361,-0.625,0.049,0.444,-0.493,0.493,1.064,0.737,0.254,0.107,-0.078
2.056,0.259,-0.259,-0.517,0.0,0.386,-0.39,0.478,0.917,0.512,0.039,-0.088,-0.171
2.058,0.224,-0.215,-0.439,-0.005,0.332,-0.327,0.395,0.712,0.332,-0.088,-0.19,-0.22
2.06,0.161,-0.151,-0.312,-0.005,0.234,-0.234,0.337,0.542,0.181,-0.205,-0.264,-0.249
2.062,0.078,-0.107,-0.185,0.015,0.132,-0.146,0.288,0.366,0.054,-0.254,-0.298,-0.239
2.064,-0.068,-0.146,-0.078,0.107,0.005,-0.112,0.254,0.264,-0.005,-0.268,-0.307,-0.239
2.066,-0.151,-0.156,-0.005,0.156,-0.073,-0.083,0.244,0.19,-0.034,-0.268,-0.303,-0.244
2.068,-0.102,-0.073,0.029,0.088,-0.068,-0.024,0.244,0.122,-0.059,-0.254,-0.283,-0.239
2.07,-0.137,-0.059,0.078,0.098,-0.107,0.01,0.249,0.088,-0.078,-0.249,-0.288,-0.249
2.072,-0.142,-0.054,0.088,0.098,-0.117,0.015,0.229,0.01,-0.132,-0.298,-0.317,-0.283
2.074,-0.146,-0.044,0.102,0.098,-0.127,0.029,0.22,-0.029,-0.176,-0.327,-0.327,-0.288
2.076,-0.205,-0.102,0.102,0.156,-0.156,0.0,0.185,-0.063,-0.22,-0.356,-0.346,-0.307
2.078,-0.195,-0.117,0.078,0.156,-0.137,-0.02,0.146,-0.107,-0.259,-0.4,-0.39,-0.327
2.08,-0.137,-0.102,0.034,0.122,-0.088,-0.034,0.142,-0.102,-0.264,-0.42,-0.386,-0.327
2.082,-0.107,-0.117,-0.01,0.112,-0.049,-0.063,0.122,-0.107,-0.278,-0.425,-0.381,-0.327
2.084,-0.146,-0.146,0.0,0.146,-0.073,-0.073,0.102,-0.122,-0.283,-0.42,-0.376,-0.317
2.086,-0.185,-0.161,0.024,0.176,-0.107,-0.068,0.093,-0.112,-0.268,-0.415,-0.366,-0.307
2.088,-0.215,-0.185,0.029,0.2,-0.122,-0.078,0.083,-0.102,-0.268,-0.41,-0.361,-0.312
2.09,-0.224,-0.21,0.015,0.22,-0.122,-0.098,0.078,-0.093,-0.259,-0.405,-0.361,-0.312
2.092,-0.205,-0.224,-0.02,0.215,-0.093,-0.122,0.049,-0.102,-0.278,-0.42,-0.381,-0.322
2.094,-0.21,-0.259,-0.049,0.234,-0.083,-0.156,0.029,-0.117,-0.307,-0.434,-0.39,-0.337
2.096,-0.2,-0.249,-0.049,0.224,-0.078,-0.151,0.024,-0.117,-0.312,-0.439,-0.395,-0.346
2.098,-0.161,-0.195,-0.034,0.181,-0.063,-0.117,0.049,-0.098,-0.298,-0.415,-0.371,-0.317
2.1,-0.19,-0.195,-0.005,0.195,-0.093,-0.102,0.068,-0.093,-0.303,-0.405,-0.361,-0.312
2.102,-0.19,-0.181,0.01,0.185,-0.102,-0.088,0.078,-0.098,-0.307,-0.395,-0.356,-0.312
2.104,-0.181,-0.195,-0.015,0.19,-0.083,-0.107,0.073,-0.107,-0.317,-0.395,-0.381,-0.322
2.106,-0.161,-0.19,-0.029,0.176,-0.068,-0.112,0.068,-0.117,-0.322,-0.395,-0.39,-0.332
2.108,-0.146,-0.195,-0.049,0.171,-0.049,-0.122,0.063,-0.132,-0.337,-0.405,-0.41,-0.351
2.11,-0.156,-0.19,-0.034,0.176,-0.063,-0.112,0.068,-0.132,-0.342,-0.4,-0.42,-0.351
2.112,-0.156,-0.185,-0.029,0.171,-0.063,-0.107,0.073,-0.122,-0.342,-0.395,-0.42,-0.356
2.114,-0.195,-0.2,-0.005,0.2,-0.098,-0.102,0.073,-0.117,-0.342,-0.395,-0.42,-0.351
2.116,-0.176,-0.195,-0.02,0.185,-0.078,-0.107,0.083,-0.112,-0.342,-0.395,-0.425,-0.351
2.118,-0.171,-0.185,-0.015,0.181,-0.078,-0.102,0.083,-0.107,-0.337,-0.381,-0.42,-0.337
2.12,-0.185,-0.171,0.015,0.181,-0.102,-0.078,0.102,-0.098,-0.327,-0.371,-0.405,-0.317
2.122,-0.234,-0.2,0.034,0.22,-0.137,-0.083,0.107,-0.093,-0.327,-0.371,-0.415,-0.317
2.124,-0.205,-0.195,0.01,0.2,-0.107,-0.093,0.117,-0.093,-0.322,-0.371,-0.415,-0.317
2.126,-0.2,-0.2,0.0,0.2,-0.102,-0.102,0.102,-0.098,-0.327,-0.386,-0.434,-0.332
2.128,-0.171,-0.181,-0.01,0.176,-0.083,-0.098,0.107,-0.098,-0.327,-0.395,-0.449,-0.346
2.13,-0.156,-0.161,-0.005,0.161,-0.078,-0.083,0.112,-0.098,-0.327,-0.4,-0.449,-0.346
2.132,-0.171,-0.176,-0.005,0.176,-0.083,-0.093,0.112,-0.107,-0.342,-0.405,-0.459,-0.361
2.134,-0.156,-0.171,-0.015,0.166,-0.073,-0.093,0.093,-0.112,-0.346,-0.415,-0.464,-0.366
2.136,-0.088,-0.098,-0.01,0.093,-0.039,-0.054,0.107,-0.093,-0.327,-0.4,-0.444,-0.346
2.138,-0.112,-0.117,-0.005,0.117,-0.054,-0.063,0.088,-0.102,-0.351,-0.415,-0.449,-0.346
2.14,-0.195,-0.176,0.02,0.185,-0.107,-0.078,0.063,-0.132,-0.376,-0.444,-0.468,-0.366
2.142,-0.185,-0.127,0.059,0.156,-0.122,-0.034,0.083,-0.117,-0.351,-0.425,-0.444,-0.332
2.144,-0.234,-0.176,0.059,0.205,-0.146,-0.059,0.073,-0.142,-0.366,-0.429,-0.449,-0.337
2.146,-0.239,-0.171,0.068,0.205,-0.156,-0.054,0.059,-0.161,-0.371,-0.439,-0.449,-0.342
2.148,-0.215,-0.137,0.078,0.176,-0.146,-0.029,0.063,-0.166,-0.371,-0.439,-0.449,-0.351
2.15,-0.215,-0.156,0.059,0.185,-0.137,-0.049,0.039,-0.195,-0.4,-0.454,-0.468,-0.366
2.152,-0.166,-0.112,0.054,0.142,-0.112,-0.029,0.034,-0.2,-0.405,-0.459,-0.468,-0.366
2.154,-0.2,-0.127,0.073,0.166,-0.137,-0.029,0.029,-0.215,-0.415,-0.473,-0.478,-0.366
2.156,-0.264,-0.176,0.088,0.22,-0.176,-0.044,0.02,-0.234,-0.439,-0.493,-0.498,-0.381
2.158,-0.268,-0.181,0.088,0.224,-0.181,-0.049,0.02,-0.239,-0.449,-0.488,-0.498,-0.371
2.16,-0.229,-0.132,0.098,0.181,-0.166,-0.02,0.034,-0.234,-0.439,-0.478,-0.493,-0.371
2.162,-0.273,-0.19,0.083,0.234,-0.181,-0.054,0.02,-0.259,-0.464,-0.498,-0.512,-0.386
2.164,-0.317,-0.234,0.083,0.278,-0.2,-0.078,0.015,-0.273,-0.478,-0.522,-0.532,-0.405
2.166,-0.254,-0.166,0.088,0.21,-0.171,-0.039,0.044,-0.254,-0.454,-0.503,-0.522,-0.39
2.168,-0.19,-0.112,0.078,0.151,-0.137,-0.02,0.059,-0.244,-0.449,-0.503,-0.522,-0.395
2.17,-0.195,-0.146,0.049,0.171,-0.122,-0.049,0.049,-0.259,-0.478,-0.527,-0.556,-0.41
2.172,-0.22,-0.137,0.083,0.181,-0.151,-0.029,0.054,-0.259,-0.473,-0.542,-0.566,-0.42
2.174,-0.278,-0.171,0.107,0.224,-0.195,-0.034,0.054,-0.264,-0.493,-0.556,-0.581,-0.434
2.176,-0.298,-0.166,0.132,0.234,-0.215,-0.02,0.063,-0.264,-0.493,-0.566,-0.59,-0.439
2.178,-0.249,-0.122,0.127,0.185,-0.19,0.0,0.078,-0.254,-0.488,-0.561,-0.586,-0.425
2.18,-0.273,-0.127,0.146,0.2,-0.21,0.01,0.073,-0.268,-0.508,-0.586,-0.605,-0.439
2.182,-0.337,-0.176,0.161,0.259,-0.249,-0.01,0.068,-0.293,-0.532,-0.61,-0.62,-0.449
2.184,-0.312,-0.176,0.137,0.244,-0.224,-0.02,0.063,-0.307,-0.547,-0.63,-0.639,-0.468
2.186,-0.317,-0.19,0.127,0.254,-0.224,-0.034,0.049,-0.327,-0.571,-0.654,-0.673,-0.498
2.188,-0.298,-0.156,0.142,0.229,-0.22,-0.01,0.054,-0.327,-0.571,-0.664,-0.678,-0.503
2.19,-0.283,-0.137,0.146,0.21,-0.215,0.005,0.063,-0.312,-0.561,-0.664,-0.678,-0.493
2.192,-0.361,-0.21,0.151,0.288,-0.259,-0.029,0.044,-0.332,-0.586,-0.698,-0.708,-0.517
2.194,-0.351,-0.205,0.146,0.278,-0.249,-0.029,0.049,-0.317,-0.605,-0.708,-0.717,-0.527
2.196,-0.229,-0.088,0.142,0.161,-0.185,0.024,0.098,-0.278,-0.571,-0.683,-0.683,-0.483
2.198,-0.229,-0.088,0.142,0.161,-0.185,0.024,0.098,-0.288,-0.581,-0.693,-0.688,-0.478
2.2,-0.342,-0.2,0.142,0.273,-0.244,-0.029,0.068,-0.322,-0.634,-0.742,-0.737,-0.527
2.202,-0.273,-0.156,0.117,0.215,-0.195,-0.02,0.073,-0.327,-0.639,-0.747,-0.752,-0.517
2.204,-0.288,-0.176,0.112,0.234,-0.2,-0.034,0.073,-0.332,-0.649,-0.761,-0.761,-0.532
2.206,-0.254,-0.137,0.117,0.195,-0.185,-0.01,0.088,-0.322,-0.649,-0.766,-0.761,-0.532
2.208,-0.268,-0.142,0.127,0.205,-0.2,-0.01,0.078,-0.317,-0.654,-0.776,-0.776,-0.532
2.21,-0.322,-0.146,0.176,0.234,-0.249,0.015,0.083,-0.303,-0.639,-0.771,-0.761,-0.522
2.212,-0.351,-0.132,0.22,0.244,-0.288,0.044,0.102,-0.288,-0.625,-0.766,-0.752,-0.503
2.214,-0.298,-0.063,0.234,0.181,-0.268,0.083,0.112,-0.268,-0.62,-0.742,-0.742,-0.488
2.216,-0.356,-0.107,0.249,0.234,-0.303,0.068,0.093,-0.293,-0.649,-0.766,-0.761,-0.503
2.218,-0.41,-0.151,0.259,0.283,-0.337,0.054,0.068,-0.312,-0.678,-0.795,-0.791,-0.522
2.22,-0.337,-0.112,0.224,0.224,-0.283,0.054,0.068,-0.312,-0.673,-0.795,-0.795,-0.512
2.222,-0.264,-0.078,0.185,0.171,-0.224,0.054,0.068,-0.317,-0.678,-0.8,-0.805,-0.522
2.224,-0.303,-0.122,0.181,0.215,-0.244,0.029,0.044,-0.337,-0.703,-0.83,-0.82,-0.547
2.226,-0.342,-0.117,0.224,0.229,-0.283,0.054,0.044,-0.337,-0.703,-0.83,-0.825,-0.542
2.228,-0.322,-0.093,0.229,0.21,-0.278,0.068,0.068,-0.327,-0.683,-0.81,-0.815,-0.537
2.23,-0.346,-0.112,0.234,0.229,-0.293,0.059,0.059,-0.327,-0.693,-0.815,-0.825,-0.542
2.232,-0.366,-0.132,0.234,0.249,-0.303,0.049,0.039,-0.332,-0.703,-0.83,-0.839,-0.547
2.234,-0.356,-0.117,0.239,0.239,-0.298,0.059,0.034,-0.337,-0.708,-0.834,-0.844,-0.547
2.236,-0.356,-0.117,0.239,0.239,-0.298,0.059,0.034,-0.327,-0.698,-0.825,-0.83,-0.532
2.238,-0.356,-0.112,0.244,0.234,-0.303,0.063,0.039,-0.322,-0.693,-0.805,-0.815,-0.498
2.24,-0.332,-0.088,0.244,0.21,-0.288,0.078,0.039,-0.317,-0.683,-0.795,-0.791,-0.488
2.242,-0.337,-0.098,0.239,0.22,-0.288,0.068,0.034,-0.317,-0.683,-0.786,-0.781,-0.483
2.244,-0.303,-0.088,0.215,0.195,-0.259,0.063,0.044,-0.312,-0.659,-0.761,-0.761,-0.464
2.246,-0.259,-0.073,0.185,0.166,-0.224,0.054,0.049,-0.307,-0.654,-0.742,-0.747,-0.449
2.248,-0.249,-0.073,0.176,0.161,-0.215,0.049,0.034,-0.307,-0.634,-0.732,-0.732,-0.439
2.25,-0.239,-0.088,0.151,0.166,-0.195,0.029,0.02,-0.317,-0.639,-0.727,-0.727,-0.439
2.252,-0.215,-0.073,0.142,0.146,-0.181,0.034,0.015,-0.312,-0.63,-0.708,-0.708,-0.42
2.254,-0.259,-0.117,0.142,0.19,-0.2,0.01,0.0,-0.317,-0.639,-0.708,-0.708,-0.429
2.256,-0.239,-0.112,0.127,0.176,-0.185,0.005,0.01,-0.303,-0.615,-0.673,-0.664,-0.4
2.258,-0.224,-0.098,0.127,0.161,-0.176,0.015,0.02,-0.288,-0.581,-0.63,-0.625,-0.361
2.26,-0.215,-0.093,0.122,0.156,-0.171,0.015,0.02,-0.278,-0.561,-0.605,-0.595,-0.346
2.262,-0.166,-0.083,0.083,0.127,-0.127,0.0,0.02,-0.273,-0.551,-0.581,-0.566,-0.342
2.264,-0.132,-0.059,0.073,0.098,-0.102,0.005,0.029,-0.259,-0.517,-0.547,-0.537,-0.317
2.266,-0.156,-0.102,0.054,0.132,-0.107,-0.024,0.02,-0.254,-0.498,-0.527,-0.517,-0.312
2.268,-0.117,-0.088,0.029,0.102,-0.073,-0.029,0.005,-0.254,-0.478,-0.508,-0.503,-0.312
2.27,-0.088,-0.059,0.029,0.073,-0.059,-0.015,0.015,-0.244,-0.454,-0.459,-0.464,-0.288
2.272,-0.117,-0.078,0.039,0.098,-0.078,-0.02,0.005,-0.239,-0.439,-0.439,-0.434,-0.268
2.274,-0.146,-0.102,0.044,0.127,-0.098,-0.029,-0.005,-0.239,-0.429,-0.425,-0.42,-0.254
2.276,-0.161,-0.102,0.059,0.132,-0.112,-0.024,0.005,-0.234,-0.41,-0.395,-0.39,-0.239
2.278,-0.151,-0.093,0.059,0.122,-0.107,-0.02,0.015,-0.22,-0.386,-0.366,-0.361,-0.215
2.28,-0.117,-0.068,0.049,0.093,-0.083,-0.01,0.01,-0.22,-0.371,-0.342,-0.332,-0.195
2.282,-0.127,-0.093,0.034,0.112,-0.083,-0.029,0.0,-0.229,-0.366,-0.327,-0.327,-0.2
2.284,-0.112,-0.098,0.015,0.107,-0.063,-0.044,-0.005,-0.244,-0.361,-0.322,-0.322,-0.2
2.286,-0.063,-0.049,0.015,0.059,-0.039,-0.02,0.015,-0.224,-0.327,-0.288,-0.288,-0.176
2.288,-0.063,-0.044,0.02,0.054,-0.044,-0.015,0.015,-0.22,-0.317,-0.278,-0.273,-0.181
2.29,-0.088,-0.083,0.005,0.088,-0.049,-0.039,0.005,-0.239,-0.312,-0.273,-0.273,-0.181
2.292,-0.083,-0.063,0.02,0.073,-0.054,-0.024,0.01,-0.234,-0.298,-0.259,-0.254,-0.171
2.294,-0.166,-0.132,0.034,0.151,-0.102,-0.049,-0.02,-0.254,-0.317,-0.278,-0.278,-0.2
2.296,-0.059,-0.024,0.034,0.044,-0.049,0.005,0.024,-0.205,-0.268,-0.229,-0.234,-0.161
2.298,-0.039,-0.024,0.015,0.034,-0.029,-0.005,0.029,-0.2,-0.259,-0.224,-0.229,-0.151
2.3,-0.054,-0.049,0.005,0.054,-0.029,-0.024,0.024,-0.205,-0.264,-0.224,-0.224,-0.156
2.302,-0.098,-0.098,0.0,0.098,-0.049,-0.049,0.015,-0.215,-0.273,-0.229,-0.239,-0.176
2.304,-0.078,-0.073,0.005,0.078,-0.044,-0.034,0.039,-0.195,-0.239,-0.2,-0.21,-0.151
2.306,-0.107,-0.063,0.044,0.088,-0.078,-0.01,0.063,-0.176,-0.21,-0.181,-0.19,-0.132
2.308,-0.122,-0.049,0.073,0.088,-0.098,0.01,0.078,-0.166,-0.19,-0.161,-0.171,-0.117
2.31,-0.137,-0.068,0.068,0.102,-0.102,0.0,0.088,-0.156,-0.181,-0.156,-0.166,-0.112
2.312,-0.102,-0.049,0.054,0.078,-0.078,0.0,0.088,-0.146,-0.171,-0.161,-0.166,-0.122
2.314,-0.161,-0.112,0.049,0.137,-0.107,-0.034,0.078,-0.171,-0.195,-0.185,-0.19,-0.146
2.316,-0.166,-0.127,0.039,0.146,-0.102,-0.044,0.068,-0.171,-0.2,-0.19,-0.19,-0.151
2.318,-0.102,-0.078,0.024,0.093,-0.063,-0.029,0.083,-0.142,-0.185,-0.176,-0.181,-0.137
2.32,-0.102,-0.059,0.044,0.083,-0.073,-0.01,0.098,-0.122,-0.176,-0.166,-0.166,-0.132
2.322,-0.098,-0.049,0.049,0.073,-0.073,0.0,0.107,-0.127,-0.176,-0.161,-0.171,-0.137
2.324,-0.093,-0.054,0.039,0.073,-0.068,-0.01,0.098,-0.137,-0.176,-0.171,-0.185,-0.166
2.326,-0.102,-0.059,0.044,0.083,-0.073,-0.01,0.107,-0.122,-0.171,-0.171,-0.185,-0.161
2.328,-0.142,-0.073,0.068,0.107,-0.107,-0.005,0.107,-0.112,-0.171,-0.166,-0.185,-0.161
2.33,-0.117,-0.044,0.073,0.083,-0.098,0.015,0.132,-0.098,-0.151,-0.146,-0.171,-0.142
2.332,-0.083,-0.039,0.044,0.063,-0.063,0.0,0.127,-0.102,-0.156,-0.161,-0.176,-0.151
2.334,-0.137,-0.073,0.063,0.107,-0.102,-0.005,0.117,-0.102,-0.166,-0.166,-0.176,-0.151
2.336,-0.132,-0.078,0.054,0.107,-0.093,-0.015,0.127,-0.073,-0.146,-0.146,-0.166,-0.142
2.338,-0.102,-0.049,0.054,0.078,-0.078,0.0,0.156,-0.044,-0.117,-0.117,-0.137,-0.112
2.34,-0.137,-0.078,0.059,0.107,-0.098,-0.01,0.142,-0.049,-0.122,-0.137,-0.146,-0.122
2.342,-0.137,-0.088,0.049,0.112,-0.093,-0.02,0.137,-0.049,-0.127,-0.127,-0.137,-0.112
2.344,-0.137,-0.102,0.034,0.122,-0.088,-0.034,0.137,-0.044,-0.122,-0.127,-0.142,-0.117
2.346,-0.122,-0.112,0.01,0.117,-0.068,-0.054,0.132,-0.049,-0.127,-0.127,-0.146,-0.122
2.348,-0.112,-0.107,0.005,0.112,-0.059,-0.054,0.127,-0.049,-0.127,-0.132,-0.146,-0.122
2.35,-0.122,-0.098,0.024,0.112,-0.073,-0.039,0.132,-0.044,-0.117,-0.122,-0.146,-0.122
2.352,-0.063,-0.049,0.015,0.059,-0.039,-0.02,0.146,-0.024,-0.098,-0.107,-0.127,-0.102
2.354,-0.063,-0.054,0.01,0.059,-0.039,-0.024,0.137,-0.029,-0.107,-0.107,-0.122,-0.098
2.356,-0.005,0.005,0.01,0.0,-0.01,0.005,0.137,-0.01,-0.093,-0.083,-0.107,-0.088
2.358,-0.039,-0.073,-0.034,0.059,-0.005,-0.054,0.093,-0.049,-0.127,-0.117,-0.142,-0.127
2.36,-0.093,-0.151,-0.059,0.122,-0.02,-0.107,0.049,-0.083,-0.166,-0.156,-0.176,-0.156
2.362,-0.034,-0.093,-0.059,0.063,0.01,-0.078,0.063,-0.059,-0.137,-0.122,-0.146,-0.127
2.364,-0.02,-0.049,-0.029,0.034,0.005,-0.039,0.088,-0.029,-0.112,-0.088,-0.117,-0.102
2.366,-0.078,-0.073,0.005,0.078,-0.044,-0.034,0.083,-0.029,-0.112,-0.098,-0.122,-0.102
2.368,-0.078,-0.068,0.01,0.073,-0.044,-0.029,0.088,-0.029,-0.107,-0.098,-0.127,-0.107
2.37,-0.088,-0.093,-0.005,0.093,-0.044,-0.049,0.078,-0.044,-0.122,-0.112,-0.146,-0.132
2.372,-0.083,-0.059,0.024,0.073,-0.054,-0.02,0.093,-0.024,-0.098,-0.093,-0.122,-0.112
2.374,-0.122,-0.078,0.044,0.102,-0.083,-0.02,0.102,-0.01,-0.093,-0.088,-0.117,-0.112
2.376,-0.137,-0.112,0.024,0.127,-0.083,-0.044,0.083,-0.015,-0.098,-0.098,-0.137,-0.122
2.378,-0.068,-0.068,0.0,0.068,-0.034,-0.034,0.088,-0.005,-0.088,-0.088,-0.122,-0.107
2.38,-0.005,-0.015,-0.01,0.01,0.0,-0.015,0.107,0.015,-0.078,-0.073,-0.107,-0.088
2.382,-0.015,-0.049,-0.034,0.034,0.01,-0.044,0.098,0.0,-0.098,-0.083,-0.117,-0.102
2.384,-0.01,-0.054,-0.044,0.034,0.015,-0.049,0.098,-0.01,-0.093,-0.083,-0.122,-0.102
2.386,-0.024,-0.054,-0.029,0.039,0.0,-0.044,0.107,-0.005,-0.083,-0.078,-0.112,-0.093
2.388,-0.049,-0.059,-0.01,0.054,-0.02,-0.034,0.112,0.0,-0.083,-0.078,-0.102,-0.088
2.39,-0.059,-0.063,-0.005,0.063,-0.029,-0.034,0.112,-0.01,-0.078,-0.073,-0.107,-0.093
2.392,-0.068,-0.049,0.02,0.059,-0.044,-0.015,0.117,-0.005,-0.068,-0.073,-0.102,-0.083
2.394,-0.024,-0.005,0.02,0.015,-0.024,0.005,0.122,0.005,-0.059,-0.059,-0.083,-0.063
2.396,-0.073,-0.054,0.02,0.063,-0.049,-0.02,0.098,-0.02,-0.083,-0.078,-0.107,-0.083
2.398,-0.049,-0.039,0.01,0.044,-0.029,-0.015,0.102,-0.02,-0.083,-0.083,-0.102,-0.078
2.4,-0.063,-0.063,0.0,0.063,-0.034,-0.034,0.098,-0.034,-0.098,-0.102,-0.117,-0.088
2.402,-0.088,-0.102,-0.015,0.098,-0.039,-0.059,0.088,-0.054,-0.122,-0.107,-0.137,-0.102
2.404,-0.073,-0.078,-0.005,0.078,-0.034,-0.044,0.093,-0.049,-0.107,-0.098,-0.132,-0.093
2.406,-0.054,-0.049,0.005,0.054,-0.029,-0.024,0.112,-0.034,-0.088,-0.088,-0.112,-0.073
2.408,-0.049,-0.049,0.0,0.049,-0.024,-0.024,0.088,-0.054,-0.107,-0.107,-0.127,-0.088
2.41,-0.015,-0.029,-0.015,0.024,0.0,-0.024,0.068,-0.073,-0.112,-0.112,-0.132,-0.093
2.412,-0.073,-0.068,0.005,0.073,-0.039,-0.034,0.068,-0.078,-0.112,-0.117,-0.137,-0.098
2.414,-0.146,-0.088,0.059,0.117,-0.102,-0.015,0.078,-0.068,-0.098,-0.102,-0.122,-0.083
2.416,-0.107,-0.039,0.068,0.073,-0.088,0.015,0.078,-0.063,-0.102,-0.093,-0.107,-0.083
2.418,-0.098,-0.044,0.054,0.073,-0.078,0.005,0.068,-0.078,-0.107,-0.098,-0.112,-0.088
2.42,-0.093,-0.039,0.054,0.068,-0.073,0.005,0.063,-0.083,-0.117,-0.107,-0.117,-0.093
2.422,-0.073,-0.039,0.034,0.059,-0.054,-0.005,0.054,-0.093,-0.127,-0.102,-0.122,-0.088
2.424,-0.078,-0.073,0.005,0.078,-0.044,-0.034,0.044,-0.107,-0.132,-0.117,-0.142,-0.102
2.426,-0.02,-0.034,-0.015,0.029,-0.005,-0.024,0.059,-0.093,-0.117,-0.112,-0.132,-0.098
2.428,-0.039,-0.049,-0.01,0.044,-0.015,-0.029,0.059,-0.088,-0.122,-0.122,-0.142,-0.098
2.43,-0.073,-0.073,0.0,0.073,-0.039,-0.039,0.059,-0.083,-0.117,-0.122,-0.142,-0.102
2.432,-0.059,-0.049,0.01,0.054,-0.034,-0.02,0.078,-0.068,-0.107,-0.112,-0.132,-0.093
2.434,-0.068,-0.044,0.024,0.059,-0.049,-0.01,0.083,-0.063,-0.107,-0.112,-0.132,-0.093
2.436,-0.083,-0.073,0.01,0.078,-0.049,-0.034,0.063,-0.073,-0.127,-0.127,-0.151,-0.112
2.438,-0.088,-0.083,0.005,0.088,-0.049,-0.039,0.063,-0.078,-0.127,-0.137,-0.156,-0.122
2.44,-0.049,-0.034,0.015,0.044,-0.034,-0.01,0.088,-0.049,-0.107,-0.122,-0.142,-0.098
2.442,-0.088,-0.044,0.044,0.068,-0.068,0.0,0.098,-0.044,-0.112,-0.122,-0.142,-0.098
2.444,-0.073,-0.034,0.039,0.054,-0.059,0.0,0.102,-0.039,-0.107,-0.122,-0.137,-0.107
2.446,-0.137,-0.078,0.059,0.107,-0.098,-0.01,0.102,-0.049,-0.112,-0.127,-0.146,-0.112
2.448,-0.112,-0.054,0.059,0.083,-0.088,0.0,0.112,-0.039,-0.098,-0.107,-0.137,-0.107
2.45,-0.039,-0.005,0.034,0.024,-0.039,0.015,0.127,-0.029,-0.088,-0.093,-0.122,-0.093
2.452,-0.049,-0.049,0.0,0.049,-0.024,-0.024,0.107,-0.049,-0.102,-0.117,-0.142,-0.107
2.454,0.02,0.01,-0.01,-0.015,0.015,0.0,0.127,-0.024,-0.088,-0.102,-0.132,-0.093
2.456,-0.088,-0.073,0.015,0.083,-0.054,-0.029,0.107,-0.049,-0.117,-0.132,-0.156,-0.117
2.458,-0.102,-0.078,0.024,0.093,-0.063,-0.029,0.132,-0.039,-0.112,-0.127,-0.146,-0.107
2.46,-0.02,0.01,0.029,0.005,-0.024,0.02,0.161,-0.01,-0.098,-0.107,-0.122,-0.088
2.462,-0.049,-0.044,0.005,0.049,-0.029,-0.02,0.142,-0.02,-0.107,-0.112,-0.132,-0.098
2.464,-0.063,-0.049,0.015,0.059,-0.039,-0.02,0.142,-0.029,-0.112,-0.112,-0.137,-0.102
2.466,-0.093,-0.083,0.01,0.088,-0.054,-0.039,0.132,-0.044,-0.117,-0.127,-0.156,-0.127
2.468,-0.112,-0.088,0.024,0.102,-0.068,-0.034,0.132,-0.044,-0.117,-0.137,-0.156,-0.137
2.47,-0.02,0.005,0.024,0.01,-0.024,0.015,0.161,-0.02,-0.093,-0.112,-0.146,-0.112
2.472,-0.063,-0.039,0.024,0.054,-0.044,-0.01,0.146,-0.029,-0.102,-0.127,-0.146,-0.117
2.474,-0.049,-0.01,0.039,0.029,-0.044,0.015,0.156,-0.015,-0.093,-0.117,-0.137,-0.107
2.476,-0.059,-0.02,0.039,0.039,-0.049,0.01,0.156,-0.01,-0.102,-0.117,-0.142,-0.102
2.478,-0.073,-0.039,0.034,0.059,-0.054,-0.005,0.151,-0.02,-0.102,-0.122,-0.137,-0.102
2.48,-0.078,-0.029,0.049,0.054,-0.063,0.01,0.156,-0.01,-0.098,-0.117,-0.127,-0.093
2.482,-0.137,-0.073,0.063,0.107,-0.102,-0.005,0.146,-0.005,-0.098,-0.112,-0.127,-0.088
2.484,-0.142,-0.073,0.068,0.107,-0.107,-0.005,0.146,-0.01,-0.088,-0.107,-0.122,-0.088
2.486,-0.107,-0.054,0.054,0.083,-0.083,0.0,0.146,-0.005,-0.083,-0.102,-0.112,-0.078
2.488,-0.112,-0.083,0.029,0.098,-0.073,-0.029,0.117,-0.02,-0.112,-0.132,-0.137,-0.102
2.49,-0.098,-0.083,0.015,0.093,-0.059,-0.034,0.102,-0.029,-0.112,-0.132,-0.142,-0.107
2.492,-0.112,-0.073,0.039,0.093,-0.078,-0.02,0.107,-0.02,-0.098,-0.127,-0.132,-0.098
2.494,-0.098,-0.063,0.034,0.083,-0.068,-0.015,0.083,-0.015,-0.102,-0.122,-0.127,-0.093
2.496,-0.049,-0.049,0.0,0.049,-0.024,-0.024,0.078,-0.01,-0.098,-0.112,-0.127,-0.088
2.498,-0.02,-0.034,-0.015,0.029,-0.005,-0.024,0.068,-0.024,-0.107,-0.127,-0.132,-0.098
2.5,0.005,-0.034,-0.039,0.015,0.02,-0.039,0.063,-0.015,-0.112,-0.127,-0.132,-0.102
2.502,-0.054,-0.059,-0.005,0.059,-0.024,-0.034,0.068,-0.015,-0.107,-0.117,-0.127,-0.088
2.504,-0.117,-0.088,0.029,0.102,-0.073,-0.029,0.049,-0.034,-0.112,-0.127,-0.132,-0.093
2.506,-0.107,-0.054,0.054,0.083,-0.083,0.0,0.044,-0.034,-0.102,-0.112,-0.117,-0.078
2.508,-0.098,-0.049,0.049,0.073,-0.073,0.0,0.029,-0.034,-0.098,-0.117,-0.117,-0.078
2.51,-0.102,-0.093,0.01,0.098,-0.059,-0.044,-0.005,-0.063,-0.132,-0.142,-0.151,-0.122
2.512,-0.093,-0.107,-0.015,0.102,-0.039,-0.063,-0.029,-0.088,-0.151,-0.166,-0.161,-0.146
2.514,-0.034,-0.039,-0.005,0.039,-0.015,-0.024,-0.01,-0.054,-0.127,-0.137,-0.142,-0.117
2.516,-0.015,-0.02,-0.005,0.02,-0.005,-0.015,0.0,-0.049,-0.117,-0.132,-0.132,-0.102
2.518,-0.088,-0.093,-0.005,0.093,-0.044,-0.049,-0.024,-0.063,-0.137,-0.151,-0.151,-0.117
2.52,-0.073,-0.107,-0.034,0.093,-0.02,-0.073,-0.039,-0.073,-0.156,-0.176,-0.166,-0.132
2.522,-0.015,-0.059,-0.044,0.039,0.015,-0.054,-0.024,-0.054,-0.142,-0.161,-0.151,-0.122
2.524,-0.015,-0.034,-0.02,0.024,0.0,-0.029,-0.02,-0.034,-0.102,-0.132,-0.132,-0.102
2.526,-0.073,-0.073,0.0,0.073,-0.039,-0.039,-0.034,-0.034,-0.107,-0.132,-0.127,-0.107
2.528,-0.059,-0.054,0.005,0.059,-0.034,-0.024,-0.044,-0.029,-0.102,-0.122,-0.117,-0.093
2.53,-0.098,-0.088,0.01,0.093,-0.054,-0.039,-0.059,-0.049,-0.117,-0.132,-0.132,-0.102
2.532,-0.117,-0.098,0.02,0.107,-0.068,-0.039,-0.068,-0.063,-0.132,-0.146,-0.137,-0.107
2.534,-0.088,-0.068,0.02,0.078,-0.054,-0.024,-0.063,-0.063,-0.132,-0.142,-0.127,-0.098
2.536,-0.083,-0.078,0.005,0.083,-0.044,-0.039,-0.068,-0.078,-0.127,-0.142,-0.127,-0.093
2.538,-0.049,-0.054,-0.005,0.054,-0.024,-0.029,-0.063,-0.063,-0.117,-0.127,-0.117,-0.083
2.54,-0.068,-0.093,-0.024,0.083,-0.024,-0.059,-0.078,-0.073,-0.132,-0.146,-0.127,-0.098
2.542,-0.059,-0.102,-0.044,0.083,-0.01,-0.073,-0.083,-0.083,-0.146,-0.156,-0.146,-0.117
2.544,0.005,-0.044,-0.049,0.02,0.024,-0.049,-0.054,-0.059,-0.122,-0.142,-0.127,-0.098
2.546,-0.015,-0.073,-0.059,0.044,0.02,-0.068,-0.068,-0.068,-0.127,-0.161,-0.146,-0.112
2.548,-0.044,-0.107,-0.063,0.078,0.01,-0.088,-0.083,-0.078,-0.156,-0.181,-0.166,-0.132
2.55,-0.054,-0.088,-0.034,0.073,-0.01,-0.063,-0.063,-0.063,-0.132,-0.156,-0.151,-0.107
2.552,-0.024,-0.024,0.0,0.024,-0.015,-0.015,-0.039,-0.034,-0.107,-0.122,-0.107,-0.073
2.554,-0.122,-0.083,0.039,0.102,-0.083,-0.024,-0.049,-0.044,-0.112,-0.137,-0.117,-0.083
2.556,-0.127,-0.098,0.029,0.112,-0.078,-0.034,-0.054,-0.034,-0.102,-0.122,-0.107,-0.083
2.558,-0.063,-0.068,-0.005,0.068,-0.029,-0.039,-0.059,-0.034,-0.102,-0.127,-0.117,-0.093
2.56,-0.039,-0.078,-0.039,0.059,0.0,-0.059,-0.073,-0.044,-0.122,-0.146,-0.132,-0.107
2.562,-0.073,-0.112,-0.039,0.093,-0.02,-0.078,-0.083,-0.054,-0.132,-0.156,-0.146,-0.112
2.564,-0.088,-0.132,-0.044,0.112,-0.024,-0.088,-0.083,-0.059,-0.132,-0.161,-0.151,-0.122
2.566,-0.039,-0.068,-0.029,0.054,-0.005,-0.049,-0.054,-0.039,-0.112,-0.142,-0.127,-0.107
2.568,-0.01,-0.049,-0.039,0.029,0.015,-0.044,-0.054,-0.034,-0.107,-0.146,-0.122,-0.107
2.57,-0.029,-0.049,-0.02,0.039,-0.005,-0.034,-0.049,-0.024,-0.093,-0.132,-0.122,-0.102
2.572,-0.068,-0.068,0.0,0.068,-0.034,-0.034,-0.054,-0.039,-0.098,-0.137,-0.122,-0.102
2.574,-0.078,-0.088,-0.01,0.083,-0.034,-0.049,-0.054,-0.044,-0.107,-0.142,-0.132,-0.107
2.576,-0.049,-0.068,-0.02,0.059,-0.015,-0.044,-0.044,-0.034,-0.107,-0.132,-0.122,-0.088
2.578,-0.049,-0.063,-0.015,0.059,-0.02,-0.039,-0.039,-0.029,-0.102,-0.132,-0.117,-0.083
2.58,-0.068,-0.063,0.005,0.068,-0.039,-0.029,-0.034,-0.02,-0.098,-0.127,-0.102,-0.068
2.582,-0.059,-0.034,0.024,0.049,-0.044,-0.005,-0.015,0.0,-0.078,-0.102,-0.083,-0.054
2.584,-0.078,-0.073,0.005,0.078,-0.044,-0.034,0.0,0.005,-0.073,-0.098,-0.078,-0.049
2.586,-0.117,-0.098,0.02,0.107,-0.068,-0.039,-0.01,-0.015,-0.083,-0.117,-0.098,-0.068
2.588,-0.034,-0.029,0.005,0.034,-0.02,-0.015,0.01,0.0,-0.068,-0.102,-0.083,-0.063
2.59,-0.054,-0.063,-0.01,0.059,-0.024,-0.039,-0.01,-0.029,-0.083,-0.117,-0.107,-0.078
2.592,-0.049,-0.054,-0.005,0.054,-0.024,-0.029,-0.005,-0.02,-0.083,-0.127,-0.102,-0.078
2.594,-0.102,-0.088,0.015,0.098,-0.059,-0.039,-0.01,-0.02,-0.088,-0.137,-0.117,-0.088
2.596,-0.093,-0.044,0.049,0.068,-0.073,0.0,0.01,0.0,-0.073,-0.112,-0.093,-0.059
2.598,-0.044,0.02,0.063,0.015,-0.054,0.039,0.029,0.024,-0.059,-0.098,-0.078,-0.044
2.6,-0.068,-0.024,0.044,0.049,-0.059,0.01,0.005,0.005,-0.078,-0.117,-0.093,-0.054
2.602,-0.005,0.034,0.039,-0.015,-0.024,0.034,0.039,0.024,-0.054,-0.088,-0.063,-0.034
2.604,0.054,0.078,0.024,-0.063,0.015,0.049,0.059,0.039,-0.044,-0.073,-0.049,-0.02
2.606,-0.049,-0.024,0.024,0.039,-0.039,0.0,0.029,0.005,-0.073,-0.117,-0.088,-0.054
2.608,-0.083,-0.024,0.059,0.054,-0.073,0.015,0.044,0.015,-0.059,-0.102,-0.078,-0.049
2.61,-0.034,0.015,0.049,0.01,-0.044,0.029,0.049,0.024,-0.049,-0.088,-0.073,-0.044
2.612,-0.054,-0.044,0.01,0.049,-0.034,-0.02,0.02,-0.005,-0.073,-0.117,-0.093,-0.063
2.614,-0.044,-0.024,0.02,0.034,-0.034,-0.005,0.029,0.005,-0.068,-0.102,-0.083,-0.054
2.616,-0.063,-0.049,0.015,0.059,-0.039,-0.02,0.039,0.01,-0.068,-0.107,-0.083,-0.059
2.618,-0.073,-0.059,0.015,0.068,-0.044,-0.024,0.039,0.005,-0.083,-0.112,-0.093,-0.059
2.62,-0.024,-0.015,0.01,0.02,-0.02,-0.005,0.049,0.015,-0.073,-0.107,-0.073,-0.044
2.622,-0.01,0.0,0.01,0.005,-0.01,0.005,0.044,0.01,-0.063,-0.098,-0.073,-0.044
2.624,-0.054,-0.054,0.0,0.054,-0.029,-0.029,0.02,-0.015,-0.078,-0.112,-0.093,-0.063
2.626,-0.039,-0.044,-0.005,0.044,-0.02,-0.024,0.015,-0.02,-0.078,-0.112,-0.093,-0.063
2.628,-0.098,-0.093,0.005,0.098,-0.054,-0.044,0.0,-0.024,-0.088,-0.127,-0.102,-0.068
2.63,-0.083,-0.063,0.02,0.073,-0.054,-0.024,0.02,-0.01,-0.073,-0.107,-0.088,-0.054
2.632,-0.063,-0.029,0.034,0.049,-0.049,0.0,0.029,0.005,-0.059,-0.102,-0.068,-0.039
2.634,-0.093,-0.054,0.039,0.073,-0.068,-0.01,0.029,0.005,-0.068,-0.107,-0.068,-0.029
2.636,-0.102,-0.073,0.029,0.088,-0.068,-0.024,0.02,0.0,-0.073,-0.117,-0.078,-0.044
2.638,-0.098,-0.073,0.024,0.088,-0.063,-0.024,0.015,0.0,-0.078,-0.122,-0.083,-0.049
2.64,-0.127,-0.093,0.034,0.112,-0.083,-0.029,0.01,-0.01,-0.083,-0.127,-0.083,-0.054
2.642,-0.102,-0.073,0.029,0.088,-0.068,-0.024,0.01,-0.02,-0.083,-0.122,-0.083,-0.059
2.644,0.01,0.005,-0.005,-0.005,0.005,0.0,0.01,-0.02,-0.073,-0.117,-0.078,-0.059
2.646,-0.005,-0.02,-0.015,0.015,0.005,-0.02,-0.015,-0.039,-0.088,-0.132,-0.093,-0.073
2.648,-0.088,-0.083,0.005,0.088,-0.049,-0.039,-0.034,-0.049,-0.098,-0.146,-0.107,-0.083
2.65,-0.078,-0.068,0.01,0.073,-0.044,-0.029,-0.024,-0.039,-0.083,-0.132,-0.098,-0.068
2.652,-0.054,-0.054,0.0,0.054,-0.029,-0.029,-0.044,-0.039,-0.088,-0.142,-0.098,-0.068
2.654,-0.015,-0.024,-0.01,0.02,-0.005,-0.02,-0.063,-0.044,-0.093,-0.137,-0.098,-0.063
2.656,-0.034,-0.024,0.01,0.029,-0.024,-0.01,-0.083,-0.059,-0.093,-0.137,-0.093,-0.059
2.658,-0.063,-0.049,0.015,0.059,-0.039,-0.02,-0.102,-0.073,-0.107,-0.151,-0.102,-0.063
2.66,-0.029,-0.039,-0.01,0.034,-0.01,-0.024,-0.117,-0.073,-0.112,-0.151,-0.098,-0.063
2.662,-0.005,-0.024,-0.02,0.015,0.005,-0.024,-0.132,-0.078,-0.117,-0.151,-0.102,-0.063
2.664,-0.073,-0.073,0.0,0.073,-0.039,-0.039,-0.142,-0.088,-0.127,-0.161,-0.112,-0.068
2.666,-0.088,-0.083,0.005,0.088,-0.049,-0.039,-0.146,-0.102,-0.132,-0.171,-0.122,-0.083
2.668,0.015,-0.01,-0.024,0.0,0.02,-0.02,-0.127,-0.083,-0.107,-0.146,-0.102,-0.073
2.67,-0.049,-0.063,-0.015,0.059,-0.02,-0.039,-0.146,-0.107,-0.132,-0.171,-0.127,-0.102
2.672,-0.122,-0.122,0.0,0.122,-0.063,-0.063,-0.132,-0.093,-0.132,-0.181,-0.132,-0.102
2.674,-0.112,-0.083,0.029,0.098,-0.073,-0.029,-0.098,-0.059,-0.098,-0.151,-0.102,-0.068
2.676,-0.088,-0.063,0.024,0.078,-0.059,-0.02,-0.093,-0.054,-0.093,-0.146,-0.098,-0.063
2.678,-0.01,-0.034,-0.024,0.024,0.005,-0.029,-0.093,-0.054,-0.098,-0.156,-0.102,-0.068
2.68,0.039,0.0,-0.039,-0.02,0.039,-0.02,-0.083,-0.034,-0.083,-0.142,-0.098,-0.059
2.682,0.01,-0.02,-0.029,0.005,0.02,-0.024,-0.073,-0.029,-0.083,-0.142,-0.088,-0.063
2.684,-0.059,-0.073,-0.015,0.068,-0.024,-0.044,-0.083,-0.039,-0.088,-0.151,-0.098,-0.073
2.686,-0.098,-0.098,0.0,0.098,-0.049,-0.049,-0.068,-0.039,-0.088,-0.151,-0.098,-0.068
2.688,-0.083,-0.098,-0.015,0.093,-0.034,-0.059,-0.063,-0.034,-0.083,-0.156,-0.093,-0.063
2.69,-0.054,-0.039,0.015,0.049,-0.034,-0.015,-0.039,0.005,-0.049,-0.112,-0.063,-0.039
2.692,-0.034,0.0,0.034,0.02,-0.034,0.015,-0.02,0.02,-0.029,-0.098,-0.049,-0.02
2.694,-0.044,-0.005,0.039,0.024,-0.044,0.015,-0.02,0.015,-0.039,-0.107,-0.059,-0.034
2.696,-0.073,-0.049,0.024,0.063,-0.049,-0.015,-0.039,0.0,-0.054,-0.127,-0.068,-0.049
2.698,-0.024,-0.029,-0.005,0.029,-0.01,-0.02,-0.044,0.005,-0.059,-0.127,-0.073,-0.049
2.7,0.0,-0.005,-0.005,0.005,0.0,-0.005,-0.024,0.02,-0.044,-0.112,-0.054,-0.034
2.702,-0.02,0.005,0.024,0.01,-0.024,0.015,-0.02,0.024,-0.034,-0.098,-0.044,-0.024
2.704,-0.029,0.0,0.029,0.015,-0.029,0.015,-0.02,0.02,-0.024,-0.098,-0.039,-0.02
2.706,0.005,0.034,0.029,-0.02,-0.015,0.029,-0.01,0.034,-0.01,-0.088,-0.029,-0.01
2.708,-0.01,0.005,0.015,0.005,-0.015,0.01,-0.015,0.024,-0.015,-0.093,-0.034,-0.02
2.71,-0.01,-0.015,-0.005,0.015,-0.005,-0.01,-0.024,0.02,-0.034,-0.107,-0.049,-0.034
2.712,-0.005,-0.015,-0.01,0.01,0.0,-0.015,-0.024,0.02,-0.029,-0.112,-0.054,-0.034
2.714,-0.044,-0.039,0.005,0.044,-0.024,-0.02,-0.02,0.024,-0.024,-0.107,-0.054,-0.034
2.716,-0.049,-0.029,0.02,0.039,-0.034,-0.005,-0.01,0.034,-0.015,-0.098,-0.049,-0.029
2.718,-0.034,0.015,0.049,0.01,-0.044,0.029,0.01,0.054,0.0,-0.083,-0.029,-0.015
2.72,0.005,0.034,0.029,-0.02,-0.015,0.029,0.015,0.044,-0.005,-0.083,-0.02,-0.005
2.722,-0.034,-0.029,0.005,0.034,-0.02,-0.015,-0.015,0.0,-0.044,-0.122,-0.054,-0.034
2.724,-0.005,-0.01,-0.005,0.01,0.0,-0.01,-0.01,-0.01,-0.044,-0.122,-0.049,-0.024
2.726,0.029,0.039,0.01,-0.034,0.01,0.024,0.01,0.0,-0.029,-0.102,-0.034,-0.005
2.728,0.02,0.049,0.029,-0.034,-0.005,0.039,0.02,0.005,-0.02,-0.093,-0.02,0.005
2.73,-0.078,0.0,0.078,0.039,-0.078,0.039,0.029,0.015,-0.015,-0.088,-0.01,0.024
2.732,-0.083,-0.02,0.063,0.054,-0.073,0.02,0.02,0.005,-0.02,-0.098,-0.02,0.01
2.734,-0.034,0.01,0.044,0.015,-0.039,0.024,0.024,0.01,-0.024,-0.098,-0.02,0.01
2.736,-0.02,0.034,0.054,-0.005,-0.039,0.044,0.029,0.02,-0.015,-0.093,-0.015,0.01
2.738,-0.054,0.029,0.083,0.015,-0.068,0.054,0.029,0.02,-0.01,-0.088,-0.015,0.005
2.74,-0.098,-0.02,0.078,0.059,-0.088,0.029,0.015,0.0,-0.024,-0.117,-0.049,-0.024
2.742,-0.059,0.024,0.083,0.02,-0.073,0.054,0.029,0.015,-0.02,-0.112,-0.054,-0.029
2.744,-0.039,0.068,0.107,-0.015,-0.073,0.088,0.044,0.034,0.0,-0.107,-0.059,-0.029
2.746,-0.088,0.039,0.127,0.024,-0.107,0.083,0.054,0.034,0.0,-0.117,-0.073,-0.054
2.748,-0.029,0.112,0.142,-0.039,-0.088,0.127,0.083,0.068,0.024,-0.093,-0.044,-0.015
2.75,0.02,0.151,0.132,-0.083,-0.059,0.142,0.098,0.098,0.044,-0.063,0.005,0.02
2.752,-0.054,0.059,0.112,0.0,-0.083,0.083,0.083,0.083,0.029,-0.068,0.024,0.044
2.754,-0.098,-0.024,0.073,0.063,-0.088,0.024,0.068,0.078,0.02,-0.049,0.078,0.093
2.756,-0.054,-0.063,-0.01,0.059,-0.024,-0.039,0.034,0.068,0.029,0.005,0.156,0.156
2.758,0.063,-0.049,-0.112,-0.005,0.088,-0.083,0.01,0.073,0.073,0.127,0.307,0.283
2.76,0.132,-0.039,-0.171,-0.044,0.151,-0.107,-0.049,0.044,0.117,0.273,0.542,0.473
2.762,0.185,-0.034,-0.22,-0.073,0.2,-0.127,-0.093,0.01,0.151,0.425,0.786,0.703
2.764,0.195,-0.059,-0.254,-0.068,0.224,-0.156,-0.151,-0.044,0.181,0.547,1.005,0.922
2.766,0.293,-0.02,-0.312,-0.137,0.303,-0.166,-0.234,-0.112,0.22,0.703,1.235,1.132
2.768,0.41,0.059,-0.351,-0.234,0.381,-0.146,-0.322,-0.176,0.303,0.913,1.513,1.381
2.77,0.498,0.122,-0.376,-0.307,0.434,-0.127,-0.415,-0.234,0.386,1.142,1.801,1.63
2.772,0.561,0.156,-0.405,-0.356,0.483,-0.127,-0.498,-0.312,0.376,1.259,1.981,1.796
2.774,0.639,0.151,-0.488,-0.395,0.561,-0.171,-0.556,-0.429,0.249,1.225,2.02,1.83
2.776,0.693,0.127,-0.566,-0.41,0.63,-0.22,-0.59,-0.508,0.132,1.2,2.001,1.767
2.778,0.683,0.073,-0.61,-0.376,0.644,-0.268,-0.576,-0.527,0.073,1.171,1.932,1.654
2.78,0.664,0.049,-0.615,-0.356,0.639,-0.283,-0.576,-0.571,-0.02,1.059,1.796,1.518
2.782,0.605,0.029,-0.576,-0.317,0.59,-0.273,-0.547,-0.586,-0.117,0.844,1.518,1.298
2.784,0.537,-0.005,-0.542,-0.264,0.537,-0.273,-0.478,-0.561,-0.195,0.6,1.181,1.044
2.786,0.473,-0.068,-0.542,-0.2,0.508,-0.307,-0.425,-0.527,-0.254,0.366,0.834,0.766
2.788,0.366,-0.137,-0.503,-0.112,0.434,-0.322,-0.366,-0.498,-0.332,0.088,0.473,0.508
2.79,0.249,-0.137,-0.386,-0.054,0.317,-0.264,-0.293,-0.473,-0.478,-0.303,0.044,0.259
2.792,0.171,-0.142,-0.312,-0.015,0.239,-0.229,-0.273,-0.547,-0.712,-0.712,-0.381,0.02
2.794,0.107,-0.156,-0.264,0.024,0.185,-0.21,-0.254,-0.595,-0.883,-0.956,-0.639,-0.127
2.796,0.0,-0.2,-0.2,0.102,0.098,-0.2,-0.21,-0.6,-0.961,-1.108,-0.83,-0.254
2.798,-0.049,-0.224,-0.176,0.137,0.063,-0.2,-0.176,-0.62,-0.986,-1.161,-0.932,-0.346
2.8,-0.034,-0.234,-0.2,0.137,0.083,-0.22,-0.185,-0.639,-0.942,-1.074,-0.898,-0.356
2.802,-0.024,-0.21,-0.185,0.117,0.078,-0.2,-0.215,-0.634,-0.844,-0.922,-0.766,-0.307
2.804,-0.068,-0.205,-0.137,0.137,0.034,-0.171,-0.181,-0.571,-0.732,-0.795,-0.669,-0.273
2.806,-0.083,-0.185,-0.102,0.137,0.01,-0.146,-0.142,-0.488,-0.639,-0.708,-0.605,-0.259
2.808,-0.078,-0.142,-0.063,0.112,-0.01,-0.102,-0.122,-0.425,-0.542,-0.62,-0.532,-0.239
2.81,-0.068,-0.078,-0.01,0.073,-0.029,-0.044,-0.107,-0.356,-0.449,-0.522,-0.459,-0.205
2.812,-0.078,-0.078,0.0,0.078,-0.039,-0.039,-0.107,-0.307,-0.376,-0.468,-0.42,-0.205
2.814,-0.044,-0.059,-0.015,0.054,-0.015,-0.039,-0.112,-0.268,-0.317,-0.415,-0.376,-0.19
2.816,-0.088,-0.083,0.005,0.088,-0.049,-0.039,-0.122,-0.215,-0.249,-0.366,-0.337,-0.171
2.818,-0.088,-0.054,0.034,0.073,-0.063,-0.01,-0.083,-0.122,-0.146,-0.268,-0.264,-0.122
2.82,-0.088,-0.049,0.039,0.068,-0.063,-0.005,-0.049,-0.054,-0.078,-0.205,-0.21,-0.088
2.822,-0.073,-0.059,0.015,0.068,-0.044,-0.024,-0.029,-0.015,-0.034,-0.156,-0.171,-0.073
2.824,0.01,-0.005,-0.015,0.0,0.01,-0.01,-0.01,0.01,0.005,-0.117,-0.137,-0.059
2.826,0.044,0.01,-0.034,-0.024,0.039,-0.015,0.0,0.029,0.015,-0.098,-0.127,-0.059
2.828,0.049,-0.005,-0.054,-0.02,0.049,-0.029,-0.01,0.034,0.01,-0.098,-0.127,-0.078
2.83,-0.015,-0.068,-0.054,0.044,0.02,-0.063,-0.034,0.024,-0.005,-0.112,-0.142,-0.102
2.832,-0.005,-0.039,-0.034,0.024,0.015,-0.039,-0.02,0.034,0.005,-0.102,-0.142,-0.093
2.834,-0.034,-0.024,0.01,0.029,-0.024,-0.01,0.005,0.063,0.029,-0.073,-0.112,-0.073
2.836,-0.034,-0.01,0.024,0.024,-0.029,0.005,0.02,0.073,0.039,-0.063,-0.112,-0.068
2.838,-0.039,-0.01,0.029,0.024,-0.034,0.01,0.015,0.078,0.044,-0.059,-0.107,-0.068
2.84,-0.098,-0.073,0.024,0.088,-0.063,-0.024,0.005,0.078,0.029,-0.073,-0.112,-0.088
2.842,-0.054,-0.015,0.039,0.034,-0.049,0.01,0.029,0.102,0.054,-0.034,-0.083,-0.059
2.844,-0.039,-0.024,0.015,0.034,-0.029,-0.005,0.01,0.073,0.044,-0.044,-0.083,-0.073
2.846,-0.059,-0.039,0.02,0.049,-0.039,-0.01,0.01,0.063,0.034,-0.049,-0.078,-0.068
2.848,-0.059,-0.015,0.044,0.039,-0.054,0.015,0.034,0.073,0.034,-0.039,-0.068,-0.054
2.85,-0.049,0.0,0.049,0.024,-0.049,0.024,0.039,0.068,0.039,-0.044,-0.068,-0.054
2.852,-0.02,0.039,0.059,-0.01,-0.039,0.049,0.049,0.078,0.039,-0.049,-0.063,-0.049
2.854,-0.078,-0.034,0.044,0.059,-0.063,0.005,0.039,0.063,0.02,-0.078,-0.083,-0.068
2.856,-0.068,-0.044,0.024,0.059,-0.049,-0.01,0.044,0.059,0.024,-0.083,-0.088,-0.073
2.858,-0.049,-0.015,0.034,0.034,-0.044,0.01,0.044,0.063,0.029,-0.073,-0.073,-0.068
2.86,-0.054,-0.029,0.024,0.044,-0.039,-0.005,0.029,0.054,0.015,-0.083,-0.083,-0.083
2.862,-0.054,-0.024,0.029,0.039,-0.044,0.0,0.034,0.059,0.024,-0.073,-0.073,-0.068
2.864,-0.02,-0.005,0.015,0.015,-0.02,0.005,0.034,0.049,0.02,-0.073,-0.073,-0.068
2.866,0.015,-0.005,-0.02,-0.005,0.015,-0.015,0.029,0.044,0.015,-0.073,-0.083,-0.073
2.868,0.044,0.024,-0.02,-0.034,0.029,0.0,0.044,0.049,0.015,-0.068,-0.078,-0.073
2.87,0.039,0.015,-0.024,-0.024,0.029,-0.005,0.039,0.039,0.005,-0.078,-0.088,-0.083
2.872,-0.044,-0.068,-0.024,0.059,-0.01,-0.049,0.015,-0.005,-0.039,-0.112,-0.127,-0.122
2.874,-0.015,-0.044,-0.029,0.029,0.005,-0.039,0.02,0.0,-0.029,-0.112,-0.127,-0.117
2.876,-0.005,-0.02,-0.015,0.015,0.005,-0.02,0.029,0.01,-0.02,-0.098,-0.127,-0.112
2.878,-0.088,-0.054,0.034,0.073,-0.063,-0.01,0.044,0.034,0.0,-0.078,-0.107,-0.102
2.88,-0.083,-0.005,0.078,0.044,-0.083,0.034,0.073,0.059,0.024,-0.049,-0.088,-0.073
2.882,0.024,0.068,0.044,-0.044,-0.01,0.054,0.078,0.059,0.02,-0.029,-0.073,-0.068
2.884,0.01,0.039,0.029,-0.024,-0.01,0.034,0.063,0.039,0.005,-0.049,-0.088,-0.083
2.886,-0.093,-0.034,0.059,0.063,-0.078,0.01,0.044,0.024,-0.01,-0.059,-0.098,-0.102
2.888,-0.117,-0.054,0.063,0.088,-0.093,0.005,0.049,0.015,-0.015,-0.063,-0.112,-0.112
2.89,-0.088,-0.039,0.049,0.063,-0.068,0.005,0.049,0.015,-0.024,-0.068,-0.117,-0.122
2.892,-0.044,0.0,0.044,0.024,-0.044,0.02,0.068,0.044,0.0,-0.059,-0.107,-0.107
2.894,-0.073,-0.02,0.054,0.049,-0.063,0.015,0.073,0.049,0.0,-0.068,-0.112,-0.112
2.896,-0.083,-0.049,0.034,0.068,-0.059,-0.01,0.063,0.034,0.0,-0.078,-0.122,-0.132
2.898,-0.083,-0.078,0.005,0.083,-0.044,-0.039,0.049,0.034,-0.005,-0.078,-0.132,-0.137
2.9,-0.059,-0.063,-0.005,0.063,-0.029,-0.034,0.054,0.044,0.005,-0.078,-0.122,-0.132
2.902,-0.063,-0.063,0.0,0.063,-0.034,-0.034,0.059,0.044,0.015,-0.078,-0.117,-0.127
2.904,-0.039,-0.044,-0.005,0.044,-0.02,-0.024,0.073,0.054,0.029,-0.063,-0.102,-0.117
2.906,-0.039,-0.059,-0.02,0.049,-0.01,-0.039,0.073,0.059,0.024,-0.073,-0.107,-0.122
2.908,-0.083,-0.122,-0.039,0.102,-0.024,-0.083,0.059,0.034,0.005,-0.093,-0.132,-0.156
2.91,-0.005,-0.024,-0.02,0.015,0.005,-0.024,0.088,0.073,0.039,-0.063,-0.102,-0.132
2.912,0.01,0.01,0.0,-0.01,0.005,0.005,0.093,0.088,0.059,-0.044,-0.107,-0.122
2.914,-0.01,-0.01,0.0,0.01,-0.005,-0.005,0.073,0.078,0.059,-0.063,-0.112,-0.132
2.916,-0.054,-0.029,0.024,0.044,-0.039,-0.005,0.049,0.063,0.054,-0.068,-0.117,-0.137
