time,I,II,III,aVR,aVL,aVF,V1,V2,V3,V4,V5,V6
0.0,-0.029,0.029,0.059,0.0,-0.044,0.044,-0.044,-0.054,-0.068,-0.059,-0.049,-0.054
0.002,-0.044,0.01,0.054,0.02,-0.049,0.029,-0.054,-0.063,-0.078,-0.063,-0.059,-0.063
0.004,-0.034,0.015,0.049,0.01,-0.044,0.029,-0.049,-0.063,-0.073,-0.059,-0.054,-0.059
0.006,-0.015,0.034,0.049,-0.01,-0.034,0.039,-0.049,-0.059,-0.078,-0.063,-0.054,-0.059
0.008,-0.02,0.029,0.049,-0.005,-0.034,0.039,-0.049,-0.054,-0.073,-0.063,-0.049,-0.059
0.01,-0.029,0.024,0.054,0.005,-0.044,0.039,-0.039,-0.044,-0.063,-0.054,-0.044,-0.054
0.012,-0.044,0.02,0.063,0.015,-0.054,0.039,-0.044,-0.049,-0.073,-0.059,-0.049,-0.059
0.014,-0.044,0.015,0.059,0.015,-0.054,0.034,-0.054,-0.059,-0.083,-0.068,-0.054,-0.068
0.016,-0.02,0.029,0.049,-0.005,-0.034,0.039,-0.039,-0.039,-0.068,-0.049,-0.054,-0.059
0.018,-0.02,0.034,0.054,-0.005,-0.039,0.044,-0.054,-0.059,-0.078,-0.063,-0.063,-0.063
0.02,-0.029,0.024,0.054,0.005,-0.044,0.039,-0.049,-0.054,-0.073,-0.063,-0.059,-0.059
0.022,-0.024,0.029,0.054,0.0,-0.039,0.039,-0.049,-0.054,-0.073,-0.063,-0.059,-0.063
0.024,-0.034,0.015,0.049,0.01,-0.044,0.029,-0.049,-0.054,-0.068,-0.063,-0.059,-0.063
0.026,-0.029,0.024,0.054,0.005,-0.044,0.039,-0.049,-0.054,-0.073,-0.059,-0.059,-0.063
0.028,-0.044,0.02,0.063,0.015,-0.054,0.039,-0.049,-0.044,-0.068,-0.054,-0.054,-0.059
0.03,-0.049,0.02,0.068,0.015,-0.059,0.044,-0.044,-0.044,-0.073,-0.063,-0.059,-0.059
0.032,-0.034,0.024,0.059,0.005,-0.049,0.039,-0.044,-0.044,-0.068,-0.063,-0.059,-0.063
0.034,-0.029,0.034,0.063,0.0,-0.049,0.049,-0.044,-0.049,-0.073,-0.063,-0.059,-0.059
0.036,-0.034,0.02,0.054,0.01,-0.044,0.034,-0.039,-0.034,-0.063,-0.059,-0.054,-0.054
0.038,-0.034,0.02,0.054,0.01,-0.044,0.034,-0.039,-0.039,-0.073,-0.059,-0.054,-0.068
0.04,-0.034,0.029,0.063,0.005,-0.049,0.044,-0.049,-0.049,-0.078,-0.068,-0.054,-0.068
0.042,-0.024,0.024,0.049,0.0,-0.039,0.034,-0.044,-0.049,-0.073,-0.063,-0.054,-0.068
0.044,-0.01,0.039,0.049,-0.015,-0.029,0.044,-0.039,-0.039,-0.063,-0.059,-0.059,-0.068
0.046,-0.015,0.034,0.049,-0.01,-0.034,0.039,-0.044,-0.059,-0.078,-0.068,-0.063,-0.073
0.048,-0.034,0.024,0.059,0.005,-0.049,0.039,-0.039,-0.044,-0.063,-0.059,-0.054,-0.063
0.05,-0.039,0.01,0.049,0.015,-0.044,0.029,-0.039,-0.044,-0.068,-0.063,-0.054,-0.059
0.052,-0.034,0.015,0.049,0.01,-0.044,0.029,-0.044,-0.049,-0.068,-0.063,-0.059,-0.063
0.054,-0.029,0.02,0.049,0.005,-0.039,0.034,-0.044,-0.049,-0.078,-0.078,-0.068,-0.068
0.056,-0.034,0.015,0.049,0.01,-0.044,0.029,-0.049,-0.054,-0.078,-0.078,-0.063,-0.068
0.058,-0.024,0.024,0.049,0.0,-0.039,0.034,-0.039,-0.044,-0.073,-0.068,-0.063,-0.063
0.06,-0.034,0.024,0.059,0.005,-0.049,0.039,-0.044,-0.049,-0.078,-0.073,-0.063,-0.068
0.062,-0.024,0.02,0.044,0.005,-0.034,0.029,-0.044,-0.049,-0.073,-0.078,-0.063,-0.063
0.064,-0.02,0.015,0.034,0.005,-0.029,0.024,-0.044,-0.054,-0.073,-0.073,-0.063,-0.068
0.066,-0.02,0.02,0.039,0.0,-0.029,0.029,-0.044,-0.049,-0.073,-0.073,-0.063,-0.059
0.068,-0.024,0.024,0.049,0.0,-0.039,0.034,-0.039,-0.044,-0.073,-0.068,-0.059,-0.063
0.07,-0.049,0.0,0.049,0.024,-0.049,0.024,-0.049,-0.049,-0.073,-0.073,-0.068,-0.073
0.072,-0.039,0.005,0.044,0.02,-0.044,0.024,-0.054,-0.059,-0.078,-0.083,-0.068,-0.068
0.074,-0.01,0.024,0.034,-0.005,-0.024,0.029,-0.044,-0.049,-0.073,-0.073,-0.063,-0.063
0.076,-0.02,0.02,0.039,0.0,-0.029,0.029,-0.039,-0.054,-0.078,-0.073,-0.063,-0.068
0.078,-0.044,0.015,0.059,0.015,-0.054,0.034,-0.044,-0.054,-0.083,-0.073,-0.068,-0.068
0.08,-0.049,0.005,0.054,0.024,-0.054,0.029,-0.039,-0.049,-0.078,-0.073,-0.063,-0.063
0.082,-0.044,0.015,0.059,0.015,-0.054,0.034,-0.039,-0.054,-0.078,-0.078,-0.063,-0.068
0.084,-0.02,0.029,0.049,-0.005,-0.034,0.039,-0.034,-0.044,-0.073,-0.068,-0.063,-0.063
0.086,-0.029,0.015,0.044,0.01,-0.039,0.029,-0.039,-0.049,-0.073,-0.068,-0.063,-0.068
0.088,-0.039,0.0,0.039,0.02,-0.039,0.02,-0.044,-0.054,-0.078,-0.083,-0.068,-0.073
0.09,-0.029,0.01,0.039,0.01,-0.034,0.024,-0.044,-0.054,-0.073,-0.078,-0.068,-0.073
0.092,-0.034,0.015,0.049,0.01,-0.044,0.029,-0.044,-0.049,-0.073,-0.073,-0.063,-0.068
0.094,-0.024,0.024,0.049,0.0,-0.039,0.034,-0.044,-0.049,-0.083,-0.083,-0.063,-0.068
0.096,-0.024,0.02,0.044,0.005,-0.034,0.029,-0.034,-0.049,-0.078,-0.078,-0.068,-0.073
0.098,-0.034,0.015,0.049,0.01,-0.044,0.029,-0.039,-0.049,-0.088,-0.083,-0.073,-0.073
0.1,-0.029,0.02,0.049,0.005,-0.039,0.034,-0.034,-0.049,-0.078,-0.073,-0.063,-0.063
0.102,-0.029,0.02,0.049,0.005,-0.039,0.034,-0.034,-0.049,-0.078,-0.073,-0.068,-0.063
0.104,-0.029,0.015,0.044,0.01,-0.039,0.029,-0.034,-0.049,-0.073,-0.083,-0.073,-0.068
0.106,-0.029,0.015,0.044,0.01,-0.039,0.029,-0.039,-0.059,-0.083,-0.083,-0.068,-0.063
0.108,-0.039,0.0,0.039,0.02,-0.039,0.02,-0.034,-0.054,-0.078,-0.083,-0.068,-0.068
0.11,-0.02,0.029,0.049,-0.005,-0.034,0.039,-0.029,-0.049,-0.073,-0.078,-0.068,-0.063
0.112,-0.029,0.029,0.059,0.0,-0.044,0.044,-0.024,-0.044,-0.068,-0.073,-0.063,-0.068
0.114,-0.049,0.0,0.049,0.024,-0.049,0.024,-0.029,-0.049,-0.078,-0.083,-0.073,-0.078
0.116,-0.039,0.0,0.039,0.02,-0.039,0.02,-0.029,-0.049,-0.083,-0.088,-0.078,-0.078
0.118,-0.039,0.0,0.039,0.02,-0.039,0.02,-0.029,-0.059,-0.088,-0.098,-0.083,-0.073
0.12,-0.039,0.0,0.039,0.02,-0.039,0.02,-0.029,-0.059,-0.088,-0.098,-0.078,-0.073
0.122,-0.034,0.005,0.039,0.015,-0.039,0.02,-0.029,-0.054,-0.088,-0.098,-0.078,-0.078
0.124,-0.044,0.0,0.044,0.024,-0.044,0.02,-0.029,-0.059,-0.093,-0.102,-0.078,-0.078
0.126,-0.034,0.0,0.034,0.02,-0.034,0.015,-0.029,-0.054,-0.083,-0.093,-0.073,-0.068
0.128,-0.02,0.005,0.024,0.01,-0.024,0.015,-0.029,-0.054,-0.083,-0.098,-0.078,-0.073
0.13,-0.024,0.01,0.034,0.01,-0.029,0.02,-0.024,-0.049,-0.083,-0.088,-0.073,-0.068
0.132,-0.02,0.02,0.039,0.0,-0.029,0.029,-0.024,-0.049,-0.078,-0.088,-0.078,-0.068
0.134,-0.02,0.015,0.034,0.005,-0.029,0.024,-0.024,-0.049,-0.078,-0.088,-0.083,-0.073
0.136,-0.015,0.01,0.024,0.005,-0.02,0.015,-0.024,-0.049,-0.078,-0.093,-0.083,-0.078
0.138,-0.029,0.005,0.034,0.015,-0.034,0.02,-0.024,-0.049,-0.088,-0.098,-0.093,-0.073
0.14,-0.049,-0.005,0.044,0.029,-0.049,0.02,-0.024,-0.054,-0.083,-0.093,-0.088,-0.073
0.142,-0.049,0.0,0.049,0.024,-0.049,0.024,-0.02,-0.054,-0.083,-0.093,-0.083,-0.068
0.144,-0.039,-0.005,0.034,0.024,-0.039,0.015,-0.034,-0.059,-0.088,-0.102,-0.088,-0.073
0.146,-0.015,0.005,0.02,0.005,-0.02,0.01,-0.034,-0.059,-0.093,-0.107,-0.078,-0.068
0.148,-0.015,0.0,0.015,0.01,-0.015,0.005,-0.039,-0.068,-0.098,-0.112,-0.088,-0.078
0.15,-0.034,-0.01,0.024,0.024,-0.029,0.005,-0.034,-0.063,-0.098,-0.112,-0.093,-0.083
0.152,-0.044,-0.005,0.039,0.024,-0.044,0.015,-0.029,-0.059,-0.083,-0.102,-0.088,-0.078
0.154,-0.039,0.0,0.039,0.02,-0.039,0.02,-0.02,-0.054,-0.088,-0.098,-0.083,-0.073
0.156,-0.024,0.005,0.029,0.01,-0.029,0.015,-0.02,-0.049,-0.083,-0.102,-0.083,-0.073
0.158,-0.02,0.005,0.024,0.01,-0.024,0.015,-0.024,-0.049,-0.088,-0.098,-0.083,-0.073
0.16,-0.029,0.01,0.039,0.01,-0.034,0.024,-0.02,-0.054,-0.083,-0.102,-0.083,-0.078
0.162,-0.034,-0.005,0.029,0.02,-0.034,0.01,-0.029,-0.059,-0.093,-0.102,-0.098,-0.078
0.164,-0.034,-0.005,0.029,0.02,-0.034,0.01,-0.02,-0.049,-0.083,-0.098,-0.093,-0.068
0.166,-0.044,-0.005,0.039,0.024,-0.044,0.015,-0.02,-0.054,-0.088,-0.098,-0.088,-0.063
0.168,-0.044,-0.015,0.029,0.029,-0.039,0.005,-0.034,-0.063,-0.098,-0.127,-0.098,-0.078
0.17,-0.039,-0.015,0.024,0.029,-0.034,0.005,-0.029,-0.059,-0.098,-0.122,-0.093,-0.068
0.172,-0.039,-0.01,0.029,0.024,-0.034,0.01,-0.029,-0.059,-0.098,-0.122,-0.088,-0.068
0.174,-0.029,0.0,0.029,0.015,-0.029,0.015,-0.02,-0.054,-0.088,-0.112,-0.088,-0.068
0.176,-0.049,-0.01,0.039,0.029,-0.044,0.015,-0.02,-0.049,-0.083,-0.112,-0.093,-0.068
0.178,-0.039,-0.015,0.024,0.029,-0.034,0.005,-0.02,-0.049,-0.093,-0.112,-0.088,-0.063
0.18,-0.024,0.005,0.029,0.01,-0.029,0.015,-0.02,-0.049,-0.088,-0.112,-0.083,-0.063
0.182,-0.024,0.005,0.029,0.01,-0.029,0.015,-0.02,-0.049,-0.088,-0.107,-0.083,-0.073
0.184,-0.034,-0.005,0.029,0.02,-0.034,0.01,-0.015,-0.044,-0.088,-0.102,-0.078,-0.073
0.186,-0.029,-0.005,0.024,0.02,-0.029,0.01,-0.02,-0.054,-0.093,-0.102,-0.088,-0.073
0.188,-0.039,-0.01,0.029,0.024,-0.034,0.01,-0.024,-0.063,-0.098,-0.107,-0.093,-0.088
0.19,-0.044,-0.02,0.024,0.034,-0.034,0.0,-0.024,-0.063,-0.098,-0.117,-0.102,-0.088
0.192,-0.044,-0.02,0.024,0.034,-0.034,0.0,-0.024,-0.059,-0.098,-0.122,-0.102,-0.088
0.194,-0.039,-0.01,0.029,0.024,-0.034,0.01,-0.015,-0.059,-0.093,-0.117,-0.098,-0.088
0.196,-0.029,0.0,0.029,0.015,-0.029,0.015,-0.005,-0.049,-0.083,-0.107,-0.098,-0.083
0.198,-0.049,-0.015,0.034,0.034,-0.044,0.01,-0.01,-0.049,-0.088,-0.107,-0.098,-0.078
0.2,-0.034,-0.01,0.024,0.024,-0.029,0.005,-0.01,-0.049,-0.093,-0.112,-0.102,-0.078
0.202,-0.029,-0.005,0.024,0.02,-0.029,0.01,-0.015,-0.049,-0.088,-0.112,-0.107,-0.083
0.204,-0.029,0.0,0.029,0.015,-0.029,0.015,-0.01,-0.044,-0.083,-0.107,-0.098,-0.068
0.206,-0.029,0.0,0.029,0.015,-0.029,0.015,-0.005,-0.049,-0.088,-0.112,-0.093,-0.063
0.208,-0.039,-0.01,0.029,0.024,-0.034,0.01,-0.015,-0.054,-0.093,-0.112,-0.098,-0.073
0.21,-0.029,-0.005,0.024,0.02,-0.029,0.01,-0.02,-0.059,-0.098,-0.112,-0.093,-0.073
0.212,-0.024,0.0,0.024,0.015,-0.024,0.01,-0.015,-0.054,-0.098,-0.112,-0.098,-0.068
0.214,-0.015,0.005,0.02,0.005,-0.02,0.01,-0.015,-0.044,-0.098,-0.117,-0.098,-0.073
0.216,-0.015,0.005,0.02,0.005,-0.02,0.01,-0.005,-0.049,-0.098,-0.112,-0.102,-0.078
0.218,-0.029,-0.015,0.015,0.024,-0.024,0.0,-0.005,-0.049,-0.093,-0.112,-0.102,-0.078
0.22,-0.044,-0.024,0.02,0.034,-0.034,-0.005,-0.005,-0.054,-0.098,-0.117,-0.102,-0.078
0.222,-0.029,-0.01,0.02,0.02,-0.024,0.005,0.0,-0.049,-0.088,-0.112,-0.098,-0.078
0.224,-0.034,-0.015,0.02,0.024,-0.029,0.0,-0.005,-0.049,-0.098,-0.117,-0.102,-0.083
0.226,-0.02,-0.01,0.01,0.015,-0.015,0.0,-0.01,-0.059,-0.102,-0.117,-0.107,-0.078
0.228,-0.02,-0.005,0.015,0.015,-0.02,0.005,-0.01,-0.054,-0.098,-0.117,-0.107,-0.078
0.23,-0.039,-0.024,0.015,0.034,-0.029,-0.005,-0.015,-0.063,-0.107,-0.127,-0.112,-0.088
0.232,-0.044,-0.029,0.015,0.039,-0.029,-0.01,-0.01,-0.059,-0.102,-0.117,-0.102,-0.083
0.234,-0.039,-0.015,0.024,0.029,-0.034,0.005,-0.01,-0.059,-0.098,-0.117,-0.102,-0.078
0.236,-0.044,-0.024,0.02,0.034,-0.034,-0.005,-0.005,-0.059,-0.098,-0.122,-0.102,-0.083
0.238,-0.034,-0.024,0.01,0.029,-0.024,-0.01,-0.005,-0.059,-0.102,-0.122,-0.112,-0.083
0.24,-0.015,0.005,0.02,0.005,-0.02,0.01,0.01,-0.049,-0.088,-0.112,-0.098,-0.073
0.242,-0.024,-0.01,0.015,0.02,-0.02,0.0,0.005,-0.054,-0.093,-0.112,-0.102,-0.078
0.244,-0.029,-0.01,0.02,0.02,-0.024,0.005,0.01,-0.044,-0.083,-0.107,-0.102,-0.078
0.246,-0.029,-0.015,0.015,0.024,-0.024,0.0,0.01,-0.049,-0.098,-0.117,-0.102,-0.078
0.248,-0.015,0.0,0.015,0.01,-0.015,0.005,0.01,-0.049,-0.098,-0.117,-0.102,-0.073
0.25,-0.015,0.005,0.02,0.005,-0.02,0.01,0.015,-0.049,-0.098,-0.112,-0.107,-0.068
0.252,-0.01,0.005,0.015,0.005,-0.015,0.01,0.01,-0.049,-0.093,-0.117,-0.107,-0.078
0.254,-0.01,0.015,0.024,0.0,-0.02,0.02,0.005,-0.044,-0.093,-0.117,-0.112,-0.073
0.256,-0.024,0.005,0.029,0.01,-0.029,0.015,0.015,-0.044,-0.088,-0.117,-0.107,-0.073
0.258,-0.034,0.0,0.034,0.02,-0.034,0.015,0.02,-0.049,-0.088,-0.122,-0.102,-0.068
0.26,-0.029,0.01,0.039,0.01,-0.034,0.024,0.034,-0.039,-0.078,-0.107,-0.088,-0.059
0.262,-0.024,0.029,0.054,0.0,-0.039,0.039,0.044,-0.029,-0.068,-0.102,-0.088,-0.054
0.264,-0.02,0.049,0.068,-0.015,-0.044,0.059,0.063,-0.01,-0.049,-0.083,-0.068,-0.039
0.266,-0.02,0.059,0.078,-0.02,-0.049,0.068,0.073,-0.005,-0.044,-0.073,-0.068,-0.039
0.268,-0.024,0.054,0.078,-0.015,-0.054,0.063,0.073,0.01,-0.029,-0.068,-0.068,-0.039
0.27,-0.005,0.059,0.063,-0.024,-0.034,0.059,0.088,0.02,-0.024,-0.054,-0.059,-0.034
0.272,0.005,0.054,0.049,-0.029,-0.024,0.049,0.088,0.034,-0.024,-0.054,-0.059,-0.034
0.274,-0.01,0.049,0.059,-0.02,-0.034,0.054,0.083,0.029,-0.02,-0.059,-0.059,-0.034
0.276,-0.005,0.059,0.063,-0.024,-0.034,0.059,0.093,0.034,-0.015,-0.049,-0.054,-0.029
0.278,-0.01,0.059,0.068,-0.024,-0.039,0.063,0.098,0.044,-0.01,-0.044,-0.049,-0.034
0.28,0.01,0.054,0.044,-0.029,-0.02,0.049,0.102,0.044,-0.005,-0.039,-0.049,-0.034
0.282,0.02,0.059,0.039,-0.039,-0.01,0.049,0.093,0.039,-0.01,-0.049,-0.054,-0.034
0.284,0.029,0.059,0.029,-0.044,0.0,0.044,0.093,0.044,-0.005,-0.039,-0.044,-0.02
0.286,0.034,0.063,0.029,-0.049,0.0,0.044,0.088,0.044,0.0,-0.039,-0.044,-0.015
0.288,0.015,0.068,0.054,-0.039,-0.02,0.059,0.098,0.054,0.005,-0.029,-0.039,-0.015
0.29,0.0,0.073,0.073,-0.034,-0.039,0.073,0.112,0.063,0.015,-0.029,-0.029,-0.01
0.292,0.02,0.078,0.059,-0.049,-0.02,0.068,0.102,0.063,0.015,-0.029,-0.034,-0.015
0.294,0.02,0.073,0.054,-0.044,-0.02,0.063,0.093,0.063,0.015,-0.034,-0.034,-0.02
0.296,0.024,0.078,0.054,-0.049,-0.015,0.063,0.083,0.054,0.01,-0.034,-0.034,-0.02
0.298,0.02,0.068,0.049,-0.044,-0.015,0.059,0.068,0.044,0.005,-0.039,-0.044,-0.02
0.3,0.015,0.073,0.059,-0.044,-0.024,0.063,0.054,0.044,-0.005,-0.044,-0.039,-0.02
0.302,0.044,0.088,0.044,-0.063,0.0,0.063,0.054,0.039,0.0,-0.034,-0.034,-0.01
0.304,0.029,0.073,0.044,-0.049,-0.01,0.059,0.044,0.029,-0.005,-0.049,-0.039,-0.01
0.306,0.024,0.068,0.044,-0.044,-0.01,0.054,0.029,0.015,-0.024,-0.059,-0.049,-0.015
0.308,0.029,0.068,0.039,-0.049,-0.005,0.054,0.015,-0.005,-0.034,-0.063,-0.054,-0.015
0.31,0.034,0.073,0.039,-0.054,-0.005,0.054,-0.01,-0.029,-0.054,-0.078,-0.068,-0.024
0.312,0.049,0.083,0.034,-0.063,0.005,0.059,-0.02,-0.039,-0.059,-0.083,-0.063,-0.02
0.314,0.024,0.063,0.039,-0.044,-0.01,0.049,-0.015,-0.044,-0.054,-0.078,-0.063,-0.015
0.316,0.0,0.049,0.049,-0.024,-0.024,0.049,-0.024,-0.049,-0.063,-0.093,-0.068,-0.015
0.318,0.02,0.068,0.049,-0.044,-0.015,0.059,-0.01,-0.049,-0.059,-0.083,-0.063,-0.015
0.32,0.02,0.063,0.044,-0.039,-0.015,0.054,-0.005,-0.049,-0.059,-0.083,-0.059,-0.015
0.322,-0.005,0.049,0.054,-0.02,-0.029,0.049,-0.015,-0.063,-0.073,-0.098,-0.073,-0.024
0.324,-0.015,0.034,0.049,-0.01,-0.034,0.039,-0.015,-0.073,-0.088,-0.102,-0.078,-0.034
0.326,-0.005,0.024,0.029,-0.01,-0.02,0.024,-0.029,-0.078,-0.098,-0.107,-0.088,-0.039
0.328,0.015,0.02,0.005,-0.015,0.005,0.01,-0.024,-0.088,-0.102,-0.117,-0.088,-0.044
0.33,0.005,0.015,0.01,-0.01,-0.005,0.01,-0.015,-0.083,-0.102,-0.127,-0.093,-0.044
0.332,0.0,0.01,0.01,-0.005,-0.005,0.01,-0.015,-0.083,-0.107,-0.127,-0.093,-0.044
0.334,0.01,0.015,0.005,-0.01,0.0,0.01,-0.01,-0.083,-0.112,-0.122,-0.093,-0.044
0.336,0.01,0.005,-0.005,-0.005,0.005,0.0,-0.005,-0.073,-0.107,-0.117,-0.098,-0.049
0.338,0.01,0.0,-0.01,-0.005,0.01,-0.005,-0.01,-0.078,-0.102,-0.127,-0.098,-0.054
0.34,0.01,-0.005,-0.015,0.0,0.01,-0.01,-0.005,-0.073,-0.098,-0.132,-0.102,-0.054
0.342,0.0,-0.02,-0.02,0.01,0.01,-0.02,-0.01,-0.073,-0.107,-0.132,-0.107,-0.059
0.344,-0.005,-0.024,-0.02,0.015,0.005,-0.024,-0.005,-0.073,-0.102,-0.127,-0.098,-0.049
0.346,0.005,-0.015,-0.02,0.005,0.01,-0.02,-0.005,-0.068,-0.102,-0.122,-0.093,-0.049
0.348,0.0,-0.015,-0.015,0.01,0.005,-0.015,-0.005,-0.063,-0.098,-0.117,-0.088,-0.044
0.35,0.0,0.0,0.0,0.0,0.0,0.0,0.0,-0.059,-0.083,-0.102,-0.078,-0.034
0.352,0.01,0.01,0.0,-0.01,0.005,0.005,0.0,-0.059,-0.083,-0.107,-0.078,-0.034
0.354,0.005,0.01,0.005,-0.005,0.0,0.005,0.005,-0.063,-0.083,-0.107,-0.073,-0.029
0.356,0.005,0.01,0.005,-0.005,0.0,0.005,0.01,-0.059,-0.083,-0.107,-0.078,-0.029
0.358,-0.015,-0.005,0.01,0.01,-0.015,0.0,0.01,-0.068,-0.093,-0.132,-0.093,-0.049
0.36,-0.02,-0.02,0.0,0.02,-0.01,-0.01,0.02,-0.073,-0.107,-0.137,-0.112,-0.068
0.362,-0.029,-0.044,-0.015,0.039,-0.01,-0.029,0.024,-0.078,-0.117,-0.151,-0.132,-0.088
0.364,-0.034,-0.059,-0.024,0.049,-0.005,-0.044,0.024,-0.083,-0.122,-0.166,-0.137,-0.098
0.366,-0.044,-0.059,-0.015,0.054,-0.015,-0.039,0.024,-0.088,-0.127,-0.171,-0.151,-0.102
0.368,-0.068,-0.083,-0.015,0.078,-0.029,-0.049,0.02,-0.093,-0.132,-0.171,-0.156,-0.117
0.37,-0.059,-0.068,-0.01,0.063,-0.024,-0.039,0.02,-0.093,-0.137,-0.176,-0.151,-0.107
0.372,-0.063,-0.068,-0.005,0.068,-0.029,-0.039,0.015,-0.098,-0.146,-0.181,-0.156,-0.117
0.374,-0.063,-0.068,-0.005,0.068,-0.029,-0.039,0.01,-0.107,-0.151,-0.185,-0.161,-0.117
0.376,-0.049,-0.059,-0.01,0.054,-0.02,-0.034,0.015,-0.098,-0.146,-0.181,-0.156,-0.107
0.378,-0.034,-0.059,-0.024,0.049,-0.005,-0.044,0.015,-0.107,-0.156,-0.19,-0.161,-0.102
0.38,-0.034,-0.049,-0.015,0.044,-0.01,-0.034,0.024,-0.107,-0.146,-0.181,-0.161,-0.098
0.382,-0.039,-0.044,-0.005,0.044,-0.02,-0.024,0.029,-0.102,-0.142,-0.185,-0.161,-0.098
0.384,-0.054,-0.059,-0.005,0.059,-0.024,-0.034,0.029,-0.107,-0.142,-0.19,-0.166,-0.102
0.386,-0.049,-0.059,-0.01,0.054,-0.02,-0.034,0.029,-0.107,-0.142,-0.19,-0.166,-0.102
0.388,-0.054,-0.059,-0.005,0.059,-0.024,-0.034,0.039,-0.102,-0.146,-0.19,-0.166,-0.107
0.39,-0.073,-0.078,-0.005,0.078,-0.034,-0.044,0.039,-0.107,-0.151,-0.195,-0.166,-0.107
0.392,-0.063,-0.063,0.0,0.063,-0.034,-0.034,0.039,-0.107,-0.151,-0.195,-0.166,-0.107
0.394,-0.054,-0.049,0.005,0.054,-0.029,-0.024,0.039,-0.107,-0.146,-0.19,-0.166,-0.112
0.396,-0.059,-0.063,-0.005,0.063,-0.029,-0.034,0.034,-0.102,-0.151,-0.195,-0.161,-0.107
0.398,-0.059,-0.068,-0.01,0.063,-0.024,-0.039,0.039,-0.102,-0.151,-0.19,-0.166,-0.117
0.4,-0.049,-0.054,-0.005,0.054,-0.024,-0.029,0.039,-0.102,-0.146,-0.195,-0.171,-0.107
0.402,-0.024,-0.039,-0.015,0.034,-0.005,-0.029,0.044,-0.088,-0.137,-0.185,-0.161,-0.102
0.404,-0.044,-0.059,-0.015,0.054,-0.015,-0.039,0.044,-0.093,-0.137,-0.185,-0.161,-0.102
0.406,-0.068,-0.083,-0.015,0.078,-0.029,-0.049,0.029,-0.107,-0.142,-0.19,-0.171,-0.112
0.408,-0.073,-0.088,-0.015,0.083,-0.029,-0.054,0.034,-0.107,-0.142,-0.185,-0.171,-0.112
0.41,-0.044,-0.063,-0.02,0.054,-0.015,-0.044,0.039,-0.098,-0.137,-0.185,-0.161,-0.102
0.412,-0.029,-0.054,-0.024,0.044,-0.005,-0.039,0.044,-0.098,-0.137,-0.19,-0.166,-0.107
0.414,-0.049,-0.073,-0.024,0.063,-0.015,-0.049,0.044,-0.102,-0.146,-0.195,-0.181,-0.122
0.416,-0.054,-0.078,-0.024,0.068,-0.015,-0.054,0.044,-0.093,-0.146,-0.2,-0.176,-0.122
0.418,-0.068,-0.088,-0.02,0.078,-0.024,-0.054,0.063,-0.078,-0.137,-0.195,-0.176,-0.127
0.42,-0.098,-0.102,-0.005,0.102,-0.049,-0.054,0.073,-0.068,-0.137,-0.215,-0.2,-0.142
0.422,-0.093,-0.122,-0.029,0.107,-0.034,-0.078,0.083,-0.068,-0.166,-0.264,-0.244,-0.176
0.424,-0.093,-0.151,-0.059,0.122,-0.02,-0.107,0.112,-0.054,-0.19,-0.317,-0.298,-0.215
0.426,-0.112,-0.171,-0.059,0.142,-0.029,-0.117,0.146,-0.034,-0.205,-0.366,-0.366,-0.268
0.428,-0.142,-0.185,-0.044,0.166,-0.049,-0.117,0.185,-0.01,-0.21,-0.405,-0.415,-0.307
0.43,-0.142,-0.171,-0.029,0.156,-0.059,-0.102,0.234,0.034,-0.19,-0.415,-0.439,-0.327
0.432,-0.146,-0.156,-0.01,0.151,-0.068,-0.083,0.264,0.078,-0.166,-0.425,-0.464,-0.342
0.434,-0.142,-0.132,0.01,0.137,-0.078,-0.063,0.298,0.156,-0.127,-0.425,-0.478,-0.351
0.436,-0.142,-0.117,0.024,0.132,-0.083,-0.049,0.342,0.298,-0.054,-0.4,-0.483,-0.346
0.438,-0.127,-0.068,0.059,0.098,-0.093,-0.005,0.381,0.444,0.034,-0.371,-0.468,-0.327
0.44,-0.117,-0.005,0.112,0.063,-0.117,0.054,0.4,0.493,0.083,-0.351,-0.434,-0.283
0.442,-0.093,0.068,0.161,0.015,-0.127,0.112,0.366,0.464,0.132,-0.288,-0.346,-0.195
0.444,-0.044,0.161,0.205,-0.059,-0.127,0.181,0.307,0.415,0.2,-0.161,-0.185,-0.059
0.446,0.034,0.283,0.249,-0.156,-0.107,0.264,0.205,0.356,0.312,0.024,0.024,0.107
0.448,0.112,0.425,0.312,-0.268,-0.102,0.366,0.068,0.288,0.459,0.293,0.312,0.322
0.45,0.229,0.571,0.342,-0.4,-0.059,0.454,-0.102,0.176,0.615,0.644,0.659,0.581
0.452,0.327,0.703,0.376,-0.512,-0.024,0.537,-0.307,0.054,0.791,1.015,1.025,0.839
0.454,0.395,0.81,0.415,-0.6,-0.01,0.61,-0.483,-0.078,0.966,1.425,1.41,1.103
0.456,0.478,0.932,0.454,-0.703,0.01,0.693,-0.649,-0.239,1.122,1.854,1.791,1.362
0.458,0.537,1.039,0.503,-0.786,0.015,0.771,-0.81,-0.4,1.279,2.259,2.142,1.596
0.46,0.547,1.103,0.556,-0.825,-0.005,0.83,-0.976,-0.556,1.391,2.606,2.435,1.796
0.462,0.581,1.098,0.517,-0.839,0.029,0.805,-1.078,-0.586,1.562,2.948,2.655,1.903
0.464,0.61,0.932,0.322,-0.771,0.142,0.625,-1.137,-0.6,1.601,3.074,2.718,1.874
0.466,0.59,0.727,0.137,-0.659,0.224,0.429,-1.137,-0.712,1.405,2.894,2.572,1.723
0.468,0.522,0.542,0.02,-0.532,0.249,0.278,-1.069,-0.8,1.186,2.674,2.357,1.547
0.47,0.478,0.434,-0.044,-0.454,0.259,0.195,-0.986,-0.815,1.015,2.494,2.167,1.41
0.472,0.42,0.346,-0.073,-0.381,0.244,0.137,-0.937,-0.942,0.698,2.162,1.923,1.259
0.474,0.346,0.224,-0.122,-0.283,0.234,0.049,-0.869,-1.147,0.161,1.581,1.576,1.059
0.476,0.298,0.127,-0.171,-0.21,0.234,-0.024,-0.756,-1.283,-0.41,0.859,1.166,0.83
0.478,0.205,0.024,-0.181,-0.112,0.19,-0.078,-0.595,-1.259,-0.761,0.229,0.698,0.542
0.48,0.102,-0.073,-0.176,-0.015,0.137,-0.127,-0.473,-1.166,-0.898,-0.215,0.283,0.288
0.482,0.044,-0.132,-0.176,0.044,0.107,-0.156,-0.386,-1.069,-0.913,-0.468,-0.005,0.107
0.484,0.0,-0.181,-0.181,0.093,0.088,-0.181,-0.342,-0.971,-0.888,-0.571,-0.2,-0.039
0.486,-0.01,-0.195,-0.185,0.102,0.088,-0.19,-0.298,-0.874,-0.825,-0.576,-0.298,-0.122
0.488,-0.015,-0.185,-0.171,0.102,0.078,-0.181,-0.264,-0.771,-0.732,-0.503,-0.293,-0.142
0.49,-0.029,-0.171,-0.142,0.102,0.054,-0.156,-0.224,-0.654,-0.625,-0.425,-0.254,-0.146
0.492,-0.039,-0.142,-0.102,0.093,0.029,-0.122,-0.181,-0.551,-0.537,-0.356,-0.22,-0.142
0.494,-0.039,-0.112,-0.073,0.078,0.015,-0.093,-0.127,-0.439,-0.444,-0.288,-0.181,-0.112
0.496,-0.049,-0.102,-0.054,0.078,0.0,-0.078,-0.093,-0.361,-0.376,-0.249,-0.161,-0.102
0.498,-0.039,-0.083,-0.044,0.063,0.0,-0.063,-0.054,-0.278,-0.317,-0.215,-0.142,-0.102
0.5,-0.044,-0.068,-0.024,0.059,-0.01,-0.049,-0.034,-0.224,-0.283,-0.2,-0.146,-0.102
0.502,-0.059,-0.063,-0.005,0.063,-0.029,-0.034,-0.015,-0.195,-0.259,-0.195,-0.142,-0.098
0.504,-0.054,-0.044,0.01,0.049,-0.034,-0.02,-0.01,-0.171,-0.234,-0.19,-0.137,-0.093
0.506,-0.063,-0.034,0.029,0.049,-0.049,-0.005,0.01,-0.151,-0.224,-0.19,-0.132,-0.083
0.508,-0.054,-0.02,0.034,0.039,-0.044,0.005,0.029,-0.151,-0.21,-0.2,-0.142,-0.078
0.51,-0.054,-0.034,0.02,0.044,-0.039,-0.01,0.039,-0.132,-0.2,-0.2,-0.142,-0.078
0.512,-0.063,-0.059,0.005,0.063,-0.034,-0.029,0.039,-0.122,-0.205,-0.215,-0.151,-0.098
0.514,-0.068,-0.073,-0.005,0.073,-0.034,-0.039,0.044,-0.112,-0.2,-0.21,-0.156,-0.098
0.516,-0.078,-0.083,-0.005,0.083,-0.039,-0.044,0.049,-0.098,-0.195,-0.22,-0.161,-0.102
0.518,-0.073,-0.088,-0.015,0.083,-0.029,-0.054,0.054,-0.083,-0.19,-0.22,-0.166,-0.112
0.52,-0.059,-0.068,-0.01,0.063,-0.024,-0.039,0.068,-0.063,-0.181,-0.22,-0.171,-0.117
0.522,-0.054,-0.059,-0.005,0.059,-0.024,-0.034,0.073,-0.068,-0.176,-0.22,-0.181,-0.117
0.524,-0.049,-0.063,-0.015,0.059,-0.02,-0.039,0.068,-0.063,-0.176,-0.229,-0.185,-0.122
0.526,-0.049,-0.049,0.0,0.049,-0.024,-0.024,0.078,-0.054,-0.156,-0.215,-0.185,-0.117
0.528,-0.083,-0.059,0.024,0.073,-0.054,-0.02,0.078,-0.054,-0.151,-0.215,-0.176,-0.112
0.53,-0.073,-0.054,0.02,0.063,-0.049,-0.02,0.088,-0.044,-0.146,-0.205,-0.176,-0.102
0.532,-0.063,-0.059,0.005,0.063,-0.034,-0.029,0.088,-0.049,-0.156,-0.21,-0.171,-0.107
0.534,-0.054,-0.063,-0.01,0.059,-0.024,-0.039,0.083,-0.049,-0.161,-0.22,-0.171,-0.107
0.536,-0.059,-0.073,-0.015,0.068,-0.024,-0.044,0.083,-0.039,-0.151,-0.22,-0.171,-0.107
0.538,-0.083,-0.093,-0.01,0.088,-0.039,-0.054,0.083,-0.034,-0.156,-0.22,-0.181,-0.122
0.54,-0.078,-0.083,-0.005,0.083,-0.039,-0.044,0.088,-0.024,-0.146,-0.22,-0.185,-0.122
0.542,-0.073,-0.078,-0.005,0.078,-0.034,-0.044,0.083,-0.024,-0.142,-0.22,-0.19,-0.117
0.544,-0.083,-0.068,0.015,0.078,-0.049,-0.029,0.088,-0.02,-0.137,-0.22,-0.181,-0.112
0.546,-0.059,-0.054,0.005,0.059,-0.034,-0.024,0.088,-0.024,-0.132,-0.215,-0.181,-0.117
0.548,-0.049,-0.044,0.005,0.049,-0.029,-0.02,0.088,-0.029,-0.122,-0.21,-0.171,-0.112
0.55,-0.054,-0.054,0.0,0.054,-0.029,-0.029,0.088,-0.029,-0.122,-0.21,-0.176,-0.107
0.552,-0.063,-0.063,0.0,0.063,-0.034,-0.034,0.088,-0.029,-0.127,-0.205,-0.171,-0.112
0.554,-0.068,-0.068,0.0,0.068,-0.034,-0.034,0.088,-0.029,-0.127,-0.205,-0.181,-0.112
0.556,-0.059,-0.068,-0.01,0.063,-0.024,-0.039,0.093,-0.02,-0.127,-0.205,-0.176,-0.107
0.558,-0.054,-0.054,0.0,0.054,-0.029,-0.029,0.093,-0.005,-0.122,-0.2,-0.166,-0.112
0.56,-0.054,-0.063,-0.01,0.059,-0.024,-0.039,0.083,-0.015,-0.127,-0.205,-0.176,-0.127
0.562,-0.059,-0.063,-0.005,0.063,-0.029,-0.034,0.083,-0.01,-0.117,-0.205,-0.171,-0.117
0.564,-0.063,-0.063,0.0,0.063,-0.034,-0.034,0.083,-0.01,-0.122,-0.205,-0.171,-0.122
0.566,-0.068,-0.063,0.005,0.068,-0.039,-0.029,0.088,-0.02,-0.122,-0.205,-0.181,-0.127
0.568,-0.054,-0.049,0.005,0.054,-0.029,-0.024,0.088,-0.02,-0.112,-0.205,-0.181,-0.117
0.57,-0.059,-0.054,0.005,0.059,-0.034,-0.024,0.093,-0.01,-0.102,-0.195,-0.171,-0.107
0.572,-0.054,-0.054,0.0,0.054,-0.029,-0.029,0.093,-0.01,-0.102,-0.185,-0.161,-0.112
0.574,-0.054,-0.063,-0.01,0.059,-0.024,-0.039,0.088,-0.01,-0.102,-0.185,-0.166,-0.107
0.576,-0.059,-0.073,-0.015,0.068,-0.024,-0.044,0.078,-0.01,-0.112,-0.195,-0.166,-0.117
0.578,-0.063,-0.078,-0.015,0.073,-0.024,-0.049,0.088,0.0,-0.112,-0.195,-0.176,-0.122
0.58,-0.083,-0.088,-0.005,0.088,-0.039,-0.049,0.083,0.0,-0.112,-0.195,-0.171,-0.132
0.582,-0.078,-0.098,-0.02,0.088,-0.029,-0.059,0.078,-0.01,-0.117,-0.215,-0.185,-0.137
0.584,-0.049,-0.068,-0.02,0.059,-0.015,-0.044,0.083,0.0,-0.102,-0.205,-0.181,-0.127
0.586,-0.044,-0.044,0.0,0.044,-0.024,-0.024,0.088,0.01,-0.093,-0.185,-0.176,-0.122
0.588,-0.049,-0.049,0.0,0.049,-0.024,-0.024,0.088,0.005,-0.093,-0.181,-0.161,-0.112
0.59,-0.054,-0.049,0.005,0.054,-0.029,-0.024,0.098,0.02,-0.078,-0.171,-0.151,-0.102
0.592,-0.054,-0.059,-0.005,0.059,-0.024,-0.034,0.083,0.0,-0.102,-0.185,-0.166,-0.112
0.594,-0.049,-0.054,-0.005,0.054,-0.024,-0.029,0.088,0.01,-0.093,-0.181,-0.151,-0.098
0.596,-0.044,-0.054,-0.01,0.049,-0.02,-0.034,0.088,0.015,-0.088,-0.181,-0.151,-0.098
0.598,-0.054,-0.059,-0.005,0.059,-0.024,-0.034,0.088,0.02,-0.093,-0.181,-0.161,-0.107
0.6,-0.059,-0.063,-0.005,0.063,-0.029,-0.034,0.083,0.029,-0.093,-0.181,-0.161,-0.107
0.602,-0.063,-0.068,-0.005,0.068,-0.029,-0.039,0.078,0.029,-0.083,-0.181,-0.151,-0.112
0.604,-0.059,-0.054,0.005,0.059,-0.034,-0.024,0.083,0.034,-0.078,-0.176,-0.151,-0.112
0.606,-0.068,-0.063,0.005,0.068,-0.039,-0.029,0.083,0.029,-0.078,-0.171,-0.151,-0.117
0.608,-0.063,-0.068,-0.005,0.068,-0.029,-0.039,0.083,0.024,-0.073,-0.171,-0.156,-0.112
0.61,-0.049,-0.068,-0.02,0.059,-0.015,-0.044,0.088,0.029,-0.063,-0.171,-0.146,-0.107
0.612,-0.049,-0.068,-0.02,0.059,-0.015,-0.044,0.078,0.029,-0.073,-0.171,-0.151,-0.112
0.614,-0.039,-0.054,-0.015,0.049,-0.015,-0.034,0.083,0.039,-0.063,-0.166,-0.146,-0.102
0.616,-0.044,-0.054,-0.01,0.049,-0.02,-0.034,0.088,0.054,-0.059,-0.156,-0.137,-0.098
0.618,-0.054,-0.063,-0.01,0.059,-0.024,-0.039,0.078,0.049,-0.063,-0.161,-0.146,-0.107
0.62,-0.054,-0.063,-0.01,0.059,-0.024,-0.039,0.068,0.049,-0.073,-0.161,-0.151,-0.112
0.622,-0.068,-0.078,-0.01,0.073,-0.029,-0.044,0.068,0.039,-0.078,-0.171,-0.151,-0.107
0.624,-0.059,-0.073,-0.015,0.068,-0.024,-0.044,0.068,0.039,-0.078,-0.171,-0.151,-0.107
0.626,-0.044,-0.063,-0.02,0.054,-0.015,-0.044,0.073,0.039,-0.068,-0.166,-0.142,-0.107
0.628,-0.034,-0.063,-0.029,0.049,-0.005,-0.049,0.068,0.029,-0.068,-0.166,-0.146,-0.112
0.63,-0.039,-0.063,-0.024,0.054,-0.01,-0.044,0.073,0.029,-0.068,-0.161,-0.146,-0.107
0.632,-0.049,-0.059,-0.01,0.054,-0.02,-0.034,0.083,0.044,-0.063,-0.151,-0.146,-0.102
0.634,-0.054,-0.063,-0.01,0.059,-0.024,-0.039,0.078,0.034,-0.068,-0.166,-0.151,-0.098
0.636,-0.054,-0.068,-0.015,0.063,-0.02,-0.044,0.078,0.044,-0.059,-0.156,-0.142,-0.098
0.638,-0.068,-0.073,-0.005,0.073,-0.034,-0.039,0.083,0.059,-0.054,-0.146,-0.137,-0.098
0.64,-0.063,-0.073,-0.01,0.068,-0.029,-0.044,0.073,0.054,-0.063,-0.161,-0.142,-0.102
0.642,-0.054,-0.073,-0.02,0.063,-0.02,-0.049,0.073,0.059,-0.054,-0.161,-0.137,-0.098
0.644,-0.054,-0.073,-0.02,0.063,-0.02,-0.049,0.068,0.054,-0.059,-0.156,-0.142,-0.102
0.646,-0.054,-0.068,-0.015,0.063,-0.02,-0.044,0.068,0.049,-0.054,-0.146,-0.137,-0.102
0.648,-0.054,-0.078,-0.024,0.068,-0.015,-0.054,0.068,0.044,-0.049,-0.142,-0.132,-0.098
0.65,-0.063,-0.088,-0.024,0.078,-0.02,-0.059,0.068,0.044,-0.049,-0.142,-0.137,-0.102
0.652,-0.049,-0.078,-0.029,0.063,-0.01,-0.054,0.068,0.044,-0.049,-0.137,-0.137,-0.102
0.654,-0.039,-0.068,-0.029,0.054,-0.005,-0.049,0.073,0.054,-0.044,-0.132,-0.127,-0.098
0.656,-0.029,-0.063,-0.034,0.049,0.0,-0.049,0.073,0.063,-0.039,-0.127,-0.122,-0.093
0.658,-0.024,-0.059,-0.034,0.044,0.005,-0.049,0.073,0.078,-0.034,-0.127,-0.122,-0.093
0.66,-0.034,-0.068,-0.034,0.054,0.0,-0.054,0.063,0.068,-0.029,-0.127,-0.122,-0.098
0.662,-0.034,-0.073,-0.039,0.054,0.0,-0.059,0.059,0.068,-0.029,-0.132,-0.127,-0.102
0.664,-0.034,-0.068,-0.034,0.054,0.0,-0.054,0.063,0.083,-0.02,-0.122,-0.122,-0.093
0.666,-0.044,-0.073,-0.029,0.059,-0.01,-0.054,0.068,0.078,-0.015,-0.117,-0.117,-0.093
0.668,-0.029,-0.063,-0.034,0.049,0.0,-0.049,0.063,0.078,-0.015,-0.112,-0.112,-0.088
0.67,-0.034,-0.068,-0.034,0.054,0.0,-0.054,0.063,0.083,-0.005,-0.107,-0.107,-0.083
0.672,-0.054,-0.073,-0.02,0.063,-0.02,-0.049,0.059,0.083,-0.015,-0.098,-0.107,-0.083
0.674,-0.054,-0.073,-0.02,0.063,-0.02,-0.049,0.063,0.083,-0.015,-0.098,-0.102,-0.078
0.676,-0.044,-0.078,-0.034,0.063,-0.005,-0.059,0.063,0.088,-0.01,-0.093,-0.102,-0.078
0.678,-0.005,-0.039,-0.034,0.024,0.015,-0.039,0.073,0.107,-0.005,-0.078,-0.088,-0.078
0.68,-0.015,-0.059,-0.044,0.039,0.015,-0.054,0.059,0.098,-0.01,-0.093,-0.098,-0.088
0.682,-0.015,-0.063,-0.049,0.039,0.015,-0.059,0.054,0.098,0.0,-0.093,-0.093,-0.093
0.684,-0.01,-0.044,-0.034,0.029,0.01,-0.039,0.059,0.112,0.01,-0.078,-0.083,-0.083
0.686,-0.029,-0.054,-0.024,0.044,-0.005,-0.039,0.063,0.112,0.02,-0.063,-0.073,-0.078
0.688,-0.034,-0.059,-0.024,0.049,-0.005,-0.044,0.054,0.102,0.02,-0.068,-0.073,-0.078
0.69,-0.034,-0.063,-0.029,0.049,-0.005,-0.049,0.059,0.122,0.029,-0.059,-0.068,-0.073
0.692,-0.034,-0.073,-0.039,0.054,0.0,-0.059,0.054,0.122,0.034,-0.049,-0.063,-0.068
0.694,-0.02,-0.063,-0.044,0.044,0.01,-0.054,0.059,0.132,0.044,-0.044,-0.054,-0.059
0.696,-0.02,-0.063,-0.044,0.044,0.01,-0.054,0.054,0.137,0.044,-0.044,-0.059,-0.063
0.698,-0.049,-0.093,-0.044,0.073,-0.005,-0.068,0.044,0.137,0.034,-0.049,-0.059,-0.068
0.7,-0.024,-0.063,-0.039,0.044,0.005,-0.054,0.044,0.146,0.044,-0.039,-0.049,-0.054
0.702,-0.01,-0.039,-0.029,0.024,0.01,-0.034,0.054,0.161,0.059,-0.02,-0.044,-0.044
0.704,-0.005,-0.039,-0.034,0.024,0.015,-0.039,0.054,0.166,0.068,-0.01,-0.044,-0.044
0.706,-0.015,-0.044,-0.029,0.029,0.005,-0.039,0.044,0.166,0.068,-0.01,-0.034,-0.034
0.708,-0.02,-0.054,-0.034,0.039,0.005,-0.044,0.039,0.161,0.073,-0.01,-0.029,-0.029
0.71,-0.015,-0.049,-0.034,0.034,0.01,-0.044,0.049,0.171,0.078,0.0,-0.02,-0.029
0.712,-0.024,-0.054,-0.029,0.039,0.0,-0.044,0.044,0.171,0.083,0.015,-0.015,-0.024
0.714,-0.01,-0.044,-0.034,0.029,0.01,-0.039,0.044,0.181,0.088,0.024,0.0,-0.02
0.716,0.01,-0.039,-0.049,0.015,0.029,-0.044,0.054,0.195,0.102,0.034,0.01,-0.015
0.718,0.005,-0.039,-0.044,0.02,0.024,-0.044,0.044,0.2,0.102,0.039,0.015,-0.01
0.72,0.005,-0.039,-0.044,0.02,0.024,-0.044,0.034,0.2,0.107,0.039,0.015,-0.01
0.722,0.015,-0.029,-0.044,0.01,0.029,-0.039,0.039,0.22,0.127,0.054,0.034,0.0
0.724,0.005,-0.029,-0.034,0.015,0.02,-0.034,0.034,0.215,0.137,0.059,0.029,-0.005
0.726,0.01,-0.024,-0.034,0.01,0.02,-0.029,0.039,0.22,0.156,0.078,0.054,0.01
0.728,0.02,-0.02,-0.039,0.0,0.029,-0.029,0.039,0.224,0.166,0.102,0.063,0.02
0.73,0.029,-0.01,-0.039,-0.01,0.034,-0.024,0.044,0.229,0.171,0.112,0.073,0.02
0.732,0.015,-0.02,-0.034,0.005,0.024,-0.029,0.039,0.239,0.176,0.132,0.093,0.024
0.734,0.015,-0.029,-0.044,0.01,0.029,-0.039,0.034,0.254,0.185,0.146,0.093,0.039
0.736,0.034,-0.02,-0.054,-0.005,0.044,-0.039,0.034,0.259,0.195,0.156,0.102,0.044
0.738,0.044,-0.01,-0.054,-0.015,0.049,-0.034,0.034,0.268,0.21,0.171,0.107,0.049
0.74,0.049,-0.01,-0.059,-0.02,0.054,-0.034,0.02,0.264,0.21,0.171,0.107,0.049
0.742,0.068,0.005,-0.063,-0.034,0.063,-0.029,0.015,0.278,0.224,0.185,0.122,0.063
0.744,0.078,0.015,-0.063,-0.044,0.068,-0.024,0.02,0.288,0.239,0.21,0.142,0.073
0.746,0.073,0.024,-0.049,-0.049,0.059,-0.015,0.02,0.293,0.254,0.234,0.156,0.078
0.748,0.068,0.024,-0.044,-0.044,0.054,-0.01,0.024,0.298,0.278,0.254,0.181,0.088
0.75,0.054,0.005,-0.049,-0.029,0.049,-0.024,0.015,0.307,0.283,0.273,0.195,0.093
0.752,0.054,0.01,-0.044,-0.029,0.049,-0.02,0.01,0.307,0.293,0.293,0.215,0.107
0.754,0.078,0.034,-0.044,-0.054,0.059,-0.005,0.02,0.332,0.312,0.327,0.239,0.127
0.756,0.073,0.024,-0.049,-0.049,0.059,-0.015,0.005,0.327,0.317,0.332,0.249,0.127
0.758,0.083,0.029,-0.054,-0.054,0.068,-0.015,0.0,0.342,0.332,0.351,0.259,0.146
0.76,0.107,0.039,-0.068,-0.073,0.088,-0.015,-0.01,0.342,0.342,0.371,0.273,0.151
0.762,0.098,0.039,-0.059,-0.068,0.078,-0.01,-0.01,0.346,0.351,0.386,0.288,0.161
0.764,0.098,0.044,-0.054,-0.068,0.073,-0.005,-0.02,0.346,0.361,0.395,0.288,0.166
0.766,0.093,0.039,-0.054,-0.063,0.073,-0.01,-0.02,0.351,0.376,0.415,0.312,0.176
0.768,0.107,0.034,-0.073,-0.068,0.088,-0.02,-0.029,0.346,0.386,0.434,0.332,0.185
0.77,0.122,0.044,-0.078,-0.083,0.098,-0.02,-0.034,0.356,0.395,0.454,0.346,0.19
0.772,0.132,0.054,-0.078,-0.093,0.102,-0.015,-0.029,0.366,0.415,0.478,0.376,0.21
0.774,0.137,0.059,-0.078,-0.098,0.107,-0.01,-0.034,0.376,0.425,0.498,0.381,0.22
0.776,0.127,0.054,-0.073,-0.088,0.098,-0.01,-0.039,0.381,0.439,0.508,0.4,0.229
0.778,0.137,0.059,-0.078,-0.098,0.107,-0.01,-0.044,0.386,0.439,0.527,0.41,0.234
0.78,0.142,0.059,-0.083,-0.098,0.112,-0.015,-0.063,0.386,0.444,0.532,0.41,0.244
0.782,0.122,0.039,-0.083,-0.078,0.102,-0.024,-0.073,0.376,0.444,0.532,0.425,0.244
0.784,0.117,0.044,-0.073,-0.078,0.093,-0.015,-0.073,0.376,0.454,0.551,0.429,0.259
0.786,0.142,0.078,-0.063,-0.107,0.102,0.005,-0.063,0.386,0.468,0.571,0.464,0.283
0.788,0.166,0.083,-0.083,-0.122,0.122,0.0,-0.068,0.376,0.473,0.576,0.478,0.298
0.79,0.156,0.083,-0.073,-0.117,0.112,0.005,-0.073,0.366,0.464,0.581,0.483,0.293
0.792,0.146,0.063,-0.083,-0.102,0.112,-0.01,-0.083,0.366,0.464,0.595,0.488,0.293
0.794,0.156,0.083,-0.073,-0.117,0.112,0.005,-0.073,0.376,0.483,0.605,0.508,0.307
0.796,0.166,0.088,-0.078,-0.127,0.122,0.005,-0.073,0.381,0.488,0.62,0.517,0.312
0.798,0.161,0.088,-0.073,-0.122,0.117,0.005,-0.078,0.386,0.488,0.62,0.517,0.312
0.8,0.181,0.098,-0.083,-0.137,0.132,0.005,-0.088,0.376,0.488,0.62,0.522,0.317
0.802,0.19,0.098,-0.093,-0.142,0.142,0.0,-0.083,0.381,0.493,0.634,0.537,0.332
0.804,0.185,0.098,-0.088,-0.142,0.137,0.005,-0.093,0.371,0.488,0.639,0.532,0.327
0.806,0.19,0.102,-0.088,-0.146,0.137,0.005,-0.098,0.361,0.488,0.634,0.537,0.327
0.808,0.195,0.107,-0.088,-0.151,0.142,0.01,-0.093,0.356,0.498,0.644,0.542,0.337
0.81,0.181,0.102,-0.078,-0.142,0.127,0.01,-0.093,0.351,0.493,0.639,0.542,0.342
0.812,0.185,0.102,-0.083,-0.142,0.132,0.01,-0.098,0.346,0.483,0.644,0.542,0.337
0.814,0.176,0.093,-0.083,-0.132,0.127,0.005,-0.102,0.337,0.483,0.63,0.542,0.337
0.816,0.185,0.098,-0.088,-0.142,0.137,0.005,-0.102,0.337,0.478,0.63,0.542,0.342
0.818,0.185,0.088,-0.098,-0.137,0.142,-0.005,-0.102,0.332,0.468,0.62,0.532,0.332
0.82,0.171,0.088,-0.083,-0.127,0.127,0.0,-0.112,0.317,0.459,0.605,0.522,0.317
0.822,0.171,0.088,-0.083,-0.127,0.127,0.0,-0.102,0.322,0.459,0.595,0.517,0.327
0.824,0.181,0.107,-0.073,-0.142,0.127,0.015,-0.093,0.312,0.454,0.6,0.512,0.327
0.826,0.19,0.112,-0.078,-0.151,0.132,0.015,-0.093,0.307,0.444,0.586,0.508,0.322
0.828,0.185,0.107,-0.078,-0.146,0.132,0.015,-0.093,0.293,0.439,0.571,0.493,0.317
0.83,0.171,0.088,-0.083,-0.127,0.127,0.0,-0.093,0.283,0.425,0.551,0.483,0.312
0.832,0.171,0.093,-0.078,-0.132,0.122,0.005,-0.093,0.268,0.41,0.542,0.464,0.303
0.834,0.156,0.093,-0.063,-0.122,0.107,0.015,-0.083,0.264,0.405,0.527,0.459,0.303
0.836,0.151,0.078,-0.073,-0.112,0.112,0.0,-0.088,0.259,0.386,0.503,0.439,0.293
0.838,0.156,0.088,-0.068,-0.122,0.112,0.01,-0.093,0.254,0.361,0.483,0.415,0.278
0.84,0.151,0.088,-0.063,-0.117,0.107,0.01,-0.093,0.239,0.351,0.459,0.4,0.268
0.842,0.137,0.078,-0.059,-0.107,0.098,0.01,-0.088,0.229,0.332,0.429,0.381,0.254
0.844,0.122,0.073,-0.049,-0.098,0.083,0.01,-0.083,0.205,0.322,0.41,0.366,0.239
0.846,0.117,0.068,-0.049,-0.093,0.083,0.01,-0.083,0.19,0.303,0.39,0.342,0.229
0.848,0.137,0.088,-0.049,-0.112,0.093,0.02,-0.073,0.185,0.303,0.386,0.342,0.234
0.85,0.122,0.078,-0.044,-0.098,0.083,0.015,-0.068,0.176,0.278,0.366,0.327,0.229
0.852,0.122,0.078,-0.044,-0.098,0.083,0.015,-0.068,0.161,0.264,0.342,0.307,0.22
0.854,0.117,0.073,-0.044,-0.093,0.078,0.015,-0.063,0.151,0.249,0.322,0.293,0.215
0.856,0.102,0.054,-0.049,-0.078,0.073,0.0,-0.073,0.132,0.22,0.293,0.264,0.19
0.858,0.083,0.044,-0.039,-0.063,0.059,0.0,-0.068,0.122,0.195,0.268,0.244,0.176
0.86,0.078,0.044,-0.034,-0.059,0.054,0.005,-0.063,0.117,0.19,0.254,0.234,0.171
0.862,0.073,0.039,-0.034,-0.054,0.054,0.0,-0.059,0.107,0.176,0.229,0.215,0.161
0.864,0.088,0.059,-0.029,-0.073,0.059,0.015,-0.049,0.093,0.171,0.22,0.2,0.151
0.866,0.073,0.059,-0.015,-0.063,0.044,0.02,-0.044,0.088,0.161,0.205,0.185,0.142
0.868,0.059,0.039,-0.02,-0.049,0.039,0.01,-0.049,0.059,0.142,0.181,0.161,0.127
0.87,0.059,0.044,-0.015,-0.049,0.034,0.015,-0.039,0.068,0.132,0.176,0.166,0.127
0.872,0.063,0.049,-0.015,-0.054,0.039,0.015,-0.034,0.063,0.122,0.161,0.151,0.122
0.874,0.073,0.049,-0.024,-0.059,0.049,0.01,-0.029,0.054,0.112,0.146,0.142,0.112
0.876,0.063,0.039,-0.024,-0.049,0.044,0.005,-0.034,0.044,0.088,0.122,0.117,0.093
0.878,0.034,0.015,-0.02,-0.024,0.024,-0.005,-0.039,0.034,0.068,0.102,0.098,0.078
0.88,0.029,0.024,-0.005,-0.024,0.015,0.01,-0.039,0.029,0.063,0.088,0.088,0.068
0.882,0.024,0.015,-0.01,-0.02,0.015,0.0,-0.029,0.024,0.059,0.068,0.078,0.068
0.884,0.044,0.029,-0.015,-0.034,0.029,0.005,-0.029,0.01,0.044,0.054,0.063,0.054
0.886,0.063,0.044,-0.02,-0.054,0.039,0.01,-0.02,0.015,0.044,0.049,0.054,0.059
0.888,0.044,0.024,-0.02,-0.034,0.029,0.0,-0.015,0.005,0.044,0.039,0.039,0.049
0.89,0.034,0.02,-0.015,-0.024,0.024,0.0,-0.005,0.01,0.034,0.029,0.044,0.054
0.892,0.039,0.02,-0.02,-0.029,0.029,0.0,-0.005,0.0,0.02,0.02,0.024,0.044
0.894,0.02,0.005,-0.015,-0.01,0.015,-0.005,0.0,0.0,0.02,0.01,0.02,0.044
0.896,0.02,0.01,-0.01,-0.015,0.015,0.0,-0.005,-0.005,0.005,-0.005,0.005,0.024
0.898,0.01,-0.005,-0.015,0.0,0.01,-0.01,0.0,0.0,-0.005,-0.015,-0.01,0.02
0.9,0.01,-0.005,-0.015,0.0,0.01,-0.01,-0.005,-0.01,-0.02,-0.029,-0.02,0.01
0.902,0.015,0.0,-0.015,-0.005,0.015,-0.01,0.0,-0.005,-0.02,-0.044,-0.024,0.005
0.904,0.005,-0.01,-0.015,0.005,0.01,-0.015,0.005,-0.005,-0.024,-0.044,-0.029,0.0
0.906,-0.01,-0.024,-0.015,0.02,0.0,-0.02,0.005,-0.015,-0.029,-0.059,-0.044,-0.005
0.908,-0.01,-0.015,-0.005,0.015,-0.005,-0.01,0.01,-0.02,-0.034,-0.068,-0.044,-0.005
0.91,-0.01,-0.02,-0.01,0.015,0.0,-0.015,0.015,-0.02,-0.044,-0.073,-0.049,-0.005
0.912,-0.015,-0.02,-0.005,0.02,-0.005,-0.015,0.02,-0.024,-0.044,-0.078,-0.059,-0.01
0.914,-0.015,-0.029,-0.015,0.024,0.0,-0.024,0.02,-0.024,-0.054,-0.088,-0.063,-0.01
0.916,-0.01,-0.02,-0.01,0.015,0.0,-0.015,0.024,-0.02,-0.054,-0.093,-0.063,-0.015
0.918,-0.005,-0.015,-0.01,0.01,0.0,-0.015,0.024,-0.015,-0.063,-0.102,-0.068,-0.024
0.92,-0.015,-0.02,-0.005,0.02,-0.005,-0.015,0.02,-0.015,-0.063,-0.107,-0.078,-0.024
0.922,-0.01,-0.015,-0.005,0.015,-0.005,-0.01,0.029,-0.015,-0.063,-0.112,-0.083,-0.024
0.924,-0.02,-0.02,0.0,0.02,-0.01,-0.01,0.029,-0.01,-0.063,-0.112,-0.088,-0.034
0.926,-0.034,-0.029,0.005,0.034,-0.02,-0.015,0.029,-0.02,-0.073,-0.127,-0.093,-0.034
0.928,-0.024,-0.02,0.005,0.024,-0.015,-0.01,0.029,-0.029,-0.068,-0.137,-0.098,-0.039
0.93,-0.02,-0.015,0.005,0.02,-0.015,-0.005,0.044,-0.015,-0.063,-0.127,-0.083,-0.039
0.932,-0.01,-0.01,0.0,0.01,-0.005,-0.005,0.044,-0.005,-0.059,-0.127,-0.093,-0.044
0.934,0.005,-0.01,-0.015,0.005,0.01,-0.015,0.044,-0.005,-0.059,-0.122,-0.098,-0.049
0.936,-0.01,-0.024,-0.015,0.02,0.0,-0.02,0.039,0.0,-0.063,-0.132,-0.107,-0.059
0.938,-0.034,-0.034,0.0,0.034,-0.02,-0.02,0.044,0.005,-0.063,-0.132,-0.102,-0.059
0.94,-0.034,-0.034,0.0,0.034,-0.02,-0.02,0.039,0.0,-0.063,-0.137,-0.112,-0.068
0.942,-0.049,-0.044,0.005,0.049,-0.029,-0.02,0.044,0.015,-0.059,-0.137,-0.112,-0.063
0.944,-0.015,-0.01,0.005,0.015,-0.01,-0.005,0.054,0.02,-0.054,-0.137,-0.112,-0.054
0.946,-0.015,-0.01,0.005,0.015,-0.01,-0.005,0.054,0.015,-0.059,-0.142,-0.117,-0.059
0.948,-0.02,-0.015,0.005,0.02,-0.015,-0.005,0.049,0.015,-0.054,-0.142,-0.117,-0.063
0.95,-0.02,-0.02,0.0,0.02,-0.01,-0.01,0.049,0.02,-0.054,-0.137,-0.112,-0.063
0.952,-0.029,-0.024,0.005,0.029,-0.02,-0.01,0.054,0.02,-0.054,-0.137,-0.112,-0.063
0.954,-0.02,-0.02,0.0,0.02,-0.01,-0.01,0.059,0.029,-0.044,-0.127,-0.107,-0.059
0.956,-0.029,-0.02,0.01,0.024,-0.02,-0.005,0.063,0.039,-0.034,-0.117,-0.107,-0.059
0.958,-0.034,-0.024,0.01,0.029,-0.024,-0.01,0.059,0.044,-0.039,-0.112,-0.107,-0.059
0.96,-0.029,-0.029,0.0,0.029,-0.015,-0.015,0.054,0.049,-0.029,-0.112,-0.107,-0.063
0.962,-0.024,-0.029,-0.005,0.029,-0.01,-0.02,0.049,0.049,-0.024,-0.107,-0.102,-0.068
0.964,-0.015,-0.024,-0.01,0.02,-0.005,-0.02,0.049,0.044,-0.029,-0.117,-0.107,-0.073
0.966,-0.02,-0.02,0.0,0.02,-0.01,-0.01,0.059,0.049,-0.015,-0.107,-0.098,-0.068
0.968,-0.054,-0.039,0.015,0.049,-0.034,-0.015,0.054,0.044,-0.01,-0.102,-0.098,-0.068
0.97,-0.063,-0.049,0.015,0.059,-0.039,-0.02,0.049,0.049,-0.01,-0.098,-0.098,-0.073
0.972,-0.029,-0.024,0.005,0.029,-0.02,-0.01,0.059,0.054,0.005,-0.088,-0.088,-0.063
0.974,-0.024,-0.015,0.01,0.02,-0.02,-0.005,0.063,0.063,0.01,-0.073,-0.083,-0.063
0.976,-0.029,-0.015,0.015,0.024,-0.024,0.0,0.063,0.068,0.01,-0.068,-0.083,-0.063
0.978,-0.029,-0.015,0.015,0.024,-0.024,0.0,0.059,0.068,0.01,-0.068,-0.088,-0.068
0.98,-0.024,-0.015,0.01,0.02,-0.02,-0.005,0.059,0.073,0.015,-0.063,-0.083,-0.063
0.982,-0.015,-0.005,0.01,0.01,-0.015,0.0,0.059,0.078,0.02,-0.059,-0.088,-0.063
0.984,-0.02,-0.01,0.01,0.015,-0.015,0.0,0.054,0.078,0.02,-0.059,-0.083,-0.063
0.986,-0.024,-0.005,0.02,0.015,-0.024,0.005,0.054,0.073,0.024,-0.054,-0.073,-0.059
0.988,-0.024,-0.01,0.015,0.02,-0.02,0.0,0.054,0.073,0.034,-0.049,-0.068,-0.059
0.99,-0.029,-0.015,0.015,0.024,-0.024,0.0,0.054,0.068,0.029,-0.044,-0.063,-0.059
0.992,-0.024,-0.01,0.015,0.02,-0.02,0.0,0.044,0.068,0.029,-0.044,-0.073,-0.063
0.994,-0.039,-0.02,0.02,0.029,-0.029,0.0,0.044,0.078,0.029,-0.039,-0.068,-0.059
0.996,-0.024,-0.024,0.0,0.024,-0.015,-0.015,0.034,0.068,0.02,-0.039,-0.073,-0.063
0.998,-0.005,-0.015,-0.01,0.01,0.0,-0.015,0.034,0.073,0.02,-0.034,-0.068,-0.059
1.0,-0.015,-0.015,0.0,0.015,-0.01,-0.01,0.034,0.078,0.024,-0.039,-0.063,-0.054
1.002,-0.02,-0.015,0.005,0.02,-0.015,-0.005,0.039,0.083,0.034,-0.029,-0.059,-0.049
1.004,-0.02,-0.015,0.005,0.02,-0.015,-0.005,0.039,0.078,0.034,-0.029,-0.059,-0.049
1.006,-0.039,-0.024,0.015,0.034,-0.029,-0.005,0.039,0.068,0.034,-0.029,-0.054,-0.049
1.008,-0.039,-0.024,0.015,0.034,-0.029,-0.005,0.039,0.068,0.039,-0.034,-0.054,-0.049
1.01,-0.029,-0.015,0.015,0.024,-0.024,0.0,0.049,0.073,0.044,-0.024,-0.039,-0.039
1.012,-0.01,0.005,0.015,0.005,-0.015,0.01,0.049,0.073,0.044,-0.015,-0.039,-0.039
1.014,-0.02,-0.01,0.01,0.015,-0.015,0.0,0.044,0.073,0.044,-0.015,-0.039,-0.034
1.016,-0.054,-0.039,0.015,0.049,-0.034,-0.015,0.029,0.049,0.029,-0.034,-0.059,-0.059
1.018,-0.034,-0.024,0.01,0.029,-0.024,-0.01,0.029,0.054,0.024,-0.024,-0.049,-0.049
1.02,-0.01,0.0,0.01,0.005,-0.01,0.005,0.029,0.059,0.024,-0.029,-0.049,-0.044
1.022,-0.01,-0.01,0.0,0.01,-0.005,-0.005,0.024,0.049,0.024,-0.034,-0.054,-0.044
1.024,-0.01,-0.005,0.005,0.01,-0.01,0.0,0.034,0.049,0.029,-0.024,-0.054,-0.039
1.026,-0.015,-0.01,0.005,0.015,-0.01,-0.005,0.034,0.049,0.029,-0.024,-0.049,-0.044
1.028,-0.024,-0.01,0.015,0.02,-0.02,0.0,0.029,0.034,0.024,-0.029,-0.049,-0.034
1.03,-0.024,-0.01,0.015,0.02,-0.02,0.0,0.034,0.044,0.024,-0.029,-0.044,-0.024
1.032,-0.02,-0.015,0.005,0.02,-0.015,-0.005,0.024,0.034,0.02,-0.034,-0.049,-0.034
1.034,-0.01,-0.02,-0.01,0.015,0.0,-0.015,0.029,0.039,0.02,-0.029,-0.049,-0.029
1.036,-0.034,-0.024,0.01,0.029,-0.024,-0.01,0.024,0.034,0.01,-0.034,-0.044,-0.029
1.038,-0.039,-0.034,0.005,0.039,-0.024,-0.015,0.02,0.024,-0.005,-0.039,-0.044,-0.039
1.04,-0.049,-0.029,0.02,0.039,-0.034,-0.005,0.015,0.029,0.0,-0.044,-0.049,-0.039
1.042,-0.02,-0.02,0.0,0.02,-0.01,-0.01,0.01,0.02,-0.01,-0.049,-0.059,-0.049
1.044,-0.024,-0.01,0.015,0.02,-0.02,0.0,0.015,0.015,-0.01,-0.049,-0.054,-0.049
1.046,-0.034,-0.01,0.024,0.024,-0.029,0.005,0.024,0.02,0.0,-0.044,-0.049,-0.044
1.048,-0.044,-0.015,0.029,0.029,-0.039,0.005,0.01,0.0,-0.015,-0.049,-0.063,-0.049
1.05,-0.034,-0.015,0.02,0.024,-0.029,0.0,0.015,0.005,-0.01,-0.039,-0.054,-0.049
1.052,-0.02,-0.005,0.015,0.015,-0.02,0.005,0.015,0.005,-0.01,-0.039,-0.054,-0.049
1.054,-0.01,0.0,0.01,0.005,-0.01,0.005,0.015,0.005,-0.01,-0.039,-0.049,-0.039
1.056,-0.034,-0.015,0.02,0.024,-0.029,0.0,0.01,0.0,-0.01,-0.044,-0.054,-0.044
1.058,-0.039,-0.015,0.024,0.029,-0.034,0.005,0.01,-0.005,-0.015,-0.049,-0.054,-0.044
1.06,-0.02,0.01,0.029,0.005,-0.024,0.02,0.015,0.0,-0.015,-0.049,-0.044,-0.039
1.062,-0.029,-0.005,0.024,0.02,-0.029,0.01,0.01,-0.005,-0.015,-0.049,-0.049,-0.039
1.064,-0.049,-0.02,0.029,0.034,-0.039,0.005,0.0,-0.02,-0.029,-0.063,-0.063,-0.054
1.066,-0.054,-0.029,0.024,0.044,-0.039,-0.005,0.005,-0.02,-0.029,-0.063,-0.063,-0.054
1.068,-0.044,-0.015,0.029,0.029,-0.039,0.005,0.0,-0.029,-0.029,-0.059,-0.063,-0.049
1.07,-0.049,-0.024,0.024,0.039,-0.039,0.0,0.015,-0.02,-0.024,-0.049,-0.059,-0.039
1.072,-0.034,-0.005,0.029,0.02,-0.034,0.01,0.02,-0.015,-0.02,-0.054,-0.054,-0.034
1.074,-0.024,-0.005,0.02,0.015,-0.024,0.005,0.015,-0.02,-0.034,-0.054,-0.054,-0.034
1.076,-0.029,-0.01,0.02,0.02,-0.024,0.005,0.015,-0.02,-0.029,-0.059,-0.059,-0.044
1.078,-0.034,-0.015,0.02,0.024,-0.029,0.0,0.02,-0.015,-0.024,-0.054,-0.054,-0.044
1.08,-0.034,-0.015,0.02,0.024,-0.029,0.0,0.015,-0.015,-0.029,-0.059,-0.059,-0.044
1.082,-0.034,-0.015,0.02,0.024,-0.029,0.0,0.02,-0.015,-0.029,-0.059,-0.059,-0.044
1.084,-0.034,-0.015,0.02,0.024,-0.029,0.0,0.015,-0.02,-0.034,-0.063,-0.054,-0.049
1.086,-0.029,-0.02,0.01,0.024,-0.02,-0.005,0.01,-0.034,-0.039,-0.059,-0.049,-0.044
1.088,-0.02,-0.015,0.005,0.02,-0.015,-0.005,0.01,-0.034,-0.044,-0.059,-0.049,-0.039
1.09,-0.039,-0.034,0.005,0.039,-0.024,-0.015,0.01,-0.039,-0.044,-0.059,-0.049,-0.034
1.092,-0.034,-0.02,0.015,0.029,-0.024,-0.005,0.01,-0.039,-0.039,-0.059,-0.044,-0.029
1.094,-0.029,-0.01,0.02,0.02,-0.024,0.005,0.01,-0.034,-0.034,-0.049,-0.039,-0.029
1.096,-0.024,-0.005,0.02,0.015,-0.024,0.005,0.005,-0.029,-0.034,-0.054,-0.044,-0.034
1.098,-0.024,-0.005,0.02,0.015,-0.024,0.005,0.01,-0.024,-0.029,-0.049,-0.039,-0.034
1.1,-0.029,-0.015,0.015,0.024,-0.024,0.0,0.01,-0.024,-0.029,-0.054,-0.044,-0.034
1.102,-0.029,-0.024,0.005,0.029,-0.02,-0.01,0.005,-0.029,-0.039,-0.059,-0.049,-0.039
1.104,-0.034,-0.029,0.005,0.034,-0.02,-0.015,0.015,-0.024,-0.029,-0.049,-0.044,-0.034
1.106,-0.044,-0.039,0.005,0.044,-0.024,-0.02,0.005,-0.039,-0.039,-0.059,-0.054,-0.044
1.108,-0.039,-0.024,0.015,0.034,-0.029,-0.005,0.01,-0.039,-0.044,-0.054,-0.049,-0.039
1.11,-0.02,-0.015,0.005,0.02,-0.015,-0.005,0.01,-0.044,-0.044,-0.054,-0.049,-0.039
1.112,-0.034,-0.02,0.015,0.029,-0.024,-0.005,0.005,-0.049,-0.054,-0.063,-0.054,-0.044
1.114,-0.044,-0.02,0.024,0.034,-0.034,0.0,0.005,-0.049,-0.059,-0.063,-0.054,-0.044
1.116,-0.054,-0.02,0.034,0.039,-0.044,0.005,0.005,-0.049,-0.054,-0.073,-0.054,-0.039
1.118,-0.039,-0.005,0.034,0.024,-0.039,0.015,-0.01,-0.054,-0.063,-0.078,-0.059,-0.049
1.12,-0.029,0.0,0.029,0.015,-0.029,0.015,-0.01,-0.039,-0.049,-0.068,-0.054,-0.049
1.122,-0.029,-0.005,0.024,0.02,-0.029,0.01,-0.01,-0.039,-0.044,-0.059,-0.059,-0.049
1.124,-0.029,-0.005,0.024,0.02,-0.029,0.01,-0.005,-0.039,-0.044,-0.059,-0.059,-0.044
1.126,-0.034,-0.005,0.029,0.02,-0.034,0.01,-0.005,-0.049,-0.044,-0.059,-0.054,-0.049
1.128,-0.029,0.0,0.029,0.015,-0.029,0.015,-0.01,-0.054,-0.049,-0.063,-0.054,-0.049
1.13,-0.029,0.0,0.029,0.015,-0.029,0.015,0.0,-0.049,-0.034,-0.054,-0.049,-0.039
1.132,-0.044,-0.01,0.034,0.029,-0.039,0.01,0.0,-0.049,-0.034,-0.049,-0.044,-0.039
1.134,-0.039,-0.02,0.02,0.029,-0.029,0.0,-0.015,-0.044,-0.039,-0.054,-0.049,-0.044
1.136,-0.029,-0.01,0.02,0.02,-0.024,0.005,-0.01,-0.049,-0.044,-0.059,-0.059,-0.044
1.138,-0.049,-0.02,0.029,0.034,-0.039,0.005,-0.005,-0.054,-0.054,-0.063,-0.063,-0.044
1.14,-0.054,-0.01,0.044,0.034,-0.049,0.015,0.0,-0.044,-0.049,-0.059,-0.054,-0.039
1.142,-0.063,-0.02,0.044,0.044,-0.054,0.01,0.005,-0.039,-0.049,-0.054,-0.049,-0.039
1.144,-0.039,-0.01,0.029,0.024,-0.034,0.01,-0.005,-0.049,-0.049,-0.054,-0.054,-0.039
1.146,-0.015,0.015,0.029,0.0,-0.024,0.02,0.01,-0.034,-0.039,-0.044,-0.034,-0.02
1.148,-0.01,0.02,0.029,-0.005,-0.02,0.024,0.005,-0.044,-0.039,-0.049,-0.034,-0.024
1.15,-0.01,0.02,0.029,-0.005,-0.02,0.024,0.0,-0.054,-0.044,-0.054,-0.044,-0.029
1.152,-0.039,0.0,0.039,0.02,-0.039,0.02,0.0,-0.054,-0.049,-0.054,-0.049,-0.034
1.154,-0.054,-0.015,0.039,0.034,-0.049,0.01,0.0,-0.054,-0.054,-0.059,-0.044,-0.039
1.156,-0.044,-0.005,0.039,0.024,-0.044,0.015,-0.005,-0.059,-0.059,-0.054,-0.049,-0.044
1.158,-0.044,-0.01,0.034,0.029,-0.039,0.01,-0.005,-0.059,-0.054,-0.054,-0.044,-0.044
1.16,-0.044,-0.015,0.029,0.029,-0.039,0.005,-0.005,-0.059,-0.059,-0.063,-0.054,-0.049
1.162,-0.034,0.0,0.034,0.02,-0.034,0.015,-0.01,-0.049,-0.049,-0.054,-0.049,-0.039
1.164,-0.044,-0.005,0.039,0.024,-0.044,0.015,-0.015,-0.054,-0.049,-0.054,-0.049,-0.039
1.166,-0.059,-0.02,0.039,0.039,-0.049,0.01,-0.005,-0.049,-0.039,-0.044,-0.044,-0.039
1.168,-0.063,-0.015,0.049,0.039,-0.059,0.015,0.0,-0.049,-0.034,-0.039,-0.039,-0.029
1.17,-0.034,0.005,0.039,0.015,-0.039,0.02,-0.005,-0.049,-0.034,-0.039,-0.034,-0.024
1.172,-0.015,0.02,0.034,0.0,-0.024,0.024,0.005,-0.049,-0.029,-0.029,-0.034,-0.02
1.174,-0.029,0.0,0.029,0.015,-0.029,0.015,-0.01,-0.049,-0.039,-0.034,-0.034,-0.024
1.176,-0.024,0.005,0.029,0.01,-0.029,0.015,-0.01,-0.054,-0.044,-0.039,-0.039,-0.024
1.178,-0.02,0.0,0.02,0.01,-0.02,0.01,-0.005,-0.054,-0.039,-0.034,-0.029,-0.024
1.18,-0.029,0.0,0.029,0.015,-0.029,0.015,-0.01,-0.054,-0.049,-0.044,-0.039,-0.034
1.182,-0.034,-0.01,0.024,0.024,-0.029,0.005,-0.01,-0.059,-0.049,-0.044,-0.039,-0.034
1.184,-0.029,0.0,0.029,0.015,-0.029,0.015,-0.015,-0.059,-0.049,-0.044,-0.034,-0.034
1.186,-0.039,-0.01,0.029,0.024,-0.034,0.01,-0.015,-0.063,-0.054,-0.049,-0.044,-0.039
1.188,-0.039,-0.01,0.029,0.024,-0.034,0.01,-0.015,-0.059,-0.044,-0.034,-0.044,-0.029
1.19,-0.024,0.0,0.024,0.015,-0.024,0.01,-0.005,-0.044,-0.029,-0.02,-0.024,-0.02
1.192,-0.044,-0.005,0.039,0.024,-0.044,0.015,-0.01,-0.049,-0.034,-0.02,-0.029,-0.02
1.194,-0.054,-0.02,0.034,0.039,-0.044,0.005,0.0,-0.049,-0.029,-0.015,-0.029,-0.015
1.196,-0.068,-0.034,0.034,0.054,-0.054,0.0,-0.005,-0.054,-0.039,-0.029,-0.029,-0.02
1.198,-0.044,-0.029,0.015,0.039,-0.029,-0.01,-0.015,-0.059,-0.049,-0.034,-0.034,-0.02
1.2,-0.034,-0.015,0.02,0.024,-0.029,0.0,-0.02,-0.059,-0.054,-0.044,-0.029,-0.024
1.202,-0.029,-0.005,0.024,0.02,-0.029,0.01,-0.015,-0.054,-0.044,-0.034,-0.024,-0.024
1.204,-0.044,-0.005,0.039,0.024,-0.044,0.015,-0.015,-0.059,-0.049,-0.029,-0.029,-0.024
1.206,-0.039,0.005,0.044,0.02,-0.044,0.024,-0.02,-0.063,-0.054,-0.034,-0.029,-0.02
1.208,-0.039,0.01,0.049,0.015,-0.044,0.029,-0.015,-0.063,-0.049,-0.029,-0.029,-0.02
1.21,-0.029,0.0,0.029,0.015,-0.029,0.015,-0.01,-0.059,-0.039,-0.024,-0.024,-0.015
1.212,-0.034,-0.005,0.029,0.02,-0.034,0.01,-0.02,-0.063,-0.039,-0.029,-0.029,-0.02
1.214,-0.039,-0.01,0.029,0.024,-0.034,0.01,-0.015,-0.054,-0.034,-0.024,-0.024,-0.015
1.216,-0.039,0.0,0.039,0.02,-0.039,0.02,-0.01,-0.054,-0.034,-0.024,-0.024,-0.02
1.218,-0.049,-0.005,0.044,0.029,-0.049,0.02,-0.015,-0.054,-0.039,-0.029,-0.024,-0.024
1.22,-0.039,-0.005,0.034,0.024,-0.039,0.015,-0.015,-0.054,-0.044,-0.034,-0.034,-0.029
1.222,-0.034,0.005,0.039,0.015,-0.039,0.02,-0.02,-0.054,-0.044,-0.029,-0.034,-0.029
1.224,-0.049,0.02,0.068,0.015,-0.059,0.044,-0.015,-0.054,-0.039,-0.024,-0.024,-0.034
1.226,-0.049,0.005,0.054,0.024,-0.054,0.029,-0.02,-0.059,-0.039,-0.029,-0.029,-0.039
1.228,-0.054,-0.005,0.049,0.029,-0.054,0.02,-0.02,-0.063,-0.044,-0.034,-0.034,-0.044
1.23,-0.034,0.015,0.049,0.01,-0.044,0.029,-0.02,-0.049,-0.029,-0.015,-0.02,-0.029
1.232,-0.024,0.024,0.049,0.0,-0.039,0.034,-0.015,-0.044,-0.02,-0.01,-0.015,-0.024
1.234,-0.039,0.01,0.049,0.015,-0.044,0.029,-0.02,-0.044,-0.024,-0.015,-0.024,-0.034
1.236,-0.034,0.02,0.054,0.01,-0.044,0.034,-0.015,-0.039,-0.024,-0.01,-0.02,-0.024
1.238,-0.029,0.01,0.039,0.01,-0.034,0.024,-0.02,-0.044,-0.029,-0.01,-0.024,-0.024
1.24,-0.029,0.01,0.039,0.01,-0.034,0.024,-0.02,-0.054,-0.039,-0.029,-0.029,-0.024
1.242,-0.024,0.005,0.029,0.01,-0.029,0.015,-0.02,-0.059,-0.034,-0.039,-0.029,-0.015
1.244,-0.034,-0.005,0.029,0.02,-0.034,0.01,-0.034,-0.073,-0.054,-0.049,-0.029,-0.02
1.246,-0.034,-0.01,0.024,0.024,-0.029,0.005,-0.024,-0.068,-0.049,-0.039,-0.02,-0.01
1.248,-0.039,0.0,0.039,0.02,-0.039,0.02,-0.024,-0.068,-0.049,-0.044,-0.015,-0.01
1.25,-0.054,-0.01,0.044,0.034,-0.049,0.015,-0.024,-0.068,-0.044,-0.039,-0.024,-0.01
1.252,-0.059,-0.01,0.049,0.034,-0.054,0.02,-0.024,-0.063,-0.049,-0.034,-0.024,-0.01
1.254,-0.044,-0.005,0.039,0.024,-0.044,0.015,-0.02,-0.059,-0.044,-0.029,-0.024,-0.005
1.256,-0.024,0.005,0.029,0.01,-0.029,0.015,-0.02,-0.059,-0.039,-0.039,-0.02,-0.01
1.258,-0.024,0.0,0.024,0.015,-0.024,0.01,-0.015,-0.054,-0.034,-0.029,-0.02,-0.015
1.26,-0.024,0.005,0.029,0.01,-0.029,0.015,-0.015,-0.049,-0.039,-0.034,-0.024,-0.015
1.262,-0.02,0.005,0.024,0.01,-0.024,0.015,-0.015,-0.049,-0.044,-0.029,-0.024,-0.02
1.264,-0.02,0.01,0.029,0.005,-0.024,0.02,-0.01,-0.044,-0.034,-0.029,-0.02,-0.015
1.266,-0.034,-0.005,0.029,0.02,-0.034,0.01,-0.015,-0.054,-0.044,-0.034,-0.029,-0.024
1.268,-0.039,0.0,0.039,0.02,-0.039,0.02,-0.015,-0.054,-0.049,-0.034,-0.029,-0.029
1.27,-0.044,-0.01,0.034,0.029,-0.039,0.01,-0.015,-0.059,-0.044,-0.034,-0.034,-0.029
1.272,-0.034,-0.005,0.029,0.02,-0.034,0.01,-0.02,-0.063,-0.054,-0.044,-0.034,-0.029
1.274,-0.039,-0.01,0.029,0.024,-0.034,0.01,-0.015,-0.059,-0.049,-0.044,-0.034,-0.024
1.276,-0.059,-0.024,0.034,0.044,-0.049,0.005,-0.024,-0.063,-0.059,-0.049,-0.044,-0.034
1.278,-0.059,-0.029,0.029,0.044,-0.044,0.0,-0.02,-0.054,-0.044,-0.034,-0.034,-0.024
1.28,-0.044,-0.005,0.039,0.024,-0.044,0.015,-0.005,-0.039,-0.039,-0.029,-0.024,-0.02
1.282,-0.054,-0.005,0.049,0.029,-0.054,0.02,-0.015,-0.044,-0.044,-0.034,-0.029,-0.024
1.284,-0.024,0.0,0.024,0.015,-0.024,0.01,-0.01,-0.049,-0.039,-0.029,-0.024,-0.02
1.286,-0.024,0.015,0.039,0.005,-0.034,0.024,-0.005,-0.044,-0.034,-0.029,-0.02,-0.01
1.288,-0.024,0.01,0.034,0.01,-0.029,0.02,-0.015,-0.054,-0.044,-0.034,-0.029,-0.02
1.29,-0.039,-0.005,0.034,0.024,-0.039,0.015,-0.02,-0.059,-0.049,-0.039,-0.034,-0.029
1.292,-0.049,-0.015,0.034,0.034,-0.044,0.01,-0.02,-0.068,-0.054,-0.044,-0.039,-0.029
1.294,-0.034,0.0,0.034,0.02,-0.034,0.015,-0.02,-0.059,-0.054,-0.044,-0.034,-0.029
1.296,-0.024,0.005,0.029,0.01,-0.029,0.015,-0.02,-0.054,-0.049,-0.039,-0.034,-0.029
1.298,-0.029,0.005,0.034,0.015,-0.034,0.02,-0.02,-0.049,-0.039,-0.034,-0.02,-0.024
1.3,-0.024,0.01,0.034,0.01,-0.029,0.02,-0.015,-0.044,-0.039,-0.034,-0.024,-0.029
1.302,-0.034,0.01,0.044,0.015,-0.039,0.024,-0.015,-0.039,-0.034,-0.029,-0.02,-0.024
1.304,-0.044,-0.01,0.034,0.029,-0.039,0.01,-0.01,-0.044,-0.034,-0.034,-0.024,-0.029
1.306,-0.044,-0.01,0.034,0.029,-0.039,0.01,-0.01,-0.044,-0.039,-0.034,-0.029,-0.029
1.308,-0.029,0.0,0.029,0.015,-0.029,0.015,-0.015,-0.049,-0.049,-0.044,-0.034,-0.034
1.31,-0.02,0.01,0.029,0.005,-0.024,0.02,-0.01,-0.049,-0.044,-0.034,-0.024,-0.024
1.312,-0.034,0.0,0.034,0.02,-0.034,0.015,-0.015,-0.049,-0.044,-0.034,-0.024,-0.024
1.314,-0.059,-0.024,0.034,0.044,-0.049,0.005,-0.024,-0.054,-0.049,-0.049,-0.029,-0.034
1.316,-0.054,-0.02,0.034,0.039,-0.044,0.005,-0.015,-0.049,-0.044,-0.044,-0.034,-0.034
1.318,-0.039,-0.015,0.024,0.029,-0.034,0.005,-0.005,-0.039,-0.034,-0.034,-0.024,-0.024
1.32,-0.044,-0.015,0.029,0.029,-0.039,0.005,-0.01,-0.044,-0.049,-0.049,-0.034,-0.029
1.322,-0.029,-0.015,0.015,0.024,-0.024,0.0,-0.015,-0.049,-0.054,-0.049,-0.029,-0.029
1.324,-0.024,-0.024,0.0,0.024,-0.015,-0.015,-0.015,-0.049,-0.049,-0.049,-0.034,-0.024
1.326,-0.024,-0.02,0.005,0.024,-0.015,-0.01,-0.005,-0.039,-0.044,-0.039,-0.02,-0.01
1.328,-0.024,-0.01,0.015,0.02,-0.02,0.0,-0.005,-0.039,-0.044,-0.039,-0.024,-0.015
1.33,-0.039,-0.02,0.02,0.029,-0.029,0.0,-0.005,-0.039,-0.039,-0.039,-0.02,-0.01
1.332,-0.034,-0.029,0.005,0.034,-0.02,-0.015,0.0,-0.044,-0.049,-0.049,-0.024,-0.015
1.334,-0.029,-0.029,0.0,0.029,-0.015,-0.015,-0.01,-0.054,-0.059,-0.059,-0.029,-0.024
1.336,-0.029,-0.024,0.005,0.029,-0.02,-0.01,-0.01,-0.054,-0.059,-0.054,-0.024,-0.024
1.338,-0.034,-0.02,0.015,0.029,-0.024,-0.005,-0.005,-0.044,-0.049,-0.044,-0.02,-0.024
1.34,-0.039,-0.01,0.029,0.024,-0.034,0.01,-0.01,-0.054,-0.059,-0.054,-0.039,-0.034
1.342,-0.054,-0.02,0.034,0.039,-0.044,0.005,-0.01,-0.054,-0.054,-0.054,-0.039,-0.034
1.344,-0.049,-0.029,0.02,0.039,-0.034,-0.005,-0.02,-0.059,-0.059,-0.063,-0.044,-0.044
1.346,-0.039,-0.02,0.02,0.029,-0.029,0.0,-0.015,-0.054,-0.054,-0.054,-0.049,-0.044
1.348,-0.039,0.005,0.044,0.02,-0.044,0.024,-0.005,-0.049,-0.054,-0.049,-0.044,-0.034
1.35,-0.044,0.0,0.044,0.024,-0.044,0.02,-0.01,-0.049,-0.049,-0.044,-0.034,-0.034
1.352,-0.034,0.0,0.034,0.02,-0.034,0.015,-0.005,-0.044,-0.049,-0.039,-0.029,-0.029
1.354,-0.039,0.005,0.044,0.02,-0.044,0.024,0.0,-0.039,-0.039,-0.034,-0.024,-0.024
1.356,-0.049,-0.01,0.039,0.029,-0.044,0.015,0.0,-0.039,-0.039,-0.034,-0.029,-0.029
1.358,-0.039,-0.015,0.024,0.029,-0.034,0.005,0.0,-0.039,-0.039,-0.034,-0.029,-0.024
1.36,-0.044,-0.024,0.02,0.034,-0.034,-0.005,-0.005,-0.044,-0.049,-0.049,-0.049,-0.034
1.362,-0.039,-0.024,0.015,0.034,-0.029,-0.005,-0.01,-0.054,-0.054,-0.054,-0.044,-0.024
1.364,-0.034,-0.015,0.02,0.024,-0.029,0.0,-0.005,-0.054,-0.059,-0.063,-0.039,-0.02
1.366,-0.039,-0.02,0.02,0.029,-0.029,0.0,-0.005,-0.054,-0.054,-0.068,-0.034,-0.02
1.368,-0.029,-0.01,0.02,0.02,-0.024,0.005,-0.005,-0.049,-0.054,-0.059,-0.029,-0.015
1.37,-0.024,-0.015,0.01,0.02,-0.02,-0.005,-0.005,-0.049,-0.054,-0.054,-0.029,-0.015
1.372,-0.034,-0.02,0.015,0.029,-0.024,-0.005,-0.01,-0.049,-0.059,-0.063,-0.034,-0.024
1.374,-0.039,-0.029,0.01,0.034,-0.024,-0.01,-0.005,-0.044,-0.063,-0.059,-0.039,-0.02
1.376,-0.024,-0.02,0.005,0.024,-0.015,-0.01,0.0,-0.039,-0.054,-0.049,-0.034,-0.015
1.378,-0.015,-0.005,0.01,0.01,-0.015,0.0,-0.01,-0.044,-0.054,-0.054,-0.029,-0.02
1.38,-0.029,-0.005,0.024,0.02,-0.029,0.01,-0.015,-0.049,-0.063,-0.068,-0.044,-0.024
1.382,-0.039,-0.02,0.02,0.029,-0.029,0.0,-0.02,-0.049,-0.059,-0.063,-0.039,-0.024
1.384,-0.034,-0.024,0.01,0.029,-0.024,-0.01,-0.02,-0.049,-0.059,-0.063,-0.039,-0.029
1.386,-0.029,-0.015,0.015,0.024,-0.024,0.0,-0.015,-0.039,-0.049,-0.054,-0.034,-0.029
1.388,-0.039,-0.015,0.024,0.029,-0.034,0.005,-0.015,-0.049,-0.054,-0.059,-0.034,-0.029
1.39,-0.034,-0.015,0.02,0.024,-0.029,0.0,-0.005,-0.049,-0.054,-0.054,-0.034,-0.02
1.392,-0.02,0.0,0.02,0.01,-0.02,0.01,-0.005,-0.044,-0.049,-0.059,-0.034,-0.015
1.394,-0.02,0.0,0.02,0.01,-0.02,0.01,0.01,-0.039,-0.049,-0.054,-0.034,-0.02
1.396,-0.049,-0.02,0.029,0.034,-0.039,0.005,0.005,-0.044,-0.054,-0.063,-0.044,-0.029
1.398,-0.059,-0.034,0.024,0.049,-0.044,-0.005,0.0,-0.054,-0.059,-0.068,-0.044,-0.029
1.4,-0.039,-0.02,0.02,0.029,-0.029,0.0,0.0,-0.054,-0.068,-0.068,-0.049,-0.034
1.402,-0.049,-0.024,0.024,0.039,-0.039,0.0,0.0,-0.044,-0.059,-0.063,-0.044,-0.029
1.404,-0.039,-0.02,0.02,0.029,-0.029,0.0,-0.005,-0.059,-0.063,-0.073,-0.044,-0.029
1.406,-0.029,-0.02,0.01,0.024,-0.02,-0.005,-0.005,-0.049,-0.054,-0.068,-0.044,-0.024
1.408,-0.054,-0.02,0.034,0.039,-0.044,0.005,-0.01,-0.049,-0.059,-0.073,-0.049,-0.029
1.41,-0.063,-0.034,0.029,0.049,-0.049,-0.005,-0.005,-0.054,-0.059,-0.068,-0.049,-0.024
1.412,-0.034,-0.02,0.015,0.029,-0.024,-0.005,0.0,-0.044,-0.059,-0.059,-0.039,-0.015
1.414,-0.034,-0.015,0.02,0.024,-0.029,0.0,0.0,-0.044,-0.054,-0.054,-0.034,-0.015
1.416,-0.039,-0.015,0.024,0.029,-0.034,0.005,0.005,-0.039,-0.054,-0.054,-0.034,-0.01
1.418,-0.029,-0.02,0.01,0.024,-0.02,-0.005,0.005,-0.034,-0.054,-0.059,-0.039,-0.01
1.42,-0.034,-0.034,0.0,0.034,-0.02,-0.02,0.0,-0.049,-0.068,-0.073,-0.049,-0.029
1.422,-0.02,-0.02,0.0,0.02,-0.01,-0.01,0.0,-0.044,-0.063,-0.073,-0.049,-0.024
1.424,-0.02,-0.02,0.0,0.02,-0.01,-0.01,0.005,-0.034,-0.049,-0.063,-0.044,-0.02
1.426,-0.024,-0.02,0.005,0.024,-0.015,-0.01,0.0,-0.039,-0.054,-0.063,-0.049,-0.024
1.428,-0.029,-0.02,0.01,0.024,-0.02,-0.005,0.005,-0.039,-0.054,-0.063,-0.049,-0.024
1.43,-0.049,-0.029,0.02,0.039,-0.034,-0.005,0.0,-0.054,-0.063,-0.068,-0.049,-0.024
1.432,-0.044,-0.029,0.015,0.039,-0.029,-0.01,-0.005,-0.054,-0.068,-0.073,-0.049,-0.029
1.434,-0.034,-0.015,0.02,0.024,-0.029,0.0,-0.005,-0.054,-0.063,-0.073,-0.049,-0.029
1.436,-0.024,-0.015,0.01,0.02,-0.02,-0.005,0.0,-0.049,-0.068,-0.073,-0.054,-0.029
1.438,-0.034,-0.024,0.01,0.029,-0.024,-0.01,0.005,-0.044,-0.063,-0.068,-0.054,-0.034
1.44,-0.034,-0.024,0.01,0.029,-0.024,-0.01,0.005,-0.044,-0.063,-0.073,-0.059,-0.039
1.442,-0.029,-0.039,-0.01,0.034,-0.01,-0.024,0.005,-0.039,-0.059,-0.068,-0.054,-0.039
1.444,-0.034,-0.044,-0.01,0.039,-0.015,-0.029,0.0,-0.044,-0.054,-0.073,-0.049,-0.034
1.446,-0.039,-0.044,-0.005,0.044,-0.02,-0.024,0.005,-0.044,-0.054,-0.068,-0.049,-0.034
1.448,-0.039,-0.034,0.005,0.039,-0.024,-0.015,0.0,-0.044,-0.059,-0.073,-0.054,-0.039
1.45,-0.039,-0.039,0.0,0.039,-0.02,-0.02,0.005,-0.044,-0.049,-0.068,-0.049,-0.034
1.452,-0.039,-0.034,0.005,0.039,-0.024,-0.015,0.005,-0.049,-0.054,-0.068,-0.049,-0.039
1.454,-0.029,-0.029,0.0,0.029,-0.015,-0.015,0.005,-0.039,-0.059,-0.063,-0.054,-0.044
1.456,-0.039,-0.029,0.01,0.034,-0.024,-0.01,0.005,-0.044,-0.063,-0.068,-0.059,-0.044
1.458,-0.039,-0.029,0.01,0.034,-0.024,-0.01,0.0,-0.054,-0.063,-0.078,-0.059,-0.039
1.46,-0.029,-0.029,0.0,0.029,-0.015,-0.015,-0.005,-0.059,-0.078,-0.088,-0.068,-0.044
1.462,-0.005,-0.005,0.0,0.005,-0.005,-0.005,0.005,-0.059,-0.073,-0.083,-0.063,-0.029
1.464,-0.024,-0.024,0.0,0.024,-0.015,-0.015,0.01,-0.054,-0.073,-0.083,-0.054,-0.024
1.466,-0.039,-0.029,0.01,0.034,-0.024,-0.01,0.015,-0.049,-0.059,-0.068,-0.044,-0.024
1.468,-0.034,-0.029,0.005,0.034,-0.02,-0.015,0.01,-0.049,-0.063,-0.073,-0.049,-0.029
1.47,-0.024,-0.034,-0.01,0.029,-0.01,-0.024,0.005,-0.054,-0.063,-0.068,-0.049,-0.029
1.472,-0.044,-0.044,0.0,0.044,-0.024,-0.024,0.005,-0.049,-0.068,-0.078,-0.059,-0.024
1.474,-0.049,-0.054,-0.005,0.054,-0.024,-0.029,0.01,-0.049,-0.068,-0.073,-0.054,-0.02
1.476,-0.054,-0.059,-0.005,0.059,-0.024,-0.034,0.015,-0.044,-0.063,-0.078,-0.044,-0.01
1.478,-0.054,-0.073,-0.02,0.063,-0.02,-0.049,0.005,-0.054,-0.073,-0.083,-0.044,-0.015
1.48,-0.049,-0.068,-0.02,0.059,-0.015,-0.044,0.01,-0.044,-0.068,-0.083,-0.044,-0.015
1.482,-0.039,-0.068,-0.029,0.054,-0.005,-0.049,0.02,-0.044,-0.063,-0.073,-0.039,-0.005
1.484,-0.02,-0.068,-0.049,0.044,0.015,-0.059,0.02,-0.034,-0.049,-0.063,-0.024,0.005
1.486,-0.024,-0.083,-0.059,0.054,0.015,-0.073,0.024,-0.024,-0.039,-0.059,-0.029,0.0
1.488,-0.063,-0.107,-0.044,0.088,-0.01,-0.078,0.02,-0.034,-0.044,-0.068,-0.049,-0.01
1.49,-0.049,-0.093,-0.044,0.073,-0.005,-0.068,0.024,-0.029,-0.039,-0.059,-0.039,0.0
1.492,-0.024,-0.073,-0.049,0.049,0.01,-0.063,0.024,-0.02,-0.034,-0.054,-0.034,0.005
1.494,-0.049,-0.063,-0.015,0.059,-0.02,-0.039,0.024,-0.034,-0.049,-0.063,-0.044,-0.005
1.496,-0.034,-0.02,0.015,0.029,-0.024,-0.005,0.0,-0.054,-0.073,-0.088,-0.059,-0.029
1.498,-0.029,-0.015,0.015,0.024,-0.024,0.0,-0.01,-0.054,-0.083,-0.093,-0.068,-0.034
1.5,-0.044,-0.029,0.015,0.039,-0.029,-0.01,-0.01,-0.059,-0.088,-0.098,-0.063,-0.039
1.502,-0.034,-0.02,0.015,0.029,-0.024,-0.005,-0.01,-0.059,-0.088,-0.098,-0.068,-0.034
1.504,-0.029,-0.005,0.024,0.02,-0.029,0.01,0.0,-0.059,-0.083,-0.093,-0.073,-0.034
1.506,-0.02,0.005,0.024,0.01,-0.024,0.015,0.01,-0.049,-0.073,-0.088,-0.068,-0.024
1.508,-0.024,-0.005,0.02,0.015,-0.024,0.005,0.01,-0.054,-0.073,-0.088,-0.068,-0.024
1.51,-0.034,-0.015,0.02,0.024,-0.029,0.0,0.01,-0.059,-0.068,-0.093,-0.073,-0.024
1.512,-0.02,-0.054,-0.034,0.039,0.005,-0.044,0.02,-0.049,-0.063,-0.083,-0.059,-0.02
1.514,-0.024,-0.088,-0.063,0.059,0.02,-0.078,0.034,-0.029,-0.044,-0.068,-0.044,-0.005
1.516,-0.034,-0.117,-0.083,0.078,0.024,-0.102,0.039,-0.029,-0.049,-0.063,-0.039,-0.005
1.518,-0.034,-0.112,-0.078,0.073,0.02,-0.098,0.034,-0.034,-0.049,-0.073,-0.054,-0.015
1.52,-0.034,-0.107,-0.073,0.073,0.02,-0.093,0.024,-0.044,-0.068,-0.088,-0.059,-0.024
1.522,-0.034,-0.102,-0.068,0.068,0.015,-0.088,0.02,-0.044,-0.059,-0.078,-0.063,-0.015
1.524,-0.054,-0.059,-0.005,0.059,-0.024,-0.034,0.005,-0.059,-0.078,-0.088,-0.068,-0.024
1.526,-0.063,-0.024,0.039,0.044,-0.054,0.005,-0.01,-0.078,-0.093,-0.112,-0.093,-0.044
1.528,-0.063,-0.01,0.054,0.039,-0.059,0.02,-0.01,-0.073,-0.093,-0.112,-0.088,-0.039
1.53,-0.044,-0.02,0.024,0.034,-0.034,0.0,0.01,-0.059,-0.073,-0.093,-0.073,-0.02
1.532,-0.024,-0.02,0.005,0.024,-0.015,-0.01,0.015,-0.049,-0.073,-0.083,-0.059,-0.01
1.534,-0.01,-0.029,-0.02,0.02,0.005,-0.024,0.024,-0.039,-0.059,-0.078,-0.059,-0.005
1.536,-0.015,-0.039,-0.024,0.029,0.005,-0.034,0.024,-0.034,-0.063,-0.083,-0.063,-0.02
1.538,-0.01,-0.034,-0.024,0.024,0.005,-0.029,0.02,-0.039,-0.063,-0.093,-0.059,-0.02
1.54,-0.029,-0.059,-0.029,0.044,0.0,-0.044,0.024,-0.039,-0.073,-0.088,-0.063,-0.02
1.542,-0.044,-0.044,0.0,0.044,-0.024,-0.024,0.02,-0.049,-0.078,-0.107,-0.073,-0.029
1.544,-0.02,0.005,0.024,0.01,-0.024,0.015,0.029,-0.039,-0.068,-0.098,-0.068,-0.034
1.546,-0.029,0.02,0.049,0.005,-0.039,0.034,0.034,-0.039,-0.059,-0.088,-0.063,-0.034
1.548,-0.029,0.015,0.044,0.01,-0.039,0.029,0.049,-0.02,-0.044,-0.068,-0.044,-0.02
1.55,-0.02,0.029,0.049,-0.005,-0.034,0.039,0.059,-0.01,-0.034,-0.059,-0.044,-0.02
1.552,-0.024,0.024,0.049,0.0,-0.039,0.034,0.083,0.005,-0.024,-0.039,-0.029,-0.005
1.554,-0.01,0.029,0.039,-0.01,-0.024,0.034,0.093,0.024,-0.01,-0.029,-0.024,0.005
1.556,0.0,0.02,0.02,-0.01,-0.01,0.02,0.098,0.034,0.0,-0.029,-0.015,0.015
1.558,-0.005,0.005,0.01,0.0,-0.01,0.005,0.102,0.034,0.005,-0.029,-0.02,0.015
1.56,0.01,0.015,0.005,-0.01,0.0,0.01,0.112,0.044,0.015,-0.02,-0.02,0.02
1.562,0.015,0.034,0.02,-0.024,-0.005,0.024,0.112,0.039,0.01,-0.034,-0.029,0.015
1.564,0.015,0.059,0.044,-0.034,-0.015,0.049,0.117,0.049,0.01,-0.029,-0.024,0.02
1.566,0.02,0.034,0.015,-0.024,0.0,0.024,0.117,0.059,0.02,-0.02,-0.02,0.024
1.568,-0.005,-0.02,-0.015,0.015,0.005,-0.02,0.117,0.068,0.034,-0.005,0.0,0.039
1.57,0.0,-0.024,-0.024,0.015,0.01,-0.024,0.107,0.059,0.034,-0.005,-0.005,0.044
1.572,0.005,0.005,0.0,-0.005,0.0,0.0,0.093,0.049,0.02,-0.015,-0.01,0.024
1.574,-0.01,0.029,0.039,-0.01,-0.024,0.034,0.107,0.059,0.029,-0.005,-0.005,0.034
1.576,0.0,-0.015,-0.015,0.01,0.005,-0.015,0.137,0.083,0.054,0.015,0.015,0.054
1.578,0.01,0.02,0.01,-0.015,0.0,0.015,0.127,0.078,0.044,0.005,0.005,0.039
1.58,0.01,0.063,0.054,-0.034,-0.024,0.059,0.117,0.073,0.029,0.0,-0.005,0.024
1.582,0.029,0.078,0.049,-0.054,-0.01,0.063,0.107,0.078,0.044,-0.005,0.0,0.039
1.584,0.02,0.059,0.039,-0.039,-0.01,0.049,0.093,0.068,0.039,-0.01,0.0,0.034
1.586,0.02,0.059,0.039,-0.039,-0.01,0.049,0.073,0.054,0.024,-0.01,-0.005,0.034
1.588,0.015,0.049,0.034,-0.029,-0.01,0.039,0.054,0.039,0.015,-0.024,-0.01,0.039
1.59,0.02,0.059,0.039,-0.039,-0.01,0.049,0.049,0.034,0.015,-0.024,-0.01,0.039
1.592,0.01,0.063,0.054,-0.034,-0.024,0.059,0.034,0.024,0.0,-0.029,-0.015,0.039
1.594,0.0,0.068,0.068,-0.034,-0.034,0.068,0.015,0.005,-0.015,-0.039,-0.024,0.024
1.596,0.0,0.068,0.068,-0.034,-0.034,0.068,0.0,-0.015,-0.029,-0.049,-0.029,0.02
1.598,-0.005,0.063,0.068,-0.029,-0.039,0.063,-0.01,-0.029,-0.039,-0.059,-0.039,0.015
1.6,0.0,0.054,0.054,-0.024,-0.029,0.054,-0.01,-0.024,-0.029,-0.059,-0.029,0.02
1.602,0.029,0.068,0.039,-0.049,-0.005,0.054,-0.01,-0.024,-0.029,-0.049,-0.024,0.029
1.604,0.044,0.073,0.029,-0.059,0.005,0.049,-0.015,-0.029,-0.029,-0.054,-0.024,0.034
1.606,0.01,0.049,0.039,-0.029,-0.015,0.044,-0.005,-0.034,-0.034,-0.068,-0.034,0.029
1.608,-0.02,0.029,0.049,-0.005,-0.034,0.039,-0.005,-0.049,-0.054,-0.078,-0.029,0.034
1.61,-0.015,0.01,0.024,0.005,-0.02,0.015,-0.015,-0.063,-0.063,-0.093,-0.039,0.024
1.612,0.015,0.024,0.01,-0.02,0.0,0.015,-0.015,-0.063,-0.073,-0.088,-0.044,0.029
1.614,0.024,0.034,0.01,-0.029,0.005,0.02,-0.005,-0.059,-0.068,-0.093,-0.049,0.029
1.616,0.005,0.005,0.0,-0.005,0.0,0.0,-0.015,-0.073,-0.083,-0.102,-0.059,0.005
1.618,-0.01,-0.02,-0.01,0.015,0.0,-0.015,-0.01,-0.068,-0.078,-0.102,-0.059,0.0
1.62,0.0,-0.01,-0.01,0.005,0.005,-0.01,-0.015,-0.068,-0.088,-0.107,-0.063,-0.005
1.622,0.005,-0.02,-0.024,0.01,0.015,-0.024,-0.01,-0.063,-0.078,-0.093,-0.054,0.005
1.624,0.015,-0.034,-0.049,0.01,0.029,-0.044,0.005,-0.049,-0.068,-0.093,-0.054,0.005
1.626,0.015,-0.078,-0.093,0.034,0.054,-0.088,0.029,-0.029,-0.044,-0.073,-0.034,0.015
1.628,0.0,-0.156,-0.156,0.078,0.078,-0.156,0.054,-0.01,-0.029,-0.054,-0.024,0.039
1.63,0.005,-0.132,-0.137,0.063,0.068,-0.137,0.039,-0.024,-0.039,-0.068,-0.034,0.024
1.632,0.024,-0.049,-0.073,0.015,0.049,-0.063,0.02,-0.039,-0.054,-0.078,-0.044,0.015
1.634,0.02,-0.024,-0.044,0.005,0.029,-0.034,0.029,-0.029,-0.039,-0.063,-0.029,0.029
1.636,0.015,-0.024,-0.039,0.005,0.024,-0.034,0.02,-0.029,-0.044,-0.068,-0.024,0.034
1.638,0.005,0.024,0.02,-0.015,-0.01,0.02,-0.005,-0.049,-0.063,-0.093,-0.044,0.01
1.64,-0.005,0.044,0.049,-0.02,-0.029,0.044,-0.005,-0.049,-0.073,-0.098,-0.044,0.0
1.642,0.0,0.02,0.02,-0.01,-0.01,0.02,0.0,-0.049,-0.073,-0.107,-0.054,-0.005
1.644,0.01,0.005,-0.005,-0.005,0.005,0.0,0.015,-0.054,-0.068,-0.107,-0.063,-0.015
1.646,-0.015,-0.02,-0.005,0.02,-0.005,-0.015,0.024,-0.044,-0.068,-0.107,-0.073,-0.024
1.648,-0.029,-0.039,-0.01,0.034,-0.01,-0.024,0.02,-0.068,-0.093,-0.132,-0.102,-0.044
1.65,-0.029,-0.049,-0.02,0.039,-0.005,-0.034,0.024,-0.073,-0.098,-0.137,-0.107,-0.049
1.652,-0.039,-0.059,-0.02,0.049,-0.01,-0.039,0.024,-0.073,-0.107,-0.142,-0.117,-0.059
1.654,-0.044,-0.054,-0.01,0.049,-0.02,-0.034,0.029,-0.073,-0.102,-0.137,-0.112,-0.054
1.656,-0.054,-0.068,-0.015,0.063,-0.02,-0.044,0.034,-0.073,-0.098,-0.137,-0.107,-0.049
1.658,-0.049,-0.078,-0.029,0.063,-0.01,-0.054,0.02,-0.088,-0.117,-0.151,-0.127,-0.054
1.66,-0.034,-0.068,-0.034,0.054,0.0,-0.054,0.01,-0.098,-0.117,-0.156,-0.122,-0.049
1.662,-0.054,-0.078,-0.024,0.068,-0.015,-0.054,0.02,-0.093,-0.117,-0.156,-0.117,-0.044
1.664,-0.044,-0.083,-0.039,0.063,-0.005,-0.063,0.015,-0.102,-0.132,-0.171,-0.132,-0.059
1.666,-0.049,-0.059,-0.01,0.054,-0.02,-0.034,0.01,-0.107,-0.142,-0.176,-0.146,-0.068
1.668,-0.068,-0.063,0.005,0.068,-0.039,-0.029,0.01,-0.107,-0.142,-0.176,-0.146,-0.068
1.67,-0.068,-0.068,0.0,0.068,-0.034,-0.034,0.01,-0.098,-0.122,-0.161,-0.137,-0.054
1.672,-0.039,-0.063,-0.024,0.054,-0.01,-0.044,0.015,-0.098,-0.127,-0.166,-0.132,-0.059
1.674,-0.044,-0.054,-0.01,0.049,-0.02,-0.034,0.015,-0.098,-0.127,-0.166,-0.132,-0.059
1.676,-0.039,-0.044,-0.005,0.044,-0.02,-0.024,0.029,-0.098,-0.122,-0.161,-0.127,-0.059
1.678,-0.054,-0.054,0.0,0.054,-0.029,-0.029,0.02,-0.107,-0.137,-0.171,-0.137,-0.068
1.68,-0.063,-0.054,0.01,0.059,-0.039,-0.024,0.015,-0.107,-0.137,-0.176,-0.137,-0.078
1.682,-0.068,-0.059,0.01,0.063,-0.039,-0.024,0.024,-0.102,-0.137,-0.171,-0.142,-0.083
1.684,-0.059,-0.068,-0.01,0.063,-0.024,-0.039,0.02,-0.102,-0.137,-0.171,-0.146,-0.083
1.686,-0.049,-0.063,-0.015,0.059,-0.02,-0.039,0.015,-0.107,-0.137,-0.181,-0.156,-0.093
1.688,-0.034,-0.044,-0.01,0.039,-0.015,-0.029,0.015,-0.102,-0.132,-0.181,-0.151,-0.083
1.69,-0.044,-0.044,0.0,0.044,-0.024,-0.024,0.024,-0.102,-0.132,-0.176,-0.151,-0.073
1.692,-0.054,-0.049,0.005,0.054,-0.029,-0.024,0.02,-0.102,-0.127,-0.176,-0.146,-0.068
1.694,-0.054,-0.049,0.005,0.054,-0.029,-0.024,0.015,-0.098,-0.132,-0.171,-0.142,-0.068
1.696,-0.054,-0.044,0.01,0.049,-0.034,-0.02,0.015,-0.098,-0.127,-0.171,-0.142,-0.068
1.698,-0.039,-0.049,-0.01,0.044,-0.015,-0.029,0.029,-0.083,-0.107,-0.156,-0.127,-0.049
1.7,-0.034,-0.054,-0.02,0.044,-0.01,-0.039,0.024,-0.083,-0.112,-0.166,-0.132,-0.054
1.702,-0.024,-0.049,-0.024,0.039,0.0,-0.039,0.034,-0.073,-0.122,-0.176,-0.142,-0.059
1.704,-0.02,-0.063,-0.044,0.044,0.01,-0.054,0.039,-0.068,-0.117,-0.181,-0.151,-0.078
1.706,-0.049,-0.093,-0.044,0.073,-0.005,-0.068,0.044,-0.068,-0.127,-0.195,-0.176,-0.098
1.708,-0.059,-0.102,-0.044,0.083,-0.01,-0.073,0.068,-0.054,-0.122,-0.205,-0.185,-0.112
1.71,-0.088,-0.132,-0.044,0.112,-0.024,-0.088,0.102,-0.039,-0.137,-0.239,-0.224,-0.146
1.712,-0.107,-0.166,-0.059,0.137,-0.024,-0.112,0.132,-0.015,-0.156,-0.293,-0.288,-0.19
1.714,-0.093,-0.156,-0.063,0.127,-0.015,-0.112,0.176,0.015,-0.156,-0.332,-0.342,-0.229
1.716,-0.107,-0.171,-0.063,0.142,-0.024,-0.117,0.205,0.034,-0.151,-0.361,-0.386,-0.264
1.718,-0.127,-0.166,-0.039,0.146,-0.044,-0.102,0.244,0.078,-0.137,-0.381,-0.415,-0.288
1.72,-0.117,-0.132,-0.015,0.127,-0.054,-0.073,0.273,0.132,-0.122,-0.4,-0.444,-0.307
1.722,-0.112,-0.107,0.005,0.112,-0.059,-0.054,0.307,0.22,-0.073,-0.39,-0.454,-0.312
1.724,-0.117,-0.068,0.049,0.093,-0.083,-0.01,0.346,0.381,0.024,-0.351,-0.444,-0.303
1.726,-0.117,-0.015,0.102,0.068,-0.112,0.044,0.376,0.488,0.098,-0.337,-0.434,-0.278
1.728,-0.088,0.063,0.151,0.015,-0.122,0.107,0.381,0.508,0.142,-0.317,-0.4,-0.229
1.73,-0.044,0.156,0.2,-0.054,-0.122,0.176,0.332,0.468,0.2,-0.234,-0.278,-0.122
1.732,-0.01,0.244,0.254,-0.117,-0.132,0.249,0.249,0.395,0.268,-0.098,-0.107,0.01
1.734,0.063,0.381,0.317,-0.22,-0.127,0.346,0.117,0.322,0.376,0.112,0.117,0.195
1.736,0.142,0.512,0.371,-0.327,-0.117,0.439,-0.034,0.22,0.527,0.405,0.425,0.429
1.738,0.229,0.649,0.42,-0.439,-0.098,0.532,-0.215,0.093,0.688,0.776,0.795,0.693
1.74,0.346,0.795,0.449,-0.571,-0.054,0.62,-0.386,-0.029,0.869,1.171,1.181,0.966
1.742,0.4,0.913,0.512,-0.654,-0.059,0.712,-0.566,-0.156,1.049,1.615,1.596,1.24
1.744,0.473,1.015,0.542,-0.742,-0.034,0.776,-0.742,-0.361,1.171,2.03,1.967,1.479
1.746,0.542,1.108,0.566,-0.825,-0.015,0.834,-0.913,-0.522,1.303,2.44,2.313,1.713
1.748,0.556,1.161,0.605,-0.859,-0.024,0.883,-1.054,-0.659,1.41,2.786,2.591,1.893
1.75,0.59,1.083,0.493,-0.834,0.049,0.786,-1.118,-0.644,1.581,3.128,2.801,1.962
1.752,0.61,0.888,0.278,-0.747,0.166,0.581,-1.157,-0.698,1.542,3.172,2.811,1.893
1.754,0.556,0.664,0.107,-0.61,0.224,0.386,-1.118,-0.786,1.332,2.972,2.66,1.752
1.756,0.522,0.488,-0.034,-0.503,0.278,0.224,-1.039,-0.81,1.166,2.801,2.484,1.606
1.758,0.449,0.327,-0.122,-0.386,0.283,0.102,-0.971,-0.844,0.952,2.591,2.274,1.454
1.76,0.39,0.229,-0.161,-0.307,0.273,0.034,-0.913,-1.01,0.537,2.172,1.991,1.288
1.762,0.351,0.137,-0.215,-0.244,0.283,-0.039,-0.844,-1.171,-0.039,1.498,1.61,1.078
1.764,0.249,0.015,-0.234,-0.132,0.239,-0.112,-0.717,-1.235,-0.556,0.708,1.137,0.82
1.766,0.151,-0.059,-0.21,-0.044,0.181,-0.137,-0.576,-1.181,-0.82,0.093,0.649,0.522
1.768,0.088,-0.112,-0.2,0.015,0.142,-0.156,-0.449,-1.069,-0.869,-0.244,0.283,0.307
1.77,0.034,-0.151,-0.185,0.059,0.107,-0.171,-0.366,-0.981,-0.864,-0.425,0.02,0.146
1.772,0.005,-0.171,-0.176,0.083,0.088,-0.176,-0.342,-0.908,-0.839,-0.512,-0.166,0.015
1.774,-0.024,-0.171,-0.146,0.098,0.059,-0.161,-0.317,-0.834,-0.786,-0.522,-0.249,-0.068
1.776,-0.015,-0.176,-0.161,0.098,0.073,-0.171,-0.273,-0.722,-0.683,-0.444,-0.229,-0.083
1.778,-0.015,-0.161,-0.146,0.088,0.063,-0.156,-0.22,-0.6,-0.581,-0.366,-0.185,-0.078
1.78,-0.034,-0.151,-0.117,0.093,0.039,-0.137,-0.185,-0.522,-0.508,-0.317,-0.171,-0.083
1.782,-0.02,-0.102,-0.083,0.063,0.029,-0.093,-0.156,-0.425,-0.429,-0.264,-0.142,-0.068
1.784,0.005,-0.039,-0.044,0.02,0.024,-0.044,-0.107,-0.332,-0.356,-0.215,-0.122,-0.059
1.786,-0.005,-0.02,-0.015,0.015,0.005,-0.02,-0.073,-0.268,-0.307,-0.185,-0.107,-0.059
1.788,-0.039,-0.039,0.0,0.039,-0.02,-0.02,-0.034,-0.21,-0.264,-0.166,-0.102,-0.044
1.79,-0.063,-0.068,-0.005,0.068,-0.029,-0.039,-0.005,-0.166,-0.224,-0.156,-0.093,-0.044
1.792,-0.044,-0.044,0.0,0.044,-0.024,-0.024,0.01,-0.142,-0.2,-0.151,-0.088,-0.039
1.794,-0.039,-0.024,0.015,0.034,-0.029,-0.005,0.015,-0.127,-0.185,-0.151,-0.088,-0.044
1.796,-0.049,-0.049,0.0,0.049,-0.024,-0.024,0.024,-0.117,-0.181,-0.161,-0.102,-0.044
1.798,-0.054,-0.073,-0.02,0.063,-0.02,-0.049,0.044,-0.088,-0.161,-0.151,-0.093,-0.044
1.8,-0.049,-0.024,0.024,0.039,-0.039,0.0,0.039,-0.093,-0.185,-0.166,-0.117,-0.063
1.802,-0.059,-0.024,0.034,0.044,-0.049,0.005,0.029,-0.088,-0.19,-0.181,-0.132,-0.078
1.804,-0.063,-0.044,0.02,0.054,-0.044,-0.015,0.034,-0.078,-0.19,-0.19,-0.137,-0.083
1.806,-0.049,-0.054,-0.005,0.054,-0.024,-0.029,0.044,-0.059,-0.181,-0.185,-0.142,-0.093
1.808,-0.044,-0.044,0.0,0.044,-0.024,-0.024,0.049,-0.044,-0.161,-0.185,-0.151,-0.088
1.81,-0.049,-0.039,0.01,0.044,-0.029,-0.015,0.054,-0.039,-0.146,-0.185,-0.146,-0.088
1.812,-0.063,-0.044,0.02,0.054,-0.044,-0.015,0.059,-0.039,-0.151,-0.19,-0.151,-0.098
1.814,-0.054,-0.034,0.02,0.044,-0.039,-0.01,0.059,-0.044,-0.146,-0.185,-0.151,-0.093
1.816,-0.059,-0.054,0.005,0.059,-0.034,-0.024,0.063,-0.039,-0.137,-0.185,-0.137,-0.083
1.818,-0.059,-0.078,-0.02,0.068,-0.02,-0.049,0.068,-0.029,-0.137,-0.181,-0.127,-0.078
1.82,-0.044,-0.073,-0.029,0.059,-0.01,-0.054,0.078,-0.029,-0.132,-0.171,-0.127,-0.073
1.822,-0.054,-0.073,-0.02,0.063,-0.02,-0.049,0.078,-0.02,-0.127,-0.171,-0.132,-0.083
1.824,-0.063,-0.083,-0.02,0.073,-0.024,-0.054,0.078,-0.02,-0.127,-0.181,-0.142,-0.088
1.826,-0.063,-0.059,0.005,0.063,-0.034,-0.029,0.078,-0.015,-0.132,-0.181,-0.151,-0.098
1.828,-0.054,-0.039,0.015,0.049,-0.034,-0.015,0.063,-0.024,-0.132,-0.19,-0.166,-0.102
1.83,-0.024,-0.024,0.0,0.024,-0.015,-0.015,0.068,-0.015,-0.117,-0.185,-0.156,-0.098
1.832,-0.039,-0.024,0.015,0.034,-0.029,-0.005,0.073,-0.02,-0.117,-0.185,-0.156,-0.093
1.834,-0.063,-0.034,0.029,0.049,-0.049,-0.005,0.068,-0.029,-0.122,-0.185,-0.156,-0.098
1.836,-0.049,-0.044,0.005,0.049,-0.029,-0.02,0.059,-0.034,-0.122,-0.19,-0.156,-0.098
1.838,-0.034,-0.039,-0.005,0.039,-0.015,-0.024,0.073,-0.02,-0.112,-0.176,-0.142,-0.093
1.84,-0.044,-0.049,-0.005,0.049,-0.02,-0.029,0.078,-0.015,-0.112,-0.171,-0.146,-0.093
1.842,-0.068,-0.063,0.005,0.068,-0.039,-0.029,0.078,-0.005,-0.107,-0.161,-0.146,-0.093
1.844,-0.073,-0.078,-0.005,0.078,-0.034,-0.044,0.078,-0.005,-0.112,-0.171,-0.146,-0.098
1.846,-0.029,-0.078,-0.049,0.054,0.01,-0.063,0.102,0.024,-0.093,-0.151,-0.132,-0.078
1.848,-0.039,-0.122,-0.083,0.083,0.02,-0.102,0.107,0.029,-0.078,-0.142,-0.122,-0.073
1.85,-0.059,-0.146,-0.088,0.102,0.015,-0.117,0.117,0.044,-0.063,-0.132,-0.117,-0.063
1.852,-0.049,-0.142,-0.093,0.098,0.02,-0.117,0.117,0.039,-0.063,-0.132,-0.112,-0.063
1.854,-0.063,-0.132,-0.068,0.098,0.0,-0.102,0.117,0.034,-0.063,-0.132,-0.107,-0.059
1.856,-0.068,-0.044,0.024,0.059,-0.049,-0.01,0.088,0.005,-0.083,-0.161,-0.127,-0.073
1.858,-0.054,0.049,0.102,0.005,-0.078,0.073,0.054,-0.024,-0.117,-0.181,-0.156,-0.112
1.86,-0.059,0.039,0.098,0.01,-0.078,0.068,0.049,-0.029,-0.122,-0.185,-0.161,-0.112
1.862,-0.044,-0.034,0.01,0.039,-0.029,-0.015,0.068,0.005,-0.093,-0.156,-0.132,-0.088
1.864,-0.049,-0.044,0.005,0.049,-0.029,-0.02,0.068,0.015,-0.088,-0.151,-0.127,-0.088
1.866,-0.068,-0.044,0.024,0.059,-0.049,-0.01,0.063,0.01,-0.098,-0.156,-0.142,-0.093
1.868,-0.063,-0.039,0.024,0.054,-0.044,-0.01,0.063,0.0,-0.098,-0.166,-0.146,-0.102
1.87,-0.059,-0.049,0.01,0.054,-0.034,-0.02,0.068,0.01,-0.093,-0.161,-0.146,-0.102
1.872,-0.034,-0.034,0.0,0.034,-0.02,-0.02,0.068,0.005,-0.088,-0.161,-0.142,-0.098
1.874,-0.044,-0.044,0.0,0.044,-0.024,-0.024,0.063,0.005,-0.088,-0.161,-0.142,-0.093
1.876,-0.063,-0.054,0.01,0.059,-0.039,-0.024,0.073,0.015,-0.078,-0.161,-0.142,-0.083
1.878,-0.049,-0.039,0.01,0.044,-0.029,-0.015,0.088,0.024,-0.073,-0.146,-0.132,-0.083
1.88,-0.044,-0.049,-0.005,0.049,-0.02,-0.029,0.093,0.029,-0.068,-0.137,-0.122,-0.073
1.882,-0.039,-0.049,-0.01,0.044,-0.015,-0.029,0.078,0.034,-0.068,-0.142,-0.127,-0.078
1.884,-0.034,-0.054,-0.02,0.044,-0.01,-0.039,0.083,0.044,-0.068,-0.137,-0.117,-0.078
1.886,-0.039,-0.054,-0.015,0.049,-0.015,-0.034,0.073,0.034,-0.073,-0.142,-0.122,-0.083
1.888,-0.049,-0.049,0.0,0.049,-0.024,-0.024,0.078,0.039,-0.078,-0.146,-0.127,-0.088
1.89,-0.049,-0.049,0.0,0.049,-0.024,-0.024,0.078,0.044,-0.073,-0.146,-0.132,-0.093
1.892,-0.054,-0.068,-0.015,0.063,-0.02,-0.044,0.078,0.034,-0.078,-0.146,-0.137,-0.098
1.894,-0.049,-0.054,-0.005,0.054,-0.024,-0.029,0.078,0.039,-0.073,-0.142,-0.132,-0.093
1.896,-0.039,-0.049,-0.01,0.044,-0.015,-0.029,0.078,0.044,-0.059,-0.137,-0.127,-0.083
1.898,-0.044,-0.054,-0.01,0.049,-0.02,-0.034,0.093,0.054,-0.049,-0.122,-0.112,-0.073
1.9,-0.044,-0.059,-0.015,0.054,-0.015,-0.039,0.098,0.054,-0.049,-0.117,-0.112,-0.073
1.902,-0.049,-0.083,-0.034,0.068,-0.01,-0.059,0.093,0.063,-0.044,-0.117,-0.107,-0.068
1.904,-0.049,-0.098,-0.049,0.073,0.0,-0.073,0.093,0.068,-0.039,-0.107,-0.098,-0.063
1.906,-0.049,-0.088,-0.039,0.068,-0.005,-0.063,0.098,0.068,-0.044,-0.107,-0.102,-0.063
1.908,-0.049,-0.127,-0.078,0.088,0.015,-0.102,0.098,0.078,-0.034,-0.102,-0.102,-0.063
1.91,-0.044,-0.112,-0.068,0.078,0.01,-0.093,0.093,0.073,-0.029,-0.107,-0.107,-0.068
1.912,-0.059,-0.083,-0.024,0.073,-0.02,-0.054,0.088,0.059,-0.044,-0.112,-0.117,-0.078
1.914,-0.063,-0.088,-0.024,0.078,-0.02,-0.059,0.083,0.049,-0.049,-0.117,-0.122,-0.083
1.916,-0.039,-0.068,-0.029,0.054,-0.005,-0.049,0.088,0.059,-0.034,-0.112,-0.112,-0.078
1.918,-0.034,-0.024,0.01,0.029,-0.024,-0.01,0.078,0.049,-0.049,-0.117,-0.132,-0.093
1.92,-0.034,-0.029,0.005,0.034,-0.02,-0.015,0.083,0.054,-0.044,-0.112,-0.122,-0.083
1.922,-0.039,-0.059,-0.02,0.049,-0.01,-0.039,0.078,0.059,-0.044,-0.117,-0.117,-0.083
1.924,-0.049,-0.054,-0.005,0.054,-0.024,-0.029,0.073,0.059,-0.049,-0.112,-0.117,-0.078
1.926,-0.024,-0.029,-0.005,0.029,-0.01,-0.02,0.078,0.068,-0.044,-0.107,-0.107,-0.078
1.928,0.0,-0.01,-0.01,0.005,0.005,-0.01,0.073,0.073,-0.034,-0.102,-0.112,-0.083
1.93,-0.029,-0.049,-0.02,0.039,-0.005,-0.034,0.063,0.068,-0.044,-0.117,-0.127,-0.107
1.932,-0.049,-0.054,-0.005,0.054,-0.024,-0.029,0.063,0.063,-0.044,-0.112,-0.127,-0.107
1.934,-0.063,-0.063,0.0,0.063,-0.034,-0.034,0.068,0.068,-0.034,-0.102,-0.117,-0.102
1.936,-0.049,-0.059,-0.01,0.054,-0.02,-0.034,0.078,0.078,-0.015,-0.093,-0.107,-0.083
1.938,-0.034,-0.083,-0.049,0.059,0.005,-0.068,0.088,0.088,-0.01,-0.083,-0.093,-0.073
1.94,-0.044,-0.093,-0.049,0.068,0.0,-0.073,0.078,0.088,-0.015,-0.078,-0.093,-0.073
1.942,-0.049,-0.073,-0.024,0.063,-0.015,-0.049,0.073,0.083,-0.02,-0.088,-0.102,-0.073
1.944,-0.034,-0.063,-0.029,0.049,-0.005,-0.049,0.073,0.088,-0.02,-0.088,-0.098,-0.063
1.946,-0.044,-0.054,-0.01,0.049,-0.02,-0.034,0.059,0.078,-0.039,-0.098,-0.107,-0.088
1.948,-0.029,-0.063,-0.034,0.049,0.0,-0.049,0.068,0.093,-0.015,-0.083,-0.102,-0.083
1.95,-0.034,-0.068,-0.034,0.054,0.0,-0.054,0.059,0.093,-0.02,-0.083,-0.107,-0.088
1.952,-0.044,-0.073,-0.029,0.059,-0.01,-0.054,0.054,0.088,-0.02,-0.083,-0.107,-0.093
1.954,-0.044,-0.063,-0.02,0.054,-0.015,-0.044,0.059,0.088,-0.01,-0.078,-0.098,-0.093
1.956,-0.049,-0.059,-0.01,0.054,-0.02,-0.034,0.054,0.088,-0.005,-0.073,-0.098,-0.088
1.958,-0.02,-0.044,-0.024,0.034,0.0,-0.034,0.063,0.102,0.0,-0.059,-0.083,-0.073
1.96,-0.015,-0.088,-0.073,0.054,0.029,-0.083,0.073,0.122,0.015,-0.034,-0.063,-0.059
1.962,-0.034,-0.117,-0.083,0.078,0.024,-0.102,0.078,0.137,0.024,-0.034,-0.054,-0.054
1.964,-0.024,-0.117,-0.093,0.073,0.034,-0.107,0.083,0.146,0.029,-0.02,-0.049,-0.049
1.966,-0.02,-0.083,-0.063,0.054,0.02,-0.073,0.068,0.137,0.024,-0.024,-0.054,-0.059
1.968,-0.005,-0.088,-0.083,0.049,0.039,-0.088,0.068,0.151,0.034,-0.02,-0.049,-0.054
1.97,0.0,-0.098,-0.098,0.049,0.049,-0.098,0.068,0.151,0.039,-0.024,-0.054,-0.059
1.972,-0.01,-0.02,-0.01,0.015,0.0,-0.015,0.039,0.127,0.02,-0.039,-0.078,-0.078
1.974,-0.01,0.029,0.039,-0.01,-0.024,0.034,0.044,0.127,0.024,-0.034,-0.068,-0.073
1.976,-0.01,0.01,0.02,0.0,-0.015,0.015,0.054,0.137,0.044,-0.024,-0.063,-0.063
1.978,-0.015,-0.034,-0.02,0.024,0.0,-0.029,0.063,0.146,0.049,-0.005,-0.044,-0.054
1.98,-0.01,-0.054,-0.044,0.034,0.015,-0.049,0.059,0.156,0.054,0.005,-0.034,-0.049
1.982,-0.01,-0.044,-0.034,0.029,0.01,-0.039,0.044,0.156,0.054,-0.005,-0.034,-0.054
1.984,-0.015,-0.039,-0.024,0.029,0.005,-0.034,0.044,0.166,0.063,0.01,-0.029,-0.044
1.986,-0.015,-0.044,-0.029,0.029,0.005,-0.039,0.044,0.171,0.063,0.01,-0.029,-0.049
1.988,0.0,-0.044,-0.044,0.024,0.02,-0.044,0.039,0.176,0.073,0.015,-0.029,-0.054
1.99,0.01,-0.024,-0.034,0.01,0.02,-0.029,0.049,0.19,0.088,0.029,-0.015,-0.049
1.992,-0.005,-0.039,-0.034,0.024,0.015,-0.039,0.044,0.185,0.088,0.034,-0.015,-0.054
1.994,-0.005,-0.039,-0.034,0.024,0.015,-0.039,0.049,0.195,0.102,0.044,-0.005,-0.044
1.996,0.0,-0.034,-0.034,0.02,0.015,-0.034,0.054,0.21,0.122,0.063,0.005,-0.024
1.998,-0.005,-0.044,-0.039,0.024,0.015,-0.044,0.059,0.215,0.127,0.078,0.02,-0.02
2.0,-0.005,-0.049,-0.044,0.029,0.02,-0.049,0.059,0.215,0.132,0.088,0.024,-0.01
2.002,0.02,-0.039,-0.059,0.01,0.039,-0.049,0.054,0.22,0.142,0.093,0.034,-0.005
2.004,0.02,-0.029,-0.049,0.005,0.034,-0.039,0.049,0.224,0.146,0.102,0.034,0.0
2.006,0.015,-0.034,-0.049,0.01,0.029,-0.044,0.059,0.244,0.161,0.122,0.054,0.01
2.008,-0.005,-0.044,-0.039,0.024,0.015,-0.044,0.044,0.239,0.156,0.117,0.049,0.0
2.01,-0.005,-0.034,-0.029,0.02,0.01,-0.034,0.039,0.239,0.156,0.117,0.054,0.0
2.012,0.029,-0.024,-0.054,0.0,0.039,-0.039,0.044,0.254,0.171,0.142,0.068,0.005
2.014,0.024,-0.024,-0.049,0.0,0.034,-0.039,0.049,0.259,0.19,0.171,0.093,0.02
2.016,0.02,-0.02,-0.039,0.0,0.029,-0.029,0.044,0.273,0.21,0.185,0.107,0.034
2.018,0.015,-0.039,-0.054,0.015,0.034,-0.049,0.044,0.273,0.22,0.2,0.107,0.024
2.02,0.044,-0.029,-0.073,-0.005,0.059,-0.054,0.039,0.283,0.229,0.22,0.122,0.039
2.022,0.049,-0.024,-0.073,-0.01,0.059,-0.049,0.044,0.298,0.239,0.224,0.132,0.054
2.024,0.044,-0.024,-0.068,-0.01,0.054,-0.049,0.034,0.307,0.249,0.244,0.142,0.054
2.026,0.044,-0.029,-0.073,-0.005,0.059,-0.054,0.034,0.317,0.264,0.268,0.151,0.059
2.028,0.049,-0.015,-0.063,-0.015,0.054,-0.039,0.02,0.317,0.268,0.273,0.151,0.054
2.03,0.049,-0.005,-0.054,-0.02,0.049,-0.029,0.024,0.327,0.288,0.293,0.161,0.068
2.032,0.044,0.02,-0.024,-0.029,0.034,-0.005,0.005,0.322,0.288,0.298,0.166,0.059
2.034,0.054,0.029,-0.024,-0.039,0.039,0.0,0.015,0.322,0.298,0.322,0.19,0.078
2.036,0.068,0.024,-0.044,-0.044,0.054,-0.01,0.01,0.332,0.322,0.342,0.215,0.102
2.038,0.068,0.015,-0.054,-0.039,0.059,-0.02,0.024,0.356,0.346,0.381,0.254,0.122
2.04,0.073,0.029,-0.044,-0.049,0.059,-0.01,0.02,0.366,0.361,0.405,0.268,0.127
2.042,0.073,0.024,-0.049,-0.049,0.059,-0.015,0.015,0.376,0.381,0.42,0.278,0.142
2.044,0.098,0.034,-0.063,-0.063,0.078,-0.015,0.005,0.386,0.39,0.444,0.298,0.146
2.046,0.093,0.024,-0.068,-0.059,0.078,-0.024,0.0,0.39,0.405,0.468,0.307,0.151
2.048,0.088,0.029,-0.059,-0.059,0.073,-0.015,-0.01,0.39,0.415,0.473,0.317,0.151
2.05,0.117,0.044,-0.073,-0.078,0.093,-0.015,-0.02,0.386,0.42,0.483,0.322,0.156
2.052,0.122,0.044,-0.078,-0.083,0.098,-0.02,-0.029,0.395,0.439,0.508,0.342,0.166
2.054,0.132,0.063,-0.068,-0.098,0.098,-0.005,-0.024,0.405,0.459,0.542,0.371,0.185
2.056,0.112,0.024,-0.088,-0.068,0.098,-0.034,-0.029,0.415,0.473,0.561,0.39,0.205
2.058,0.132,0.034,-0.098,-0.083,0.112,-0.034,-0.034,0.429,0.483,0.586,0.415,0.215
2.06,0.142,0.029,-0.112,-0.083,0.127,-0.044,-0.049,0.425,0.498,0.605,0.425,0.224
2.062,0.107,0.0,-0.107,-0.054,0.107,-0.054,-0.044,0.434,0.508,0.62,0.439,0.234
2.064,0.112,0.01,-0.102,-0.059,0.107,-0.049,-0.054,0.444,0.527,0.639,0.454,0.239
2.066,0.132,0.01,-0.122,-0.068,0.127,-0.059,-0.049,0.454,0.537,0.659,0.478,0.254
2.068,0.142,0.024,-0.117,-0.083,0.127,-0.049,-0.054,0.449,0.542,0.669,0.483,0.254
2.07,0.142,0.029,-0.112,-0.083,0.127,-0.044,-0.063,0.449,0.547,0.669,0.488,0.254
2.072,0.137,0.054,-0.083,-0.093,0.107,-0.015,-0.078,0.434,0.542,0.683,0.483,0.249
2.074,0.166,0.112,-0.054,-0.137,0.107,0.029,-0.093,0.42,0.537,0.678,0.503,0.249
2.076,0.161,0.107,-0.054,-0.132,0.107,0.024,-0.093,0.429,0.551,0.693,0.517,0.268
2.078,0.156,0.093,-0.063,-0.122,0.107,0.015,-0.088,0.425,0.556,0.708,0.527,0.278
2.08,0.171,0.093,-0.078,-0.132,0.122,0.005,-0.088,0.42,0.556,0.717,0.537,0.288
2.082,0.161,0.088,-0.073,-0.122,0.117,0.005,-0.093,0.42,0.556,0.717,0.547,0.303
2.084,0.166,0.098,-0.068,-0.132,0.117,0.015,-0.093,0.42,0.556,0.727,0.556,0.307
2.086,0.181,0.107,-0.073,-0.142,0.127,0.015,-0.102,0.41,0.556,0.732,0.556,0.312
2.088,0.185,0.102,-0.083,-0.142,0.132,0.01,-0.107,0.41,0.551,0.727,0.566,0.312
2.09,0.185,0.078,-0.107,-0.132,0.146,-0.015,-0.112,0.42,0.566,0.737,0.576,0.317
2.092,0.185,0.078,-0.107,-0.132,0.146,-0.015,-0.107,0.415,0.571,0.752,0.581,0.322
2.094,0.185,0.102,-0.083,-0.142,0.132,0.01,-0.117,0.405,0.566,0.742,0.581,0.327
2.096,0.166,0.102,-0.063,-0.132,0.112,0.02,-0.112,0.405,0.576,0.747,0.586,0.337
2.098,0.176,0.102,-0.073,-0.137,0.122,0.015,-0.112,0.395,0.566,0.742,0.586,0.337
2.1,0.166,0.059,-0.107,-0.112,0.137,-0.024,-0.102,0.4,0.571,0.756,0.6,0.346
2.102,0.176,0.078,-0.098,-0.127,0.137,-0.01,-0.112,0.386,0.556,0.742,0.59,0.346
2.104,0.2,0.098,-0.102,-0.146,0.151,-0.005,-0.107,0.386,0.547,0.732,0.576,0.342
2.106,0.2,0.107,-0.093,-0.151,0.146,0.005,-0.102,0.386,0.551,0.732,0.581,0.346
2.108,0.171,0.083,-0.088,-0.127,0.127,-0.005,-0.107,0.376,0.537,0.712,0.561,0.337
2.11,0.156,0.073,-0.083,-0.112,0.117,-0.005,-0.112,0.361,0.527,0.698,0.547,0.322
2.112,0.166,0.093,-0.073,-0.127,0.117,0.01,-0.107,0.351,0.517,0.693,0.542,0.317
2.114,0.171,0.107,-0.063,-0.137,0.117,0.02,-0.107,0.342,0.512,0.678,0.537,0.317
2.116,0.176,0.112,-0.063,-0.142,0.117,0.024,-0.102,0.322,0.493,0.654,0.512,0.307
2.118,0.156,0.073,-0.083,-0.112,0.117,-0.005,-0.102,0.307,0.478,0.639,0.498,0.298
2.12,0.151,0.068,-0.083,-0.107,0.117,-0.01,-0.102,0.298,0.459,0.62,0.483,0.293
2.122,0.146,0.083,-0.063,-0.112,0.102,0.01,-0.102,0.283,0.439,0.595,0.468,0.283
2.124,0.151,0.088,-0.063,-0.117,0.107,0.01,-0.102,0.278,0.42,0.566,0.449,0.273
2.126,0.171,0.112,-0.059,-0.142,0.112,0.024,-0.098,0.268,0.405,0.547,0.439,0.273
2.128,0.161,0.102,-0.059,-0.132,0.107,0.02,-0.088,0.259,0.39,0.527,0.42,0.264
2.13,0.127,0.049,-0.078,-0.088,0.102,-0.015,-0.078,0.259,0.381,0.512,0.405,0.259
2.132,0.137,0.034,-0.102,-0.083,0.117,-0.034,-0.068,0.244,0.376,0.493,0.39,0.249
2.134,0.142,0.063,-0.078,-0.102,0.107,-0.01,-0.068,0.224,0.351,0.473,0.366,0.234
2.136,0.117,0.054,-0.063,-0.083,0.088,-0.005,-0.063,0.215,0.337,0.454,0.351,0.224
2.138,0.127,0.098,-0.029,-0.112,0.078,0.034,-0.078,0.181,0.303,0.415,0.322,0.205
2.14,0.122,0.117,-0.005,-0.117,0.063,0.054,-0.093,0.151,0.278,0.381,0.293,0.185
2.142,0.102,0.093,-0.01,-0.098,0.054,0.039,-0.093,0.142,0.244,0.351,0.268,0.166
2.144,0.083,0.073,-0.01,-0.078,0.044,0.029,-0.078,0.146,0.239,0.337,0.254,0.166
2.146,0.083,0.059,-0.024,-0.068,0.054,0.015,-0.078,0.137,0.22,0.312,0.244,0.151
2.148,0.078,0.054,-0.024,-0.063,0.049,0.015,-0.073,0.127,0.21,0.298,0.229,0.161
2.15,0.073,0.044,-0.029,-0.059,0.049,0.005,-0.059,0.122,0.195,0.278,0.205,0.146
2.152,0.049,0.02,-0.029,-0.034,0.039,-0.005,-0.054,0.102,0.176,0.254,0.185,0.122
2.154,0.059,0.044,-0.015,-0.049,0.034,0.015,-0.054,0.088,0.161,0.234,0.166,0.112
2.156,0.073,0.063,-0.01,-0.068,0.039,0.024,-0.049,0.088,0.161,0.22,0.161,0.112
2.158,0.059,0.054,-0.005,-0.054,0.029,0.024,-0.034,0.083,0.151,0.21,0.156,0.107
2.16,0.034,0.034,0.0,-0.034,0.015,0.015,-0.034,0.063,0.132,0.195,0.137,0.093
2.162,0.039,0.029,-0.01,-0.034,0.024,0.01,-0.039,0.054,0.107,0.171,0.112,0.078
2.164,0.039,0.02,-0.02,-0.029,0.029,0.0,-0.039,0.054,0.093,0.151,0.102,0.068
2.166,0.029,0.01,-0.02,-0.02,0.024,-0.005,-0.039,0.034,0.078,0.127,0.078,0.044
2.168,0.024,0.01,-0.015,-0.015,0.02,-0.005,-0.034,0.029,0.063,0.107,0.063,0.044
2.17,0.024,0.02,-0.005,-0.02,0.015,0.005,-0.029,0.024,0.054,0.088,0.054,0.034
2.172,0.034,0.034,0.0,-0.034,0.015,0.015,-0.024,0.015,0.054,0.078,0.044,0.02
2.174,0.039,0.049,0.01,-0.044,0.015,0.029,-0.024,0.01,0.044,0.068,0.029,0.015
2.176,0.034,0.029,-0.005,-0.029,0.02,0.01,-0.01,0.015,0.054,0.063,0.029,0.024
2.178,0.029,0.02,-0.01,-0.024,0.02,0.005,-0.005,0.01,0.034,0.049,0.015,0.015
2.18,0.015,0.01,-0.005,-0.01,0.01,0.0,-0.01,-0.005,0.02,0.034,0.0,0.005
2.182,0.02,0.01,-0.01,-0.015,0.015,0.0,-0.005,0.0,0.01,0.015,-0.005,0.005
2.184,0.02,0.005,-0.015,-0.01,0.015,-0.005,0.0,-0.01,-0.005,-0.005,-0.015,0.0
2.186,0.024,0.015,-0.01,-0.02,0.015,0.0,0.0,-0.015,-0.01,-0.015,-0.02,-0.005
2.188,0.02,0.02,0.0,-0.02,0.01,0.01,-0.005,-0.029,-0.024,-0.034,-0.044,-0.024
2.19,0.0,0.0,0.0,0.0,0.0,0.0,-0.005,-0.034,-0.029,-0.049,-0.054,-0.034
2.192,-0.005,-0.01,-0.005,0.01,0.0,-0.01,0.01,-0.029,-0.029,-0.044,-0.059,-0.044
2.194,0.005,-0.01,-0.015,0.005,0.01,-0.015,0.005,-0.034,-0.039,-0.054,-0.073,-0.049
2.196,0.005,-0.005,-0.01,0.0,0.005,-0.01,0.01,-0.034,-0.034,-0.059,-0.073,-0.049
2.198,-0.02,-0.02,0.0,0.02,-0.01,-0.01,0.02,-0.024,-0.029,-0.054,-0.068,-0.044
2.2,-0.024,-0.024,0.0,0.024,-0.015,-0.015,0.024,-0.034,-0.044,-0.068,-0.083,-0.054
2.202,-0.024,-0.01,0.015,0.02,-0.02,0.0,0.024,-0.024,-0.044,-0.073,-0.088,-0.054
2.204,-0.015,-0.01,0.005,0.015,-0.01,-0.005,0.029,-0.02,-0.049,-0.073,-0.098,-0.054
2.206,-0.015,-0.015,0.0,0.015,-0.01,-0.01,0.029,-0.02,-0.059,-0.088,-0.102,-0.059
2.208,-0.02,-0.034,-0.015,0.029,-0.005,-0.024,0.024,-0.024,-0.063,-0.098,-0.107,-0.063
2.21,-0.024,-0.029,-0.005,0.029,-0.01,-0.02,0.024,-0.024,-0.068,-0.107,-0.112,-0.073
2.212,-0.02,-0.015,0.005,0.02,-0.015,-0.005,0.024,-0.029,-0.068,-0.107,-0.117,-0.073
2.214,-0.015,-0.01,0.005,0.015,-0.01,-0.005,0.024,-0.029,-0.068,-0.117,-0.127,-0.073
2.216,-0.02,-0.015,0.005,0.02,-0.015,-0.005,0.02,-0.039,-0.073,-0.127,-0.127,-0.083
2.218,-0.024,-0.034,-0.01,0.029,-0.01,-0.024,0.024,-0.034,-0.073,-0.122,-0.127,-0.078
2.22,-0.01,-0.005,0.005,0.01,-0.01,0.0,0.034,-0.034,-0.073,-0.117,-0.127,-0.073
2.222,-0.02,-0.024,-0.005,0.024,-0.01,-0.015,0.044,-0.015,-0.059,-0.117,-0.112,-0.063
2.224,-0.024,-0.024,0.0,0.024,-0.015,-0.015,0.049,-0.015,-0.063,-0.122,-0.122,-0.078
2.226,-0.034,-0.029,0.005,0.034,-0.02,-0.015,0.044,-0.02,-0.073,-0.127,-0.137,-0.083
2.228,-0.034,-0.024,0.01,0.029,-0.024,-0.01,0.034,-0.024,-0.083,-0.142,-0.151,-0.093
2.23,-0.044,-0.024,0.02,0.034,-0.034,-0.005,0.034,-0.024,-0.088,-0.151,-0.151,-0.093
2.232,-0.044,-0.024,0.02,0.034,-0.034,-0.005,0.039,-0.02,-0.083,-0.142,-0.151,-0.088
2.234,-0.034,-0.029,0.005,0.034,-0.02,-0.015,0.039,-0.024,-0.078,-0.151,-0.146,-0.093
2.236,-0.044,-0.039,0.005,0.044,-0.024,-0.02,0.039,-0.02,-0.083,-0.151,-0.151,-0.093
2.238,-0.059,-0.049,0.01,0.054,-0.034,-0.02,0.049,-0.02,-0.083,-0.146,-0.146,-0.093
2.24,-0.059,-0.034,0.024,0.049,-0.044,-0.005,0.049,-0.015,-0.078,-0.142,-0.142,-0.093
2.242,-0.029,-0.02,0.01,0.024,-0.02,-0.005,0.044,-0.015,-0.083,-0.142,-0.151,-0.093
2.244,-0.015,-0.005,0.01,0.01,-0.015,0.0,0.054,0.0,-0.073,-0.137,-0.146,-0.088
2.246,-0.029,-0.02,0.01,0.024,-0.02,-0.005,0.054,-0.005,-0.078,-0.142,-0.146,-0.093
2.248,-0.034,-0.024,0.01,0.029,-0.024,-0.01,0.054,-0.01,-0.083,-0.146,-0.151,-0.098
2.25,-0.02,-0.01,0.01,0.015,-0.015,0.0,0.059,-0.005,-0.073,-0.142,-0.151,-0.098
2.252,-0.029,-0.044,-0.015,0.039,-0.01,-0.029,0.068,0.01,-0.054,-0.132,-0.132,-0.088
2.254,-0.029,-0.059,-0.029,0.044,0.0,-0.044,0.068,0.0,-0.054,-0.132,-0.132,-0.083
2.256,-0.029,-0.059,-0.029,0.044,0.0,-0.044,0.068,0.0,-0.054,-0.132,-0.137,-0.088
2.258,-0.034,-0.073,-0.039,0.054,0.0,-0.059,0.068,0.015,-0.049,-0.122,-0.122,-0.078
2.26,-0.029,-0.054,-0.024,0.044,-0.005,-0.039,0.054,0.005,-0.059,-0.127,-0.137,-0.088
2.262,-0.02,-0.015,0.005,0.02,-0.015,-0.005,0.044,-0.005,-0.063,-0.132,-0.146,-0.098
2.264,-0.02,0.02,0.039,0.0,-0.029,0.029,0.039,0.0,-0.063,-0.127,-0.146,-0.098
2.266,-0.01,0.02,0.029,-0.005,-0.02,0.024,0.054,0.015,-0.049,-0.112,-0.127,-0.078
2.268,-0.024,0.0,0.024,0.015,-0.024,0.01,0.044,0.005,-0.054,-0.127,-0.142,-0.093
2.27,-0.044,-0.02,0.024,0.034,-0.034,0.0,0.044,0.01,-0.049,-0.122,-0.132,-0.088
2.272,-0.02,-0.015,0.005,0.02,-0.015,-0.005,0.044,0.01,-0.044,-0.122,-0.127,-0.083
2.274,-0.01,-0.01,0.0,0.01,-0.005,-0.005,0.044,0.005,-0.039,-0.112,-0.122,-0.083
2.276,-0.005,0.0,0.005,0.005,-0.005,0.0,0.044,0.005,-0.034,-0.117,-0.122,-0.078
2.278,-0.015,-0.005,0.01,0.01,-0.015,0.0,0.044,0.005,-0.034,-0.107,-0.117,-0.068
2.28,-0.034,-0.029,0.005,0.034,-0.02,-0.015,0.039,0.005,-0.034,-0.102,-0.117,-0.068
2.282,-0.034,-0.02,0.015,0.029,-0.024,-0.005,0.044,0.005,-0.034,-0.098,-0.112,-0.073
2.284,-0.029,-0.02,0.01,0.024,-0.02,-0.005,0.039,0.015,-0.034,-0.098,-0.117,-0.073
2.286,-0.034,-0.029,0.005,0.034,-0.02,-0.015,0.039,0.015,-0.029,-0.093,-0.107,-0.073
2.288,-0.024,-0.005,0.02,0.015,-0.024,0.005,0.029,0.005,-0.039,-0.102,-0.117,-0.073
2.29,-0.02,-0.005,0.015,0.015,-0.02,0.005,0.029,0.005,-0.039,-0.098,-0.112,-0.073
2.292,-0.02,0.0,0.02,0.01,-0.02,0.01,0.034,0.005,-0.029,-0.088,-0.102,-0.068
2.294,-0.015,0.005,0.02,0.005,-0.02,0.01,0.024,0.0,-0.029,-0.093,-0.107,-0.073
2.296,-0.005,0.005,0.01,0.0,-0.01,0.005,0.034,0.005,-0.024,-0.088,-0.102,-0.063
2.298,-0.005,-0.01,-0.005,0.01,0.0,-0.01,0.034,0.01,-0.02,-0.078,-0.098,-0.063
2.3,-0.02,-0.029,-0.01,0.024,-0.005,-0.02,0.029,0.0,-0.024,-0.083,-0.098,-0.063
2.302,-0.02,-0.02,0.0,0.02,-0.01,-0.01,0.024,0.0,-0.029,-0.083,-0.098,-0.063
2.304,-0.015,-0.005,0.01,0.01,-0.015,0.0,0.029,0.0,-0.029,-0.083,-0.107,-0.063
2.306,-0.029,-0.024,0.005,0.029,-0.02,-0.01,0.029,-0.005,-0.034,-0.088,-0.107,-0.063
2.308,-0.044,-0.024,0.02,0.034,-0.034,-0.005,0.015,-0.01,-0.044,-0.102,-0.117,-0.068
2.31,-0.029,-0.02,0.01,0.024,-0.02,-0.005,0.029,-0.005,-0.034,-0.093,-0.102,-0.054
2.312,-0.01,-0.01,0.0,0.01,-0.005,-0.005,0.034,-0.005,-0.029,-0.088,-0.102,-0.049
2.314,-0.02,0.0,0.02,0.01,-0.02,0.01,0.024,-0.015,-0.029,-0.093,-0.102,-0.054
2.316,-0.039,-0.029,0.01,0.034,-0.024,-0.01,0.015,-0.029,-0.049,-0.102,-0.117,-0.073
2.318,-0.024,-0.02,0.005,0.024,-0.015,-0.01,0.02,-0.029,-0.049,-0.098,-0.107,-0.068
2.32,-0.01,0.0,0.01,0.005,-0.01,0.005,0.024,-0.024,-0.034,-0.088,-0.102,-0.063
2.322,-0.005,0.0,0.005,0.005,-0.005,0.0,0.024,-0.02,-0.034,-0.088,-0.102,-0.063
2.324,0.005,-0.01,-0.015,0.005,0.01,-0.015,0.029,-0.015,-0.034,-0.083,-0.098,-0.054
2.326,-0.01,-0.02,-0.01,0.015,0.0,-0.015,0.02,-0.024,-0.044,-0.093,-0.107,-0.059
2.328,-0.02,-0.005,0.015,0.015,-0.02,0.005,0.024,-0.034,-0.049,-0.102,-0.112,-0.063
2.33,-0.015,0.005,0.02,0.005,-0.02,0.01,0.02,-0.034,-0.049,-0.098,-0.107,-0.059
2.332,-0.024,-0.005,0.02,0.015,-0.024,0.005,0.02,-0.044,-0.054,-0.102,-0.117,-0.063
2.334,-0.02,-0.005,0.015,0.015,-0.02,0.005,0.029,-0.039,-0.049,-0.098,-0.107,-0.063
2.336,-0.02,-0.01,0.01,0.015,-0.015,0.0,0.024,-0.039,-0.049,-0.102,-0.112,-0.063
2.338,-0.02,-0.01,0.01,0.015,-0.015,0.0,0.02,-0.039,-0.054,-0.102,-0.107,-0.063
2.34,-0.005,-0.005,0.0,0.005,-0.005,-0.005,0.029,-0.039,-0.044,-0.093,-0.102,-0.054
2.342,-0.01,-0.01,0.0,0.01,-0.005,-0.005,0.024,-0.039,-0.054,-0.098,-0.107,-0.059
2.344,-0.024,-0.02,0.005,0.024,-0.015,-0.01,0.024,-0.039,-0.059,-0.102,-0.107,-0.059
2.346,-0.005,0.0,0.005,0.005,-0.005,0.0,0.029,-0.039,-0.063,-0.102,-0.112,-0.063
2.348,-0.01,0.0,0.01,0.005,-0.01,0.005,0.02,-0.049,-0.073,-0.117,-0.122,-0.073
2.35,-0.039,-0.029,0.01,0.034,-0.024,-0.01,0.02,-0.063,-0.073,-0.117,-0.127,-0.073
2.352,-0.049,-0.029,0.02,0.039,-0.034,-0.005,0.024,-0.068,-0.068,-0.117,-0.122,-0.068
2.354,-0.034,-0.01,0.024,0.024,-0.029,0.005,0.02,-0.073,-0.068,-0.122,-0.127,-0.073
2.356,-0.029,0.0,0.029,0.015,-0.029,0.015,0.02,-0.078,-0.073,-0.122,-0.132,-0.068
2.358,-0.02,-0.005,0.015,0.015,-0.02,0.005,0.02,-0.073,-0.078,-0.117,-0.127,-0.073
2.36,-0.02,-0.005,0.015,0.015,-0.02,0.005,0.024,-0.068,-0.068,-0.112,-0.122,-0.068
2.362,-0.034,-0.015,0.02,0.024,-0.029,0.0,0.024,-0.063,-0.073,-0.112,-0.132,-0.073
2.364,-0.029,-0.029,0.0,0.029,-0.015,-0.015,0.024,-0.063,-0.073,-0.117,-0.122,-0.073
2.366,-0.024,-0.029,-0.005,0.029,-0.01,-0.02,0.024,-0.063,-0.073,-0.107,-0.122,-0.068
2.368,-0.034,-0.029,0.005,0.034,-0.02,-0.015,0.024,-0.068,-0.078,-0.112,-0.127,-0.073
2.37,-0.034,-0.029,0.005,0.034,-0.02,-0.015,0.01,-0.083,-0.093,-0.137,-0.137,-0.078
2.372,-0.029,-0.029,0.0,0.029,-0.015,-0.015,0.01,-0.083,-0.083,-0.132,-0.132,-0.078
2.374,-0.039,-0.024,0.015,0.034,-0.029,-0.005,0.015,-0.093,-0.093,-0.127,-0.137,-0.083
2.376,-0.029,0.005,0.034,0.015,-0.034,0.02,0.024,-0.088,-0.088,-0.127,-0.132,-0.073
2.378,-0.005,0.015,0.02,-0.005,-0.015,0.015,0.02,-0.083,-0.088,-0.122,-0.127,-0.073
2.38,-0.024,-0.005,0.02,0.015,-0.024,0.005,0.015,-0.088,-0.093,-0.122,-0.132,-0.078
2.382,-0.034,-0.024,0.01,0.029,-0.024,-0.01,0.024,-0.088,-0.088,-0.117,-0.122,-0.068
2.384,-0.029,-0.029,0.0,0.029,-0.015,-0.015,0.024,-0.083,-0.083,-0.117,-0.117,-0.059
2.386,-0.029,-0.024,0.005,0.029,-0.02,-0.01,0.02,-0.088,-0.093,-0.117,-0.117,-0.073
2.388,-0.034,-0.024,0.01,0.029,-0.024,-0.01,0.024,-0.088,-0.083,-0.117,-0.132,-0.078
2.39,-0.029,-0.029,0.0,0.029,-0.015,-0.015,0.02,-0.083,-0.088,-0.132,-0.137,-0.073
2.392,-0.005,-0.015,-0.01,0.01,0.0,-0.015,0.01,-0.093,-0.093,-0.137,-0.142,-0.078
2.394,-0.015,-0.005,0.01,0.01,-0.015,0.0,0.015,-0.093,-0.093,-0.132,-0.137,-0.073
2.396,-0.039,-0.034,0.005,0.039,-0.024,-0.015,0.01,-0.098,-0.093,-0.132,-0.142,-0.078
2.398,-0.049,-0.044,0.005,0.049,-0.029,-0.02,0.02,-0.093,-0.093,-0.127,-0.132,-0.068
2.4,-0.029,-0.015,0.015,0.024,-0.024,0.0,0.024,-0.093,-0.083,-0.127,-0.127,-0.059
2.402,-0.02,-0.005,0.015,0.015,-0.02,0.005,0.024,-0.098,-0.093,-0.132,-0.127,-0.054
2.404,-0.01,-0.005,0.005,0.01,-0.01,0.0,0.015,-0.093,-0.098,-0.132,-0.127,-0.059
2.406,-0.01,-0.015,-0.005,0.015,-0.005,-0.01,0.015,-0.088,-0.093,-0.132,-0.127,-0.068
2.408,-0.02,-0.029,-0.01,0.024,-0.005,-0.02,0.01,-0.098,-0.107,-0.132,-0.142,-0.073
2.41,-0.034,-0.029,0.005,0.034,-0.02,-0.015,0.005,-0.102,-0.102,-0.146,-0.146,-0.078
2.412,-0.039,-0.015,0.024,0.029,-0.034,0.005,0.02,-0.093,-0.083,-0.132,-0.132,-0.063
2.414,-0.029,-0.005,0.024,0.02,-0.029,0.01,0.024,-0.093,-0.088,-0.127,-0.132,-0.063
2.416,-0.039,-0.02,0.02,0.029,-0.029,0.0,0.02,-0.102,-0.093,-0.132,-0.137,-0.068
2.418,-0.029,-0.024,0.005,0.029,-0.02,-0.01,0.015,-0.098,-0.098,-0.137,-0.132,-0.063
2.42,-0.024,-0.029,-0.005,0.029,-0.01,-0.02,0.02,-0.098,-0.088,-0.127,-0.127,-0.063
2.422,-0.024,-0.029,-0.005,0.029,-0.01,-0.02,0.015,-0.102,-0.098,-0.132,-0.137,-0.068
2.424,-0.024,-0.034,-0.01,0.029,-0.01,-0.024,0.01,-0.098,-0.098,-0.142,-0.137,-0.068
2.426,-0.029,-0.034,-0.005,0.034,-0.015,-0.02,0.01,-0.093,-0.098,-0.137,-0.137,-0.068
2.428,-0.029,-0.039,-0.01,0.034,-0.01,-0.024,0.015,-0.093,-0.098,-0.146,-0.142,-0.083
2.43,-0.015,-0.005,0.01,0.01,-0.015,0.0,0.02,-0.088,-0.093,-0.137,-0.137,-0.073
2.432,-0.02,-0.015,0.005,0.02,-0.015,-0.005,0.024,-0.083,-0.083,-0.132,-0.132,-0.068
2.434,-0.034,-0.029,0.005,0.034,-0.02,-0.015,0.01,-0.102,-0.093,-0.142,-0.142,-0.078
2.436,-0.034,-0.029,0.005,0.034,-0.02,-0.015,0.024,-0.098,-0.088,-0.137,-0.132,-0.068
2.438,-0.044,-0.039,0.005,0.044,-0.024,-0.02,0.015,-0.102,-0.098,-0.142,-0.132,-0.073
2.44,-0.034,-0.029,0.005,0.034,-0.02,-0.015,0.024,-0.098,-0.093,-0.132,-0.122,-0.063
2.442,-0.039,-0.024,0.015,0.034,-0.029,-0.005,0.024,-0.098,-0.088,-0.127,-0.122,-0.063
2.444,-0.039,-0.039,0.0,0.039,-0.02,-0.02,0.015,-0.102,-0.102,-0.137,-0.137,-0.073
2.446,-0.039,-0.039,0.0,0.039,-0.02,-0.02,0.02,-0.093,-0.093,-0.137,-0.132,-0.073
2.448,-0.034,-0.034,0.0,0.034,-0.02,-0.02,0.02,-0.093,-0.098,-0.142,-0.142,-0.073
2.45,-0.029,-0.024,0.005,0.029,-0.02,-0.01,0.015,-0.093,-0.098,-0.142,-0.142,-0.078
2.452,-0.024,-0.024,0.0,0.024,-0.015,-0.015,0.02,-0.083,-0.093,-0.137,-0.137,-0.068
2.454,-0.029,-0.024,0.005,0.029,-0.02,-0.01,0.015,-0.098,-0.093,-0.142,-0.137,-0.068
2.456,-0.034,-0.029,0.005,0.034,-0.02,-0.015,0.02,-0.093,-0.088,-0.137,-0.132,-0.059
2.458,-0.029,-0.029,0.0,0.029,-0.015,-0.015,0.02,-0.088,-0.098,-0.132,-0.127,-0.059
2.46,-0.039,-0.044,-0.005,0.044,-0.02,-0.024,0.024,-0.093,-0.093,-0.127,-0.132,-0.063
2.462,-0.039,-0.034,0.005,0.039,-0.024,-0.015,0.024,-0.093,-0.093,-0.132,-0.127,-0.063
2.464,-0.034,-0.034,0.0,0.034,-0.02,-0.02,0.024,-0.098,-0.093,-0.132,-0.132,-0.068
2.466,-0.044,-0.049,-0.005,0.049,-0.02,-0.029,0.01,-0.102,-0.107,-0.146,-0.137,-0.078
2.468,-0.029,-0.044,-0.015,0.039,-0.01,-0.029,0.01,-0.112,-0.112,-0.156,-0.146,-0.083
2.47,-0.049,-0.049,0.0,0.049,-0.024,-0.024,0.01,-0.107,-0.112,-0.151,-0.142,-0.083
2.472,-0.054,-0.049,0.005,0.054,-0.029,-0.024,0.02,-0.102,-0.102,-0.142,-0.137,-0.073
2.474,-0.044,-0.039,0.005,0.044,-0.024,-0.02,0.02,-0.098,-0.088,-0.137,-0.127,-0.068
2.476,-0.029,-0.024,0.005,0.029,-0.02,-0.01,0.029,-0.088,-0.083,-0.132,-0.122,-0.063
2.478,-0.034,-0.029,0.005,0.034,-0.02,-0.015,0.029,-0.088,-0.088,-0.127,-0.117,-0.059
2.48,-0.039,-0.039,0.0,0.039,-0.02,-0.02,0.029,-0.088,-0.083,-0.127,-0.122,-0.063
2.482,-0.015,-0.024,-0.01,0.02,-0.005,-0.02,0.024,-0.098,-0.093,-0.137,-0.132,-0.068
2.484,-0.01,-0.034,-0.024,0.024,0.005,-0.029,0.02,-0.098,-0.102,-0.142,-0.137,-0.073
2.486,-0.044,-0.049,-0.005,0.049,-0.02,-0.029,0.015,-0.102,-0.112,-0.146,-0.146,-0.078
2.488,-0.029,-0.029,0.0,0.029,-0.015,-0.015,0.015,-0.102,-0.102,-0.142,-0.146,-0.078
2.49,-0.034,-0.029,0.005,0.034,-0.02,-0.015,0.015,-0.098,-0.098,-0.146,-0.146,-0.073
2.492,-0.034,-0.039,-0.005,0.039,-0.015,-0.024,0.005,-0.102,-0.107,-0.156,-0.151,-0.078
2.494,-0.029,-0.02,0.01,0.024,-0.02,-0.005,0.024,-0.093,-0.098,-0.142,-0.137,-0.063
2.496,-0.02,-0.02,0.0,0.02,-0.01,-0.01,0.02,-0.093,-0.093,-0.142,-0.132,-0.059
2.498,-0.024,-0.029,-0.005,0.029,-0.01,-0.02,0.024,-0.088,-0.093,-0.142,-0.117,-0.049
2.5,-0.034,-0.029,0.005,0.034,-0.02,-0.015,0.029,-0.093,-0.093,-0.142,-0.127,-0.059
2.502,-0.034,-0.029,0.005,0.034,-0.02,-0.015,0.02,-0.098,-0.093,-0.142,-0.132,-0.063
2.504,-0.034,-0.049,-0.015,0.044,-0.01,-0.034,0.024,-0.088,-0.088,-0.142,-0.127,-0.063
2.506,-0.029,-0.049,-0.02,0.039,-0.005,-0.034,0.015,-0.093,-0.093,-0.142,-0.132,-0.063
2.508,-0.029,-0.039,-0.01,0.034,-0.01,-0.024,0.005,-0.098,-0.098,-0.146,-0.137,-0.078
2.51,-0.049,-0.049,0.0,0.049,-0.024,-0.024,0.01,-0.088,-0.093,-0.142,-0.132,-0.073
2.512,-0.049,-0.059,-0.01,0.054,-0.02,-0.034,0.015,-0.093,-0.098,-0.146,-0.142,-0.073
2.514,-0.015,-0.034,-0.02,0.024,0.0,-0.029,0.015,-0.102,-0.102,-0.146,-0.142,-0.073
2.516,0.01,-0.024,-0.034,0.01,0.02,-0.029,0.015,-0.098,-0.098,-0.146,-0.137,-0.068
2.518,-0.02,-0.044,-0.024,0.034,0.0,-0.034,0.015,-0.093,-0.102,-0.151,-0.132,-0.073
2.52,-0.044,-0.054,-0.01,0.049,-0.02,-0.034,0.029,-0.083,-0.093,-0.137,-0.132,-0.059
2.522,-0.039,-0.049,-0.01,0.044,-0.015,-0.029,0.029,-0.088,-0.093,-0.142,-0.132,-0.063
2.524,-0.029,-0.049,-0.02,0.039,-0.005,-0.034,0.02,-0.098,-0.098,-0.146,-0.137,-0.068
2.526,-0.024,-0.049,-0.024,0.039,0.0,-0.039,0.024,-0.088,-0.093,-0.137,-0.132,-0.063
2.528,-0.034,-0.034,0.0,0.034,-0.02,-0.02,0.024,-0.088,-0.088,-0.142,-0.137,-0.068
2.53,-0.044,-0.039,0.005,0.044,-0.024,-0.02,0.024,-0.088,-0.083,-0.142,-0.132,-0.073
2.532,-0.034,-0.044,-0.01,0.039,-0.015,-0.029,0.02,-0.093,-0.088,-0.142,-0.132,-0.073
2.534,-0.034,-0.039,-0.005,0.039,-0.015,-0.024,0.005,-0.107,-0.102,-0.161,-0.146,-0.083
2.536,-0.034,-0.039,-0.005,0.039,-0.015,-0.024,0.02,-0.098,-0.098,-0.146,-0.137,-0.078
2.538,-0.049,-0.063,-0.015,0.059,-0.02,-0.039,0.029,-0.083,-0.088,-0.137,-0.127,-0.068
2.54,-0.039,-0.054,-0.015,0.049,-0.015,-0.034,0.029,-0.088,-0.093,-0.132,-0.132,-0.063
2.542,-0.024,-0.039,-0.015,0.034,-0.005,-0.029,0.034,-0.088,-0.088,-0.127,-0.122,-0.049
2.544,-0.024,-0.049,-0.024,0.039,0.0,-0.039,0.034,-0.093,-0.088,-0.137,-0.122,-0.049
2.546,-0.029,-0.034,-0.005,0.034,-0.015,-0.02,0.029,-0.098,-0.098,-0.146,-0.127,-0.059
2.548,-0.02,-0.039,-0.02,0.029,0.0,-0.029,0.034,-0.088,-0.088,-0.137,-0.127,-0.063
2.55,-0.024,-0.044,-0.02,0.034,-0.005,-0.034,0.024,-0.098,-0.093,-0.151,-0.137,-0.073
2.552,-0.02,-0.049,-0.029,0.034,0.005,-0.039,0.024,-0.098,-0.098,-0.156,-0.142,-0.073
2.554,-0.029,-0.063,-0.034,0.049,0.0,-0.049,0.029,-0.093,-0.098,-0.151,-0.137,-0.068
2.556,-0.034,-0.068,-0.034,0.054,0.0,-0.054,0.024,-0.098,-0.093,-0.151,-0.142,-0.073
2.558,-0.034,-0.068,-0.034,0.054,0.0,-0.054,0.034,-0.088,-0.093,-0.142,-0.127,-0.059
2.56,-0.039,-0.059,-0.02,0.049,-0.01,-0.039,0.034,-0.093,-0.093,-0.146,-0.132,-0.063
2.562,-0.029,-0.054,-0.024,0.044,-0.005,-0.039,0.029,-0.098,-0.107,-0.146,-0.137,-0.068
2.564,-0.034,-0.063,-0.029,0.049,-0.005,-0.049,0.034,-0.088,-0.098,-0.142,-0.127,-0.063
2.566,-0.029,-0.063,-0.034,0.049,0.0,-0.049,0.039,-0.083,-0.093,-0.142,-0.127,-0.063
2.568,-0.015,-0.049,-0.034,0.034,0.01,-0.044,0.039,-0.088,-0.083,-0.137,-0.132,-0.063
2.57,-0.02,-0.039,-0.02,0.029,0.0,-0.029,0.034,-0.088,-0.093,-0.151,-0.132,-0.068
2.572,-0.024,-0.054,-0.029,0.039,0.0,-0.044,0.034,-0.088,-0.088,-0.146,-0.127,-0.063
2.574,-0.02,-0.044,-0.024,0.034,0.0,-0.034,0.034,-0.088,-0.088,-0.142,-0.127,-0.073
2.576,-0.015,-0.049,-0.034,0.034,0.01,-0.044,0.024,-0.093,-0.088,-0.146,-0.132,-0.073
2.578,-0.029,-0.054,-0.024,0.044,-0.005,-0.039,0.029,-0.093,-0.088,-0.142,-0.127,-0.068
2.58,-0.039,-0.059,-0.02,0.049,-0.01,-0.039,0.039,-0.088,-0.078,-0.132,-0.122,-0.063
2.582,-0.039,-0.054,-0.015,0.049,-0.015,-0.034,0.039,-0.083,-0.083,-0.132,-0.122,-0.063
2.584,-0.024,-0.059,-0.034,0.044,0.005,-0.049,0.034,-0.088,-0.088,-0.137,-0.127,-0.063
2.586,-0.02,-0.044,-0.024,0.034,0.0,-0.034,0.039,-0.083,-0.083,-0.132,-0.122,-0.063
2.588,-0.02,-0.049,-0.029,0.034,0.005,-0.039,0.039,-0.078,-0.078,-0.137,-0.122,-0.059
2.59,-0.039,-0.068,-0.029,0.054,-0.005,-0.049,0.039,-0.083,-0.093,-0.146,-0.127,-0.063
2.592,-0.049,-0.063,-0.015,0.059,-0.02,-0.039,0.039,-0.083,-0.088,-0.146,-0.122,-0.063
2.594,-0.029,-0.049,-0.02,0.039,-0.005,-0.034,0.044,-0.078,-0.093,-0.146,-0.127,-0.063
2.596,-0.034,-0.059,-0.024,0.049,-0.005,-0.044,0.034,-0.083,-0.088,-0.146,-0.132,-0.068
2.598,-0.039,-0.059,-0.02,0.049,-0.01,-0.039,0.044,-0.083,-0.078,-0.142,-0.127,-0.059
2.6,-0.044,-0.068,-0.024,0.059,-0.01,-0.049,0.049,-0.078,-0.078,-0.137,-0.127,-0.059
2.602,-0.049,-0.068,-0.02,0.059,-0.015,-0.044,0.039,-0.088,-0.088,-0.142,-0.132,-0.063
2.604,-0.039,-0.068,-0.029,0.054,-0.005,-0.049,0.034,-0.088,-0.088,-0.151,-0.127,-0.063
2.606,-0.005,-0.049,-0.044,0.029,0.02,-0.049,0.029,-0.083,-0.088,-0.146,-0.132,-0.068
2.608,-0.015,-0.054,-0.039,0.034,0.01,-0.049,0.029,-0.083,-0.093,-0.156,-0.137,-0.073
2.61,-0.034,-0.049,-0.015,0.044,-0.01,-0.034,0.034,-0.088,-0.088,-0.151,-0.137,-0.068
2.612,-0.044,-0.054,-0.01,0.049,-0.02,-0.034,0.034,-0.083,-0.078,-0.146,-0.132,-0.068
2.614,-0.034,-0.044,-0.01,0.039,-0.015,-0.029,0.034,-0.078,-0.083,-0.142,-0.132,-0.073
2.616,-0.024,-0.044,-0.02,0.034,-0.005,-0.034,0.034,-0.083,-0.078,-0.146,-0.132,-0.073
2.618,-0.029,-0.049,-0.02,0.039,-0.005,-0.034,0.039,-0.083,-0.078,-0.142,-0.127,-0.068
2.62,-0.039,-0.054,-0.015,0.049,-0.015,-0.034,0.034,-0.088,-0.088,-0.142,-0.132,-0.068
2.622,-0.044,-0.068,-0.024,0.059,-0.01,-0.049,0.049,-0.083,-0.088,-0.142,-0.127,-0.063
2.624,-0.039,-0.063,-0.024,0.054,-0.01,-0.044,0.039,-0.088,-0.088,-0.151,-0.132,-0.068
2.626,-0.02,-0.044,-0.024,0.034,0.0,-0.034,0.039,-0.088,-0.098,-0.151,-0.137,-0.073
2.628,-0.029,-0.054,-0.024,0.044,-0.005,-0.039,0.034,-0.093,-0.098,-0.156,-0.137,-0.078
2.63,-0.044,-0.073,-0.029,0.059,-0.01,-0.054,0.024,-0.093,-0.098,-0.156,-0.142,-0.083
2.632,-0.034,-0.054,-0.02,0.044,-0.01,-0.039,0.029,-0.093,-0.088,-0.151,-0.132,-0.078
2.634,-0.02,-0.044,-0.024,0.034,0.0,-0.034,0.029,-0.093,-0.088,-0.151,-0.137,-0.078
2.636,-0.015,-0.054,-0.039,0.034,0.01,-0.049,0.029,-0.093,-0.083,-0.151,-0.137,-0.078
2.638,-0.02,-0.039,-0.02,0.029,0.0,-0.029,0.039,-0.078,-0.073,-0.142,-0.127,-0.068
2.64,-0.029,-0.073,-0.044,0.054,0.005,-0.059,0.054,-0.068,-0.073,-0.132,-0.117,-0.059
2.642,-0.029,-0.078,-0.049,0.054,0.01,-0.063,0.049,-0.073,-0.073,-0.132,-0.122,-0.063
2.644,-0.054,-0.102,-0.049,0.078,-0.005,-0.078,0.049,-0.073,-0.073,-0.137,-0.127,-0.068
2.646,-0.039,-0.068,-0.029,0.054,-0.005,-0.049,0.054,-0.063,-0.063,-0.127,-0.117,-0.059
2.648,-0.029,-0.059,-0.029,0.044,0.0,-0.044,0.059,-0.068,-0.063,-0.132,-0.122,-0.063
2.65,-0.034,-0.093,-0.059,0.063,0.01,-0.078,0.049,-0.078,-0.083,-0.151,-0.137,-0.068
2.652,-0.034,-0.063,-0.029,0.049,-0.005,-0.049,0.039,-0.083,-0.088,-0.156,-0.142,-0.073
2.654,-0.029,-0.049,-0.02,0.039,-0.005,-0.034,0.049,-0.078,-0.078,-0.151,-0.137,-0.068
2.656,-0.039,-0.063,-0.024,0.054,-0.01,-0.044,0.044,-0.078,-0.083,-0.156,-0.142,-0.073
2.658,-0.039,-0.059,-0.02,0.049,-0.01,-0.039,0.044,-0.088,-0.083,-0.151,-0.137,-0.068
2.66,-0.024,-0.054,-0.029,0.039,0.0,-0.044,0.044,-0.088,-0.093,-0.151,-0.132,-0.063
2.662,-0.024,-0.044,-0.02,0.034,-0.005,-0.034,0.044,-0.093,-0.093,-0.156,-0.132,-0.078
2.664,-0.024,-0.029,-0.005,0.029,-0.01,-0.02,0.039,-0.083,-0.083,-0.151,-0.132,-0.078
2.666,-0.024,-0.044,-0.02,0.034,-0.005,-0.034,0.039,-0.078,-0.083,-0.151,-0.127,-0.073
2.668,-0.024,-0.044,-0.02,0.034,-0.005,-0.034,0.039,-0.078,-0.083,-0.151,-0.127,-0.078
2.67,-0.029,-0.039,-0.01,0.034,-0.01,-0.024,0.034,-0.083,-0.078,-0.151,-0.127,-0.083
2.672,-0.024,-0.054,-0.029,0.039,0.0,-0.044,0.024,-0.088,-0.088,-0.161,-0.142,-0.088
2.674,-0.039,-0.054,-0.015,0.049,-0.015,-0.034,0.024,-0.088,-0.088,-0.161,-0.137,-0.088
2.676,-0.044,-0.044,0.0,0.044,-0.024,-0.024,0.034,-0.083,-0.083,-0.151,-0.132,-0.083
2.678,-0.024,-0.034,-0.01,0.029,-0.01,-0.024,0.039,-0.078,-0.073,-0.146,-0.132,-0.078
2.68,-0.029,-0.049,-0.02,0.039,-0.005,-0.034,0.044,-0.078,-0.078,-0.146,-0.127,-0.073
2.682,-0.049,-0.049,0.0,0.049,-0.024,-0.024,0.049,-0.073,-0.078,-0.146,-0.127,-0.078
2.684,-0.034,-0.039,-0.005,0.039,-0.015,-0.024,0.049,-0.063,-0.078,-0.146,-0.127,-0.073
2.686,-0.02,-0.039,-0.02,0.029,0.0,-0.029,0.049,-0.063,-0.068,-0.142,-0.122,-0.068
2.688,-0.034,-0.049,-0.015,0.044,-0.01,-0.034,0.044,-0.073,-0.083,-0.151,-0.132,-0.078
2.69,-0.029,-0.039,-0.01,0.034,-0.01,-0.024,0.044,-0.073,-0.073,-0.156,-0.127,-0.073
2.692,-0.024,-0.049,-0.024,0.039,0.0,-0.039,0.044,-0.068,-0.073,-0.151,-0.132,-0.078
2.694,-0.024,-0.073,-0.049,0.049,0.01,-0.063,0.039,-0.078,-0.078,-0.151,-0.132,-0.078
2.696,-0.024,-0.073,-0.049,0.049,0.01,-0.063,0.044,-0.083,-0.073,-0.151,-0.132,-0.073
2.698,-0.039,-0.063,-0.024,0.054,-0.01,-0.044,0.044,-0.078,-0.078,-0.151,-0.127,-0.073
2.7,-0.039,-0.054,-0.015,0.049,-0.015,-0.034,0.039,-0.093,-0.088,-0.151,-0.137,-0.083
2.702,-0.024,-0.034,-0.01,0.029,-0.01,-0.024,0.034,-0.093,-0.093,-0.156,-0.142,-0.088
2.704,-0.039,-0.049,-0.01,0.044,-0.015,-0.029,0.039,-0.083,-0.083,-0.151,-0.132,-0.078
2.706,-0.034,-0.044,-0.01,0.039,-0.015,-0.029,0.039,-0.073,-0.078,-0.151,-0.127,-0.078
2.708,-0.024,-0.039,-0.015,0.034,-0.005,-0.029,0.039,-0.073,-0.078,-0.151,-0.132,-0.083
2.71,-0.015,-0.034,-0.02,0.024,0.0,-0.029,0.034,-0.073,-0.073,-0.151,-0.142,-0.083
2.712,-0.024,-0.049,-0.024,0.039,0.0,-0.039,0.039,-0.068,-0.078,-0.151,-0.142,-0.078
2.714,-0.029,-0.049,-0.02,0.039,-0.005,-0.034,0.034,-0.078,-0.093,-0.156,-0.146,-0.093
2.716,-0.029,-0.044,-0.015,0.039,-0.01,-0.029,0.039,-0.078,-0.088,-0.151,-0.142,-0.083
2.718,-0.044,-0.054,-0.01,0.049,-0.02,-0.034,0.034,-0.078,-0.083,-0.151,-0.137,-0.088
2.72,-0.039,-0.059,-0.02,0.049,-0.01,-0.039,0.034,-0.078,-0.088,-0.151,-0.137,-0.088
2.722,-0.024,-0.059,-0.034,0.044,0.005,-0.049,0.044,-0.073,-0.083,-0.146,-0.127,-0.078
2.724,-0.039,-0.063,-0.024,0.054,-0.01,-0.044,0.044,-0.068,-0.078,-0.151,-0.127,-0.078
2.726,-0.039,-0.088,-0.049,0.063,0.005,-0.068,0.049,-0.054,-0.073,-0.146,-0.127,-0.083
2.728,-0.034,-0.083,-0.049,0.059,0.005,-0.068,0.049,-0.049,-0.068,-0.142,-0.132,-0.078
2.73,-0.039,-0.083,-0.044,0.063,0.0,-0.063,0.049,-0.059,-0.073,-0.146,-0.137,-0.083
2.732,-0.015,-0.068,-0.054,0.044,0.02,-0.063,0.044,-0.059,-0.073,-0.151,-0.137,-0.083
2.734,0.005,-0.039,-0.044,0.02,0.024,-0.044,0.054,-0.054,-0.063,-0.142,-0.127,-0.073
2.736,-0.024,-0.02,0.005,0.024,-0.015,-0.01,0.044,-0.068,-0.073,-0.146,-0.142,-0.083
2.738,-0.02,0.0,0.02,0.01,-0.02,0.01,0.034,-0.078,-0.083,-0.156,-0.142,-0.088
2.74,-0.024,-0.02,0.005,0.024,-0.015,-0.01,0.039,-0.073,-0.083,-0.161,-0.137,-0.083
2.742,-0.024,-0.034,-0.01,0.029,-0.01,-0.024,0.039,-0.073,-0.083,-0.161,-0.132,-0.083
2.744,-0.01,-0.024,-0.015,0.02,0.0,-0.02,0.039,-0.063,-0.083,-0.156,-0.132,-0.083
2.746,-0.01,-0.034,-0.024,0.024,0.005,-0.029,0.039,-0.063,-0.088,-0.161,-0.137,-0.088
2.748,-0.005,-0.029,-0.024,0.02,0.01,-0.029,0.044,-0.054,-0.078,-0.151,-0.137,-0.083
2.75,-0.015,-0.029,-0.015,0.024,0.0,-0.024,0.034,-0.063,-0.083,-0.161,-0.146,-0.093
2.752,-0.039,-0.039,0.0,0.039,-0.02,-0.02,0.039,-0.054,-0.078,-0.156,-0.142,-0.093
2.754,-0.02,-0.02,0.0,0.02,-0.01,-0.01,0.039,-0.063,-0.083,-0.161,-0.142,-0.093
2.756,-0.02,-0.024,-0.005,0.024,-0.01,-0.015,0.039,-0.063,-0.078,-0.161,-0.146,-0.093
2.758,-0.02,-0.049,-0.029,0.034,0.005,-0.039,0.049,-0.054,-0.068,-0.151,-0.132,-0.083
2.76,-0.029,-0.059,-0.029,0.044,0.0,-0.044,0.044,-0.054,-0.068,-0.151,-0.132,-0.083
2.762,-0.029,-0.059,-0.029,0.044,0.0,-0.044,0.044,-0.054,-0.073,-0.156,-0.127,-0.083
2.764,-0.01,-0.02,-0.01,0.015,0.0,-0.015,0.039,-0.049,-0.068,-0.151,-0.132,-0.083
2.766,-0.02,-0.024,-0.005,0.024,-0.01,-0.015,0.039,-0.054,-0.078,-0.161,-0.137,-0.093
2.768,-0.039,-0.049,-0.01,0.044,-0.015,-0.029,0.039,-0.054,-0.078,-0.156,-0.137,-0.093
2.77,-0.039,-0.054,-0.015,0.049,-0.015,-0.034,0.039,-0.054,-0.078,-0.156,-0.137,-0.093
2.772,-0.044,-0.068,-0.024,0.059,-0.01,-0.049,0.049,-0.034,-0.063,-0.146,-0.127,-0.093
2.774,-0.029,-0.054,-0.024,0.044,-0.005,-0.039,0.054,-0.034,-0.059,-0.146,-0.122,-0.088
2.776,-0.029,-0.054,-0.024,0.044,-0.005,-0.039,0.054,-0.034,-0.049,-0.137,-0.122,-0.083
2.778,-0.039,-0.063,-0.024,0.054,-0.01,-0.044,0.049,-0.044,-0.073,-0.151,-0.132,-0.093
2.78,-0.039,-0.054,-0.015,0.049,-0.015,-0.034,0.034,-0.054,-0.078,-0.161,-0.142,-0.107
2.782,-0.029,-0.024,0.005,0.029,-0.02,-0.01,0.029,-0.059,-0.093,-0.171,-0.151,-0.112
2.784,-0.024,-0.024,0.0,0.024,-0.015,-0.015,0.034,-0.054,-0.093,-0.166,-0.156,-0.102
2.786,-0.024,-0.039,-0.015,0.034,-0.005,-0.029,0.039,-0.049,-0.088,-0.166,-0.146,-0.083
2.788,-0.034,-0.039,-0.005,0.039,-0.015,-0.024,0.029,-0.054,-0.093,-0.181,-0.151,-0.098
2.79,-0.044,-0.034,0.01,0.039,-0.029,-0.015,0.029,-0.059,-0.093,-0.176,-0.151,-0.093
2.792,-0.029,-0.039,-0.01,0.034,-0.01,-0.024,0.039,-0.044,-0.083,-0.166,-0.137,-0.088
2.794,-0.024,-0.063,-0.039,0.044,0.005,-0.054,0.049,-0.034,-0.068,-0.151,-0.127,-0.073
2.796,-0.01,-0.078,-0.068,0.044,0.029,-0.073,0.059,-0.02,-0.049,-0.137,-0.117,-0.063
2.798,-0.015,-0.073,-0.059,0.044,0.02,-0.068,0.054,-0.02,-0.059,-0.142,-0.117,-0.068
2.8,-0.024,-0.088,-0.063,0.059,0.02,-0.078,0.054,-0.024,-0.063,-0.146,-0.127,-0.088
2.802,-0.005,-0.039,-0.034,0.024,0.015,-0.039,0.054,-0.02,-0.059,-0.142,-0.127,-0.088
2.804,-0.01,-0.02,-0.01,0.015,0.0,-0.015,0.049,-0.024,-0.063,-0.151,-0.132,-0.093
2.806,-0.029,0.005,0.034,0.015,-0.034,0.02,0.029,-0.049,-0.088,-0.176,-0.156,-0.112
2.808,-0.02,0.01,0.029,0.005,-0.024,0.02,0.029,-0.044,-0.078,-0.171,-0.156,-0.117
2.81,-0.034,-0.01,0.024,0.024,-0.029,0.005,0.024,-0.049,-0.083,-0.171,-0.151,-0.117
2.812,-0.024,-0.015,0.01,0.02,-0.02,-0.005,0.024,-0.044,-0.083,-0.166,-0.151,-0.112
2.814,-0.024,-0.015,0.01,0.02,-0.02,-0.005,0.034,-0.029,-0.078,-0.161,-0.142,-0.107
2.816,-0.034,-0.01,0.024,0.024,-0.029,0.005,0.039,-0.029,-0.068,-0.151,-0.137,-0.102
2.818,-0.039,-0.015,0.024,0.029,-0.034,0.005,0.039,-0.029,-0.073,-0.161,-0.137,-0.102
2.82,-0.034,-0.024,0.01,0.029,-0.024,-0.01,0.044,-0.029,-0.078,-0.166,-0.142,-0.093
2.822,-0.024,-0.02,0.005,0.024,-0.015,-0.01,0.044,-0.024,-0.073,-0.166,-0.142,-0.088
2.824,-0.01,-0.015,-0.005,0.015,-0.005,-0.01,0.054,-0.02,-0.068,-0.161,-0.142,-0.098
2.826,-0.024,-0.015,0.01,0.02,-0.02,-0.005,0.059,-0.015,-0.068,-0.156,-0.142,-0.098
2.828,-0.034,-0.015,0.02,0.024,-0.029,0.0,0.059,-0.01,-0.059,-0.156,-0.137,-0.098
2.83,-0.044,-0.029,0.015,0.039,-0.029,-0.01,0.054,-0.02,-0.068,-0.166,-0.142,-0.098
2.832,-0.005,-0.005,0.0,0.005,-0.005,-0.005,0.054,-0.02,-0.068,-0.161,-0.146,-0.102
2.834,0.005,0.029,0.024,-0.015,-0.01,0.024,0.073,0.0,-0.049,-0.146,-0.122,-0.088
2.836,-0.01,0.024,0.034,-0.005,-0.024,0.029,0.078,0.005,-0.039,-0.142,-0.117,-0.083
2.838,-0.015,0.029,0.044,-0.005,-0.029,0.034,0.088,0.01,-0.039,-0.137,-0.117,-0.078
2.84,0.01,0.049,0.039,-0.029,-0.015,0.044,0.107,0.034,-0.02,-0.112,-0.102,-0.063
2.842,0.015,0.073,0.059,-0.044,-0.024,0.063,0.112,0.049,-0.01,-0.107,-0.093,-0.059
2.844,0.01,0.059,0.049,-0.034,-0.02,0.054,0.117,0.063,0.01,-0.093,-0.088,-0.054
2.846,0.005,0.049,0.044,-0.024,-0.02,0.044,0.127,0.068,0.005,-0.093,-0.093,-0.059
2.848,0.015,0.059,0.044,-0.034,-0.015,0.049,0.132,0.078,0.02,-0.088,-0.088,-0.054
2.85,0.015,0.068,0.054,-0.039,-0.02,0.059,0.132,0.078,0.02,-0.088,-0.088,-0.059
2.852,0.0,0.059,0.059,-0.029,-0.029,0.059,0.127,0.083,0.02,-0.083,-0.093,-0.059
2.854,0.005,0.063,0.059,-0.034,-0.029,0.059,0.127,0.093,0.024,-0.083,-0.088,-0.059
2.856,0.015,0.063,0.049,-0.039,-0.02,0.054,0.137,0.098,0.034,-0.078,-0.078,-0.049
2.858,0.034,0.073,0.039,-0.054,-0.005,0.054,0.137,0.102,0.039,-0.078,-0.068,-0.044
2.86,0.029,0.068,0.039,-0.049,-0.005,0.054,0.132,0.102,0.044,-0.068,-0.068,-0.054
2.862,0.005,0.054,0.049,-0.029,-0.024,0.049,0.122,0.102,0.044,-0.078,-0.073,-0.059
2.864,0.01,0.059,0.049,-0.034,-0.02,0.054,0.132,0.117,0.049,-0.073,-0.063,-0.054
2.866,0.024,0.073,0.049,-0.049,-0.015,0.059,0.142,0.132,0.059,-0.059,-0.054,-0.049
2.868,0.02,0.068,0.049,-0.044,-0.015,0.059,0.137,0.132,0.054,-0.063,-0.063,-0.054
2.87,0.024,0.068,0.044,-0.044,-0.01,0.054,0.142,0.137,0.063,-0.059,-0.059,-0.044
2.872,0.039,0.083,0.044,-0.059,-0.005,0.063,0.127,0.132,0.063,-0.059,-0.059,-0.044
2.874,0.044,0.107,0.063,-0.073,-0.01,0.083,0.102,0.117,0.049,-0.068,-0.063,-0.049
2.876,0.054,0.107,0.054,-0.078,0.0,0.078,0.098,0.107,0.054,-0.068,-0.059,-0.039
2.878,0.039,0.093,0.054,-0.063,-0.01,0.073,0.078,0.102,0.044,-0.078,-0.063,-0.049
