time,I,II,III,aVR,aVL,aVF,V1,V2,V3,V4,V5,V6
0.0,-0.044,-0.049,-0.005,0.049,-0.02,-0.029,0.029,-0.005,-0.073,-0.073,-0.063,0.039
0.002,-0.039,-0.044,-0.005,0.044,-0.02,-0.024,0.024,-0.01,-0.078,-0.078,-0.063,0.02
0.004,-0.02,-0.029,-0.01,0.024,-0.005,-0.02,0.029,-0.01,-0.078,-0.073,-0.054,-0.024
0.006,-0.01,-0.029,-0.02,0.02,0.005,-0.024,0.039,0.0,-0.068,-0.068,-0.039,-0.127
0.008,-0.005,-0.054,-0.049,0.029,0.02,-0.054,0.024,-0.02,-0.068,-0.068,-0.044,-0.288
0.01,-0.015,-0.063,-0.049,0.039,0.015,-0.059,0.02,-0.02,-0.073,-0.068,-0.049,-0.259
0.012,-0.034,-0.068,-0.034,0.054,0.0,-0.054,0.01,-0.029,-0.088,-0.083,-0.068,-0.132
0.014,-0.039,-0.059,-0.02,0.049,-0.01,-0.039,0.005,-0.034,-0.088,-0.088,-0.073,-0.063
0.016,-0.029,-0.049,-0.02,0.039,-0.005,-0.034,0.01,-0.034,-0.083,-0.078,-0.068,-0.049
0.018,-0.029,-0.059,-0.029,0.044,0.0,-0.044,0.01,-0.034,-0.088,-0.083,-0.063,-0.083
0.02,-0.049,-0.054,-0.005,0.054,-0.024,-0.029,0.02,-0.029,-0.088,-0.088,-0.068,0.02
0.022,-0.044,-0.054,-0.01,0.049,-0.02,-0.034,0.02,-0.029,-0.093,-0.088,-0.068,0.01
0.024,-0.039,-0.039,0.0,0.039,-0.02,-0.02,0.024,-0.029,-0.093,-0.083,-0.059,-0.039
0.026,-0.015,-0.039,-0.024,0.029,0.005,-0.034,0.034,-0.024,-0.083,-0.078,-0.044,-0.142
0.028,-0.01,-0.063,-0.054,0.039,0.02,-0.059,0.024,-0.034,-0.083,-0.073,-0.044,-0.307
0.03,-0.024,-0.083,-0.059,0.054,0.015,-0.073,0.01,-0.044,-0.093,-0.083,-0.059,-0.278
0.032,-0.044,-0.078,-0.034,0.063,-0.005,-0.059,0.005,-0.054,-0.098,-0.093,-0.068,-0.151
0.034,-0.063,-0.083,-0.02,0.073,-0.024,-0.054,0.005,-0.059,-0.102,-0.093,-0.078,-0.088
0.036,-0.044,-0.063,-0.02,0.054,-0.015,-0.044,0.005,-0.059,-0.102,-0.088,-0.078,-0.078
0.038,-0.034,-0.063,-0.029,0.049,-0.005,-0.049,0.005,-0.049,-0.098,-0.088,-0.073,-0.093
0.04,-0.049,-0.063,-0.015,0.059,-0.02,-0.039,0.01,-0.049,-0.107,-0.102,-0.078,0.005
0.042,-0.039,-0.049,-0.01,0.044,-0.015,-0.029,0.015,-0.044,-0.102,-0.098,-0.078,0.0
0.044,-0.029,-0.039,-0.01,0.034,-0.01,-0.024,0.024,-0.049,-0.102,-0.098,-0.068,-0.02
0.046,-0.015,-0.039,-0.024,0.029,0.005,-0.034,0.024,-0.044,-0.093,-0.093,-0.054,-0.132
0.048,-0.005,-0.059,-0.054,0.034,0.024,-0.059,0.015,-0.049,-0.088,-0.088,-0.054,-0.293
0.05,-0.02,-0.083,-0.063,0.054,0.02,-0.073,0.005,-0.059,-0.098,-0.098,-0.073,-0.264
0.052,-0.034,-0.078,-0.044,0.059,0.005,-0.063,0.0,-0.068,-0.102,-0.102,-0.083,-0.146
0.054,-0.049,-0.073,-0.024,0.063,-0.015,-0.049,-0.01,-0.073,-0.112,-0.112,-0.093,-0.083
0.056,-0.044,-0.063,-0.02,0.054,-0.015,-0.044,0.0,-0.073,-0.112,-0.102,-0.088,-0.083
0.058,-0.034,-0.059,-0.024,0.049,-0.005,-0.044,0.0,-0.068,-0.112,-0.102,-0.078,-0.098
0.06,-0.054,-0.054,0.0,0.054,-0.029,-0.029,0.0,-0.068,-0.117,-0.107,-0.088,0.005
0.062,-0.044,-0.039,0.005,0.044,-0.024,-0.02,0.01,-0.059,-0.112,-0.098,-0.083,0.0
0.064,-0.029,-0.024,0.005,0.029,-0.02,-0.01,0.02,-0.049,-0.107,-0.093,-0.078,-0.02
0.066,-0.01,-0.034,-0.024,0.024,0.005,-0.029,0.024,-0.044,-0.102,-0.098,-0.063,-0.127
0.068,0.0,-0.044,-0.044,0.024,0.02,-0.044,0.029,-0.049,-0.088,-0.083,-0.054,-0.278
0.07,-0.015,-0.063,-0.049,0.039,0.015,-0.059,0.02,-0.049,-0.088,-0.088,-0.063,-0.244
0.072,-0.039,-0.059,-0.02,0.049,-0.01,-0.039,0.02,-0.049,-0.093,-0.093,-0.073,-0.132
0.074,-0.034,-0.044,-0.01,0.039,-0.015,-0.029,0.024,-0.049,-0.088,-0.088,-0.068,-0.063
0.076,-0.044,-0.029,0.015,0.039,-0.029,-0.01,0.034,-0.039,-0.083,-0.078,-0.063,-0.063
0.078,-0.039,-0.024,0.015,0.034,-0.029,-0.005,0.034,-0.039,-0.088,-0.078,-0.054,-0.102
0.08,-0.054,0.0,0.054,0.029,-0.054,0.024,0.044,-0.034,-0.083,-0.073,-0.059,0.005
0.082,-0.044,0.02,0.063,0.015,-0.054,0.039,0.054,-0.034,-0.083,-0.068,-0.054,0.0
0.084,-0.029,0.044,0.073,-0.005,-0.054,0.059,0.059,-0.02,-0.073,-0.054,-0.039,-0.01
0.086,0.0,0.049,0.049,-0.024,-0.024,0.049,0.063,-0.02,-0.063,-0.049,-0.034,-0.102
0.088,0.01,0.034,0.024,-0.02,-0.01,0.029,0.063,-0.02,-0.054,-0.044,-0.024,-0.254
0.09,0.0,0.02,0.02,-0.01,-0.01,0.02,0.063,-0.024,-0.054,-0.049,-0.034,-0.21
0.092,-0.034,0.01,0.044,0.015,-0.039,0.024,0.054,-0.029,-0.068,-0.059,-0.044,-0.102
0.094,-0.034,0.02,0.054,0.01,-0.044,0.034,0.054,-0.044,-0.078,-0.063,-0.054,-0.054
0.096,-0.034,0.034,0.068,0.0,-0.054,0.049,0.063,-0.039,-0.073,-0.063,-0.054,-0.039
0.098,-0.034,0.039,0.073,0.0,-0.054,0.054,0.059,-0.049,-0.078,-0.059,-0.044,-0.078
0.1,-0.039,0.073,0.112,-0.015,-0.078,0.093,0.073,-0.034,-0.073,-0.054,-0.039,0.02
0.102,-0.024,0.112,0.137,-0.044,-0.083,0.122,0.088,-0.02,-0.054,-0.029,-0.02,0.034
0.104,-0.01,0.142,0.151,-0.063,-0.083,0.146,0.093,-0.005,-0.039,-0.02,0.0,0.02
0.106,0.02,0.156,0.137,-0.088,-0.059,0.146,0.093,-0.005,-0.029,-0.005,0.02,-0.068
0.108,0.029,0.132,0.102,-0.078,-0.039,0.117,0.083,-0.005,-0.02,-0.005,0.024,-0.215
0.11,0.015,0.117,0.102,-0.063,-0.044,0.107,0.068,-0.01,-0.015,0.005,0.024,-0.171
0.112,0.005,0.117,0.112,-0.059,-0.054,0.112,0.049,-0.02,-0.024,-0.01,0.01,-0.029
0.114,-0.005,0.112,0.117,-0.054,-0.063,0.112,0.034,-0.029,-0.034,-0.02,0.0,0.029
0.116,0.005,0.117,0.112,-0.059,-0.054,0.112,0.029,-0.029,-0.039,-0.029,0.0,0.024
0.118,0.005,0.102,0.098,-0.054,-0.049,0.098,0.034,-0.029,-0.034,-0.02,0.005,-0.01
0.12,0.0,0.107,0.107,-0.054,-0.054,0.107,0.029,-0.029,-0.049,-0.034,-0.005,0.073
0.122,0.02,0.122,0.102,-0.068,-0.044,0.112,0.029,-0.029,-0.049,-0.029,0.0,0.073
0.124,0.029,0.117,0.088,-0.073,-0.029,0.102,0.034,-0.02,-0.039,-0.024,0.015,0.039
0.126,0.059,0.112,0.054,-0.083,0.0,0.083,0.034,-0.02,-0.044,-0.02,0.024,-0.063
0.128,0.063,0.083,0.02,-0.073,0.02,0.049,0.029,-0.02,-0.039,-0.02,0.024,-0.205
0.13,0.049,0.044,-0.005,-0.044,0.024,0.02,0.024,-0.024,-0.044,-0.029,0.015,-0.166
0.132,0.034,0.029,-0.005,-0.029,0.02,0.01,0.015,-0.034,-0.054,-0.044,-0.01,-0.044
0.134,0.02,0.015,-0.005,-0.015,0.01,0.005,0.005,-0.054,-0.073,-0.063,-0.024,0.01
0.136,0.0,-0.01,-0.01,0.005,0.005,-0.01,0.005,-0.059,-0.083,-0.073,-0.034,-0.005
0.138,-0.005,-0.024,-0.02,0.015,0.005,-0.024,0.005,-0.063,-0.088,-0.078,-0.034,-0.044
0.14,-0.034,-0.034,0.0,0.034,-0.02,-0.02,0.005,-0.068,-0.102,-0.098,-0.059,0.034
0.142,-0.029,-0.029,0.0,0.029,-0.015,-0.015,0.005,-0.073,-0.112,-0.098,-0.063,0.005
0.144,-0.029,-0.024,0.005,0.029,-0.02,-0.01,0.01,-0.078,-0.117,-0.102,-0.059,-0.02
0.146,-0.02,-0.039,-0.02,0.029,0.0,-0.029,0.005,-0.083,-0.122,-0.107,-0.054,-0.151
0.148,-0.015,-0.063,-0.049,0.039,0.015,-0.059,0.0,-0.088,-0.117,-0.107,-0.054,-0.312
0.15,-0.034,-0.093,-0.059,0.063,0.01,-0.078,0.005,-0.088,-0.127,-0.117,-0.063,-0.264
0.152,-0.054,-0.098,-0.044,0.078,-0.005,-0.073,-0.01,-0.102,-0.142,-0.122,-0.083,-0.142
0.154,-0.049,-0.078,-0.029,0.063,-0.01,-0.054,-0.01,-0.098,-0.142,-0.127,-0.088,-0.068
0.156,-0.059,-0.083,-0.024,0.073,-0.02,-0.054,-0.01,-0.107,-0.142,-0.132,-0.088,-0.073
0.158,-0.054,-0.093,-0.039,0.073,-0.01,-0.068,-0.01,-0.107,-0.142,-0.132,-0.083,-0.107
0.16,-0.068,-0.093,-0.024,0.083,-0.024,-0.059,-0.015,-0.112,-0.156,-0.146,-0.102,-0.015
0.162,-0.063,-0.088,-0.024,0.078,-0.02,-0.059,-0.015,-0.117,-0.161,-0.151,-0.102,-0.044
0.164,-0.054,-0.078,-0.024,0.068,-0.015,-0.054,-0.005,-0.107,-0.156,-0.146,-0.093,-0.063
0.166,-0.039,-0.083,-0.044,0.063,0.0,-0.063,-0.01,-0.107,-0.156,-0.142,-0.088,-0.181
0.168,-0.034,-0.107,-0.073,0.073,0.02,-0.093,-0.02,-0.107,-0.151,-0.142,-0.083,-0.342
0.17,-0.044,-0.127,-0.083,0.088,0.02,-0.107,-0.02,-0.112,-0.156,-0.151,-0.088,-0.298
0.172,-0.059,-0.132,-0.073,0.098,0.005,-0.102,-0.029,-0.117,-0.166,-0.156,-0.098,-0.171
0.174,-0.059,-0.117,-0.059,0.088,0.0,-0.088,-0.034,-0.122,-0.166,-0.156,-0.107,-0.102
0.176,-0.063,-0.117,-0.054,0.093,-0.005,-0.088,-0.034,-0.122,-0.161,-0.156,-0.107,-0.093
0.178,-0.063,-0.127,-0.063,0.098,0.0,-0.098,-0.024,-0.122,-0.161,-0.151,-0.098,-0.127
0.18,-0.068,-0.112,-0.044,0.093,-0.015,-0.078,-0.02,-0.117,-0.161,-0.151,-0.107,-0.02
0.182,-0.063,-0.102,-0.039,0.083,-0.015,-0.073,-0.02,-0.117,-0.166,-0.161,-0.107,-0.02
0.184,-0.059,-0.093,-0.034,0.078,-0.015,-0.063,-0.02,-0.112,-0.171,-0.161,-0.102,-0.054
0.186,-0.034,-0.093,-0.059,0.063,0.01,-0.078,-0.015,-0.107,-0.166,-0.166,-0.093,-0.166
0.188,-0.034,-0.122,-0.088,0.078,0.024,-0.107,-0.02,-0.112,-0.161,-0.156,-0.083,-0.327
0.19,-0.049,-0.142,-0.093,0.098,0.02,-0.117,-0.02,-0.107,-0.156,-0.151,-0.088,-0.278
0.192,-0.063,-0.146,-0.083,0.107,0.01,-0.117,-0.029,-0.112,-0.161,-0.151,-0.102,-0.146
0.194,-0.073,-0.132,-0.059,0.102,-0.01,-0.098,-0.029,-0.117,-0.161,-0.156,-0.107,-0.093
0.196,-0.068,-0.122,-0.054,0.098,-0.01,-0.088,-0.024,-0.112,-0.161,-0.151,-0.102,-0.073
0.198,-0.068,-0.137,-0.068,0.102,0.0,-0.102,-0.029,-0.112,-0.161,-0.151,-0.102,-0.107
0.2,-0.083,-0.127,-0.044,0.107,-0.02,-0.088,-0.02,-0.112,-0.161,-0.146,-0.102,-0.005
0.202,-0.068,-0.112,-0.044,0.093,-0.015,-0.078,-0.015,-0.107,-0.171,-0.151,-0.102,0.0
0.204,-0.059,-0.107,-0.049,0.083,-0.005,-0.078,-0.015,-0.107,-0.166,-0.156,-0.098,-0.034
0.206,-0.039,-0.107,-0.068,0.073,0.015,-0.088,-0.01,-0.098,-0.156,-0.146,-0.078,-0.146
0.208,-0.034,-0.132,-0.098,0.083,0.029,-0.117,-0.015,-0.102,-0.156,-0.146,-0.078,-0.307
0.21,-0.049,-0.146,-0.098,0.098,0.024,-0.122,-0.015,-0.102,-0.161,-0.156,-0.093,-0.278
0.212,-0.063,-0.156,-0.093,0.112,0.015,-0.127,-0.01,-0.083,-0.151,-0.161,-0.107,-0.151
0.214,-0.068,-0.166,-0.098,0.117,0.015,-0.132,0.005,-0.054,-0.156,-0.181,-0.132,-0.107
0.216,-0.054,-0.176,-0.122,0.117,0.034,-0.151,0.029,-0.01,-0.142,-0.176,-0.151,-0.122
0.218,-0.034,-0.181,-0.146,0.107,0.054,-0.166,0.054,0.049,-0.112,-0.176,-0.151,-0.151
0.22,-0.044,-0.185,-0.142,0.117,0.049,-0.166,0.098,0.107,-0.093,-0.181,-0.176,-0.063
0.222,-0.024,-0.151,-0.127,0.088,0.049,-0.142,0.146,0.185,-0.054,-0.166,-0.176,-0.068
0.224,-0.015,-0.107,-0.093,0.063,0.039,-0.102,0.195,0.264,0.005,-0.127,-0.146,-0.063
0.226,0.0,-0.073,-0.073,0.039,0.034,-0.073,0.234,0.346,0.073,-0.078,-0.112,-0.151
0.228,0.015,-0.068,-0.083,0.029,0.049,-0.078,0.288,0.454,0.166,-0.015,-0.073,-0.259
0.23,0.024,-0.088,-0.112,0.034,0.068,-0.102,0.322,0.586,0.283,0.049,-0.063,-0.185
0.232,0.063,-0.093,-0.156,0.015,0.107,-0.127,0.376,0.805,0.439,0.137,-0.039,-0.005
0.234,0.137,-0.054,-0.19,-0.039,0.161,-0.122,0.41,1.039,0.649,0.288,0.044,0.176
0.236,0.185,0.039,-0.146,-0.112,0.166,-0.054,0.434,1.03,0.791,0.449,0.166,0.303
0.238,0.215,0.156,-0.059,-0.185,0.137,0.049,0.415,0.712,0.844,0.586,0.298,0.4
0.24,0.21,0.264,0.054,-0.234,0.078,0.156,0.293,0.254,0.834,0.698,0.41,0.62
0.242,0.234,0.429,0.195,-0.332,0.02,0.312,0.054,-0.244,0.854,0.849,0.571,0.771
0.244,0.293,0.669,0.376,-0.478,-0.044,0.522,-0.278,-0.669,0.942,1.059,0.766,0.952
0.246,0.337,0.888,0.551,-0.61,-0.107,0.717,-0.566,-0.952,1.088,1.298,0.981,1.039
0.248,0.332,1.074,0.742,-0.703,-0.205,0.908,-0.766,-1.196,1.249,1.557,1.191,1.113
0.25,0.22,1.254,1.035,-0.737,-0.41,1.142,-0.927,-1.444,1.371,1.786,1.376,1.366
0.252,0.112,1.342,1.23,-0.727,-0.561,1.283,-1.142,-1.737,1.259,1.815,1.435,1.566
0.254,0.073,1.293,1.22,-0.683,-0.576,1.254,-1.357,-1.932,0.981,1.649,1.376,1.547
0.256,0.024,1.083,1.059,-0.551,-0.517,1.069,-1.444,-2.04,0.556,1.298,1.186,1.332
0.258,-0.068,0.878,0.947,-0.405,-0.508,0.913,-1.44,-2.167,0.078,0.927,0.966,1.035
0.26,-0.161,0.634,0.795,-0.234,-0.478,0.712,-1.322,-2.118,-0.317,0.532,0.683,0.834
0.262,-0.215,0.356,0.571,-0.068,-0.395,0.464,-1.191,-1.991,-0.625,0.142,0.381,0.498
0.264,-0.22,0.117,0.337,0.054,-0.278,0.224,-1.113,-1.845,-0.859,-0.224,0.098,0.142
0.266,-0.181,-0.073,0.107,0.127,-0.146,0.015,-1.0,-1.576,-0.883,-0.415,-0.083,-0.166
0.268,-0.142,-0.181,-0.039,0.161,-0.054,-0.112,-0.878,-1.308,-0.747,-0.41,-0.142,-0.366
0.27,-0.107,-0.239,-0.132,0.176,0.01,-0.185,-0.771,-1.118,-0.664,-0.4,-0.166,-0.327
0.272,-0.078,-0.288,-0.21,0.185,0.063,-0.249,-0.678,-0.956,-0.625,-0.41,-0.205,-0.21
0.274,-0.049,-0.332,-0.283,0.19,0.117,-0.307,-0.625,-0.834,-0.581,-0.415,-0.224,-0.176
0.276,-0.024,-0.346,-0.322,0.185,0.146,-0.337,-0.556,-0.722,-0.522,-0.4,-0.239,-0.176
0.278,-0.01,-0.356,-0.346,0.185,0.166,-0.351,-0.498,-0.644,-0.493,-0.386,-0.239,-0.215
0.28,0.0,-0.337,-0.337,0.171,0.166,-0.337,-0.434,-0.547,-0.454,-0.371,-0.239,-0.112
0.282,0.01,-0.317,-0.327,0.156,0.166,-0.322,-0.351,-0.454,-0.4,-0.337,-0.22,-0.102
0.284,0.015,-0.293,-0.307,0.142,0.161,-0.303,-0.273,-0.376,-0.356,-0.307,-0.2,-0.132
0.286,0.044,-0.254,-0.298,0.107,0.171,-0.278,-0.21,-0.298,-0.307,-0.278,-0.176,-0.239
0.288,0.044,-0.249,-0.293,0.102,0.166,-0.273,-0.156,-0.229,-0.254,-0.249,-0.156,-0.366
0.29,0.029,-0.254,-0.283,0.112,0.156,-0.268,-0.117,-0.185,-0.224,-0.229,-0.161,-0.307
0.292,0.015,-0.224,-0.239,0.107,0.127,-0.234,-0.078,-0.137,-0.2,-0.22,-0.161,-0.151
0.294,0.0,-0.205,-0.205,0.102,0.102,-0.205,-0.049,-0.088,-0.166,-0.195,-0.146,-0.078
0.296,0.0,-0.185,-0.185,0.093,0.093,-0.185,-0.024,-0.054,-0.142,-0.185,-0.137,-0.068
0.298,-0.005,-0.176,-0.171,0.093,0.083,-0.176,-0.005,-0.029,-0.132,-0.161,-0.122,-0.093
0.3,-0.024,-0.156,-0.132,0.093,0.054,-0.146,0.02,0.005,-0.117,-0.156,-0.122,0.0
0.302,-0.01,-0.117,-0.107,0.063,0.049,-0.112,0.039,0.029,-0.102,-0.146,-0.107,0.0
0.304,0.0,-0.098,-0.098,0.049,0.049,-0.098,0.059,0.054,-0.083,-0.132,-0.093,-0.024
0.306,0.015,-0.093,-0.107,0.039,0.059,-0.102,0.068,0.068,-0.068,-0.117,-0.078,-0.146
0.308,0.029,-0.093,-0.122,0.034,0.073,-0.107,0.073,0.083,-0.049,-0.102,-0.068,-0.283
0.31,0.01,-0.107,-0.117,0.049,0.063,-0.112,0.068,0.093,-0.034,-0.098,-0.068,-0.234
0.312,-0.01,-0.107,-0.098,0.059,0.044,-0.102,0.063,0.098,-0.029,-0.093,-0.073,-0.083
0.314,-0.02,-0.098,-0.078,0.059,0.029,-0.088,0.063,0.102,-0.02,-0.088,-0.068,-0.015
0.316,-0.015,-0.093,-0.078,0.054,0.029,-0.088,0.063,0.107,-0.015,-0.083,-0.068,-0.005
0.318,0.005,-0.073,-0.078,0.034,0.039,-0.078,0.078,0.122,-0.01,-0.068,-0.054,-0.02
0.32,-0.005,-0.063,-0.059,0.034,0.024,-0.063,0.088,0.137,-0.01,-0.073,-0.059,0.088
0.322,-0.005,-0.049,-0.044,0.029,0.02,-0.049,0.102,0.151,0.0,-0.068,-0.054,0.073
0.324,0.015,-0.034,-0.049,0.01,0.029,-0.044,0.102,0.151,-0.005,-0.073,-0.059,0.039
0.326,0.024,-0.044,-0.068,0.01,0.044,-0.059,0.107,0.161,0.005,-0.063,-0.044,-0.083
0.328,0.034,-0.059,-0.093,0.015,0.063,-0.078,0.112,0.166,0.024,-0.059,-0.039,-0.229
0.33,0.02,-0.073,-0.093,0.029,0.054,-0.083,0.107,0.171,0.029,-0.059,-0.044,-0.19
0.332,0.005,-0.073,-0.078,0.034,0.039,-0.078,0.093,0.171,0.024,-0.059,-0.054,-0.059
0.334,0.005,-0.059,-0.063,0.029,0.034,-0.063,0.088,0.171,0.034,-0.049,-0.054,0.024
0.336,0.005,-0.054,-0.059,0.024,0.029,-0.059,0.088,0.171,0.034,-0.054,-0.059,0.024
0.338,0.015,-0.044,-0.059,0.015,0.034,-0.054,0.093,0.185,0.044,-0.034,-0.044,0.005
0.34,0.01,-0.029,-0.039,0.01,0.024,-0.034,0.102,0.19,0.039,-0.039,-0.049,0.122
0.342,0.01,-0.024,-0.034,0.01,0.02,-0.029,0.122,0.205,0.049,-0.034,-0.039,0.112
0.344,0.029,-0.015,-0.044,-0.005,0.034,-0.029,0.127,0.224,0.054,-0.029,-0.029,0.083
0.346,0.039,-0.02,-0.059,-0.01,0.049,-0.039,0.122,0.224,0.059,-0.024,-0.02,-0.039
0.348,0.049,-0.044,-0.093,0.0,0.068,-0.068,0.127,0.229,0.068,-0.029,-0.015,-0.205
0.35,0.039,-0.054,-0.093,0.01,0.063,-0.073,0.122,0.229,0.083,-0.015,-0.015,-0.151
0.352,0.02,-0.059,-0.078,0.02,0.049,-0.068,0.098,0.224,0.078,-0.02,-0.029,-0.029
0.354,0.015,-0.054,-0.068,0.02,0.039,-0.063,0.093,0.224,0.083,-0.015,-0.034,0.015
0.356,0.024,-0.034,-0.059,0.005,0.039,-0.049,0.098,0.234,0.093,-0.01,-0.034,0.024
0.358,0.029,-0.024,-0.054,0.0,0.039,-0.039,0.098,0.244,0.088,0.0,-0.015,0.005
0.36,0.029,-0.005,-0.034,-0.01,0.029,-0.02,0.107,0.259,0.093,0.0,-0.015,0.122
0.362,0.034,0.005,-0.029,-0.02,0.029,-0.015,0.127,0.273,0.107,0.01,-0.005,0.137
0.364,0.044,0.01,-0.034,-0.024,0.039,-0.015,0.137,0.283,0.112,0.015,0.005,0.102
0.366,0.068,0.015,-0.054,-0.039,0.059,-0.02,0.132,0.288,0.122,0.024,0.024,-0.01
0.368,0.068,-0.01,-0.078,-0.029,0.073,-0.044,0.137,0.293,0.137,0.024,0.029,-0.166
0.37,0.063,-0.02,-0.083,-0.02,0.073,-0.054,0.127,0.298,0.142,0.034,0.029,-0.127
0.372,0.054,-0.01,-0.063,-0.02,0.059,-0.039,0.112,0.298,0.142,0.029,0.015,0.0
0.374,0.034,-0.01,-0.044,-0.01,0.039,-0.029,0.098,0.293,0.142,0.029,0.02,0.063
0.376,0.044,0.005,-0.039,-0.024,0.039,-0.02,0.107,0.307,0.156,0.049,0.029,0.073
0.378,0.059,0.015,-0.044,-0.034,0.049,-0.015,0.107,0.317,0.151,0.054,0.044,0.054
0.38,0.049,0.024,-0.024,-0.034,0.034,0.0,0.117,0.337,0.161,0.054,0.039,0.166
0.382,0.063,0.039,-0.024,-0.049,0.044,0.005,0.137,0.351,0.176,0.068,0.044,0.176
0.384,0.078,0.044,-0.034,-0.059,0.054,0.005,0.146,0.356,0.181,0.068,0.054,0.156
0.386,0.102,0.054,-0.049,-0.078,0.073,0.0,0.142,0.361,0.185,0.083,0.068,0.034
0.388,0.122,0.044,-0.078,-0.083,0.098,-0.02,0.142,0.376,0.205,0.088,0.083,-0.088
0.39,0.098,0.024,-0.073,-0.059,0.083,-0.024,0.132,0.371,0.205,0.093,0.073,-0.039
0.392,0.083,0.034,-0.049,-0.059,0.063,-0.01,0.122,0.366,0.205,0.083,0.063,0.083
0.394,0.073,0.039,-0.034,-0.054,0.054,0.0,0.112,0.361,0.205,0.088,0.059,0.137
0.396,0.073,0.049,-0.024,-0.059,0.049,0.01,0.112,0.366,0.21,0.093,0.068,0.132
0.398,0.088,0.059,-0.029,-0.073,0.059,0.015,0.117,0.376,0.205,0.102,0.078,0.107
0.4,0.078,0.068,-0.01,-0.073,0.044,0.029,0.122,0.376,0.205,0.098,0.073,0.205
0.402,0.088,0.088,0.0,-0.088,0.044,0.044,0.142,0.395,0.205,0.112,0.088,0.215
0.404,0.102,0.098,-0.005,-0.098,0.054,0.044,0.151,0.405,0.21,0.117,0.098,0.205
0.406,0.127,0.098,-0.029,-0.112,0.078,0.034,0.146,0.4,0.21,0.107,0.107,0.078
0.408,0.142,0.083,-0.059,-0.112,0.098,0.01,0.146,0.405,0.224,0.112,0.117,-0.059
0.41,0.122,0.063,-0.059,-0.093,0.088,0.0,0.142,0.4,0.22,0.122,0.112,0.0
0.412,0.102,0.063,-0.039,-0.083,0.068,0.01,0.127,0.386,0.21,0.107,0.098,0.112
0.414,0.093,0.073,-0.02,-0.083,0.054,0.024,0.122,0.381,0.205,0.107,0.098,0.171
0.416,0.088,0.068,-0.02,-0.078,0.054,0.024,0.122,0.376,0.2,0.112,0.098,0.161
0.418,0.098,0.078,-0.02,-0.088,0.059,0.029,0.132,0.376,0.195,0.117,0.112,0.122
0.42,0.083,0.093,0.01,-0.088,0.034,0.049,0.137,0.381,0.185,0.102,0.098,0.22
0.422,0.078,0.093,0.015,-0.083,0.029,0.054,0.142,0.376,0.171,0.098,0.098,0.2
0.424,0.093,0.098,0.005,-0.093,0.044,0.049,0.156,0.381,0.171,0.102,0.107,0.166
0.426,0.112,0.107,-0.005,-0.107,0.059,0.049,0.156,0.371,0.161,0.093,0.117,0.039
0.428,0.117,0.088,-0.029,-0.102,0.073,0.029,0.151,0.366,0.166,0.098,0.112,-0.102
0.43,0.112,0.078,-0.034,-0.093,0.073,0.02,0.146,0.351,0.156,0.093,0.107,-0.049
0.432,0.083,0.068,-0.015,-0.073,0.049,0.024,0.132,0.327,0.142,0.078,0.093,0.073
0.434,0.068,0.073,0.005,-0.068,0.029,0.039,0.132,0.322,0.142,0.078,0.093,0.132
0.436,0.063,0.073,0.01,-0.068,0.024,0.039,0.127,0.307,0.132,0.078,0.088,0.122
0.438,0.063,0.073,0.01,-0.068,0.024,0.039,0.137,0.307,0.117,0.078,0.093,0.078
0.44,0.054,0.078,0.024,-0.063,0.015,0.049,0.142,0.307,0.112,0.063,0.078,0.171
0.442,0.049,0.078,0.029,-0.063,0.01,0.054,0.161,0.317,0.107,0.063,0.083,0.156
0.444,0.059,0.083,0.024,-0.068,0.015,0.054,0.171,0.307,0.098,0.063,0.083,0.112
0.446,0.078,0.088,0.01,-0.083,0.034,0.049,0.171,0.307,0.093,0.059,0.093,-0.01
0.448,0.078,0.063,-0.015,-0.068,0.044,0.024,0.171,0.303,0.102,0.054,0.088,-0.156
0.45,0.073,0.054,-0.02,-0.063,0.044,0.015,0.161,0.293,0.093,0.059,0.083,-0.107
0.452,0.049,0.049,0.0,-0.049,0.024,0.024,0.151,0.283,0.083,0.044,0.068,0.034
0.454,0.034,0.054,0.02,-0.044,0.005,0.034,0.146,0.264,0.078,0.034,0.054,0.078
0.456,0.034,0.059,0.024,-0.044,0.005,0.039,0.151,0.268,0.083,0.044,0.059,0.083
0.458,0.039,0.063,0.024,-0.049,0.005,0.044,0.151,0.264,0.078,0.044,0.059,0.054
0.46,0.02,0.068,0.049,-0.044,-0.015,0.059,0.151,0.268,0.073,0.029,0.044,0.146
0.462,0.029,0.078,0.049,-0.054,-0.01,0.063,0.161,0.268,0.063,0.034,0.049,0.132
0.464,0.029,0.073,0.044,-0.049,-0.01,0.059,0.166,0.268,0.068,0.034,0.054,0.093
0.466,0.049,0.078,0.029,-0.063,0.01,0.054,0.161,0.264,0.068,0.029,0.063,-0.029
0.468,0.054,0.059,0.005,-0.054,0.024,0.029,0.161,0.259,0.073,0.029,0.059,-0.166
0.47,0.039,0.039,0.0,-0.039,0.02,0.02,0.156,0.239,0.068,0.029,0.054,-0.127
0.472,0.024,0.039,0.015,-0.029,0.005,0.024,0.142,0.229,0.059,0.024,0.034,0.015
0.474,0.005,0.044,0.039,-0.024,-0.02,0.039,0.127,0.215,0.059,0.015,0.024,0.068
0.476,0.01,0.049,0.039,-0.029,-0.015,0.044,0.127,0.205,0.063,0.015,0.024,0.063
0.478,0.02,0.054,0.034,-0.034,-0.01,0.044,0.127,0.21,0.059,0.024,0.034,0.044
0.48,0.0,0.054,0.054,-0.024,-0.029,0.054,0.127,0.21,0.049,0.015,0.02,0.142
0.482,0.005,0.063,0.059,-0.034,-0.029,0.059,0.132,0.205,0.044,0.01,0.024,0.127
0.484,0.01,0.059,0.049,-0.034,-0.02,0.054,0.132,0.195,0.044,0.015,0.02,0.088
0.486,0.02,0.049,0.029,-0.034,-0.005,0.039,0.127,0.185,0.044,0.015,0.029,-0.044
0.488,0.034,0.034,0.0,-0.034,0.015,0.015,0.127,0.176,0.044,0.01,0.024,-0.181
0.49,0.01,0.005,-0.005,-0.005,0.005,0.0,0.107,0.151,0.034,0.005,0.02,-0.137
0.492,-0.01,0.0,0.01,0.005,-0.01,0.005,0.098,0.137,0.024,-0.005,-0.005,-0.034
0.494,-0.02,0.01,0.029,0.005,-0.024,0.02,0.088,0.127,0.024,-0.005,-0.01,0.029
0.496,-0.02,0.01,0.029,0.005,-0.024,0.02,0.078,0.117,0.015,-0.015,-0.02,0.029
0.498,-0.015,0.015,0.029,0.0,-0.024,0.02,0.083,0.117,0.015,0.0,-0.005,0.015
0.5,-0.029,0.02,0.049,0.005,-0.039,0.034,0.078,0.112,0.005,-0.02,-0.024,0.112
0.502,-0.024,0.02,0.044,0.005,-0.034,0.029,0.088,0.107,-0.005,-0.024,-0.024,0.098
0.504,-0.015,0.02,0.034,0.0,-0.024,0.024,0.088,0.102,-0.005,-0.02,-0.015,0.063
0.506,-0.01,0.0,0.01,0.005,-0.01,0.005,0.083,0.098,-0.005,-0.015,-0.01,-0.068
0.508,0.005,-0.015,-0.02,0.005,0.01,-0.02,0.078,0.093,-0.005,-0.024,-0.005,-0.22
0.51,-0.01,-0.039,-0.029,0.024,0.01,-0.034,0.068,0.078,0.0,-0.02,-0.01,-0.166
0.512,-0.034,-0.049,-0.015,0.044,-0.01,-0.034,0.054,0.059,-0.02,-0.034,-0.034,-0.063
0.514,-0.039,-0.034,0.005,0.039,-0.024,-0.015,0.049,0.054,-0.015,-0.039,-0.034,-0.005
0.516,-0.039,-0.029,0.01,0.034,-0.024,-0.01,0.054,0.054,-0.015,-0.034,-0.034,0.0
0.518,-0.034,-0.029,0.005,0.034,-0.02,-0.015,0.054,0.054,-0.015,-0.024,-0.02,-0.02
0.52,-0.039,-0.015,0.024,0.029,-0.034,0.005,0.059,0.059,-0.02,-0.029,-0.034,0.093
0.522,-0.034,-0.01,0.024,0.024,-0.029,0.005,0.068,0.068,-0.02,-0.029,-0.029,0.083
0.524,-0.015,0.0,0.015,0.01,-0.015,0.005,0.073,0.068,-0.015,-0.024,-0.029,0.054
0.526,0.005,0.005,0.0,-0.005,0.0,0.0,0.073,0.073,-0.01,-0.02,-0.015,-0.054
0.528,0.01,-0.02,-0.029,0.005,0.02,-0.024,0.068,0.068,-0.01,-0.024,-0.01,-0.2
0.53,-0.005,-0.034,-0.029,0.02,0.01,-0.034,0.063,0.059,-0.005,-0.024,-0.015,-0.156
0.532,-0.024,-0.044,-0.02,0.034,-0.005,-0.034,0.044,0.049,-0.01,-0.029,-0.034,-0.034
0.534,-0.039,-0.039,0.0,0.039,-0.02,-0.02,0.039,0.049,-0.01,-0.034,-0.039,0.005
0.536,-0.029,-0.029,0.0,0.029,-0.015,-0.015,0.039,0.054,-0.01,-0.029,-0.039,0.01
0.538,-0.029,-0.029,0.0,0.029,-0.015,-0.015,0.039,0.054,-0.005,-0.024,-0.024,-0.015
0.54,-0.034,-0.024,0.01,0.029,-0.024,-0.01,0.049,0.063,-0.005,-0.024,-0.029,0.088
0.542,-0.029,-0.01,0.02,0.02,-0.024,0.005,0.054,0.068,-0.01,-0.034,-0.034,0.083
0.544,-0.02,0.0,0.02,0.01,-0.02,0.01,0.054,0.073,-0.01,-0.029,-0.029,0.049
0.546,0.01,0.0,-0.01,-0.005,0.01,-0.005,0.063,0.078,0.0,-0.02,-0.015,-0.063
0.548,0.015,-0.02,-0.034,0.005,0.024,-0.029,0.059,0.073,0.005,-0.02,-0.01,-0.2
0.55,-0.005,-0.039,-0.034,0.024,0.015,-0.039,0.054,0.073,0.005,-0.015,-0.024,-0.151
0.552,-0.024,-0.044,-0.02,0.034,-0.005,-0.034,0.039,0.059,-0.005,-0.024,-0.039,-0.034
0.554,-0.039,-0.044,-0.005,0.044,-0.02,-0.024,0.034,0.054,-0.01,-0.034,-0.044,0.005
0.556,-0.029,-0.029,0.0,0.029,-0.015,-0.015,0.034,0.059,-0.01,-0.034,-0.044,0.0
0.558,-0.02,-0.029,-0.01,0.024,-0.005,-0.02,0.034,0.059,-0.01,-0.029,-0.039,-0.024
0.56,-0.039,-0.029,0.01,0.034,-0.024,-0.01,0.039,0.059,-0.02,-0.039,-0.049,0.054
0.562,-0.029,-0.015,0.015,0.024,-0.024,0.0,0.054,0.073,-0.01,-0.034,-0.044,0.049
0.564,-0.02,0.0,0.02,0.01,-0.02,0.01,0.049,0.068,-0.01,-0.034,-0.039,0.024
0.566,0.005,-0.005,-0.01,0.0,0.005,-0.01,0.059,0.078,-0.005,-0.024,-0.024,-0.093
0.568,0.015,-0.015,-0.029,0.0,0.02,-0.024,0.054,0.078,0.0,-0.024,-0.015,-0.22
0.57,-0.005,-0.034,-0.029,0.02,0.01,-0.034,0.049,0.059,-0.01,-0.029,-0.034,-0.176
0.572,-0.02,-0.034,-0.015,0.029,-0.005,-0.024,0.039,0.054,-0.015,-0.039,-0.039,-0.054
0.574,-0.029,-0.034,-0.005,0.034,-0.015,-0.02,0.034,0.049,-0.02,-0.044,-0.044,0.0
0.576,-0.029,-0.034,-0.005,0.034,-0.015,-0.02,0.034,0.049,-0.02,-0.044,-0.044,-0.015
0.578,-0.02,-0.034,-0.015,0.029,-0.005,-0.024,0.039,0.054,-0.02,-0.039,-0.044,-0.044
0.58,-0.039,-0.039,0.0,0.039,-0.02,-0.02,0.044,0.054,-0.024,-0.044,-0.049,0.059
0.582,-0.034,-0.029,0.005,0.034,-0.02,-0.015,0.049,0.054,-0.029,-0.049,-0.049,0.034
0.584,-0.02,-0.015,0.005,0.02,-0.015,-0.005,0.054,0.059,-0.024,-0.044,-0.039,0.015
0.586,0.0,-0.02,-0.02,0.01,0.01,-0.02,0.059,0.063,-0.02,-0.039,-0.024,-0.102
0.588,0.01,-0.029,-0.039,0.01,0.024,-0.034,0.059,0.059,-0.015,-0.034,-0.015,-0.234
0.59,-0.005,-0.049,-0.044,0.029,0.02,-0.049,0.044,0.039,-0.02,-0.044,-0.034,-0.176
0.592,-0.02,-0.054,-0.034,0.039,0.005,-0.044,0.024,0.024,-0.034,-0.059,-0.054,-0.068
0.594,-0.02,-0.039,-0.02,0.029,0.0,-0.029,0.024,0.024,-0.039,-0.059,-0.054,-0.005
0.596,-0.024,-0.039,-0.015,0.034,-0.005,-0.029,0.029,0.024,-0.034,-0.054,-0.054,0.01
0.598,-0.02,-0.039,-0.02,0.029,0.0,-0.029,0.024,0.02,-0.049,-0.059,-0.049,-0.039
0.6,-0.029,-0.034,-0.005,0.034,-0.015,-0.02,0.029,0.029,-0.049,-0.059,-0.059,0.068
0.602,-0.029,-0.034,-0.005,0.034,-0.015,-0.02,0.034,0.02,-0.054,-0.063,-0.059,0.044
0.604,-0.02,-0.02,0.0,0.02,-0.01,-0.01,0.039,0.02,-0.054,-0.068,-0.059,0.005
0.606,0.0,-0.02,-0.02,0.01,0.01,-0.02,0.044,0.024,-0.054,-0.059,-0.044,-0.112
0.608,0.01,-0.039,-0.049,0.015,0.029,-0.044,0.039,0.015,-0.054,-0.063,-0.044,-0.244
0.61,0.0,-0.049,-0.049,0.024,0.024,-0.049,0.034,0.01,-0.049,-0.054,-0.049,-0.185
0.612,-0.02,-0.059,-0.039,0.039,0.01,-0.049,0.024,-0.015,-0.063,-0.068,-0.059,-0.063
0.614,-0.02,-0.049,-0.029,0.034,0.005,-0.039,0.02,-0.02,-0.078,-0.073,-0.068,-0.005
0.616,-0.02,-0.034,-0.015,0.029,-0.005,-0.024,0.02,-0.02,-0.068,-0.068,-0.068,0.005
0.618,-0.015,-0.039,-0.024,0.029,0.005,-0.034,0.015,-0.024,-0.078,-0.078,-0.059,-0.029
0.62,-0.029,-0.034,-0.005,0.034,-0.015,-0.02,0.024,-0.015,-0.083,-0.083,-0.068,0.063
0.622,-0.034,-0.034,0.0,0.034,-0.02,-0.02,0.029,-0.02,-0.083,-0.083,-0.068,0.054
0.624,-0.024,-0.024,0.0,0.024,-0.015,-0.015,0.034,-0.02,-0.083,-0.083,-0.063,0.005
0.626,0.0,-0.02,-0.02,0.01,0.01,-0.02,0.034,-0.015,-0.078,-0.073,-0.049,-0.112
0.628,0.0,-0.049,-0.049,0.024,0.024,-0.049,0.029,-0.024,-0.073,-0.073,-0.049,-0.254
0.63,-0.015,-0.068,-0.054,0.044,0.02,-0.063,0.015,-0.044,-0.083,-0.088,-0.059,-0.229
0.632,-0.029,-0.068,-0.039,0.049,0.005,-0.054,0.01,-0.039,-0.088,-0.088,-0.063,-0.102
0.634,-0.039,-0.059,-0.02,0.049,-0.01,-0.039,0.005,-0.054,-0.093,-0.088,-0.078,-0.044
0.636,-0.034,-0.054,-0.02,0.044,-0.01,-0.039,0.015,-0.049,-0.083,-0.078,-0.073,-0.024
0.638,-0.029,-0.054,-0.024,0.044,-0.005,-0.039,0.015,-0.044,-0.088,-0.083,-0.063,-0.049
0.64,-0.049,-0.054,-0.005,0.054,-0.024,-0.029,0.01,-0.044,-0.098,-0.093,-0.078,0.039
0.642,-0.044,-0.044,0.0,0.044,-0.024,-0.024,0.02,-0.044,-0.102,-0.093,-0.083,0.034
0.644,-0.044,-0.039,0.005,0.044,-0.024,-0.02,0.015,-0.054,-0.107,-0.098,-0.083,-0.02
0.646,-0.02,-0.034,-0.015,0.029,-0.005,-0.024,0.02,-0.049,-0.102,-0.093,-0.068,-0.142
0.648,-0.01,-0.054,-0.044,0.034,0.015,-0.049,0.015,-0.049,-0.098,-0.093,-0.063,-0.278
0.65,-0.029,-0.083,-0.054,0.059,0.01,-0.068,0.0,-0.068,-0.107,-0.107,-0.073,-0.244
0.652,-0.044,-0.088,-0.044,0.068,0.0,-0.068,-0.005,-0.063,-0.107,-0.102,-0.078,-0.122
0.654,-0.049,-0.078,-0.029,0.063,-0.01,-0.054,-0.01,-0.078,-0.112,-0.107,-0.088,-0.063
0.656,-0.044,-0.068,-0.024,0.059,-0.01,-0.049,-0.005,-0.073,-0.107,-0.098,-0.083,-0.054
0.658,-0.034,-0.059,-0.024,0.049,-0.005,-0.044,0.0,-0.068,-0.107,-0.093,-0.068,-0.073
0.66,-0.054,-0.059,-0.005,0.059,-0.024,-0.034,0.005,-0.073,-0.117,-0.107,-0.083,0.02
0.662,-0.049,-0.054,-0.005,0.054,-0.024,-0.029,0.015,-0.063,-0.107,-0.098,-0.083,0.024
0.664,-0.024,-0.039,-0.015,0.034,-0.005,-0.029,0.02,-0.054,-0.098,-0.093,-0.073,0.01
0.666,-0.005,-0.039,-0.034,0.024,0.015,-0.039,0.024,-0.054,-0.098,-0.093,-0.063,-0.122
0.668,-0.005,-0.059,-0.054,0.034,0.024,-0.059,0.02,-0.059,-0.102,-0.088,-0.063,-0.264
0.67,-0.024,-0.083,-0.059,0.054,0.015,-0.073,0.005,-0.068,-0.107,-0.098,-0.073,-0.22
0.672,-0.044,-0.088,-0.044,0.068,0.0,-0.068,0.0,-0.078,-0.117,-0.107,-0.083,-0.117
0.674,-0.049,-0.078,-0.029,0.063,-0.01,-0.054,-0.005,-0.078,-0.122,-0.112,-0.093,-0.063
0.676,-0.049,-0.078,-0.029,0.063,-0.01,-0.054,-0.005,-0.083,-0.122,-0.107,-0.098,-0.049
0.678,-0.039,-0.068,-0.029,0.054,-0.005,-0.049,0.0,-0.073,-0.112,-0.098,-0.083,-0.073
0.68,-0.049,-0.063,-0.015,0.059,-0.02,-0.039,0.005,-0.073,-0.122,-0.107,-0.098,0.034
0.682,-0.049,-0.059,-0.01,0.054,-0.02,-0.034,0.015,-0.073,-0.122,-0.102,-0.093,0.024
0.684,-0.024,-0.039,-0.015,0.034,-0.005,-0.029,0.02,-0.068,-0.117,-0.098,-0.083,0.005
0.686,-0.01,-0.044,-0.034,0.029,0.01,-0.039,0.024,-0.063,-0.112,-0.098,-0.073,-0.117
0.688,-0.01,-0.068,-0.059,0.039,0.024,-0.063,0.02,-0.068,-0.112,-0.093,-0.068,-0.254
0.69,-0.024,-0.083,-0.059,0.054,0.015,-0.073,0.005,-0.078,-0.117,-0.102,-0.083,-0.215
0.692,-0.049,-0.098,-0.049,0.073,0.0,-0.073,-0.005,-0.098,-0.132,-0.112,-0.102,-0.112
0.694,-0.044,-0.078,-0.034,0.063,-0.005,-0.059,-0.005,-0.093,-0.122,-0.107,-0.102,-0.059
0.696,-0.039,-0.073,-0.034,0.059,-0.005,-0.054,0.0,-0.088,-0.117,-0.107,-0.088,-0.049
0.698,-0.044,-0.073,-0.029,0.059,-0.01,-0.054,-0.005,-0.088,-0.127,-0.112,-0.088,-0.093
0.7,-0.049,-0.054,-0.005,0.054,-0.024,-0.029,0.005,-0.083,-0.127,-0.107,-0.098,0.005
0.702,-0.044,-0.034,0.01,0.039,-0.029,-0.015,0.02,-0.073,-0.117,-0.098,-0.093,0.01
0.704,-0.034,-0.02,0.015,0.029,-0.024,-0.005,0.034,-0.059,-0.107,-0.088,-0.078,-0.01
0.706,-0.005,-0.005,0.0,0.005,-0.005,-0.005,0.039,-0.049,-0.098,-0.078,-0.063,-0.112
0.708,0.0,-0.02,-0.02,0.01,0.01,-0.02,0.039,-0.049,-0.088,-0.073,-0.059,-0.244
0.71,-0.015,-0.024,-0.01,0.02,-0.005,-0.02,0.044,-0.044,-0.078,-0.068,-0.054,-0.19
0.712,-0.034,-0.02,0.015,0.029,-0.024,-0.005,0.039,-0.054,-0.088,-0.068,-0.063,-0.068
0.714,-0.044,-0.01,0.034,0.029,-0.039,0.01,0.034,-0.059,-0.083,-0.068,-0.063,-0.024
0.716,-0.034,0.015,0.049,0.01,-0.044,0.029,0.034,-0.059,-0.078,-0.068,-0.059,-0.02
0.718,-0.034,0.02,0.054,0.01,-0.044,0.034,0.039,-0.054,-0.083,-0.059,-0.054,-0.054
0.72,-0.049,0.029,0.078,0.01,-0.063,0.054,0.044,-0.044,-0.083,-0.059,-0.059,0.039
0.722,-0.029,0.044,0.073,-0.005,-0.054,0.059,0.059,-0.034,-0.078,-0.054,-0.049,0.054
0.724,-0.02,0.049,0.068,-0.015,-0.044,0.059,0.068,-0.034,-0.083,-0.054,-0.044,0.02
0.726,0.0,0.054,0.054,-0.024,-0.029,0.054,0.073,-0.034,-0.078,-0.049,-0.034,-0.093
0.728,0.015,0.034,0.02,-0.024,-0.005,0.024,0.073,-0.034,-0.068,-0.044,-0.024,-0.215
0.73,0.0,0.024,0.024,-0.01,-0.015,0.024,0.059,-0.054,-0.078,-0.049,-0.029,-0.176
0.732,-0.015,0.044,0.059,-0.015,-0.039,0.049,0.068,-0.044,-0.068,-0.044,-0.029,-0.039
0.734,-0.024,0.078,0.102,-0.024,-0.063,0.088,0.073,-0.039,-0.049,-0.034,-0.024,0.039
0.736,-0.02,0.112,0.132,-0.044,-0.078,0.122,0.068,-0.029,-0.039,-0.02,-0.01,0.044
0.738,-0.015,0.112,0.127,-0.049,-0.073,0.117,0.063,-0.034,-0.039,-0.02,-0.005,0.01
0.74,-0.034,0.112,0.146,-0.039,-0.093,0.127,0.059,-0.029,-0.039,-0.015,-0.005,0.102
0.742,-0.02,0.137,0.156,-0.059,-0.088,0.146,0.054,-0.029,-0.044,-0.02,-0.005,0.088
0.744,-0.01,0.142,0.151,-0.063,-0.083,0.146,0.049,-0.029,-0.039,-0.015,0.005,0.068
0.746,0.024,0.151,0.127,-0.088,-0.054,0.137,0.044,-0.024,-0.034,-0.01,0.01,-0.054
0.748,0.044,0.132,0.088,-0.088,-0.024,0.107,0.044,-0.029,-0.029,-0.005,0.015,-0.171
0.75,0.02,0.098,0.078,-0.059,-0.029,0.088,0.034,-0.034,-0.034,-0.015,0.01,-0.122
0.752,0.01,0.088,0.078,-0.049,-0.034,0.083,0.029,-0.039,-0.034,-0.015,0.005,0.0
0.754,0.02,0.098,0.078,-0.059,-0.029,0.088,0.02,-0.044,-0.044,-0.02,-0.005,0.063
0.756,0.02,0.102,0.083,-0.059,-0.034,0.093,0.01,-0.039,-0.044,-0.02,0.0,0.068
0.758,0.029,0.093,0.063,-0.059,-0.02,0.078,0.005,-0.044,-0.049,-0.02,0.005,0.02
0.76,0.015,0.083,0.068,-0.049,-0.029,0.073,0.01,-0.039,-0.059,-0.024,-0.01,0.122
0.762,0.02,0.073,0.054,-0.044,-0.02,0.063,0.02,-0.034,-0.054,-0.024,-0.005,0.093
0.764,0.034,0.068,0.034,-0.049,0.0,0.049,0.015,-0.034,-0.063,-0.034,-0.01,0.068
0.766,0.034,0.039,0.005,-0.034,0.015,0.02,0.015,-0.034,-0.068,-0.039,-0.01,-0.063
0.768,0.02,0.0,-0.02,-0.01,0.02,-0.01,0.01,-0.044,-0.073,-0.044,-0.015,-0.21
0.77,0.0,-0.029,-0.029,0.015,0.015,-0.029,0.0,-0.059,-0.083,-0.063,-0.034,-0.171
0.772,-0.02,-0.049,-0.029,0.034,0.005,-0.039,-0.005,-0.073,-0.098,-0.078,-0.054,-0.063
0.774,-0.024,-0.049,-0.024,0.039,0.0,-0.039,-0.01,-0.088,-0.107,-0.088,-0.068,-0.005
0.776,-0.039,-0.054,-0.015,0.049,-0.015,-0.034,-0.01,-0.093,-0.107,-0.088,-0.073,0.0
0.778,-0.034,-0.054,-0.02,0.044,-0.01,-0.039,-0.024,-0.102,-0.122,-0.093,-0.073,-0.054
0.78,-0.049,-0.059,-0.01,0.054,-0.02,-0.034,-0.015,-0.093,-0.127,-0.098,-0.078,0.049
0.782,-0.063,-0.063,0.0,0.063,-0.034,-0.034,-0.01,-0.098,-0.137,-0.107,-0.088,0.024
0.784,-0.049,-0.054,-0.005,0.054,-0.024,-0.029,-0.005,-0.098,-0.151,-0.117,-0.093,-0.015
0.786,-0.029,-0.059,-0.029,0.044,0.0,-0.044,0.0,-0.098,-0.146,-0.112,-0.078,-0.132
0.788,-0.034,-0.088,-0.054,0.063,0.01,-0.073,-0.005,-0.098,-0.132,-0.112,-0.068,-0.273
0.79,-0.054,-0.102,-0.049,0.078,-0.005,-0.078,-0.015,-0.112,-0.137,-0.122,-0.078,-0.234
0.792,-0.068,-0.107,-0.039,0.088,-0.015,-0.073,-0.02,-0.117,-0.146,-0.122,-0.093,-0.107
0.794,-0.063,-0.107,-0.044,0.088,-0.01,-0.078,-0.029,-0.122,-0.146,-0.127,-0.102,-0.054
0.796,-0.054,-0.098,-0.044,0.078,-0.005,-0.073,-0.024,-0.122,-0.142,-0.122,-0.098,-0.039
0.798,-0.049,-0.102,-0.054,0.078,0.0,-0.078,-0.034,-0.122,-0.156,-0.132,-0.093,-0.078
0.8,-0.063,-0.098,-0.034,0.083,-0.015,-0.068,-0.029,-0.122,-0.166,-0.137,-0.102,0.02
0.802,-0.059,-0.088,-0.029,0.073,-0.015,-0.059,-0.024,-0.112,-0.161,-0.132,-0.107,0.024
0.804,-0.049,-0.088,-0.039,0.068,-0.005,-0.063,-0.024,-0.117,-0.171,-0.137,-0.107,-0.005
0.806,-0.034,-0.088,-0.054,0.063,0.01,-0.073,-0.02,-0.117,-0.161,-0.137,-0.093,-0.137
0.808,-0.039,-0.112,-0.073,0.078,0.015,-0.093,-0.029,-0.117,-0.151,-0.132,-0.093,-0.273
0.81,-0.054,-0.132,-0.078,0.093,0.01,-0.107,-0.029,-0.127,-0.156,-0.142,-0.098,-0.239
0.812,-0.068,-0.132,-0.063,0.102,-0.005,-0.098,-0.034,-0.132,-0.161,-0.142,-0.112,-0.112
0.814,-0.073,-0.122,-0.049,0.098,-0.015,-0.088,-0.039,-0.137,-0.161,-0.146,-0.112,-0.063
0.816,-0.068,-0.112,-0.044,0.093,-0.015,-0.078,-0.034,-0.127,-0.161,-0.142,-0.112,-0.044
0.818,-0.068,-0.117,-0.049,0.093,-0.01,-0.083,-0.029,-0.122,-0.166,-0.137,-0.107,-0.068
0.82,-0.088,-0.122,-0.034,0.107,-0.029,-0.078,-0.029,-0.122,-0.171,-0.142,-0.117,0.024
0.822,-0.073,-0.102,-0.029,0.088,-0.024,-0.068,-0.02,-0.112,-0.161,-0.132,-0.107,0.034
0.824,-0.068,-0.098,-0.029,0.083,-0.02,-0.063,-0.015,-0.107,-0.166,-0.132,-0.102,0.015
0.826,-0.049,-0.098,-0.049,0.073,0.0,-0.073,-0.02,-0.112,-0.166,-0.132,-0.093,-0.122
0.828,-0.034,-0.117,-0.083,0.078,0.024,-0.102,-0.024,-0.112,-0.151,-0.127,-0.083,-0.249
0.83,-0.059,-0.142,-0.083,0.102,0.01,-0.112,-0.034,-0.127,-0.156,-0.137,-0.098,-0.215
0.832,-0.073,-0.137,-0.063,0.107,-0.005,-0.102,-0.039,-0.127,-0.166,-0.137,-0.107,-0.107
0.834,-0.083,-0.132,-0.049,0.107,-0.02,-0.093,-0.039,-0.132,-0.166,-0.142,-0.117,-0.054
0.836,-0.088,-0.137,-0.049,0.112,-0.02,-0.093,-0.039,-0.127,-0.166,-0.142,-0.117,-0.068
0.838,-0.073,-0.132,-0.059,0.102,-0.01,-0.098,-0.034,-0.122,-0.161,-0.132,-0.112,-0.102
0.84,-0.083,-0.127,-0.044,0.107,-0.02,-0.088,-0.029,-0.117,-0.166,-0.137,-0.117,0.005
0.842,-0.073,-0.112,-0.039,0.093,-0.02,-0.078,-0.02,-0.102,-0.161,-0.142,-0.117,-0.005
0.844,-0.054,-0.112,-0.059,0.083,0.0,-0.088,0.0,-0.083,-0.161,-0.142,-0.122,-0.02
0.846,-0.034,-0.132,-0.098,0.083,0.029,-0.117,0.02,-0.044,-0.156,-0.151,-0.117,-0.156
0.848,-0.02,-0.156,-0.137,0.088,0.059,-0.146,0.039,0.0,-0.127,-0.146,-0.122,-0.293
0.85,-0.024,-0.181,-0.156,0.102,0.063,-0.171,0.049,0.039,-0.107,-0.156,-0.151,-0.254
0.852,-0.029,-0.19,-0.161,0.112,0.063,-0.176,0.078,0.098,-0.093,-0.161,-0.185,-0.171
0.854,-0.029,-0.166,-0.137,0.098,0.054,-0.151,0.122,0.176,-0.049,-0.146,-0.176,-0.102
0.856,-0.039,-0.137,-0.098,0.088,0.029,-0.117,0.161,0.254,0.005,-0.107,-0.166,-0.098
0.858,-0.034,-0.102,-0.068,0.068,0.015,-0.088,0.21,0.322,0.073,-0.054,-0.137,-0.117
0.86,-0.039,-0.068,-0.029,0.054,-0.005,-0.049,0.268,0.439,0.161,-0.005,-0.117,0.034
0.862,0.0,-0.063,-0.063,0.034,0.029,-0.063,0.317,0.576,0.273,0.068,-0.088,0.068
0.864,0.068,-0.059,-0.127,-0.005,0.098,-0.093,0.371,0.805,0.439,0.166,-0.044,0.117
0.866,0.171,-0.024,-0.195,-0.073,0.181,-0.112,0.41,1.039,0.649,0.317,0.059,0.122
0.868,0.224,0.054,-0.171,-0.137,0.195,-0.059,0.444,1.049,0.815,0.493,0.19,0.132
0.87,0.234,0.156,-0.078,-0.195,0.156,0.039,0.42,0.742,0.869,0.625,0.298,0.317
0.872,0.215,0.249,0.034,-0.229,0.088,0.142,0.303,0.283,0.859,0.732,0.405,0.551
0.874,0.215,0.4,0.185,-0.307,0.015,0.293,0.059,-0.205,0.878,0.874,0.551,0.752
0.876,0.259,0.634,0.376,-0.444,-0.059,0.503,-0.288,-0.644,0.956,1.078,0.747,0.932
0.878,0.298,0.854,0.556,-0.576,-0.132,0.703,-0.581,-0.942,1.088,1.313,0.947,1.088
0.88,0.268,1.069,0.8,-0.669,-0.268,0.932,-0.776,-1.181,1.244,1.562,1.142,1.396
0.882,0.166,1.269,1.103,-0.717,-0.468,1.186,-0.922,-1.43,1.362,1.796,1.327,1.606
0.884,0.102,1.386,1.283,-0.742,-0.59,1.332,-1.127,-1.737,1.244,1.83,1.415,1.645
0.886,0.088,1.347,1.259,-0.717,-0.586,1.303,-1.322,-1.903,0.976,1.669,1.376,1.459
0.888,0.044,1.108,1.064,-0.576,-0.512,1.083,-1.405,-1.991,0.566,1.332,1.191,1.118
0.89,-0.063,0.898,0.961,-0.415,-0.512,0.927,-1.415,-2.133,0.078,0.947,0.956,0.898
0.892,-0.161,0.634,0.795,-0.234,-0.478,0.712,-1.308,-2.103,-0.312,0.561,0.669,0.732
0.894,-0.224,0.346,0.571,-0.059,-0.4,0.459,-1.181,-1.976,-0.625,0.151,0.346,0.454
0.896,-0.244,0.112,0.356,0.068,-0.303,0.234,-1.122,-1.835,-0.859,-0.21,0.063,0.117
0.898,-0.22,-0.078,0.142,0.151,-0.181,0.029,-1.02,-1.576,-0.878,-0.39,-0.107,-0.122
0.9,-0.195,-0.161,0.034,0.181,-0.117,-0.063,-0.893,-1.313,-0.761,-0.4,-0.176,-0.083
0.902,-0.146,-0.205,-0.059,0.176,-0.044,-0.132,-0.781,-1.122,-0.669,-0.376,-0.19,-0.093
0.904,-0.093,-0.254,-0.161,0.176,0.034,-0.21,-0.683,-0.961,-0.625,-0.386,-0.21,-0.137
0.906,-0.039,-0.283,-0.244,0.161,0.102,-0.264,-0.615,-0.825,-0.576,-0.386,-0.215,-0.298
0.908,0.0,-0.322,-0.322,0.161,0.161,-0.322,-0.556,-0.717,-0.512,-0.366,-0.224,-0.42
0.91,0.0,-0.351,-0.351,0.176,0.176,-0.351,-0.503,-0.639,-0.478,-0.351,-0.224,-0.371
0.912,0.0,-0.342,-0.342,0.171,0.171,-0.342,-0.444,-0.556,-0.439,-0.337,-0.244,-0.244
0.914,0.0,-0.332,-0.332,0.166,0.166,-0.332,-0.376,-0.473,-0.395,-0.322,-0.234,-0.161
0.916,0.005,-0.312,-0.317,0.156,0.161,-0.317,-0.317,-0.395,-0.351,-0.293,-0.22,-0.146
0.918,0.005,-0.278,-0.283,0.137,0.142,-0.283,-0.249,-0.327,-0.317,-0.268,-0.21,-0.166
0.92,-0.024,-0.264,-0.239,0.146,0.107,-0.254,-0.19,-0.259,-0.278,-0.254,-0.205,-0.078
0.922,-0.005,-0.229,-0.224,0.117,0.107,-0.229,-0.137,-0.205,-0.239,-0.229,-0.19,-0.078
0.924,0.005,-0.195,-0.2,0.098,0.102,-0.2,-0.093,-0.146,-0.215,-0.21,-0.181,-0.088
0.926,0.01,-0.185,-0.195,0.088,0.102,-0.19,-0.044,-0.088,-0.171,-0.185,-0.146,-0.21
0.928,0.015,-0.19,-0.205,0.088,0.107,-0.2,-0.01,-0.044,-0.127,-0.146,-0.127,-0.327
0.93,0.005,-0.19,-0.195,0.093,0.098,-0.195,0.0,-0.02,-0.117,-0.137,-0.122,-0.268
0.932,-0.015,-0.181,-0.166,0.098,0.073,-0.176,0.005,0.0,-0.112,-0.132,-0.127,-0.137
0.934,-0.015,-0.151,-0.137,0.083,0.059,-0.146,0.024,0.015,-0.098,-0.117,-0.122,-0.059
0.936,-0.015,-0.137,-0.122,0.078,0.054,-0.132,0.039,0.044,-0.073,-0.107,-0.107,-0.049
0.938,-0.01,-0.122,-0.112,0.068,0.049,-0.117,0.049,0.063,-0.068,-0.098,-0.102,-0.083
0.94,-0.02,-0.102,-0.083,0.063,0.029,-0.093,0.063,0.083,-0.049,-0.093,-0.098,0.039
0.942,-0.015,-0.088,-0.073,0.054,0.029,-0.083,0.068,0.088,-0.039,-0.088,-0.093,0.034
0.944,-0.005,-0.068,-0.063,0.039,0.029,-0.068,0.078,0.098,-0.029,-0.078,-0.083,0.01
0.946,0.01,-0.063,-0.073,0.029,0.039,-0.068,0.078,0.107,-0.015,-0.068,-0.068,-0.117
0.948,0.015,-0.078,-0.093,0.034,0.054,-0.088,0.083,0.122,0.0,-0.054,-0.054,-0.249
0.95,0.01,-0.083,-0.093,0.039,0.049,-0.088,0.078,0.127,0.0,-0.049,-0.059,-0.2
0.952,-0.01,-0.083,-0.073,0.049,0.029,-0.078,0.078,0.137,0.005,-0.054,-0.068,-0.078
0.954,-0.01,-0.073,-0.063,0.044,0.024,-0.068,0.083,0.137,-0.005,-0.054,-0.073,-0.015
0.956,-0.01,-0.073,-0.063,0.044,0.024,-0.068,0.093,0.137,0.0,-0.044,-0.068,0.005
0.958,0.0,-0.068,-0.068,0.034,0.034,-0.068,0.098,0.142,0.005,-0.039,-0.068,-0.039
0.96,-0.005,-0.059,-0.054,0.034,0.024,-0.059,0.098,0.151,0.01,-0.049,-0.078,0.073
0.962,0.005,-0.049,-0.054,0.024,0.029,-0.054,0.107,0.161,0.02,-0.034,-0.068,0.083
0.964,0.005,-0.039,-0.044,0.02,0.024,-0.044,0.107,0.171,0.024,-0.029,-0.068,0.054
0.966,0.029,-0.034,-0.063,0.005,0.044,-0.049,0.102,0.176,0.039,-0.024,-0.059,-0.073
0.968,0.029,-0.059,-0.088,0.015,0.059,-0.073,0.102,0.185,0.049,-0.015,-0.044,-0.21
0.97,0.02,-0.063,-0.083,0.024,0.049,-0.073,0.098,0.185,0.054,0.0,-0.049,-0.161
0.972,0.005,-0.059,-0.063,0.029,0.034,-0.063,0.093,0.195,0.049,-0.01,-0.054,-0.039
0.974,0.0,-0.054,-0.054,0.029,0.024,-0.054,0.093,0.19,0.049,-0.015,-0.054,0.0
0.976,0.0,-0.049,-0.049,0.024,0.024,-0.049,0.098,0.19,0.054,-0.015,-0.049,0.0
0.978,0.01,-0.044,-0.054,0.02,0.029,-0.049,0.107,0.2,0.054,-0.005,-0.044,-0.024
0.98,0.005,-0.034,-0.039,0.015,0.02,-0.039,0.112,0.215,0.059,-0.015,-0.049,0.073
0.982,0.024,-0.015,-0.039,-0.005,0.029,-0.029,0.112,0.215,0.073,0.0,-0.049,0.078
0.984,0.029,-0.01,-0.039,-0.01,0.034,-0.024,0.117,0.229,0.083,0.015,-0.034,0.068
0.986,0.049,-0.01,-0.059,-0.02,0.054,-0.034,0.112,0.239,0.088,0.024,-0.02,-0.059
0.988,0.049,-0.024,-0.073,-0.01,0.059,-0.049,0.107,0.244,0.107,0.024,-0.015,-0.19
0.99,0.034,-0.034,-0.068,0.0,0.049,-0.054,0.102,0.249,0.107,0.034,-0.015,-0.146
0.992,0.02,-0.024,-0.044,0.005,0.029,-0.034,0.102,0.254,0.107,0.029,-0.02,-0.024
0.994,0.015,-0.02,-0.034,0.005,0.024,-0.029,0.102,0.249,0.107,0.029,-0.024,0.029
0.996,0.029,-0.015,-0.044,-0.005,0.034,-0.029,0.093,0.254,0.107,0.02,-0.015,0.02
0.998,0.044,-0.01,-0.054,-0.015,0.049,-0.034,0.107,0.268,0.112,0.034,0.0,-0.005
1.0,0.034,-0.005,-0.039,-0.015,0.034,-0.024,0.107,0.278,0.122,0.029,-0.01,0.102
1.002,0.054,0.015,-0.039,-0.034,0.044,-0.015,0.112,0.283,0.137,0.049,0.005,0.122
1.004,0.063,0.024,-0.039,-0.044,0.049,-0.01,0.117,0.293,0.142,0.054,0.015,0.112
1.006,0.078,0.024,-0.054,-0.049,0.063,-0.015,0.117,0.303,0.146,0.068,0.024,-0.01
1.008,0.093,0.015,-0.078,-0.054,0.083,-0.034,0.122,0.322,0.171,0.083,0.044,-0.117
1.01,0.078,0.01,-0.068,-0.044,0.073,-0.029,0.112,0.322,0.171,0.088,0.039,-0.059
1.012,0.063,0.015,-0.049,-0.039,0.054,-0.02,0.112,0.327,0.176,0.083,0.034,0.063
1.014,0.059,0.029,-0.029,-0.044,0.044,0.0,0.112,0.322,0.171,0.083,0.029,0.112
1.016,0.063,0.029,-0.034,-0.044,0.049,-0.005,0.107,0.332,0.171,0.078,0.029,0.102
1.018,0.068,0.039,-0.029,-0.054,0.049,0.005,0.117,0.337,0.171,0.098,0.044,0.078
1.02,0.063,0.049,-0.015,-0.054,0.039,0.015,0.117,0.351,0.185,0.098,0.029,0.185
1.022,0.078,0.063,-0.015,-0.068,0.044,0.024,0.117,0.351,0.19,0.102,0.034,0.181
1.024,0.093,0.068,-0.024,-0.078,0.059,0.02,0.132,0.371,0.205,0.107,0.039,0.176
1.026,0.098,0.068,-0.029,-0.083,0.063,0.02,0.137,0.376,0.215,0.117,0.059,0.054
1.028,0.117,0.054,-0.063,-0.083,0.088,-0.005,0.137,0.39,0.234,0.132,0.073,-0.073
1.03,0.117,0.054,-0.063,-0.083,0.088,-0.005,0.132,0.395,0.234,0.137,0.078,0.0
1.032,0.098,0.059,-0.039,-0.078,0.068,0.01,0.122,0.395,0.224,0.122,0.073,0.112
1.034,0.093,0.059,-0.034,-0.073,0.063,0.01,0.127,0.39,0.215,0.122,0.068,0.166
1.036,0.088,0.059,-0.029,-0.073,0.059,0.015,0.127,0.395,0.215,0.117,0.073,0.161
1.038,0.088,0.063,-0.024,-0.073,0.054,0.02,0.127,0.39,0.205,0.122,0.078,0.107
1.04,0.088,0.078,-0.01,-0.083,0.049,0.034,0.137,0.395,0.215,0.122,0.068,0.224
1.042,0.093,0.083,-0.01,-0.088,0.049,0.034,0.127,0.39,0.215,0.122,0.073,0.21
1.044,0.098,0.088,-0.01,-0.093,0.054,0.039,0.132,0.4,0.215,0.127,0.078,0.176
1.046,0.112,0.098,-0.015,-0.102,0.063,0.039,0.142,0.4,0.22,0.142,0.102,0.059
1.048,0.122,0.083,-0.039,-0.102,0.078,0.02,0.137,0.405,0.229,0.142,0.107,-0.068
1.05,0.117,0.078,-0.039,-0.098,0.078,0.02,0.137,0.4,0.22,0.146,0.107,-0.01
1.052,0.098,0.083,-0.015,-0.088,0.054,0.034,0.137,0.39,0.2,0.132,0.093,0.112
1.054,0.083,0.078,-0.005,-0.078,0.044,0.034,0.137,0.386,0.19,0.127,0.083,0.156
1.056,0.098,0.083,-0.015,-0.088,0.054,0.034,0.127,0.376,0.176,0.117,0.078,0.156
1.058,0.093,0.078,-0.015,-0.083,0.054,0.029,0.132,0.366,0.166,0.117,0.078,0.102
1.06,0.078,0.083,0.005,-0.078,0.034,0.044,0.137,0.361,0.156,0.102,0.063,0.185
1.062,0.083,0.088,0.005,-0.083,0.039,0.044,0.146,0.356,0.156,0.102,0.073,0.19
1.064,0.073,0.093,0.02,-0.083,0.024,0.054,0.151,0.351,0.151,0.098,0.073,0.146
1.066,0.093,0.098,0.005,-0.093,0.044,0.049,0.156,0.346,0.151,0.098,0.083,0.015
1.068,0.098,0.073,-0.024,-0.083,0.059,0.024,0.161,0.351,0.161,0.107,0.088,-0.107
1.07,0.088,0.063,-0.024,-0.073,0.054,0.02,0.151,0.342,0.146,0.102,0.088,-0.059
1.072,0.063,0.068,0.005,-0.063,0.029,0.034,0.156,0.337,0.127,0.088,0.073,0.073
1.074,0.054,0.063,0.01,-0.059,0.02,0.034,0.156,0.327,0.117,0.088,0.063,0.122
1.076,0.068,0.073,0.005,-0.068,0.029,0.039,0.146,0.322,0.102,0.078,0.054,0.107
1.078,0.063,0.078,0.015,-0.068,0.024,0.044,0.161,0.317,0.098,0.073,0.059,0.083
1.08,0.039,0.073,0.034,-0.054,0.0,0.054,0.161,0.317,0.093,0.063,0.039,0.176
1.082,0.049,0.083,0.034,-0.063,0.005,0.059,0.166,0.307,0.093,0.063,0.044,0.166
1.084,0.049,0.088,0.039,-0.068,0.005,0.063,0.166,0.307,0.093,0.054,0.044,0.132
1.086,0.059,0.088,0.029,-0.073,0.015,0.059,0.171,0.307,0.098,0.063,0.059,-0.015
1.088,0.068,0.063,-0.005,-0.063,0.034,0.029,0.166,0.303,0.098,0.068,0.059,-0.137
1.09,0.049,0.044,-0.005,-0.044,0.024,0.02,0.156,0.293,0.093,0.068,0.049,-0.093
1.092,0.044,0.059,0.015,-0.049,0.015,0.034,0.151,0.293,0.083,0.063,0.044,0.029
1.094,0.034,0.054,0.02,-0.044,0.005,0.034,0.151,0.288,0.083,0.059,0.034,0.088
1.096,0.039,0.059,0.02,-0.049,0.01,0.039,0.142,0.278,0.068,0.049,0.024,0.078
1.098,0.044,0.063,0.02,-0.054,0.01,0.039,0.146,0.273,0.073,0.049,0.034,0.049
1.1,0.024,0.063,0.039,-0.044,-0.01,0.049,0.142,0.273,0.063,0.039,0.015,0.156
1.102,0.024,0.068,0.044,-0.044,-0.01,0.054,0.146,0.264,0.063,0.044,0.015,0.142
1.104,0.029,0.073,0.044,-0.049,-0.01,0.059,0.146,0.259,0.068,0.044,0.024,0.122
1.106,0.039,0.068,0.029,-0.054,0.005,0.049,0.142,0.249,0.073,0.049,0.029,-0.015
1.108,0.049,0.049,0.0,-0.049,0.024,0.024,0.137,0.244,0.078,0.054,0.029,-0.146
1.11,0.039,0.039,0.0,-0.039,0.02,0.02,0.122,0.239,0.068,0.049,0.015,-0.093
1.112,0.005,0.024,0.02,-0.015,-0.01,0.02,0.117,0.22,0.059,0.029,-0.005,0.0
1.114,0.0,0.029,0.029,-0.015,-0.015,0.029,0.112,0.215,0.059,0.029,-0.01,0.049
1.116,0.005,0.029,0.024,-0.015,-0.01,0.024,0.107,0.21,0.054,0.029,-0.01,0.059
1.118,0.005,0.029,0.024,-0.015,-0.01,0.024,0.112,0.2,0.054,0.024,-0.005,0.02
1.12,-0.01,0.029,0.039,-0.01,-0.024,0.034,0.112,0.195,0.049,0.02,-0.015,0.132
1.122,-0.005,0.029,0.034,-0.01,-0.02,0.029,0.102,0.176,0.049,0.02,-0.02,0.127
1.124,0.015,0.039,0.024,-0.024,-0.005,0.029,0.107,0.176,0.049,0.02,-0.01,0.098
1.126,0.02,0.029,0.01,-0.024,0.005,0.02,0.093,0.166,0.049,0.02,-0.005,-0.039
1.128,0.024,0.01,-0.015,-0.015,0.02,-0.005,0.088,0.156,0.044,0.02,-0.01,-0.181
1.13,0.01,0.005,-0.005,-0.005,0.005,0.0,0.073,0.142,0.039,0.015,-0.024,-0.132
1.132,-0.02,-0.005,0.015,0.015,-0.02,0.005,0.068,0.127,0.02,0.0,-0.039,-0.02
1.134,-0.024,-0.01,0.015,0.02,-0.02,0.0,0.063,0.117,0.01,-0.005,-0.039,0.015
1.136,-0.015,-0.005,0.01,0.01,-0.015,0.0,0.063,0.117,0.01,0.0,-0.039,0.024
1.138,-0.005,-0.005,0.0,0.005,-0.005,-0.005,0.059,0.102,0.005,-0.01,-0.039,-0.015
1.14,-0.02,0.0,0.02,0.01,-0.02,0.01,0.073,0.107,0.0,-0.015,-0.044,0.093
1.142,-0.02,0.0,0.02,0.01,-0.02,0.01,0.073,0.102,-0.005,-0.01,-0.049,0.093
1.144,-0.02,0.01,0.029,0.005,-0.024,0.02,0.068,0.098,-0.01,-0.015,-0.049,0.059
1.146,0.005,0.015,0.01,-0.01,-0.005,0.01,0.068,0.098,0.005,-0.005,-0.024,-0.054
1.148,0.01,-0.005,-0.015,0.0,0.01,-0.01,0.068,0.093,0.01,0.005,-0.024,-0.166
1.15,-0.005,-0.024,-0.02,0.015,0.005,-0.024,0.054,0.088,0.0,0.0,-0.034,-0.132
1.152,-0.029,-0.029,0.0,0.029,-0.015,-0.015,0.049,0.083,-0.01,-0.015,-0.044,-0.02
1.154,-0.039,-0.039,0.0,0.039,-0.02,-0.02,0.044,0.073,-0.015,-0.015,-0.044,0.02
1.156,-0.029,-0.029,0.0,0.029,-0.015,-0.015,0.044,0.063,-0.02,-0.02,-0.049,0.005
1.158,-0.02,-0.024,-0.005,0.024,-0.01,-0.015,0.044,0.068,-0.015,-0.02,-0.039,-0.024
1.16,-0.029,-0.02,0.01,0.024,-0.02,-0.005,0.049,0.073,-0.015,-0.02,-0.044,0.078
1.162,-0.01,-0.005,0.005,0.01,-0.01,0.0,0.049,0.073,-0.005,-0.02,-0.044,0.088
1.164,-0.015,-0.005,0.01,0.01,-0.015,0.0,0.059,0.078,0.0,-0.02,-0.034,0.068
1.166,0.0,0.005,0.005,0.0,-0.005,0.005,0.054,0.083,0.01,-0.015,-0.029,-0.063
1.168,0.005,-0.01,-0.015,0.005,0.01,-0.015,0.059,0.083,0.015,0.0,-0.015,-0.176
1.17,-0.015,-0.029,-0.015,0.024,0.0,-0.024,0.044,0.078,0.005,-0.01,-0.034,-0.132
1.172,-0.024,-0.024,0.0,0.024,-0.015,-0.015,0.044,0.088,0.005,-0.01,-0.034,-0.02
1.174,-0.029,-0.02,0.01,0.024,-0.02,-0.005,0.034,0.078,0.0,-0.02,-0.044,0.02
1.176,-0.029,-0.029,0.0,0.029,-0.015,-0.015,0.039,0.068,-0.015,-0.024,-0.039,0.0
1.178,-0.02,-0.024,-0.005,0.024,-0.01,-0.015,0.039,0.078,-0.01,-0.024,-0.039,-0.039
1.18,-0.049,-0.029,0.02,0.039,-0.034,-0.005,0.039,0.078,-0.005,-0.029,-0.049,0.063
1.182,-0.039,-0.024,0.015,0.034,-0.029,-0.005,0.039,0.073,-0.01,-0.024,-0.054,0.034
1.184,-0.029,-0.01,0.02,0.02,-0.024,0.005,0.054,0.088,0.005,-0.02,-0.039,0.024
1.186,-0.005,0.0,0.005,0.005,-0.005,0.0,0.044,0.088,0.005,-0.02,-0.039,-0.102
1.188,0.005,-0.02,-0.024,0.01,0.015,-0.024,0.059,0.093,0.02,-0.005,-0.024,-0.21
1.19,-0.01,-0.029,-0.02,0.02,0.005,-0.024,0.039,0.088,0.01,-0.01,-0.039,-0.156
1.192,-0.029,-0.034,-0.005,0.034,-0.015,-0.02,0.034,0.088,0.0,-0.02,-0.049,-0.049
1.194,-0.039,-0.034,0.005,0.039,-0.024,-0.015,0.034,0.083,-0.005,-0.029,-0.054,-0.005
1.196,-0.039,-0.039,0.0,0.039,-0.02,-0.02,0.034,0.073,-0.01,-0.029,-0.049,-0.02
1.198,-0.024,-0.034,-0.01,0.029,-0.01,-0.024,0.029,0.078,-0.015,-0.034,-0.049,-0.063
1.2,-0.034,-0.029,0.005,0.034,-0.02,-0.015,0.034,0.078,-0.01,-0.039,-0.059,0.044
1.202,-0.034,-0.024,0.01,0.029,-0.024,-0.01,0.034,0.068,-0.015,-0.039,-0.059,0.029
1.204,-0.024,-0.015,0.01,0.02,-0.02,-0.005,0.039,0.078,-0.01,-0.034,-0.044,0.01
1.206,0.0,-0.01,-0.01,0.005,0.005,-0.01,0.039,0.088,-0.005,-0.024,-0.034,-0.107
1.208,0.005,-0.029,-0.034,0.015,0.02,-0.034,0.044,0.083,0.005,-0.02,-0.024,-0.224
1.21,-0.01,-0.039,-0.029,0.024,0.01,-0.034,0.039,0.078,0.0,-0.015,-0.029,-0.156
1.212,-0.029,-0.049,-0.02,0.039,-0.005,-0.034,0.034,0.078,-0.01,-0.024,-0.039,-0.044
1.214,-0.029,-0.044,-0.015,0.039,-0.01,-0.029,0.029,0.073,-0.015,-0.034,-0.049,0.005
1.216,-0.02,-0.034,-0.015,0.029,-0.005,-0.024,0.034,0.068,-0.024,-0.039,-0.049,0.015
1.218,-0.02,-0.039,-0.02,0.029,0.0,-0.029,0.034,0.063,-0.029,-0.039,-0.049,-0.034
1.22,-0.034,-0.039,-0.005,0.039,-0.015,-0.024,0.034,0.059,-0.034,-0.059,-0.059,0.063
1.222,-0.034,-0.034,0.0,0.034,-0.02,-0.02,0.034,0.049,-0.039,-0.059,-0.068,0.049
1.224,-0.029,-0.029,0.0,0.029,-0.015,-0.015,0.039,0.054,-0.039,-0.054,-0.059,0.015
1.226,-0.01,-0.024,-0.015,0.02,0.0,-0.02,0.034,0.054,-0.034,-0.049,-0.054,-0.107
1.228,-0.01,-0.039,-0.029,0.024,0.01,-0.034,0.034,0.049,-0.029,-0.049,-0.049,-0.234
1.23,-0.02,-0.044,-0.024,0.034,0.0,-0.034,0.029,0.049,-0.034,-0.044,-0.054,-0.181
1.232,-0.034,-0.044,-0.01,0.039,-0.015,-0.029,0.02,0.034,-0.054,-0.063,-0.068,-0.063
1.234,-0.034,-0.039,-0.005,0.039,-0.015,-0.024,0.015,0.024,-0.054,-0.068,-0.073,-0.02
1.236,-0.029,-0.029,0.0,0.029,-0.015,-0.015,0.024,0.024,-0.059,-0.063,-0.073,-0.01
1.238,-0.029,-0.034,-0.005,0.034,-0.015,-0.02,0.015,0.02,-0.068,-0.068,-0.073,-0.039
1.24,-0.049,-0.039,0.01,0.044,-0.029,-0.015,0.024,0.015,-0.068,-0.078,-0.078,0.049
1.242,-0.039,-0.034,0.005,0.039,-0.024,-0.015,0.024,0.015,-0.063,-0.073,-0.068,0.054
1.244,-0.039,-0.039,0.0,0.039,-0.02,-0.02,0.024,0.01,-0.073,-0.073,-0.059,0.015
1.246,-0.01,-0.034,-0.024,0.024,0.005,-0.029,0.024,0.015,-0.063,-0.063,-0.044,-0.117
1.248,-0.01,-0.049,-0.039,0.029,0.015,-0.044,0.024,0.01,-0.059,-0.063,-0.034,-0.229
1.25,-0.024,-0.068,-0.044,0.049,0.01,-0.059,0.015,0.005,-0.068,-0.068,-0.049,-0.195
1.252,-0.029,-0.063,-0.034,0.049,0.0,-0.049,0.01,-0.01,-0.073,-0.068,-0.054,-0.088
1.254,-0.034,-0.059,-0.024,0.049,-0.005,-0.044,0.01,-0.01,-0.073,-0.073,-0.063,-0.039
1.256,-0.034,-0.054,-0.02,0.044,-0.01,-0.039,0.01,-0.015,-0.078,-0.073,-0.073,-0.039
1.258,-0.024,-0.054,-0.029,0.039,0.0,-0.044,0.01,-0.01,-0.083,-0.073,-0.059,-0.059
1.26,-0.044,-0.059,-0.015,0.054,-0.015,-0.039,0.01,-0.02,-0.093,-0.093,-0.078,0.034
1.262,-0.034,-0.044,-0.01,0.039,-0.015,-0.029,0.02,-0.02,-0.083,-0.093,-0.073,0.034
1.264,-0.034,-0.044,-0.01,0.039,-0.015,-0.029,0.015,-0.02,-0.093,-0.093,-0.068,0.005
1.266,-0.02,-0.049,-0.029,0.034,0.005,-0.039,0.015,-0.02,-0.083,-0.088,-0.059,-0.142
1.268,-0.005,-0.059,-0.054,0.034,0.024,-0.059,0.02,-0.02,-0.078,-0.078,-0.054,-0.259
1.27,-0.029,-0.078,-0.049,0.054,0.01,-0.063,0.01,-0.029,-0.083,-0.083,-0.059,-0.22
1.272,-0.044,-0.078,-0.034,0.063,-0.005,-0.059,-0.005,-0.029,-0.093,-0.088,-0.068,-0.122
1.274,-0.054,-0.073,-0.02,0.063,-0.02,-0.049,-0.005,-0.034,-0.093,-0.093,-0.078,-0.068
1.276,-0.054,-0.073,-0.02,0.063,-0.02,-0.049,0.0,-0.039,-0.093,-0.098,-0.078,-0.068
1.278,-0.034,-0.068,-0.034,0.054,0.0,-0.054,0.0,-0.034,-0.102,-0.098,-0.068,-0.098
1.28,-0.054,-0.068,-0.015,0.063,-0.02,-0.044,0.0,-0.044,-0.107,-0.102,-0.088,0.01
1.282,-0.049,-0.059,-0.01,0.054,-0.02,-0.034,0.0,-0.049,-0.102,-0.098,-0.088,0.005
1.284,-0.034,-0.044,-0.01,0.039,-0.015,-0.029,0.005,-0.039,-0.098,-0.093,-0.078,-0.005
1.286,-0.02,-0.049,-0.029,0.034,0.005,-0.039,0.015,-0.034,-0.088,-0.088,-0.063,-0.117
1.288,-0.015,-0.068,-0.054,0.044,0.02,-0.063,0.01,-0.039,-0.088,-0.088,-0.063,-0.244
1.29,-0.029,-0.078,-0.049,0.054,0.01,-0.063,0.0,-0.054,-0.107,-0.098,-0.073,-0.21
1.292,-0.063,-0.088,-0.024,0.078,-0.02,-0.059,-0.005,-0.054,-0.112,-0.102,-0.083,-0.112
1.294,-0.054,-0.078,-0.024,0.068,-0.015,-0.054,-0.005,-0.059,-0.112,-0.102,-0.088,-0.068
1.296,-0.039,-0.068,-0.029,0.054,-0.005,-0.049,-0.01,-0.054,-0.117,-0.107,-0.088,-0.068
1.298,-0.039,-0.068,-0.029,0.054,-0.005,-0.049,-0.005,-0.054,-0.122,-0.107,-0.078,-0.107
1.3,-0.044,-0.063,-0.02,0.054,-0.015,-0.044,0.0,-0.054,-0.117,-0.107,-0.088,0.015
1.302,-0.049,-0.054,-0.005,0.054,-0.024,-0.029,0.005,-0.059,-0.122,-0.107,-0.088,0.015
1.304,-0.034,-0.049,-0.015,0.044,-0.01,-0.034,0.005,-0.059,-0.117,-0.107,-0.083,-0.01
1.306,-0.02,-0.049,-0.029,0.034,0.005,-0.039,0.01,-0.054,-0.102,-0.098,-0.063,-0.122
1.308,-0.015,-0.068,-0.054,0.044,0.02,-0.063,0.0,-0.063,-0.102,-0.093,-0.068,-0.234
1.31,-0.024,-0.073,-0.049,0.049,0.01,-0.063,0.0,-0.063,-0.102,-0.098,-0.068,-0.195
1.312,-0.044,-0.083,-0.039,0.063,-0.005,-0.063,-0.005,-0.063,-0.107,-0.107,-0.083,-0.102
1.314,-0.054,-0.078,-0.024,0.068,-0.015,-0.054,-0.005,-0.073,-0.117,-0.112,-0.098,-0.068
1.316,-0.039,-0.063,-0.024,0.054,-0.01,-0.044,-0.005,-0.068,-0.122,-0.112,-0.102,-0.073
1.318,-0.039,-0.059,-0.02,0.049,-0.01,-0.039,0.0,-0.068,-0.117,-0.112,-0.098,-0.107
1.32,-0.054,-0.049,0.005,0.054,-0.029,-0.024,0.01,-0.059,-0.112,-0.107,-0.102,-0.015
1.322,-0.039,-0.02,0.02,0.029,-0.029,0.0,0.02,-0.059,-0.112,-0.098,-0.093,-0.01
1.324,-0.034,-0.005,0.029,0.02,-0.034,0.01,0.024,-0.049,-0.102,-0.093,-0.083,-0.024
1.326,-0.015,0.005,0.02,0.005,-0.02,0.01,0.034,-0.034,-0.078,-0.073,-0.054,-0.127
1.328,-0.005,-0.005,0.0,0.005,-0.005,-0.005,0.034,-0.034,-0.073,-0.068,-0.044,-0.234
1.33,-0.024,-0.01,0.015,0.02,-0.02,0.0,0.034,-0.039,-0.073,-0.063,-0.044,-0.185
1.332,-0.039,-0.005,0.034,0.024,-0.039,0.015,0.034,-0.039,-0.073,-0.063,-0.044,-0.078
1.334,-0.044,0.0,0.044,0.024,-0.044,0.02,0.034,-0.044,-0.078,-0.063,-0.049,-0.034
1.336,-0.029,0.02,0.049,0.005,-0.039,0.034,0.029,-0.039,-0.083,-0.063,-0.054,-0.044
1.338,-0.024,0.02,0.044,0.005,-0.034,0.029,0.039,-0.034,-0.073,-0.059,-0.044,-0.073
1.34,-0.039,0.015,0.054,0.015,-0.049,0.034,0.039,-0.039,-0.083,-0.073,-0.063,0.02
1.342,-0.029,0.034,0.063,0.0,-0.049,0.049,0.054,-0.039,-0.078,-0.073,-0.054,0.01
1.344,-0.034,0.044,0.078,-0.005,-0.059,0.059,0.054,-0.039,-0.083,-0.068,-0.054,0.0
1.346,-0.015,0.054,0.068,-0.02,-0.044,0.059,0.059,-0.039,-0.073,-0.059,-0.029,-0.112
1.348,0.0,0.063,0.063,-0.029,-0.034,0.063,0.063,-0.029,-0.063,-0.049,-0.02,-0.205
1.35,-0.015,0.068,0.083,-0.024,-0.049,0.073,0.063,-0.029,-0.049,-0.039,-0.01,-0.151
1.352,-0.024,0.102,0.127,-0.039,-0.078,0.112,0.054,-0.024,-0.054,-0.034,-0.02,-0.034
1.354,-0.024,0.112,0.137,-0.044,-0.083,0.122,0.059,-0.024,-0.049,-0.024,-0.015,0.024
1.356,-0.015,0.122,0.137,-0.054,-0.078,0.127,0.049,-0.02,-0.049,-0.02,-0.01,0.024
1.358,-0.005,0.132,0.137,-0.063,-0.073,0.132,0.049,-0.02,-0.044,-0.02,0.0,-0.015
1.36,-0.024,0.132,0.156,-0.054,-0.093,0.142,0.034,-0.029,-0.054,-0.034,-0.015,0.073
1.362,-0.024,0.132,0.156,-0.054,-0.093,0.142,0.034,-0.029,-0.049,-0.029,-0.015,0.068
1.364,0.0,0.142,0.142,-0.068,-0.073,0.142,0.034,-0.024,-0.044,-0.02,-0.01,0.054
1.366,0.015,0.127,0.112,-0.068,-0.049,0.117,0.024,-0.02,-0.039,-0.02,0.005,-0.073
1.368,0.029,0.112,0.083,-0.068,-0.029,0.098,0.024,-0.02,-0.034,-0.015,0.01,-0.185
1.37,0.024,0.098,0.073,-0.059,-0.024,0.083,0.02,-0.024,-0.034,-0.015,0.005,-0.127
1.372,0.02,0.093,0.073,-0.054,-0.029,0.083,0.005,-0.029,-0.044,-0.02,0.0,-0.02
1.374,0.02,0.088,0.068,-0.054,-0.024,0.078,0.0,-0.029,-0.044,-0.02,0.0,0.034
1.376,0.015,0.078,0.063,-0.044,-0.024,0.068,-0.005,-0.039,-0.059,-0.034,-0.015,0.034
1.378,0.015,0.063,0.049,-0.039,-0.02,0.054,-0.005,-0.049,-0.054,-0.034,-0.015,-0.015
1.38,0.0,0.044,0.044,-0.02,-0.024,0.044,0.0,-0.039,-0.063,-0.044,-0.024,0.083
1.382,0.005,0.029,0.024,-0.015,-0.01,0.024,-0.01,-0.049,-0.073,-0.059,-0.039,0.059
1.384,0.015,0.029,0.015,-0.02,0.0,0.02,-0.005,-0.049,-0.078,-0.063,-0.039,0.029
1.386,0.02,0.005,-0.015,-0.01,0.015,-0.005,-0.01,-0.059,-0.083,-0.083,-0.039,-0.107
1.388,0.01,-0.044,-0.054,0.02,0.029,-0.049,-0.015,-0.068,-0.093,-0.088,-0.044,-0.244
1.39,-0.015,-0.063,-0.049,0.039,0.015,-0.059,-0.02,-0.083,-0.107,-0.093,-0.049,-0.205
1.392,-0.049,-0.073,-0.024,0.063,-0.015,-0.049,-0.024,-0.093,-0.122,-0.102,-0.063,-0.098
1.394,-0.059,-0.068,-0.01,0.063,-0.024,-0.039,-0.029,-0.098,-0.127,-0.117,-0.073,-0.049
1.396,-0.044,-0.059,-0.015,0.054,-0.015,-0.039,-0.024,-0.093,-0.132,-0.117,-0.078,-0.049
1.398,-0.054,-0.073,-0.02,0.063,-0.02,-0.049,-0.029,-0.102,-0.142,-0.132,-0.083,-0.102
1.4,-0.068,-0.073,-0.005,0.073,-0.034,-0.039,-0.029,-0.102,-0.151,-0.142,-0.102,0.0
1.402,-0.063,-0.073,-0.01,0.068,-0.029,-0.044,-0.02,-0.107,-0.151,-0.137,-0.102,-0.01
1.404,-0.059,-0.068,-0.01,0.063,-0.024,-0.039,-0.024,-0.107,-0.151,-0.142,-0.098,-0.049
1.406,-0.039,-0.078,-0.039,0.059,0.0,-0.059,-0.015,-0.102,-0.137,-0.137,-0.088,-0.161
1.408,-0.044,-0.107,-0.063,0.078,0.01,-0.088,-0.02,-0.107,-0.142,-0.132,-0.088,-0.293
1.41,-0.059,-0.122,-0.063,0.093,0.0,-0.093,-0.029,-0.117,-0.151,-0.142,-0.107,-0.264
1.412,-0.073,-0.122,-0.049,0.098,-0.015,-0.088,-0.039,-0.117,-0.161,-0.151,-0.112,-0.156
1.414,-0.073,-0.127,-0.054,0.102,-0.01,-0.093,-0.044,-0.127,-0.171,-0.161,-0.122,-0.112
1.416,-0.063,-0.117,-0.054,0.093,-0.005,-0.088,-0.034,-0.117,-0.166,-0.156,-0.112,-0.102
1.418,-0.059,-0.127,-0.068,0.093,0.005,-0.098,-0.039,-0.122,-0.171,-0.156,-0.112,-0.137
1.42,-0.083,-0.127,-0.044,0.107,-0.02,-0.088,-0.039,-0.122,-0.176,-0.166,-0.122,-0.029
1.422,-0.063,-0.117,-0.054,0.093,-0.005,-0.088,-0.029,-0.122,-0.176,-0.156,-0.117,-0.02
1.424,-0.054,-0.098,-0.044,0.078,-0.005,-0.073,-0.034,-0.117,-0.171,-0.156,-0.122,-0.029
1.426,-0.044,-0.107,-0.063,0.078,0.01,-0.088,-0.029,-0.107,-0.161,-0.151,-0.112,-0.166
1.428,-0.039,-0.127,-0.088,0.083,0.024,-0.107,-0.029,-0.112,-0.156,-0.146,-0.102,-0.288
1.43,-0.049,-0.142,-0.093,0.098,0.02,-0.117,-0.039,-0.122,-0.161,-0.156,-0.107,-0.254
1.432,-0.073,-0.142,-0.068,0.107,-0.005,-0.107,-0.049,-0.127,-0.176,-0.166,-0.122,-0.161
1.434,-0.083,-0.142,-0.059,0.112,-0.015,-0.102,-0.054,-0.132,-0.181,-0.176,-0.127,-0.112
1.436,-0.083,-0.142,-0.059,0.112,-0.015,-0.102,-0.044,-0.127,-0.176,-0.166,-0.122,-0.112
1.438,-0.073,-0.132,-0.059,0.102,-0.01,-0.098,-0.044,-0.122,-0.181,-0.171,-0.122,-0.132
1.44,-0.083,-0.127,-0.044,0.107,-0.02,-0.088,-0.049,-0.122,-0.181,-0.171,-0.127,-0.029
1.442,-0.068,-0.122,-0.054,0.098,-0.01,-0.088,-0.044,-0.117,-0.176,-0.166,-0.122,-0.029
1.444,-0.054,-0.107,-0.054,0.083,0.0,-0.083,-0.029,-0.107,-0.171,-0.166,-0.117,-0.034
1.446,-0.044,-0.112,-0.068,0.078,0.01,-0.093,-0.034,-0.112,-0.166,-0.166,-0.107,-0.176
1.448,-0.039,-0.132,-0.093,0.088,0.024,-0.112,-0.039,-0.112,-0.156,-0.151,-0.102,-0.293
1.45,-0.059,-0.151,-0.093,0.107,0.015,-0.122,-0.044,-0.112,-0.161,-0.156,-0.107,-0.254
1.452,-0.083,-0.156,-0.073,0.122,-0.005,-0.117,-0.049,-0.117,-0.171,-0.171,-0.117,-0.161
1.454,-0.073,-0.146,-0.073,0.112,0.0,-0.112,-0.049,-0.122,-0.176,-0.171,-0.122,-0.107
1.456,-0.073,-0.146,-0.073,0.112,0.0,-0.112,-0.044,-0.117,-0.176,-0.166,-0.122,-0.117
1.458,-0.073,-0.151,-0.078,0.112,0.0,-0.117,-0.044,-0.117,-0.176,-0.181,-0.127,-0.181
1.46,-0.078,-0.146,-0.068,0.112,-0.005,-0.107,-0.034,-0.093,-0.176,-0.185,-0.142,-0.078
1.462,-0.068,-0.151,-0.083,0.112,0.005,-0.117,-0.01,-0.054,-0.166,-0.195,-0.151,-0.083
1.464,-0.034,-0.151,-0.117,0.093,0.039,-0.137,0.015,-0.01,-0.146,-0.195,-0.156,-0.102
1.466,-0.015,-0.171,-0.156,0.093,0.068,-0.166,0.039,0.044,-0.117,-0.185,-0.156,-0.22
1.468,-0.005,-0.2,-0.195,0.102,0.093,-0.2,0.078,0.112,-0.088,-0.176,-0.156,-0.342
1.47,-0.01,-0.21,-0.2,0.112,0.093,-0.205,0.117,0.181,-0.049,-0.171,-0.166,-0.303
1.472,-0.034,-0.185,-0.151,0.112,0.059,-0.171,0.156,0.249,-0.005,-0.156,-0.171,-0.19
1.474,-0.039,-0.132,-0.093,0.088,0.024,-0.112,0.205,0.332,0.059,-0.102,-0.142,-0.122
1.476,-0.029,-0.093,-0.063,0.063,0.015,-0.078,0.244,0.415,0.142,-0.044,-0.117,-0.088
1.478,-0.01,-0.093,-0.083,0.054,0.034,-0.088,0.283,0.537,0.249,0.029,-0.083,-0.093
1.48,0.029,-0.093,-0.122,0.034,0.073,-0.107,0.342,0.752,0.415,0.127,-0.054,0.068
1.482,0.117,-0.054,-0.171,-0.029,0.142,-0.112,0.386,1.0,0.639,0.288,0.034,0.2
1.484,0.185,0.044,-0.142,-0.112,0.161,-0.049,0.42,1.074,0.815,0.459,0.156,0.322
1.486,0.22,0.151,-0.068,-0.185,0.142,0.039,0.439,0.839,0.908,0.615,0.293,0.346
1.488,0.22,0.224,0.005,-0.22,0.107,0.112,0.346,0.415,0.917,0.717,0.41,0.337
1.49,0.22,0.342,0.122,-0.278,0.049,0.229,0.132,-0.063,0.922,0.859,0.547,0.517
1.492,0.249,0.566,0.317,-0.405,-0.034,0.439,-0.21,-0.547,0.976,1.049,0.722,0.815
1.494,0.268,0.795,0.527,-0.532,-0.132,0.659,-0.527,-0.883,1.098,1.283,0.913,1.064
1.496,0.259,1.005,0.747,-0.63,-0.244,0.874,-0.747,-1.157,1.24,1.518,1.108,1.264
1.498,0.166,1.2,1.035,-0.683,-0.434,1.118,-0.922,-1.44,1.337,1.747,1.298,1.415
1.5,0.073,1.322,1.249,-0.698,-0.59,1.283,-1.118,-1.752,1.23,1.796,1.386,1.591
1.502,0.039,1.327,1.288,-0.683,-0.625,1.308,-1.327,-1.972,0.942,1.64,1.357,1.537
1.504,0.005,1.142,1.137,-0.571,-0.566,1.137,-1.41,-2.064,0.527,1.303,1.176,1.308
1.506,-0.063,0.952,1.015,-0.444,-0.542,0.981,-1.41,-2.186,0.059,0.947,0.981,0.952
1.508,-0.146,0.703,0.849,-0.278,-0.498,0.776,-1.322,-2.176,-0.332,0.566,0.727,0.556
1.51,-0.22,0.371,0.59,-0.073,-0.405,0.478,-1.181,-2.02,-0.649,0.151,0.405,0.244
1.512,-0.259,0.127,0.386,0.068,-0.322,0.254,-1.108,-1.874,-0.913,-0.234,0.102,0.02
1.514,-0.244,-0.059,0.185,0.151,-0.215,0.063,-1.02,-1.62,-0.927,-0.434,-0.088,-0.122
1.516,-0.205,-0.156,0.049,0.181,-0.127,-0.054,-0.903,-1.362,-0.8,-0.434,-0.151,-0.185
1.518,-0.151,-0.22,-0.068,0.185,-0.044,-0.146,-0.8,-1.166,-0.717,-0.425,-0.185,-0.239
1.52,-0.127,-0.283,-0.156,0.205,0.015,-0.22,-0.698,-1.0,-0.664,-0.434,-0.21,-0.161
1.522,-0.088,-0.307,-0.22,0.2,0.063,-0.264,-0.63,-0.859,-0.605,-0.429,-0.22,-0.181
1.524,-0.049,-0.322,-0.273,0.185,0.112,-0.298,-0.571,-0.752,-0.556,-0.415,-0.229,-0.21
1.526,-0.01,-0.346,-0.337,0.181,0.161,-0.342,-0.503,-0.659,-0.508,-0.39,-0.224,-0.342
1.528,0.01,-0.356,-0.366,0.176,0.185,-0.361,-0.449,-0.566,-0.454,-0.366,-0.21,-0.454
1.53,0.005,-0.366,-0.371,0.181,0.185,-0.371,-0.381,-0.488,-0.415,-0.342,-0.2,-0.395
1.532,0.0,-0.342,-0.342,0.171,0.171,-0.342,-0.317,-0.405,-0.376,-0.322,-0.2,-0.273
1.534,-0.005,-0.312,-0.307,0.161,0.151,-0.312,-0.259,-0.332,-0.337,-0.303,-0.19,-0.19
1.536,-0.005,-0.298,-0.293,0.151,0.142,-0.298,-0.2,-0.268,-0.293,-0.283,-0.181,-0.181
1.538,0.0,-0.278,-0.278,0.142,0.137,-0.278,-0.151,-0.215,-0.259,-0.264,-0.171,-0.205
1.54,-0.02,-0.259,-0.239,0.142,0.107,-0.249,-0.112,-0.166,-0.224,-0.249,-0.171,-0.098
1.542,-0.02,-0.22,-0.2,0.122,0.088,-0.21,-0.078,-0.112,-0.185,-0.224,-0.156,-0.098
1.544,-0.01,-0.185,-0.176,0.098,0.083,-0.181,-0.039,-0.063,-0.151,-0.19,-0.132,-0.098
1.546,0.005,-0.181,-0.185,0.088,0.093,-0.185,-0.01,-0.029,-0.122,-0.161,-0.098,-0.215
1.548,0.015,-0.185,-0.2,0.088,0.107,-0.195,-0.005,-0.01,-0.102,-0.151,-0.088,-0.342
1.55,-0.005,-0.181,-0.176,0.093,0.083,-0.181,0.01,0.015,-0.093,-0.142,-0.083,-0.283
1.552,-0.02,-0.161,-0.142,0.093,0.059,-0.151,0.024,0.039,-0.088,-0.132,-0.083,-0.166
1.554,-0.015,-0.127,-0.112,0.073,0.049,-0.122,0.029,0.054,-0.073,-0.127,-0.083,-0.102
1.556,-0.02,-0.122,-0.102,0.073,0.039,-0.112,0.044,0.063,-0.063,-0.117,-0.083,-0.093
1.558,-0.024,-0.117,-0.093,0.073,0.034,-0.107,0.049,0.073,-0.054,-0.107,-0.083,-0.122
1.56,-0.02,-0.098,-0.078,0.059,0.029,-0.088,0.049,0.083,-0.039,-0.112,-0.083,-0.01
1.562,-0.02,-0.083,-0.063,0.054,0.02,-0.073,0.054,0.093,-0.034,-0.107,-0.073,0.01
1.564,-0.015,-0.078,-0.063,0.049,0.024,-0.073,0.063,0.107,-0.02,-0.088,-0.059,-0.015
1.566,0.01,-0.073,-0.083,0.034,0.044,-0.078,0.063,0.122,-0.01,-0.068,-0.039,-0.137
1.568,0.015,-0.088,-0.102,0.039,0.059,-0.098,0.073,0.127,-0.005,-0.068,-0.034,-0.264
1.57,0.005,-0.098,-0.102,0.049,0.054,-0.102,0.073,0.137,0.0,-0.068,-0.034,-0.22
1.572,-0.01,-0.098,-0.088,0.054,0.039,-0.093,0.068,0.137,-0.005,-0.068,-0.044,-0.102
1.574,-0.01,-0.093,-0.083,0.054,0.034,-0.088,0.073,0.142,0.0,-0.068,-0.039,-0.044
1.576,-0.005,-0.083,-0.078,0.044,0.034,-0.083,0.078,0.146,0.005,-0.063,-0.044,-0.039
1.578,-0.005,-0.088,-0.083,0.049,0.039,-0.088,0.083,0.146,0.01,-0.073,-0.044,-0.073
1.58,-0.015,-0.073,-0.059,0.044,0.02,-0.068,0.083,0.156,0.02,-0.068,-0.054,0.044
1.582,-0.005,-0.054,-0.049,0.029,0.02,-0.054,0.088,0.171,0.034,-0.059,-0.044,0.059
1.584,0.005,-0.049,-0.054,0.024,0.029,-0.054,0.088,0.176,0.044,-0.049,-0.044,0.044
1.586,0.024,-0.039,-0.063,0.01,0.044,-0.054,0.093,0.195,0.054,-0.029,-0.024,-0.083
1.588,0.029,-0.059,-0.088,0.015,0.059,-0.073,0.093,0.2,0.063,-0.024,-0.01,-0.195
1.59,0.015,-0.073,-0.088,0.029,0.049,-0.083,0.093,0.205,0.063,-0.02,-0.005,-0.161
1.592,0.005,-0.063,-0.068,0.029,0.034,-0.068,0.093,0.205,0.054,-0.029,-0.015,-0.063
1.594,0.0,-0.063,-0.063,0.034,0.029,-0.063,0.088,0.205,0.049,-0.034,-0.02,-0.02
1.596,0.01,-0.059,-0.068,0.024,0.039,-0.063,0.083,0.205,0.054,-0.039,-0.024,-0.039
1.598,0.015,-0.054,-0.068,0.02,0.039,-0.063,0.093,0.215,0.068,-0.024,-0.01,-0.063
1.6,0.0,-0.039,-0.039,0.02,0.02,-0.039,0.098,0.22,0.078,-0.024,-0.02,0.044
1.602,0.015,-0.02,-0.034,0.005,0.024,-0.029,0.098,0.229,0.088,-0.015,-0.01,0.068
1.604,0.029,-0.015,-0.044,-0.005,0.034,-0.029,0.112,0.234,0.102,0.005,0.0,0.068
1.606,0.044,-0.01,-0.054,-0.015,0.049,-0.034,0.107,0.244,0.102,0.01,0.015,-0.063
1.608,0.059,-0.024,-0.083,-0.015,0.068,-0.054,0.107,0.259,0.117,0.015,0.029,-0.181
1.61,0.034,-0.049,-0.083,0.01,0.059,-0.068,0.112,0.273,0.127,0.029,0.029,-0.132
1.612,0.029,-0.044,-0.073,0.01,0.049,-0.059,0.107,0.268,0.117,0.024,0.024,-0.039
1.614,0.029,-0.029,-0.059,0.0,0.044,-0.044,0.102,0.268,0.112,0.015,0.02,0.024
1.616,0.029,-0.029,-0.059,0.0,0.044,-0.044,0.098,0.278,0.122,0.015,0.024,0.015
1.618,0.039,-0.024,-0.063,-0.005,0.049,-0.044,0.107,0.278,0.132,0.029,0.029,-0.015
1.62,0.029,-0.01,-0.039,-0.01,0.034,-0.024,0.098,0.278,0.142,0.024,0.024,0.093
1.622,0.039,0.01,-0.029,-0.024,0.034,-0.01,0.098,0.293,0.151,0.034,0.034,0.107
1.624,0.059,0.024,-0.034,-0.039,0.044,-0.005,0.107,0.307,0.171,0.054,0.049,0.112
1.626,0.078,0.034,-0.044,-0.054,0.059,-0.005,0.107,0.317,0.171,0.063,0.068,-0.01
1.628,0.088,0.024,-0.063,-0.054,0.073,-0.02,0.117,0.332,0.185,0.068,0.078,-0.122
1.63,0.078,0.01,-0.068,-0.044,0.073,-0.029,0.122,0.342,0.19,0.083,0.083,-0.054
1.632,0.063,0.01,-0.054,-0.034,0.059,-0.024,0.117,0.342,0.19,0.078,0.073,0.059
1.634,0.068,0.024,-0.044,-0.044,0.054,-0.01,0.117,0.346,0.19,0.078,0.073,0.112
1.636,0.073,0.024,-0.049,-0.049,0.059,-0.015,0.107,0.346,0.19,0.068,0.068,0.102
1.638,0.073,0.015,-0.059,-0.044,0.063,-0.024,0.117,0.346,0.2,0.078,0.083,0.063
1.64,0.068,0.034,-0.034,-0.049,0.049,0.0,0.112,0.356,0.21,0.078,0.073,0.176
1.642,0.068,0.049,-0.02,-0.059,0.044,0.015,0.117,0.361,0.215,0.083,0.078,0.181
1.644,0.088,0.068,-0.02,-0.078,0.054,0.024,0.127,0.376,0.234,0.098,0.098,0.176
1.646,0.107,0.073,-0.034,-0.088,0.068,0.02,0.132,0.39,0.239,0.112,0.112,0.063
1.648,0.117,0.063,-0.054,-0.088,0.083,0.005,0.132,0.4,0.244,0.117,0.122,-0.054
1.65,0.122,0.059,-0.063,-0.088,0.093,-0.005,0.127,0.4,0.234,0.122,0.122,0.0
1.652,0.102,0.054,-0.049,-0.078,0.073,0.0,0.132,0.4,0.229,0.122,0.117,0.117
1.654,0.088,0.054,-0.034,-0.068,0.059,0.01,0.132,0.4,0.229,0.117,0.112,0.166
1.656,0.093,0.063,-0.029,-0.078,0.059,0.015,0.127,0.395,0.229,0.112,0.117,0.156
1.658,0.093,0.054,-0.039,-0.073,0.063,0.005,0.132,0.39,0.22,0.117,0.117,0.112
1.66,0.083,0.068,-0.015,-0.073,0.049,0.024,0.132,0.39,0.22,0.112,0.112,0.21
1.662,0.088,0.078,-0.01,-0.083,0.049,0.034,0.127,0.386,0.22,0.107,0.117,0.215
1.664,0.083,0.083,0.0,-0.083,0.039,0.039,0.132,0.381,0.22,0.112,0.122,0.181
1.666,0.107,0.088,-0.02,-0.098,0.063,0.034,0.137,0.386,0.22,0.117,0.137,0.044
1.668,0.117,0.083,-0.034,-0.098,0.073,0.024,0.142,0.386,0.215,0.117,0.142,-0.063
1.67,0.107,0.063,-0.044,-0.083,0.073,0.01,0.146,0.376,0.205,0.117,0.137,-0.02
1.672,0.093,0.063,-0.029,-0.078,0.059,0.015,0.151,0.381,0.19,0.107,0.127,0.098
1.674,0.078,0.059,-0.02,-0.068,0.049,0.02,0.146,0.366,0.176,0.098,0.117,0.142
1.676,0.083,0.068,-0.015,-0.073,0.049,0.024,0.142,0.346,0.166,0.078,0.102,0.122
1.678,0.078,0.054,-0.024,-0.063,0.049,0.015,0.146,0.346,0.151,0.083,0.102,0.078
1.68,0.054,0.063,0.01,-0.059,0.02,0.034,0.146,0.342,0.156,0.073,0.093,0.166
1.682,0.063,0.073,0.01,-0.068,0.024,0.039,0.151,0.337,0.156,0.073,0.102,0.171
1.684,0.063,0.078,0.015,-0.068,0.024,0.044,0.156,0.322,0.146,0.068,0.107,0.146
1.686,0.073,0.073,0.0,-0.073,0.034,0.034,0.166,0.337,0.142,0.083,0.127,0.01
1.688,0.078,0.063,-0.015,-0.068,0.044,0.024,0.166,0.327,0.137,0.078,0.127,-0.107
1.69,0.063,0.044,-0.02,-0.054,0.039,0.01,0.166,0.322,0.127,0.068,0.117,-0.063
1.692,0.063,0.049,-0.015,-0.054,0.039,0.015,0.166,0.317,0.112,0.059,0.098,0.049
1.694,0.059,0.049,-0.01,-0.054,0.034,0.02,0.161,0.312,0.102,0.054,0.088,0.098
1.696,0.049,0.054,0.005,-0.049,0.02,0.029,0.156,0.298,0.088,0.034,0.073,0.073
1.698,0.059,0.049,-0.01,-0.054,0.034,0.02,0.161,0.293,0.098,0.039,0.083,0.044
1.7,0.034,0.049,0.015,-0.039,0.01,0.029,0.166,0.293,0.093,0.034,0.073,0.151
1.702,0.029,0.054,0.024,-0.039,0.0,0.039,0.171,0.293,0.098,0.034,0.073,0.156
1.704,0.034,0.063,0.029,-0.049,0.0,0.044,0.171,0.288,0.093,0.039,0.078,0.137
1.706,0.044,0.054,0.01,-0.049,0.015,0.029,0.166,0.288,0.093,0.044,0.093,-0.005
1.708,0.054,0.049,-0.005,-0.049,0.029,0.02,0.161,0.278,0.088,0.044,0.093,-0.122
1.71,0.034,0.034,0.0,-0.034,0.015,0.015,0.161,0.278,0.083,0.044,0.093,-0.068
1.712,0.02,0.034,0.015,-0.024,0.0,0.024,0.156,0.273,0.078,0.034,0.078,0.029
1.714,0.024,0.044,0.02,-0.034,0.0,0.029,0.156,0.264,0.068,0.024,0.068,0.088
1.716,0.015,0.039,0.024,-0.024,-0.005,0.029,0.151,0.249,0.068,0.015,0.059,0.083
1.718,0.02,0.034,0.015,-0.024,0.0,0.024,0.146,0.244,0.073,0.024,0.063,0.039
1.72,0.015,0.044,0.029,-0.029,-0.01,0.034,0.142,0.239,0.068,0.015,0.049,0.146
1.722,0.005,0.044,0.039,-0.024,-0.02,0.039,0.142,0.234,0.073,0.015,0.049,0.156
1.724,0.01,0.049,0.039,-0.029,-0.015,0.044,0.142,0.224,0.068,0.02,0.049,0.132
1.726,0.024,0.044,0.02,-0.034,0.0,0.029,0.132,0.224,0.068,0.029,0.068,-0.005
1.728,0.024,0.029,0.005,-0.024,0.01,0.015,0.127,0.215,0.068,0.024,0.068,-0.137
1.73,0.01,0.02,0.01,-0.015,0.0,0.015,0.122,0.205,0.068,0.024,0.059,-0.083
1.732,-0.005,0.01,0.015,0.0,-0.01,0.01,0.107,0.195,0.049,0.01,0.039,0.01
1.734,-0.01,0.01,0.02,0.0,-0.015,0.015,0.102,0.181,0.044,0.0,0.034,0.049
1.736,-0.01,0.02,0.029,-0.005,-0.02,0.024,0.102,0.161,0.034,-0.01,0.02,0.034
1.738,-0.01,0.01,0.02,0.0,-0.015,0.015,0.098,0.161,0.039,-0.005,0.02,0.0
1.74,-0.02,0.015,0.034,0.005,-0.029,0.024,0.093,0.151,0.034,-0.005,0.015,0.107
1.742,-0.02,0.015,0.034,0.005,-0.029,0.024,0.088,0.137,0.034,-0.005,0.02,0.122
1.744,-0.02,0.015,0.034,0.005,-0.029,0.024,0.088,0.132,0.034,0.0,0.02,0.098
1.746,0.0,0.015,0.015,-0.005,-0.01,0.015,0.088,0.132,0.039,0.005,0.029,-0.029
1.748,-0.005,-0.005,0.0,0.005,-0.005,-0.005,0.078,0.117,0.024,0.0,0.024,-0.166
1.75,-0.015,-0.02,-0.005,0.02,-0.005,-0.015,0.073,0.117,0.024,0.0,0.024,-0.122
1.752,-0.024,-0.024,0.0,0.024,-0.015,-0.015,0.068,0.107,0.01,-0.015,0.005,-0.02
1.754,-0.034,-0.024,0.01,0.029,-0.024,-0.01,0.054,0.093,-0.005,-0.029,0.0,0.02
1.756,-0.034,-0.024,0.01,0.029,-0.024,-0.01,0.059,0.078,-0.01,-0.029,0.0,-0.005
1.758,-0.029,-0.039,-0.01,0.034,-0.01,-0.024,0.054,0.073,-0.005,-0.039,0.0,-0.034
1.76,-0.039,-0.024,0.015,0.034,-0.029,-0.005,0.049,0.063,-0.01,-0.044,-0.02,0.063
1.762,-0.034,-0.015,0.02,0.024,-0.029,0.0,0.054,0.068,-0.005,-0.039,-0.015,0.088
1.764,-0.029,-0.01,0.02,0.02,-0.024,0.005,0.044,0.059,-0.01,-0.039,-0.01,0.063
1.766,-0.005,-0.005,0.0,0.005,-0.005,-0.005,0.049,0.068,-0.005,-0.024,0.0,-0.063
1.768,0.0,-0.01,-0.01,0.005,0.005,-0.01,0.059,0.068,0.005,-0.015,0.015,-0.156
1.77,-0.02,-0.034,-0.015,0.029,-0.005,-0.024,0.054,0.068,-0.005,-0.02,0.01,-0.107
1.772,-0.024,-0.029,-0.005,0.029,-0.01,-0.02,0.044,0.059,-0.02,-0.034,-0.015,-0.02
1.774,-0.039,-0.034,0.005,0.039,-0.024,-0.015,0.039,0.049,-0.029,-0.044,-0.02,0.015
1.776,-0.039,-0.029,0.01,0.034,-0.024,-0.01,0.039,0.049,-0.029,-0.039,-0.02,-0.01
1.778,-0.029,-0.034,-0.005,0.034,-0.015,-0.02,0.039,0.054,-0.02,-0.039,-0.01,-0.039
1.78,-0.039,-0.029,0.01,0.034,-0.024,-0.01,0.029,0.049,-0.02,-0.044,-0.024,0.059
1.782,-0.024,-0.01,0.015,0.02,-0.02,0.0,0.039,0.054,-0.01,-0.034,-0.01,0.078
1.784,-0.024,0.0,0.024,0.015,-0.024,0.01,0.039,0.059,-0.01,-0.029,-0.01,0.068
1.786,-0.005,-0.005,0.0,0.005,-0.005,-0.005,0.039,0.068,-0.005,-0.02,0.0,-0.063
1.788,0.01,-0.005,-0.015,0.0,0.01,-0.01,0.044,0.068,-0.005,-0.024,0.005,-0.181
1.79,-0.015,-0.029,-0.015,0.024,0.0,-0.024,0.039,0.068,0.005,-0.02,0.005,-0.122
1.792,-0.034,-0.039,-0.005,0.039,-0.015,-0.024,0.034,0.068,-0.005,-0.024,-0.015,-0.024
1.794,-0.034,-0.039,-0.005,0.039,-0.015,-0.024,0.039,0.063,-0.01,-0.029,-0.02,0.02
1.796,-0.044,-0.039,0.005,0.044,-0.024,-0.02,0.039,0.063,-0.01,-0.034,-0.015,-0.005
1.798,-0.024,-0.039,-0.015,0.034,-0.005,-0.029,0.034,0.063,-0.005,-0.034,-0.015,-0.039
1.8,-0.034,-0.024,0.01,0.029,-0.024,-0.01,0.034,0.059,-0.01,-0.044,-0.024,0.059
1.802,-0.044,-0.024,0.02,0.034,-0.034,-0.005,0.039,0.063,-0.005,-0.044,-0.029,0.059
1.804,-0.034,-0.015,0.02,0.024,-0.029,0.0,0.039,0.063,-0.005,-0.034,-0.024,0.034
1.806,-0.01,-0.01,0.0,0.01,-0.005,-0.005,0.044,0.068,0.005,-0.024,-0.005,-0.088
1.808,0.0,-0.024,-0.024,0.015,0.01,-0.024,0.049,0.073,0.01,-0.02,0.005,-0.195
1.81,-0.01,-0.039,-0.029,0.024,0.01,-0.034,0.044,0.073,0.01,-0.02,-0.005,-0.132
1.812,-0.029,-0.044,-0.015,0.039,-0.01,-0.029,0.044,0.073,-0.005,-0.024,-0.015,-0.029
1.814,-0.024,-0.034,-0.01,0.029,-0.01,-0.024,0.039,0.063,-0.01,-0.034,-0.02,0.015
1.816,-0.029,-0.034,-0.005,0.034,-0.015,-0.02,0.034,0.059,-0.02,-0.044,-0.024,-0.01
1.818,-0.034,-0.049,-0.015,0.044,-0.01,-0.034,0.034,0.059,-0.01,-0.039,-0.02,-0.054
1.82,-0.044,-0.044,0.0,0.044,-0.024,-0.024,0.034,0.059,-0.01,-0.049,-0.029,0.054
1.822,-0.039,-0.034,0.005,0.039,-0.024,-0.015,0.034,0.054,-0.015,-0.049,-0.034,0.049
1.824,-0.029,-0.02,0.01,0.024,-0.02,-0.005,0.029,0.059,-0.015,-0.044,-0.034,0.01
1.826,-0.01,-0.015,-0.005,0.015,-0.005,-0.01,0.044,0.068,-0.005,-0.029,-0.005,-0.102
1.828,-0.005,-0.039,-0.034,0.024,0.015,-0.039,0.039,0.068,-0.005,-0.029,-0.005,-0.21
1.83,-0.01,-0.044,-0.034,0.029,0.01,-0.039,0.039,0.063,-0.01,-0.034,-0.01,-0.151
1.832,-0.024,-0.044,-0.02,0.034,-0.005,-0.034,0.039,0.059,-0.024,-0.044,-0.024,-0.054
1.834,-0.039,-0.049,-0.01,0.044,-0.015,-0.029,0.039,0.049,-0.034,-0.054,-0.029,-0.01
1.836,-0.024,-0.034,-0.01,0.029,-0.01,-0.024,0.034,0.044,-0.039,-0.059,-0.034,-0.015
1.838,-0.024,-0.039,-0.015,0.034,-0.005,-0.029,0.029,0.039,-0.039,-0.059,-0.034,-0.044
1.84,-0.034,-0.034,0.0,0.034,-0.02,-0.02,0.029,0.034,-0.044,-0.059,-0.039,0.049
1.842,-0.029,-0.024,0.005,0.029,-0.02,-0.01,0.029,0.029,-0.044,-0.063,-0.034,0.063
1.844,-0.029,-0.024,0.005,0.029,-0.02,-0.01,0.024,0.029,-0.039,-0.054,-0.029,0.029
1.846,-0.005,-0.024,-0.02,0.015,0.005,-0.024,0.034,0.039,-0.029,-0.044,-0.01,-0.107
1.848,0.005,-0.039,-0.044,0.02,0.024,-0.044,0.029,0.039,-0.034,-0.049,-0.01,-0.215
1.85,-0.015,-0.054,-0.039,0.034,0.01,-0.049,0.029,0.034,-0.039,-0.054,-0.015,-0.161
1.852,-0.024,-0.049,-0.024,0.039,0.0,-0.039,0.024,0.029,-0.049,-0.054,-0.024,-0.039
1.854,-0.034,-0.049,-0.015,0.044,-0.01,-0.034,0.02,0.02,-0.063,-0.063,-0.034,-0.005
1.856,-0.02,-0.049,-0.029,0.034,0.005,-0.039,0.024,0.02,-0.059,-0.068,-0.034,-0.015
1.858,-0.015,-0.049,-0.034,0.034,0.01,-0.044,0.024,0.015,-0.063,-0.063,-0.029,-0.039
1.86,-0.039,-0.054,-0.015,0.049,-0.015,-0.034,0.015,0.005,-0.068,-0.068,-0.044,0.059
1.862,-0.024,-0.034,-0.01,0.029,-0.01,-0.024,0.02,0.005,-0.063,-0.068,-0.039,0.054
1.864,-0.024,-0.034,-0.01,0.029,-0.01,-0.024,0.02,0.005,-0.059,-0.073,-0.039,0.029
1.866,-0.015,-0.034,-0.02,0.024,0.0,-0.029,0.02,0.0,-0.063,-0.068,-0.029,-0.117
1.868,-0.005,-0.044,-0.039,0.024,0.015,-0.044,0.024,0.005,-0.054,-0.063,-0.02,-0.215
1.87,-0.015,-0.068,-0.054,0.044,0.02,-0.063,0.02,-0.005,-0.063,-0.068,-0.034,-0.176
1.872,-0.034,-0.068,-0.034,0.054,0.0,-0.054,0.015,-0.015,-0.078,-0.078,-0.039,-0.083
1.874,-0.034,-0.054,-0.02,0.044,-0.01,-0.039,0.015,-0.02,-0.088,-0.083,-0.049,-0.034
1.876,-0.024,-0.059,-0.034,0.044,0.005,-0.049,0.01,-0.024,-0.088,-0.093,-0.054,-0.059
1.878,-0.02,-0.054,-0.034,0.039,0.005,-0.044,0.01,-0.024,-0.093,-0.083,-0.049,-0.078
1.88,-0.044,-0.054,-0.01,0.049,-0.02,-0.034,0.005,-0.029,-0.093,-0.088,-0.063,0.024
1.882,-0.034,-0.049,-0.015,0.044,-0.01,-0.034,0.005,-0.034,-0.088,-0.093,-0.063,0.02
1.884,-0.02,-0.039,-0.02,0.029,0.0,-0.029,0.01,-0.029,-0.083,-0.083,-0.059,0.005
1.886,-0.02,-0.044,-0.024,0.034,0.0,-0.034,0.01,-0.029,-0.088,-0.073,-0.049,-0.137
1.888,-0.01,-0.059,-0.049,0.034,0.02,-0.054,0.01,-0.029,-0.083,-0.078,-0.034,-0.249
1.89,-0.015,-0.059,-0.044,0.039,0.015,-0.054,0.01,-0.034,-0.088,-0.078,-0.044,-0.2
1.892,-0.039,-0.073,-0.034,0.059,-0.005,-0.054,-0.005,-0.044,-0.102,-0.093,-0.059,-0.117
1.894,-0.044,-0.059,-0.015,0.054,-0.015,-0.039,0.0,-0.049,-0.107,-0.098,-0.068,-0.068
1.896,-0.039,-0.068,-0.029,0.054,-0.005,-0.049,0.0,-0.049,-0.102,-0.102,-0.063,-0.073
1.898,-0.034,-0.068,-0.034,0.054,0.0,-0.054,0.005,-0.054,-0.107,-0.098,-0.063,-0.112
1.9,-0.044,-0.063,-0.02,0.054,-0.015,-0.044,0.0,-0.054,-0.107,-0.102,-0.068,0.005
1.902,-0.044,-0.063,-0.02,0.054,-0.015,-0.044,0.0,-0.054,-0.098,-0.102,-0.068,0.015
1.904,-0.034,-0.054,-0.02,0.044,-0.01,-0.039,0.005,-0.044,-0.098,-0.093,-0.059,-0.005
1.906,-0.015,-0.044,-0.029,0.029,0.005,-0.039,0.01,-0.044,-0.093,-0.078,-0.039,-0.117
1.908,-0.015,-0.063,-0.049,0.039,0.015,-0.059,0.005,-0.049,-0.098,-0.083,-0.034,-0.229
1.91,-0.024,-0.068,-0.044,0.049,0.01,-0.059,0.005,-0.054,-0.098,-0.088,-0.054,-0.19
1.912,-0.044,-0.073,-0.029,0.059,-0.01,-0.054,0.0,-0.063,-0.112,-0.098,-0.073,-0.098
1.914,-0.054,-0.078,-0.024,0.068,-0.015,-0.054,0.0,-0.068,-0.122,-0.102,-0.078,-0.063
1.916,-0.039,-0.073,-0.034,0.059,-0.005,-0.054,0.005,-0.059,-0.107,-0.098,-0.068,-0.063
1.918,-0.034,-0.078,-0.044,0.059,0.005,-0.063,0.005,-0.068,-0.107,-0.102,-0.073,-0.098
1.92,-0.039,-0.068,-0.029,0.054,-0.005,-0.049,0.0,-0.068,-0.117,-0.102,-0.083,0.005
1.922,-0.039,-0.059,-0.02,0.049,-0.01,-0.039,0.005,-0.063,-0.112,-0.102,-0.068,0.024
1.924,-0.034,-0.054,-0.02,0.044,-0.01,-0.039,0.005,-0.063,-0.107,-0.098,-0.068,-0.005
1.926,-0.015,-0.044,-0.029,0.029,0.005,-0.039,0.01,-0.059,-0.102,-0.083,-0.054,-0.127
1.928,-0.01,-0.063,-0.054,0.039,0.02,-0.059,0.005,-0.059,-0.107,-0.083,-0.049,-0.224
1.93,-0.02,-0.078,-0.059,0.049,0.02,-0.068,0.01,-0.063,-0.107,-0.088,-0.059,-0.181
1.932,-0.034,-0.078,-0.044,0.059,0.005,-0.063,0.01,-0.068,-0.122,-0.098,-0.068,-0.078
1.934,-0.054,-0.088,-0.034,0.073,-0.01,-0.063,-0.005,-0.083,-0.127,-0.112,-0.083,-0.049
1.936,-0.039,-0.078,-0.039,0.059,0.0,-0.059,0.0,-0.073,-0.117,-0.102,-0.073,-0.063
1.938,-0.034,-0.078,-0.044,0.059,0.005,-0.063,0.0,-0.083,-0.122,-0.107,-0.073,-0.102
1.94,-0.059,-0.078,-0.02,0.068,-0.02,-0.049,-0.005,-0.083,-0.127,-0.107,-0.083,-0.01
1.942,-0.049,-0.063,-0.015,0.059,-0.02,-0.039,-0.005,-0.083,-0.122,-0.112,-0.083,-0.01
1.944,-0.034,-0.044,-0.01,0.039,-0.015,-0.029,0.0,-0.073,-0.117,-0.098,-0.073,-0.029
1.946,-0.02,-0.039,-0.02,0.029,0.0,-0.029,0.02,-0.063,-0.098,-0.088,-0.054,-0.142
1.948,-0.005,-0.039,-0.034,0.024,0.015,-0.039,0.02,-0.054,-0.088,-0.078,-0.039,-0.224
1.95,-0.02,-0.044,-0.024,0.034,0.0,-0.034,0.015,-0.063,-0.102,-0.083,-0.049,-0.176
1.952,-0.034,-0.034,0.0,0.034,-0.02,-0.02,0.02,-0.059,-0.102,-0.088,-0.059,-0.063
1.954,-0.044,-0.024,0.02,0.034,-0.034,-0.005,0.024,-0.059,-0.098,-0.078,-0.059,-0.02
1.956,-0.039,-0.015,0.024,0.029,-0.034,0.005,0.024,-0.054,-0.093,-0.073,-0.054,-0.039
1.958,-0.034,-0.01,0.024,0.024,-0.029,0.005,0.039,-0.044,-0.083,-0.068,-0.049,-0.063
1.96,-0.054,-0.005,0.049,0.029,-0.054,0.02,0.029,-0.054,-0.083,-0.063,-0.054,0.034
1.962,-0.044,0.01,0.054,0.02,-0.049,0.029,0.034,-0.049,-0.083,-0.063,-0.044,0.029
1.964,-0.024,0.034,0.059,-0.005,-0.044,0.044,0.044,-0.044,-0.078,-0.059,-0.034,0.015
1.966,-0.005,0.039,0.044,-0.015,-0.024,0.039,0.044,-0.039,-0.068,-0.049,-0.024,-0.112
1.968,0.015,0.039,0.024,-0.024,-0.005,0.029,0.049,-0.029,-0.063,-0.039,-0.015,-0.205
1.97,-0.005,0.034,0.039,-0.015,-0.024,0.034,0.059,-0.034,-0.068,-0.039,-0.02,-0.137
1.972,-0.029,0.029,0.059,0.0,-0.044,0.044,0.049,-0.049,-0.083,-0.054,-0.039,-0.044
1.974,-0.029,0.049,0.078,-0.01,-0.054,0.063,0.054,-0.054,-0.083,-0.054,-0.039,0.015
1.976,-0.02,0.059,0.078,-0.02,-0.049,0.068,0.063,-0.044,-0.078,-0.049,-0.034,0.01
1.978,-0.02,0.068,0.088,-0.024,-0.054,0.078,0.068,-0.039,-0.063,-0.034,-0.015,-0.024
1.98,-0.029,0.098,0.127,-0.034,-0.078,0.112,0.063,-0.034,-0.049,-0.02,-0.01,0.088
1.982,-0.024,0.117,0.142,-0.044,-0.083,0.127,0.063,-0.034,-0.054,-0.015,-0.005,0.073
1.984,0.0,0.137,0.137,-0.068,-0.068,0.137,0.059,-0.029,-0.049,-0.005,0.005,0.059
1.986,0.02,0.146,0.127,-0.083,-0.054,0.137,0.054,-0.024,-0.039,0.01,0.015,-0.059
1.988,0.024,0.137,0.112,-0.078,-0.044,0.122,0.049,-0.024,-0.029,0.02,0.029,-0.156
1.99,0.01,0.127,0.117,-0.068,-0.054,0.122,0.039,-0.024,-0.034,0.01,0.024,-0.098
1.992,-0.005,0.107,0.112,-0.049,-0.059,0.107,0.034,-0.024,-0.044,0.0,0.005,0.01
1.994,-0.005,0.102,0.107,-0.049,-0.059,0.102,0.029,-0.029,-0.054,-0.015,0.0,0.054
1.996,0.015,0.112,0.098,-0.063,-0.044,0.102,0.029,-0.039,-0.059,-0.015,-0.005,0.039
1.998,0.02,0.107,0.088,-0.063,-0.034,0.098,0.02,-0.039,-0.059,-0.015,0.0,0.0
2.0,0.015,0.107,0.093,-0.059,-0.039,0.098,0.015,-0.039,-0.049,-0.015,0.0,0.102
2.002,0.02,0.098,0.078,-0.059,-0.029,0.088,0.01,-0.034,-0.044,-0.015,0.005,0.098
2.004,0.034,0.093,0.059,-0.063,-0.015,0.073,0.005,-0.054,-0.054,-0.02,0.0,0.054
2.006,0.054,0.088,0.034,-0.068,0.01,0.059,0.005,-0.039,-0.044,-0.015,0.02,-0.059
2.008,0.049,0.049,0.0,-0.049,0.024,0.024,0.01,-0.039,-0.044,-0.015,0.015,-0.171
2.01,0.029,0.02,-0.01,-0.024,0.02,0.005,0.005,-0.044,-0.063,-0.029,-0.005,-0.142
2.012,0.01,0.0,-0.01,-0.005,0.01,-0.005,0.0,-0.054,-0.073,-0.044,-0.02,-0.054
2.014,-0.01,-0.02,-0.01,0.015,0.0,-0.015,-0.005,-0.068,-0.093,-0.068,-0.034,-0.01
2.016,-0.005,-0.024,-0.02,0.015,0.005,-0.024,0.0,-0.073,-0.098,-0.073,-0.044,-0.024
2.018,-0.005,-0.039,-0.034,0.024,0.015,-0.039,0.0,-0.078,-0.107,-0.083,-0.059,-0.059
2.02,-0.034,-0.054,-0.02,0.044,-0.01,-0.039,-0.01,-0.093,-0.117,-0.093,-0.073,0.024
2.022,-0.034,-0.044,-0.01,0.039,-0.015,-0.029,-0.015,-0.098,-0.127,-0.098,-0.068,0.015
2.024,-0.039,-0.049,-0.01,0.044,-0.015,-0.029,-0.01,-0.102,-0.127,-0.102,-0.068,-0.02
2.026,-0.015,-0.054,-0.039,0.034,0.01,-0.049,-0.005,-0.093,-0.127,-0.098,-0.063,-0.151
2.028,-0.02,-0.073,-0.054,0.049,0.015,-0.063,-0.01,-0.102,-0.132,-0.102,-0.059,-0.264
2.03,-0.044,-0.088,-0.044,0.068,0.0,-0.068,-0.02,-0.107,-0.146,-0.107,-0.078,-0.22
2.032,-0.059,-0.093,-0.034,0.078,-0.015,-0.063,-0.015,-0.107,-0.156,-0.117,-0.083,-0.122
2.034,-0.063,-0.098,-0.034,0.083,-0.015,-0.068,-0.015,-0.112,-0.156,-0.117,-0.083,-0.063
2.036,-0.054,-0.098,-0.044,0.078,-0.005,-0.073,-0.015,-0.117,-0.156,-0.117,-0.093,-0.083
2.038,-0.044,-0.098,-0.054,0.073,0.005,-0.078,-0.02,-0.122,-0.156,-0.122,-0.098,-0.112
2.04,-0.063,-0.102,-0.039,0.083,-0.015,-0.073,-0.024,-0.127,-0.161,-0.132,-0.107,-0.01
2.042,-0.054,-0.093,-0.039,0.073,-0.01,-0.068,-0.024,-0.122,-0.161,-0.132,-0.102,-0.015
2.044,-0.049,-0.078,-0.029,0.063,-0.01,-0.054,-0.015,-0.122,-0.156,-0.127,-0.102,-0.024
2.046,-0.029,-0.088,-0.059,0.059,0.015,-0.073,-0.015,-0.112,-0.146,-0.117,-0.088,-0.146
2.048,-0.02,-0.098,-0.078,0.059,0.029,-0.088,-0.02,-0.112,-0.146,-0.112,-0.078,-0.254
2.05,-0.049,-0.127,-0.078,0.088,0.015,-0.102,-0.024,-0.122,-0.161,-0.122,-0.098,-0.21
2.052,-0.063,-0.132,-0.068,0.098,0.0,-0.102,-0.024,-0.127,-0.166,-0.132,-0.102,-0.132
2.054,-0.059,-0.122,-0.063,0.093,0.0,-0.093,-0.029,-0.122,-0.171,-0.132,-0.102,-0.078
2.056,-0.059,-0.122,-0.063,0.093,0.0,-0.093,-0.024,-0.132,-0.176,-0.137,-0.107,-0.098
2.058,-0.049,-0.122,-0.073,0.088,0.01,-0.098,-0.024,-0.127,-0.171,-0.137,-0.107,-0.122
2.06,-0.063,-0.117,-0.054,0.093,-0.005,-0.088,-0.029,-0.127,-0.171,-0.142,-0.117,-0.01
2.062,-0.059,-0.107,-0.049,0.083,-0.005,-0.078,-0.029,-0.132,-0.171,-0.142,-0.117,-0.02
2.064,-0.044,-0.093,-0.049,0.068,0.0,-0.073,-0.02,-0.122,-0.161,-0.132,-0.112,-0.034
2.066,-0.029,-0.098,-0.068,0.063,0.02,-0.083,-0.015,-0.112,-0.156,-0.122,-0.098,-0.146
2.068,-0.034,-0.117,-0.083,0.078,0.024,-0.102,-0.015,-0.107,-0.146,-0.117,-0.088,-0.259
2.07,-0.049,-0.127,-0.078,0.088,0.015,-0.102,-0.024,-0.117,-0.161,-0.132,-0.102,-0.2
2.072,-0.068,-0.142,-0.073,0.107,0.0,-0.107,-0.024,-0.117,-0.166,-0.132,-0.112,-0.122
2.074,-0.063,-0.132,-0.068,0.098,0.0,-0.102,-0.029,-0.117,-0.176,-0.137,-0.117,-0.083
2.076,-0.063,-0.127,-0.063,0.098,0.0,-0.098,-0.029,-0.117,-0.171,-0.142,-0.117,-0.093
2.078,-0.068,-0.137,-0.068,0.102,0.0,-0.102,-0.034,-0.127,-0.171,-0.146,-0.117,-0.146
2.08,-0.073,-0.132,-0.059,0.102,-0.01,-0.098,-0.039,-0.122,-0.171,-0.146,-0.122,-0.054
2.082,-0.068,-0.122,-0.054,0.098,-0.01,-0.088,-0.034,-0.117,-0.166,-0.142,-0.122,-0.039
2.084,-0.063,-0.107,-0.044,0.088,-0.01,-0.078,-0.029,-0.117,-0.161,-0.142,-0.122,-0.059
2.086,-0.029,-0.107,-0.078,0.068,0.024,-0.093,-0.015,-0.102,-0.156,-0.127,-0.107,-0.161
2.088,-0.029,-0.132,-0.102,0.083,0.034,-0.117,-0.005,-0.078,-0.146,-0.127,-0.102,-0.283
2.09,-0.039,-0.161,-0.122,0.102,0.039,-0.142,0.015,-0.044,-0.146,-0.137,-0.132,-0.239
2.092,-0.049,-0.176,-0.127,0.112,0.039,-0.151,0.029,-0.005,-0.137,-0.151,-0.156,-0.156
2.094,-0.044,-0.181,-0.137,0.112,0.044,-0.161,0.049,0.044,-0.117,-0.156,-0.171,-0.132
2.096,-0.024,-0.19,-0.166,0.107,0.068,-0.181,0.102,0.112,-0.083,-0.161,-0.181,-0.151
2.098,-0.024,-0.185,-0.161,0.107,0.068,-0.176,0.146,0.185,-0.049,-0.146,-0.176,-0.181
2.1,-0.039,-0.151,-0.112,0.098,0.034,-0.132,0.185,0.259,0.005,-0.117,-0.181,-0.083
2.102,-0.029,-0.083,-0.054,0.059,0.01,-0.068,0.229,0.337,0.073,-0.068,-0.151,-0.044
2.104,-0.015,-0.054,-0.039,0.034,0.01,-0.049,0.278,0.439,0.166,0.0,-0.117,-0.02
2.106,0.044,-0.029,-0.073,-0.005,0.059,-0.054,0.322,0.59,0.283,0.088,-0.073,-0.093
2.108,0.093,-0.054,-0.146,-0.02,0.117,-0.102,0.386,0.825,0.473,0.195,-0.029,-0.117
2.11,0.151,-0.039,-0.19,-0.054,0.171,-0.117,0.42,1.035,0.678,0.346,0.049,0.044
2.112,0.195,0.059,-0.137,-0.127,0.166,-0.039,0.459,1.015,0.825,0.508,0.166,0.293
2.114,0.22,0.171,-0.049,-0.195,0.132,0.059,0.434,0.688,0.874,0.639,0.288,0.478
2.116,0.22,0.268,0.049,-0.244,0.083,0.156,0.288,0.22,0.859,0.742,0.4,0.571
2.118,0.234,0.405,0.171,-0.317,0.029,0.288,0.02,-0.288,0.883,0.893,0.547,0.678
2.12,0.249,0.62,0.371,-0.434,-0.063,0.493,-0.332,-0.722,0.961,1.093,0.737,0.952
2.122,0.293,0.869,0.576,-0.581,-0.142,0.722,-0.62,-1.02,1.093,1.327,0.927,1.147
2.124,0.293,1.078,0.786,-0.683,-0.249,0.932,-0.825,-1.279,1.244,1.566,1.132,1.337
2.126,0.215,1.279,1.064,-0.747,-0.425,1.171,-0.991,-1.537,1.357,1.806,1.327,1.415
2.128,0.142,1.381,1.24,-0.761,-0.551,1.308,-1.205,-1.815,1.264,1.859,1.425,1.405
2.13,0.088,1.322,1.235,-0.703,-0.576,1.279,-1.41,-2.001,0.986,1.703,1.371,1.391
2.132,0.029,1.113,1.083,-0.571,-0.527,1.098,-1.484,-2.098,0.556,1.347,1.181,1.269
2.134,-0.063,0.922,0.986,-0.429,-0.527,0.952,-1.488,-2.225,0.059,0.966,0.961,1.088
2.136,-0.146,0.673,0.82,-0.264,-0.483,0.747,-1.366,-2.186,-0.342,0.571,0.678,0.776
2.138,-0.185,0.361,0.547,-0.088,-0.366,0.454,-1.225,-2.03,-0.649,0.166,0.366,0.395
2.14,-0.229,0.107,0.337,0.063,-0.283,0.22,-1.152,-1.889,-0.903,-0.215,0.073,0.156
2.142,-0.215,-0.078,0.137,0.146,-0.176,0.029,-1.03,-1.62,-0.917,-0.42,-0.122,-0.068
2.144,-0.166,-0.161,0.005,0.166,-0.088,-0.078,-0.888,-1.342,-0.786,-0.415,-0.19,-0.142
2.146,-0.117,-0.224,-0.107,0.171,-0.005,-0.166,-0.766,-1.132,-0.683,-0.39,-0.2,-0.283
2.148,-0.063,-0.293,-0.229,0.181,0.083,-0.264,-0.673,-0.961,-0.63,-0.4,-0.21,-0.415
2.15,-0.039,-0.332,-0.293,0.185,0.127,-0.312,-0.615,-0.834,-0.581,-0.395,-0.229,-0.371
2.152,-0.029,-0.356,-0.327,0.195,0.146,-0.342,-0.556,-0.742,-0.542,-0.381,-0.254,-0.268
2.154,-0.01,-0.356,-0.346,0.185,0.166,-0.351,-0.503,-0.654,-0.503,-0.376,-0.259,-0.21
2.156,0.01,-0.351,-0.361,0.171,0.185,-0.356,-0.434,-0.561,-0.459,-0.351,-0.254,-0.2
2.158,0.015,-0.346,-0.361,0.166,0.185,-0.356,-0.356,-0.464,-0.4,-0.317,-0.239,-0.229
2.16,0.01,-0.317,-0.327,0.156,0.166,-0.322,-0.288,-0.39,-0.356,-0.293,-0.234,-0.112
2.162,0.0,-0.278,-0.278,0.142,0.137,-0.278,-0.229,-0.317,-0.317,-0.273,-0.224,-0.117
2.164,0.005,-0.249,-0.254,0.122,0.127,-0.254,-0.166,-0.249,-0.273,-0.249,-0.215,-0.132
2.166,0.024,-0.234,-0.259,0.107,0.142,-0.249,-0.117,-0.185,-0.229,-0.22,-0.185,-0.234
2.168,0.024,-0.239,-0.264,0.107,0.142,-0.254,-0.083,-0.127,-0.185,-0.19,-0.166,-0.337
2.17,0.015,-0.22,-0.234,0.102,0.122,-0.229,-0.044,-0.083,-0.156,-0.166,-0.161,-0.283
2.172,-0.005,-0.2,-0.195,0.102,0.093,-0.2,-0.02,-0.059,-0.142,-0.156,-0.161,-0.156
2.174,-0.01,-0.176,-0.166,0.093,0.078,-0.171,-0.01,-0.034,-0.142,-0.151,-0.156,-0.098
2.176,0.005,-0.151,-0.156,0.073,0.078,-0.156,0.01,-0.005,-0.122,-0.142,-0.142,-0.102
2.178,0.005,-0.151,-0.156,0.073,0.078,-0.156,0.029,0.02,-0.107,-0.127,-0.137,-0.127
2.18,0.0,-0.127,-0.127,0.063,0.063,-0.127,0.049,0.039,-0.088,-0.112,-0.127,-0.015
2.182,0.0,-0.102,-0.102,0.054,0.049,-0.102,0.059,0.068,-0.073,-0.098,-0.122,0.015
2.184,-0.005,-0.088,-0.083,0.049,0.039,-0.088,0.063,0.083,-0.054,-0.093,-0.122,-0.015
2.186,0.02,-0.083,-0.102,0.034,0.059,-0.093,0.068,0.088,-0.034,-0.073,-0.098,-0.132
2.188,0.02,-0.098,-0.117,0.039,0.068,-0.107,0.068,0.098,-0.029,-0.068,-0.088,-0.234
2.19,0.0,-0.107,-0.107,0.054,0.054,-0.107,0.063,0.098,-0.02,-0.068,-0.093,-0.19
2.192,-0.005,-0.093,-0.088,0.049,0.039,-0.093,0.068,0.107,-0.015,-0.063,-0.093,-0.083
2.194,-0.005,-0.083,-0.078,0.044,0.034,-0.083,0.068,0.112,-0.024,-0.063,-0.098,-0.034
2.196,0.01,-0.068,-0.078,0.029,0.044,-0.073,0.078,0.122,-0.02,-0.054,-0.093,-0.039
2.198,0.01,-0.073,-0.083,0.034,0.044,-0.078,0.093,0.132,-0.005,-0.054,-0.093,-0.059
2.2,0.0,-0.068,-0.068,0.034,0.034,-0.068,0.093,0.142,-0.005,-0.049,-0.098,0.029
2.202,0.005,-0.049,-0.054,0.024,0.029,-0.054,0.102,0.146,0.005,-0.044,-0.098,0.049
2.204,0.015,-0.049,-0.063,0.02,0.039,-0.059,0.102,0.156,0.015,-0.044,-0.098,0.029
2.206,0.034,-0.049,-0.083,0.01,0.059,-0.068,0.102,0.161,0.034,-0.029,-0.083,-0.098
2.208,0.039,-0.063,-0.102,0.015,0.068,-0.083,0.098,0.171,0.034,-0.024,-0.073,-0.205
2.21,0.015,-0.078,-0.093,0.034,0.054,-0.088,0.093,0.171,0.044,-0.02,-0.078,-0.151
2.212,0.01,-0.073,-0.083,0.034,0.044,-0.078,0.093,0.171,0.039,-0.024,-0.083,-0.054
2.214,0.0,-0.063,-0.063,0.034,0.029,-0.063,0.098,0.176,0.034,-0.024,-0.078,0.01
2.216,0.005,-0.063,-0.068,0.029,0.034,-0.068,0.098,0.19,0.034,-0.02,-0.073,-0.015
2.218,0.02,-0.054,-0.073,0.02,0.044,-0.063,0.107,0.2,0.049,-0.015,-0.073,-0.054
2.22,0.015,-0.054,-0.068,0.02,0.039,-0.063,0.107,0.205,0.049,-0.024,-0.078,0.049
2.222,0.02,-0.029,-0.049,0.005,0.034,-0.039,0.112,0.215,0.049,-0.02,-0.078,0.054
2.224,0.034,-0.015,-0.049,-0.01,0.039,-0.034,0.117,0.215,0.063,-0.01,-0.073,0.044
2.226,0.049,-0.02,-0.068,-0.015,0.059,-0.044,0.122,0.22,0.083,0.005,-0.054,-0.078
2.228,0.054,-0.034,-0.088,-0.01,0.068,-0.063,0.117,0.229,0.093,0.01,-0.044,-0.181
2.23,0.034,-0.049,-0.083,0.01,0.059,-0.068,0.117,0.239,0.102,0.015,-0.044,-0.122
2.232,0.024,-0.054,-0.078,0.015,0.049,-0.068,0.112,0.239,0.102,0.015,-0.044,-0.029
2.234,0.029,-0.029,-0.059,0.0,0.044,-0.044,0.112,0.249,0.098,0.024,-0.044,0.029
2.236,0.029,-0.024,-0.054,0.0,0.039,-0.039,0.107,0.249,0.098,0.015,-0.044,0.01
2.238,0.029,-0.029,-0.059,0.0,0.044,-0.044,0.122,0.264,0.112,0.029,-0.029,-0.034
2.24,0.024,-0.015,-0.039,-0.005,0.029,-0.029,0.122,0.273,0.112,0.034,-0.034,0.068
2.242,0.029,0.0,-0.029,-0.015,0.029,-0.015,0.127,0.278,0.112,0.034,-0.029,0.078
2.244,0.049,0.015,-0.034,-0.029,0.039,-0.01,0.137,0.288,0.137,0.049,-0.02,0.073
2.246,0.073,0.015,-0.059,-0.044,0.063,-0.024,0.137,0.293,0.151,0.063,-0.005,-0.034
2.248,0.078,0.005,-0.073,-0.039,0.073,-0.034,0.127,0.303,0.161,0.068,0.005,-0.137
2.25,0.068,0.01,-0.059,-0.039,0.063,-0.024,0.127,0.307,0.166,0.078,0.01,-0.063
2.252,0.059,0.005,-0.054,-0.029,0.054,-0.024,0.127,0.312,0.171,0.078,0.01,0.054
2.254,0.054,0.015,-0.039,-0.034,0.044,-0.015,0.122,0.317,0.161,0.083,0.01,0.098
2.256,0.063,0.029,-0.034,-0.044,0.049,-0.005,0.127,0.332,0.171,0.078,0.015,0.088
2.258,0.063,0.02,-0.044,-0.039,0.054,-0.015,0.127,0.332,0.166,0.083,0.015,0.044
2.26,0.059,0.029,-0.029,-0.044,0.044,0.0,0.132,0.346,0.176,0.083,0.015,0.137
2.262,0.059,0.049,-0.01,-0.054,0.034,0.02,0.142,0.351,0.19,0.093,0.02,0.151
2.264,0.073,0.054,-0.02,-0.063,0.044,0.015,0.142,0.361,0.2,0.098,0.029,0.127
2.266,0.102,0.063,-0.039,-0.083,0.068,0.01,0.151,0.371,0.21,0.112,0.049,0.034
2.268,0.107,0.054,-0.054,-0.078,0.078,0.0,0.142,0.381,0.22,0.122,0.054,-0.063
2.27,0.093,0.049,-0.044,-0.068,0.068,0.0,0.132,0.386,0.224,0.127,0.054,-0.02
2.272,0.093,0.059,-0.034,-0.073,0.063,0.01,0.132,0.386,0.224,0.132,0.049,0.107
2.274,0.088,0.059,-0.029,-0.073,0.059,0.015,0.137,0.39,0.224,0.137,0.049,0.161
2.276,0.098,0.068,-0.029,-0.083,0.063,0.02,0.142,0.4,0.224,0.127,0.054,0.146
2.278,0.093,0.063,-0.029,-0.078,0.059,0.015,0.146,0.405,0.224,0.132,0.059,0.107
2.28,0.083,0.063,-0.02,-0.073,0.049,0.02,0.146,0.4,0.22,0.127,0.054,0.185
2.282,0.088,0.073,-0.015,-0.078,0.049,0.029,0.161,0.41,0.22,0.132,0.059,0.19
2.284,0.093,0.083,-0.01,-0.088,0.049,0.034,0.161,0.41,0.229,0.137,0.063,0.171
2.286,0.107,0.078,-0.029,-0.093,0.068,0.024,0.156,0.405,0.234,0.137,0.078,0.034
2.288,0.117,0.073,-0.044,-0.093,0.078,0.015,0.161,0.415,0.239,0.142,0.088,-0.054
2.29,0.102,0.068,-0.034,-0.083,0.068,0.015,0.151,0.41,0.234,0.146,0.083,-0.005
2.292,0.102,0.078,-0.024,-0.088,0.063,0.024,0.151,0.405,0.224,0.137,0.073,0.107
2.294,0.098,0.078,-0.02,-0.088,0.059,0.029,0.156,0.4,0.21,0.137,0.078,0.171
2.296,0.093,0.088,-0.005,-0.088,0.049,0.039,0.151,0.39,0.205,0.122,0.068,0.142
2.298,0.098,0.083,-0.015,-0.088,0.054,0.034,0.166,0.386,0.19,0.117,0.068,0.102
2.3,0.078,0.073,-0.005,-0.073,0.039,0.034,0.161,0.371,0.181,0.107,0.054,0.176
2.302,0.078,0.083,0.005,-0.078,0.034,0.044,0.166,0.381,0.181,0.107,0.068,0.176
2.304,0.083,0.093,0.01,-0.088,0.034,0.049,0.171,0.371,0.176,0.107,0.063,0.146
2.306,0.093,0.078,-0.015,-0.083,0.054,0.029,0.166,0.361,0.171,0.107,0.073,0.015
2.308,0.102,0.073,-0.029,-0.088,0.063,0.02,0.166,0.361,0.171,0.107,0.078,-0.093
2.31,0.078,0.059,-0.02,-0.068,0.049,0.02,0.166,0.356,0.166,0.112,0.073,-0.034
2.312,0.063,0.059,-0.005,-0.059,0.034,0.024,0.171,0.342,0.156,0.102,0.063,0.068
2.314,0.068,0.073,0.005,-0.068,0.029,0.039,0.166,0.337,0.137,0.093,0.059,0.127
2.316,0.068,0.078,0.01,-0.073,0.029,0.044,0.171,0.337,0.122,0.083,0.049,0.098
2.318,0.068,0.073,0.005,-0.068,0.029,0.039,0.181,0.337,0.122,0.083,0.054,0.063
2.32,0.059,0.078,0.02,-0.068,0.02,0.049,0.181,0.332,0.112,0.073,0.044,0.161
2.322,0.054,0.078,0.024,-0.063,0.015,0.049,0.176,0.322,0.102,0.063,0.039,0.156
2.324,0.059,0.083,0.024,-0.068,0.015,0.054,0.181,0.322,0.107,0.068,0.044,0.132
2.326,0.073,0.078,0.005,-0.073,0.034,0.039,0.181,0.312,0.098,0.068,0.049,-0.005
2.328,0.073,0.063,-0.01,-0.068,0.039,0.024,0.176,0.307,0.102,0.068,0.049,-0.127
2.33,0.049,0.054,0.005,-0.049,0.02,0.029,0.166,0.303,0.098,0.063,0.039,-0.068
2.332,0.034,0.049,0.015,-0.039,0.01,0.029,0.171,0.298,0.098,0.059,0.029,0.034
2.334,0.039,0.063,0.024,-0.049,0.005,0.044,0.161,0.293,0.083,0.054,0.029,0.083
2.336,0.034,0.068,0.034,-0.049,0.0,0.049,0.166,0.288,0.078,0.049,0.024,0.068
2.338,0.029,0.059,0.029,-0.044,0.0,0.044,0.166,0.283,0.078,0.044,0.02,0.024
2.34,0.024,0.059,0.034,-0.039,-0.005,0.044,0.176,0.288,0.078,0.049,0.015,0.132
2.342,0.024,0.068,0.044,-0.044,-0.01,0.054,0.171,0.283,0.073,0.044,0.015,0.137
2.344,0.024,0.068,0.044,-0.044,-0.01,0.054,0.171,0.268,0.078,0.039,0.01,0.102
2.346,0.044,0.063,0.02,-0.054,0.01,0.039,0.161,0.259,0.078,0.044,0.02,-0.02
2.348,0.039,0.039,0.0,-0.039,0.02,0.02,0.146,0.244,0.073,0.044,0.02,-0.137
2.35,0.024,0.034,0.01,-0.029,0.005,0.02,0.146,0.249,0.073,0.044,0.015,-0.078
2.352,0.01,0.034,0.024,-0.02,-0.01,0.029,0.142,0.234,0.068,0.039,0.005,0.024
2.354,0.0,0.034,0.034,-0.015,-0.02,0.034,0.122,0.215,0.049,0.024,-0.005,0.054
2.356,0.01,0.034,0.024,-0.02,-0.01,0.029,0.127,0.21,0.054,0.029,-0.005,0.029
2.358,0.01,0.029,0.02,-0.02,-0.005,0.024,0.127,0.205,0.049,0.024,-0.005,-0.005
2.36,-0.005,0.034,0.039,-0.015,-0.024,0.034,0.127,0.2,0.044,0.02,-0.015,0.088
2.362,0.005,0.049,0.044,-0.024,-0.02,0.044,0.122,0.19,0.039,0.02,-0.02,0.102
2.364,0.005,0.044,0.039,-0.024,-0.02,0.039,0.122,0.181,0.039,0.02,-0.02,0.078
2.366,0.024,0.034,0.01,-0.029,0.005,0.02,0.107,0.166,0.039,0.024,-0.01,-0.049
2.368,0.02,0.015,-0.005,-0.015,0.01,0.005,0.098,0.156,0.044,0.02,-0.01,-0.146
2.37,-0.005,0.005,0.01,0.0,-0.01,0.005,0.088,0.142,0.034,0.02,-0.024,-0.112
2.372,-0.01,0.005,0.015,0.005,-0.015,0.01,0.083,0.122,0.02,0.005,-0.039,-0.02
2.374,-0.02,0.005,0.024,0.01,-0.024,0.015,0.073,0.112,0.01,0.0,-0.039,0.029
2.376,-0.02,0.01,0.029,0.005,-0.024,0.02,0.073,0.107,0.01,0.0,-0.044,0.0
2.378,-0.02,0.0,0.02,0.01,-0.02,0.01,0.073,0.112,0.005,-0.01,-0.049,-0.039
2.38,-0.034,-0.01,0.024,0.024,-0.029,0.005,0.073,0.102,0.0,-0.015,-0.059,0.054
2.382,-0.024,0.005,0.029,0.01,-0.029,0.015,0.068,0.093,-0.005,-0.02,-0.059,0.068
2.384,-0.024,0.0,0.024,0.015,-0.024,0.01,0.068,0.093,0.0,-0.015,-0.054,0.059
2.386,-0.005,0.0,0.005,0.005,-0.005,0.0,0.068,0.083,0.0,-0.01,-0.044,-0.078
2.388,0.0,-0.01,-0.01,0.005,0.005,-0.01,0.068,0.083,0.005,-0.005,-0.029,-0.161
2.39,-0.02,-0.02,0.0,0.02,-0.01,-0.01,0.059,0.068,0.0,-0.01,-0.044,-0.098
2.392,-0.034,-0.024,0.01,0.029,-0.024,-0.01,0.054,0.059,-0.005,-0.015,-0.059,-0.01
2.394,-0.039,-0.02,0.02,0.029,-0.029,0.0,0.049,0.054,-0.02,-0.02,-0.059,0.044
2.396,-0.044,-0.02,0.024,0.034,-0.034,0.0,0.049,0.054,-0.024,-0.024,-0.063,0.01
2.398,-0.029,-0.024,0.005,0.029,-0.02,-0.01,0.049,0.054,-0.029,-0.024,-0.063,-0.039
2.4,-0.044,-0.024,0.02,0.034,-0.034,-0.005,0.049,0.054,-0.024,-0.029,-0.063,0.063
2.402,-0.039,-0.015,0.024,0.029,-0.034,0.005,0.049,0.049,-0.024,-0.029,-0.063,0.059
2.404,-0.024,-0.005,0.02,0.015,-0.024,0.005,0.054,0.059,-0.02,-0.024,-0.059,0.059
2.406,-0.01,-0.015,-0.005,0.015,-0.005,-0.01,0.054,0.054,-0.01,-0.02,-0.054,-0.068
2.408,-0.005,-0.024,-0.02,0.015,0.005,-0.024,0.049,0.054,-0.005,-0.015,-0.044,-0.171
2.41,-0.005,-0.024,-0.02,0.015,0.005,-0.024,0.039,0.054,-0.005,-0.02,-0.049,-0.102
2.412,-0.024,-0.029,-0.005,0.029,-0.01,-0.02,0.039,0.049,-0.01,-0.024,-0.059,-0.005
2.414,-0.024,-0.02,0.005,0.024,-0.015,-0.01,0.039,0.049,-0.015,-0.029,-0.063,0.044
2.416,-0.024,-0.02,0.005,0.024,-0.015,-0.01,0.034,0.059,-0.02,-0.024,-0.059,0.01
2.418,-0.024,-0.029,-0.005,0.029,-0.01,-0.02,0.044,0.063,-0.015,-0.029,-0.059,-0.044
2.42,-0.034,-0.029,0.005,0.034,-0.02,-0.015,0.049,0.068,-0.015,-0.024,-0.059,0.054
2.422,-0.039,-0.024,0.015,0.034,-0.029,-0.005,0.049,0.068,-0.015,-0.029,-0.059,0.059
2.424,-0.029,-0.02,0.01,0.024,-0.02,-0.005,0.049,0.068,-0.01,-0.034,-0.059,0.02
2.426,-0.01,-0.015,-0.005,0.015,-0.005,-0.01,0.049,0.073,0.0,-0.02,-0.049,-0.098
2.428,-0.005,-0.034,-0.029,0.02,0.01,-0.034,0.044,0.068,0.0,-0.015,-0.044,-0.19
2.43,-0.015,-0.039,-0.024,0.029,0.005,-0.034,0.039,0.068,0.005,-0.02,-0.054,-0.122
2.432,-0.024,-0.034,-0.01,0.029,-0.01,-0.024,0.039,0.063,0.0,-0.024,-0.059,-0.02
2.434,-0.029,-0.029,0.0,0.029,-0.015,-0.015,0.039,0.063,-0.01,-0.024,-0.059,0.024
2.436,-0.02,-0.02,0.0,0.02,-0.01,-0.01,0.039,0.068,-0.01,-0.024,-0.054,0.0
2.438,-0.029,-0.034,-0.005,0.034,-0.015,-0.02,0.049,0.068,-0.01,-0.024,-0.059,-0.054
2.44,-0.039,-0.029,0.01,0.034,-0.024,-0.01,0.049,0.068,-0.02,-0.024,-0.063,0.034
2.442,-0.029,-0.024,0.005,0.029,-0.02,-0.01,0.049,0.073,-0.015,-0.029,-0.063,0.044
2.444,-0.024,-0.024,0.0,0.024,-0.015,-0.015,0.049,0.068,-0.015,-0.029,-0.063,0.01
2.446,-0.01,-0.024,-0.015,0.02,0.0,-0.02,0.049,0.068,0.0,-0.024,-0.049,-0.117
2.448,-0.005,-0.034,-0.029,0.02,0.01,-0.034,0.044,0.068,0.0,-0.02,-0.044,-0.21
2.45,-0.015,-0.039,-0.024,0.029,0.005,-0.034,0.039,0.059,-0.005,-0.024,-0.054,-0.156
2.452,-0.024,-0.034,-0.01,0.029,-0.01,-0.024,0.044,0.054,-0.01,-0.029,-0.063,-0.049
2.454,-0.029,-0.029,0.0,0.029,-0.015,-0.015,0.039,0.054,-0.02,-0.034,-0.073,0.0
2.456,-0.02,-0.029,-0.01,0.024,-0.005,-0.02,0.044,0.068,-0.02,-0.029,-0.059,-0.02
2.458,-0.01,-0.024,-0.015,0.02,0.0,-0.02,0.049,0.068,-0.02,-0.029,-0.059,-0.044
2.46,-0.029,-0.029,0.0,0.029,-0.015,-0.015,0.044,0.063,-0.029,-0.039,-0.073,0.039
2.462,-0.029,-0.02,0.01,0.024,-0.02,-0.005,0.044,0.054,-0.029,-0.044,-0.073,0.044
2.464,-0.029,-0.024,0.005,0.029,-0.02,-0.01,0.044,0.059,-0.029,-0.049,-0.068,0.02
2.466,-0.015,-0.034,-0.02,0.024,0.0,-0.029,0.044,0.054,-0.024,-0.044,-0.059,-0.117
2.468,0.0,-0.044,-0.044,0.024,0.02,-0.044,0.034,0.049,-0.024,-0.044,-0.054,-0.205
2.47,-0.01,-0.049,-0.039,0.029,0.015,-0.044,0.024,0.044,-0.029,-0.044,-0.068,-0.161
2.472,-0.02,-0.044,-0.024,0.034,0.0,-0.034,0.029,0.039,-0.029,-0.044,-0.063,-0.054
2.474,-0.024,-0.034,-0.01,0.029,-0.01,-0.024,0.029,0.034,-0.044,-0.054,-0.073,0.01
2.476,-0.024,-0.029,-0.005,0.029,-0.01,-0.02,0.034,0.034,-0.049,-0.054,-0.068,-0.024
2.478,-0.02,-0.034,-0.015,0.029,-0.005,-0.024,0.039,0.034,-0.044,-0.054,-0.068,-0.059
2.48,-0.034,-0.034,0.0,0.034,-0.02,-0.02,0.034,0.029,-0.054,-0.059,-0.073,0.044
2.482,-0.029,-0.02,0.01,0.024,-0.02,-0.005,0.034,0.02,-0.059,-0.068,-0.078,0.039
2.484,-0.024,-0.02,0.005,0.024,-0.015,-0.01,0.029,0.02,-0.059,-0.068,-0.078,0.02
2.486,-0.015,-0.034,-0.02,0.024,0.0,-0.029,0.029,0.015,-0.049,-0.063,-0.068,-0.112
2.488,-0.005,-0.049,-0.044,0.029,0.02,-0.049,0.024,0.015,-0.049,-0.059,-0.063,-0.215
2.49,-0.015,-0.063,-0.049,0.039,0.015,-0.059,0.015,0.005,-0.054,-0.063,-0.078,-0.156
2.492,-0.039,-0.073,-0.034,0.059,-0.005,-0.054,0.02,0.005,-0.059,-0.063,-0.078,-0.068
2.494,-0.034,-0.059,-0.024,0.049,-0.005,-0.044,0.015,-0.005,-0.068,-0.073,-0.083,-0.024
2.496,-0.034,-0.049,-0.015,0.044,-0.01,-0.034,0.015,-0.005,-0.078,-0.073,-0.078,-0.049
2.498,-0.034,-0.054,-0.02,0.044,-0.01,-0.039,0.024,0.0,-0.073,-0.073,-0.073,-0.078
2.5,-0.049,-0.049,0.0,0.049,-0.024,-0.024,0.024,-0.005,-0.083,-0.073,-0.083,0.024
2.502,-0.049,-0.044,0.005,0.049,-0.029,-0.02,0.02,-0.015,-0.088,-0.083,-0.088,0.024
2.504,-0.029,-0.034,-0.005,0.034,-0.015,-0.02,0.015,-0.01,-0.083,-0.078,-0.083,-0.005
2.506,-0.015,-0.044,-0.029,0.029,0.005,-0.039,0.02,-0.015,-0.068,-0.073,-0.068,-0.127
2.508,-0.02,-0.063,-0.044,0.044,0.01,-0.054,0.01,-0.02,-0.078,-0.068,-0.059,-0.239
2.51,-0.029,-0.068,-0.039,0.049,0.005,-0.054,0.005,-0.024,-0.083,-0.078,-0.073,-0.185
2.512,-0.049,-0.073,-0.024,0.063,-0.015,-0.049,0.005,-0.029,-0.083,-0.078,-0.078,-0.088
2.514,-0.054,-0.068,-0.015,0.063,-0.02,-0.044,0.005,-0.039,-0.093,-0.083,-0.083,-0.054
2.516,-0.039,-0.054,-0.015,0.049,-0.015,-0.034,0.005,-0.029,-0.098,-0.083,-0.078,-0.073
2.518,-0.039,-0.063,-0.024,0.054,-0.01,-0.044,0.015,-0.034,-0.093,-0.093,-0.078,-0.107
2.52,-0.049,-0.054,-0.005,0.054,-0.024,-0.029,0.015,-0.034,-0.098,-0.093,-0.088,-0.005
2.522,-0.044,-0.049,-0.005,0.049,-0.02,-0.029,0.015,-0.039,-0.098,-0.098,-0.093,0.005
2.524,-0.039,-0.049,-0.01,0.044,-0.015,-0.029,0.02,-0.034,-0.093,-0.102,-0.088,-0.02
2.526,-0.02,-0.044,-0.024,0.034,0.0,-0.034,0.015,-0.034,-0.083,-0.088,-0.073,-0.137
2.528,-0.02,-0.063,-0.044,0.044,0.01,-0.054,0.01,-0.039,-0.088,-0.088,-0.063,-0.22
2.53,-0.034,-0.073,-0.039,0.054,0.0,-0.059,0.005,-0.044,-0.093,-0.093,-0.078,-0.171
2.532,-0.044,-0.073,-0.029,0.059,-0.01,-0.054,0.0,-0.044,-0.098,-0.093,-0.083,-0.068
2.534,-0.054,-0.078,-0.024,0.068,-0.015,-0.054,-0.005,-0.059,-0.107,-0.098,-0.093,-0.039
2.536,-0.044,-0.068,-0.024,0.059,-0.01,-0.049,0.0,-0.049,-0.107,-0.093,-0.083,-0.073
2.538,-0.044,-0.078,-0.034,0.063,-0.005,-0.059,0.01,-0.049,-0.102,-0.093,-0.078,-0.112
2.54,-0.059,-0.068,-0.01,0.063,-0.024,-0.039,0.01,-0.049,-0.107,-0.098,-0.083,-0.02
2.542,-0.044,-0.054,-0.01,0.049,-0.02,-0.034,0.01,-0.054,-0.107,-0.098,-0.088,-0.005
2.544,-0.034,-0.054,-0.02,0.044,-0.01,-0.039,0.005,-0.059,-0.107,-0.112,-0.088,-0.024
2.546,-0.02,-0.059,-0.039,0.039,0.01,-0.049,0.01,-0.054,-0.098,-0.098,-0.073,-0.142
2.548,-0.015,-0.073,-0.059,0.044,0.02,-0.068,0.005,-0.059,-0.098,-0.093,-0.063,-0.22
2.55,-0.039,-0.083,-0.044,0.063,0.0,-0.063,0.005,-0.059,-0.102,-0.093,-0.073,-0.166
2.552,-0.039,-0.078,-0.039,0.059,0.0,-0.059,-0.005,-0.063,-0.107,-0.102,-0.088,-0.078
2.554,-0.049,-0.078,-0.029,0.063,-0.01,-0.054,0.0,-0.068,-0.112,-0.102,-0.093,-0.034
2.556,-0.044,-0.073,-0.029,0.059,-0.01,-0.054,-0.005,-0.068,-0.112,-0.102,-0.088,-0.068
2.558,-0.034,-0.068,-0.034,0.054,0.0,-0.054,0.005,-0.068,-0.112,-0.102,-0.088,-0.112
2.56,-0.059,-0.068,-0.01,0.063,-0.024,-0.039,0.005,-0.063,-0.117,-0.102,-0.093,-0.024
2.562,-0.059,-0.054,0.005,0.059,-0.034,-0.024,0.01,-0.063,-0.117,-0.102,-0.088,-0.029
2.564,-0.044,-0.039,0.005,0.044,-0.024,-0.02,0.015,-0.059,-0.102,-0.098,-0.078,-0.039
2.566,-0.024,-0.034,-0.01,0.029,-0.01,-0.024,0.02,-0.054,-0.093,-0.088,-0.068,-0.161
2.568,-0.015,-0.034,-0.02,0.024,0.0,-0.029,0.02,-0.044,-0.083,-0.078,-0.059,-0.244
2.57,-0.029,-0.034,-0.005,0.034,-0.015,-0.02,0.02,-0.044,-0.083,-0.083,-0.063,-0.166
2.572,-0.039,-0.024,0.015,0.034,-0.029,-0.005,0.024,-0.044,-0.078,-0.078,-0.063,-0.073
2.574,-0.049,-0.005,0.044,0.029,-0.049,0.02,0.039,-0.034,-0.078,-0.068,-0.063,-0.015
2.576,-0.049,0.0,0.049,0.024,-0.049,0.024,0.034,-0.034,-0.083,-0.073,-0.059,-0.054
2.578,-0.039,0.0,0.039,0.02,-0.039,0.02,0.044,-0.034,-0.078,-0.068,-0.049,-0.088
2.58,-0.049,0.015,0.063,0.02,-0.059,0.039,0.044,-0.039,-0.083,-0.073,-0.059,0.005
2.582,-0.054,0.024,0.078,0.015,-0.068,0.049,0.044,-0.034,-0.078,-0.073,-0.054,0.005
2.584,-0.034,0.039,0.073,0.0,-0.054,0.054,0.049,-0.024,-0.068,-0.063,-0.044,-0.015
2.586,-0.015,0.044,0.059,-0.015,-0.039,0.049,0.059,-0.024,-0.063,-0.059,-0.034,-0.132
2.588,-0.005,0.029,0.034,-0.01,-0.02,0.029,0.054,-0.029,-0.063,-0.054,-0.029,-0.224
2.59,-0.02,0.029,0.049,-0.005,-0.034,0.039,0.054,-0.034,-0.063,-0.059,-0.039,-0.151
2.592,-0.034,0.029,0.063,0.005,-0.049,0.044,0.049,-0.039,-0.068,-0.059,-0.044,-0.049
2.594,-0.039,0.054,0.093,-0.005,-0.068,0.073,0.059,-0.034,-0.068,-0.049,-0.039,0.005
2.596,-0.029,0.088,0.117,-0.029,-0.073,0.102,0.073,-0.02,-0.049,-0.034,-0.024,0.005
2.598,-0.024,0.107,0.132,-0.039,-0.078,0.117,0.078,-0.015,-0.039,-0.02,-0.01,-0.024
2.6,-0.024,0.122,0.146,-0.049,-0.088,0.132,0.073,-0.015,-0.039,-0.02,-0.015,0.063
2.602,-0.024,0.132,0.156,-0.054,-0.093,0.142,0.063,-0.02,-0.039,-0.02,-0.01,0.073
2.604,-0.015,0.137,0.151,-0.059,-0.083,0.142,0.059,-0.02,-0.029,-0.015,0.0,0.039
2.606,0.01,0.142,0.132,-0.073,-0.063,0.137,0.054,-0.015,-0.02,-0.005,0.015,-0.073
2.608,0.01,0.127,0.117,-0.068,-0.054,0.122,0.034,-0.02,-0.02,-0.005,0.024,-0.166
2.61,0.005,0.117,0.112,-0.059,-0.054,0.112,0.024,-0.02,-0.024,-0.005,0.01,-0.102
2.612,-0.005,0.112,0.117,-0.054,-0.063,0.112,0.02,-0.029,-0.034,-0.015,0.0,0.0
2.614,-0.005,0.107,0.112,-0.049,-0.059,0.107,0.02,-0.029,-0.039,-0.02,-0.005,0.044
2.616,0.015,0.117,0.102,-0.063,-0.044,0.107,0.02,-0.02,-0.039,-0.024,0.0,0.029
2.618,0.024,0.102,0.078,-0.063,-0.029,0.088,0.034,-0.02,-0.029,-0.015,0.015,0.015
2.62,0.015,0.093,0.078,-0.054,-0.034,0.083,0.024,-0.024,-0.039,-0.02,0.005,0.088
2.622,0.015,0.088,0.073,-0.049,-0.029,0.078,0.02,-0.029,-0.049,-0.034,0.0,0.088
2.624,0.02,0.073,0.054,-0.044,-0.02,0.063,0.01,-0.034,-0.049,-0.039,0.0,0.049
2.626,0.039,0.063,0.024,-0.049,0.005,0.044,0.01,-0.034,-0.054,-0.039,0.0,-0.088
2.628,0.039,0.029,-0.01,-0.034,0.024,0.01,0.005,-0.034,-0.054,-0.039,0.005,-0.171
2.63,0.0,-0.015,-0.015,0.01,0.005,-0.015,-0.005,-0.044,-0.068,-0.059,-0.02,-0.151
2.632,-0.015,-0.024,-0.01,0.02,-0.005,-0.02,-0.01,-0.054,-0.078,-0.073,-0.034,-0.063
2.634,-0.024,-0.034,-0.01,0.029,-0.01,-0.024,-0.015,-0.068,-0.102,-0.088,-0.049,-0.029
2.636,-0.029,-0.039,-0.01,0.034,-0.01,-0.024,-0.01,-0.063,-0.102,-0.093,-0.049,-0.059
2.638,-0.029,-0.044,-0.015,0.039,-0.01,-0.029,-0.005,-0.078,-0.112,-0.102,-0.059,-0.093
2.64,-0.054,-0.049,0.005,0.054,-0.029,-0.024,-0.01,-0.088,-0.127,-0.112,-0.073,-0.005
2.642,-0.049,-0.049,0.0,0.049,-0.024,-0.024,-0.005,-0.083,-0.127,-0.117,-0.073,-0.005
2.644,-0.049,-0.059,-0.01,0.054,-0.02,-0.034,-0.01,-0.088,-0.127,-0.127,-0.078,-0.034
2.646,-0.039,-0.073,-0.034,0.059,-0.005,-0.054,-0.005,-0.093,-0.127,-0.122,-0.073,-0.181
2.648,-0.034,-0.088,-0.054,0.063,0.01,-0.073,-0.01,-0.083,-0.117,-0.112,-0.063,-0.259
2.65,-0.059,-0.102,-0.044,0.083,-0.01,-0.073,-0.029,-0.093,-0.137,-0.127,-0.078,-0.21
2.652,-0.073,-0.107,-0.034,0.093,-0.02,-0.073,-0.034,-0.102,-0.142,-0.127,-0.088,-0.122
2.654,-0.073,-0.102,-0.029,0.088,-0.024,-0.068,-0.029,-0.098,-0.146,-0.127,-0.088,-0.078
2.656,-0.068,-0.107,-0.039,0.088,-0.015,-0.073,-0.029,-0.102,-0.146,-0.137,-0.088,-0.107
2.658,-0.054,-0.102,-0.049,0.078,-0.005,-0.078,-0.024,-0.107,-0.151,-0.142,-0.088,-0.142
2.66,-0.063,-0.102,-0.039,0.083,-0.015,-0.073,-0.029,-0.117,-0.161,-0.151,-0.102,-0.054
2.662,-0.078,-0.107,-0.029,0.093,-0.024,-0.068,-0.024,-0.107,-0.156,-0.151,-0.102,-0.039
2.664,-0.063,-0.093,-0.029,0.078,-0.02,-0.063,-0.024,-0.112,-0.156,-0.156,-0.102,-0.059
2.666,-0.044,-0.098,-0.054,0.073,0.005,-0.078,-0.024,-0.112,-0.151,-0.146,-0.093,-0.176
2.668,-0.044,-0.117,-0.073,0.083,0.015,-0.098,-0.034,-0.107,-0.142,-0.137,-0.083,-0.268
2.67,-0.059,-0.127,-0.068,0.093,0.005,-0.098,-0.034,-0.107,-0.151,-0.146,-0.088,-0.2
2.672,-0.078,-0.132,-0.054,0.107,-0.015,-0.093,-0.044,-0.117,-0.161,-0.156,-0.102,-0.137
2.674,-0.078,-0.122,-0.044,0.102,-0.02,-0.083,-0.044,-0.117,-0.161,-0.156,-0.102,-0.093
2.676,-0.078,-0.127,-0.049,0.102,-0.015,-0.088,-0.034,-0.112,-0.161,-0.161,-0.098,-0.112
2.678,-0.078,-0.137,-0.059,0.107,-0.01,-0.098,-0.029,-0.112,-0.161,-0.156,-0.098,-0.146
2.68,-0.078,-0.127,-0.049,0.102,-0.015,-0.088,-0.029,-0.112,-0.156,-0.156,-0.102,-0.044
2.682,-0.083,-0.122,-0.039,0.102,-0.024,-0.083,-0.029,-0.112,-0.166,-0.156,-0.102,-0.044
2.684,-0.063,-0.107,-0.044,0.088,-0.01,-0.078,-0.029,-0.117,-0.166,-0.161,-0.107,-0.068
2.686,-0.039,-0.102,-0.063,0.073,0.01,-0.083,-0.034,-0.112,-0.156,-0.156,-0.093,-0.176
2.688,-0.039,-0.122,-0.083,0.083,0.02,-0.102,-0.039,-0.112,-0.151,-0.146,-0.093,-0.268
2.69,-0.059,-0.132,-0.073,0.098,0.005,-0.102,-0.034,-0.107,-0.151,-0.146,-0.093,-0.205
2.692,-0.068,-0.137,-0.068,0.102,0.0,-0.102,-0.034,-0.112,-0.156,-0.151,-0.102,-0.112
2.694,-0.078,-0.127,-0.049,0.102,-0.015,-0.088,-0.044,-0.107,-0.166,-0.156,-0.112,-0.088
2.696,-0.068,-0.122,-0.054,0.098,-0.01,-0.088,-0.034,-0.112,-0.156,-0.151,-0.102,-0.112
2.698,-0.068,-0.137,-0.068,0.102,0.0,-0.102,-0.039,-0.117,-0.171,-0.161,-0.107,-0.156
2.7,-0.088,-0.137,-0.049,0.112,-0.02,-0.093,-0.039,-0.122,-0.171,-0.166,-0.117,-0.083
2.702,-0.083,-0.122,-0.039,0.102,-0.024,-0.083,-0.034,-0.112,-0.171,-0.166,-0.112,-0.073
2.704,-0.068,-0.122,-0.054,0.098,-0.01,-0.088,-0.029,-0.107,-0.161,-0.171,-0.107,-0.098
2.706,-0.039,-0.122,-0.083,0.083,0.02,-0.102,-0.015,-0.088,-0.151,-0.156,-0.093,-0.205
2.708,-0.044,-0.156,-0.112,0.102,0.034,-0.137,0.0,-0.049,-0.132,-0.151,-0.102,-0.288
2.71,-0.049,-0.181,-0.132,0.117,0.039,-0.156,0.015,-0.015,-0.132,-0.166,-0.127,-0.244
2.712,-0.044,-0.185,-0.142,0.117,0.049,-0.166,0.034,0.024,-0.112,-0.171,-0.151,-0.156
2.714,-0.054,-0.19,-0.137,0.122,0.039,-0.166,0.059,0.083,-0.102,-0.176,-0.176,-0.132
2.716,-0.029,-0.181,-0.151,0.107,0.059,-0.166,0.107,0.151,-0.073,-0.176,-0.181,-0.171
2.718,-0.024,-0.156,-0.132,0.093,0.054,-0.146,0.146,0.224,-0.024,-0.151,-0.166,-0.195
2.72,-0.044,-0.117,-0.073,0.083,0.015,-0.098,0.185,0.303,0.034,-0.112,-0.156,-0.093
2.722,-0.029,-0.068,-0.039,0.049,0.005,-0.054,0.239,0.395,0.112,-0.054,-0.122,-0.059
2.724,-0.005,-0.054,-0.049,0.029,0.02,-0.054,0.293,0.522,0.224,0.01,-0.093,-0.029
2.726,0.059,-0.059,-0.117,0.0,0.088,-0.088,0.346,0.722,0.376,0.102,-0.054,-0.093
2.728,0.137,-0.059,-0.195,-0.039,0.166,-0.127,0.39,0.976,0.586,0.244,0.015,-0.068
2.73,0.19,0.0,-0.19,-0.093,0.19,-0.098,0.415,1.074,0.761,0.4,0.117,0.122
2.732,0.21,0.112,-0.098,-0.161,0.151,0.005,0.425,0.859,0.849,0.551,0.244,0.356
2.734,0.22,0.229,0.01,-0.224,0.102,0.117,0.342,0.434,0.859,0.673,0.371,0.542
2.736,0.234,0.342,0.107,-0.288,0.063,0.224,0.137,-0.054,0.859,0.795,0.503,0.644
2.738,0.264,0.537,0.273,-0.4,-0.005,0.405,-0.176,-0.527,0.917,0.976,0.683,0.781
2.74,0.288,0.771,0.483,-0.527,-0.098,0.625,-0.498,-0.864,1.03,1.196,0.878,1.049
2.742,0.303,0.976,0.673,-0.639,-0.185,0.825,-0.727,-1.122,1.176,1.44,1.074,1.254
2.744,0.234,1.196,0.961,-0.712,-0.366,1.078,-0.903,-1.371,1.332,1.693,1.279,1.459
2.746,0.151,1.337,1.186,-0.742,-0.517,1.259,-1.078,-1.645,1.337,1.835,1.415,1.469
2.748,0.107,1.357,1.249,-0.732,-0.571,1.303,-1.322,-1.889,1.127,1.767,1.435,1.376
2.75,0.063,1.181,1.118,-0.62,-0.527,1.147,-1.459,-2.006,0.761,1.474,1.279,1.274
2.752,-0.034,0.971,1.005,-0.468,-0.522,0.986,-1.498,-2.142,0.268,1.088,1.054,1.132
2.754,-0.122,0.766,0.888,-0.322,-0.508,0.825,-1.42,-2.196,-0.181,0.712,0.815,0.913
2.756,-0.176,0.464,0.639,-0.142,-0.41,0.551,-1.269,-2.054,-0.508,0.312,0.508,0.571
2.758,-0.224,0.2,0.425,0.015,-0.327,0.312,-1.191,-1.942,-0.8,-0.088,0.205,0.176
2.76,-0.234,-0.024,0.21,0.132,-0.224,0.093,-1.103,-1.723,-0.922,-0.386,-0.049,-0.015
2.762,-0.205,-0.156,0.049,0.181,-0.127,-0.054,-0.971,-1.444,-0.839,-0.454,-0.166,-0.142
2.764,-0.161,-0.21,-0.049,0.185,-0.059,-0.132,-0.839,-1.205,-0.722,-0.425,-0.195,-0.181
2.766,-0.093,-0.259,-0.166,0.176,0.034,-0.215,-0.732,-1.03,-0.649,-0.42,-0.2,-0.307
2.768,-0.054,-0.332,-0.278,0.195,0.112,-0.307,-0.659,-0.878,-0.595,-0.415,-0.215,-0.42
2.77,-0.029,-0.361,-0.332,0.195,0.151,-0.346,-0.605,-0.761,-0.542,-0.405,-0.234,-0.371
2.772,-0.02,-0.371,-0.351,0.195,0.166,-0.361,-0.547,-0.673,-0.503,-0.39,-0.249,-0.268
2.774,-0.005,-0.351,-0.346,0.181,0.171,-0.351,-0.478,-0.581,-0.464,-0.371,-0.229,-0.21
2.776,0.02,-0.342,-0.361,0.161,0.19,-0.351,-0.405,-0.483,-0.41,-0.342,-0.215,-0.205
2.778,0.02,-0.327,-0.346,0.156,0.181,-0.337,-0.332,-0.405,-0.366,-0.317,-0.21,-0.234
2.78,0.005,-0.293,-0.298,0.146,0.151,-0.298,-0.264,-0.327,-0.332,-0.293,-0.205,-0.127
2.782,0.0,-0.264,-0.264,0.132,0.132,-0.264,-0.205,-0.264,-0.288,-0.278,-0.2,-0.127
2.784,0.0,-0.244,-0.244,0.122,0.122,-0.244,-0.156,-0.21,-0.244,-0.259,-0.19,-0.156
2.786,0.02,-0.22,-0.239,0.102,0.127,-0.229,-0.107,-0.151,-0.205,-0.229,-0.161,-0.249
2.788,0.02,-0.215,-0.234,0.098,0.127,-0.224,-0.073,-0.093,-0.161,-0.195,-0.142,-0.332
2.79,0.0,-0.21,-0.21,0.107,0.102,-0.21,-0.054,-0.059,-0.137,-0.181,-0.142,-0.268
2.792,-0.015,-0.19,-0.176,0.102,0.078,-0.185,-0.029,-0.029,-0.127,-0.166,-0.137,-0.156
2.794,-0.02,-0.166,-0.146,0.093,0.063,-0.156,-0.015,-0.01,-0.127,-0.161,-0.127,-0.098
2.796,0.0,-0.142,-0.142,0.073,0.068,-0.142,0.01,0.029,-0.102,-0.142,-0.112,-0.107
2.798,-0.005,-0.142,-0.137,0.073,0.063,-0.142,0.034,0.054,-0.083,-0.127,-0.102,-0.117
2.8,-0.02,-0.127,-0.107,0.073,0.044,-0.117,0.044,0.068,-0.078,-0.127,-0.102,-0.034
2.802,-0.015,-0.098,-0.083,0.059,0.034,-0.093,0.054,0.083,-0.059,-0.122,-0.093,-0.02
2.804,-0.01,-0.088,-0.078,0.049,0.034,-0.083,0.059,0.093,-0.044,-0.112,-0.088,-0.029
2.806,0.005,-0.088,-0.093,0.044,0.049,-0.093,0.059,0.102,-0.024,-0.093,-0.068,-0.146
2.808,0.01,-0.098,-0.107,0.044,0.059,-0.102,0.059,0.112,-0.02,-0.083,-0.059,-0.229
2.81,-0.015,-0.112,-0.098,0.063,0.039,-0.107,0.059,0.117,-0.005,-0.078,-0.068,-0.185
2.812,-0.02,-0.098,-0.078,0.059,0.029,-0.088,0.059,0.117,-0.005,-0.073,-0.073,-0.088
2.814,-0.015,-0.083,-0.068,0.049,0.024,-0.078,0.059,0.137,-0.005,-0.073,-0.068,-0.029
2.816,0.0,-0.068,-0.068,0.034,0.034,-0.068,0.073,0.142,0.0,-0.068,-0.059,-0.059
2.818,0.0,-0.073,-0.073,0.039,0.034,-0.073,0.083,0.161,0.01,-0.063,-0.054,-0.068
2.82,-0.015,-0.068,-0.054,0.044,0.02,-0.063,0.088,0.161,0.0,-0.068,-0.063,0.015
2.822,-0.01,-0.059,-0.049,0.034,0.02,-0.054,0.088,0.166,0.01,-0.068,-0.063,0.015
2.824,0.005,-0.054,-0.059,0.024,0.029,-0.059,0.093,0.171,0.02,-0.063,-0.068,0.01
2.826,0.015,-0.059,-0.073,0.024,0.044,-0.068,0.093,0.176,0.039,-0.049,-0.044,-0.102
2.828,0.024,-0.063,-0.088,0.02,0.054,-0.078,0.083,0.185,0.039,-0.044,-0.039,-0.19
2.83,0.005,-0.078,-0.083,0.039,0.044,-0.083,0.083,0.181,0.049,-0.039,-0.049,-0.127
2.832,-0.005,-0.073,-0.068,0.039,0.029,-0.073,0.078,0.181,0.049,-0.034,-0.059,-0.049
2.834,0.0,-0.054,-0.054,0.029,0.024,-0.054,0.078,0.195,0.044,-0.034,-0.054,0.005
2.836,0.005,-0.049,-0.054,0.024,0.029,-0.054,0.088,0.205,0.054,-0.034,-0.044,-0.024
2.838,0.01,-0.059,-0.068,0.024,0.039,-0.063,0.093,0.22,0.054,-0.029,-0.044,-0.078
2.84,0.0,-0.049,-0.049,0.024,0.024,-0.049,0.098,0.224,0.054,-0.034,-0.049,0.02
2.842,0.005,-0.039,-0.044,0.02,0.024,-0.044,0.098,0.224,0.054,-0.034,-0.049,0.024
2.844,0.024,-0.024,-0.049,0.0,0.034,-0.039,0.102,0.224,0.073,-0.029,-0.044,0.015
2.846,0.039,-0.02,-0.059,-0.01,0.049,-0.039,0.093,0.229,0.083,-0.01,-0.024,-0.093
2.848,0.039,-0.029,-0.068,-0.005,0.054,-0.049,0.098,0.239,0.098,-0.01,-0.02,-0.176
2.85,0.029,-0.039,-0.068,0.005,0.049,-0.054,0.093,0.249,0.107,-0.005,-0.02,-0.102
2.852,0.015,-0.034,-0.049,0.01,0.029,-0.044,0.088,0.244,0.107,-0.005,-0.024,-0.024
2.854,0.02,-0.02,-0.039,0.0,0.029,-0.029,0.093,0.264,0.107,0.005,-0.01,0.034
2.856,0.034,-0.01,-0.044,-0.01,0.039,-0.029,0.098,0.268,0.112,0.005,-0.005,0.02
2.858,0.029,-0.02,-0.049,-0.005,0.039,-0.034,0.102,0.278,0.117,0.01,0.0,-0.034
2.86,0.029,-0.005,-0.034,-0.01,0.029,-0.02,0.102,0.288,0.107,0.01,-0.005,0.049
2.862,0.029,0.0,-0.029,-0.015,0.029,-0.015,0.107,0.298,0.122,0.02,0.0,0.063
2.864,0.044,0.005,-0.039,-0.024,0.039,-0.02,0.112,0.288,0.132,0.024,0.005,0.049
2.866,0.063,0.01,-0.054,-0.034,0.059,-0.024,0.112,0.307,0.151,0.049,0.029,-0.039
2.868,0.068,0.0,-0.068,-0.034,0.068,-0.034,0.107,0.317,0.161,0.054,0.029,-0.122
2.87,0.054,-0.005,-0.059,-0.024,0.054,-0.034,0.102,0.322,0.176,0.059,0.029,-0.063
2.872,0.054,0.01,-0.044,-0.029,0.049,-0.02,0.102,0.327,0.181,0.063,0.029,0.054
2.874,0.044,0.02,-0.024,-0.029,0.034,-0.005,0.102,0.337,0.176,0.068,0.034,0.112
2.876,0.059,0.029,-0.029,-0.044,0.044,0.0,0.112,0.346,0.181,0.068,0.044,0.088
2.878,0.063,0.024,-0.039,-0.044,0.049,-0.01,0.117,0.351,0.181,0.073,0.049,0.054
2.88,0.059,0.034,-0.024,-0.044,0.039,0.005,0.117,0.361,0.176,0.073,0.044,0.132
2.882,0.068,0.039,-0.029,-0.054,0.049,0.005,0.122,0.371,0.195,0.073,0.049,0.137
2.884,0.073,0.049,-0.024,-0.059,0.049,0.01,0.122,0.371,0.205,0.078,0.049,0.117
2.886,0.098,0.059,-0.039,-0.078,0.068,0.01,0.117,0.381,0.215,0.093,0.073,0.015
2.888,0.102,0.049,-0.054,-0.073,0.078,-0.005,0.117,0.39,0.229,0.107,0.083,-0.054
2.89,0.083,0.039,-0.044,-0.059,0.063,-0.005,0.112,0.395,0.234,0.112,0.088,0.005
2.892,0.078,0.059,-0.02,-0.068,0.049,0.02,0.112,0.4,0.229,0.117,0.083,0.112
2.894,0.083,0.068,-0.015,-0.073,0.049,0.024,0.122,0.41,0.229,0.122,0.093,0.176
2.896,0.088,0.068,-0.02,-0.078,0.054,0.024,0.122,0.415,0.229,0.117,0.093,0.142
2.898,0.088,0.063,-0.024,-0.073,0.054,0.02,0.132,0.415,0.234,0.127,0.098,0.117
2.9,0.078,0.068,-0.01,-0.073,0.044,0.029,0.122,0.415,0.215,0.117,0.083,0.185
2.902,0.088,0.083,-0.005,-0.083,0.044,0.039,0.127,0.415,0.224,0.112,0.088,0.181
