time,I,II,III,aVR,aVL,aVF,V1,V2,V3,V4,V5,V6
0.0,-0.356,0.332,0.688,0.015,-0.522,0.508,-0.542,-0.654,-0.371,-0.107,0.039,0.171
0.002,-0.366,0.283,0.649,0.044,-0.508,0.464,-0.561,-0.664,-0.381,-0.137,-0.015,0.107
0.004,-0.356,0.249,0.605,0.054,-0.483,0.425,-0.576,-0.664,-0.395,-0.156,-0.044,0.068
0.006,-0.327,0.22,0.547,0.054,-0.439,0.381,-0.566,-0.654,-0.405,-0.166,-0.059,0.039
0.008,-0.283,0.176,0.459,0.054,-0.371,0.317,-0.517,-0.62,-0.395,-0.171,-0.078,0.005
0.01,-0.249,0.132,0.381,0.059,-0.317,0.254,-0.449,-0.542,-0.371,-0.171,-0.098,-0.024
0.012,-0.21,0.093,0.303,0.059,-0.259,0.195,-0.361,-0.439,-0.322,-0.161,-0.107,-0.049
0.014,-0.185,0.059,0.244,0.063,-0.215,0.151,-0.288,-0.351,-0.273,-0.146,-0.112,-0.063
0.016,-0.146,0.034,0.181,0.059,-0.166,0.107,-0.229,-0.288,-0.234,-0.127,-0.112,-0.073
0.018,-0.122,0.024,0.146,0.049,-0.137,0.083,-0.19,-0.239,-0.22,-0.117,-0.112,-0.073
0.02,-0.102,0.015,0.117,0.044,-0.112,0.063,-0.156,-0.21,-0.195,-0.112,-0.117,-0.088
0.022,-0.098,-0.005,0.093,0.054,-0.098,0.044,-0.122,-0.176,-0.171,-0.098,-0.117,-0.093
0.024,-0.093,-0.029,0.063,0.063,-0.078,0.015,-0.083,-0.137,-0.146,-0.088,-0.102,-0.093
0.026,-0.083,-0.054,0.029,0.068,-0.059,-0.015,-0.063,-0.112,-0.122,-0.073,-0.102,-0.093
0.028,-0.063,-0.068,-0.005,0.068,-0.029,-0.039,-0.049,-0.093,-0.107,-0.068,-0.102,-0.098
0.03,-0.054,-0.083,-0.029,0.068,-0.015,-0.059,-0.034,-0.078,-0.098,-0.059,-0.098,-0.102
0.032,-0.049,-0.088,-0.039,0.068,-0.005,-0.063,-0.024,-0.073,-0.093,-0.063,-0.098,-0.112
0.034,-0.049,-0.083,-0.034,0.068,-0.01,-0.059,-0.029,-0.073,-0.098,-0.063,-0.107,-0.112
0.036,-0.054,-0.088,-0.034,0.073,-0.01,-0.063,-0.024,-0.073,-0.093,-0.068,-0.107,-0.117
0.038,-0.049,-0.088,-0.039,0.068,-0.005,-0.063,-0.02,-0.063,-0.102,-0.068,-0.112,-0.127
0.04,-0.039,-0.098,-0.059,0.068,0.01,-0.078,-0.01,-0.054,-0.098,-0.078,-0.127,-0.137
0.042,-0.049,-0.107,-0.059,0.078,0.005,-0.083,0.005,-0.049,-0.088,-0.073,-0.127,-0.137
0.044,-0.039,-0.107,-0.068,0.073,0.015,-0.088,0.0,-0.044,-0.088,-0.068,-0.122,-0.137
0.046,-0.044,-0.117,-0.073,0.083,0.015,-0.098,0.005,-0.034,-0.078,-0.059,-0.122,-0.137
0.048,-0.039,-0.117,-0.078,0.078,0.02,-0.098,0.01,-0.034,-0.068,-0.049,-0.112,-0.127
0.05,-0.044,-0.112,-0.068,0.078,0.01,-0.093,0.015,-0.039,-0.068,-0.049,-0.102,-0.122
0.052,-0.044,-0.122,-0.078,0.083,0.015,-0.102,0.005,-0.044,-0.078,-0.054,-0.107,-0.127
0.054,-0.029,-0.112,-0.083,0.073,0.024,-0.098,0.005,-0.039,-0.073,-0.049,-0.107,-0.127
0.056,-0.029,-0.107,-0.078,0.068,0.024,-0.093,0.005,-0.049,-0.078,-0.059,-0.112,-0.137
0.058,-0.029,-0.102,-0.073,0.068,0.02,-0.088,0.01,-0.039,-0.083,-0.059,-0.112,-0.132
0.06,-0.015,-0.107,-0.093,0.063,0.039,-0.102,0.01,-0.034,-0.083,-0.059,-0.117,-0.137
0.062,-0.024,-0.117,-0.093,0.073,0.034,-0.107,0.024,-0.024,-0.068,-0.059,-0.112,-0.142
0.064,-0.029,-0.127,-0.098,0.078,0.034,-0.112,0.034,-0.02,-0.059,-0.049,-0.102,-0.132
0.066,-0.029,-0.132,-0.102,0.083,0.034,-0.117,0.029,-0.015,-0.054,-0.039,-0.107,-0.137
0.068,-0.029,-0.132,-0.102,0.083,0.034,-0.117,0.029,-0.015,-0.049,-0.034,-0.102,-0.132
0.07,-0.029,-0.122,-0.093,0.078,0.029,-0.107,0.029,-0.024,-0.049,-0.034,-0.093,-0.127
0.072,-0.029,-0.122,-0.093,0.078,0.029,-0.107,0.02,-0.024,-0.054,-0.034,-0.098,-0.132
0.074,-0.02,-0.112,-0.093,0.068,0.034,-0.102,0.02,-0.024,-0.054,-0.034,-0.098,-0.127
0.076,-0.024,-0.112,-0.088,0.068,0.029,-0.102,0.024,-0.024,-0.054,-0.039,-0.093,-0.127
0.078,-0.024,-0.127,-0.102,0.078,0.039,-0.117,0.034,-0.015,-0.059,-0.034,-0.088,-0.122
0.08,-0.01,-0.122,-0.112,0.068,0.049,-0.117,0.034,-0.01,-0.054,-0.034,-0.093,-0.127
0.082,-0.01,-0.122,-0.112,0.068,0.049,-0.117,0.044,-0.005,-0.044,-0.034,-0.083,-0.127
0.084,-0.005,-0.132,-0.127,0.068,0.059,-0.132,0.044,-0.01,-0.044,-0.034,-0.083,-0.132
0.086,-0.01,-0.127,-0.117,0.068,0.054,-0.122,0.044,0.0,-0.034,-0.024,-0.078,-0.127
0.088,-0.02,-0.132,-0.112,0.078,0.044,-0.122,0.044,-0.005,-0.029,-0.02,-0.073,-0.117
0.09,-0.024,-0.132,-0.107,0.078,0.039,-0.122,0.044,-0.01,-0.029,-0.015,-0.063,-0.122
0.092,-0.02,-0.122,-0.102,0.073,0.039,-0.112,0.044,-0.01,-0.034,-0.015,-0.068,-0.127
0.094,-0.01,-0.112,-0.102,0.063,0.044,-0.107,0.039,-0.01,-0.034,-0.02,-0.068,-0.122
0.096,-0.01,-0.112,-0.102,0.063,0.044,-0.107,0.039,-0.015,-0.029,-0.02,-0.063,-0.117
0.098,-0.02,-0.127,-0.107,0.073,0.044,-0.117,0.049,-0.005,-0.029,-0.015,-0.063,-0.122
0.1,-0.01,-0.127,-0.117,0.068,0.054,-0.122,0.054,0.005,-0.02,-0.015,-0.073,-0.127
0.102,0.0,-0.117,-0.117,0.059,0.059,-0.117,0.059,0.01,-0.01,-0.01,-0.063,-0.122
0.104,-0.005,-0.127,-0.122,0.068,0.059,-0.127,0.068,0.01,-0.005,-0.005,-0.059,-0.122
0.106,0.0,-0.122,-0.122,0.063,0.059,-0.122,0.068,0.015,-0.005,0.0,-0.054,-0.122
0.108,0.01,-0.122,-0.132,0.059,0.068,-0.127,0.068,0.01,0.005,0.005,-0.049,-0.122
0.11,0.0,-0.117,-0.117,0.059,0.059,-0.117,0.068,0.01,0.005,0.005,-0.039,-0.117
0.112,0.01,-0.102,-0.112,0.049,0.059,-0.107,0.063,0.01,0.005,0.005,-0.039,-0.117
0.114,0.0,-0.107,-0.107,0.054,0.054,-0.107,0.059,0.005,0.0,0.01,-0.039,-0.112
0.116,-0.005,-0.112,-0.107,0.059,0.049,-0.112,0.059,0.0,0.005,0.015,-0.034,-0.107
0.118,0.005,-0.107,-0.112,0.054,0.059,-0.112,0.063,0.015,0.005,0.015,-0.039,-0.107
0.12,0.0,-0.122,-0.122,0.063,0.059,-0.122,0.063,0.02,0.0,0.01,-0.044,-0.112
0.122,-0.005,-0.127,-0.122,0.068,0.059,-0.127,0.063,0.015,0.0,0.01,-0.044,-0.117
0.124,0.005,-0.122,-0.127,0.059,0.063,-0.127,0.068,0.02,0.005,0.01,-0.039,-0.112
0.126,0.015,-0.117,-0.132,0.054,0.073,-0.127,0.068,0.024,0.01,0.015,-0.039,-0.117
0.128,0.02,-0.112,-0.132,0.049,0.073,-0.122,0.068,0.02,0.02,0.024,-0.034,-0.107
0.13,0.015,-0.112,-0.127,0.049,0.068,-0.122,0.063,0.015,0.024,0.024,-0.029,-0.107
0.132,0.015,-0.112,-0.127,0.049,0.068,-0.122,0.054,0.01,0.02,0.024,-0.034,-0.107
0.134,0.02,-0.102,-0.122,0.044,0.068,-0.112,0.054,0.01,0.02,0.024,-0.029,-0.102
0.136,0.02,-0.102,-0.122,0.044,0.068,-0.112,0.054,0.0,0.02,0.024,-0.024,-0.102
0.138,0.024,-0.098,-0.122,0.039,0.073,-0.112,0.059,0.015,0.02,0.024,-0.024,-0.098
0.14,0.024,-0.098,-0.122,0.039,0.073,-0.112,0.063,0.02,0.015,0.024,-0.029,-0.098
0.142,0.034,-0.098,-0.132,0.034,0.083,-0.117,0.068,0.024,0.024,0.034,-0.02,-0.093
0.144,0.039,-0.102,-0.142,0.034,0.088,-0.122,0.078,0.029,0.034,0.039,-0.01,-0.083
0.146,0.039,-0.098,-0.137,0.029,0.088,-0.117,0.073,0.029,0.034,0.044,-0.015,-0.098
0.148,0.049,-0.098,-0.146,0.024,0.098,-0.122,0.073,0.029,0.044,0.049,-0.024,-0.093
0.15,0.054,-0.088,-0.142,0.02,0.098,-0.117,0.068,0.034,0.049,0.059,-0.039,-0.083
0.152,0.049,-0.088,-0.137,0.02,0.093,-0.112,0.063,0.024,0.044,0.059,-0.049,-0.083
0.154,0.044,-0.083,-0.127,0.02,0.083,-0.107,0.063,0.024,0.054,0.059,-0.049,-0.073
0.156,0.044,-0.083,-0.127,0.02,0.083,-0.107,0.068,0.024,0.054,0.063,-0.049,-0.068
0.158,0.044,-0.088,-0.132,0.024,0.088,-0.112,0.068,0.024,0.049,0.054,-0.054,-0.073
0.16,0.059,-0.083,-0.142,0.015,0.098,-0.112,0.068,0.034,0.049,0.059,-0.059,-0.068
0.162,0.059,-0.083,-0.142,0.015,0.098,-0.112,0.078,0.039,0.063,0.068,-0.054,-0.063
0.164,0.063,-0.083,-0.146,0.01,0.102,-0.117,0.083,0.039,0.063,0.073,-0.049,-0.068
0.166,0.068,-0.078,-0.146,0.005,0.107,-0.112,0.083,0.044,0.068,0.078,-0.044,-0.068
0.168,0.078,-0.068,-0.146,-0.005,0.112,-0.107,0.078,0.039,0.068,0.083,-0.044,-0.068
0.17,0.088,-0.054,-0.142,-0.015,0.112,-0.098,0.083,0.039,0.083,0.093,-0.029,-0.059
0.172,0.088,-0.054,-0.142,-0.015,0.112,-0.098,0.083,0.039,0.083,0.102,-0.024,-0.054
0.174,0.083,-0.054,-0.137,-0.015,0.107,-0.098,0.073,0.039,0.083,0.102,-0.024,-0.049
0.176,0.078,-0.054,-0.132,-0.01,0.102,-0.093,0.083,0.039,0.093,0.107,-0.015,-0.039
0.178,0.088,-0.054,-0.142,-0.015,0.112,-0.098,0.083,0.049,0.093,0.112,-0.005,-0.034
0.18,0.098,-0.054,-0.151,-0.02,0.122,-0.102,0.088,0.049,0.083,0.112,-0.01,-0.034
0.182,0.098,-0.054,-0.151,-0.02,0.122,-0.102,0.088,0.049,0.093,0.122,0.0,-0.024
0.184,0.093,-0.059,-0.151,-0.015,0.122,-0.107,0.088,0.054,0.102,0.127,0.005,-0.024
0.186,0.098,-0.049,-0.146,-0.024,0.122,-0.098,0.093,0.068,0.112,0.132,0.01,-0.024
0.188,0.112,-0.044,-0.156,-0.034,0.132,-0.102,0.093,0.063,0.127,0.142,0.02,-0.01
0.19,0.107,-0.039,-0.146,-0.034,0.127,-0.093,0.088,0.059,0.137,0.151,0.029,0.0
0.192,0.117,-0.034,-0.151,-0.039,0.132,-0.093,0.088,0.059,0.137,0.156,0.034,0.0
0.194,0.122,-0.029,-0.151,-0.044,0.137,-0.093,0.083,0.059,0.137,0.161,0.039,0.005
0.196,0.127,-0.024,-0.151,-0.049,0.137,-0.088,0.083,0.063,0.146,0.171,0.049,0.015
0.198,0.137,-0.015,-0.151,-0.059,0.142,-0.083,0.088,0.068,0.146,0.171,0.054,0.02
0.2,0.146,-0.015,-0.161,-0.063,0.151,-0.088,0.088,0.073,0.146,0.171,0.049,0.02
0.202,0.151,-0.015,-0.166,-0.068,0.156,-0.093,0.093,0.078,0.166,0.185,0.059,0.034
0.204,0.151,-0.02,-0.171,-0.063,0.161,-0.098,0.093,0.083,0.166,0.185,0.068,0.034
0.206,0.156,-0.02,-0.176,-0.068,0.166,-0.098,0.093,0.088,0.176,0.19,0.078,0.034
0.208,0.176,0.0,-0.176,-0.088,0.176,-0.088,0.093,0.078,0.181,0.205,0.088,0.044
0.21,0.166,0.01,-0.156,-0.088,0.161,-0.073,0.098,0.083,0.195,0.224,0.107,0.059
0.212,0.171,0.015,-0.156,-0.093,0.161,-0.073,0.093,0.083,0.195,0.229,0.112,0.063
0.214,0.176,0.02,-0.156,-0.098,0.166,-0.068,0.088,0.078,0.2,0.234,0.117,0.073
0.216,0.176,0.024,-0.151,-0.098,0.161,-0.063,0.093,0.083,0.215,0.239,0.127,0.078
0.218,0.19,0.029,-0.161,-0.107,0.176,-0.068,0.093,0.083,0.215,0.244,0.137,0.083
0.22,0.2,0.029,-0.171,-0.112,0.185,-0.073,0.098,0.088,0.21,0.249,0.137,0.088
0.222,0.2,0.034,-0.166,-0.117,0.181,-0.068,0.093,0.088,0.22,0.254,0.146,0.098
0.224,0.21,0.039,-0.171,-0.122,0.19,-0.068,0.102,0.093,0.224,0.259,0.156,0.107
0.226,0.21,0.039,-0.171,-0.122,0.19,-0.068,0.102,0.093,0.234,0.264,0.161,0.112
0.228,0.22,0.044,-0.176,-0.132,0.195,-0.068,0.098,0.083,0.229,0.268,0.161,0.117
0.23,0.22,0.049,-0.171,-0.132,0.195,-0.063,0.093,0.083,0.234,0.278,0.171,0.127
0.232,0.215,0.054,-0.161,-0.132,0.185,-0.054,0.088,0.078,0.229,0.273,0.171,0.132
0.234,0.22,0.068,-0.151,-0.142,0.185,-0.044,0.083,0.073,0.229,0.283,0.181,0.142
0.236,0.224,0.073,-0.151,-0.146,0.185,-0.039,0.083,0.068,0.224,0.278,0.181,0.146
0.238,0.229,0.078,-0.151,-0.151,0.19,-0.039,0.088,0.073,0.234,0.283,0.185,0.151
0.24,0.229,0.088,-0.142,-0.156,0.185,-0.029,0.093,0.068,0.224,0.283,0.181,0.146
0.242,0.224,0.078,-0.146,-0.151,0.185,-0.034,0.088,0.073,0.229,0.283,0.185,0.146
0.244,0.234,0.078,-0.156,-0.156,0.195,-0.039,0.098,0.078,0.239,0.288,0.195,0.156
0.246,0.244,0.093,-0.151,-0.166,0.195,-0.029,0.098,0.068,0.229,0.288,0.2,0.156
0.248,0.229,0.088,-0.142,-0.156,0.185,-0.029,0.098,0.073,0.239,0.298,0.205,0.161
0.25,0.229,0.093,-0.137,-0.161,0.181,-0.024,0.098,0.068,0.239,0.303,0.215,0.166
0.252,0.224,0.093,-0.132,-0.156,0.176,-0.02,0.098,0.063,0.239,0.303,0.224,0.176
0.254,0.215,0.098,-0.117,-0.156,0.166,-0.01,0.088,0.054,0.224,0.293,0.22,0.171
0.256,0.224,0.102,-0.122,-0.161,0.171,-0.01,0.083,0.044,0.22,0.288,0.22,0.176
0.258,0.22,0.098,-0.122,-0.156,0.171,-0.015,0.083,0.039,0.215,0.288,0.215,0.171
0.26,0.21,0.098,-0.112,-0.151,0.161,-0.01,0.093,0.039,0.215,0.283,0.21,0.171
0.262,0.229,0.107,-0.122,-0.166,0.176,-0.01,0.083,0.034,0.22,0.288,0.215,0.181
0.264,0.224,0.102,-0.122,-0.161,0.171,-0.01,0.098,0.044,0.22,0.293,0.224,0.185
0.266,0.229,0.112,-0.117,-0.171,0.171,-0.005,0.098,0.044,0.22,0.293,0.224,0.181
0.268,0.22,0.102,-0.117,-0.161,0.166,-0.01,0.098,0.039,0.224,0.298,0.224,0.185
0.27,0.205,0.098,-0.107,-0.151,0.156,-0.005,0.093,0.029,0.22,0.293,0.234,0.185
0.272,0.2,0.102,-0.098,-0.151,0.146,0.0,0.093,0.029,0.215,0.293,0.234,0.185
0.274,0.205,0.107,-0.098,-0.156,0.151,0.005,0.078,0.024,0.205,0.283,0.229,0.181
0.276,0.21,0.107,-0.102,-0.156,0.156,0.0,0.083,0.02,0.2,0.278,0.224,0.181
0.278,0.205,0.107,-0.098,-0.156,0.151,0.005,0.088,0.02,0.19,0.268,0.215,0.171
0.28,0.195,0.102,-0.093,-0.146,0.142,0.005,0.083,0.015,0.176,0.264,0.2,0.161
0.282,0.185,0.098,-0.088,-0.142,0.137,0.005,0.088,0.015,0.181,0.268,0.2,0.161
0.284,0.176,0.093,-0.083,-0.132,0.127,0.005,0.093,0.02,0.176,0.259,0.205,0.161
0.286,0.181,0.098,-0.083,-0.137,0.132,0.005,0.098,0.015,0.176,0.254,0.2,0.156
0.288,0.185,0.102,-0.083,-0.142,0.132,0.01,0.098,0.02,0.176,0.259,0.195,0.151
0.29,0.161,0.098,-0.063,-0.127,0.112,0.015,0.098,0.015,0.171,0.249,0.19,0.151
0.292,0.151,0.098,-0.054,-0.122,0.102,0.02,0.107,0.01,0.166,0.234,0.176,0.146
0.294,0.151,0.098,-0.054,-0.122,0.102,0.02,0.107,0.01,0.156,0.224,0.171,0.132
0.296,0.132,0.088,-0.044,-0.107,0.088,0.02,0.107,0.01,0.151,0.215,0.156,0.122
0.298,0.127,0.083,-0.044,-0.102,0.083,0.02,0.112,0.015,0.137,0.205,0.142,0.112
0.3,0.107,0.073,-0.034,-0.088,0.068,0.02,0.117,0.01,0.117,0.185,0.122,0.098
0.302,0.093,0.059,-0.034,-0.073,0.063,0.01,0.117,0.01,0.117,0.171,0.112,0.088
0.304,0.093,0.049,-0.044,-0.068,0.068,0.0,0.132,0.024,0.117,0.171,0.107,0.083
0.306,0.078,0.044,-0.034,-0.059,0.054,0.005,0.132,0.015,0.102,0.161,0.093,0.063
0.308,0.083,0.049,-0.034,-0.063,0.059,0.005,0.137,0.015,0.107,0.161,0.088,0.059
0.31,0.073,0.044,-0.029,-0.059,0.049,0.005,0.132,0.01,0.098,0.156,0.078,0.054
0.312,0.063,0.034,-0.029,-0.049,0.044,0.0,0.127,0.01,0.088,0.146,0.068,0.039
0.314,0.063,0.034,-0.029,-0.049,0.044,0.0,0.127,0.01,0.083,0.132,0.054,0.029
0.316,0.049,0.029,-0.02,-0.039,0.034,0.005,0.127,0.0,0.068,0.122,0.044,0.015
0.318,0.044,0.024,-0.02,-0.034,0.029,0.0,0.132,-0.005,0.063,0.107,0.029,0.01
0.32,0.034,0.02,-0.015,-0.024,0.024,0.0,0.142,0.0,0.059,0.102,0.02,0.0
0.322,0.015,-0.005,-0.02,-0.005,0.015,-0.015,0.142,-0.01,0.054,0.088,0.01,-0.005
0.324,0.02,-0.005,-0.024,-0.005,0.02,-0.015,0.146,-0.005,0.049,0.083,0.0,-0.015
0.326,0.02,-0.01,-0.029,-0.005,0.024,-0.02,0.146,0.0,0.049,0.083,0.0,-0.024
0.328,-0.005,-0.02,-0.015,0.015,0.005,-0.02,0.142,0.0,0.044,0.078,-0.005,-0.024
0.33,-0.01,-0.024,-0.015,0.02,0.0,-0.02,0.146,-0.005,0.044,0.073,-0.01,-0.024
0.332,-0.01,-0.024,-0.015,0.02,0.0,-0.02,0.142,-0.01,0.039,0.068,-0.015,-0.029
0.334,0.0,-0.02,-0.02,0.01,0.01,-0.02,0.132,-0.01,0.034,0.063,-0.02,-0.034
0.336,-0.005,-0.024,-0.02,0.015,0.005,-0.024,0.117,-0.015,0.024,0.059,-0.024,-0.039
0.338,-0.02,-0.034,-0.015,0.029,-0.005,-0.024,0.117,-0.02,0.02,0.059,-0.034,-0.044
0.34,-0.024,-0.039,-0.015,0.034,-0.005,-0.029,0.117,-0.01,0.024,0.059,-0.034,-0.044
0.342,-0.024,-0.049,-0.024,0.039,0.0,-0.039,0.112,-0.02,0.02,0.044,-0.044,-0.049
0.344,-0.034,-0.059,-0.024,0.049,-0.005,-0.044,0.122,-0.015,0.02,0.044,-0.049,-0.049
0.346,-0.029,-0.059,-0.029,0.044,0.0,-0.044,0.127,-0.015,0.02,0.039,-0.054,-0.059
0.348,-0.034,-0.068,-0.034,0.054,0.0,-0.054,0.117,-0.02,0.02,0.044,-0.054,-0.063
0.35,-0.049,-0.068,-0.02,0.059,-0.015,-0.044,0.117,-0.02,0.02,0.044,-0.049,-0.063
0.352,-0.049,-0.063,-0.015,0.059,-0.02,-0.039,0.117,-0.02,0.02,0.039,-0.049,-0.059
0.354,-0.034,-0.059,-0.024,0.049,-0.005,-0.044,0.112,-0.02,0.02,0.039,-0.049,-0.054
0.356,-0.02,-0.049,-0.029,0.034,0.005,-0.039,0.112,-0.02,0.015,0.034,-0.049,-0.059
0.358,-0.029,-0.054,-0.024,0.044,-0.005,-0.039,0.117,-0.02,0.01,0.029,-0.054,-0.059
0.36,-0.039,-0.068,-0.029,0.054,-0.005,-0.049,0.122,-0.015,0.02,0.029,-0.059,-0.063
0.362,-0.034,-0.068,-0.034,0.054,0.0,-0.054,0.127,-0.015,0.024,0.029,-0.059,-0.063
0.364,-0.034,-0.073,-0.039,0.054,0.0,-0.059,0.127,-0.015,0.02,0.02,-0.063,-0.063
0.366,-0.039,-0.078,-0.039,0.059,0.0,-0.059,0.132,-0.015,0.015,0.02,-0.068,-0.073
0.368,-0.049,-0.083,-0.034,0.068,-0.01,-0.059,0.132,-0.01,0.02,0.024,-0.063,-0.068
0.37,-0.039,-0.083,-0.044,0.063,0.0,-0.063,0.117,-0.024,0.015,0.02,-0.068,-0.073
0.372,-0.034,-0.078,-0.044,0.059,0.005,-0.063,0.122,-0.015,0.02,0.024,-0.054,-0.063
0.374,-0.034,-0.073,-0.039,0.054,0.0,-0.059,0.112,-0.02,0.015,0.02,-0.063,-0.068
0.376,-0.044,-0.073,-0.029,0.059,-0.01,-0.054,0.112,-0.015,0.015,0.024,-0.068,-0.063
0.378,-0.044,-0.073,-0.029,0.059,-0.01,-0.054,0.117,-0.02,0.01,0.02,-0.078,-0.063
0.38,-0.054,-0.083,-0.029,0.068,-0.015,-0.059,0.122,-0.02,0.01,0.015,-0.098,-0.073
0.382,-0.034,-0.083,-0.049,0.059,0.005,-0.068,0.117,-0.015,0.01,0.024,-0.098,-0.068
0.384,-0.029,-0.078,-0.049,0.054,0.01,-0.063,0.122,-0.015,0.015,0.024,-0.098,-0.068
0.386,-0.039,-0.088,-0.049,0.063,0.005,-0.068,0.122,-0.01,0.015,0.029,-0.093,-0.063
0.388,-0.044,-0.083,-0.039,0.063,-0.005,-0.063,0.127,-0.005,0.024,0.039,-0.093,-0.059
0.39,-0.044,-0.083,-0.039,0.063,-0.005,-0.063,0.117,-0.015,0.02,0.034,-0.093,-0.059
0.392,-0.049,-0.083,-0.034,0.068,-0.01,-0.059,0.117,-0.015,0.02,0.029,-0.098,-0.068
0.394,-0.044,-0.078,-0.034,0.063,-0.005,-0.059,0.117,-0.015,0.029,0.029,-0.098,-0.068
0.396,-0.039,-0.068,-0.029,0.054,-0.005,-0.049,0.112,-0.015,0.02,0.024,-0.102,-0.068
0.398,-0.034,-0.068,-0.034,0.054,0.0,-0.054,0.117,-0.015,0.02,0.02,-0.102,-0.068
0.4,-0.029,-0.068,-0.039,0.049,0.005,-0.054,0.122,-0.005,0.02,0.029,-0.102,-0.073
0.402,-0.029,-0.068,-0.039,0.049,0.005,-0.054,0.127,-0.005,0.02,0.029,-0.102,-0.068
0.404,-0.029,-0.063,-0.034,0.049,0.0,-0.049,0.127,0.0,0.024,0.034,-0.102,-0.068
0.406,-0.034,-0.073,-0.039,0.054,0.0,-0.059,0.127,0.0,0.034,0.044,-0.098,-0.063
0.408,-0.039,-0.073,-0.034,0.059,-0.005,-0.054,0.132,0.005,0.039,0.049,-0.093,-0.063
0.41,-0.039,-0.073,-0.034,0.059,-0.005,-0.054,0.127,0.0,0.034,0.049,-0.098,-0.063
0.412,-0.039,-0.073,-0.034,0.059,-0.005,-0.054,0.122,0.0,0.034,0.049,-0.098,-0.068
0.414,-0.034,-0.073,-0.039,0.054,0.0,-0.059,0.117,0.0,0.039,0.054,-0.098,-0.063
0.416,-0.034,-0.068,-0.034,0.054,0.0,-0.054,0.112,-0.005,0.029,0.054,-0.102,-0.073
0.418,-0.034,-0.073,-0.039,0.054,0.0,-0.059,0.107,-0.005,0.024,0.044,-0.102,-0.073
0.42,-0.029,-0.068,-0.039,0.049,0.005,-0.054,0.112,0.0,0.029,0.044,-0.098,-0.068
0.422,-0.029,-0.068,-0.039,0.049,0.005,-0.054,0.117,0.005,0.034,0.044,-0.102,-0.068
0.424,-0.024,-0.063,-0.039,0.044,0.005,-0.054,0.127,0.005,0.034,0.049,-0.098,-0.063
0.426,-0.02,-0.068,-0.049,0.044,0.015,-0.059,0.122,0.01,0.034,0.049,-0.093,-0.059
0.428,-0.029,-0.078,-0.049,0.054,0.01,-0.063,0.122,0.01,0.039,0.054,-0.088,-0.059
0.43,-0.024,-0.073,-0.049,0.049,0.01,-0.063,0.127,0.005,0.039,0.054,-0.093,-0.054
0.432,-0.029,-0.068,-0.039,0.049,0.005,-0.054,0.132,0.01,0.044,0.054,-0.083,-0.049
0.434,-0.034,-0.063,-0.029,0.049,-0.005,-0.049,0.122,0.005,0.039,0.054,-0.088,-0.049
0.436,-0.024,-0.054,-0.029,0.039,0.0,-0.044,0.127,0.005,0.039,0.049,-0.088,-0.054
0.438,-0.024,-0.063,-0.039,0.044,0.005,-0.054,0.117,-0.005,0.029,0.039,-0.098,-0.063
0.44,-0.034,-0.068,-0.034,0.054,0.0,-0.054,0.122,0.0,0.029,0.039,-0.102,-0.068
0.442,-0.029,-0.063,-0.034,0.049,0.0,-0.049,0.122,0.005,0.039,0.044,-0.102,-0.068
0.444,-0.034,-0.068,-0.034,0.054,0.0,-0.054,0.127,0.0,0.034,0.039,-0.102,-0.073
0.446,-0.02,-0.059,-0.039,0.039,0.01,-0.049,0.127,0.01,0.044,0.049,-0.098,-0.063
0.448,-0.024,-0.063,-0.039,0.044,0.005,-0.054,0.117,0.005,0.039,0.054,-0.093,-0.068
0.45,-0.02,-0.068,-0.049,0.044,0.015,-0.059,0.107,-0.005,0.039,0.054,-0.093,-0.063
0.452,-0.015,-0.054,-0.039,0.034,0.01,-0.049,0.107,0.005,0.044,0.059,-0.083,-0.059
0.454,-0.015,-0.054,-0.039,0.034,0.01,-0.049,0.098,0.0,0.044,0.054,-0.088,-0.059
0.456,-0.02,-0.059,-0.039,0.039,0.01,-0.049,0.102,0.0,0.039,0.054,-0.088,-0.059
0.458,-0.024,-0.054,-0.029,0.039,0.0,-0.044,0.098,0.0,0.034,0.049,-0.093,-0.059
0.46,-0.034,-0.059,-0.024,0.049,-0.005,-0.044,0.093,0.0,0.034,0.054,-0.098,-0.063
0.462,-0.015,-0.054,-0.039,0.034,0.01,-0.049,0.088,0.0,0.029,0.049,-0.102,-0.068
0.464,0.0,-0.054,-0.054,0.029,0.024,-0.054,0.093,-0.005,0.029,0.049,-0.102,-0.068
0.466,-0.024,-0.068,-0.044,0.049,0.01,-0.059,0.093,0.005,0.039,0.054,-0.093,-0.063
0.468,-0.039,-0.068,-0.029,0.054,-0.005,-0.049,0.098,0.01,0.049,0.059,-0.088,-0.054
0.47,-0.029,-0.063,-0.034,0.049,0.0,-0.049,0.088,-0.005,0.044,0.054,-0.088,-0.054
0.472,-0.024,-0.063,-0.039,0.044,0.005,-0.054,0.083,-0.01,0.039,0.044,-0.088,-0.059
0.474,-0.015,-0.059,-0.044,0.039,0.015,-0.054,0.083,-0.005,0.039,0.049,-0.083,-0.059
0.476,-0.024,-0.059,-0.034,0.044,0.005,-0.049,0.088,-0.01,0.034,0.049,-0.093,-0.054
0.478,-0.034,-0.063,-0.029,0.049,-0.005,-0.049,0.093,-0.005,0.034,0.044,-0.088,-0.049
0.48,-0.029,-0.068,-0.039,0.049,0.005,-0.054,0.093,-0.005,0.029,0.044,-0.093,-0.059
0.482,-0.024,-0.073,-0.049,0.049,0.01,-0.063,0.088,-0.01,0.034,0.044,-0.093,-0.054
0.484,-0.02,-0.073,-0.054,0.049,0.015,-0.063,0.102,0.0,0.034,0.049,-0.093,-0.049
0.486,-0.02,-0.078,-0.059,0.049,0.02,-0.068,0.093,0.0,0.034,0.044,-0.088,-0.059
0.488,-0.02,-0.073,-0.054,0.049,0.015,-0.063,0.093,0.0,0.039,0.054,-0.093,-0.059
0.49,-0.024,-0.068,-0.044,0.049,0.01,-0.059,0.098,0.0,0.044,0.054,-0.083,-0.049
0.492,-0.02,-0.063,-0.044,0.044,0.01,-0.054,0.088,-0.01,0.029,0.039,-0.093,-0.059
0.494,-0.015,-0.054,-0.039,0.034,0.01,-0.049,0.088,-0.01,0.029,0.044,-0.098,-0.059
0.496,-0.015,-0.054,-0.039,0.034,0.01,-0.049,0.088,-0.01,0.02,0.039,-0.102,-0.059
0.498,-0.02,-0.059,-0.039,0.039,0.01,-0.049,0.083,-0.01,0.02,0.034,-0.102,-0.063
0.5,-0.01,-0.059,-0.049,0.034,0.02,-0.054,0.083,-0.005,0.015,0.034,-0.107,-0.063
0.502,-0.015,-0.063,-0.049,0.039,0.015,-0.059,0.088,-0.01,0.02,0.039,-0.112,-0.059
0.504,-0.02,-0.063,-0.044,0.044,0.01,-0.054,0.083,-0.005,0.02,0.039,-0.107,-0.059
0.506,-0.02,-0.068,-0.049,0.044,0.015,-0.059,0.078,-0.005,0.015,0.034,-0.107,-0.059
0.508,-0.029,-0.073,-0.044,0.054,0.005,-0.059,0.078,-0.01,0.02,0.034,-0.107,-0.059
0.51,-0.024,-0.073,-0.049,0.049,0.01,-0.063,0.078,-0.015,0.015,0.029,-0.102,-0.059
0.512,-0.024,-0.068,-0.044,0.049,0.01,-0.059,0.068,-0.02,0.005,0.015,-0.102,-0.063
0.514,-0.02,-0.063,-0.044,0.044,0.01,-0.054,0.073,-0.015,0.015,0.024,-0.102,-0.059
0.516,-0.02,-0.059,-0.039,0.039,0.01,-0.049,0.073,-0.015,0.01,0.02,-0.102,-0.063
0.518,-0.029,-0.063,-0.034,0.049,0.0,-0.049,0.068,-0.015,0.01,0.015,-0.102,-0.063
0.52,-0.02,-0.059,-0.039,0.039,0.01,-0.049,0.073,-0.015,0.005,0.02,-0.102,-0.068
0.522,-0.024,-0.063,-0.039,0.044,0.005,-0.054,0.073,-0.015,0.005,0.024,-0.102,-0.059
0.524,-0.029,-0.073,-0.044,0.054,0.005,-0.059,0.078,-0.01,0.005,0.024,-0.093,-0.059
0.526,-0.02,-0.073,-0.054,0.049,0.015,-0.063,0.073,-0.01,0.01,0.02,-0.098,-0.059
0.528,-0.029,-0.078,-0.049,0.054,0.01,-0.063,0.068,-0.015,0.01,0.015,-0.098,-0.063
0.53,-0.034,-0.078,-0.044,0.059,0.005,-0.063,0.068,-0.01,0.01,0.02,-0.098,-0.054
0.532,-0.024,-0.063,-0.039,0.044,0.005,-0.054,0.073,-0.015,0.005,0.015,-0.098,-0.059
0.534,-0.029,-0.068,-0.039,0.049,0.005,-0.054,0.068,-0.02,0.005,0.015,-0.107,-0.054
0.536,-0.034,-0.073,-0.039,0.054,0.0,-0.059,0.063,-0.024,-0.01,0.01,-0.112,-0.068
0.538,-0.029,-0.063,-0.034,0.049,0.0,-0.049,0.068,-0.02,0.0,0.01,-0.107,-0.063
0.54,-0.029,-0.068,-0.039,0.049,0.005,-0.054,0.068,-0.015,0.005,0.015,-0.112,-0.063
0.542,-0.02,-0.063,-0.044,0.044,0.01,-0.054,0.068,-0.015,0.005,0.015,-0.117,-0.063
0.544,-0.024,-0.068,-0.044,0.049,0.01,-0.059,0.063,-0.015,-0.005,0.015,-0.112,-0.068
0.546,-0.029,-0.073,-0.044,0.054,0.005,-0.059,0.063,-0.02,-0.005,0.005,-0.112,-0.068
0.548,-0.029,-0.073,-0.044,0.054,0.005,-0.059,0.059,-0.024,0.0,0.005,-0.117,-0.068
0.55,-0.024,-0.073,-0.049,0.049,0.01,-0.063,0.059,-0.024,0.0,0.01,-0.117,-0.068
0.552,-0.024,-0.063,-0.039,0.044,0.005,-0.054,0.063,-0.024,0.0,0.005,-0.112,-0.063
0.554,-0.02,-0.059,-0.039,0.039,0.01,-0.049,0.054,-0.029,-0.005,0.0,-0.122,-0.068
0.556,-0.039,-0.068,-0.029,0.054,-0.005,-0.049,0.059,-0.029,-0.005,0.0,-0.127,-0.068
0.558,-0.029,-0.063,-0.034,0.049,0.0,-0.049,0.059,-0.034,-0.015,-0.005,-0.127,-0.068
0.56,-0.029,-0.059,-0.029,0.044,0.0,-0.044,0.054,-0.029,-0.01,0.0,-0.122,-0.078
0.562,-0.024,-0.059,-0.034,0.044,0.005,-0.049,0.059,-0.024,-0.005,0.005,-0.117,-0.073
0.564,-0.02,-0.059,-0.039,0.039,0.01,-0.049,0.054,-0.024,-0.005,0.0,-0.112,-0.073
0.566,-0.024,-0.063,-0.039,0.044,0.005,-0.054,0.054,-0.02,-0.005,0.005,-0.112,-0.073
0.568,-0.029,-0.063,-0.034,0.049,0.0,-0.049,0.049,-0.024,0.0,0.005,-0.107,-0.068
0.57,-0.024,-0.059,-0.034,0.044,0.005,-0.049,0.059,-0.02,0.0,0.01,-0.102,-0.063
0.572,-0.029,-0.054,-0.024,0.044,-0.005,-0.039,0.059,-0.02,0.0,0.005,-0.102,-0.063
0.574,-0.029,-0.059,-0.029,0.044,0.0,-0.044,0.054,-0.024,-0.005,0.0,-0.102,-0.063
0.576,-0.044,-0.063,-0.02,0.054,-0.015,-0.044,0.049,-0.034,-0.01,0.0,-0.102,-0.063
0.578,-0.034,-0.059,-0.024,0.049,-0.005,-0.044,0.039,-0.039,-0.02,0.0,-0.112,-0.063
0.58,-0.029,-0.059,-0.029,0.044,0.0,-0.044,0.044,-0.034,-0.01,0.005,-0.102,-0.063
0.582,-0.029,-0.068,-0.039,0.049,0.005,-0.054,0.044,-0.034,-0.01,0.0,-0.107,-0.063
0.584,-0.024,-0.068,-0.044,0.049,0.01,-0.059,0.044,-0.029,-0.015,0.005,-0.102,-0.059
0.586,-0.02,-0.068,-0.049,0.044,0.015,-0.059,0.049,-0.02,-0.005,0.01,-0.107,-0.054
0.588,-0.024,-0.073,-0.049,0.049,0.01,-0.063,0.039,-0.029,-0.01,0.005,-0.107,-0.063
0.59,-0.02,-0.068,-0.049,0.044,0.015,-0.059,0.039,-0.024,-0.005,0.01,-0.102,-0.054
0.592,-0.029,-0.063,-0.034,0.049,0.0,-0.049,0.034,-0.034,-0.01,0.005,-0.107,-0.059
0.594,-0.034,-0.073,-0.039,0.054,0.0,-0.059,0.039,-0.029,-0.01,0.005,-0.112,-0.063
0.596,-0.034,-0.068,-0.034,0.054,0.0,-0.054,0.044,-0.034,-0.02,0.0,-0.107,-0.063
0.598,-0.039,-0.073,-0.034,0.059,-0.005,-0.054,0.039,-0.034,-0.024,-0.005,-0.117,-0.063
0.6,-0.039,-0.068,-0.029,0.054,-0.005,-0.049,0.044,-0.024,-0.015,0.0,-0.112,-0.059
0.602,-0.024,-0.068,-0.044,0.049,0.01,-0.059,0.039,-0.024,-0.015,0.005,-0.107,-0.059
0.604,-0.034,-0.078,-0.044,0.059,0.005,-0.063,0.039,-0.029,-0.015,0.01,-0.107,-0.059
0.606,-0.034,-0.078,-0.044,0.059,0.005,-0.063,0.039,-0.024,-0.01,0.024,-0.102,-0.054
0.608,-0.039,-0.078,-0.039,0.059,0.0,-0.059,0.039,-0.024,-0.01,0.024,-0.102,-0.059
0.61,-0.049,-0.073,-0.024,0.063,-0.015,-0.049,0.039,-0.02,-0.005,0.034,-0.093,-0.049
0.612,-0.039,-0.068,-0.029,0.054,-0.005,-0.049,0.039,-0.029,-0.005,0.029,-0.093,-0.049
0.614,-0.039,-0.068,-0.029,0.054,-0.005,-0.049,0.034,-0.029,-0.01,0.029,-0.093,-0.054
0.616,-0.039,-0.059,-0.02,0.049,-0.01,-0.039,0.034,-0.029,-0.01,0.034,-0.093,-0.059
0.618,-0.034,-0.063,-0.029,0.049,-0.005,-0.049,0.034,-0.034,-0.02,0.029,-0.102,-0.059
0.62,-0.029,-0.068,-0.039,0.049,0.005,-0.054,0.024,-0.034,-0.02,0.024,-0.107,-0.063
0.622,-0.034,-0.068,-0.034,0.054,0.0,-0.054,0.029,-0.029,-0.015,0.029,-0.102,-0.059
0.624,-0.034,-0.063,-0.029,0.049,-0.005,-0.049,0.024,-0.029,-0.02,0.029,-0.107,-0.059
0.626,-0.034,-0.068,-0.034,0.054,0.0,-0.054,0.024,-0.029,-0.02,0.029,-0.112,-0.059
0.628,-0.034,-0.063,-0.029,0.049,-0.005,-0.049,0.024,-0.029,-0.01,0.029,-0.107,-0.054
0.63,-0.039,-0.068,-0.029,0.054,-0.005,-0.049,0.024,-0.034,-0.015,0.034,-0.112,-0.049
0.632,-0.039,-0.063,-0.024,0.054,-0.01,-0.044,0.02,-0.029,-0.015,0.034,-0.112,-0.059
0.634,-0.044,-0.063,-0.02,0.054,-0.015,-0.044,0.029,-0.034,-0.015,0.044,-0.117,-0.054
0.636,-0.044,-0.054,-0.01,0.049,-0.02,-0.034,0.024,-0.034,-0.015,0.039,-0.122,-0.059
0.638,-0.029,-0.049,-0.02,0.039,-0.005,-0.034,0.024,-0.029,-0.02,0.044,-0.117,-0.049
0.64,-0.029,-0.049,-0.02,0.039,-0.005,-0.034,0.02,-0.029,-0.024,0.039,-0.117,-0.054
0.642,-0.029,-0.054,-0.024,0.044,-0.005,-0.039,0.024,-0.024,-0.024,0.039,-0.117,-0.054
0.644,-0.029,-0.059,-0.029,0.044,0.0,-0.044,0.02,-0.029,-0.024,0.034,-0.112,-0.054
0.646,-0.029,-0.063,-0.034,0.049,0.0,-0.049,0.02,-0.034,-0.029,0.034,-0.112,-0.054
0.648,-0.029,-0.063,-0.034,0.049,0.0,-0.049,0.024,-0.029,-0.02,0.039,-0.102,-0.049
0.65,-0.024,-0.059,-0.034,0.044,0.005,-0.049,0.015,-0.029,-0.024,0.039,-0.102,-0.044
0.652,-0.024,-0.049,-0.024,0.039,0.0,-0.039,0.024,-0.029,-0.029,0.034,-0.098,-0.044
0.654,-0.034,-0.049,-0.015,0.044,-0.01,-0.034,0.029,-0.024,-0.02,0.034,-0.093,-0.039
0.656,-0.044,-0.049,-0.005,0.049,-0.02,-0.029,0.029,-0.029,-0.024,0.034,-0.093,-0.044
0.658,-0.029,-0.034,-0.005,0.034,-0.015,-0.02,0.029,-0.024,-0.024,0.039,-0.093,-0.039
0.66,-0.02,-0.024,-0.005,0.024,-0.01,-0.015,0.024,-0.024,-0.024,0.034,-0.098,-0.044
0.662,-0.02,-0.034,-0.015,0.029,-0.005,-0.024,0.029,-0.024,-0.029,0.034,-0.102,-0.039
0.664,-0.015,-0.034,-0.02,0.024,0.0,-0.029,0.034,-0.024,-0.02,0.034,-0.088,-0.039
0.666,-0.024,-0.049,-0.024,0.039,0.0,-0.039,0.029,-0.024,-0.024,0.029,-0.093,-0.044
0.668,-0.015,-0.049,-0.034,0.034,0.01,-0.044,0.034,-0.024,-0.02,0.024,-0.093,-0.044
0.67,-0.005,-0.039,-0.034,0.024,0.015,-0.039,0.034,-0.024,-0.015,0.02,-0.088,-0.039
0.672,-0.015,-0.039,-0.024,0.029,0.005,-0.034,0.034,-0.015,-0.01,0.02,-0.083,-0.039
0.674,-0.005,-0.034,-0.029,0.02,0.01,-0.034,0.039,-0.015,-0.005,0.02,-0.083,-0.039
0.676,0.0,-0.02,-0.02,0.01,0.01,-0.02,0.034,-0.02,-0.005,0.015,-0.088,-0.039
0.678,0.0,-0.024,-0.024,0.015,0.01,-0.024,0.024,-0.015,-0.01,0.02,-0.088,-0.034
0.68,0.015,-0.02,-0.034,0.005,0.024,-0.029,0.024,-0.015,-0.01,0.02,-0.088,-0.034
0.682,0.01,-0.024,-0.034,0.01,0.02,-0.029,0.029,-0.01,-0.01,0.024,-0.088,-0.029
0.684,0.0,-0.024,-0.024,0.015,0.01,-0.024,0.039,-0.005,-0.005,0.024,-0.073,-0.024
0.686,0.005,-0.02,-0.024,0.01,0.015,-0.024,0.049,0.005,0.01,0.029,-0.068,-0.024
0.688,0.005,-0.01,-0.015,0.005,0.01,-0.015,0.049,0.005,0.01,0.024,-0.068,-0.024
0.69,0.015,-0.005,-0.02,-0.005,0.015,-0.015,0.049,0.01,0.015,0.034,-0.063,-0.015
0.692,0.015,0.0,-0.015,-0.005,0.015,-0.01,0.044,0.01,0.01,0.024,-0.063,-0.015
0.694,0.005,-0.01,-0.015,0.005,0.01,-0.015,0.039,0.0,0.0,0.015,-0.068,-0.024
0.696,0.015,0.005,-0.01,-0.01,0.01,-0.005,0.049,0.01,0.01,0.024,-0.059,-0.015
0.698,0.034,0.015,-0.02,-0.024,0.024,-0.005,0.059,0.024,0.015,0.034,-0.049,-0.01
0.7,0.039,0.024,-0.015,-0.029,0.024,0.005,0.068,0.044,0.029,0.039,-0.039,0.0
0.702,0.034,0.029,-0.005,-0.029,0.02,0.01,0.078,0.054,0.034,0.049,-0.039,0.01
0.704,0.034,0.034,0.0,-0.034,0.015,0.015,0.068,0.044,0.024,0.044,-0.039,0.005
0.706,0.039,0.034,-0.005,-0.034,0.02,0.015,0.068,0.049,0.034,0.049,-0.024,0.01
0.708,0.039,0.039,0.0,-0.039,0.02,0.02,0.068,0.044,0.029,0.049,-0.024,0.02
0.71,0.034,0.039,0.005,-0.034,0.015,0.02,0.059,0.034,0.024,0.039,-0.029,0.02
0.712,0.034,0.044,0.01,-0.039,0.01,0.024,0.044,0.029,0.02,0.029,-0.024,0.02
0.714,0.034,0.039,0.005,-0.034,0.015,0.02,0.029,0.01,0.005,0.015,-0.034,0.01
0.716,0.039,0.034,-0.005,-0.034,0.02,0.015,0.01,-0.005,-0.01,0.005,-0.044,-0.005
0.718,0.039,0.024,-0.015,-0.029,0.024,0.005,0.0,-0.015,-0.02,-0.005,-0.059,-0.01
0.72,0.034,0.005,-0.029,-0.02,0.029,-0.015,-0.01,-0.029,-0.029,-0.024,-0.073,-0.02
0.722,0.044,-0.005,-0.049,-0.02,0.044,-0.029,-0.015,-0.034,-0.034,-0.034,-0.078,-0.024
0.724,0.024,-0.024,-0.049,0.0,0.034,-0.039,-0.02,-0.044,-0.044,-0.059,-0.088,-0.029
0.726,0.029,-0.034,-0.063,0.005,0.044,-0.049,-0.029,-0.054,-0.054,-0.063,-0.093,-0.039
0.728,0.044,-0.02,-0.063,-0.01,0.054,-0.044,-0.029,-0.049,-0.049,-0.059,-0.083,-0.034
0.73,0.034,-0.029,-0.063,0.0,0.049,-0.049,-0.034,-0.063,-0.054,-0.059,-0.083,-0.029
0.732,0.029,-0.029,-0.059,0.0,0.044,-0.044,-0.039,-0.063,-0.054,-0.063,-0.083,-0.029
0.734,0.029,-0.034,-0.063,0.005,0.044,-0.049,-0.039,-0.068,-0.059,-0.073,-0.088,-0.034
0.736,0.02,-0.044,-0.063,0.015,0.039,-0.054,-0.039,-0.068,-0.063,-0.073,-0.088,-0.034
0.738,0.015,-0.039,-0.054,0.015,0.034,-0.049,-0.039,-0.073,-0.068,-0.073,-0.088,-0.039
0.74,-0.005,-0.044,-0.039,0.024,0.015,-0.044,-0.044,-0.078,-0.068,-0.088,-0.098,-0.049
0.742,-0.015,-0.049,-0.034,0.034,0.01,-0.044,-0.039,-0.073,-0.063,-0.088,-0.093,-0.049
0.744,-0.029,-0.044,-0.015,0.039,-0.01,-0.029,-0.02,-0.054,-0.059,-0.078,-0.083,-0.049
0.746,-0.044,-0.049,-0.005,0.049,-0.02,-0.029,-0.015,-0.049,-0.059,-0.078,-0.088,-0.044
0.748,-0.049,-0.054,-0.005,0.054,-0.024,-0.029,-0.015,-0.054,-0.059,-0.083,-0.093,-0.044
0.75,-0.049,-0.054,-0.005,0.054,-0.024,-0.029,-0.015,-0.059,-0.059,-0.083,-0.093,-0.054
0.752,-0.054,-0.049,0.005,0.054,-0.029,-0.024,-0.024,-0.073,-0.073,-0.098,-0.112,-0.063
0.754,-0.063,-0.054,0.01,0.059,-0.039,-0.024,-0.024,-0.073,-0.078,-0.102,-0.117,-0.068
0.756,-0.063,-0.059,0.005,0.063,-0.034,-0.029,-0.029,-0.083,-0.093,-0.107,-0.122,-0.073
0.758,-0.063,-0.059,0.005,0.063,-0.034,-0.029,-0.034,-0.083,-0.098,-0.107,-0.122,-0.073
0.76,-0.059,-0.054,0.005,0.059,-0.034,-0.024,-0.029,-0.078,-0.088,-0.107,-0.112,-0.068
0.762,-0.063,-0.063,0.0,0.063,-0.034,-0.034,-0.029,-0.073,-0.083,-0.098,-0.112,-0.063
0.764,-0.059,-0.063,-0.005,0.063,-0.029,-0.034,-0.039,-0.078,-0.093,-0.102,-0.117,-0.068
0.766,-0.049,-0.063,-0.015,0.059,-0.02,-0.039,-0.034,-0.073,-0.083,-0.098,-0.112,-0.059
0.768,-0.049,-0.063,-0.015,0.059,-0.02,-0.039,-0.034,-0.078,-0.078,-0.102,-0.107,-0.054
0.77,-0.054,-0.059,-0.005,0.059,-0.024,-0.034,-0.034,-0.078,-0.078,-0.098,-0.102,-0.049
0.772,-0.049,-0.054,-0.005,0.054,-0.024,-0.029,-0.039,-0.078,-0.088,-0.098,-0.102,-0.049
0.774,-0.049,-0.049,0.0,0.049,-0.024,-0.024,-0.039,-0.078,-0.083,-0.102,-0.107,-0.049
0.776,-0.049,-0.039,0.01,0.044,-0.029,-0.015,-0.039,-0.083,-0.088,-0.107,-0.102,-0.054
0.778,-0.054,-0.044,0.01,0.049,-0.034,-0.02,-0.039,-0.078,-0.093,-0.112,-0.107,-0.054
0.78,-0.063,-0.049,0.015,0.059,-0.039,-0.02,-0.034,-0.073,-0.088,-0.112,-0.107,-0.054
0.782,-0.059,-0.054,0.005,0.059,-0.034,-0.024,-0.044,-0.073,-0.093,-0.112,-0.117,-0.063
0.784,-0.063,-0.063,0.0,0.063,-0.034,-0.034,-0.044,-0.073,-0.093,-0.112,-0.112,-0.063
0.786,-0.049,-0.049,0.0,0.049,-0.024,-0.024,-0.044,-0.068,-0.093,-0.117,-0.107,-0.063
0.788,-0.044,-0.049,-0.005,0.049,-0.02,-0.029,-0.044,-0.068,-0.083,-0.117,-0.112,-0.063
0.79,-0.044,-0.044,0.0,0.044,-0.024,-0.024,-0.044,-0.073,-0.083,-0.107,-0.102,-0.059
0.792,-0.063,-0.039,0.024,0.054,-0.044,-0.01,-0.049,-0.068,-0.083,-0.107,-0.107,-0.054
0.794,-0.063,-0.044,0.02,0.054,-0.044,-0.015,-0.049,-0.068,-0.083,-0.117,-0.117,-0.068
0.796,-0.063,-0.044,0.02,0.054,-0.044,-0.015,-0.039,-0.059,-0.083,-0.122,-0.127,-0.073
0.798,-0.049,-0.044,0.005,0.049,-0.029,-0.02,-0.024,-0.039,-0.088,-0.127,-0.142,-0.083
0.8,-0.044,-0.059,-0.015,0.054,-0.015,-0.039,0.015,0.015,-0.068,-0.137,-0.161,-0.102
0.802,-0.034,-0.063,-0.029,0.049,-0.005,-0.049,0.078,0.093,-0.024,-0.127,-0.166,-0.117
0.804,-0.015,-0.068,-0.054,0.044,0.02,-0.063,0.156,0.2,0.039,-0.107,-0.176,-0.132
0.806,0.015,-0.068,-0.083,0.029,0.049,-0.078,0.229,0.307,0.112,-0.078,-0.176,-0.146
0.808,0.049,-0.049,-0.098,0.0,0.073,-0.073,0.298,0.395,0.181,-0.039,-0.156,-0.137
0.81,0.068,-0.02,-0.088,-0.024,0.078,-0.054,0.361,0.468,0.239,0.01,-0.117,-0.112
0.812,0.107,0.02,-0.088,-0.063,0.098,-0.034,0.439,0.566,0.312,0.078,-0.059,-0.063
0.814,0.151,0.073,-0.078,-0.112,0.112,-0.005,0.542,0.693,0.429,0.176,0.024,-0.005
0.816,0.2,0.142,-0.059,-0.171,0.127,0.039,0.6,0.766,0.532,0.298,0.132,0.083
0.818,0.229,0.234,0.005,-0.229,0.112,0.117,0.576,0.742,0.605,0.415,0.273,0.19
0.82,0.249,0.322,0.073,-0.283,0.088,0.195,0.527,0.693,0.678,0.551,0.425,0.337
0.822,0.273,0.415,0.142,-0.342,0.063,0.278,0.483,0.664,0.791,0.737,0.61,0.493
0.824,0.298,0.537,0.239,-0.415,0.029,0.386,0.415,0.615,0.903,0.913,0.8,0.659
0.826,0.317,0.688,0.371,-0.503,-0.029,0.527,0.268,0.488,1.0,1.118,1.015,0.854
0.828,0.327,0.859,0.532,-0.59,-0.102,0.693,0.098,0.346,1.103,1.327,1.244,1.049
0.83,0.283,1.0,0.717,-0.639,-0.22,0.859,0.044,0.303,1.215,1.513,1.425,1.21
0.832,0.19,1.078,0.888,-0.634,-0.351,0.981,0.015,0.273,1.274,1.591,1.513,1.298
0.834,0.122,1.015,0.893,-0.566,-0.386,0.952,-0.068,0.185,1.181,1.479,1.42,1.244
0.836,0.073,0.874,0.8,-0.473,-0.366,0.834,-0.156,0.073,1.0,1.244,1.205,1.093
0.838,0.044,0.747,0.703,-0.395,-0.332,0.722,-0.254,-0.049,0.786,1.0,0.991,0.937
0.84,0.015,0.62,0.605,-0.317,-0.298,0.61,-0.351,-0.2,0.532,0.727,0.761,0.766
0.842,-0.059,0.512,0.571,-0.224,-0.317,0.542,-0.468,-0.39,0.215,0.425,0.522,0.59
0.844,-0.156,0.454,0.61,-0.146,-0.386,0.532,-0.561,-0.571,-0.093,0.142,0.317,0.449
0.846,-0.224,0.444,0.669,-0.107,-0.449,0.556,-0.61,-0.688,-0.303,-0.044,0.176,0.346
0.848,-0.268,0.415,0.683,-0.073,-0.478,0.547,-0.664,-0.747,-0.405,-0.146,0.083,0.264
0.85,-0.293,0.366,0.659,-0.034,-0.478,0.512,-0.698,-0.771,-0.439,-0.195,0.01,0.185
0.852,-0.312,0.322,0.634,-0.005,-0.473,0.478,-0.703,-0.761,-0.454,-0.234,-0.054,0.117
0.854,-0.307,0.288,0.595,0.01,-0.454,0.439,-0.708,-0.756,-0.473,-0.259,-0.093,0.068
0.856,-0.273,0.259,0.532,0.01,-0.405,0.395,-0.683,-0.742,-0.464,-0.264,-0.107,0.039
0.858,-0.249,0.21,0.459,0.02,-0.356,0.332,-0.625,-0.678,-0.439,-0.259,-0.122,0.01
0.86,-0.21,0.166,0.376,0.024,-0.293,0.268,-0.537,-0.581,-0.4,-0.259,-0.137,-0.015
0.862,-0.176,0.137,0.312,0.02,-0.244,0.224,-0.439,-0.468,-0.337,-0.234,-0.137,-0.029
0.864,-0.137,0.107,0.244,0.015,-0.19,0.176,-0.356,-0.366,-0.273,-0.22,-0.127,-0.044
0.866,-0.112,0.088,0.2,0.015,-0.156,0.142,-0.288,-0.293,-0.234,-0.195,-0.122,-0.044
0.868,-0.098,0.078,0.176,0.01,-0.137,0.127,-0.244,-0.239,-0.205,-0.181,-0.117,-0.044
0.87,-0.083,0.068,0.151,0.01,-0.117,0.107,-0.2,-0.195,-0.176,-0.166,-0.107,-0.049
0.872,-0.073,0.044,0.117,0.015,-0.098,0.078,-0.161,-0.156,-0.156,-0.156,-0.112,-0.049
0.874,-0.068,0.024,0.093,0.024,-0.083,0.059,-0.142,-0.117,-0.142,-0.151,-0.117,-0.059
0.876,-0.054,0.01,0.063,0.024,-0.059,0.034,-0.117,-0.068,-0.117,-0.142,-0.117,-0.063
0.878,-0.044,-0.01,0.034,0.029,-0.039,0.01,-0.098,-0.049,-0.107,-0.137,-0.117,-0.073
0.88,-0.034,-0.024,0.01,0.029,-0.024,-0.01,-0.078,-0.029,-0.098,-0.137,-0.117,-0.073
0.882,-0.024,-0.024,0.0,0.024,-0.015,-0.015,-0.068,-0.024,-0.093,-0.132,-0.112,-0.068
0.884,-0.029,-0.029,0.0,0.029,-0.015,-0.015,-0.063,-0.02,-0.088,-0.127,-0.112,-0.068
0.886,-0.034,-0.034,0.0,0.034,-0.02,-0.02,-0.054,-0.015,-0.093,-0.132,-0.117,-0.078
0.888,-0.024,-0.034,-0.01,0.029,-0.01,-0.024,-0.049,-0.005,-0.088,-0.137,-0.117,-0.078
0.89,-0.024,-0.039,-0.015,0.034,-0.005,-0.029,-0.049,-0.005,-0.093,-0.137,-0.127,-0.083
0.892,-0.015,-0.039,-0.024,0.029,0.005,-0.034,-0.049,0.005,-0.088,-0.142,-0.132,-0.088
0.894,-0.024,-0.054,-0.029,0.039,0.0,-0.044,-0.039,0.01,-0.083,-0.142,-0.132,-0.088
0.896,-0.024,-0.049,-0.024,0.039,0.0,-0.039,-0.034,0.005,-0.078,-0.132,-0.137,-0.088
0.898,-0.024,-0.044,-0.02,0.034,-0.005,-0.034,-0.039,0.01,-0.063,-0.132,-0.127,-0.088
0.9,-0.02,-0.039,-0.02,0.029,0.0,-0.029,-0.039,0.005,-0.063,-0.132,-0.122,-0.083
0.902,-0.024,-0.039,-0.015,0.034,-0.005,-0.029,-0.039,0.005,-0.068,-0.127,-0.117,-0.078
0.904,-0.015,-0.039,-0.024,0.029,0.005,-0.034,-0.044,0.005,-0.063,-0.127,-0.112,-0.078
0.906,-0.02,-0.049,-0.029,0.034,0.005,-0.039,-0.029,0.01,-0.063,-0.127,-0.112,-0.073
0.908,-0.015,-0.039,-0.024,0.029,0.005,-0.034,-0.024,0.01,-0.068,-0.132,-0.112,-0.073
0.91,-0.015,-0.049,-0.034,0.034,0.01,-0.044,-0.02,0.015,-0.068,-0.127,-0.117,-0.083
0.912,-0.015,-0.049,-0.034,0.034,0.01,-0.044,-0.02,0.02,-0.068,-0.132,-0.117,-0.088
0.914,0.0,-0.039,-0.039,0.02,0.02,-0.039,-0.02,0.024,-0.068,-0.132,-0.122,-0.088
0.916,-0.005,-0.044,-0.039,0.024,0.015,-0.044,-0.02,0.02,-0.059,-0.122,-0.112,-0.083
0.918,-0.015,-0.044,-0.029,0.029,0.005,-0.039,-0.02,0.024,-0.049,-0.117,-0.112,-0.078
0.92,-0.02,-0.044,-0.024,0.034,0.0,-0.034,-0.02,0.015,-0.049,-0.122,-0.107,-0.078
0.922,-0.02,-0.049,-0.029,0.034,0.005,-0.039,-0.02,0.02,-0.049,-0.117,-0.107,-0.078
0.924,-0.01,-0.044,-0.034,0.029,0.01,-0.039,-0.024,0.02,-0.044,-0.112,-0.102,-0.073
0.926,-0.02,-0.049,-0.029,0.034,0.005,-0.039,-0.015,0.029,-0.049,-0.112,-0.102,-0.068
0.928,-0.015,-0.044,-0.029,0.029,0.005,-0.039,-0.02,0.024,-0.054,-0.117,-0.107,-0.073
0.93,-0.01,-0.049,-0.039,0.029,0.015,-0.044,-0.015,0.034,-0.049,-0.112,-0.102,-0.078
0.932,-0.02,-0.049,-0.029,0.034,0.005,-0.039,-0.01,0.039,-0.039,-0.112,-0.102,-0.078
0.934,-0.01,-0.044,-0.034,0.029,0.01,-0.039,0.0,0.044,-0.039,-0.122,-0.102,-0.078
0.936,-0.005,-0.039,-0.034,0.024,0.015,-0.039,-0.01,0.034,-0.039,-0.122,-0.098,-0.083
0.938,-0.005,-0.049,-0.044,0.029,0.02,-0.049,-0.005,0.034,-0.029,-0.112,-0.093,-0.068
0.94,-0.01,-0.044,-0.034,0.029,0.01,-0.039,-0.01,0.029,-0.024,-0.112,-0.088,-0.068
0.942,-0.015,-0.044,-0.029,0.029,0.005,-0.039,-0.01,0.029,-0.034,-0.112,-0.093,-0.073
0.944,-0.01,-0.039,-0.029,0.024,0.01,-0.034,-0.015,0.024,-0.034,-0.117,-0.093,-0.078
0.946,-0.005,-0.039,-0.034,0.024,0.015,-0.039,0.0,0.034,-0.029,-0.117,-0.088,-0.068
0.948,-0.005,-0.044,-0.039,0.024,0.015,-0.044,-0.005,0.034,-0.034,-0.127,-0.093,-0.073
0.95,-0.005,-0.049,-0.044,0.029,0.02,-0.049,0.005,0.044,-0.029,-0.112,-0.088,-0.068
0.952,0.005,-0.039,-0.044,0.02,0.024,-0.044,0.005,0.044,-0.024,-0.112,-0.093,-0.068
0.954,0.0,-0.039,-0.039,0.02,0.02,-0.039,0.015,0.044,-0.02,-0.107,-0.088,-0.063
0.956,0.005,-0.034,-0.039,0.015,0.02,-0.039,0.01,0.039,-0.02,-0.107,-0.088,-0.073
0.958,0.005,-0.029,-0.034,0.015,0.02,-0.034,0.01,0.039,-0.01,-0.107,-0.088,-0.063
0.96,0.005,-0.029,-0.034,0.015,0.02,-0.034,0.005,0.039,-0.015,-0.112,-0.083,-0.063
0.962,0.01,-0.029,-0.039,0.01,0.024,-0.034,0.005,0.039,-0.024,-0.112,-0.083,-0.068
0.964,0.01,-0.039,-0.049,0.015,0.029,-0.044,0.005,0.039,-0.02,-0.102,-0.083,-0.063
0.966,0.01,-0.039,-0.049,0.015,0.029,-0.044,0.015,0.044,-0.02,-0.102,-0.078,-0.054
0.968,0.015,-0.034,-0.049,0.01,0.029,-0.044,0.01,0.044,-0.024,-0.102,-0.083,-0.068
0.97,0.01,-0.044,-0.054,0.02,0.029,-0.049,0.02,0.054,-0.015,-0.098,-0.088,-0.063
0.972,0.015,-0.029,-0.044,0.01,0.029,-0.039,0.024,0.063,-0.01,-0.093,-0.088,-0.059
0.974,0.015,-0.029,-0.044,0.01,0.029,-0.039,0.024,0.063,-0.005,-0.093,-0.083,-0.054
0.976,0.024,-0.02,-0.044,0.0,0.034,-0.034,0.02,0.063,-0.005,-0.088,-0.083,-0.049
0.978,0.024,-0.02,-0.044,0.0,0.034,-0.034,0.024,0.063,0.01,-0.073,-0.073,-0.034
0.98,0.02,-0.02,-0.039,0.0,0.029,-0.029,0.015,0.059,0.005,-0.083,-0.068,-0.039
0.982,0.034,-0.015,-0.049,-0.01,0.039,-0.034,0.015,0.059,0.005,-0.083,-0.068,-0.039
0.984,0.044,-0.015,-0.059,-0.015,0.049,-0.039,0.015,0.059,0.005,-0.083,-0.063,-0.039
0.986,0.034,-0.024,-0.059,-0.005,0.044,-0.044,0.024,0.063,0.01,-0.078,-0.059,-0.029
0.988,0.039,-0.02,-0.059,-0.01,0.049,-0.039,0.024,0.063,0.01,-0.088,-0.044,-0.034
0.99,0.039,-0.024,-0.063,-0.005,0.049,-0.044,0.024,0.068,0.01,-0.088,-0.029,-0.039
0.992,0.044,-0.02,-0.063,-0.01,0.054,-0.044,0.024,0.073,0.015,-0.088,-0.02,-0.039
0.994,0.044,-0.015,-0.059,-0.015,0.049,-0.039,0.024,0.068,0.015,-0.078,-0.015,-0.044
0.996,0.044,-0.01,-0.054,-0.015,0.049,-0.034,0.01,0.073,0.024,-0.073,-0.005,-0.039
0.998,0.059,0.0,-0.059,-0.029,0.059,-0.029,-0.005,0.078,0.034,-0.068,0.005,-0.029
1.0,0.059,0.0,-0.059,-0.029,0.059,-0.029,-0.015,0.073,0.034,-0.068,0.01,-0.029
1.002,0.059,-0.005,-0.063,-0.024,0.059,-0.034,-0.02,0.078,0.034,-0.063,0.015,-0.029
1.004,0.059,0.0,-0.059,-0.029,0.059,-0.029,-0.02,0.078,0.039,-0.059,0.024,-0.029
1.006,0.063,-0.005,-0.068,-0.029,0.063,-0.039,-0.015,0.078,0.039,-0.054,0.029,-0.024
1.008,0.068,-0.005,-0.073,-0.029,0.068,-0.039,-0.02,0.083,0.029,-0.054,0.029,-0.029
1.01,0.073,-0.01,-0.083,-0.029,0.078,-0.049,-0.01,0.088,0.029,-0.059,0.034,-0.024
1.012,0.073,-0.01,-0.083,-0.029,0.078,-0.049,-0.015,0.088,0.029,-0.054,0.029,-0.024
1.014,0.078,0.0,-0.078,-0.039,0.078,-0.039,-0.015,0.093,0.034,-0.044,0.039,-0.024
1.016,0.078,0.01,-0.068,-0.044,0.073,-0.029,-0.02,0.088,0.034,-0.044,0.044,-0.024
1.018,0.078,0.005,-0.073,-0.039,0.073,-0.034,-0.02,0.088,0.044,-0.029,0.054,-0.015
1.02,0.088,0.02,-0.068,-0.054,0.078,-0.024,-0.024,0.088,0.044,-0.024,0.063,-0.01
1.022,0.088,0.02,-0.068,-0.054,0.078,-0.024,-0.024,0.093,0.054,-0.02,0.073,0.0
1.024,0.093,0.024,-0.068,-0.059,0.078,-0.024,-0.024,0.093,0.059,-0.015,0.083,0.0
1.026,0.098,0.029,-0.068,-0.063,0.083,-0.02,-0.015,0.102,0.068,-0.005,0.093,0.015
1.028,0.093,0.024,-0.068,-0.059,0.078,-0.024,-0.024,0.098,0.063,-0.005,0.093,0.015
1.03,0.102,0.024,-0.078,-0.063,0.088,-0.029,-0.015,0.107,0.073,0.0,0.098,0.024
1.032,0.102,0.024,-0.078,-0.063,0.088,-0.029,-0.02,0.107,0.078,0.005,0.098,0.024
1.034,0.102,0.029,-0.073,-0.063,0.088,-0.024,-0.02,0.112,0.083,0.015,0.093,0.029
1.036,0.112,0.039,-0.073,-0.073,0.093,-0.02,-0.02,0.117,0.098,0.02,0.102,0.029
1.038,0.112,0.039,-0.073,-0.073,0.093,-0.02,-0.02,0.117,0.102,0.029,0.107,0.039
1.04,0.112,0.044,-0.068,-0.078,0.088,-0.015,-0.024,0.117,0.107,0.039,0.117,0.054
1.042,0.122,0.054,-0.068,-0.088,0.093,-0.01,-0.029,0.117,0.112,0.039,0.122,0.054
1.044,0.132,0.054,-0.078,-0.093,0.102,-0.015,-0.029,0.122,0.122,0.049,0.142,0.068
1.046,0.142,0.059,-0.083,-0.098,0.112,-0.015,-0.024,0.127,0.132,0.059,0.146,0.078
1.048,0.142,0.063,-0.078,-0.102,0.107,-0.01,-0.029,0.127,0.132,0.068,0.151,0.073
1.05,0.151,0.059,-0.093,-0.102,0.122,-0.02,-0.029,0.132,0.137,0.068,0.156,0.083
1.052,0.171,0.068,-0.102,-0.117,0.137,-0.02,-0.034,0.137,0.146,0.078,0.166,0.093
1.054,0.171,0.078,-0.093,-0.122,0.132,-0.01,-0.034,0.137,0.151,0.088,0.176,0.098
1.056,0.166,0.083,-0.083,-0.122,0.122,0.0,-0.039,0.137,0.161,0.098,0.185,0.107
1.058,0.171,0.088,-0.083,-0.127,0.127,0.0,-0.039,0.137,0.176,0.107,0.195,0.122
1.06,0.176,0.098,-0.078,-0.137,0.127,0.01,-0.039,0.132,0.171,0.112,0.2,0.117
1.062,0.185,0.102,-0.083,-0.142,0.132,0.01,-0.044,0.137,0.181,0.127,0.22,0.127
1.064,0.19,0.107,-0.083,-0.146,0.137,0.01,-0.044,0.137,0.185,0.137,0.224,0.137
1.066,0.19,0.117,-0.073,-0.151,0.132,0.02,-0.039,0.142,0.2,0.146,0.234,0.156
1.068,0.205,0.122,-0.083,-0.161,0.142,0.02,-0.049,0.142,0.195,0.146,0.239,0.161
1.07,0.205,0.122,-0.083,-0.161,0.142,0.02,-0.049,0.146,0.205,0.151,0.239,0.176
1.072,0.22,0.132,-0.088,-0.176,0.151,0.02,-0.049,0.156,0.215,0.166,0.254,0.185
1.074,0.224,0.142,-0.083,-0.181,0.151,0.029,-0.054,0.151,0.215,0.171,0.264,0.195
1.076,0.22,0.146,-0.073,-0.181,0.146,0.034,-0.054,0.146,0.215,0.171,0.264,0.21
1.078,0.224,0.156,-0.068,-0.19,0.146,0.044,-0.059,0.146,0.224,0.181,0.268,0.22
1.08,0.224,0.156,-0.068,-0.19,0.146,0.044,-0.059,0.142,0.22,0.185,0.273,0.224
1.082,0.224,0.161,-0.063,-0.19,0.142,0.049,-0.063,0.137,0.22,0.19,0.288,0.229
1.084,0.234,0.171,-0.063,-0.2,0.146,0.054,-0.063,0.132,0.22,0.19,0.298,0.234
1.086,0.224,0.171,-0.054,-0.195,0.137,0.059,-0.063,0.127,0.21,0.185,0.293,0.239
1.088,0.229,0.171,-0.059,-0.2,0.142,0.054,-0.063,0.127,0.215,0.195,0.298,0.244
1.09,0.239,0.185,-0.054,-0.21,0.146,0.063,-0.063,0.137,0.224,0.2,0.303,0.254
1.092,0.234,0.185,-0.049,-0.21,0.142,0.068,-0.063,0.132,0.224,0.205,0.312,0.259
1.094,0.239,0.185,-0.054,-0.21,0.146,0.063,-0.063,0.127,0.22,0.21,0.307,0.254
1.096,0.239,0.19,-0.049,-0.215,0.142,0.068,-0.063,0.122,0.22,0.205,0.307,0.259
1.098,0.234,0.19,-0.044,-0.21,0.137,0.073,-0.063,0.117,0.229,0.21,0.317,0.268
1.1,0.234,0.195,-0.039,-0.215,0.137,0.078,-0.068,0.112,0.215,0.205,0.317,0.268
1.102,0.229,0.195,-0.034,-0.21,0.132,0.078,-0.073,0.102,0.215,0.205,0.322,0.268
1.104,0.234,0.195,-0.039,-0.215,0.137,0.078,-0.073,0.102,0.215,0.21,0.327,0.278
1.106,0.224,0.2,-0.024,-0.21,0.122,0.088,-0.073,0.102,0.21,0.205,0.327,0.273
1.108,0.224,0.195,-0.029,-0.21,0.127,0.083,-0.083,0.093,0.195,0.2,0.322,0.268
1.11,0.229,0.195,-0.034,-0.21,0.132,0.078,-0.073,0.088,0.2,0.2,0.322,0.273
1.112,0.224,0.195,-0.029,-0.21,0.127,0.083,-0.068,0.093,0.2,0.195,0.322,0.268
1.114,0.229,0.205,-0.024,-0.215,0.127,0.088,-0.073,0.088,0.19,0.185,0.322,0.273
1.116,0.234,0.215,-0.02,-0.224,0.127,0.098,-0.078,0.078,0.19,0.19,0.322,0.273
1.118,0.224,0.205,-0.02,-0.215,0.122,0.093,-0.078,0.078,0.19,0.19,0.327,0.278
1.12,0.22,0.205,-0.015,-0.21,0.117,0.093,-0.083,0.068,0.181,0.185,0.322,0.273
1.122,0.22,0.21,-0.01,-0.215,0.112,0.098,-0.078,0.068,0.181,0.19,0.322,0.273
1.124,0.21,0.205,-0.005,-0.205,0.107,0.098,-0.088,0.063,0.171,0.181,0.317,0.268
1.126,0.205,0.21,0.005,-0.205,0.098,0.107,-0.093,0.059,0.156,0.171,0.307,0.259
1.128,0.205,0.2,-0.005,-0.2,0.102,0.098,-0.107,0.054,0.142,0.161,0.303,0.244
1.13,0.185,0.19,0.005,-0.185,0.088,0.098,-0.122,0.054,0.146,0.156,0.298,0.244
1.132,0.185,0.19,0.005,-0.185,0.088,0.098,-0.122,0.054,0.132,0.146,0.283,0.239
1.134,0.171,0.19,0.02,-0.181,0.073,0.102,-0.122,0.049,0.122,0.132,0.278,0.234
1.136,0.176,0.195,0.02,-0.185,0.078,0.107,-0.122,0.044,0.112,0.122,0.264,0.22
1.138,0.161,0.19,0.029,-0.176,0.063,0.107,-0.117,0.039,0.107,0.117,0.259,0.22
1.14,0.151,0.185,0.034,-0.166,0.059,0.107,-0.122,0.034,0.093,0.107,0.249,0.21
1.142,0.142,0.176,0.034,-0.156,0.054,0.102,-0.122,0.034,0.083,0.098,0.239,0.205
1.144,0.132,0.166,0.034,-0.146,0.049,0.098,-0.122,0.029,0.073,0.083,0.229,0.195
1.146,0.122,0.151,0.029,-0.137,0.044,0.088,-0.117,0.024,0.059,0.068,0.215,0.185
1.148,0.117,0.146,0.029,-0.132,0.044,0.088,-0.112,0.02,0.044,0.059,0.205,0.171
1.15,0.093,0.132,0.039,-0.112,0.024,0.083,-0.107,0.015,0.039,0.049,0.19,0.156
1.152,0.088,0.132,0.044,-0.107,0.02,0.088,-0.107,0.02,0.034,0.034,0.176,0.142
1.154,0.083,0.132,0.049,-0.107,0.015,0.088,-0.112,0.01,0.02,0.02,0.156,0.127
1.156,0.073,0.127,0.054,-0.098,0.01,0.088,-0.117,0.005,0.015,0.01,0.146,0.122
1.158,0.068,0.127,0.059,-0.098,0.005,0.093,-0.112,0.005,0.005,0.0,0.132,0.112
1.16,0.054,0.122,0.068,-0.088,-0.01,0.093,-0.112,0.0,-0.005,-0.02,0.117,0.102
1.162,0.049,0.102,0.054,-0.073,-0.005,0.078,-0.107,0.0,-0.01,-0.02,0.107,0.102
1.164,0.039,0.102,0.063,-0.068,-0.015,0.083,-0.112,0.0,-0.015,-0.039,0.098,0.088
1.166,0.024,0.088,0.063,-0.054,-0.02,0.073,-0.117,-0.005,-0.029,-0.044,0.088,0.078
1.168,0.029,0.083,0.054,-0.054,-0.015,0.068,-0.122,-0.01,-0.044,-0.054,0.073,0.068
1.17,0.015,0.068,0.054,-0.039,-0.02,0.059,-0.117,-0.01,-0.044,-0.063,0.059,0.063
1.172,0.015,0.063,0.049,-0.039,-0.02,0.054,-0.122,-0.01,-0.054,-0.073,0.049,0.054
1.174,0.015,0.068,0.054,-0.039,-0.02,0.059,-0.127,-0.01,-0.063,-0.083,0.034,0.044
1.176,0.01,0.059,0.049,-0.034,-0.02,0.054,-0.127,-0.015,-0.068,-0.088,0.029,0.029
1.178,0.005,0.059,0.054,-0.029,-0.024,0.054,-0.127,-0.02,-0.073,-0.098,0.024,0.024
1.18,0.0,0.063,0.063,-0.029,-0.034,0.063,-0.127,-0.024,-0.073,-0.098,0.02,0.024
1.182,0.005,0.049,0.044,-0.024,-0.02,0.044,-0.127,-0.024,-0.073,-0.098,0.015,0.024
1.184,0.01,0.049,0.039,-0.029,-0.015,0.044,-0.132,-0.029,-0.083,-0.112,0.01,0.02
1.186,-0.005,0.034,0.039,-0.015,-0.024,0.034,-0.122,-0.024,-0.083,-0.112,0.01,0.015
1.188,-0.005,0.029,0.034,-0.01,-0.02,0.029,-0.122,-0.02,-0.088,-0.112,0.005,0.01
1.19,0.005,0.034,0.029,-0.02,-0.015,0.029,-0.117,-0.015,-0.088,-0.117,0.0,0.01
1.192,-0.015,0.024,0.039,-0.005,-0.029,0.029,-0.112,-0.015,-0.088,-0.112,-0.005,0.015
1.194,-0.02,0.024,0.044,0.0,-0.034,0.034,-0.117,-0.015,-0.093,-0.112,-0.01,0.01
1.196,-0.02,0.02,0.039,0.0,-0.029,0.029,-0.122,-0.015,-0.093,-0.117,-0.015,0.005
1.198,-0.029,0.02,0.049,0.005,-0.039,0.034,-0.122,-0.02,-0.098,-0.117,-0.015,0.005
1.2,-0.02,0.029,0.049,-0.005,-0.034,0.039,-0.127,-0.024,-0.102,-0.117,-0.015,0.0
1.202,-0.024,0.015,0.039,0.005,-0.034,0.024,-0.122,-0.024,-0.098,-0.117,-0.015,0.005
1.204,-0.024,0.02,0.044,0.005,-0.034,0.029,-0.122,-0.024,-0.102,-0.122,-0.015,0.005
1.206,-0.015,0.02,0.034,0.0,-0.024,0.024,-0.117,-0.02,-0.107,-0.117,-0.01,0.01
1.208,-0.015,0.015,0.029,0.0,-0.024,0.02,-0.122,-0.024,-0.117,-0.117,-0.015,0.0
1.21,-0.024,0.0,0.024,0.015,-0.024,0.01,-0.117,-0.015,-0.102,-0.117,-0.015,0.0
1.212,-0.024,0.005,0.029,0.01,-0.029,0.015,-0.117,-0.015,-0.102,-0.117,-0.01,-0.005
1.214,-0.029,0.0,0.029,0.015,-0.029,0.015,-0.122,-0.024,-0.112,-0.122,-0.02,-0.01
1.216,-0.024,0.0,0.024,0.015,-0.024,0.01,-0.122,-0.02,-0.107,-0.122,-0.02,-0.01
1.218,-0.024,0.0,0.024,0.015,-0.024,0.01,-0.127,-0.024,-0.107,-0.122,-0.024,-0.01
1.22,-0.024,0.0,0.024,0.015,-0.024,0.01,-0.132,-0.024,-0.107,-0.122,-0.02,-0.01
1.222,-0.024,-0.005,0.02,0.015,-0.024,0.005,-0.132,-0.02,-0.102,-0.117,-0.02,-0.005
1.224,-0.034,-0.005,0.029,0.02,-0.034,0.01,-0.132,-0.02,-0.107,-0.122,-0.015,-0.005
1.226,-0.029,-0.01,0.02,0.02,-0.024,0.005,-0.132,-0.02,-0.112,-0.122,-0.01,-0.005
1.228,-0.024,-0.015,0.01,0.02,-0.02,-0.005,-0.137,-0.015,-0.112,-0.117,-0.01,-0.005
1.23,-0.029,-0.02,0.01,0.024,-0.02,-0.005,-0.132,-0.005,-0.107,-0.117,-0.01,0.0
1.232,-0.015,-0.01,0.005,0.015,-0.01,-0.005,-0.132,-0.005,-0.107,-0.117,-0.01,-0.005
1.234,-0.02,-0.015,0.005,0.02,-0.015,-0.005,-0.137,0.0,-0.107,-0.112,-0.01,-0.005
1.236,-0.02,-0.015,0.005,0.02,-0.015,-0.005,-0.132,-0.005,-0.107,-0.117,-0.015,-0.005
1.238,-0.029,-0.01,0.02,0.02,-0.024,0.005,-0.137,-0.005,-0.107,-0.117,-0.015,-0.005
1.24,-0.034,-0.01,0.024,0.024,-0.029,0.005,-0.146,-0.015,-0.112,-0.122,-0.02,-0.01
1.242,-0.015,-0.005,0.01,0.01,-0.015,0.0,-0.146,-0.015,-0.107,-0.117,-0.024,-0.005
1.244,-0.02,-0.005,0.015,0.015,-0.02,0.005,-0.142,-0.01,-0.102,-0.117,-0.029,-0.005
1.246,-0.02,-0.015,0.005,0.02,-0.015,-0.005,-0.146,-0.005,-0.102,-0.112,-0.029,0.0
1.248,-0.015,-0.01,0.005,0.015,-0.01,-0.005,-0.146,0.0,-0.098,-0.112,-0.034,0.0
1.25,-0.024,-0.015,0.01,0.02,-0.02,-0.005,-0.146,0.005,-0.098,-0.107,-0.034,0.005
1.252,-0.02,-0.015,0.005,0.02,-0.015,-0.005,-0.142,0.01,-0.098,-0.107,-0.034,0.005
1.254,-0.015,-0.01,0.005,0.015,-0.01,-0.005,-0.146,0.01,-0.098,-0.107,-0.034,0.005
1.256,-0.02,-0.015,0.005,0.02,-0.015,-0.005,-0.151,0.01,-0.093,-0.107,-0.034,0.0
1.258,-0.02,-0.01,0.01,0.015,-0.015,0.0,-0.151,0.005,-0.088,-0.112,-0.039,-0.005
1.26,-0.01,-0.005,0.005,0.01,-0.01,0.0,-0.151,0.005,-0.093,-0.107,-0.034,-0.005
1.262,-0.015,-0.015,0.0,0.015,-0.01,-0.01,-0.146,0.005,-0.088,-0.102,-0.034,0.005
1.264,-0.005,-0.005,0.0,0.005,-0.005,-0.005,-0.146,0.005,-0.088,-0.107,-0.029,0.005
1.266,-0.015,-0.005,0.01,0.01,-0.015,0.0,-0.146,0.005,-0.088,-0.107,-0.024,0.0
1.268,-0.015,-0.015,0.0,0.015,-0.01,-0.01,-0.146,0.005,-0.088,-0.112,-0.024,0.0
1.27,-0.005,-0.015,-0.01,0.01,0.0,-0.015,-0.137,0.015,-0.083,-0.107,-0.02,0.005
1.272,-0.01,-0.01,0.0,0.01,-0.005,-0.005,-0.142,0.015,-0.083,-0.107,-0.015,0.005
1.274,-0.01,-0.005,0.005,0.01,-0.01,0.0,-0.142,0.015,-0.083,-0.102,-0.01,0.01
1.276,-0.01,-0.01,0.0,0.01,-0.005,-0.005,-0.137,0.015,-0.078,-0.098,-0.01,0.01
1.278,-0.01,0.0,0.01,0.005,-0.01,0.005,-0.137,0.015,-0.073,-0.098,-0.01,0.01
1.28,-0.005,0.01,0.015,0.0,-0.01,0.01,-0.137,0.015,-0.073,-0.098,-0.01,0.01
1.282,-0.02,-0.01,0.01,0.015,-0.015,0.0,-0.146,0.005,-0.078,-0.098,-0.015,0.015
1.284,-0.015,-0.01,0.005,0.015,-0.01,-0.005,-0.146,0.01,-0.073,-0.098,-0.02,0.015
1.286,-0.015,-0.01,0.005,0.015,-0.01,-0.005,-0.137,0.01,-0.073,-0.098,-0.02,0.02
1.288,-0.02,-0.02,0.0,0.02,-0.01,-0.01,-0.137,0.005,-0.068,-0.093,-0.02,0.02
1.29,-0.02,-0.015,0.005,0.02,-0.015,-0.005,-0.132,0.015,-0.073,-0.093,-0.02,0.01
1.292,-0.015,-0.015,0.0,0.015,-0.01,-0.01,-0.132,0.02,-0.068,-0.088,-0.02,0.015
1.294,-0.02,-0.01,0.01,0.015,-0.015,0.0,-0.132,0.02,-0.073,-0.083,-0.02,0.02
1.296,-0.01,-0.01,0.0,0.01,-0.005,-0.005,-0.132,0.02,-0.068,-0.083,-0.024,0.02
1.298,-0.005,0.0,0.005,0.005,-0.005,0.0,-0.132,0.015,-0.068,-0.083,-0.024,0.02
1.3,-0.005,0.005,0.01,0.0,-0.01,0.005,-0.132,0.015,-0.059,-0.073,-0.02,0.024
1.302,0.0,0.005,0.005,0.0,-0.005,0.005,-0.127,0.02,-0.059,-0.068,-0.02,0.024
1.304,-0.005,0.0,0.005,0.005,-0.005,0.0,-0.137,0.02,-0.063,-0.078,-0.024,0.015
1.306,-0.01,0.0,0.01,0.005,-0.01,0.005,-0.127,0.02,-0.059,-0.078,-0.02,0.024
1.308,-0.015,-0.01,0.005,0.015,-0.01,-0.005,-0.127,0.02,-0.059,-0.078,-0.015,0.02
1.31,-0.01,0.0,0.01,0.005,-0.01,0.005,-0.122,0.02,-0.059,-0.088,-0.024,0.015
1.312,0.0,0.01,0.01,-0.005,-0.005,0.01,-0.122,0.02,-0.059,-0.088,-0.02,0.015
1.314,-0.01,0.01,0.02,0.0,-0.015,0.015,-0.117,0.024,-0.054,-0.078,-0.02,0.02
1.316,-0.02,0.0,0.02,0.01,-0.02,0.01,-0.122,0.02,-0.054,-0.083,-0.024,0.015
1.318,-0.005,0.005,0.01,0.0,-0.01,0.005,-0.122,0.02,-0.054,-0.083,-0.024,0.024
1.32,-0.01,0.0,0.01,0.005,-0.01,0.005,-0.122,0.02,-0.049,-0.073,-0.015,0.029
1.322,-0.005,0.005,0.01,0.0,-0.01,0.005,-0.122,0.02,-0.049,-0.068,-0.01,0.029
1.324,-0.01,0.005,0.015,0.005,-0.015,0.01,-0.122,0.015,-0.059,-0.083,-0.02,0.029
1.326,-0.015,-0.005,0.01,0.01,-0.015,0.0,-0.122,0.015,-0.059,-0.078,-0.02,0.024
1.328,-0.005,0.005,0.01,0.0,-0.01,0.005,-0.122,0.02,-0.059,-0.078,-0.02,0.024
1.33,-0.005,0.005,0.01,0.0,-0.01,0.005,-0.122,0.02,-0.059,-0.083,-0.024,0.024
1.332,-0.005,0.005,0.01,0.0,-0.01,0.005,-0.122,0.02,-0.063,-0.083,-0.029,0.02
1.334,-0.005,0.005,0.01,0.0,-0.01,0.005,-0.122,0.02,-0.063,-0.083,-0.029,0.024
1.336,-0.015,0.0,0.015,0.01,-0.015,0.005,-0.122,0.02,-0.059,-0.083,-0.029,0.024
1.338,-0.01,0.01,0.02,0.0,-0.015,0.015,-0.122,0.015,-0.059,-0.083,-0.029,0.024
1.34,-0.005,0.0,0.005,0.005,-0.005,0.0,-0.127,0.01,-0.063,-0.083,-0.029,0.029
1.342,-0.005,0.005,0.01,0.0,-0.01,0.005,-0.122,0.01,-0.059,-0.083,-0.029,0.034
1.344,0.0,0.01,0.01,-0.005,-0.005,0.01,-0.117,0.005,-0.059,-0.088,-0.034,0.034
1.346,-0.005,0.0,0.005,0.005,-0.005,0.0,-0.122,0.005,-0.063,-0.083,-0.034,0.029
1.348,-0.005,-0.005,0.0,0.005,-0.005,-0.005,-0.117,0.01,-0.059,-0.078,-0.029,0.034
1.35,0.01,0.0,-0.01,-0.005,0.01,-0.005,-0.122,0.005,-0.068,-0.093,-0.039,0.02
1.352,0.0,0.0,0.0,0.0,0.0,0.0,-0.127,0.0,-0.068,-0.098,-0.039,0.02
1.354,-0.005,0.0,0.005,0.005,-0.005,0.0,-0.122,0.005,-0.073,-0.088,-0.034,0.024
1.356,-0.015,0.0,0.015,0.01,-0.015,0.005,-0.127,0.0,-0.068,-0.088,-0.034,0.029
1.358,-0.015,0.0,0.015,0.01,-0.015,0.005,-0.127,0.0,-0.073,-0.093,-0.039,0.024
1.36,-0.015,0.0,0.015,0.01,-0.015,0.005,-0.127,-0.005,-0.073,-0.088,-0.034,0.024
1.362,-0.02,-0.01,0.01,0.015,-0.015,0.0,-0.127,0.0,-0.073,-0.093,-0.034,0.024
1.364,-0.015,-0.005,0.01,0.01,-0.015,0.0,-0.132,-0.005,-0.073,-0.098,-0.034,0.024
1.366,-0.005,-0.005,0.0,0.005,-0.005,-0.005,-0.127,0.0,-0.073,-0.093,-0.029,0.024
1.368,-0.01,-0.01,0.0,0.01,-0.005,-0.005,-0.127,-0.01,-0.078,-0.098,-0.039,0.02
1.37,-0.015,-0.005,0.01,0.01,-0.015,0.0,-0.127,-0.01,-0.073,-0.098,-0.034,0.024
1.372,-0.01,-0.01,0.0,0.01,-0.005,-0.005,-0.122,-0.01,-0.078,-0.102,-0.034,0.02
1.374,-0.015,-0.01,0.005,0.015,-0.01,-0.005,-0.117,-0.005,-0.073,-0.102,-0.029,0.024
1.376,-0.01,-0.005,0.005,0.01,-0.01,0.0,-0.122,-0.01,-0.073,-0.102,-0.034,0.02
1.378,-0.015,-0.005,0.01,0.01,-0.015,0.0,-0.127,-0.02,-0.083,-0.112,-0.044,0.005
1.38,-0.01,-0.005,0.005,0.01,-0.01,0.0,-0.122,-0.02,-0.078,-0.112,-0.034,0.015
1.382,-0.01,-0.005,0.005,0.01,-0.01,0.0,-0.127,-0.02,-0.078,-0.117,-0.034,0.01
1.384,-0.02,-0.015,0.005,0.02,-0.015,-0.005,-0.127,-0.02,-0.078,-0.122,-0.034,0.015
1.386,-0.015,-0.01,0.005,0.015,-0.01,-0.005,-0.112,-0.015,-0.078,-0.122,-0.029,0.015
1.388,-0.015,-0.015,0.0,0.015,-0.01,-0.01,-0.117,-0.015,-0.078,-0.127,-0.039,0.01
1.39,-0.02,-0.01,0.01,0.015,-0.015,0.0,-0.117,-0.015,-0.078,-0.132,-0.044,0.01
1.392,-0.005,0.0,0.005,0.005,-0.005,0.0,-0.122,-0.015,-0.083,-0.142,-0.044,0.01
1.394,-0.015,-0.005,0.01,0.01,-0.015,0.0,-0.122,-0.015,-0.083,-0.142,-0.054,0.0
1.396,-0.01,-0.005,0.005,0.01,-0.01,0.0,-0.117,-0.02,-0.078,-0.137,-0.054,0.01
1.398,-0.01,0.005,0.015,0.005,-0.015,0.01,-0.117,-0.02,-0.078,-0.137,-0.054,0.01
1.4,-0.015,0.0,0.015,0.01,-0.015,0.005,-0.122,-0.024,-0.073,-0.137,-0.054,0.01
1.402,-0.015,0.0,0.015,0.01,-0.015,0.005,-0.127,-0.029,-0.078,-0.137,-0.054,0.01
1.404,-0.02,-0.005,0.015,0.015,-0.02,0.005,-0.127,-0.024,-0.073,-0.142,-0.049,0.01
1.406,-0.02,-0.01,0.01,0.015,-0.015,0.0,-0.127,-0.029,-0.083,-0.142,-0.049,0.0
1.408,-0.015,-0.01,0.005,0.015,-0.01,-0.005,-0.117,-0.024,-0.083,-0.142,-0.044,0.01
1.41,-0.02,-0.01,0.01,0.015,-0.015,0.0,-0.117,-0.024,-0.083,-0.142,-0.049,0.01
1.412,-0.01,-0.005,0.005,0.01,-0.01,0.0,-0.107,-0.02,-0.083,-0.146,-0.039,0.01
1.414,-0.024,-0.015,0.01,0.02,-0.02,-0.005,-0.112,-0.015,-0.083,-0.146,-0.044,0.01
1.416,-0.024,-0.015,0.01,0.02,-0.02,-0.005,-0.112,-0.015,-0.078,-0.142,-0.044,0.01
1.418,-0.015,0.0,0.015,0.01,-0.015,0.005,-0.112,-0.024,-0.088,-0.146,-0.044,0.0
1.42,-0.02,-0.005,0.015,0.015,-0.02,0.005,-0.112,-0.02,-0.083,-0.146,-0.039,0.005
1.422,-0.02,-0.01,0.01,0.015,-0.015,0.0,-0.112,-0.029,-0.088,-0.142,-0.039,0.005
1.424,-0.02,-0.01,0.01,0.015,-0.015,0.0,-0.112,-0.024,-0.083,-0.151,-0.039,0.005
1.426,-0.024,-0.02,0.005,0.024,-0.015,-0.01,-0.117,-0.029,-0.093,-0.151,-0.039,-0.005
1.428,-0.02,-0.02,0.0,0.02,-0.01,-0.01,-0.112,-0.024,-0.088,-0.146,-0.039,-0.005
1.43,-0.02,-0.02,0.0,0.02,-0.01,-0.01,-0.117,-0.029,-0.093,-0.151,-0.049,-0.005
1.432,-0.029,-0.02,0.01,0.024,-0.02,-0.005,-0.117,-0.024,-0.098,-0.156,-0.054,-0.015
1.434,-0.024,-0.02,0.005,0.024,-0.015,-0.01,-0.112,-0.02,-0.088,-0.151,-0.044,-0.005
1.436,-0.029,-0.02,0.01,0.024,-0.02,-0.005,-0.112,-0.024,-0.083,-0.142,-0.049,-0.005
1.438,-0.015,-0.01,0.005,0.015,-0.01,-0.005,-0.107,-0.024,-0.083,-0.146,-0.044,0.0
1.44,-0.015,-0.005,0.01,0.01,-0.015,0.0,-0.107,-0.034,-0.083,-0.146,-0.044,0.0
1.442,-0.024,-0.015,0.01,0.02,-0.02,-0.005,-0.107,-0.029,-0.083,-0.146,-0.044,0.005
1.444,-0.02,-0.02,0.0,0.02,-0.01,-0.01,-0.107,-0.029,-0.083,-0.146,-0.044,0.005
1.446,-0.024,-0.015,0.01,0.02,-0.02,-0.005,-0.112,-0.034,-0.088,-0.151,-0.044,-0.005
1.448,-0.02,-0.02,0.0,0.02,-0.01,-0.01,-0.112,-0.034,-0.088,-0.151,-0.044,0.005
1.45,-0.015,-0.015,0.0,0.015,-0.01,-0.01,-0.112,-0.029,-0.093,-0.151,-0.044,0.0
1.452,-0.02,-0.02,0.0,0.02,-0.01,-0.01,-0.112,-0.029,-0.093,-0.151,-0.044,-0.005
1.454,-0.024,-0.024,0.0,0.024,-0.015,-0.015,-0.112,-0.029,-0.093,-0.151,-0.049,-0.01
1.456,-0.015,-0.015,0.0,0.015,-0.01,-0.01,-0.112,-0.034,-0.088,-0.151,-0.044,-0.01
1.458,-0.01,-0.01,0.0,0.01,-0.005,-0.005,-0.117,-0.039,-0.093,-0.151,-0.049,-0.015
1.46,0.0,-0.01,-0.01,0.005,0.005,-0.01,-0.117,-0.044,-0.088,-0.142,-0.039,-0.005
1.462,-0.005,-0.015,-0.01,0.01,0.0,-0.015,-0.112,-0.044,-0.093,-0.151,-0.044,-0.01
1.464,-0.024,-0.024,0.0,0.024,-0.015,-0.015,-0.102,-0.039,-0.093,-0.146,-0.034,-0.005
1.466,-0.02,-0.015,0.005,0.02,-0.015,-0.005,-0.107,-0.039,-0.093,-0.151,-0.039,-0.01
1.468,-0.015,-0.02,-0.005,0.02,-0.005,-0.015,-0.112,-0.044,-0.093,-0.151,-0.044,-0.01
1.47,-0.015,-0.024,-0.01,0.02,-0.005,-0.02,-0.102,-0.034,-0.093,-0.151,-0.044,-0.01
1.472,-0.02,-0.02,0.0,0.02,-0.01,-0.01,-0.102,-0.034,-0.088,-0.156,-0.039,-0.005
1.474,-0.024,-0.029,-0.005,0.029,-0.01,-0.02,-0.107,-0.034,-0.098,-0.151,-0.044,-0.015
1.476,-0.02,-0.024,-0.005,0.024,-0.01,-0.015,-0.107,-0.034,-0.093,-0.146,-0.044,-0.015
1.478,-0.015,-0.02,-0.005,0.02,-0.005,-0.015,-0.112,-0.039,-0.093,-0.142,-0.049,-0.01
1.48,-0.015,-0.015,0.0,0.015,-0.01,-0.01,-0.112,-0.039,-0.093,-0.127,-0.044,-0.005
1.482,-0.01,-0.015,-0.005,0.015,-0.005,-0.01,-0.107,-0.034,-0.083,-0.117,-0.044,0.0
1.484,-0.02,-0.024,-0.005,0.024,-0.01,-0.015,-0.107,-0.039,-0.088,-0.112,-0.044,-0.005
1.486,-0.01,-0.015,-0.005,0.015,-0.005,-0.01,-0.102,-0.034,-0.083,-0.107,-0.039,-0.01
1.488,-0.01,-0.015,-0.005,0.015,-0.005,-0.01,-0.098,-0.029,-0.078,-0.098,-0.034,-0.005
1.49,-0.01,-0.015,-0.005,0.015,-0.005,-0.01,-0.098,-0.024,-0.083,-0.102,-0.044,-0.005
1.492,-0.01,-0.01,0.0,0.01,-0.005,-0.005,-0.107,-0.024,-0.088,-0.098,-0.039,-0.005
1.494,-0.015,-0.015,0.0,0.015,-0.01,-0.01,-0.107,-0.024,-0.083,-0.098,-0.044,-0.005
1.496,-0.015,-0.024,-0.01,0.02,-0.005,-0.02,-0.102,-0.02,-0.083,-0.093,-0.039,0.005
1.498,-0.015,-0.015,0.0,0.015,-0.01,-0.01,-0.102,-0.024,-0.088,-0.093,-0.039,0.0
1.5,-0.02,-0.015,0.005,0.02,-0.015,-0.005,-0.112,-0.024,-0.088,-0.093,-0.044,-0.005
1.502,-0.015,-0.02,-0.005,0.02,-0.005,-0.015,-0.112,-0.034,-0.083,-0.093,-0.049,-0.005
1.504,-0.01,-0.02,-0.01,0.015,0.0,-0.015,-0.107,-0.029,-0.088,-0.083,-0.044,0.005
1.506,-0.01,-0.02,-0.01,0.015,0.0,-0.015,-0.102,-0.029,-0.083,-0.083,-0.039,0.0
1.508,0.005,-0.015,-0.02,0.005,0.01,-0.02,-0.098,-0.024,-0.078,-0.083,-0.039,0.005
1.51,-0.005,-0.02,-0.015,0.015,0.005,-0.02,-0.093,-0.02,-0.078,-0.083,-0.044,-0.005
1.512,-0.01,-0.02,-0.01,0.015,0.0,-0.015,-0.093,-0.024,-0.078,-0.078,-0.049,-0.005
1.514,-0.005,-0.005,0.0,0.005,-0.005,-0.005,-0.098,-0.02,-0.073,-0.078,-0.044,-0.005
1.516,-0.01,-0.015,-0.005,0.015,-0.005,-0.01,-0.098,-0.024,-0.078,-0.078,-0.044,-0.005
1.518,-0.015,-0.015,0.0,0.015,-0.01,-0.01,-0.093,-0.024,-0.078,-0.078,-0.044,0.0
1.52,-0.015,-0.02,-0.005,0.02,-0.005,-0.015,-0.093,-0.029,-0.078,-0.073,-0.039,0.0
1.522,-0.02,-0.024,-0.005,0.024,-0.01,-0.015,-0.098,-0.029,-0.073,-0.078,-0.039,-0.005
1.524,-0.015,-0.015,0.0,0.015,-0.01,-0.01,-0.093,-0.029,-0.073,-0.078,-0.034,-0.005
1.526,-0.02,-0.024,-0.005,0.024,-0.01,-0.015,-0.093,-0.024,-0.073,-0.073,-0.029,0.0
1.528,-0.01,-0.02,-0.01,0.015,0.0,-0.015,-0.093,-0.024,-0.073,-0.073,-0.029,0.0
1.53,0.0,-0.015,-0.015,0.01,0.005,-0.015,-0.093,-0.029,-0.073,-0.073,-0.029,0.0
1.532,-0.005,-0.02,-0.015,0.015,0.005,-0.02,-0.083,-0.024,-0.078,-0.068,-0.029,-0.005
1.534,-0.005,-0.02,-0.015,0.015,0.005,-0.02,-0.083,-0.02,-0.073,-0.068,-0.024,0.0
1.536,0.0,-0.02,-0.02,0.01,0.01,-0.02,-0.078,-0.024,-0.078,-0.073,-0.024,0.005
1.538,-0.01,-0.02,-0.01,0.015,0.0,-0.015,-0.078,-0.024,-0.078,-0.073,-0.029,0.005
1.54,0.0,-0.02,-0.02,0.01,0.01,-0.02,-0.078,-0.024,-0.073,-0.073,-0.029,0.005
1.542,-0.015,-0.029,-0.015,0.024,0.0,-0.024,-0.078,-0.029,-0.073,-0.073,-0.029,0.005
1.544,-0.015,-0.029,-0.015,0.024,0.0,-0.024,-0.083,-0.029,-0.073,-0.073,-0.029,0.005
1.546,-0.005,-0.02,-0.015,0.015,0.005,-0.02,-0.088,-0.029,-0.078,-0.073,-0.034,0.0
1.548,-0.015,-0.029,-0.015,0.024,0.0,-0.024,-0.083,-0.024,-0.073,-0.068,-0.029,0.005
1.55,-0.01,-0.024,-0.015,0.02,0.0,-0.02,-0.078,-0.024,-0.073,-0.068,-0.029,0.005
1.552,-0.015,-0.024,-0.01,0.02,-0.005,-0.02,-0.078,-0.02,-0.078,-0.068,-0.034,0.005
1.554,-0.015,-0.024,-0.01,0.02,-0.005,-0.02,-0.078,-0.02,-0.073,-0.059,-0.034,0.005
1.556,-0.015,-0.024,-0.01,0.02,-0.005,-0.02,-0.078,-0.015,-0.068,-0.059,-0.034,0.0
1.558,-0.015,-0.02,-0.005,0.02,-0.005,-0.015,-0.083,-0.02,-0.073,-0.063,-0.039,0.0
1.56,-0.02,-0.024,-0.005,0.024,-0.01,-0.015,-0.083,-0.015,-0.068,-0.054,-0.034,0.005
1.562,-0.024,-0.034,-0.01,0.029,-0.01,-0.024,-0.078,-0.02,-0.063,-0.049,-0.029,0.005
1.564,-0.029,-0.044,-0.015,0.039,-0.01,-0.029,-0.078,-0.024,-0.068,-0.054,-0.034,0.0
1.566,-0.029,-0.034,-0.005,0.034,-0.015,-0.02,-0.073,-0.029,-0.073,-0.059,-0.034,0.005
1.568,-0.02,-0.034,-0.015,0.029,-0.005,-0.024,-0.073,-0.029,-0.078,-0.059,-0.034,0.0
1.57,-0.02,-0.039,-0.02,0.029,0.0,-0.029,-0.073,-0.024,-0.068,-0.054,-0.034,0.0
1.572,-0.015,-0.029,-0.015,0.024,0.0,-0.024,-0.068,-0.024,-0.073,-0.049,-0.034,0.005
1.574,-0.02,-0.034,-0.015,0.029,-0.005,-0.024,-0.073,-0.02,-0.073,-0.049,-0.029,0.0
1.576,-0.02,-0.029,-0.01,0.024,-0.005,-0.02,-0.073,-0.024,-0.073,-0.054,-0.029,0.0
1.578,-0.01,-0.02,-0.01,0.015,0.0,-0.015,-0.068,-0.024,-0.068,-0.049,-0.024,0.005
1.58,-0.02,-0.024,-0.005,0.024,-0.01,-0.015,-0.073,-0.024,-0.068,-0.044,-0.02,0.005
1.582,-0.02,-0.029,-0.01,0.024,-0.005,-0.02,-0.073,-0.029,-0.068,-0.049,-0.024,0.005
1.584,-0.024,-0.029,-0.005,0.029,-0.01,-0.02,-0.073,-0.039,-0.073,-0.054,-0.024,0.005
1.586,-0.02,-0.029,-0.01,0.024,-0.005,-0.02,-0.073,-0.039,-0.078,-0.054,-0.029,0.005
1.588,-0.01,-0.029,-0.02,0.02,0.005,-0.024,-0.073,-0.029,-0.073,-0.049,-0.029,-0.005
1.59,-0.015,-0.029,-0.015,0.024,0.0,-0.024,-0.068,-0.029,-0.073,-0.039,-0.029,-0.005
1.592,-0.02,-0.029,-0.01,0.024,-0.005,-0.02,-0.063,-0.029,-0.078,-0.034,-0.029,-0.005
1.594,-0.01,-0.024,-0.015,0.02,0.0,-0.02,-0.068,-0.029,-0.078,-0.034,-0.029,-0.01
1.596,-0.015,-0.024,-0.01,0.02,-0.005,-0.02,-0.068,-0.024,-0.073,-0.029,-0.034,-0.01
1.598,-0.01,-0.02,-0.01,0.015,0.0,-0.015,-0.063,-0.024,-0.068,-0.024,-0.029,0.0
1.6,-0.015,-0.024,-0.01,0.02,-0.005,-0.02,-0.073,-0.034,-0.068,-0.024,-0.029,0.005
1.602,-0.01,-0.029,-0.02,0.02,0.005,-0.024,-0.068,-0.034,-0.068,-0.024,-0.034,0.005
1.604,-0.005,-0.024,-0.02,0.015,0.005,-0.024,-0.063,-0.029,-0.068,-0.02,-0.029,0.005
1.606,-0.01,-0.029,-0.02,0.02,0.005,-0.024,-0.059,-0.034,-0.073,-0.029,-0.034,-0.005
1.608,-0.015,-0.034,-0.02,0.024,0.0,-0.029,-0.054,-0.02,-0.073,-0.029,-0.034,0.0
1.61,-0.01,-0.034,-0.024,0.024,0.005,-0.029,-0.059,-0.02,-0.073,-0.034,-0.039,0.0
1.612,-0.01,-0.029,-0.02,0.02,0.005,-0.024,-0.063,-0.029,-0.083,-0.044,-0.054,-0.01
1.614,-0.01,-0.024,-0.015,0.02,0.0,-0.02,-0.068,-0.024,-0.078,-0.039,-0.049,-0.01
1.616,-0.02,-0.024,-0.005,0.024,-0.01,-0.015,-0.059,-0.02,-0.073,-0.034,-0.049,-0.005
1.618,-0.015,-0.024,-0.01,0.02,-0.005,-0.02,-0.063,-0.024,-0.073,-0.039,-0.049,-0.005
1.62,-0.015,-0.024,-0.01,0.02,-0.005,-0.02,-0.063,-0.024,-0.063,-0.034,-0.044,-0.005
1.622,-0.01,-0.029,-0.02,0.02,0.005,-0.024,-0.063,-0.029,-0.068,-0.044,-0.049,-0.005
1.624,-0.005,-0.024,-0.02,0.015,0.005,-0.024,-0.054,-0.024,-0.068,-0.039,-0.044,-0.01
1.626,-0.015,-0.024,-0.01,0.02,-0.005,-0.02,-0.054,-0.024,-0.068,-0.034,-0.044,-0.015
1.628,-0.02,-0.034,-0.015,0.029,-0.005,-0.024,-0.054,-0.02,-0.068,-0.039,-0.049,-0.015
1.63,-0.015,-0.024,-0.01,0.02,-0.005,-0.02,-0.054,-0.02,-0.068,-0.034,-0.049,-0.01
1.632,-0.015,-0.024,-0.01,0.02,-0.005,-0.02,-0.054,-0.02,-0.068,-0.034,-0.054,-0.015
1.634,-0.02,-0.034,-0.015,0.029,-0.005,-0.024,-0.054,-0.024,-0.078,-0.039,-0.059,-0.02
1.636,-0.015,-0.029,-0.015,0.024,0.0,-0.024,-0.044,-0.015,-0.063,-0.034,-0.049,-0.005
1.638,-0.015,-0.024,-0.01,0.02,-0.005,-0.02,-0.054,-0.024,-0.068,-0.039,-0.059,-0.015
1.64,-0.02,-0.02,0.0,0.02,-0.01,-0.01,-0.049,-0.02,-0.068,-0.034,-0.054,-0.005
1.642,-0.005,-0.01,-0.005,0.01,0.0,-0.01,-0.039,-0.015,-0.059,-0.029,-0.044,0.0
1.644,0.0,-0.005,-0.005,0.005,0.0,-0.005,-0.039,-0.02,-0.059,-0.029,-0.044,0.0
1.646,0.005,-0.005,-0.01,0.0,0.005,-0.01,-0.029,-0.01,-0.054,-0.024,-0.039,-0.005
1.648,0.0,-0.01,-0.01,0.005,0.005,-0.01,-0.034,-0.005,-0.054,-0.029,-0.044,0.0
1.65,0.0,-0.005,-0.005,0.005,0.0,-0.005,-0.034,-0.005,-0.054,-0.024,-0.049,-0.01
1.652,0.0,-0.005,-0.005,0.005,0.0,-0.005,-0.024,0.0,-0.049,-0.02,-0.049,-0.015
1.654,-0.005,-0.015,-0.01,0.01,0.0,-0.015,-0.024,-0.005,-0.044,-0.02,-0.049,-0.01
1.656,0.005,-0.01,-0.015,0.005,0.01,-0.015,-0.015,0.0,-0.039,-0.015,-0.049,-0.01
1.658,0.01,0.0,-0.01,-0.005,0.01,-0.005,-0.015,0.005,-0.039,-0.015,-0.044,-0.01
1.66,0.015,0.0,-0.015,-0.005,0.015,-0.01,-0.01,-0.005,-0.039,-0.01,-0.044,-0.01
1.662,0.02,0.005,-0.015,-0.01,0.015,-0.005,-0.015,-0.005,-0.039,-0.015,-0.044,-0.005
1.664,0.02,0.005,-0.015,-0.01,0.015,-0.005,-0.01,0.0,-0.044,-0.01,-0.039,-0.005
1.666,0.02,0.015,-0.005,-0.015,0.01,0.005,-0.005,0.005,-0.034,-0.005,-0.029,0.0
1.668,0.024,0.02,-0.005,-0.02,0.015,0.005,0.005,0.024,-0.024,0.0,-0.024,0.01
1.67,0.015,0.02,0.005,-0.015,0.005,0.01,0.01,0.024,-0.024,0.0,-0.024,0.0
1.672,0.02,0.02,0.0,-0.02,0.01,0.01,0.02,0.034,-0.015,0.01,-0.02,0.01
1.674,0.034,0.02,-0.015,-0.024,0.024,0.0,0.015,0.029,-0.015,0.005,-0.024,0.01
1.676,0.034,0.015,-0.02,-0.024,0.024,-0.005,0.005,0.024,-0.024,-0.005,-0.034,0.0
1.678,0.039,0.015,-0.024,-0.024,0.029,-0.005,0.015,0.029,-0.02,0.005,-0.024,0.0
1.68,0.039,0.02,-0.02,-0.029,0.029,0.0,0.029,0.044,-0.005,0.02,-0.02,0.005
1.682,0.049,0.029,-0.02,-0.039,0.034,0.005,0.029,0.049,0.0,0.024,-0.02,0.01
1.684,0.049,0.039,-0.01,-0.044,0.029,0.015,0.044,0.063,0.015,0.029,0.0,0.02
1.686,0.044,0.039,-0.005,-0.039,0.024,0.015,0.039,0.059,0.005,0.029,0.0,0.02
1.688,0.049,0.034,-0.015,-0.039,0.029,0.01,0.034,0.054,0.005,0.029,0.005,0.024
1.69,0.044,0.039,-0.005,-0.039,0.024,0.015,0.024,0.054,0.0,0.024,0.005,0.02
1.692,0.044,0.044,0.0,-0.044,0.02,0.02,0.029,0.054,0.005,0.029,0.005,0.024
1.694,0.054,0.049,-0.005,-0.049,0.029,0.02,0.015,0.044,0.0,0.024,0.0,0.024
1.696,0.044,0.039,-0.005,-0.039,0.024,0.015,0.0,0.024,-0.015,0.015,-0.01,0.01
1.698,0.034,0.024,-0.01,-0.029,0.02,0.005,-0.005,0.02,-0.02,0.005,-0.015,0.005
1.7,0.039,0.015,-0.024,-0.024,0.029,-0.005,-0.01,0.005,-0.029,-0.005,-0.02,-0.005
1.702,0.039,-0.01,-0.049,-0.015,0.044,-0.029,-0.029,-0.015,-0.039,-0.02,-0.034,-0.015
1.704,0.034,-0.029,-0.063,0.0,0.049,-0.049,-0.039,-0.029,-0.059,-0.029,-0.039,-0.024
1.706,0.039,-0.049,-0.088,0.005,0.063,-0.068,-0.054,-0.044,-0.068,-0.034,-0.049,-0.034
1.708,0.034,-0.054,-0.088,0.01,0.059,-0.073,-0.059,-0.049,-0.073,-0.039,-0.054,-0.034
1.71,0.034,-0.044,-0.078,0.005,0.054,-0.063,-0.059,-0.049,-0.073,-0.039,-0.059,-0.039
1.712,0.039,-0.049,-0.088,0.005,0.063,-0.068,-0.049,-0.044,-0.073,-0.039,-0.059,-0.039
1.714,0.039,-0.044,-0.083,0.005,0.059,-0.063,-0.044,-0.039,-0.078,-0.039,-0.049,-0.034
1.716,0.044,-0.039,-0.083,0.0,0.063,-0.063,-0.049,-0.044,-0.073,-0.034,-0.054,-0.029
1.718,0.039,-0.044,-0.083,0.005,0.059,-0.063,-0.049,-0.049,-0.073,-0.034,-0.049,-0.024
1.72,0.039,-0.039,-0.078,0.0,0.059,-0.059,-0.054,-0.049,-0.073,-0.029,-0.054,-0.024
1.722,0.024,-0.049,-0.073,0.015,0.049,-0.063,-0.059,-0.049,-0.073,-0.034,-0.063,-0.034
1.724,0.015,-0.054,-0.068,0.02,0.039,-0.063,-0.059,-0.054,-0.073,-0.044,-0.063,-0.034
1.726,0.0,-0.054,-0.054,0.029,0.024,-0.054,-0.049,-0.044,-0.073,-0.039,-0.063,-0.034
1.728,-0.015,-0.073,-0.059,0.044,0.02,-0.068,-0.039,-0.039,-0.068,-0.044,-0.059,-0.039
1.73,-0.029,-0.078,-0.049,0.054,0.01,-0.063,-0.034,-0.044,-0.073,-0.054,-0.068,-0.044
1.732,-0.039,-0.078,-0.039,0.059,0.0,-0.059,-0.024,-0.039,-0.068,-0.059,-0.068,-0.044
1.734,-0.049,-0.078,-0.029,0.063,-0.01,-0.054,-0.034,-0.049,-0.083,-0.078,-0.078,-0.054
1.736,-0.044,-0.078,-0.034,0.063,-0.005,-0.059,-0.029,-0.049,-0.083,-0.073,-0.083,-0.054
1.738,-0.039,-0.083,-0.044,0.063,0.0,-0.063,-0.034,-0.063,-0.088,-0.083,-0.083,-0.063
1.74,-0.039,-0.073,-0.034,0.059,-0.005,-0.054,-0.044,-0.063,-0.093,-0.093,-0.083,-0.059
1.742,-0.044,-0.078,-0.034,0.063,-0.005,-0.059,-0.039,-0.059,-0.088,-0.088,-0.083,-0.059
1.744,-0.049,-0.078,-0.029,0.063,-0.01,-0.054,-0.044,-0.063,-0.093,-0.093,-0.083,-0.063
1.746,-0.044,-0.078,-0.034,0.063,-0.005,-0.059,-0.049,-0.068,-0.098,-0.093,-0.083,-0.059
1.748,-0.044,-0.083,-0.039,0.063,-0.005,-0.063,-0.049,-0.068,-0.098,-0.093,-0.083,-0.059
1.75,-0.049,-0.093,-0.044,0.073,-0.005,-0.068,-0.049,-0.073,-0.098,-0.093,-0.088,-0.059
1.752,-0.044,-0.088,-0.044,0.068,0.0,-0.068,-0.049,-0.063,-0.098,-0.093,-0.083,-0.059
1.754,-0.039,-0.088,-0.049,0.063,0.005,-0.068,-0.049,-0.063,-0.088,-0.088,-0.083,-0.059
1.756,-0.034,-0.088,-0.054,0.063,0.01,-0.073,-0.049,-0.063,-0.083,-0.088,-0.083,-0.054
1.758,-0.039,-0.083,-0.044,0.063,0.0,-0.063,-0.039,-0.063,-0.078,-0.083,-0.073,-0.054
1.76,-0.049,-0.078,-0.029,0.063,-0.01,-0.054,-0.049,-0.068,-0.078,-0.083,-0.078,-0.059
1.762,-0.049,-0.083,-0.034,0.068,-0.01,-0.059,-0.049,-0.068,-0.083,-0.088,-0.078,-0.059
1.764,-0.044,-0.078,-0.034,0.063,-0.005,-0.059,-0.049,-0.059,-0.088,-0.083,-0.073,-0.049
1.766,-0.039,-0.083,-0.044,0.063,0.0,-0.063,-0.049,-0.059,-0.088,-0.088,-0.073,-0.059
1.768,-0.039,-0.083,-0.044,0.063,0.0,-0.063,-0.049,-0.054,-0.088,-0.088,-0.073,-0.063
1.77,-0.044,-0.088,-0.044,0.068,0.0,-0.068,-0.049,-0.059,-0.093,-0.093,-0.078,-0.068
1.772,-0.049,-0.083,-0.034,0.068,-0.01,-0.059,-0.049,-0.059,-0.088,-0.098,-0.073,-0.068
1.774,-0.039,-0.083,-0.044,0.063,0.0,-0.063,-0.044,-0.054,-0.083,-0.083,-0.068,-0.063
1.776,-0.049,-0.088,-0.039,0.068,-0.005,-0.063,-0.044,-0.054,-0.088,-0.088,-0.073,-0.068
1.778,-0.049,-0.093,-0.044,0.073,-0.005,-0.068,-0.044,-0.054,-0.093,-0.093,-0.083,-0.078
1.78,-0.054,-0.088,-0.034,0.073,-0.01,-0.063,-0.029,-0.044,-0.083,-0.098,-0.088,-0.088
1.782,-0.059,-0.098,-0.039,0.078,-0.01,-0.068,0.015,0.0,-0.063,-0.098,-0.098,-0.098
1.784,-0.034,-0.083,-0.049,0.059,0.005,-0.068,0.088,0.078,-0.029,-0.098,-0.107,-0.117
1.786,-0.02,-0.078,-0.059,0.049,0.02,-0.068,0.181,0.19,0.029,-0.073,-0.117,-0.127
1.788,0.01,-0.083,-0.093,0.039,0.049,-0.088,0.264,0.307,0.098,-0.049,-0.117,-0.142
1.79,0.044,-0.078,-0.122,0.02,0.083,-0.102,0.356,0.429,0.176,-0.01,-0.102,-0.137
1.792,0.063,-0.059,-0.122,0.0,0.093,-0.093,0.434,0.512,0.234,0.02,-0.093,-0.127
1.794,0.102,-0.02,-0.122,-0.039,0.112,-0.073,0.532,0.615,0.303,0.083,-0.044,-0.098
1.796,0.137,0.029,-0.107,-0.083,0.122,-0.039,0.649,0.747,0.415,0.176,0.029,-0.044
1.798,0.166,0.098,-0.068,-0.132,0.117,0.015,0.688,0.8,0.512,0.278,0.127,0.034
1.8,0.2,0.19,-0.01,-0.195,0.102,0.088,0.644,0.776,0.59,0.405,0.259,0.156
1.802,0.215,0.293,0.078,-0.254,0.068,0.185,0.556,0.698,0.649,0.537,0.4,0.278
1.804,0.254,0.415,0.161,-0.332,0.044,0.288,0.444,0.615,0.732,0.698,0.576,0.434
1.806,0.298,0.547,0.249,-0.42,0.024,0.395,0.298,0.488,0.81,0.874,0.766,0.605
1.808,0.303,0.688,0.386,-0.493,-0.044,0.537,0.088,0.332,0.898,1.054,0.961,0.786
1.81,0.283,0.859,0.576,-0.571,-0.146,0.717,-0.073,0.215,1.01,1.264,1.181,0.976
1.812,0.259,1.02,0.761,-0.639,-0.254,0.888,-0.137,0.19,1.157,1.474,1.386,1.157
1.814,0.181,1.132,0.952,-0.654,-0.386,1.039,-0.21,0.137,1.24,1.601,1.513,1.274
1.816,0.107,1.137,1.03,-0.62,-0.464,1.083,-0.283,0.068,1.23,1.606,1.523,1.298
1.818,0.034,1.02,0.986,-0.527,-0.478,1.0,-0.346,-0.01,1.113,1.449,1.391,1.196
1.82,-0.005,0.883,0.888,-0.439,-0.449,0.883,-0.42,-0.112,0.917,1.225,1.2,1.059
1.822,-0.02,0.756,0.776,-0.366,-0.4,0.766,-0.527,-0.254,0.673,0.976,0.991,0.903
1.824,-0.049,0.61,0.659,-0.278,-0.356,0.634,-0.644,-0.449,0.376,0.683,0.761,0.712
1.826,-0.117,0.473,0.59,-0.176,-0.356,0.532,-0.732,-0.644,0.02,0.356,0.517,0.527
1.828,-0.21,0.376,0.586,-0.083,-0.4,0.478,-0.776,-0.795,-0.293,0.063,0.293,0.361
1.83,-0.244,0.307,0.551,-0.029,-0.4,0.429,-0.795,-0.869,-0.468,-0.102,0.156,0.254
1.832,-0.254,0.278,0.532,-0.01,-0.395,0.405,-0.815,-0.888,-0.522,-0.181,0.068,0.176
1.834,-0.278,0.224,0.503,0.029,-0.39,0.361,-0.82,-0.878,-0.551,-0.239,-0.015,0.098
1.836,-0.268,0.181,0.449,0.044,-0.361,0.312,-0.776,-0.844,-0.551,-0.278,-0.078,0.024
1.838,-0.229,0.137,0.366,0.049,-0.298,0.249,-0.712,-0.766,-0.517,-0.273,-0.102,-0.024
1.84,-0.195,0.098,0.293,0.049,-0.244,0.195,-0.615,-0.654,-0.449,-0.249,-0.107,-0.039
1.842,-0.161,0.088,0.249,0.039,-0.205,0.166,-0.508,-0.527,-0.371,-0.21,-0.088,-0.049
1.844,-0.137,0.068,0.205,0.034,-0.171,0.137,-0.405,-0.415,-0.293,-0.171,-0.078,-0.054
1.846,-0.117,0.049,0.166,0.034,-0.142,0.107,-0.317,-0.322,-0.234,-0.137,-0.068,-0.063
1.848,-0.098,0.049,0.146,0.024,-0.122,0.098,-0.239,-0.244,-0.176,-0.112,-0.059,-0.063
1.85,-0.088,0.029,0.117,0.029,-0.102,0.073,-0.195,-0.185,-0.146,-0.093,-0.049,-0.063
1.852,-0.073,0.01,0.083,0.034,-0.078,0.044,-0.161,-0.146,-0.127,-0.088,-0.059,-0.078
1.854,-0.059,-0.005,0.054,0.034,-0.059,0.024,-0.132,-0.122,-0.107,-0.078,-0.059,-0.088
1.856,-0.054,-0.024,0.029,0.039,-0.044,0.0,-0.122,-0.102,-0.093,-0.078,-0.063,-0.093
1.858,-0.039,-0.054,-0.015,0.049,-0.015,-0.034,-0.107,-0.078,-0.073,-0.068,-0.063,-0.102
1.86,-0.034,-0.078,-0.044,0.059,0.005,-0.063,-0.088,-0.063,-0.054,-0.063,-0.068,-0.098
1.862,-0.039,-0.078,-0.039,0.059,0.0,-0.059,-0.078,-0.059,-0.059,-0.059,-0.059,-0.098
1.864,-0.034,-0.078,-0.044,0.059,0.005,-0.063,-0.078,-0.063,-0.054,-0.059,-0.068,-0.102
1.866,-0.034,-0.088,-0.054,0.063,0.01,-0.073,-0.073,-0.054,-0.063,-0.059,-0.063,-0.102
1.868,-0.034,-0.088,-0.054,0.063,0.01,-0.073,-0.063,-0.044,-0.063,-0.068,-0.059,-0.102
1.87,-0.034,-0.093,-0.059,0.063,0.01,-0.078,-0.054,-0.034,-0.068,-0.063,-0.063,-0.102
1.872,-0.029,-0.098,-0.068,0.063,0.02,-0.083,-0.049,-0.034,-0.068,-0.073,-0.078,-0.112
1.874,-0.02,-0.083,-0.063,0.054,0.02,-0.073,-0.049,-0.034,-0.063,-0.078,-0.083,-0.117
1.876,-0.02,-0.088,-0.068,0.054,0.024,-0.078,-0.044,-0.029,-0.059,-0.073,-0.083,-0.112
1.878,-0.024,-0.088,-0.063,0.059,0.02,-0.078,-0.044,-0.029,-0.054,-0.068,-0.088,-0.117
1.88,-0.02,-0.088,-0.068,0.054,0.024,-0.078,-0.039,-0.015,-0.044,-0.063,-0.078,-0.107
1.882,-0.024,-0.088,-0.063,0.059,0.02,-0.078,-0.044,-0.02,-0.044,-0.059,-0.078,-0.112
1.884,-0.029,-0.093,-0.063,0.063,0.015,-0.078,-0.039,-0.02,-0.044,-0.054,-0.073,-0.112
1.886,-0.034,-0.098,-0.063,0.068,0.015,-0.083,-0.034,-0.015,-0.039,-0.049,-0.063,-0.107
1.888,-0.034,-0.102,-0.068,0.068,0.015,-0.088,-0.034,-0.01,-0.044,-0.059,-0.068,-0.117
1.89,-0.029,-0.098,-0.068,0.063,0.02,-0.083,-0.029,0.0,-0.044,-0.059,-0.063,-0.112
1.892,-0.02,-0.093,-0.073,0.059,0.024,-0.083,-0.024,0.0,-0.049,-0.063,-0.073,-0.117
1.894,-0.015,-0.093,-0.078,0.054,0.029,-0.088,-0.015,0.01,-0.034,-0.059,-0.068,-0.117
1.896,-0.01,-0.088,-0.078,0.049,0.034,-0.083,-0.015,0.01,-0.034,-0.054,-0.073,-0.122
1.898,-0.015,-0.088,-0.073,0.054,0.029,-0.083,-0.024,0.005,-0.034,-0.054,-0.078,-0.127
1.9,-0.015,-0.083,-0.068,0.049,0.024,-0.078,-0.024,0.01,-0.029,-0.049,-0.073,-0.122
1.902,-0.024,-0.093,-0.068,0.059,0.02,-0.083,-0.024,0.005,-0.024,-0.044,-0.063,-0.117
1.904,-0.034,-0.098,-0.063,0.068,0.015,-0.083,-0.02,0.005,-0.024,-0.039,-0.054,-0.112
1.906,-0.024,-0.093,-0.068,0.059,0.02,-0.083,-0.024,0.005,-0.034,-0.044,-0.059,-0.112
1.908,-0.02,-0.093,-0.073,0.059,0.024,-0.083,-0.02,0.015,-0.034,-0.049,-0.059,-0.122
1.91,-0.015,-0.093,-0.078,0.054,0.029,-0.088,-0.01,0.02,-0.034,-0.049,-0.059,-0.122
1.912,-0.015,-0.083,-0.068,0.049,0.024,-0.078,0.0,0.02,-0.034,-0.054,-0.063,-0.127
1.914,-0.015,-0.088,-0.073,0.054,0.029,-0.083,0.0,0.024,-0.029,-0.059,-0.068,-0.137
1.916,-0.01,-0.083,-0.073,0.049,0.029,-0.078,0.005,0.029,-0.02,-0.054,-0.073,-0.127
1.918,-0.005,-0.083,-0.078,0.044,0.034,-0.083,0.0,0.02,-0.024,-0.049,-0.073,-0.127
1.92,-0.01,-0.083,-0.073,0.049,0.029,-0.078,-0.01,0.02,-0.02,-0.049,-0.073,-0.127
1.922,-0.02,-0.073,-0.054,0.049,0.015,-0.063,-0.005,0.024,-0.01,-0.039,-0.059,-0.117
1.924,-0.02,-0.078,-0.059,0.049,0.02,-0.068,0.0,0.024,-0.01,-0.034,-0.049,-0.117
1.926,-0.02,-0.083,-0.063,0.054,0.02,-0.073,0.005,0.02,-0.015,-0.039,-0.044,-0.112
1.928,-0.015,-0.083,-0.068,0.049,0.024,-0.078,0.01,0.029,-0.01,-0.039,-0.044,-0.112
1.93,-0.01,-0.088,-0.078,0.049,0.034,-0.083,0.015,0.039,-0.015,-0.044,-0.044,-0.112
1.932,-0.015,-0.078,-0.063,0.049,0.024,-0.073,0.02,0.039,-0.01,-0.044,-0.054,-0.122
1.934,-0.01,-0.078,-0.068,0.044,0.029,-0.073,0.024,0.044,0.0,-0.044,-0.054,-0.122
1.936,-0.005,-0.078,-0.073,0.044,0.034,-0.078,0.024,0.044,0.0,-0.044,-0.059,-0.127
1.938,0.0,-0.078,-0.078,0.039,0.039,-0.078,0.02,0.049,0.005,-0.034,-0.054,-0.122
1.94,-0.005,-0.073,-0.068,0.039,0.029,-0.073,0.02,0.054,0.015,-0.034,-0.049,-0.117
1.942,-0.005,-0.068,-0.063,0.039,0.029,-0.068,0.02,0.049,0.015,-0.024,-0.044,-0.112
1.944,-0.01,-0.068,-0.059,0.039,0.024,-0.063,0.024,0.054,0.015,-0.029,-0.039,-0.112
1.946,-0.005,-0.078,-0.073,0.044,0.034,-0.078,0.024,0.054,0.015,-0.024,-0.039,-0.107
1.948,0.005,-0.073,-0.078,0.034,0.039,-0.078,0.029,0.063,0.02,-0.029,-0.034,-0.107
1.95,0.01,-0.063,-0.073,0.029,0.039,-0.068,0.039,0.068,0.02,-0.024,-0.029,-0.107
1.952,-0.005,-0.073,-0.068,0.039,0.029,-0.073,0.039,0.068,0.015,-0.034,-0.039,-0.117
1.954,0.005,-0.073,-0.078,0.034,0.039,-0.078,0.049,0.073,0.02,-0.029,-0.034,-0.112
1.956,0.0,-0.073,-0.073,0.039,0.034,-0.073,0.044,0.073,0.029,-0.029,-0.039,-0.117
1.958,-0.005,-0.073,-0.068,0.039,0.029,-0.073,0.034,0.073,0.029,-0.024,-0.034,-0.117
1.96,0.005,-0.059,-0.063,0.029,0.034,-0.063,0.034,0.078,0.039,-0.02,-0.034,-0.107
1.962,0.005,-0.063,-0.068,0.029,0.034,-0.068,0.034,0.073,0.039,-0.015,-0.029,-0.102
1.964,0.005,-0.059,-0.063,0.029,0.034,-0.063,0.044,0.073,0.044,-0.01,-0.02,-0.093
1.966,0.005,-0.059,-0.063,0.029,0.034,-0.063,0.044,0.073,0.049,-0.005,-0.02,-0.093
1.968,0.005,-0.063,-0.068,0.029,0.034,-0.068,0.044,0.078,0.044,-0.01,-0.029,-0.093
1.97,0.015,-0.059,-0.073,0.024,0.044,-0.068,0.049,0.088,0.039,-0.005,-0.024,-0.093
1.972,0.015,-0.059,-0.073,0.024,0.044,-0.068,0.054,0.088,0.039,-0.01,-0.029,-0.098
1.974,0.02,-0.059,-0.078,0.02,0.049,-0.068,0.049,0.098,0.049,-0.005,-0.029,-0.098
1.976,0.02,-0.054,-0.073,0.02,0.044,-0.063,0.044,0.093,0.049,-0.01,-0.034,-0.098
1.978,0.015,-0.059,-0.073,0.024,0.044,-0.068,0.049,0.098,0.049,0.0,-0.024,-0.098
1.98,0.015,-0.044,-0.059,0.015,0.034,-0.054,0.044,0.098,0.059,0.01,-0.02,-0.093
1.982,0.015,-0.049,-0.063,0.02,0.039,-0.059,0.049,0.093,0.068,0.015,-0.015,-0.083
1.984,0.015,-0.049,-0.063,0.02,0.039,-0.059,0.044,0.088,0.063,0.015,-0.01,-0.078
1.986,0.024,-0.039,-0.063,0.01,0.044,-0.054,0.044,0.093,0.068,0.024,0.0,-0.073
1.988,0.029,-0.039,-0.068,0.005,0.049,-0.054,0.049,0.102,0.073,0.024,0.0,-0.068
1.99,0.029,-0.039,-0.068,0.005,0.049,-0.054,0.059,0.112,0.073,0.029,0.005,-0.059
1.992,0.039,-0.029,-0.068,-0.005,0.054,-0.049,0.059,0.107,0.078,0.024,-0.005,-0.063
1.994,0.034,-0.034,-0.068,0.0,0.049,-0.054,0.059,0.122,0.088,0.034,0.0,-0.063
1.996,0.039,-0.024,-0.063,-0.005,0.049,-0.044,0.063,0.127,0.093,0.034,0.005,-0.059
1.998,0.029,-0.024,-0.054,0.0,0.039,-0.039,0.059,0.122,0.102,0.044,0.01,-0.054
2.0,0.034,-0.024,-0.059,-0.005,0.044,-0.044,0.054,0.122,0.107,0.049,0.015,-0.054
2.002,0.039,-0.024,-0.063,-0.005,0.049,-0.044,0.059,0.122,0.117,0.068,0.029,-0.044
2.004,0.034,-0.024,-0.059,-0.005,0.044,-0.044,0.059,0.127,0.117,0.063,0.034,-0.039
2.006,0.039,-0.024,-0.063,-0.005,0.049,-0.044,0.063,0.132,0.122,0.073,0.039,-0.029
2.008,0.054,-0.015,-0.068,-0.02,0.059,-0.044,0.063,0.127,0.117,0.068,0.039,-0.029
2.01,0.049,-0.02,-0.068,-0.015,0.059,-0.044,0.083,0.137,0.127,0.078,0.054,-0.02
2.012,0.063,-0.005,-0.068,-0.029,0.063,-0.039,0.083,0.146,0.132,0.078,0.059,-0.02
2.014,0.068,-0.005,-0.073,-0.029,0.068,-0.039,0.083,0.146,0.137,0.083,0.054,-0.02
2.016,0.078,0.0,-0.078,-0.039,0.078,-0.039,0.078,0.156,0.146,0.088,0.059,-0.024
2.018,0.078,0.01,-0.068,-0.044,0.073,-0.029,0.078,0.156,0.151,0.098,0.068,-0.02
2.02,0.078,0.01,-0.068,-0.044,0.073,-0.029,0.073,0.161,0.161,0.107,0.073,-0.015
2.022,0.078,0.01,-0.068,-0.044,0.073,-0.029,0.073,0.156,0.166,0.122,0.078,-0.01
2.024,0.073,0.015,-0.059,-0.044,0.063,-0.024,0.073,0.166,0.176,0.132,0.088,0.0
2.026,0.078,0.02,-0.059,-0.049,0.068,-0.02,0.073,0.161,0.176,0.132,0.088,0.005
2.028,0.088,0.024,-0.063,-0.054,0.073,-0.02,0.078,0.166,0.181,0.132,0.102,0.015
2.03,0.088,0.029,-0.059,-0.059,0.073,-0.015,0.088,0.181,0.19,0.142,0.107,0.024
2.032,0.098,0.044,-0.054,-0.068,0.073,-0.005,0.088,0.185,0.2,0.146,0.112,0.029
2.034,0.107,0.054,-0.054,-0.078,0.078,0.0,0.088,0.19,0.205,0.156,0.112,0.034
2.036,0.102,0.054,-0.049,-0.078,0.073,0.0,0.088,0.185,0.215,0.161,0.117,0.039
2.038,0.098,0.063,-0.034,-0.078,0.063,0.015,0.083,0.185,0.22,0.171,0.127,0.039
2.04,0.112,0.073,-0.039,-0.093,0.073,0.015,0.083,0.19,0.234,0.185,0.132,0.049
2.042,0.107,0.073,-0.034,-0.088,0.068,0.02,0.088,0.185,0.239,0.2,0.137,0.059
2.044,0.122,0.083,-0.039,-0.102,0.078,0.02,0.078,0.19,0.239,0.205,0.146,0.068
2.046,0.122,0.083,-0.039,-0.102,0.078,0.02,0.078,0.195,0.244,0.21,0.156,0.078
2.048,0.127,0.088,-0.039,-0.107,0.083,0.024,0.088,0.195,0.249,0.215,0.166,0.093
2.05,0.132,0.102,-0.029,-0.117,0.078,0.034,0.093,0.205,0.249,0.224,0.171,0.093
2.052,0.132,0.102,-0.029,-0.117,0.078,0.034,0.093,0.205,0.259,0.229,0.171,0.098
2.054,0.142,0.112,-0.029,-0.127,0.083,0.039,0.093,0.21,0.268,0.244,0.185,0.102
2.056,0.146,0.132,-0.015,-0.137,0.078,0.059,0.088,0.21,0.273,0.249,0.195,0.102
2.058,0.142,0.132,-0.01,-0.137,0.073,0.059,0.088,0.21,0.283,0.264,0.205,0.117
2.06,0.146,0.146,0.0,-0.146,0.073,0.073,0.083,0.205,0.288,0.264,0.21,0.122
2.062,0.156,0.142,-0.015,-0.146,0.083,0.063,0.083,0.205,0.293,0.273,0.22,0.132
2.064,0.156,0.142,-0.015,-0.146,0.083,0.063,0.078,0.2,0.293,0.273,0.229,0.142
2.066,0.151,0.146,-0.005,-0.146,0.078,0.068,0.078,0.2,0.298,0.278,0.234,0.146
2.068,0.156,0.146,-0.01,-0.151,0.083,0.068,0.083,0.205,0.288,0.273,0.239,0.146
2.07,0.161,0.156,-0.005,-0.156,0.083,0.073,0.088,0.205,0.293,0.283,0.244,0.161
2.072,0.161,0.156,-0.005,-0.156,0.083,0.073,0.088,0.205,0.298,0.283,0.239,0.156
2.074,0.166,0.166,0.0,-0.166,0.083,0.083,0.093,0.2,0.303,0.288,0.239,0.156
2.076,0.171,0.181,0.01,-0.176,0.078,0.093,0.093,0.195,0.307,0.288,0.249,0.161
2.078,0.166,0.181,0.015,-0.171,0.073,0.098,0.073,0.19,0.303,0.288,0.249,0.166
2.08,0.176,0.185,0.01,-0.181,0.083,0.098,0.068,0.185,0.307,0.298,0.254,0.181
2.082,0.176,0.195,0.02,-0.185,0.078,0.107,0.068,0.181,0.307,0.303,0.259,0.185
2.084,0.171,0.195,0.024,-0.181,0.073,0.107,0.059,0.171,0.298,0.298,0.264,0.185
2.086,0.171,0.195,0.024,-0.181,0.073,0.107,0.063,0.171,0.307,0.307,0.273,0.19
2.088,0.176,0.2,0.024,-0.185,0.073,0.112,0.063,0.161,0.298,0.303,0.268,0.19
2.09,0.176,0.2,0.024,-0.185,0.073,0.112,0.059,0.151,0.278,0.293,0.268,0.181
2.092,0.185,0.195,0.01,-0.19,0.088,0.102,0.059,0.151,0.278,0.283,0.264,0.176
2.094,0.171,0.19,0.02,-0.181,0.073,0.102,0.068,0.156,0.283,0.293,0.268,0.185
2.096,0.161,0.2,0.039,-0.181,0.059,0.117,0.068,0.156,0.283,0.293,0.273,0.185
2.098,0.166,0.205,0.039,-0.185,0.063,0.122,0.063,0.151,0.288,0.293,0.273,0.19
2.1,0.166,0.205,0.039,-0.185,0.063,0.122,0.054,0.142,0.283,0.288,0.273,0.185
2.102,0.171,0.22,0.049,-0.195,0.059,0.132,0.054,0.137,0.278,0.293,0.273,0.19
2.104,0.161,0.215,0.054,-0.185,0.054,0.132,0.044,0.137,0.273,0.288,0.278,0.19
2.106,0.161,0.21,0.049,-0.185,0.054,0.127,0.044,0.127,0.259,0.283,0.273,0.19
2.108,0.166,0.21,0.044,-0.185,0.059,0.127,0.049,0.127,0.259,0.273,0.268,0.19
2.11,0.151,0.205,0.054,-0.176,0.049,0.127,0.054,0.122,0.249,0.264,0.259,0.19
2.112,0.146,0.195,0.049,-0.171,0.049,0.122,0.049,0.122,0.239,0.254,0.254,0.181
2.114,0.146,0.195,0.049,-0.171,0.049,0.122,0.054,0.122,0.234,0.254,0.249,0.171
2.116,0.142,0.19,0.049,-0.166,0.044,0.117,0.049,0.112,0.22,0.239,0.239,0.161
2.118,0.132,0.195,0.063,-0.161,0.034,0.127,0.044,0.102,0.22,0.234,0.229,0.151
2.12,0.122,0.185,0.063,-0.151,0.029,0.122,0.044,0.098,0.22,0.229,0.22,0.146
2.122,0.112,0.181,0.068,-0.146,0.02,0.122,0.039,0.088,0.205,0.21,0.215,0.146
2.124,0.107,0.176,0.068,-0.142,0.02,0.122,0.034,0.083,0.195,0.205,0.205,0.137
2.126,0.107,0.166,0.059,-0.137,0.024,0.112,0.034,0.078,0.176,0.19,0.19,0.127
2.128,0.102,0.166,0.063,-0.132,0.02,0.112,0.039,0.078,0.171,0.185,0.181,0.122
2.13,0.093,0.166,0.073,-0.127,0.01,0.117,0.049,0.078,0.151,0.171,0.171,0.112
2.132,0.083,0.156,0.073,-0.117,0.005,0.112,0.049,0.073,0.142,0.151,0.151,0.098
2.134,0.073,0.146,0.073,-0.107,0.0,0.107,0.054,0.068,0.132,0.146,0.142,0.088
2.136,0.059,0.127,0.068,-0.093,-0.005,0.098,0.054,0.063,0.117,0.132,0.122,0.078
2.138,0.049,0.127,0.078,-0.088,-0.015,0.102,0.044,0.054,0.107,0.112,0.112,0.059
2.14,0.044,0.122,0.078,-0.083,-0.02,0.098,0.044,0.049,0.107,0.112,0.102,0.054
2.142,0.029,0.112,0.083,-0.068,-0.029,0.098,0.044,0.044,0.088,0.098,0.102,0.054
2.144,0.024,0.107,0.083,-0.063,-0.029,0.093,0.034,0.034,0.073,0.083,0.093,0.044
2.146,0.029,0.102,0.073,-0.063,-0.024,0.088,0.034,0.034,0.063,0.073,0.078,0.034
2.148,0.02,0.093,0.073,-0.054,-0.029,0.083,0.039,0.029,0.054,0.063,0.073,0.029
2.15,0.015,0.088,0.073,-0.049,-0.029,0.078,0.039,0.029,0.039,0.044,0.063,0.02
2.152,0.01,0.083,0.073,-0.044,-0.034,0.078,0.034,0.029,0.029,0.024,0.049,0.01
2.154,0.005,0.073,0.068,-0.039,-0.034,0.068,0.029,0.024,0.024,0.015,0.034,0.0
2.156,0.01,0.073,0.063,-0.039,-0.029,0.068,0.034,0.02,0.015,0.015,0.024,-0.005
2.158,-0.005,0.063,0.068,-0.029,-0.039,0.063,0.024,0.024,0.01,0.01,0.02,-0.02
2.16,-0.01,0.054,0.063,-0.02,-0.039,0.059,0.015,0.01,0.005,0.0,0.01,-0.029
2.162,-0.015,0.049,0.063,-0.015,-0.039,0.054,0.015,0.01,-0.005,-0.005,0.01,-0.029
2.164,-0.02,0.039,0.059,-0.01,-0.039,0.049,0.005,0.005,-0.015,-0.005,0.005,-0.039
2.166,-0.024,0.034,0.059,-0.005,-0.044,0.044,0.01,0.01,-0.015,0.01,0.0,-0.034
2.168,-0.024,0.029,0.054,0.0,-0.039,0.039,0.01,0.005,-0.02,0.005,-0.01,-0.044
2.17,-0.024,0.024,0.049,0.0,-0.039,0.034,0.015,0.005,-0.029,0.005,-0.02,-0.054
2.172,-0.02,0.029,0.049,-0.005,-0.034,0.039,0.015,0.01,-0.029,-0.005,-0.02,-0.059
2.174,-0.024,0.02,0.044,0.005,-0.034,0.029,0.015,0.005,-0.034,-0.005,-0.034,-0.063
2.176,-0.024,0.024,0.049,0.0,-0.039,0.034,0.005,-0.005,-0.039,-0.01,-0.044,-0.073
2.178,-0.029,0.024,0.054,0.005,-0.044,0.039,0.01,0.0,-0.034,0.0,-0.034,-0.068
2.18,-0.029,0.015,0.044,0.01,-0.039,0.029,0.0,-0.005,-0.034,-0.01,-0.039,-0.068
2.182,-0.034,0.01,0.044,0.015,-0.039,0.024,0.005,-0.005,-0.029,-0.005,-0.029,-0.068
2.184,-0.034,0.01,0.044,0.015,-0.039,0.024,0.0,-0.01,-0.039,-0.005,-0.034,-0.068
2.186,-0.039,0.0,0.039,0.02,-0.039,0.02,-0.005,-0.01,-0.044,-0.015,-0.039,-0.063
2.188,-0.029,0.0,0.029,0.015,-0.029,0.015,0.0,-0.01,-0.044,-0.015,-0.039,-0.068
2.19,-0.039,-0.005,0.034,0.024,-0.039,0.015,0.0,-0.01,-0.054,-0.02,-0.039,-0.073
2.192,-0.039,-0.015,0.024,0.029,-0.034,0.005,0.0,-0.005,-0.054,-0.02,-0.044,-0.068
2.194,-0.039,-0.01,0.029,0.024,-0.034,0.01,0.005,0.0,-0.044,-0.015,-0.049,-0.068
2.196,-0.029,-0.01,0.02,0.02,-0.024,0.005,0.0,-0.005,-0.044,-0.015,-0.054,-0.078
2.198,-0.029,-0.005,0.024,0.02,-0.029,0.01,0.005,-0.005,-0.039,-0.005,-0.044,-0.073
2.2,-0.029,-0.01,0.02,0.02,-0.024,0.005,0.005,-0.01,-0.034,-0.005,-0.044,-0.073
2.202,-0.034,-0.01,0.024,0.024,-0.029,0.005,0.0,-0.02,-0.044,-0.005,-0.044,-0.073
2.204,-0.034,-0.01,0.024,0.024,-0.029,0.005,0.005,-0.015,-0.039,0.0,-0.034,-0.068
2.206,-0.039,-0.015,0.024,0.029,-0.034,0.005,0.005,-0.01,-0.039,0.0,-0.034,-0.068
2.208,-0.034,-0.015,0.02,0.024,-0.029,0.0,0.01,-0.005,-0.034,0.0,-0.029,-0.063
2.21,-0.049,-0.02,0.029,0.034,-0.039,0.005,0.02,-0.005,-0.039,0.0,-0.029,-0.068
2.212,-0.049,-0.024,0.024,0.039,-0.039,0.0,0.01,0.0,-0.039,-0.005,-0.039,-0.078
2.214,-0.044,-0.02,0.024,0.034,-0.034,0.0,0.01,0.0,-0.039,-0.005,-0.044,-0.073
2.216,-0.034,-0.015,0.02,0.024,-0.029,0.0,0.005,-0.005,-0.034,-0.01,-0.039,-0.078
2.218,-0.034,-0.015,0.02,0.024,-0.029,0.0,0.015,0.0,-0.034,-0.01,-0.039,-0.078
2.22,-0.039,-0.015,0.024,0.029,-0.034,0.005,0.02,0.005,-0.02,0.0,-0.029,-0.068
2.222,-0.044,-0.015,0.029,0.029,-0.039,0.005,0.015,0.0,-0.029,0.0,-0.029,-0.068
2.224,-0.034,-0.015,0.02,0.024,-0.029,0.0,0.015,0.0,-0.029,0.0,-0.029,-0.063
2.226,-0.039,-0.015,0.024,0.029,-0.034,0.005,0.015,0.005,-0.024,0.0,-0.024,-0.059
2.228,-0.034,-0.02,0.015,0.029,-0.024,-0.005,0.015,0.005,-0.029,-0.005,-0.029,-0.063
2.23,-0.029,-0.015,0.015,0.024,-0.024,0.0,0.02,0.01,-0.039,-0.01,-0.039,-0.068
2.232,-0.054,-0.029,0.024,0.044,-0.039,-0.005,0.02,0.015,-0.029,-0.005,-0.039,-0.068
2.234,-0.054,-0.029,0.024,0.044,-0.039,-0.005,0.02,0.015,-0.029,-0.005,-0.039,-0.068
2.236,-0.039,-0.02,0.02,0.029,-0.029,0.0,0.02,0.015,-0.024,-0.005,-0.039,-0.078
2.238,-0.044,-0.02,0.024,0.034,-0.034,0.0,0.015,0.02,-0.024,0.0,-0.039,-0.083
2.24,-0.039,-0.02,0.02,0.029,-0.029,0.0,0.015,0.024,-0.015,0.005,-0.034,-0.068
2.242,-0.044,-0.02,0.024,0.034,-0.034,0.0,0.015,0.015,-0.02,0.0,-0.034,-0.073
2.244,-0.049,-0.02,0.029,0.034,-0.039,0.005,0.015,0.02,-0.015,0.005,-0.024,-0.068
2.246,-0.039,-0.015,0.024,0.029,-0.034,0.005,0.02,0.02,-0.015,0.005,-0.029,-0.068
2.248,-0.039,-0.02,0.02,0.029,-0.029,0.0,0.015,0.02,-0.02,0.0,-0.034,-0.068
2.25,-0.039,-0.02,0.02,0.029,-0.029,0.0,0.02,0.024,-0.024,0.0,-0.039,-0.073
2.252,-0.044,-0.029,0.015,0.039,-0.029,-0.01,0.024,0.024,-0.015,0.005,-0.039,-0.073
2.254,-0.044,-0.029,0.015,0.039,-0.029,-0.01,0.02,0.024,-0.015,0.0,-0.039,-0.078
2.256,-0.039,-0.029,0.01,0.034,-0.024,-0.01,0.024,0.029,-0.005,0.01,-0.029,-0.073
2.258,-0.044,-0.029,0.015,0.039,-0.029,-0.01,0.024,0.029,-0.005,0.01,-0.024,-0.078
2.26,-0.044,-0.034,0.01,0.039,-0.029,-0.015,0.02,0.029,-0.01,0.005,-0.024,-0.073
2.262,-0.044,-0.024,0.02,0.034,-0.034,-0.005,0.024,0.029,-0.005,0.01,-0.015,-0.073
2.264,-0.044,-0.024,0.02,0.034,-0.034,-0.005,0.029,0.034,-0.005,0.01,-0.015,-0.073
2.266,-0.044,-0.024,0.02,0.034,-0.034,-0.005,0.034,0.039,-0.005,0.01,-0.02,-0.063
2.268,-0.039,-0.024,0.015,0.034,-0.029,-0.005,0.034,0.034,-0.01,0.01,-0.024,-0.068
2.27,-0.054,-0.029,0.024,0.044,-0.039,-0.005,0.039,0.039,-0.01,0.01,-0.02,-0.068
2.272,-0.049,-0.029,0.02,0.039,-0.034,-0.005,0.034,0.044,-0.005,0.01,-0.024,-0.068
2.274,-0.044,-0.029,0.015,0.039,-0.029,-0.01,0.034,0.044,-0.01,0.005,-0.029,-0.068
2.276,-0.044,-0.024,0.02,0.034,-0.034,-0.005,0.039,0.049,0.0,0.015,-0.02,-0.068
2.278,-0.044,-0.02,0.024,0.034,-0.034,0.0,0.039,0.049,-0.005,0.015,-0.02,-0.068
2.28,-0.049,-0.02,0.029,0.034,-0.039,0.005,0.034,0.049,0.0,0.02,-0.015,-0.059
2.282,-0.049,-0.02,0.029,0.034,-0.039,0.005,0.034,0.039,-0.005,0.02,-0.02,-0.063
2.284,-0.049,-0.02,0.029,0.034,-0.039,0.005,0.039,0.044,0.0,0.024,-0.02,-0.054
2.286,-0.039,-0.02,0.02,0.029,-0.029,0.0,0.034,0.044,-0.005,0.015,-0.024,-0.059
2.288,-0.034,-0.015,0.02,0.024,-0.029,0.0,0.034,0.049,0.0,0.02,-0.02,-0.054
2.29,-0.049,-0.015,0.034,0.034,-0.044,0.01,0.039,0.054,0.0,0.02,-0.024,-0.063
2.292,-0.049,-0.015,0.034,0.034,-0.044,0.01,0.039,0.049,0.0,0.015,-0.024,-0.063
2.294,-0.039,-0.01,0.029,0.024,-0.034,0.01,0.044,0.054,0.0,0.02,-0.024,-0.059
2.296,-0.044,-0.01,0.034,0.029,-0.039,0.01,0.044,0.054,0.005,0.024,-0.02,-0.063
2.298,-0.054,-0.015,0.039,0.034,-0.049,0.01,0.039,0.054,0.0,0.02,-0.02,-0.063
2.3,-0.054,-0.02,0.034,0.039,-0.044,0.005,0.034,0.049,0.0,0.02,-0.02,-0.054
2.302,-0.054,-0.015,0.039,0.034,-0.049,0.01,0.034,0.044,0.0,0.024,-0.02,-0.054
2.304,-0.049,-0.01,0.039,0.029,-0.044,0.015,0.034,0.044,0.0,0.024,-0.015,-0.054
2.306,-0.054,-0.015,0.039,0.034,-0.049,0.01,0.039,0.049,0.0,0.024,-0.015,-0.049
2.308,-0.044,-0.01,0.034,0.029,-0.039,0.01,0.034,0.044,0.0,0.02,-0.015,-0.049
2.31,-0.044,-0.01,0.034,0.029,-0.039,0.01,0.044,0.044,0.0,0.024,-0.015,-0.049
2.312,-0.044,-0.02,0.024,0.034,-0.034,0.0,0.034,0.044,-0.005,0.015,-0.024,-0.059
2.314,-0.049,-0.015,0.034,0.034,-0.044,0.01,0.029,0.044,-0.005,0.015,-0.02,-0.063
2.316,-0.044,-0.01,0.034,0.029,-0.039,0.01,0.034,0.054,0.0,0.02,-0.01,-0.059
2.318,-0.054,-0.01,0.044,0.034,-0.049,0.015,0.029,0.044,-0.005,0.015,-0.02,-0.068
2.32,-0.049,-0.01,0.039,0.029,-0.044,0.015,0.024,0.044,-0.005,0.02,-0.02,-0.059
2.322,-0.059,-0.02,0.039,0.039,-0.049,0.01,0.02,0.034,-0.005,0.015,-0.02,-0.059
2.324,-0.063,-0.024,0.039,0.044,-0.054,0.005,0.02,0.034,-0.005,0.015,-0.02,-0.059
2.326,-0.063,-0.024,0.039,0.044,-0.054,0.005,0.024,0.039,-0.005,0.015,-0.015,-0.054
2.328,-0.059,-0.024,0.034,0.044,-0.049,0.005,0.015,0.034,-0.02,0.01,-0.02,-0.059
2.33,-0.063,-0.024,0.039,0.044,-0.054,0.005,0.024,0.039,-0.02,0.01,-0.02,-0.063
2.332,-0.054,-0.024,0.029,0.039,-0.044,0.0,0.024,0.039,-0.015,0.01,-0.024,-0.063
2.334,-0.054,-0.024,0.029,0.039,-0.044,0.0,0.02,0.034,-0.02,0.005,-0.024,-0.063
2.336,-0.049,-0.015,0.034,0.034,-0.044,0.01,0.02,0.039,-0.015,0.01,-0.02,-0.063
2.338,-0.044,-0.015,0.029,0.029,-0.039,0.005,0.015,0.029,-0.015,0.01,-0.02,-0.063
2.34,-0.049,-0.02,0.029,0.034,-0.039,0.005,0.01,0.02,-0.02,0.01,-0.024,-0.063
2.342,-0.049,-0.015,0.034,0.034,-0.044,0.01,0.01,0.02,-0.02,0.01,-0.029,-0.063
2.344,-0.054,-0.024,0.029,0.039,-0.044,0.0,0.01,0.015,-0.024,0.005,-0.029,-0.063
2.346,-0.054,-0.029,0.024,0.044,-0.039,-0.005,0.015,0.015,-0.02,0.005,-0.034,-0.063
2.348,-0.049,-0.029,0.02,0.039,-0.034,-0.005,0.015,0.015,-0.024,0.0,-0.034,-0.063
2.35,-0.049,-0.029,0.02,0.039,-0.034,-0.005,0.015,0.01,-0.029,-0.005,-0.039,-0.073
2.352,-0.049,-0.029,0.02,0.039,-0.034,-0.005,0.02,0.02,-0.024,-0.005,-0.034,-0.063
2.354,-0.059,-0.029,0.029,0.044,-0.044,0.0,0.02,0.02,-0.024,-0.005,-0.039,-0.063
2.356,-0.054,-0.029,0.024,0.044,-0.039,-0.005,0.015,0.01,-0.029,-0.015,-0.044,-0.073
2.358,-0.054,-0.029,0.024,0.044,-0.039,-0.005,0.01,0.01,-0.024,-0.005,-0.039,-0.063
2.36,-0.054,-0.034,0.02,0.044,-0.039,-0.01,0.01,0.005,-0.024,-0.005,-0.044,-0.073
2.362,-0.054,-0.024,0.029,0.039,-0.044,0.0,0.005,0.0,-0.029,-0.01,-0.039,-0.073
2.364,-0.049,-0.024,0.024,0.039,-0.039,0.0,0.01,0.0,-0.024,-0.005,-0.034,-0.063
2.366,-0.054,-0.029,0.024,0.044,-0.039,-0.005,0.005,0.0,-0.024,-0.015,-0.044,-0.068
2.368,-0.054,-0.029,0.024,0.044,-0.039,-0.005,0.01,0.005,-0.029,-0.015,-0.044,-0.068
2.37,-0.059,-0.034,0.024,0.049,-0.044,-0.005,0.01,0.0,-0.034,-0.015,-0.054,-0.073
2.372,-0.054,-0.039,0.015,0.049,-0.034,-0.015,0.01,0.0,-0.039,-0.02,-0.059,-0.078
2.374,-0.054,-0.029,0.024,0.044,-0.039,-0.005,0.015,0.005,-0.039,-0.02,-0.059,-0.078
2.376,-0.054,-0.029,0.024,0.044,-0.039,-0.005,0.01,0.005,-0.044,-0.029,-0.063,-0.078
2.378,-0.054,-0.029,0.024,0.044,-0.039,-0.005,0.005,0.0,-0.044,-0.024,-0.059,-0.078
2.38,-0.059,-0.034,0.024,0.049,-0.044,-0.005,0.015,-0.005,-0.039,-0.024,-0.059,-0.073
2.382,-0.054,-0.034,0.02,0.044,-0.039,-0.01,0.01,-0.005,-0.044,-0.024,-0.054,-0.068
2.384,-0.044,-0.029,0.015,0.039,-0.029,-0.01,0.015,0.0,-0.039,-0.02,-0.049,-0.068
2.386,-0.049,-0.034,0.015,0.044,-0.034,-0.01,0.01,-0.005,-0.049,-0.029,-0.059,-0.068
2.388,-0.059,-0.039,0.02,0.049,-0.039,-0.01,0.015,-0.005,-0.044,-0.024,-0.063,-0.073
2.39,-0.059,-0.044,0.015,0.054,-0.039,-0.015,0.015,0.0,-0.044,-0.029,-0.068,-0.078
2.392,-0.063,-0.059,0.005,0.063,-0.034,-0.029,0.02,0.005,-0.039,-0.029,-0.068,-0.078
2.394,-0.059,-0.054,0.005,0.059,-0.034,-0.024,0.015,0.0,-0.044,-0.034,-0.073,-0.083
2.396,-0.063,-0.049,0.015,0.059,-0.039,-0.02,0.015,0.0,-0.044,-0.029,-0.068,-0.078
2.398,-0.063,-0.049,0.015,0.059,-0.039,-0.02,0.015,0.0,-0.039,-0.029,-0.063,-0.078
2.4,-0.063,-0.049,0.015,0.059,-0.039,-0.02,0.015,0.0,-0.039,-0.029,-0.068,-0.078
2.402,-0.059,-0.044,0.015,0.054,-0.039,-0.015,0.01,-0.01,-0.039,-0.034,-0.063,-0.078
2.404,-0.063,-0.049,0.015,0.059,-0.039,-0.02,0.015,0.0,-0.034,-0.029,-0.054,-0.073
2.406,-0.063,-0.049,0.015,0.059,-0.039,-0.02,0.02,-0.005,-0.039,-0.029,-0.063,-0.073
2.408,-0.068,-0.054,0.015,0.063,-0.044,-0.02,0.02,0.0,-0.039,-0.034,-0.063,-0.073
2.41,-0.063,-0.049,0.015,0.059,-0.039,-0.02,0.02,-0.005,-0.039,-0.039,-0.063,-0.073
2.412,-0.068,-0.059,0.01,0.063,-0.039,-0.024,0.02,0.0,-0.044,-0.044,-0.063,-0.073
2.414,-0.068,-0.059,0.01,0.063,-0.039,-0.024,0.015,0.0,-0.044,-0.049,-0.068,-0.078
2.416,-0.073,-0.054,0.02,0.063,-0.049,-0.02,0.02,0.005,-0.044,-0.039,-0.063,-0.078
2.418,-0.073,-0.054,0.02,0.063,-0.049,-0.02,0.015,0.0,-0.044,-0.044,-0.063,-0.078
2.42,-0.073,-0.059,0.015,0.068,-0.044,-0.024,0.015,-0.005,-0.049,-0.039,-0.059,-0.068
2.422,-0.068,-0.049,0.02,0.059,-0.044,-0.015,0.015,-0.01,-0.049,-0.039,-0.063,-0.073
2.424,-0.073,-0.054,0.02,0.063,-0.049,-0.02,0.024,-0.005,-0.044,-0.039,-0.063,-0.068
2.426,-0.068,-0.049,0.02,0.059,-0.044,-0.015,0.029,-0.005,-0.044,-0.039,-0.059,-0.063
2.428,-0.068,-0.054,0.015,0.063,-0.044,-0.02,0.029,0.0,-0.044,-0.039,-0.054,-0.059
2.43,-0.068,-0.054,0.015,0.063,-0.044,-0.02,0.034,-0.005,-0.044,-0.044,-0.059,-0.063
2.432,-0.059,-0.049,0.01,0.054,-0.034,-0.02,0.029,-0.005,-0.049,-0.049,-0.059,-0.068
2.434,-0.063,-0.049,0.015,0.059,-0.039,-0.02,0.034,-0.005,-0.049,-0.044,-0.054,-0.068
2.436,-0.063,-0.054,0.01,0.059,-0.039,-0.024,0.029,-0.01,-0.049,-0.044,-0.059,-0.068
2.438,-0.068,-0.054,0.015,0.063,-0.044,-0.02,0.034,-0.005,-0.044,-0.044,-0.054,-0.068
2.44,-0.073,-0.054,0.02,0.063,-0.049,-0.02,0.029,-0.01,-0.049,-0.054,-0.068,-0.073
2.442,-0.073,-0.049,0.024,0.063,-0.049,-0.015,0.039,-0.015,-0.049,-0.049,-0.059,-0.068
2.444,-0.068,-0.049,0.02,0.059,-0.044,-0.015,0.029,-0.02,-0.054,-0.049,-0.059,-0.068
2.446,-0.063,-0.049,0.015,0.059,-0.039,-0.02,0.034,-0.015,-0.054,-0.049,-0.059,-0.063
2.448,-0.059,-0.049,0.01,0.054,-0.034,-0.02,0.039,-0.015,-0.054,-0.054,-0.059,-0.063
2.45,-0.063,-0.049,0.015,0.059,-0.039,-0.02,0.039,-0.015,-0.054,-0.054,-0.059,-0.068
2.452,-0.054,-0.049,0.005,0.054,-0.029,-0.024,0.039,-0.015,-0.049,-0.054,-0.063,-0.068
2.454,-0.054,-0.044,0.01,0.049,-0.034,-0.02,0.044,-0.01,-0.049,-0.049,-0.063,-0.063
2.456,-0.068,-0.054,0.015,0.063,-0.044,-0.02,0.044,-0.01,-0.044,-0.049,-0.068,-0.068
2.458,-0.063,-0.049,0.015,0.059,-0.039,-0.02,0.039,-0.015,-0.049,-0.049,-0.068,-0.073
2.46,-0.063,-0.054,0.01,0.059,-0.039,-0.024,0.039,-0.02,-0.059,-0.059,-0.073,-0.073
2.462,-0.068,-0.049,0.02,0.059,-0.044,-0.015,0.029,-0.024,-0.063,-0.059,-0.073,-0.078
2.464,-0.063,-0.049,0.015,0.059,-0.039,-0.02,0.039,-0.02,-0.054,-0.049,-0.068,-0.068
2.466,-0.068,-0.059,0.01,0.063,-0.039,-0.024,0.039,-0.01,-0.059,-0.049,-0.063,-0.063
2.468,-0.059,-0.059,0.0,0.059,-0.029,-0.029,0.034,-0.015,-0.063,-0.039,-0.063,-0.068
2.47,-0.063,-0.054,0.01,0.059,-0.039,-0.024,0.034,-0.015,-0.059,-0.034,-0.068,-0.068
2.472,-0.059,-0.059,0.0,0.059,-0.029,-0.029,0.039,-0.01,-0.063,-0.034,-0.073,-0.073
2.474,-0.054,-0.049,0.005,0.054,-0.029,-0.024,0.044,-0.005,-0.059,-0.029,-0.073,-0.068
2.476,-0.059,-0.049,0.01,0.054,-0.034,-0.02,0.039,-0.015,-0.059,-0.029,-0.078,-0.078
2.478,-0.059,-0.049,0.01,0.054,-0.034,-0.02,0.039,-0.015,-0.063,-0.034,-0.083,-0.083
2.48,-0.054,-0.054,0.0,0.054,-0.029,-0.029,0.034,-0.02,-0.063,-0.034,-0.083,-0.073
2.482,-0.063,-0.054,0.01,0.059,-0.039,-0.024,0.034,-0.02,-0.059,-0.034,-0.083,-0.073
2.484,-0.063,-0.054,0.01,0.059,-0.039,-0.024,0.039,-0.02,-0.059,-0.034,-0.073,-0.073
2.486,-0.063,-0.059,0.005,0.063,-0.034,-0.029,0.044,-0.015,-0.054,-0.029,-0.068,-0.068
2.488,-0.068,-0.068,0.0,0.068,-0.034,-0.034,0.044,-0.02,-0.063,-0.034,-0.073,-0.068
2.49,-0.068,-0.063,0.005,0.068,-0.039,-0.029,0.044,-0.015,-0.059,-0.029,-0.073,-0.073
2.492,-0.068,-0.063,0.005,0.068,-0.039,-0.029,0.049,-0.01,-0.059,-0.029,-0.073,-0.068
2.494,-0.068,-0.059,0.01,0.063,-0.039,-0.024,0.044,-0.015,-0.063,-0.039,-0.078,-0.073
2.496,-0.059,-0.044,0.015,0.054,-0.039,-0.015,0.044,-0.015,-0.063,-0.029,-0.073,-0.073
2.498,-0.063,-0.054,0.01,0.059,-0.039,-0.024,0.044,-0.02,-0.063,-0.039,-0.078,-0.078
2.5,-0.059,-0.054,0.005,0.059,-0.034,-0.024,0.039,-0.02,-0.059,-0.039,-0.073,-0.073
2.502,-0.063,-0.049,0.015,0.059,-0.039,-0.02,0.039,-0.02,-0.054,-0.034,-0.068,-0.068
2.504,-0.063,-0.059,0.005,0.063,-0.034,-0.029,0.039,-0.02,-0.054,-0.034,-0.063,-0.068
2.506,-0.063,-0.059,0.005,0.063,-0.034,-0.029,0.039,-0.02,-0.049,-0.039,-0.073,-0.068
2.508,-0.063,-0.063,0.0,0.063,-0.034,-0.034,0.039,-0.02,-0.059,-0.039,-0.073,-0.063
2.51,-0.068,-0.063,0.005,0.068,-0.039,-0.029,0.044,-0.015,-0.054,-0.039,-0.073,-0.068
2.512,-0.063,-0.059,0.005,0.063,-0.034,-0.029,0.044,-0.015,-0.059,-0.039,-0.078,-0.068
2.514,-0.068,-0.059,0.01,0.063,-0.039,-0.024,0.044,-0.01,-0.059,-0.044,-0.078,-0.068
2.516,-0.059,-0.049,0.01,0.054,-0.034,-0.02,0.044,-0.01,-0.054,-0.044,-0.073,-0.068
2.518,-0.059,-0.049,0.01,0.054,-0.034,-0.02,0.039,-0.01,-0.054,-0.039,-0.073,-0.073
2.52,-0.068,-0.054,0.015,0.063,-0.044,-0.02,0.039,-0.015,-0.054,-0.039,-0.078,-0.068
2.522,-0.063,-0.049,0.015,0.059,-0.039,-0.02,0.039,-0.02,-0.054,-0.039,-0.083,-0.063
2.524,-0.063,-0.054,0.01,0.059,-0.039,-0.024,0.034,-0.02,-0.054,-0.039,-0.083,-0.068
2.526,-0.063,-0.059,0.005,0.063,-0.034,-0.029,0.039,-0.015,-0.054,-0.039,-0.078,-0.063
2.528,-0.063,-0.059,0.005,0.063,-0.034,-0.029,0.039,-0.01,-0.054,-0.044,-0.073,-0.063
2.53,-0.073,-0.063,0.01,0.068,-0.044,-0.029,0.039,-0.015,-0.059,-0.049,-0.073,-0.078
2.532,-0.068,-0.059,0.01,0.063,-0.039,-0.024,0.044,-0.01,-0.063,-0.049,-0.068,-0.073
2.534,-0.068,-0.059,0.01,0.063,-0.039,-0.024,0.044,-0.005,-0.063,-0.044,-0.054,-0.068
2.536,-0.073,-0.063,0.01,0.068,-0.044,-0.029,0.044,-0.005,-0.063,-0.049,-0.054,-0.073
2.538,-0.068,-0.054,0.015,0.063,-0.044,-0.02,0.044,-0.005,-0.059,-0.044,-0.063,-0.073
2.54,-0.068,-0.054,0.015,0.063,-0.044,-0.02,0.044,-0.01,-0.054,-0.039,-0.054,-0.068
2.542,-0.059,-0.044,0.015,0.054,-0.039,-0.015,0.039,-0.015,-0.059,-0.044,-0.059,-0.063
2.544,-0.054,-0.044,0.01,0.049,-0.034,-0.02,0.039,-0.015,-0.059,-0.044,-0.063,-0.063
2.546,-0.059,-0.059,0.0,0.059,-0.029,-0.029,0.039,-0.02,-0.073,-0.049,-0.073,-0.068
2.548,-0.059,-0.059,0.0,0.059,-0.029,-0.029,0.039,-0.02,-0.068,-0.049,-0.068,-0.063
2.55,-0.063,-0.059,0.005,0.063,-0.034,-0.029,0.049,-0.01,-0.068,-0.044,-0.063,-0.063
2.552,-0.063,-0.063,0.0,0.063,-0.034,-0.034,0.049,-0.01,-0.063,-0.044,-0.068,-0.063
2.554,-0.059,-0.059,0.0,0.059,-0.029,-0.029,0.049,-0.01,-0.068,-0.049,-0.073,-0.063
2.556,-0.063,-0.059,0.005,0.063,-0.034,-0.029,0.049,-0.01,-0.063,-0.044,-0.073,-0.068
2.558,-0.059,-0.059,0.0,0.059,-0.029,-0.029,0.049,-0.015,-0.063,-0.044,-0.073,-0.068
2.56,-0.059,-0.049,0.01,0.054,-0.034,-0.02,0.054,-0.015,-0.059,-0.039,-0.073,-0.063
2.562,-0.059,-0.049,0.01,0.054,-0.034,-0.02,0.049,-0.015,-0.063,-0.039,-0.068,-0.063
2.564,-0.059,-0.049,0.01,0.054,-0.034,-0.02,0.059,-0.015,-0.059,-0.034,-0.068,-0.059
2.566,-0.054,-0.054,0.0,0.054,-0.029,-0.029,0.054,-0.02,-0.068,-0.039,-0.063,-0.059
2.568,-0.059,-0.054,0.005,0.059,-0.034,-0.024,0.059,-0.02,-0.063,-0.039,-0.063,-0.054
2.57,-0.054,-0.044,0.01,0.049,-0.034,-0.02,0.059,-0.01,-0.063,-0.039,-0.068,-0.059
2.572,-0.059,-0.054,0.005,0.059,-0.034,-0.024,0.059,-0.01,-0.063,-0.039,-0.073,-0.063
2.574,-0.059,-0.054,0.005,0.059,-0.034,-0.024,0.049,-0.015,-0.068,-0.044,-0.073,-0.063
2.576,-0.059,-0.059,0.0,0.059,-0.029,-0.029,0.049,-0.02,-0.063,-0.039,-0.073,-0.068
2.578,-0.068,-0.063,0.005,0.068,-0.039,-0.029,0.049,-0.02,-0.063,-0.044,-0.068,-0.068
2.58,-0.063,-0.054,0.01,0.059,-0.039,-0.024,0.044,-0.015,-0.068,-0.044,-0.068,-0.063
2.582,-0.059,-0.054,0.005,0.059,-0.034,-0.024,0.044,-0.029,-0.068,-0.044,-0.068,-0.063
2.584,-0.049,-0.049,0.0,0.049,-0.024,-0.024,0.049,-0.029,-0.068,-0.044,-0.068,-0.063
2.586,-0.049,-0.054,-0.005,0.054,-0.024,-0.029,0.054,-0.02,-0.068,-0.039,-0.068,-0.054
2.588,-0.059,-0.059,0.0,0.059,-0.029,-0.029,0.054,-0.024,-0.068,-0.044,-0.068,-0.054
2.59,-0.059,-0.059,0.0,0.059,-0.029,-0.029,0.049,-0.024,-0.068,-0.044,-0.068,-0.059
2.592,-0.049,-0.054,-0.005,0.054,-0.024,-0.029,0.059,-0.02,-0.068,-0.039,-0.073,-0.063
2.594,-0.063,-0.054,0.01,0.059,-0.039,-0.024,0.063,-0.01,-0.063,-0.039,-0.068,-0.059
2.596,-0.063,-0.054,0.01,0.059,-0.039,-0.024,0.059,-0.02,-0.063,-0.039,-0.073,-0.063
2.598,-0.063,-0.059,0.005,0.063,-0.034,-0.029,0.049,-0.024,-0.068,-0.044,-0.078,-0.068
2.6,-0.059,-0.059,0.0,0.059,-0.029,-0.029,0.049,-0.029,-0.063,-0.039,-0.078,-0.063
2.602,-0.063,-0.054,0.01,0.059,-0.039,-0.024,0.049,-0.02,-0.059,-0.039,-0.078,-0.059
2.604,-0.068,-0.054,0.015,0.063,-0.044,-0.02,0.049,-0.029,-0.063,-0.044,-0.083,-0.059
2.606,-0.068,-0.054,0.015,0.063,-0.044,-0.02,0.049,-0.024,-0.068,-0.049,-0.083,-0.059
2.608,-0.054,-0.054,0.0,0.054,-0.029,-0.029,0.049,-0.024,-0.068,-0.054,-0.083,-0.063
2.61,-0.059,-0.059,0.0,0.059,-0.029,-0.029,0.049,-0.02,-0.063,-0.049,-0.083,-0.063
2.612,-0.054,-0.059,-0.005,0.059,-0.024,-0.034,0.054,-0.024,-0.068,-0.054,-0.083,-0.068
2.614,-0.059,-0.059,0.0,0.059,-0.029,-0.029,0.054,-0.02,-0.063,-0.059,-0.078,-0.063
2.616,-0.054,-0.059,-0.005,0.059,-0.024,-0.034,0.049,-0.029,-0.073,-0.063,-0.093,-0.073
2.618,-0.059,-0.059,0.0,0.059,-0.029,-0.029,0.049,-0.02,-0.063,-0.054,-0.088,-0.068
2.62,-0.059,-0.059,0.0,0.059,-0.029,-0.029,0.044,-0.024,-0.068,-0.054,-0.093,-0.068
2.622,-0.059,-0.054,0.005,0.059,-0.034,-0.024,0.044,-0.034,-0.073,-0.054,-0.093,-0.063
2.624,-0.059,-0.054,0.005,0.059,-0.034,-0.024,0.044,-0.029,-0.068,-0.049,-0.088,-0.059
2.626,-0.059,-0.059,0.0,0.059,-0.029,-0.029,0.049,-0.024,-0.068,-0.049,-0.083,-0.054
2.628,-0.054,-0.054,0.0,0.054,-0.029,-0.029,0.049,-0.024,-0.068,-0.049,-0.083,-0.059
2.63,-0.059,-0.054,0.005,0.059,-0.034,-0.024,0.039,-0.024,-0.073,-0.054,-0.088,-0.063
2.632,-0.054,-0.059,-0.005,0.059,-0.024,-0.034,0.049,-0.024,-0.073,-0.054,-0.088,-0.063
2.634,-0.049,-0.049,0.0,0.049,-0.024,-0.024,0.049,-0.015,-0.073,-0.054,-0.088,-0.059
2.636,-0.054,-0.049,0.005,0.054,-0.029,-0.024,0.049,-0.015,-0.068,-0.049,-0.088,-0.063
2.638,-0.054,-0.044,0.01,0.049,-0.034,-0.02,0.044,-0.02,-0.073,-0.054,-0.093,-0.059
2.64,-0.044,-0.044,0.0,0.044,-0.024,-0.024,0.044,-0.015,-0.073,-0.049,-0.088,-0.054
2.642,-0.049,-0.044,0.005,0.049,-0.029,-0.02,0.039,-0.02,-0.073,-0.049,-0.088,-0.059
2.644,-0.049,-0.044,0.005,0.049,-0.029,-0.02,0.039,-0.024,-0.073,-0.044,-0.088,-0.059
2.646,-0.049,-0.049,0.0,0.049,-0.024,-0.024,0.039,-0.024,-0.083,-0.054,-0.088,-0.059
2.648,-0.049,-0.049,0.0,0.049,-0.024,-0.024,0.039,-0.024,-0.083,-0.054,-0.093,-0.068
2.65,-0.049,-0.049,0.0,0.049,-0.024,-0.024,0.044,-0.02,-0.083,-0.054,-0.093,-0.063
2.652,-0.049,-0.054,-0.005,0.054,-0.024,-0.029,0.044,-0.02,-0.078,-0.049,-0.098,-0.063
2.654,-0.044,-0.044,0.0,0.044,-0.024,-0.024,0.049,-0.015,-0.073,-0.054,-0.093,-0.059
2.656,-0.044,-0.044,0.0,0.044,-0.024,-0.024,0.049,-0.015,-0.078,-0.054,-0.098,-0.059
2.658,-0.049,-0.044,0.005,0.049,-0.029,-0.02,0.049,-0.01,-0.073,-0.049,-0.098,-0.063
2.66,-0.044,-0.034,0.01,0.039,-0.029,-0.015,0.049,-0.01,-0.073,-0.054,-0.098,-0.059
2.662,-0.049,-0.039,0.01,0.044,-0.029,-0.015,0.044,-0.02,-0.083,-0.059,-0.098,-0.059
2.664,-0.059,-0.044,0.015,0.054,-0.039,-0.015,0.044,-0.02,-0.083,-0.059,-0.107,-0.059
2.666,-0.059,-0.049,0.01,0.054,-0.034,-0.02,0.059,-0.015,-0.073,-0.059,-0.102,-0.049
2.668,-0.054,-0.054,0.0,0.054,-0.029,-0.029,0.049,-0.02,-0.088,-0.063,-0.102,-0.054
2.67,-0.049,-0.044,0.005,0.049,-0.029,-0.02,0.054,-0.015,-0.088,-0.063,-0.107,-0.054
2.672,-0.049,-0.049,0.0,0.049,-0.024,-0.024,0.059,-0.015,-0.083,-0.063,-0.107,-0.059
2.674,-0.054,-0.054,0.0,0.054,-0.029,-0.029,0.049,-0.02,-0.088,-0.073,-0.112,-0.063
2.676,-0.049,-0.044,0.005,0.049,-0.029,-0.02,0.044,-0.02,-0.093,-0.068,-0.112,-0.063
2.678,-0.049,-0.049,0.0,0.049,-0.024,-0.024,0.054,-0.02,-0.078,-0.068,-0.107,-0.063
2.68,-0.054,-0.044,0.01,0.049,-0.034,-0.02,0.049,-0.024,-0.078,-0.073,-0.112,-0.059
2.682,-0.054,-0.039,0.015,0.049,-0.034,-0.015,0.049,-0.029,-0.078,-0.073,-0.107,-0.054
2.684,-0.054,-0.044,0.01,0.049,-0.034,-0.02,0.054,-0.024,-0.078,-0.068,-0.102,-0.049
2.686,-0.049,-0.044,0.005,0.049,-0.029,-0.02,0.054,-0.029,-0.083,-0.078,-0.102,-0.049
2.688,-0.049,-0.049,0.0,0.049,-0.024,-0.024,0.054,-0.024,-0.083,-0.078,-0.102,-0.054
2.69,-0.044,-0.059,-0.015,0.054,-0.015,-0.039,0.059,-0.02,-0.083,-0.078,-0.098,-0.049
2.692,-0.039,-0.054,-0.015,0.049,-0.015,-0.034,0.063,-0.024,-0.083,-0.088,-0.107,-0.063
2.694,-0.044,-0.054,-0.01,0.049,-0.02,-0.034,0.059,-0.024,-0.083,-0.088,-0.107,-0.063
2.696,-0.049,-0.054,-0.005,0.054,-0.024,-0.029,0.059,-0.024,-0.078,-0.083,-0.112,-0.068
2.698,-0.039,-0.049,-0.01,0.044,-0.015,-0.029,0.059,-0.024,-0.083,-0.088,-0.112,-0.073
2.7,-0.039,-0.044,-0.005,0.044,-0.02,-0.024,0.054,-0.029,-0.078,-0.083,-0.117,-0.068
2.702,-0.024,-0.034,-0.01,0.029,-0.01,-0.024,0.054,-0.024,-0.078,-0.083,-0.112,-0.063
2.704,-0.024,-0.039,-0.015,0.034,-0.005,-0.029,0.054,-0.029,-0.083,-0.088,-0.117,-0.068
2.706,-0.039,-0.044,-0.005,0.044,-0.02,-0.024,0.059,-0.02,-0.083,-0.083,-0.112,-0.059
2.708,-0.039,-0.039,0.0,0.039,-0.02,-0.02,0.059,-0.02,-0.078,-0.083,-0.107,-0.063
2.71,-0.044,-0.044,0.0,0.044,-0.024,-0.024,0.059,-0.015,-0.078,-0.088,-0.117,-0.059
2.712,-0.049,-0.049,0.0,0.049,-0.024,-0.024,0.063,-0.01,-0.073,-0.083,-0.117,-0.059
2.714,-0.044,-0.044,0.0,0.044,-0.024,-0.024,0.059,-0.01,-0.078,-0.088,-0.117,-0.063
2.716,-0.049,-0.049,0.0,0.049,-0.024,-0.024,0.059,-0.015,-0.078,-0.083,-0.117,-0.063
2.718,-0.044,-0.049,-0.005,0.049,-0.02,-0.029,0.059,-0.015,-0.078,-0.083,-0.117,-0.059
2.72,-0.039,-0.039,0.0,0.039,-0.02,-0.02,0.059,-0.015,-0.073,-0.083,-0.112,-0.054
2.722,-0.034,-0.039,-0.005,0.039,-0.015,-0.024,0.054,-0.02,-0.073,-0.083,-0.112,-0.059
2.724,-0.039,-0.044,-0.005,0.044,-0.02,-0.024,0.059,-0.02,-0.068,-0.078,-0.117,-0.049
2.726,-0.039,-0.044,-0.005,0.044,-0.02,-0.024,0.059,-0.024,-0.078,-0.083,-0.117,-0.054
2.728,-0.034,-0.039,-0.005,0.039,-0.015,-0.024,0.059,-0.024,-0.078,-0.083,-0.112,-0.059
2.73,-0.034,-0.039,-0.005,0.039,-0.015,-0.024,0.059,-0.02,-0.078,-0.088,-0.112,-0.054
2.732,-0.034,-0.049,-0.015,0.044,-0.01,-0.034,0.059,-0.02,-0.078,-0.088,-0.117,-0.059
2.734,-0.024,-0.039,-0.015,0.034,-0.005,-0.029,0.049,-0.024,-0.083,-0.093,-0.117,-0.063
2.736,-0.034,-0.044,-0.01,0.039,-0.015,-0.029,0.054,-0.02,-0.083,-0.088,-0.122,-0.059
2.738,-0.034,-0.039,-0.005,0.039,-0.015,-0.024,0.049,-0.024,-0.078,-0.093,-0.122,-0.054
2.74,-0.034,-0.029,0.005,0.034,-0.02,-0.015,0.049,-0.024,-0.073,-0.088,-0.122,-0.049
2.742,-0.039,-0.034,0.005,0.039,-0.024,-0.015,0.049,-0.029,-0.078,-0.088,-0.127,-0.054
2.744,-0.039,-0.044,-0.005,0.044,-0.02,-0.024,0.054,-0.024,-0.073,-0.083,-0.127,-0.054
2.746,-0.029,-0.034,-0.005,0.034,-0.015,-0.02,0.054,-0.029,-0.078,-0.093,-0.127,-0.059
2.748,-0.029,-0.039,-0.01,0.034,-0.01,-0.024,0.054,-0.02,-0.073,-0.088,-0.122,-0.054
2.75,-0.024,-0.034,-0.01,0.029,-0.01,-0.024,0.054,-0.015,-0.083,-0.098,-0.122,-0.049
2.752,-0.034,-0.039,-0.005,0.039,-0.015,-0.024,0.054,-0.02,-0.078,-0.098,-0.127,-0.054
2.754,-0.034,-0.039,-0.005,0.039,-0.015,-0.024,0.054,-0.02,-0.083,-0.102,-0.132,-0.059
2.756,-0.029,-0.039,-0.01,0.034,-0.01,-0.024,0.054,-0.02,-0.078,-0.102,-0.132,-0.054
2.758,-0.039,-0.044,-0.005,0.044,-0.02,-0.024,0.054,-0.02,-0.078,-0.102,-0.132,-0.054
2.76,-0.034,-0.039,-0.005,0.039,-0.015,-0.024,0.054,-0.02,-0.073,-0.098,-0.127,-0.059
2.762,-0.034,-0.034,0.0,0.034,-0.02,-0.02,0.054,-0.02,-0.073,-0.098,-0.122,-0.054
2.764,-0.029,-0.039,-0.01,0.034,-0.01,-0.024,0.054,-0.029,-0.073,-0.098,-0.127,-0.054
2.766,-0.024,-0.034,-0.01,0.029,-0.01,-0.024,0.054,-0.029,-0.073,-0.102,-0.122,-0.054
2.768,-0.024,-0.039,-0.015,0.034,-0.005,-0.029,0.054,-0.024,-0.073,-0.102,-0.122,-0.054
2.77,-0.02,-0.039,-0.02,0.029,0.0,-0.029,0.059,-0.024,-0.068,-0.098,-0.122,-0.049
2.772,-0.02,-0.039,-0.02,0.029,0.0,-0.029,0.068,-0.02,-0.063,-0.098,-0.122,-0.049
2.774,-0.034,-0.044,-0.01,0.039,-0.015,-0.029,0.068,-0.015,-0.063,-0.102,-0.122,-0.049
2.776,-0.024,-0.034,-0.01,0.029,-0.01,-0.024,0.068,-0.015,-0.059,-0.098,-0.122,-0.044
2.778,-0.024,-0.029,-0.005,0.029,-0.01,-0.02,0.073,-0.015,-0.054,-0.093,-0.117,-0.039
2.78,-0.024,-0.024,0.0,0.024,-0.015,-0.015,0.068,-0.02,-0.059,-0.098,-0.122,-0.049
2.782,-0.01,-0.015,-0.005,0.015,-0.005,-0.01,0.068,-0.015,-0.054,-0.088,-0.117,-0.044
2.784,-0.015,-0.02,-0.005,0.02,-0.005,-0.015,0.068,-0.02,-0.049,-0.088,-0.122,-0.044
2.786,-0.02,-0.02,0.0,0.02,-0.01,-0.01,0.073,-0.015,-0.049,-0.088,-0.117,-0.044
2.788,-0.01,-0.02,-0.01,0.015,0.0,-0.015,0.073,-0.01,-0.044,-0.083,-0.117,-0.039
2.79,-0.01,-0.015,-0.005,0.015,-0.005,-0.01,0.078,0.0,-0.039,-0.083,-0.112,-0.039
2.792,0.0,-0.01,-0.01,0.005,0.005,-0.01,0.083,0.005,-0.034,-0.078,-0.112,-0.034
2.794,0.0,-0.015,-0.015,0.01,0.005,-0.015,0.083,0.005,-0.039,-0.083,-0.107,-0.039
2.796,0.01,-0.01,-0.02,0.0,0.015,-0.015,0.078,0.005,-0.039,-0.078,-0.112,-0.044
2.798,0.01,0.0,-0.01,-0.005,0.01,-0.005,0.083,0.01,-0.034,-0.078,-0.112,-0.039
2.8,0.015,0.0,-0.015,-0.005,0.015,-0.01,0.083,0.005,-0.034,-0.073,-0.112,-0.034
2.802,0.015,0.005,-0.01,-0.01,0.01,-0.005,0.078,0.005,-0.029,-0.073,-0.112,-0.034
2.804,0.02,0.005,-0.015,-0.01,0.015,-0.005,0.078,0.005,-0.029,-0.073,-0.117,-0.034
2.806,0.015,0.0,-0.015,-0.005,0.015,-0.01,0.088,0.01,-0.024,-0.078,-0.112,-0.039
2.808,0.02,0.02,0.0,-0.02,0.01,0.01,0.093,0.02,-0.024,-0.073,-0.107,-0.034
2.81,0.02,0.024,0.005,-0.02,0.005,0.015,0.107,0.029,-0.015,-0.068,-0.098,-0.02
2.812,0.015,0.015,0.0,-0.015,0.005,0.005,0.107,0.029,-0.015,-0.063,-0.098,-0.015
2.814,0.029,0.015,-0.015,-0.02,0.02,0.0,0.102,0.029,-0.02,-0.073,-0.102,-0.02
2.816,0.024,0.015,-0.01,-0.02,0.015,0.0,0.098,0.029,-0.01,-0.073,-0.102,-0.015
2.818,0.034,0.02,-0.015,-0.024,0.024,0.0,0.102,0.034,-0.01,-0.068,-0.102,-0.02
2.82,0.044,0.029,-0.015,-0.034,0.029,0.005,0.112,0.049,0.005,-0.054,-0.093,-0.01
2.822,0.039,0.034,-0.005,-0.034,0.02,0.015,0.117,0.059,0.015,-0.044,-0.083,0.0
2.824,0.044,0.039,-0.005,-0.039,0.024,0.015,0.117,0.059,0.015,-0.039,-0.078,0.005
2.826,0.044,0.039,-0.005,-0.039,0.024,0.015,0.112,0.049,0.01,-0.049,-0.078,0.01
2.828,0.044,0.039,-0.005,-0.039,0.024,0.015,0.112,0.049,0.005,-0.044,-0.078,0.015
2.83,0.049,0.044,-0.005,-0.044,0.024,0.02,0.117,0.054,0.01,-0.039,-0.073,0.015
2.832,0.049,0.039,-0.01,-0.044,0.029,0.015,0.107,0.049,0.005,-0.044,-0.083,0.015
2.834,0.049,0.039,-0.01,-0.044,0.029,0.015,0.098,0.039,-0.005,-0.049,-0.088,0.01
2.836,0.049,0.044,-0.005,-0.044,0.024,0.02,0.093,0.029,-0.005,-0.049,-0.088,0.01
2.838,0.054,0.039,-0.015,-0.044,0.034,0.01,0.083,0.02,-0.015,-0.054,-0.098,0.005
2.84,0.054,0.024,-0.029,-0.039,0.039,-0.005,0.073,0.01,-0.029,-0.059,-0.107,-0.005
2.842,0.044,0.0,-0.044,-0.02,0.044,-0.024,0.054,-0.01,-0.039,-0.073,-0.112,-0.015
2.844,0.049,-0.015,-0.063,-0.015,0.054,-0.039,0.044,-0.024,-0.049,-0.083,-0.132,-0.02
2.846,0.054,-0.024,-0.078,-0.015,0.063,-0.054,0.034,-0.034,-0.063,-0.093,-0.137,-0.029
2.848,0.044,-0.034,-0.078,-0.005,0.059,-0.059,0.024,-0.039,-0.073,-0.098,-0.137,-0.029
2.85,0.044,-0.034,-0.078,-0.005,0.059,-0.059,0.024,-0.044,-0.078,-0.098,-0.142,-0.029
2.852,0.044,-0.044,-0.088,0.0,0.063,-0.068,0.034,-0.034,-0.068,-0.088,-0.137,-0.024
2.854,0.039,-0.044,-0.083,0.005,0.059,-0.063,0.034,-0.039,-0.073,-0.098,-0.142,-0.029
2.856,0.044,-0.039,-0.083,0.0,0.063,-0.063,0.044,-0.034,-0.068,-0.093,-0.132,-0.024
2.858,0.044,-0.039,-0.083,0.0,0.063,-0.063,0.034,-0.039,-0.063,-0.088,-0.142,-0.024
2.86,0.039,-0.034,-0.073,0.0,0.054,-0.054,0.034,-0.044,-0.068,-0.093,-0.137,-0.02
2.862,0.039,-0.029,-0.068,-0.005,0.054,-0.049,0.034,-0.044,-0.073,-0.093,-0.142,-0.029
2.864,0.024,-0.039,-0.063,0.01,0.044,-0.054,0.034,-0.044,-0.073,-0.093,-0.146,-0.029
2.866,0.015,-0.039,-0.054,0.015,0.034,-0.049,0.039,-0.044,-0.073,-0.093,-0.146,-0.029
2.868,-0.01,-0.039,-0.029,0.024,0.01,-0.034,0.049,-0.039,-0.078,-0.098,-0.151,-0.039
2.87,-0.029,-0.054,-0.024,0.044,-0.005,-0.039,0.054,-0.034,-0.073,-0.098,-0.166,-0.044
2.872,-0.029,-0.059,-0.029,0.044,0.0,-0.044,0.054,-0.039,-0.083,-0.102,-0.171,-0.044
2.874,-0.034,-0.063,-0.029,0.049,-0.005,-0.049,0.054,-0.039,-0.088,-0.112,-0.176,-0.049
2.876,-0.039,-0.073,-0.034,0.059,-0.005,-0.054,0.049,-0.034,-0.088,-0.122,-0.181,-0.054
2.878,-0.039,-0.073,-0.034,0.059,-0.005,-0.054,0.039,-0.039,-0.083,-0.117,-0.176,-0.054
2.88,-0.039,-0.068,-0.029,0.054,-0.005,-0.049,0.039,-0.049,-0.088,-0.127,-0.181,-0.054
2.882,-0.034,-0.068,-0.034,0.054,0.0,-0.054,0.044,-0.039,-0.083,-0.117,-0.171,-0.049
2.884,-0.039,-0.063,-0.024,0.054,-0.01,-0.044,0.044,-0.039,-0.078,-0.117,-0.171,-0.049
2.886,-0.039,-0.068,-0.029,0.054,-0.005,-0.049,0.044,-0.044,-0.093,-0.122,-0.176,-0.059
2.888,-0.024,-0.063,-0.039,0.044,0.005,-0.054,0.044,-0.044,-0.088,-0.117,-0.171,-0.049
2.89,-0.029,-0.063,-0.034,0.049,0.0,-0.049,0.039,-0.044,-0.088,-0.122,-0.176,-0.044
2.892,-0.034,-0.063,-0.029,0.049,-0.005,-0.049,0.039,-0.049,-0.093,-0.122,-0.181,-0.054
2.894,-0.034,-0.063,-0.029,0.049,-0.005,-0.049,0.039,-0.044,-0.093,-0.117,-0.176,-0.049
2.896,-0.039,-0.063,-0.024,0.054,-0.01,-0.044,0.039,-0.039,-0.093,-0.117,-0.176,-0.054
2.898,-0.039,-0.054,-0.015,0.049,-0.015,-0.034,0.039,-0.044,-0.088,-0.117,-0.181,-0.049
2.9,-0.034,-0.059,-0.024,0.049,-0.005,-0.044,0.039,-0.044,-0.088,-0.117,-0.181,-0.049
2.902,-0.039,-0.063,-0.024,0.054,-0.01,-0.044,0.039,-0.039,-0.083,-0.117,-0.181,-0.049
2.904,-0.034,-0.054,-0.02,0.044,-0.01,-0.039,0.039,-0.034,-0.083,-0.117,-0.181,-0.044
