time,I,II,III,aVR,aVL,aVF,V1,V2,V3,V4,V5,V6
0.0,-0.01,0.098,0.107,-0.044,-0.059,0.102,-0.083,0.01,-0.01,-0.005,-0.01,-0.02
0.002,-0.005,0.102,0.107,-0.049,-0.059,0.102,-0.083,0.01,-0.01,-0.005,-0.02,-0.024
0.004,0.0,0.112,0.112,-0.054,-0.059,0.112,-0.088,0.005,-0.02,-0.015,-0.024,-0.029
0.006,0.01,0.122,0.112,-0.063,-0.054,0.117,-0.088,0.01,-0.02,-0.015,-0.02,-0.024
0.008,0.005,0.112,0.107,-0.059,-0.054,0.107,-0.088,0.005,-0.015,-0.015,-0.015,-0.029
0.01,0.0,0.107,0.107,-0.054,-0.054,0.107,-0.083,0.005,-0.015,-0.005,-0.01,-0.02
0.012,-0.005,0.098,0.102,-0.044,-0.054,0.098,-0.083,0.005,-0.02,-0.005,-0.01,-0.024
0.014,0.0,0.083,0.083,-0.039,-0.044,0.083,-0.083,0.015,-0.01,0.0,-0.005,-0.02
0.016,0.005,0.088,0.083,-0.044,-0.039,0.083,-0.078,0.015,-0.01,0.0,-0.005,-0.02
0.018,-0.01,0.083,0.093,-0.034,-0.054,0.088,-0.078,0.01,-0.01,0.0,-0.005,-0.015
0.02,-0.01,0.088,0.098,-0.039,-0.054,0.093,-0.083,0.005,-0.015,-0.005,-0.015,-0.02
0.022,-0.005,0.098,0.102,-0.044,-0.054,0.098,-0.083,0.005,-0.02,-0.005,-0.015,-0.02
0.024,-0.015,0.093,0.107,-0.039,-0.063,0.098,-0.083,0.0,-0.02,-0.01,-0.02,-0.034
0.026,0.0,0.107,0.107,-0.054,-0.054,0.107,-0.088,0.005,-0.015,-0.005,-0.015,-0.024
0.028,0.005,0.112,0.107,-0.059,-0.054,0.107,-0.088,0.0,-0.015,-0.005,-0.015,-0.02
0.03,0.0,0.093,0.093,-0.044,-0.049,0.093,-0.083,0.0,-0.015,-0.005,-0.015,-0.02
0.032,0.005,0.107,0.102,-0.054,-0.049,0.102,-0.078,0.005,-0.02,-0.01,-0.015,-0.02
0.034,0.005,0.107,0.102,-0.054,-0.049,0.102,-0.083,0.0,-0.02,-0.01,-0.02,-0.02
0.036,0.0,0.102,0.102,-0.049,-0.054,0.102,-0.078,0.01,-0.02,-0.015,-0.015,-0.02
0.038,-0.005,0.107,0.112,-0.049,-0.059,0.107,-0.078,0.005,-0.02,-0.01,-0.015,-0.02
0.04,-0.005,0.098,0.102,-0.044,-0.054,0.098,-0.083,0.0,-0.02,-0.015,-0.02,-0.015
0.042,-0.005,0.098,0.102,-0.044,-0.054,0.098,-0.083,0.005,-0.015,-0.015,-0.015,-0.02
0.044,0.0,0.107,0.107,-0.054,-0.054,0.107,-0.088,0.005,-0.02,-0.01,-0.015,-0.02
0.046,0.005,0.107,0.102,-0.054,-0.049,0.102,-0.093,-0.005,-0.02,-0.01,-0.01,-0.015
0.048,0.01,0.117,0.107,-0.063,-0.049,0.112,-0.093,-0.005,-0.02,-0.01,-0.005,-0.015
0.05,0.0,0.102,0.102,-0.049,-0.054,0.102,-0.083,0.0,-0.015,0.005,0.005,-0.005
0.052,0.005,0.102,0.098,-0.054,-0.049,0.098,-0.078,-0.005,-0.015,0.0,0.01,0.0
0.054,0.015,0.117,0.102,-0.063,-0.044,0.107,-0.078,-0.005,-0.01,0.0,0.01,-0.005
0.056,0.005,0.107,0.102,-0.054,-0.049,0.102,-0.078,-0.01,-0.02,-0.01,-0.005,-0.02
0.058,-0.005,0.112,0.117,-0.054,-0.063,0.112,-0.078,-0.005,-0.02,-0.005,-0.005,-0.01
0.06,0.0,0.112,0.112,-0.054,-0.059,0.112,-0.088,-0.015,-0.024,-0.024,-0.02,-0.029
0.062,-0.005,0.098,0.102,-0.044,-0.054,0.098,-0.078,-0.015,-0.02,-0.02,-0.02,-0.024
0.064,0.005,0.112,0.107,-0.059,-0.054,0.107,-0.093,-0.02,-0.029,-0.02,-0.024,-0.024
0.066,-0.005,0.098,0.102,-0.044,-0.054,0.098,-0.093,-0.015,-0.024,-0.015,-0.02,-0.024
0.068,-0.01,0.083,0.093,-0.034,-0.054,0.088,-0.093,-0.02,-0.024,-0.015,-0.015,-0.024
0.07,-0.01,0.078,0.088,-0.034,-0.049,0.083,-0.088,-0.015,-0.024,-0.01,-0.01,-0.02
0.072,-0.01,0.083,0.093,-0.034,-0.054,0.088,-0.088,-0.01,-0.024,-0.01,-0.005,-0.02
0.074,-0.005,0.088,0.093,-0.039,-0.049,0.088,-0.078,-0.01,-0.015,-0.01,0.0,-0.015
0.076,-0.005,0.088,0.093,-0.039,-0.049,0.088,-0.083,-0.015,-0.024,-0.015,-0.01,-0.015
0.078,-0.005,0.088,0.093,-0.039,-0.049,0.088,-0.083,-0.015,-0.029,-0.015,-0.01,-0.015
0.08,0.0,0.093,0.093,-0.044,-0.049,0.093,-0.083,-0.015,-0.02,-0.015,-0.015,-0.02
0.082,-0.01,0.088,0.098,-0.039,-0.054,0.093,-0.088,-0.015,-0.024,-0.024,-0.024,-0.029
0.084,-0.005,0.093,0.098,-0.044,-0.054,0.093,-0.093,-0.02,-0.034,-0.029,-0.024,-0.034
0.086,-0.005,0.098,0.102,-0.044,-0.054,0.098,-0.093,-0.015,-0.029,-0.024,-0.02,-0.034
0.088,-0.01,0.078,0.088,-0.034,-0.049,0.083,-0.088,-0.015,-0.024,-0.024,-0.02,-0.034
0.09,-0.01,0.078,0.088,-0.034,-0.049,0.083,-0.083,-0.01,-0.02,-0.01,-0.01,-0.029
0.092,-0.01,0.078,0.088,-0.034,-0.049,0.083,-0.078,-0.01,-0.024,-0.005,-0.005,-0.024
0.094,-0.015,0.073,0.088,-0.029,-0.054,0.078,-0.078,-0.01,-0.015,0.0,0.0,-0.015
0.096,-0.005,0.088,0.093,-0.039,-0.049,0.088,-0.073,-0.005,-0.015,0.0,0.0,-0.01
0.098,-0.01,0.083,0.093,-0.034,-0.054,0.088,-0.078,-0.015,-0.024,-0.005,-0.01,-0.015
0.1,0.0,0.083,0.083,-0.039,-0.044,0.083,-0.078,-0.01,-0.02,-0.01,-0.01,-0.01
0.102,0.0,0.102,0.102,-0.049,-0.054,0.102,-0.088,-0.02,-0.024,-0.02,-0.02,-0.01
0.104,0.0,0.102,0.102,-0.049,-0.054,0.102,-0.088,-0.02,-0.034,-0.02,-0.024,-0.015
0.106,0.005,0.102,0.098,-0.054,-0.049,0.098,-0.088,-0.02,-0.024,-0.02,-0.02,-0.02
0.108,-0.01,0.088,0.098,-0.039,-0.054,0.093,-0.093,-0.015,-0.024,-0.01,-0.02,-0.024
0.11,-0.01,0.078,0.088,-0.034,-0.049,0.083,-0.083,-0.01,-0.02,-0.005,-0.01,-0.015
0.112,-0.005,0.083,0.088,-0.039,-0.049,0.083,-0.073,-0.01,-0.015,0.0,-0.005,-0.01
0.114,-0.01,0.078,0.088,-0.034,-0.049,0.083,-0.068,-0.01,-0.015,0.0,0.0,-0.015
0.116,0.005,0.093,0.088,-0.049,-0.044,0.088,-0.073,-0.01,-0.02,-0.005,-0.01,-0.01
0.118,0.0,0.093,0.093,-0.044,-0.049,0.093,-0.078,-0.02,-0.029,-0.02,-0.015,-0.024
0.12,-0.005,0.078,0.083,-0.034,-0.044,0.078,-0.083,-0.024,-0.029,-0.02,-0.02,-0.02
0.122,0.005,0.088,0.083,-0.044,-0.039,0.083,-0.088,-0.02,-0.034,-0.02,-0.02,-0.01
0.124,0.005,0.098,0.093,-0.049,-0.044,0.093,-0.093,-0.02,-0.034,-0.02,-0.024,-0.02
0.126,0.005,0.093,0.088,-0.049,-0.044,0.088,-0.088,-0.02,-0.024,-0.01,-0.02,-0.024
0.128,0.005,0.093,0.088,-0.049,-0.044,0.088,-0.088,-0.015,-0.02,-0.01,-0.02,-0.029
0.13,0.0,0.078,0.078,-0.039,-0.039,0.078,-0.088,-0.024,-0.024,-0.005,-0.02,-0.02
0.132,-0.005,0.078,0.083,-0.034,-0.044,0.078,-0.083,-0.02,-0.024,-0.005,-0.02,-0.015
0.134,0.0,0.078,0.078,-0.039,-0.039,0.078,-0.078,-0.024,-0.024,0.0,-0.005,-0.015
0.136,-0.005,0.063,0.068,-0.029,-0.039,0.063,-0.078,-0.024,-0.024,-0.005,-0.005,-0.01
0.138,-0.01,0.059,0.068,-0.024,-0.039,0.063,-0.068,-0.015,-0.02,0.0,0.0,0.0
0.14,-0.005,0.059,0.063,-0.024,-0.034,0.059,-0.073,-0.015,-0.02,-0.01,-0.005,0.0
0.142,0.0,0.063,0.063,-0.029,-0.034,0.063,-0.073,-0.02,-0.024,-0.01,-0.005,0.0
0.144,0.005,0.083,0.078,-0.044,-0.039,0.078,-0.073,-0.015,-0.02,-0.005,-0.005,0.005
0.146,-0.005,0.078,0.083,-0.034,-0.044,0.078,-0.078,-0.02,-0.02,-0.005,-0.005,-0.005
0.148,-0.005,0.078,0.083,-0.034,-0.044,0.078,-0.078,-0.024,-0.02,-0.005,-0.01,-0.01
0.15,0.0,0.073,0.073,-0.034,-0.039,0.073,-0.083,-0.024,-0.024,-0.01,-0.02,-0.015
0.152,0.0,0.063,0.063,-0.029,-0.034,0.063,-0.083,-0.024,-0.029,-0.01,-0.02,-0.02
0.154,0.0,0.068,0.068,-0.034,-0.034,0.068,-0.073,-0.024,-0.02,-0.005,-0.01,-0.01
0.156,-0.01,0.063,0.073,-0.024,-0.044,0.068,-0.078,-0.024,-0.02,-0.005,-0.005,-0.01
0.158,-0.01,0.049,0.059,-0.02,-0.034,0.054,-0.073,-0.015,-0.02,0.005,0.0,-0.005
0.16,-0.005,0.054,0.059,-0.024,-0.034,0.054,-0.073,-0.02,-0.015,0.0,0.0,-0.005
0.162,-0.005,0.054,0.059,-0.024,-0.034,0.054,-0.073,-0.02,-0.02,0.0,-0.005,0.0
0.164,0.0,0.068,0.068,-0.034,-0.034,0.068,-0.078,-0.02,-0.02,0.0,0.0,-0.005
0.166,0.0,0.073,0.073,-0.034,-0.039,0.073,-0.078,-0.024,-0.015,0.005,0.005,0.0
0.168,0.0,0.068,0.068,-0.034,-0.034,0.068,-0.083,-0.029,-0.024,-0.005,0.0,-0.01
0.17,0.0,0.068,0.068,-0.034,-0.034,0.068,-0.073,-0.024,-0.024,-0.005,0.0,-0.005
0.172,0.0,0.088,0.088,-0.044,-0.044,0.088,-0.073,-0.024,-0.024,-0.005,0.0,-0.01
0.174,0.0,0.078,0.078,-0.039,-0.039,0.078,-0.073,-0.024,-0.024,-0.005,-0.005,-0.015
0.176,0.0,0.068,0.068,-0.034,-0.034,0.068,-0.073,-0.024,-0.02,-0.005,-0.005,-0.015
0.178,-0.01,0.054,0.063,-0.02,-0.039,0.059,-0.068,-0.024,-0.02,-0.005,0.0,-0.015
0.18,0.0,0.059,0.059,-0.029,-0.029,0.059,-0.068,-0.02,-0.015,0.0,-0.005,-0.015
0.182,-0.005,0.049,0.054,-0.02,-0.029,0.049,-0.068,-0.02,-0.015,0.0,-0.005,-0.015
0.184,-0.005,0.054,0.059,-0.024,-0.034,0.054,-0.078,-0.024,-0.024,0.0,-0.005,-0.01
0.186,0.005,0.073,0.068,-0.039,-0.034,0.068,-0.078,-0.024,-0.02,0.0,0.0,-0.005
0.188,0.0,0.068,0.068,-0.034,-0.034,0.068,-0.083,-0.029,-0.024,-0.01,-0.01,-0.005
0.19,0.0,0.068,0.068,-0.034,-0.034,0.068,-0.073,-0.029,-0.024,-0.005,-0.005,-0.01
0.192,0.01,0.083,0.073,-0.044,-0.034,0.078,-0.073,-0.029,-0.029,-0.01,-0.01,-0.015
0.194,0.005,0.078,0.073,-0.039,-0.034,0.073,-0.073,-0.034,-0.024,-0.01,-0.01,-0.015
0.196,0.005,0.068,0.063,-0.034,-0.029,0.063,-0.063,-0.024,-0.02,-0.005,-0.005,-0.01
0.198,-0.005,0.059,0.063,-0.024,-0.034,0.059,-0.063,-0.024,-0.024,0.0,-0.005,0.0
0.2,0.0,0.049,0.049,-0.024,-0.024,0.049,-0.068,-0.024,-0.024,-0.005,-0.005,-0.01
0.202,0.0,0.054,0.054,-0.024,-0.029,0.054,-0.063,-0.02,-0.015,-0.005,0.005,-0.005
0.204,-0.01,0.044,0.054,-0.015,-0.034,0.049,-0.073,-0.029,-0.024,-0.01,-0.01,-0.015
0.206,-0.02,0.034,0.054,-0.005,-0.039,0.044,-0.068,-0.029,-0.02,0.0,-0.005,-0.01
0.208,-0.005,0.044,0.049,-0.02,-0.029,0.044,-0.073,-0.034,-0.02,-0.005,-0.005,-0.01
0.21,-0.01,0.039,0.049,-0.015,-0.029,0.044,-0.068,-0.029,-0.02,0.005,0.0,-0.005
0.212,0.005,0.059,0.054,-0.029,-0.024,0.054,-0.068,-0.029,-0.02,0.0,0.0,0.0
0.214,0.005,0.063,0.059,-0.034,-0.029,0.059,-0.063,-0.034,-0.02,0.0,0.005,0.0
0.216,-0.005,0.044,0.049,-0.02,-0.029,0.044,-0.059,-0.029,-0.024,0.005,0.005,0.005
0.218,-0.01,0.044,0.054,-0.015,-0.034,0.049,-0.059,-0.034,-0.029,0.0,0.005,0.01
0.22,-0.01,0.029,0.039,-0.01,-0.024,0.034,-0.059,-0.034,-0.024,0.005,0.0,0.005
0.222,-0.005,0.024,0.029,-0.01,-0.02,0.024,-0.059,-0.029,-0.015,0.005,0.01,0.015
0.224,-0.005,0.034,0.039,-0.015,-0.024,0.034,-0.063,-0.029,-0.024,-0.005,0.0,0.01
0.226,-0.02,0.029,0.049,-0.005,-0.034,0.039,-0.068,-0.029,-0.024,0.005,0.005,0.01
0.228,-0.01,0.034,0.044,-0.01,-0.029,0.039,-0.073,-0.029,-0.02,0.005,0.005,0.01
0.23,-0.01,0.039,0.049,-0.015,-0.029,0.044,-0.068,-0.034,-0.024,0.005,0.005,0.005
0.232,-0.005,0.044,0.049,-0.02,-0.029,0.044,-0.068,-0.029,-0.024,0.015,0.0,-0.005
0.234,-0.005,0.059,0.063,-0.024,-0.034,0.059,-0.059,-0.029,-0.024,0.01,0.01,-0.01
0.236,-0.005,0.044,0.049,-0.02,-0.029,0.044,-0.059,-0.024,-0.024,0.0,0.0,-0.005
0.238,0.005,0.044,0.039,-0.024,-0.02,0.039,-0.054,-0.02,-0.02,0.005,0.005,0.01
0.24,0.01,0.059,0.049,-0.034,-0.02,0.054,-0.049,-0.029,-0.015,0.005,0.0,0.01
0.242,0.005,0.059,0.054,-0.029,-0.024,0.054,-0.044,-0.02,-0.015,0.01,0.005,0.01
0.244,0.01,0.063,0.054,-0.034,-0.024,0.059,-0.054,-0.024,-0.015,0.005,0.005,0.02
0.246,0.0,0.059,0.059,-0.029,-0.029,0.059,-0.054,-0.024,-0.015,0.01,0.01,0.02
0.248,0.0,0.054,0.054,-0.024,-0.029,0.054,-0.049,-0.02,-0.015,0.02,0.01,0.015
0.25,0.01,0.063,0.054,-0.034,-0.024,0.059,-0.039,-0.005,0.005,0.024,0.02,0.024
0.252,0.005,0.068,0.063,-0.034,-0.029,0.063,-0.039,-0.01,0.0,0.034,0.02,0.02
0.254,0.015,0.083,0.068,-0.049,-0.029,0.073,-0.034,-0.01,0.01,0.039,0.029,0.034
0.256,0.02,0.088,0.068,-0.054,-0.024,0.078,-0.024,0.0,0.015,0.044,0.034,0.039
0.258,0.02,0.078,0.059,-0.049,-0.02,0.068,-0.024,0.0,0.02,0.044,0.034,0.034
0.26,0.024,0.093,0.068,-0.059,-0.024,0.078,-0.02,0.01,0.024,0.044,0.034,0.039
0.262,0.029,0.102,0.073,-0.063,-0.024,0.088,-0.024,0.0,0.024,0.044,0.034,0.039
0.264,0.029,0.102,0.073,-0.063,-0.024,0.088,-0.029,0.0,0.024,0.039,0.034,0.034
0.266,0.015,0.098,0.083,-0.054,-0.034,0.088,-0.024,0.0,0.024,0.039,0.039,0.029
0.268,0.015,0.083,0.068,-0.049,-0.029,0.073,-0.034,0.0,0.015,0.039,0.034,0.024
0.27,0.02,0.078,0.059,-0.049,-0.02,0.068,-0.029,0.0,0.024,0.044,0.044,0.034
0.272,0.02,0.083,0.063,-0.049,-0.024,0.073,-0.039,-0.005,0.024,0.049,0.044,0.039
0.274,0.02,0.073,0.054,-0.044,-0.02,0.063,-0.039,-0.01,0.024,0.049,0.039,0.034
0.276,0.02,0.073,0.054,-0.044,-0.02,0.063,-0.039,-0.015,0.029,0.059,0.049,0.039
0.278,0.024,0.078,0.054,-0.049,-0.015,0.063,-0.039,-0.02,0.024,0.054,0.049,0.044
0.28,0.024,0.078,0.054,-0.049,-0.015,0.063,-0.049,-0.02,0.02,0.054,0.049,0.049
0.282,0.034,0.102,0.068,-0.068,-0.02,0.083,-0.059,-0.034,0.02,0.054,0.044,0.049
0.284,0.029,0.102,0.073,-0.063,-0.024,0.088,-0.063,-0.034,0.02,0.054,0.039,0.044
0.286,0.039,0.112,0.073,-0.073,-0.02,0.093,-0.063,-0.029,0.034,0.063,0.049,0.049
0.288,0.034,0.112,0.078,-0.073,-0.024,0.093,-0.063,-0.029,0.034,0.068,0.049,0.049
0.29,0.039,0.098,0.059,-0.068,-0.01,0.078,-0.059,-0.02,0.044,0.073,0.063,0.063
0.292,0.039,0.112,0.073,-0.073,-0.02,0.093,-0.059,-0.024,0.049,0.073,0.073,0.073
0.294,0.044,0.112,0.068,-0.078,-0.015,0.088,-0.063,-0.034,0.039,0.073,0.073,0.083
0.296,0.039,0.102,0.063,-0.068,-0.015,0.083,-0.068,-0.034,0.039,0.078,0.078,0.083
0.298,0.049,0.107,0.059,-0.078,-0.005,0.083,-0.068,-0.039,0.039,0.073,0.083,0.088
0.3,0.049,0.102,0.054,-0.073,-0.005,0.078,-0.078,-0.049,0.034,0.068,0.073,0.088
0.302,0.063,0.102,0.039,-0.083,0.01,0.068,-0.083,-0.049,0.029,0.063,0.068,0.078
0.304,0.059,0.098,0.039,-0.078,0.01,0.068,-0.088,-0.049,0.024,0.059,0.063,0.078
0.306,0.059,0.088,0.029,-0.073,0.015,0.059,-0.088,-0.054,0.02,0.054,0.059,0.073
0.308,0.063,0.088,0.024,-0.073,0.02,0.054,-0.088,-0.049,0.02,0.054,0.049,0.059
0.31,0.059,0.083,0.024,-0.068,0.015,0.054,-0.078,-0.054,0.015,0.054,0.049,0.063
0.312,0.049,0.073,0.024,-0.059,0.01,0.049,-0.073,-0.049,0.01,0.044,0.044,0.059
0.314,0.049,0.073,0.024,-0.059,0.01,0.049,-0.073,-0.054,0.005,0.039,0.039,0.049
0.316,0.039,0.054,0.015,-0.044,0.01,0.034,-0.068,-0.054,0.01,0.039,0.039,0.054
0.318,0.044,0.049,0.005,-0.044,0.02,0.024,-0.068,-0.059,0.015,0.039,0.044,0.059
0.32,0.039,0.049,0.01,-0.044,0.015,0.029,-0.068,-0.054,0.015,0.049,0.044,0.054
0.322,0.039,0.054,0.015,-0.044,0.01,0.034,-0.073,-0.054,0.015,0.044,0.044,0.059
0.324,0.049,0.073,0.024,-0.059,0.01,0.049,-0.078,-0.059,0.01,0.044,0.039,0.049
0.326,0.049,0.068,0.02,-0.059,0.015,0.044,-0.078,-0.059,0.01,0.044,0.044,0.059
0.328,0.049,0.073,0.024,-0.059,0.01,0.049,-0.083,-0.063,0.01,0.044,0.044,0.063
0.33,0.044,0.073,0.029,-0.059,0.005,0.049,-0.068,-0.063,0.005,0.049,0.049,0.063
0.332,0.024,0.049,0.024,-0.034,0.0,0.034,-0.063,-0.068,0.0,0.034,0.039,0.059
0.334,0.029,0.044,0.015,-0.034,0.005,0.029,-0.063,-0.078,-0.01,0.024,0.029,0.054
0.336,0.015,0.029,0.015,-0.02,0.0,0.02,-0.054,-0.068,-0.01,0.024,0.02,0.044
0.338,0.0,0.01,0.01,-0.005,-0.005,0.01,-0.049,-0.068,-0.01,0.024,0.024,0.044
0.34,0.005,0.024,0.02,-0.015,-0.01,0.02,-0.044,-0.068,-0.01,0.02,0.02,0.034
0.342,0.0,0.02,0.02,-0.01,-0.01,0.02,-0.054,-0.078,-0.02,0.01,0.005,0.02
0.344,0.0,0.005,0.005,0.0,-0.005,0.005,-0.054,-0.083,-0.02,0.01,0.005,0.015
0.346,0.0,0.01,0.01,-0.005,-0.005,0.01,-0.054,-0.083,-0.02,0.015,0.01,0.02
0.348,-0.005,0.0,0.005,0.005,-0.005,0.0,-0.054,-0.083,-0.02,0.01,0.005,0.02
0.35,0.0,-0.005,-0.005,0.005,0.0,-0.005,-0.044,-0.078,-0.01,0.02,0.015,0.029
0.352,0.0,0.0,0.0,0.0,0.0,0.0,-0.039,-0.078,-0.015,0.015,0.015,0.039
0.354,-0.005,-0.01,-0.005,0.01,0.0,-0.01,-0.034,-0.078,-0.015,0.01,0.01,0.034
0.356,-0.01,-0.02,-0.01,0.015,0.0,-0.015,-0.029,-0.078,-0.02,0.01,0.015,0.039
0.358,-0.02,-0.029,-0.01,0.024,-0.005,-0.02,-0.034,-0.078,-0.02,0.005,0.01,0.039
0.36,-0.005,-0.02,-0.015,0.015,0.005,-0.02,-0.044,-0.088,-0.024,-0.01,0.0,0.029
0.362,-0.01,-0.015,-0.005,0.015,-0.005,-0.01,-0.044,-0.088,-0.034,-0.005,0.0,0.02
0.364,-0.015,-0.024,-0.01,0.02,-0.005,-0.02,-0.044,-0.083,-0.029,-0.005,0.0,0.024
0.366,-0.01,-0.024,-0.015,0.02,0.0,-0.02,-0.044,-0.088,-0.024,0.0,0.005,0.02
0.368,-0.005,-0.024,-0.02,0.015,0.005,-0.024,-0.044,-0.093,-0.024,0.0,0.01,0.015
0.37,-0.01,-0.029,-0.02,0.02,0.005,-0.024,-0.029,-0.088,-0.02,0.01,0.02,0.024
0.372,0.0,-0.02,-0.02,0.01,0.01,-0.02,-0.024,-0.083,-0.02,0.0,0.01,0.024
0.374,-0.01,-0.024,-0.015,0.02,0.0,-0.02,-0.02,-0.083,-0.02,0.01,0.01,0.029
0.376,-0.005,-0.024,-0.02,0.015,0.005,-0.024,-0.02,-0.078,-0.015,0.01,0.015,0.024
0.378,-0.005,-0.01,-0.005,0.01,0.0,-0.01,-0.02,-0.078,-0.02,0.01,0.02,0.029
0.38,-0.005,-0.01,-0.005,0.01,0.0,-0.01,-0.024,-0.088,-0.02,0.0,0.01,0.02
0.382,-0.005,-0.01,-0.005,0.01,0.0,-0.01,-0.024,-0.088,-0.02,0.0,0.01,0.015
0.384,-0.015,-0.015,0.0,0.015,-0.01,-0.01,-0.029,-0.088,-0.024,-0.005,0.005,0.015
0.386,-0.02,-0.024,-0.005,0.024,-0.01,-0.015,-0.029,-0.088,-0.024,-0.005,0.0,0.01
0.388,-0.015,-0.024,-0.01,0.02,-0.005,-0.02,-0.02,-0.088,-0.024,0.0,0.005,0.02
0.39,-0.015,-0.034,-0.02,0.024,0.0,-0.029,-0.02,-0.088,-0.029,0.005,0.01,0.02
0.392,-0.005,-0.024,-0.02,0.015,0.005,-0.024,-0.015,-0.078,-0.024,0.005,0.01,0.02
0.394,-0.015,-0.02,-0.005,0.02,-0.005,-0.015,-0.01,-0.083,-0.029,0.01,0.01,0.015
0.396,-0.01,-0.029,-0.02,0.02,0.005,-0.024,-0.01,-0.083,-0.024,0.005,0.01,0.02
0.398,-0.01,-0.02,-0.01,0.015,0.0,-0.015,-0.005,-0.088,-0.024,0.01,0.015,0.02
0.4,-0.005,-0.005,0.0,0.005,-0.005,-0.005,-0.02,-0.098,-0.034,-0.005,0.0,0.015
0.402,-0.005,-0.01,-0.005,0.01,0.0,-0.01,-0.015,-0.093,-0.029,0.0,0.005,0.015
0.404,-0.005,-0.005,0.0,0.005,-0.005,-0.005,-0.029,-0.098,-0.034,-0.01,0.0,0.01
0.406,-0.024,-0.02,0.005,0.024,-0.015,-0.01,-0.029,-0.098,-0.029,0.0,0.0,0.01
0.408,-0.02,-0.024,-0.005,0.024,-0.01,-0.015,-0.02,-0.093,-0.024,0.0,0.0,0.01
0.41,-0.015,-0.024,-0.01,0.02,-0.005,-0.02,-0.015,-0.088,-0.024,0.0,0.005,0.01
0.412,-0.02,-0.039,-0.02,0.029,0.0,-0.029,-0.01,-0.083,-0.024,-0.005,0.0,0.01
0.414,-0.024,-0.044,-0.02,0.034,-0.005,-0.034,0.0,-0.078,-0.02,0.015,0.01,0.02
0.416,-0.02,-0.044,-0.024,0.034,0.0,-0.034,-0.005,-0.083,-0.02,0.01,0.01,0.015
0.418,-0.02,-0.034,-0.015,0.029,-0.005,-0.024,0.005,-0.078,-0.015,0.01,0.02,0.024
0.42,-0.01,-0.01,0.0,0.01,-0.005,-0.005,0.0,-0.068,-0.01,0.005,0.01,0.01
0.422,-0.02,-0.005,0.015,0.015,-0.02,0.005,0.0,-0.068,-0.005,0.005,0.005,0.0
0.424,-0.02,0.01,0.029,0.005,-0.024,0.02,0.01,-0.044,0.01,0.01,0.005,0.015
0.426,-0.024,0.015,0.039,0.005,-0.034,0.024,0.029,0.005,0.063,0.039,0.01,0.005
0.428,-0.029,0.005,0.034,0.015,-0.034,0.02,0.068,0.093,0.146,0.093,0.024,0.005
0.43,-0.015,0.01,0.024,0.005,-0.02,0.015,0.093,0.176,0.254,0.181,0.068,0.024
0.432,0.015,0.02,0.005,-0.015,0.005,0.01,0.088,0.239,0.371,0.298,0.142,0.068
0.434,0.063,0.039,-0.024,-0.049,0.044,0.005,0.063,0.268,0.473,0.468,0.273,0.137
0.436,0.122,0.088,-0.034,-0.102,0.078,0.024,0.044,0.327,0.61,0.664,0.415,0.205
0.438,0.171,0.127,-0.044,-0.146,0.107,0.039,0.054,0.459,0.82,0.888,0.556,0.283
0.44,0.249,0.181,-0.068,-0.215,0.156,0.054,0.054,0.6,1.049,1.147,0.717,0.376
0.442,0.356,0.244,-0.112,-0.298,0.234,0.063,0.01,0.673,1.24,1.401,0.913,0.483
0.444,0.468,0.293,-0.176,-0.381,0.322,0.059,-0.068,0.644,1.347,1.601,1.093,0.595
0.446,0.556,0.346,-0.21,-0.449,0.381,0.068,-0.132,0.532,1.357,1.737,1.244,0.708
0.448,0.62,0.41,-0.21,-0.512,0.415,0.098,-0.205,0.312,1.244,1.796,1.352,0.791
0.45,0.654,0.483,-0.171,-0.566,0.41,0.156,-0.303,-0.029,0.986,1.723,1.405,0.869
0.452,0.669,0.571,-0.098,-0.62,0.381,0.234,-0.366,-0.327,0.683,1.532,1.386,0.932
0.454,0.62,0.615,-0.005,-0.615,0.312,0.303,-0.376,-0.498,0.429,1.283,1.298,0.932
0.456,0.581,0.61,0.029,-0.595,0.273,0.317,-0.371,-0.654,0.122,0.937,1.132,0.878
0.458,0.561,0.561,0.0,-0.561,0.278,0.278,-0.376,-0.81,-0.185,0.581,0.956,0.82
0.46,0.508,0.493,-0.015,-0.498,0.259,0.239,-0.356,-0.981,-0.522,0.2,0.722,0.712
0.462,0.386,0.439,0.054,-0.41,0.166,0.244,-0.303,-1.157,-0.874,-0.19,0.464,0.586
0.464,0.229,0.366,0.137,-0.298,0.044,0.249,-0.224,-1.283,-1.142,-0.512,0.239,0.473
0.466,0.107,0.322,0.215,-0.215,-0.054,0.268,-0.107,-1.308,-1.22,-0.649,0.117,0.4
0.468,0.02,0.273,0.254,-0.146,-0.117,0.264,0.02,-1.249,-1.176,-0.669,0.029,0.312
0.47,-0.088,0.224,0.312,-0.068,-0.2,0.268,0.098,-1.205,-1.152,-0.703,-0.083,0.22
0.472,-0.132,0.215,0.346,-0.039,-0.239,0.278,0.117,-1.166,-1.103,-0.703,-0.137,0.156
0.474,-0.171,0.195,0.366,-0.01,-0.268,0.278,0.132,-1.122,-1.054,-0.673,-0.166,0.112
0.476,-0.21,0.176,0.386,0.02,-0.298,0.278,0.117,-1.088,-1.015,-0.659,-0.2,0.063
0.478,-0.215,0.171,0.386,0.024,-0.303,0.278,0.024,-1.074,-0.976,-0.644,-0.224,0.024
0.48,-0.195,0.151,0.346,0.024,-0.273,0.249,-0.107,-1.044,-0.922,-0.615,-0.234,0.005
0.482,-0.181,0.127,0.307,0.029,-0.244,0.215,-0.161,-0.961,-0.844,-0.571,-0.229,-0.015
0.484,-0.166,0.127,0.293,0.02,-0.229,0.21,-0.166,-0.849,-0.742,-0.503,-0.21,-0.029
0.486,-0.151,0.117,0.268,0.02,-0.21,0.19,-0.132,-0.727,-0.634,-0.434,-0.185,-0.034
0.488,-0.132,0.112,0.244,0.01,-0.19,0.176,-0.093,-0.595,-0.522,-0.361,-0.161,-0.034
0.49,-0.117,0.098,0.215,0.01,-0.166,0.156,-0.073,-0.468,-0.42,-0.293,-0.137,-0.049
0.492,-0.102,0.078,0.181,0.015,-0.142,0.127,-0.063,-0.381,-0.322,-0.239,-0.107,-0.039
0.494,-0.083,0.073,0.156,0.005,-0.122,0.112,-0.054,-0.298,-0.244,-0.176,-0.078,-0.024
0.496,-0.073,0.049,0.122,0.015,-0.098,0.083,-0.044,-0.234,-0.185,-0.127,-0.049,-0.01
0.498,-0.054,0.039,0.093,0.01,-0.073,0.063,-0.024,-0.185,-0.137,-0.098,-0.034,-0.005
0.5,-0.039,0.029,0.068,0.005,-0.054,0.049,-0.02,-0.156,-0.112,-0.088,-0.034,-0.015
0.502,-0.049,0.0,0.049,0.024,-0.049,0.024,-0.01,-0.132,-0.107,-0.078,-0.034,-0.005
0.504,-0.034,-0.005,0.029,0.02,-0.034,0.01,-0.005,-0.117,-0.088,-0.073,-0.029,-0.005
0.506,-0.029,-0.01,0.02,0.02,-0.024,0.005,-0.005,-0.102,-0.073,-0.073,-0.029,-0.005
0.508,-0.029,-0.02,0.01,0.024,-0.02,-0.005,0.005,-0.078,-0.059,-0.059,-0.034,-0.005
0.51,-0.015,-0.015,0.0,0.015,-0.01,-0.01,0.015,-0.044,-0.034,-0.044,-0.029,-0.01
0.512,-0.024,-0.034,-0.01,0.029,-0.01,-0.024,0.02,-0.029,-0.02,-0.034,-0.024,-0.01
0.514,-0.029,-0.039,-0.01,0.034,-0.01,-0.024,0.034,-0.01,0.005,-0.02,-0.02,-0.005
0.516,-0.02,-0.029,-0.01,0.024,-0.005,-0.02,0.039,0.005,0.015,0.0,-0.015,-0.01
0.518,-0.015,-0.034,-0.02,0.024,0.0,-0.029,0.044,0.005,0.015,0.0,-0.015,-0.01
0.52,-0.015,-0.029,-0.015,0.024,0.0,-0.024,0.039,0.0,0.015,-0.01,-0.02,-0.015
0.522,-0.02,-0.039,-0.02,0.029,0.0,-0.029,0.039,0.0,0.01,0.0,-0.015,-0.01
0.524,-0.02,-0.039,-0.02,0.029,0.0,-0.029,0.034,-0.005,0.01,-0.005,-0.015,-0.005
0.526,-0.015,-0.034,-0.02,0.024,0.0,-0.029,0.034,0.01,0.02,0.0,-0.01,-0.005
0.528,-0.01,-0.034,-0.024,0.024,0.005,-0.029,0.024,0.01,0.02,-0.01,-0.02,-0.005
0.53,-0.01,-0.029,-0.02,0.02,0.005,-0.024,0.039,0.024,0.034,0.005,-0.01,-0.01
0.532,-0.015,-0.029,-0.015,0.024,0.0,-0.024,0.039,0.029,0.039,0.0,-0.015,-0.01
0.534,-0.024,-0.044,-0.02,0.034,-0.005,-0.034,0.044,0.044,0.054,0.01,-0.01,-0.005
0.536,-0.01,-0.034,-0.024,0.024,0.005,-0.029,0.044,0.034,0.049,0.015,-0.015,-0.01
0.538,-0.015,-0.024,-0.01,0.02,-0.005,-0.02,0.049,0.034,0.049,0.015,-0.01,-0.015
0.54,-0.015,-0.029,-0.015,0.024,0.0,-0.024,0.044,0.024,0.039,0.005,-0.01,-0.015
0.542,-0.01,-0.024,-0.015,0.02,0.0,-0.02,0.044,0.024,0.039,0.015,-0.005,-0.01
0.544,-0.01,-0.029,-0.02,0.02,0.005,-0.024,0.034,0.02,0.034,0.01,-0.01,-0.005
0.546,-0.01,-0.029,-0.02,0.02,0.005,-0.024,0.039,0.029,0.044,0.005,-0.005,-0.005
0.548,-0.01,-0.024,-0.015,0.02,0.0,-0.02,0.039,0.034,0.049,0.005,-0.01,-0.01
0.55,-0.024,-0.049,-0.024,0.039,0.0,-0.039,0.044,0.044,0.054,0.01,-0.015,-0.015
0.552,-0.02,-0.059,-0.039,0.039,0.01,-0.049,0.054,0.059,0.068,0.015,-0.005,-0.005
0.554,-0.02,-0.063,-0.044,0.044,0.01,-0.054,0.059,0.063,0.073,0.024,-0.005,-0.005
0.556,-0.015,-0.054,-0.039,0.034,0.01,-0.049,0.059,0.063,0.073,0.034,0.0,0.005
0.558,-0.005,-0.039,-0.034,0.024,0.015,-0.039,0.063,0.059,0.073,0.034,0.005,0.0
0.56,-0.005,-0.039,-0.034,0.024,0.015,-0.039,0.054,0.049,0.063,0.024,0.0,-0.01
0.562,-0.01,-0.039,-0.029,0.024,0.01,-0.034,0.059,0.049,0.063,0.034,0.0,-0.01
0.564,-0.01,-0.039,-0.029,0.024,0.01,-0.034,0.049,0.044,0.054,0.02,-0.005,-0.005
0.566,-0.02,-0.049,-0.029,0.034,0.005,-0.039,0.054,0.049,0.059,0.015,-0.005,-0.005
0.568,-0.01,-0.044,-0.034,0.029,0.01,-0.039,0.049,0.059,0.063,0.015,-0.01,-0.005
0.57,-0.02,-0.054,-0.034,0.039,0.005,-0.044,0.054,0.068,0.073,0.02,-0.01,0.0
0.572,-0.015,-0.068,-0.054,0.044,0.02,-0.063,0.059,0.083,0.083,0.024,-0.005,-0.01
0.574,-0.01,-0.063,-0.054,0.039,0.02,-0.059,0.068,0.093,0.088,0.034,0.0,-0.01
0.576,-0.015,-0.068,-0.054,0.044,0.02,-0.063,0.068,0.093,0.088,0.039,0.0,0.0
0.578,-0.02,-0.054,-0.034,0.039,0.005,-0.044,0.073,0.088,0.083,0.034,0.005,0.005
0.58,-0.015,-0.044,-0.029,0.029,0.005,-0.039,0.063,0.083,0.078,0.029,0.0,0.0
0.582,-0.01,-0.049,-0.039,0.029,0.015,-0.044,0.054,0.073,0.068,0.029,-0.005,-0.01
0.584,0.005,-0.029,-0.034,0.015,0.02,-0.034,0.049,0.068,0.063,0.02,-0.005,-0.005
0.586,0.005,-0.024,-0.029,0.01,0.015,-0.029,0.054,0.078,0.068,0.02,-0.01,0.0
0.588,-0.005,-0.029,-0.024,0.02,0.01,-0.029,0.049,0.088,0.073,0.029,-0.015,0.0
0.59,0.0,-0.039,-0.039,0.02,0.02,-0.039,0.054,0.098,0.078,0.024,-0.02,-0.024
0.592,-0.015,-0.059,-0.044,0.039,0.015,-0.054,0.059,0.102,0.083,0.029,-0.02,-0.024
0.594,-0.02,-0.063,-0.044,0.044,0.01,-0.054,0.073,0.117,0.102,0.034,-0.01,-0.015
0.596,-0.01,-0.063,-0.054,0.039,0.02,-0.059,0.068,0.112,0.098,0.039,-0.01,-0.01
0.598,0.0,-0.059,-0.059,0.029,0.029,-0.059,0.073,0.112,0.098,0.034,-0.01,-0.005
0.6,0.005,-0.034,-0.039,0.015,0.02,-0.039,0.068,0.102,0.088,0.034,-0.01,0.0
0.602,0.0,-0.034,-0.034,0.02,0.015,-0.034,0.068,0.102,0.088,0.034,-0.01,-0.005
0.604,0.005,-0.034,-0.039,0.015,0.02,-0.039,0.063,0.098,0.083,0.029,-0.015,-0.02
0.606,0.005,-0.029,-0.034,0.015,0.02,-0.034,0.068,0.102,0.088,0.024,-0.015,-0.005
0.608,0.0,-0.034,-0.034,0.02,0.015,-0.034,0.063,0.102,0.088,0.02,-0.024,-0.015
0.61,0.0,-0.044,-0.044,0.024,0.02,-0.044,0.068,0.117,0.102,0.024,-0.02,-0.015
0.612,-0.005,-0.054,-0.049,0.029,0.02,-0.054,0.073,0.127,0.107,0.039,-0.02,-0.015
0.614,-0.01,-0.068,-0.059,0.039,0.024,-0.063,0.078,0.132,0.117,0.039,-0.015,-0.01
0.616,0.0,-0.063,-0.063,0.034,0.029,-0.063,0.083,0.137,0.112,0.049,-0.015,-0.01
0.618,0.0,-0.068,-0.068,0.034,0.034,-0.068,0.083,0.137,0.117,0.044,-0.01,-0.01
0.62,-0.005,-0.068,-0.063,0.039,0.029,-0.068,0.083,0.132,0.112,0.044,-0.01,-0.005
0.622,-0.005,-0.063,-0.059,0.034,0.024,-0.063,0.083,0.137,0.107,0.044,-0.005,-0.005
0.624,-0.005,-0.059,-0.054,0.034,0.024,-0.059,0.078,0.132,0.098,0.039,-0.015,-0.02
0.626,0.01,-0.044,-0.054,0.02,0.029,-0.049,0.073,0.132,0.098,0.029,-0.02,-0.024
0.628,0.005,-0.039,-0.044,0.02,0.024,-0.044,0.073,0.137,0.102,0.029,-0.024,-0.024
0.63,-0.005,-0.054,-0.049,0.029,0.02,-0.054,0.073,0.156,0.112,0.034,-0.02,-0.02
0.632,0.005,-0.054,-0.059,0.024,0.029,-0.059,0.073,0.161,0.117,0.029,-0.024,-0.02
0.634,-0.01,-0.078,-0.068,0.044,0.029,-0.073,0.083,0.166,0.127,0.034,-0.02,-0.01
0.636,-0.01,-0.083,-0.073,0.049,0.029,-0.078,0.088,0.171,0.127,0.044,-0.015,-0.015
0.638,-0.005,-0.073,-0.068,0.039,0.029,-0.073,0.088,0.171,0.122,0.039,-0.015,-0.02
0.64,-0.015,-0.078,-0.063,0.049,0.024,-0.073,0.088,0.166,0.122,0.039,-0.015,-0.02
0.642,-0.005,-0.078,-0.073,0.044,0.034,-0.078,0.088,0.171,0.117,0.044,-0.01,-0.01
0.644,0.0,-0.068,-0.068,0.034,0.034,-0.068,0.088,0.171,0.112,0.039,-0.01,-0.01
0.646,0.0,-0.059,-0.059,0.029,0.029,-0.059,0.083,0.171,0.117,0.034,-0.015,-0.015
0.648,0.0,-0.049,-0.049,0.024,0.024,-0.049,0.083,0.176,0.127,0.034,-0.02,-0.02
0.65,-0.01,-0.063,-0.054,0.039,0.02,-0.059,0.088,0.185,0.132,0.039,-0.02,-0.015
0.652,0.0,-0.073,-0.073,0.039,0.034,-0.073,0.088,0.2,0.142,0.044,-0.015,-0.015
0.654,0.0,-0.068,-0.068,0.034,0.034,-0.068,0.098,0.21,0.156,0.049,-0.015,0.0
0.656,-0.005,-0.078,-0.073,0.044,0.034,-0.078,0.102,0.215,0.151,0.054,-0.015,-0.005
0.658,0.0,-0.068,-0.068,0.034,0.034,-0.068,0.102,0.215,0.146,0.044,-0.015,-0.01
0.66,-0.005,-0.073,-0.068,0.039,0.029,-0.073,0.098,0.205,0.142,0.039,-0.024,-0.015
0.662,0.0,-0.088,-0.088,0.044,0.044,-0.088,0.098,0.21,0.142,0.039,-0.024,-0.015
0.664,0.005,-0.073,-0.078,0.034,0.039,-0.078,0.102,0.215,0.146,0.044,-0.02,-0.024
0.666,0.0,-0.078,-0.078,0.039,0.039,-0.078,0.098,0.215,0.142,0.034,-0.029,-0.024
0.668,0.0,-0.073,-0.073,0.039,0.034,-0.073,0.107,0.229,0.156,0.049,-0.024,-0.005
0.67,0.0,-0.073,-0.073,0.039,0.034,-0.073,0.102,0.244,0.161,0.044,-0.029,-0.01
0.672,-0.005,-0.083,-0.078,0.044,0.034,-0.083,0.107,0.254,0.161,0.029,-0.029,-0.02
0.674,0.005,-0.078,-0.083,0.039,0.044,-0.083,0.117,0.264,0.171,0.044,-0.024,-0.015
0.676,0.015,-0.073,-0.088,0.029,0.049,-0.083,0.112,0.268,0.166,0.054,-0.024,-0.02
0.678,0.01,-0.083,-0.093,0.039,0.049,-0.088,0.112,0.273,0.166,0.044,-0.024,-0.024
0.68,0.005,-0.078,-0.083,0.039,0.044,-0.083,0.107,0.268,0.161,0.039,-0.029,-0.034
0.682,-0.005,-0.098,-0.093,0.054,0.044,-0.098,0.112,0.268,0.166,0.044,-0.029,-0.029
0.684,0.0,-0.088,-0.088,0.044,0.044,-0.088,0.107,0.278,0.171,0.044,-0.024,-0.029
0.686,-0.005,-0.083,-0.078,0.044,0.034,-0.083,0.107,0.283,0.171,0.029,-0.034,-0.029
0.688,-0.015,-0.107,-0.093,0.063,0.039,-0.102,0.112,0.293,0.176,0.034,-0.034,-0.029
0.69,-0.005,-0.112,-0.107,0.059,0.049,-0.112,0.117,0.312,0.185,0.039,-0.029,-0.029
0.692,-0.005,-0.112,-0.107,0.059,0.049,-0.112,0.122,0.327,0.19,0.039,-0.034,-0.029
0.694,-0.005,-0.117,-0.112,0.063,0.054,-0.117,0.132,0.337,0.2,0.044,-0.029,-0.024
0.696,0.005,-0.102,-0.107,0.049,0.054,-0.107,0.132,0.342,0.2,0.049,-0.034,-0.029
0.698,-0.005,-0.107,-0.102,0.059,0.049,-0.107,0.132,0.342,0.195,0.039,-0.034,-0.024
0.7,-0.005,-0.102,-0.098,0.054,0.044,-0.102,0.137,0.346,0.195,0.039,-0.029,-0.02
0.702,-0.005,-0.107,-0.102,0.059,0.049,-0.107,0.132,0.342,0.185,0.029,-0.039,-0.034
0.704,-0.005,-0.112,-0.107,0.059,0.049,-0.112,0.132,0.351,0.19,0.029,-0.034,-0.034
0.706,-0.005,-0.102,-0.098,0.054,0.044,-0.102,0.132,0.356,0.19,0.02,-0.039,-0.034
0.708,-0.005,-0.107,-0.102,0.059,0.049,-0.107,0.132,0.361,0.19,0.02,-0.054,-0.039
0.71,-0.02,-0.127,-0.107,0.073,0.044,-0.117,0.146,0.386,0.205,0.029,-0.044,-0.034
0.712,-0.01,-0.122,-0.112,0.068,0.049,-0.117,0.151,0.395,0.215,0.024,-0.044,-0.029
0.714,-0.01,-0.132,-0.122,0.073,0.054,-0.127,0.156,0.4,0.21,0.02,-0.049,-0.029
0.716,-0.005,-0.117,-0.112,0.063,0.054,-0.117,0.161,0.41,0.21,0.024,-0.049,-0.029
0.718,-0.005,-0.107,-0.102,0.059,0.049,-0.107,0.156,0.4,0.2,0.01,-0.054,-0.039
0.72,-0.005,-0.107,-0.102,0.059,0.049,-0.107,0.151,0.405,0.195,0.005,-0.059,-0.044
0.722,0.0,-0.098,-0.098,0.049,0.049,-0.098,0.156,0.41,0.19,0.0,-0.059,-0.039
0.724,0.0,-0.088,-0.088,0.044,0.044,-0.088,0.156,0.405,0.185,-0.01,-0.063,-0.044
0.726,-0.005,-0.093,-0.088,0.049,0.039,-0.093,0.151,0.4,0.176,-0.029,-0.078,-0.059
0.728,-0.01,-0.102,-0.093,0.059,0.039,-0.098,0.156,0.405,0.171,-0.029,-0.083,-0.054
0.73,-0.02,-0.122,-0.102,0.073,0.039,-0.112,0.156,0.415,0.181,-0.029,-0.083,-0.054
0.732,-0.01,-0.127,-0.117,0.068,0.054,-0.122,0.166,0.429,0.185,-0.024,-0.083,-0.054
0.734,-0.015,-0.132,-0.117,0.073,0.049,-0.127,0.166,0.429,0.185,-0.034,-0.093,-0.063
0.736,-0.015,-0.127,-0.112,0.073,0.049,-0.122,0.171,0.434,0.181,-0.034,-0.093,-0.054
0.738,-0.01,-0.107,-0.098,0.059,0.044,-0.102,0.171,0.425,0.171,-0.054,-0.093,-0.054
0.74,-0.02,-0.112,-0.093,0.068,0.034,-0.102,0.171,0.41,0.156,-0.059,-0.098,-0.054
0.742,-0.01,-0.107,-0.098,0.059,0.044,-0.102,0.176,0.405,0.146,-0.068,-0.102,-0.054
0.744,0.0,-0.083,-0.083,0.044,0.039,-0.083,0.166,0.405,0.137,-0.078,-0.102,-0.059
0.746,-0.01,-0.093,-0.083,0.054,0.034,-0.088,0.166,0.395,0.122,-0.098,-0.117,-0.063
0.748,-0.005,-0.088,-0.083,0.049,0.039,-0.088,0.166,0.395,0.117,-0.098,-0.117,-0.059
0.75,-0.01,-0.102,-0.093,0.059,0.039,-0.098,0.166,0.395,0.112,-0.107,-0.127,-0.068
0.752,-0.02,-0.122,-0.102,0.073,0.039,-0.112,0.171,0.395,0.117,-0.107,-0.122,-0.073
0.754,-0.029,-0.127,-0.098,0.078,0.034,-0.112,0.176,0.395,0.112,-0.107,-0.122,-0.054
0.756,-0.039,-0.127,-0.088,0.083,0.024,-0.107,0.181,0.39,0.098,-0.112,-0.117,-0.059
0.758,-0.024,-0.127,-0.102,0.078,0.039,-0.117,0.176,0.371,0.083,-0.132,-0.117,-0.068
0.76,-0.02,-0.112,-0.093,0.068,0.034,-0.102,0.166,0.356,0.068,-0.137,-0.122,-0.063
0.762,-0.024,-0.112,-0.088,0.068,0.029,-0.102,0.166,0.342,0.054,-0.146,-0.127,-0.059
0.764,-0.02,-0.093,-0.073,0.059,0.024,-0.083,0.156,0.327,0.039,-0.156,-0.132,-0.063
0.766,-0.02,-0.088,-0.068,0.054,0.024,-0.078,0.156,0.312,0.029,-0.171,-0.132,-0.059
0.768,-0.024,-0.093,-0.068,0.059,0.02,-0.083,0.151,0.303,0.02,-0.176,-0.142,-0.063
0.77,-0.024,-0.093,-0.068,0.059,0.02,-0.083,0.151,0.293,0.01,-0.185,-0.142,-0.059
0.772,-0.034,-0.107,-0.073,0.073,0.02,-0.093,0.151,0.283,0.01,-0.185,-0.137,-0.059
0.774,-0.029,-0.117,-0.088,0.073,0.029,-0.102,0.161,0.278,0.005,-0.185,-0.142,-0.049
0.776,-0.034,-0.107,-0.073,0.073,0.02,-0.093,0.156,0.264,0.0,-0.185,-0.142,-0.054
0.778,-0.039,-0.117,-0.078,0.078,0.02,-0.098,0.151,0.239,-0.02,-0.2,-0.146,-0.059
0.78,-0.039,-0.112,-0.073,0.078,0.015,-0.093,0.151,0.224,-0.024,-0.195,-0.142,-0.054
0.782,-0.034,-0.102,-0.068,0.068,0.015,-0.088,0.142,0.2,-0.044,-0.205,-0.146,-0.059
0.784,-0.029,-0.093,-0.063,0.063,0.015,-0.078,0.137,0.185,-0.049,-0.21,-0.142,-0.063
0.786,-0.02,-0.073,-0.054,0.049,0.015,-0.063,0.127,0.161,-0.059,-0.215,-0.146,-0.049
0.788,-0.029,-0.078,-0.049,0.054,0.01,-0.063,0.122,0.146,-0.068,-0.215,-0.142,-0.044
0.79,-0.015,-0.078,-0.063,0.049,0.024,-0.073,0.117,0.142,-0.068,-0.215,-0.142,-0.049
0.792,-0.01,-0.063,-0.054,0.039,0.02,-0.059,0.117,0.127,-0.063,-0.205,-0.127,-0.039
0.794,-0.015,-0.068,-0.054,0.044,0.02,-0.063,0.117,0.117,-0.078,-0.21,-0.122,-0.039
0.796,-0.015,-0.068,-0.054,0.044,0.02,-0.063,0.112,0.102,-0.073,-0.2,-0.112,-0.034
0.798,-0.015,-0.078,-0.063,0.049,0.024,-0.073,0.098,0.078,-0.083,-0.21,-0.112,-0.034
0.8,-0.02,-0.088,-0.068,0.054,0.024,-0.078,0.093,0.068,-0.093,-0.2,-0.107,-0.034
0.802,-0.015,-0.083,-0.068,0.049,0.024,-0.078,0.093,0.059,-0.093,-0.185,-0.098,-0.02
0.804,-0.015,-0.073,-0.059,0.044,0.02,-0.068,0.078,0.044,-0.098,-0.185,-0.093,-0.029
0.806,0.0,-0.059,-0.059,0.029,0.029,-0.059,0.073,0.029,-0.098,-0.181,-0.088,-0.015
0.808,0.0,-0.063,-0.063,0.034,0.029,-0.063,0.068,0.024,-0.093,-0.166,-0.083,-0.01
0.81,0.005,-0.063,-0.068,0.029,0.034,-0.068,0.063,0.02,-0.088,-0.156,-0.078,-0.015
0.812,0.015,-0.054,-0.068,0.02,0.039,-0.063,0.068,0.015,-0.073,-0.142,-0.063,-0.01
0.814,0.015,-0.054,-0.068,0.02,0.039,-0.063,0.068,0.01,-0.068,-0.127,-0.054,-0.015
0.816,0.005,-0.063,-0.068,0.029,0.034,-0.068,0.063,0.005,-0.063,-0.112,-0.049,-0.005
0.818,0.01,-0.059,-0.068,0.024,0.039,-0.063,0.059,-0.015,-0.063,-0.107,-0.044,-0.005
0.82,0.005,-0.073,-0.078,0.034,0.039,-0.078,0.059,-0.015,-0.063,-0.093,-0.034,0.0
0.822,0.0,-0.068,-0.068,0.034,0.034,-0.068,0.059,-0.015,-0.059,-0.078,-0.024,0.015
0.824,0.0,-0.059,-0.059,0.029,0.029,-0.059,0.049,-0.029,-0.059,-0.078,-0.029,0.0
0.826,0.005,-0.068,-0.073,0.034,0.039,-0.073,0.039,-0.039,-0.063,-0.073,-0.039,-0.005
0.828,0.01,-0.068,-0.078,0.029,0.044,-0.073,0.044,-0.034,-0.049,-0.063,-0.029,0.01
0.83,0.005,-0.068,-0.073,0.034,0.039,-0.073,0.044,-0.029,-0.039,-0.054,-0.02,0.0
0.832,0.015,-0.063,-0.078,0.024,0.044,-0.073,0.044,-0.029,-0.034,-0.054,-0.01,0.01
0.834,0.02,-0.059,-0.078,0.02,0.049,-0.068,0.049,-0.024,-0.024,-0.039,0.0,0.024
0.836,0.01,-0.063,-0.073,0.029,0.039,-0.068,0.044,-0.029,-0.029,-0.034,-0.005,0.02
0.838,0.01,-0.059,-0.068,0.024,0.039,-0.063,0.039,-0.039,-0.029,-0.029,0.0,0.01
0.84,0.0,-0.059,-0.059,0.029,0.029,-0.059,0.039,-0.049,-0.029,-0.024,0.005,0.015
0.842,-0.01,-0.068,-0.059,0.039,0.024,-0.063,0.039,-0.044,-0.029,-0.015,0.015,0.024
0.844,0.0,-0.059,-0.059,0.029,0.029,-0.059,0.034,-0.049,-0.024,-0.01,0.015,0.024
0.846,0.005,-0.063,-0.068,0.029,0.034,-0.068,0.024,-0.059,-0.029,-0.015,0.005,0.02
0.848,-0.005,-0.073,-0.068,0.039,0.029,-0.073,0.029,-0.054,-0.02,-0.01,0.0,0.024
0.85,0.0,-0.068,-0.068,0.034,0.034,-0.068,0.029,-0.049,-0.015,-0.005,0.005,0.024
0.852,0.0,-0.068,-0.068,0.034,0.034,-0.068,0.029,-0.049,-0.005,0.005,0.01,0.02
0.854,0.0,-0.068,-0.068,0.034,0.034,-0.068,0.039,-0.034,0.0,0.015,0.015,0.024
0.856,0.0,-0.059,-0.059,0.029,0.029,-0.059,0.039,-0.034,0.0,0.02,0.024,0.024
0.858,0.0,-0.059,-0.059,0.029,0.029,-0.059,0.039,-0.049,-0.005,0.01,0.015,0.024
0.86,0.005,-0.049,-0.054,0.024,0.029,-0.054,0.039,-0.049,-0.005,0.015,0.02,0.024
0.862,-0.005,-0.049,-0.044,0.029,0.02,-0.049,0.034,-0.059,-0.02,0.01,0.015,0.024
0.864,-0.01,-0.049,-0.039,0.029,0.015,-0.044,0.029,-0.059,-0.015,0.015,0.024,0.024
0.866,0.0,-0.049,-0.049,0.024,0.024,-0.049,0.024,-0.068,-0.02,0.005,0.02,0.024
0.868,-0.01,-0.068,-0.059,0.039,0.024,-0.063,0.029,-0.059,-0.015,0.005,0.015,0.02
0.87,-0.01,-0.068,-0.059,0.039,0.024,-0.063,0.034,-0.049,-0.01,0.005,0.02,0.015
0.872,-0.005,-0.068,-0.063,0.039,0.029,-0.068,0.039,-0.049,-0.005,0.015,0.024,0.01
0.874,-0.005,-0.068,-0.063,0.039,0.029,-0.068,0.044,-0.039,0.0,0.015,0.015,0.015
0.876,-0.005,-0.059,-0.054,0.034,0.024,-0.059,0.039,-0.044,-0.01,0.01,0.015,0.02
0.878,-0.01,-0.059,-0.049,0.034,0.02,-0.054,0.029,-0.059,-0.02,0.005,0.01,0.015
0.88,-0.005,-0.059,-0.054,0.034,0.024,-0.059,0.039,-0.059,-0.015,0.01,0.015,0.02
0.882,0.0,-0.039,-0.039,0.02,0.02,-0.039,0.034,-0.059,-0.024,0.005,0.01,0.015
0.884,-0.005,-0.044,-0.039,0.024,0.015,-0.044,0.024,-0.068,-0.029,0.0,0.005,0.015
0.886,0.0,-0.044,-0.044,0.024,0.02,-0.044,0.029,-0.063,-0.02,0.0,0.01,0.015
0.888,-0.01,-0.054,-0.044,0.034,0.015,-0.049,0.029,-0.059,-0.02,0.0,0.005,0.015
0.89,-0.015,-0.068,-0.054,0.044,0.02,-0.063,0.024,-0.059,-0.02,0.0,0.0,0.005
0.892,-0.01,-0.063,-0.054,0.039,0.02,-0.059,0.034,-0.054,-0.01,0.005,0.01,0.01
0.894,-0.024,-0.078,-0.054,0.054,0.015,-0.068,0.034,-0.049,-0.01,0.005,0.005,0.01
0.896,-0.024,-0.088,-0.063,0.059,0.02,-0.078,0.034,-0.054,-0.015,0.005,0.01,0.005
0.898,-0.015,-0.078,-0.063,0.049,0.024,-0.073,0.039,-0.054,-0.015,0.01,0.015,0.005
0.9,-0.024,-0.078,-0.054,0.054,0.015,-0.068,0.044,-0.049,-0.015,0.015,0.01,0.015
0.902,-0.01,-0.054,-0.044,0.034,0.015,-0.049,0.034,-0.054,-0.024,0.005,0.01,0.015
0.904,-0.01,-0.049,-0.039,0.029,0.015,-0.044,0.029,-0.059,-0.024,0.0,0.01,0.015
0.906,-0.01,-0.054,-0.044,0.034,0.015,-0.049,0.029,-0.068,-0.024,-0.01,0.005,0.02
0.908,-0.015,-0.054,-0.039,0.034,0.01,-0.049,0.034,-0.059,-0.02,-0.005,0.005,0.015
0.91,-0.024,-0.068,-0.044,0.049,0.01,-0.059,0.029,-0.059,-0.02,-0.005,0.0,0.0
0.912,-0.02,-0.073,-0.054,0.049,0.015,-0.063,0.029,-0.054,-0.01,0.0,0.005,0.0
0.914,-0.015,-0.068,-0.054,0.044,0.02,-0.063,0.029,-0.049,-0.01,0.0,0.005,0.005
0.916,-0.029,-0.083,-0.054,0.059,0.01,-0.068,0.034,-0.044,-0.01,0.0,0.01,0.0
0.918,-0.02,-0.078,-0.059,0.049,0.02,-0.068,0.034,-0.054,-0.01,0.0,0.01,0.005
0.92,-0.015,-0.078,-0.063,0.049,0.024,-0.073,0.034,-0.049,-0.005,0.005,0.005,0.01
0.922,-0.015,-0.073,-0.059,0.044,0.02,-0.068,0.034,-0.049,-0.01,0.005,0.005,0.01
0.924,-0.01,-0.054,-0.044,0.034,0.015,-0.049,0.034,-0.049,-0.005,0.005,0.005,0.005
0.926,-0.01,-0.059,-0.049,0.034,0.02,-0.054,0.024,-0.063,-0.01,-0.01,-0.005,-0.005
0.928,-0.015,-0.063,-0.049,0.039,0.015,-0.059,0.029,-0.044,-0.005,0.0,0.0,0.0
0.93,-0.01,-0.054,-0.044,0.034,0.015,-0.049,0.029,-0.039,-0.005,0.0,0.005,0.0
0.932,-0.01,-0.059,-0.049,0.034,0.02,-0.054,0.024,-0.044,0.0,-0.005,-0.005,0.0
0.934,-0.01,-0.059,-0.049,0.034,0.02,-0.054,0.029,-0.034,0.0,-0.005,0.0,0.005
0.936,-0.02,-0.073,-0.054,0.049,0.015,-0.063,0.034,-0.034,0.0,0.005,0.005,-0.005
0.938,-0.024,-0.078,-0.054,0.054,0.015,-0.068,0.034,-0.034,-0.005,0.005,0.005,-0.005
0.94,-0.029,-0.073,-0.044,0.054,0.005,-0.059,0.039,-0.039,0.0,0.005,0.0,0.0
0.942,-0.029,-0.073,-0.044,0.054,0.005,-0.059,0.034,-0.039,0.0,0.0,0.0,0.0
0.944,-0.015,-0.054,-0.039,0.034,0.01,-0.049,0.029,-0.044,-0.01,-0.005,-0.005,0.0
0.946,-0.01,-0.044,-0.034,0.029,0.01,-0.039,0.015,-0.049,-0.01,-0.01,-0.015,-0.01
0.948,-0.015,-0.054,-0.039,0.034,0.01,-0.049,0.02,-0.039,0.0,-0.005,-0.01,-0.01
0.95,-0.01,-0.044,-0.034,0.029,0.01,-0.039,0.029,-0.034,0.0,0.0,-0.005,-0.01
0.952,-0.01,-0.044,-0.034,0.029,0.01,-0.039,0.029,-0.029,0.005,0.0,-0.005,0.0
0.954,-0.015,-0.054,-0.039,0.034,0.01,-0.049,0.034,-0.024,0.01,0.005,0.0,-0.005
0.956,-0.02,-0.063,-0.044,0.044,0.01,-0.054,0.034,-0.024,0.01,0.01,0.0,-0.005
0.958,-0.02,-0.068,-0.049,0.044,0.015,-0.059,0.029,-0.029,0.01,0.01,0.0,-0.005
0.96,-0.015,-0.063,-0.049,0.039,0.015,-0.059,0.034,-0.029,0.015,0.015,0.005,0.0
0.962,-0.02,-0.059,-0.039,0.039,0.01,-0.049,0.034,-0.029,0.015,0.01,0.0,-0.005
0.964,-0.024,-0.063,-0.039,0.044,0.005,-0.054,0.024,-0.039,0.005,0.01,-0.005,-0.01
0.966,-0.02,-0.063,-0.044,0.044,0.01,-0.054,0.024,-0.029,0.005,0.005,-0.005,-0.01
0.968,-0.024,-0.063,-0.039,0.044,0.005,-0.054,0.024,-0.029,0.005,0.005,-0.01,-0.01
0.97,-0.02,-0.054,-0.034,0.039,0.005,-0.044,0.024,-0.024,0.01,0.005,-0.01,-0.005
0.972,-0.005,-0.044,-0.039,0.024,0.015,-0.044,0.029,-0.02,0.015,0.015,0.0,-0.005
0.974,-0.02,-0.059,-0.039,0.039,0.01,-0.049,0.029,-0.015,0.02,0.02,0.005,0.0
0.976,-0.01,-0.059,-0.049,0.034,0.02,-0.054,0.029,-0.015,0.02,0.015,0.0,0.0
0.978,-0.01,-0.063,-0.054,0.039,0.02,-0.059,0.024,-0.024,0.015,0.01,-0.005,-0.01
0.98,-0.015,-0.068,-0.054,0.044,0.02,-0.063,0.024,-0.024,0.02,0.02,0.0,0.0
0.982,-0.015,-0.059,-0.044,0.039,0.015,-0.054,0.024,-0.015,0.02,0.02,0.0,0.0
0.984,-0.01,-0.059,-0.049,0.034,0.02,-0.054,0.015,-0.029,0.01,0.015,-0.005,-0.005
0.986,-0.015,-0.063,-0.049,0.039,0.015,-0.059,0.015,-0.02,0.015,0.02,-0.005,0.0
0.988,-0.015,-0.054,-0.039,0.034,0.01,-0.049,0.02,-0.015,0.015,0.015,-0.01,-0.015
0.99,-0.02,-0.059,-0.039,0.039,0.01,-0.049,0.015,-0.015,0.02,0.015,-0.005,-0.024
0.992,-0.01,-0.049,-0.039,0.029,0.015,-0.044,0.015,-0.02,0.015,0.015,-0.005,-0.015
0.994,-0.015,-0.049,-0.034,0.034,0.01,-0.044,0.02,-0.01,0.02,0.02,0.0,0.0
0.996,-0.01,-0.054,-0.044,0.034,0.015,-0.049,0.02,-0.02,0.02,0.02,-0.005,-0.015
0.998,-0.005,-0.039,-0.034,0.024,0.015,-0.039,0.015,-0.024,0.015,0.015,0.0,-0.005
1.0,-0.005,-0.034,-0.029,0.02,0.01,-0.034,0.015,-0.024,0.01,0.015,-0.005,0.0
1.002,-0.01,-0.039,-0.029,0.024,0.01,-0.034,0.015,-0.024,0.01,0.015,0.0,0.0
1.004,-0.005,-0.029,-0.024,0.02,0.01,-0.029,0.005,-0.039,-0.005,0.005,-0.01,-0.02
1.006,-0.005,-0.039,-0.034,0.024,0.015,-0.039,0.0,-0.039,-0.005,0.0,-0.01,-0.024
1.008,-0.015,-0.044,-0.029,0.029,0.005,-0.039,0.005,-0.029,0.0,0.005,-0.01,-0.015
1.01,-0.01,-0.049,-0.039,0.029,0.015,-0.044,0.005,-0.024,0.0,0.01,-0.01,-0.015
1.012,-0.005,-0.044,-0.039,0.024,0.015,-0.044,0.005,-0.024,0.0,0.01,-0.005,-0.024
1.014,-0.005,-0.039,-0.034,0.024,0.015,-0.039,0.01,-0.015,0.015,0.015,0.005,-0.01
1.016,-0.01,-0.044,-0.034,0.029,0.01,-0.039,0.015,-0.02,0.015,0.015,0.005,-0.01
1.018,-0.01,-0.044,-0.034,0.029,0.01,-0.039,0.01,-0.024,0.01,0.015,-0.005,-0.01
1.02,0.0,-0.034,-0.034,0.02,0.015,-0.034,0.005,-0.029,0.005,0.015,-0.005,-0.01
1.022,-0.01,-0.034,-0.024,0.024,0.005,-0.029,0.005,-0.034,0.0,0.015,-0.005,-0.005
1.024,-0.01,-0.029,-0.02,0.02,0.005,-0.024,0.0,-0.039,-0.01,0.01,-0.01,-0.01
1.026,-0.005,-0.034,-0.029,0.02,0.01,-0.034,-0.01,-0.044,-0.01,0.0,-0.01,-0.015
1.028,-0.01,-0.049,-0.039,0.029,0.015,-0.044,0.0,-0.034,-0.01,0.0,-0.005,-0.01
1.03,-0.01,-0.044,-0.034,0.029,0.01,-0.039,0.0,-0.029,-0.005,0.0,0.0,-0.01
1.032,-0.02,-0.054,-0.034,0.039,0.005,-0.044,0.0,-0.034,-0.005,0.005,0.0,-0.015
1.034,-0.024,-0.068,-0.044,0.049,0.01,-0.059,0.01,-0.024,0.005,0.01,0.0,-0.02
1.036,-0.01,-0.063,-0.054,0.039,0.02,-0.059,0.01,-0.029,0.0,0.01,0.0,-0.02
1.038,-0.015,-0.059,-0.044,0.039,0.015,-0.054,0.0,-0.039,-0.005,0.005,-0.005,-0.02
1.04,-0.01,-0.044,-0.034,0.029,0.01,-0.039,-0.005,-0.044,-0.01,0.005,-0.01,-0.015
1.042,-0.01,-0.034,-0.024,0.024,0.005,-0.029,-0.005,-0.049,-0.015,-0.005,-0.01,-0.015
1.044,-0.015,-0.034,-0.02,0.024,0.0,-0.029,-0.015,-0.054,-0.02,0.0,-0.015,-0.02
1.046,-0.01,-0.029,-0.02,0.02,0.005,-0.024,-0.02,-0.054,-0.02,-0.005,-0.015,-0.01
1.048,-0.02,-0.049,-0.029,0.034,0.005,-0.039,-0.02,-0.054,-0.024,-0.005,-0.015,-0.015
1.05,-0.02,-0.054,-0.034,0.039,0.005,-0.044,-0.005,-0.044,-0.015,-0.005,-0.01,-0.005
1.052,-0.02,-0.054,-0.034,0.039,0.005,-0.044,-0.01,-0.044,-0.015,-0.005,-0.01,-0.01
1.054,-0.029,-0.068,-0.039,0.049,0.005,-0.054,-0.005,-0.039,-0.01,0.0,-0.01,-0.01
1.056,-0.024,-0.073,-0.049,0.049,0.01,-0.063,0.0,-0.034,-0.01,0.005,-0.005,-0.005
1.058,-0.02,-0.063,-0.044,0.044,0.01,-0.054,-0.005,-0.039,-0.02,-0.005,-0.01,-0.024
1.06,-0.015,-0.054,-0.039,0.034,0.01,-0.049,-0.01,-0.044,-0.024,0.0,-0.01,-0.024
1.062,-0.015,-0.039,-0.024,0.029,0.005,-0.034,-0.005,-0.044,-0.024,-0.005,-0.01,-0.01
1.064,-0.02,-0.039,-0.02,0.029,0.0,-0.029,-0.01,-0.049,-0.034,-0.005,-0.02,-0.01
1.066,-0.01,-0.034,-0.024,0.024,0.005,-0.029,-0.02,-0.059,-0.039,-0.015,-0.024,-0.02
1.068,-0.01,-0.029,-0.02,0.02,0.005,-0.024,-0.01,-0.049,-0.034,-0.015,-0.02,-0.015
1.07,-0.015,-0.039,-0.024,0.029,0.005,-0.034,-0.01,-0.049,-0.034,-0.02,-0.02,-0.015
1.072,-0.01,-0.044,-0.034,0.029,0.01,-0.039,-0.01,-0.049,-0.029,-0.01,-0.02,-0.015
1.074,-0.015,-0.054,-0.039,0.034,0.01,-0.049,-0.015,-0.044,-0.024,-0.005,-0.02,-0.02
1.076,-0.02,-0.063,-0.044,0.044,0.01,-0.054,-0.01,-0.044,-0.029,-0.01,-0.02,-0.024
1.078,-0.015,-0.059,-0.044,0.039,0.015,-0.054,-0.005,-0.044,-0.024,-0.005,-0.015,-0.01
1.08,-0.02,-0.059,-0.039,0.039,0.01,-0.049,-0.015,-0.059,-0.029,-0.005,-0.02,-0.015
1.082,-0.015,-0.044,-0.029,0.029,0.005,-0.039,-0.01,-0.059,-0.034,-0.005,-0.02,-0.01
1.084,-0.01,-0.029,-0.02,0.02,0.005,-0.024,-0.02,-0.073,-0.044,-0.015,-0.029,-0.02
1.086,-0.01,-0.039,-0.029,0.024,0.01,-0.034,-0.024,-0.068,-0.039,-0.02,-0.034,-0.02
1.088,-0.01,-0.024,-0.015,0.02,0.0,-0.02,-0.024,-0.063,-0.044,-0.024,-0.029,-0.015
1.09,-0.015,-0.024,-0.01,0.02,-0.005,-0.02,-0.029,-0.068,-0.049,-0.029,-0.034,-0.029
1.092,-0.015,-0.034,-0.02,0.024,0.0,-0.029,-0.024,-0.068,-0.044,-0.024,-0.034,-0.024
1.094,-0.015,-0.039,-0.024,0.029,0.005,-0.034,-0.02,-0.063,-0.039,-0.024,-0.034,-0.024
1.096,-0.029,-0.054,-0.024,0.044,-0.005,-0.039,-0.02,-0.063,-0.039,-0.015,-0.029,-0.034
1.098,-0.024,-0.054,-0.029,0.039,0.0,-0.044,-0.015,-0.059,-0.039,-0.01,-0.024,-0.024
1.1,-0.02,-0.044,-0.024,0.034,0.0,-0.034,-0.015,-0.068,-0.039,-0.015,-0.029,-0.029
1.102,-0.029,-0.054,-0.024,0.044,-0.005,-0.039,-0.02,-0.068,-0.044,-0.02,-0.024,-0.034
1.104,-0.029,-0.044,-0.015,0.039,-0.01,-0.029,-0.024,-0.068,-0.039,-0.015,-0.02,-0.024
1.106,-0.024,-0.044,-0.02,0.034,-0.005,-0.034,-0.029,-0.073,-0.044,-0.02,-0.024,-0.024
1.108,-0.015,-0.044,-0.029,0.029,0.005,-0.039,-0.029,-0.068,-0.044,-0.015,-0.024,-0.015
1.11,-0.015,-0.044,-0.029,0.029,0.005,-0.039,-0.029,-0.063,-0.039,-0.015,-0.02,-0.015
1.112,-0.02,-0.044,-0.024,0.034,0.0,-0.034,-0.034,-0.073,-0.044,-0.015,-0.024,-0.024
1.114,-0.015,-0.049,-0.034,0.034,0.01,-0.044,-0.029,-0.063,-0.034,-0.015,-0.02,-0.024
1.116,-0.02,-0.054,-0.034,0.039,0.005,-0.044,-0.024,-0.063,-0.044,-0.02,-0.015,-0.024
1.118,-0.024,-0.073,-0.049,0.049,0.01,-0.063,-0.024,-0.068,-0.044,-0.02,-0.02,-0.02
1.12,-0.024,-0.054,-0.029,0.039,0.0,-0.044,-0.024,-0.068,-0.044,-0.02,-0.024,-0.02
1.122,-0.029,-0.063,-0.034,0.049,0.0,-0.049,-0.02,-0.068,-0.044,-0.02,-0.024,-0.015
1.124,-0.029,-0.063,-0.034,0.049,0.0,-0.049,-0.034,-0.073,-0.054,-0.024,-0.034,-0.02
1.126,-0.024,-0.059,-0.034,0.044,0.005,-0.049,-0.034,-0.073,-0.054,-0.029,-0.034,-0.02
1.128,-0.029,-0.063,-0.034,0.049,0.0,-0.049,-0.029,-0.063,-0.049,-0.029,-0.029,-0.015
1.13,-0.02,-0.059,-0.039,0.039,0.01,-0.049,-0.024,-0.059,-0.044,-0.029,-0.02,-0.024
1.132,-0.02,-0.049,-0.029,0.034,0.005,-0.039,-0.034,-0.068,-0.054,-0.029,-0.024,-0.034
1.134,-0.024,-0.063,-0.039,0.044,0.005,-0.054,-0.034,-0.063,-0.044,-0.029,-0.029,-0.029
1.136,-0.024,-0.054,-0.029,0.039,0.0,-0.044,-0.024,-0.059,-0.039,-0.015,-0.02,-0.024
1.138,-0.02,-0.049,-0.029,0.034,0.005,-0.039,-0.029,-0.068,-0.044,-0.024,-0.024,-0.029
1.14,-0.02,-0.044,-0.024,0.034,0.0,-0.034,-0.029,-0.073,-0.049,-0.029,-0.029,-0.029
1.142,-0.02,-0.044,-0.024,0.034,0.0,-0.034,-0.029,-0.073,-0.044,-0.029,-0.024,-0.029
1.144,-0.029,-0.054,-0.024,0.044,-0.005,-0.039,-0.039,-0.078,-0.059,-0.039,-0.029,-0.029
1.146,-0.02,-0.054,-0.034,0.039,0.005,-0.044,-0.044,-0.083,-0.063,-0.044,-0.039,-0.034
1.148,-0.024,-0.054,-0.029,0.039,0.0,-0.044,-0.039,-0.073,-0.059,-0.039,-0.024,-0.024
1.15,-0.02,-0.054,-0.034,0.039,0.005,-0.044,-0.034,-0.073,-0.059,-0.034,-0.024,-0.029
1.152,-0.015,-0.049,-0.034,0.034,0.01,-0.044,-0.029,-0.068,-0.054,-0.029,-0.02,-0.024
1.154,-0.029,-0.059,-0.029,0.044,0.0,-0.044,-0.029,-0.068,-0.054,-0.034,-0.029,-0.024
1.156,-0.024,-0.059,-0.034,0.044,0.005,-0.049,-0.029,-0.068,-0.054,-0.029,-0.034,-0.029
1.158,-0.015,-0.044,-0.029,0.029,0.005,-0.039,-0.029,-0.073,-0.059,-0.034,-0.039,-0.034
1.16,-0.015,-0.044,-0.029,0.029,0.005,-0.039,-0.039,-0.083,-0.068,-0.034,-0.039,-0.034
1.162,-0.02,-0.044,-0.024,0.034,0.0,-0.034,-0.034,-0.078,-0.059,-0.034,-0.034,-0.029
1.164,-0.024,-0.049,-0.024,0.039,0.0,-0.039,-0.049,-0.083,-0.073,-0.044,-0.039,-0.039
1.166,-0.02,-0.054,-0.034,0.039,0.005,-0.044,-0.049,-0.088,-0.068,-0.044,-0.039,-0.049
1.168,-0.02,-0.049,-0.029,0.034,0.005,-0.039,-0.049,-0.083,-0.068,-0.039,-0.034,-0.044
1.17,-0.039,-0.063,-0.024,0.054,-0.01,-0.044,-0.039,-0.078,-0.068,-0.044,-0.034,-0.029
1.172,-0.039,-0.073,-0.034,0.059,-0.005,-0.054,-0.039,-0.073,-0.063,-0.039,-0.029,-0.029
1.174,-0.034,-0.078,-0.044,0.059,0.005,-0.063,-0.034,-0.068,-0.054,-0.034,-0.024,-0.029
1.176,-0.039,-0.073,-0.034,0.059,-0.005,-0.054,-0.029,-0.068,-0.054,-0.034,-0.029,-0.034
1.178,-0.029,-0.059,-0.029,0.044,0.0,-0.044,-0.034,-0.073,-0.059,-0.034,-0.029,-0.029
1.18,-0.039,-0.049,-0.01,0.044,-0.015,-0.029,-0.039,-0.078,-0.063,-0.029,-0.024,-0.024
1.182,-0.029,-0.054,-0.024,0.044,-0.005,-0.039,-0.039,-0.078,-0.068,-0.034,-0.029,-0.034
1.184,-0.024,-0.049,-0.024,0.039,0.0,-0.039,-0.049,-0.083,-0.073,-0.039,-0.039,-0.034
1.186,-0.034,-0.063,-0.029,0.049,-0.005,-0.049,-0.049,-0.083,-0.068,-0.039,-0.029,-0.029
1.188,-0.029,-0.059,-0.029,0.044,0.0,-0.044,-0.049,-0.078,-0.068,-0.044,-0.034,-0.039
1.19,-0.024,-0.059,-0.034,0.044,0.005,-0.049,-0.044,-0.078,-0.063,-0.039,-0.034,-0.044
1.192,-0.039,-0.078,-0.039,0.059,0.0,-0.059,-0.049,-0.083,-0.063,-0.039,-0.039,-0.044
1.194,-0.034,-0.088,-0.054,0.063,0.01,-0.073,-0.039,-0.073,-0.049,-0.029,-0.029,-0.034
1.196,-0.024,-0.078,-0.054,0.054,0.015,-0.068,-0.044,-0.073,-0.059,-0.034,-0.039,-0.039
1.198,-0.029,-0.073,-0.044,0.054,0.005,-0.059,-0.039,-0.073,-0.063,-0.039,-0.034,-0.034
1.2,-0.02,-0.049,-0.029,0.034,0.005,-0.039,-0.044,-0.078,-0.063,-0.039,-0.034,-0.024
1.202,-0.024,-0.054,-0.029,0.039,0.0,-0.044,-0.039,-0.078,-0.068,-0.039,-0.034,-0.024
1.204,-0.02,-0.044,-0.024,0.034,0.0,-0.034,-0.049,-0.083,-0.073,-0.039,-0.034,-0.024
1.206,-0.02,-0.044,-0.024,0.034,0.0,-0.034,-0.054,-0.088,-0.073,-0.044,-0.039,-0.034
1.208,-0.024,-0.044,-0.02,0.034,-0.005,-0.034,-0.054,-0.083,-0.073,-0.044,-0.034,-0.034
1.21,-0.02,-0.044,-0.024,0.034,0.0,-0.034,-0.054,-0.083,-0.073,-0.044,-0.039,-0.039
1.212,-0.024,-0.059,-0.034,0.044,0.005,-0.049,-0.054,-0.078,-0.068,-0.039,-0.039,-0.044
1.214,-0.024,-0.078,-0.054,0.054,0.015,-0.068,-0.049,-0.078,-0.063,-0.039,-0.039,-0.044
1.216,-0.02,-0.059,-0.039,0.039,0.01,-0.049,-0.049,-0.083,-0.063,-0.034,-0.034,-0.034
1.218,-0.029,-0.068,-0.039,0.049,0.005,-0.054,-0.039,-0.073,-0.059,-0.029,-0.024,-0.034
1.22,-0.02,-0.049,-0.029,0.034,0.005,-0.039,-0.044,-0.083,-0.063,-0.029,-0.034,-0.034
1.222,-0.02,-0.044,-0.024,0.034,0.0,-0.034,-0.044,-0.088,-0.073,-0.034,-0.034,-0.034
1.224,-0.024,-0.039,-0.015,0.034,-0.005,-0.029,-0.054,-0.093,-0.078,-0.044,-0.039,-0.039
1.226,-0.02,-0.029,-0.01,0.024,-0.005,-0.02,-0.054,-0.093,-0.073,-0.044,-0.044,-0.029
1.228,-0.015,-0.024,-0.01,0.02,-0.005,-0.02,-0.059,-0.098,-0.078,-0.049,-0.054,-0.044
1.23,-0.02,-0.039,-0.02,0.029,0.0,-0.029,-0.054,-0.088,-0.078,-0.049,-0.044,-0.044
1.232,-0.015,-0.034,-0.02,0.024,0.0,-0.029,-0.059,-0.093,-0.073,-0.044,-0.049,-0.044
1.234,-0.024,-0.054,-0.029,0.039,0.0,-0.044,-0.049,-0.083,-0.063,-0.039,-0.044,-0.039
1.236,-0.02,-0.049,-0.029,0.034,0.005,-0.039,-0.039,-0.078,-0.068,-0.039,-0.039,-0.039
1.238,-0.029,-0.054,-0.024,0.044,-0.005,-0.039,-0.039,-0.078,-0.063,-0.039,-0.039,-0.029
1.24,-0.034,-0.063,-0.029,0.049,-0.005,-0.049,-0.049,-0.078,-0.068,-0.034,-0.044,-0.034
1.242,-0.029,-0.054,-0.024,0.044,-0.005,-0.039,-0.039,-0.078,-0.068,-0.034,-0.034,-0.029
1.244,-0.024,-0.039,-0.015,0.034,-0.005,-0.029,-0.054,-0.093,-0.078,-0.039,-0.044,-0.044
1.246,-0.024,-0.034,-0.01,0.029,-0.01,-0.024,-0.054,-0.088,-0.068,-0.044,-0.044,-0.044
1.248,-0.015,-0.02,-0.005,0.02,-0.005,-0.015,-0.054,-0.088,-0.073,-0.044,-0.039,-0.039
1.25,-0.02,-0.024,-0.005,0.024,-0.01,-0.015,-0.059,-0.088,-0.068,-0.044,-0.039,-0.044
1.252,-0.02,-0.029,-0.01,0.024,-0.005,-0.02,-0.054,-0.083,-0.068,-0.039,-0.039,-0.044
1.254,-0.024,-0.044,-0.02,0.034,-0.005,-0.034,-0.044,-0.083,-0.063,-0.034,-0.039,-0.029
1.256,-0.029,-0.054,-0.024,0.044,-0.005,-0.039,-0.039,-0.078,-0.063,-0.039,-0.039,-0.024
1.258,-0.024,-0.039,-0.015,0.034,-0.005,-0.029,-0.044,-0.083,-0.068,-0.044,-0.034,-0.034
1.26,-0.029,-0.034,-0.005,0.034,-0.015,-0.02,-0.049,-0.088,-0.068,-0.044,-0.044,-0.034
1.262,-0.034,-0.044,-0.01,0.039,-0.015,-0.029,-0.049,-0.083,-0.063,-0.039,-0.034,-0.034
1.264,-0.029,-0.029,0.0,0.029,-0.015,-0.015,-0.054,-0.088,-0.068,-0.039,-0.034,-0.039
1.266,-0.029,-0.034,-0.005,0.034,-0.015,-0.02,-0.054,-0.088,-0.063,-0.039,-0.034,-0.034
1.268,-0.02,-0.024,-0.005,0.024,-0.01,-0.015,-0.059,-0.083,-0.068,-0.044,-0.034,-0.034
1.27,-0.024,-0.02,0.005,0.024,-0.015,-0.01,-0.059,-0.083,-0.068,-0.049,-0.039,-0.034
1.272,-0.024,-0.029,-0.005,0.029,-0.01,-0.02,-0.054,-0.088,-0.068,-0.049,-0.039,-0.039
1.274,-0.02,-0.02,0.0,0.02,-0.01,-0.01,-0.044,-0.078,-0.063,-0.044,-0.034,-0.039
1.276,-0.02,-0.01,0.01,0.015,-0.015,0.0,-0.044,-0.083,-0.063,-0.039,-0.039,-0.049
1.278,-0.024,-0.01,0.015,0.02,-0.02,0.0,-0.039,-0.088,-0.059,-0.034,-0.029,-0.039
1.28,-0.02,-0.005,0.015,0.015,-0.02,0.005,-0.049,-0.098,-0.068,-0.044,-0.034,-0.044
1.282,-0.024,-0.024,0.0,0.024,-0.015,-0.015,-0.054,-0.098,-0.068,-0.049,-0.039,-0.034
1.284,-0.024,-0.02,0.005,0.024,-0.015,-0.01,-0.059,-0.093,-0.068,-0.049,-0.039,-0.044
1.286,-0.02,-0.015,0.005,0.02,-0.015,-0.005,-0.059,-0.093,-0.068,-0.044,-0.039,-0.044
1.288,-0.02,-0.02,0.0,0.02,-0.01,-0.01,-0.049,-0.093,-0.068,-0.049,-0.039,-0.029
1.29,-0.02,-0.005,0.015,0.015,-0.02,0.005,-0.044,-0.088,-0.063,-0.044,-0.039,-0.034
1.292,-0.02,0.0,0.02,0.01,-0.02,0.01,-0.049,-0.093,-0.063,-0.044,-0.034,-0.044
1.294,-0.01,-0.005,0.005,0.01,-0.01,0.0,-0.049,-0.093,-0.063,-0.044,-0.029,-0.044
1.296,-0.005,0.005,0.01,0.0,-0.01,0.005,-0.049,-0.088,-0.063,-0.039,-0.029,-0.044
1.298,-0.015,0.0,0.015,0.01,-0.015,0.005,-0.049,-0.093,-0.068,-0.039,-0.034,-0.049
1.3,-0.015,0.005,0.02,0.005,-0.02,0.01,-0.049,-0.098,-0.068,-0.044,-0.034,-0.039
1.302,-0.02,-0.005,0.015,0.015,-0.02,0.005,-0.054,-0.088,-0.068,-0.044,-0.034,-0.034
1.304,-0.024,0.0,0.024,0.015,-0.024,0.01,-0.054,-0.093,-0.073,-0.039,-0.034,-0.044
1.306,-0.015,0.005,0.02,0.005,-0.02,0.01,-0.049,-0.098,-0.073,-0.044,-0.029,-0.034
1.308,-0.024,0.0,0.024,0.015,-0.024,0.01,-0.054,-0.098,-0.068,-0.044,-0.034,-0.034
1.31,-0.029,-0.02,0.01,0.024,-0.02,-0.005,-0.044,-0.088,-0.068,-0.044,-0.029,-0.039
1.312,-0.02,-0.01,0.01,0.015,-0.015,0.0,-0.049,-0.093,-0.068,-0.044,-0.034,-0.054
1.314,-0.029,-0.02,0.01,0.024,-0.02,-0.005,-0.034,-0.078,-0.059,-0.034,-0.024,-0.039
1.316,-0.01,-0.005,0.005,0.01,-0.01,0.0,-0.049,-0.083,-0.059,-0.039,-0.029,-0.044
1.318,-0.01,0.01,0.02,0.0,-0.015,0.015,-0.049,-0.093,-0.063,-0.039,-0.034,-0.049
1.32,-0.015,0.005,0.02,0.005,-0.02,0.01,-0.044,-0.093,-0.059,-0.039,-0.034,-0.039
1.322,-0.015,0.01,0.024,0.005,-0.02,0.015,-0.044,-0.093,-0.063,-0.039,-0.029,-0.034
1.324,-0.029,0.0,0.029,0.015,-0.029,0.015,-0.054,-0.098,-0.068,-0.044,-0.034,-0.044
1.326,-0.02,0.0,0.02,0.01,-0.02,0.01,-0.044,-0.093,-0.063,-0.044,-0.024,-0.034
1.328,-0.02,0.005,0.024,0.01,-0.024,0.015,-0.054,-0.098,-0.068,-0.044,-0.029,-0.039
1.33,-0.029,-0.015,0.015,0.024,-0.024,0.0,-0.049,-0.088,-0.059,-0.044,-0.029,-0.039
1.332,-0.024,-0.01,0.015,0.02,-0.02,0.0,-0.044,-0.088,-0.054,-0.029,-0.029,-0.039
1.334,-0.029,-0.01,0.02,0.02,-0.024,0.005,-0.034,-0.083,-0.054,-0.024,-0.02,-0.039
1.336,-0.02,0.0,0.02,0.01,-0.02,0.01,-0.034,-0.083,-0.044,-0.024,-0.024,-0.039
1.338,-0.01,0.02,0.029,-0.005,-0.02,0.024,-0.029,-0.083,-0.049,-0.02,-0.024,-0.034
1.34,-0.01,0.02,0.029,-0.005,-0.02,0.024,-0.034,-0.088,-0.049,-0.024,-0.024,-0.034
1.342,-0.01,0.029,0.039,-0.01,-0.024,0.034,-0.029,-0.088,-0.049,-0.024,-0.024,-0.029
1.344,-0.005,0.049,0.054,-0.02,-0.029,0.049,-0.034,-0.093,-0.044,-0.024,-0.024,-0.024
1.346,-0.005,0.054,0.059,-0.024,-0.034,0.054,-0.034,-0.088,-0.044,-0.029,-0.024,-0.024
1.348,-0.005,0.063,0.068,-0.029,-0.039,0.063,-0.034,-0.083,-0.044,-0.024,-0.02,-0.024
1.35,-0.005,0.054,0.059,-0.024,-0.034,0.054,-0.024,-0.073,-0.039,-0.02,-0.01,-0.034
1.352,-0.005,0.049,0.054,-0.02,-0.029,0.049,-0.024,-0.073,-0.034,-0.015,-0.01,-0.024
1.354,0.0,0.059,0.059,-0.029,-0.029,0.059,-0.015,-0.063,-0.029,-0.01,0.0,-0.02
1.356,-0.01,0.049,0.059,-0.02,-0.034,0.054,-0.005,-0.054,-0.015,0.005,0.01,-0.015
1.358,-0.005,0.068,0.073,-0.029,-0.039,0.068,-0.005,-0.054,-0.01,0.01,0.01,-0.01
1.36,0.01,0.078,0.068,-0.044,-0.029,0.073,-0.02,-0.068,-0.015,0.0,0.0,-0.01
1.362,0.02,0.083,0.063,-0.049,-0.024,0.073,-0.02,-0.063,-0.02,0.005,0.0,-0.015
1.364,0.024,0.098,0.073,-0.059,-0.024,0.083,-0.015,-0.059,-0.015,0.01,0.01,-0.01
1.366,0.024,0.102,0.078,-0.063,-0.029,0.088,-0.024,-0.063,-0.02,0.005,0.015,-0.015
1.368,0.015,0.093,0.078,-0.054,-0.034,0.083,-0.034,-0.063,-0.02,0.0,0.01,-0.01
1.37,0.015,0.088,0.073,-0.049,-0.029,0.078,-0.029,-0.063,-0.02,0.005,0.01,-0.015
1.372,0.015,0.073,0.059,-0.044,-0.024,0.063,-0.039,-0.063,-0.015,0.005,0.01,-0.01
1.374,0.024,0.083,0.059,-0.054,-0.02,0.068,-0.034,-0.063,-0.005,0.01,0.015,-0.01
1.376,0.024,0.083,0.059,-0.054,-0.02,0.068,-0.039,-0.059,-0.005,0.015,0.015,-0.005
1.378,0.015,0.078,0.063,-0.044,-0.024,0.068,-0.044,-0.063,-0.01,0.02,0.01,-0.015
1.38,0.01,0.083,0.073,-0.044,-0.034,0.078,-0.044,-0.063,-0.005,0.02,0.024,0.0
1.382,0.015,0.088,0.073,-0.049,-0.029,0.078,-0.049,-0.063,-0.01,0.02,0.024,-0.005
1.384,0.029,0.102,0.073,-0.063,-0.024,0.088,-0.049,-0.059,-0.005,0.024,0.024,0.005
1.386,0.034,0.122,0.088,-0.078,-0.029,0.102,-0.054,-0.063,-0.005,0.02,0.024,-0.005
1.388,0.034,0.117,0.083,-0.073,-0.024,0.098,-0.059,-0.068,-0.005,0.02,0.024,0.005
1.39,0.039,0.122,0.083,-0.078,-0.024,0.102,-0.059,-0.068,-0.005,0.024,0.029,0.01
1.392,0.039,0.117,0.078,-0.078,-0.02,0.098,-0.068,-0.073,-0.005,0.024,0.029,0.02
1.394,0.034,0.107,0.073,-0.068,-0.02,0.088,-0.063,-0.068,-0.005,0.039,0.034,0.02
1.396,0.039,0.107,0.068,-0.073,-0.015,0.088,-0.068,-0.068,-0.005,0.034,0.039,0.024
1.398,0.034,0.098,0.063,-0.063,-0.015,0.078,-0.073,-0.078,-0.01,0.029,0.034,0.015
1.4,0.034,0.078,0.044,-0.054,-0.005,0.059,-0.078,-0.083,-0.015,0.024,0.029,0.01
1.402,0.039,0.078,0.039,-0.059,0.0,0.059,-0.073,-0.088,-0.015,0.02,0.029,0.015
1.404,0.034,0.073,0.039,-0.054,-0.005,0.054,-0.083,-0.093,-0.029,0.01,0.02,0.005
1.406,0.039,0.083,0.044,-0.059,-0.005,0.063,-0.073,-0.093,-0.02,0.01,0.02,0.0
1.408,0.039,0.083,0.044,-0.059,-0.005,0.063,-0.073,-0.088,-0.02,0.005,0.015,0.005
1.41,0.029,0.068,0.039,-0.049,-0.005,0.054,-0.068,-0.088,-0.02,0.005,0.015,-0.005
1.412,0.039,0.073,0.034,-0.054,0.0,0.054,-0.068,-0.083,-0.02,0.015,0.024,0.0
1.414,0.039,0.073,0.034,-0.054,0.0,0.054,-0.063,-0.088,-0.024,0.01,0.024,0.005
1.416,0.039,0.059,0.02,-0.049,0.01,0.039,-0.068,-0.083,-0.024,0.01,0.015,0.0
1.418,0.039,0.063,0.024,-0.049,0.005,0.044,-0.063,-0.083,-0.024,0.01,0.02,-0.005
1.42,0.034,0.049,0.015,-0.039,0.01,0.029,-0.068,-0.088,-0.024,0.005,0.02,0.0
1.422,0.039,0.054,0.015,-0.044,0.01,0.034,-0.063,-0.088,-0.02,0.01,0.024,0.0
1.424,0.034,0.059,0.024,-0.044,0.005,0.039,-0.068,-0.093,-0.024,0.01,0.024,0.0
1.426,0.029,0.063,0.034,-0.044,-0.005,0.049,-0.068,-0.102,-0.024,0.005,0.02,0.0
1.428,0.029,0.063,0.034,-0.044,-0.005,0.049,-0.068,-0.102,-0.029,0.0,0.02,0.005
1.43,0.015,0.044,0.029,-0.029,-0.01,0.034,-0.068,-0.102,-0.044,-0.005,0.015,-0.01
1.432,0.01,0.034,0.024,-0.02,-0.01,0.029,-0.063,-0.102,-0.044,-0.005,0.01,-0.01
1.434,0.01,0.044,0.034,-0.024,-0.015,0.039,-0.059,-0.102,-0.044,-0.01,0.005,-0.015
1.436,0.0,0.034,0.034,-0.015,-0.02,0.034,-0.054,-0.098,-0.044,-0.01,0.0,-0.005
1.438,-0.005,0.034,0.039,-0.015,-0.024,0.034,-0.054,-0.098,-0.044,-0.01,0.0,-0.02
1.44,-0.02,0.024,0.044,0.0,-0.034,0.034,-0.054,-0.098,-0.044,-0.01,0.0,-0.015
1.442,-0.024,0.015,0.039,0.005,-0.034,0.024,-0.049,-0.098,-0.049,-0.015,0.0,-0.02
1.444,-0.02,0.015,0.034,0.005,-0.029,0.024,-0.059,-0.098,-0.049,-0.02,-0.005,-0.02
1.446,-0.02,0.005,0.024,0.01,-0.024,0.015,-0.059,-0.107,-0.049,-0.029,-0.015,-0.029
1.448,-0.02,-0.015,0.005,0.02,-0.015,-0.005,-0.063,-0.102,-0.049,-0.029,-0.015,-0.024
1.45,-0.015,-0.01,0.005,0.015,-0.01,-0.005,-0.049,-0.088,-0.044,-0.024,-0.01,-0.029
1.452,-0.015,-0.01,0.005,0.015,-0.01,-0.005,-0.054,-0.093,-0.049,-0.02,-0.005,-0.029
1.454,-0.005,-0.005,0.0,0.005,-0.005,-0.005,-0.049,-0.098,-0.049,-0.02,-0.01,-0.029
1.456,0.0,0.0,0.0,0.0,0.0,0.0,-0.054,-0.102,-0.054,-0.024,-0.015,-0.039
1.458,-0.02,-0.005,0.015,0.015,-0.02,0.005,-0.044,-0.102,-0.054,-0.024,-0.015,-0.029
1.46,-0.015,-0.005,0.01,0.01,-0.015,0.0,-0.059,-0.112,-0.063,-0.034,-0.024,-0.039
1.462,-0.02,-0.02,0.0,0.02,-0.01,-0.01,-0.049,-0.102,-0.059,-0.029,-0.02,-0.039
1.464,-0.015,-0.015,0.0,0.015,-0.01,-0.01,-0.054,-0.107,-0.059,-0.029,-0.02,-0.029
1.466,-0.015,-0.01,0.005,0.015,-0.01,-0.005,-0.049,-0.112,-0.063,-0.029,-0.02,-0.024
1.468,-0.02,-0.024,-0.005,0.024,-0.01,-0.015,-0.059,-0.107,-0.063,-0.034,-0.024,-0.034
1.47,-0.02,-0.029,-0.01,0.024,-0.005,-0.02,-0.039,-0.098,-0.054,-0.024,-0.01,-0.029
1.472,-0.024,-0.024,0.0,0.024,-0.015,-0.015,-0.044,-0.098,-0.054,-0.024,-0.01,-0.029
1.474,-0.02,-0.024,-0.005,0.024,-0.01,-0.015,-0.034,-0.093,-0.054,-0.02,-0.01,-0.024
1.476,-0.015,-0.02,-0.005,0.02,-0.005,-0.015,-0.034,-0.083,-0.044,-0.015,-0.005,-0.01
1.478,-0.024,-0.02,0.005,0.024,-0.015,-0.01,-0.034,-0.098,-0.049,-0.02,-0.01,-0.024
1.48,-0.024,-0.024,0.0,0.024,-0.015,-0.015,-0.039,-0.098,-0.049,-0.024,-0.01,-0.029
1.482,-0.02,-0.01,0.01,0.015,-0.015,0.0,-0.034,-0.098,-0.049,-0.02,-0.01,-0.024
1.484,-0.024,-0.015,0.01,0.02,-0.02,-0.005,-0.044,-0.102,-0.054,-0.024,-0.015,-0.024
1.486,-0.02,-0.01,0.01,0.015,-0.015,0.0,-0.034,-0.102,-0.059,-0.024,-0.01,-0.02
1.488,-0.02,-0.024,-0.005,0.024,-0.01,-0.015,-0.039,-0.098,-0.054,-0.02,-0.02,-0.024
1.49,-0.024,-0.029,-0.005,0.029,-0.01,-0.02,-0.039,-0.098,-0.054,-0.02,-0.015,-0.034
1.492,-0.024,-0.029,-0.005,0.029,-0.01,-0.02,-0.034,-0.093,-0.054,-0.02,-0.015,-0.029
1.494,-0.034,-0.034,0.0,0.034,-0.02,-0.02,-0.024,-0.088,-0.044,-0.015,-0.01,-0.02
1.496,-0.024,-0.024,0.0,0.024,-0.015,-0.015,-0.029,-0.083,-0.044,-0.01,-0.01,-0.02
1.498,-0.015,-0.02,-0.005,0.02,-0.005,-0.015,-0.029,-0.093,-0.049,-0.015,-0.02,-0.029
1.5,-0.024,-0.029,-0.005,0.029,-0.01,-0.02,-0.024,-0.093,-0.049,-0.015,-0.02,-0.02
1.502,-0.024,-0.01,0.015,0.02,-0.02,0.0,-0.02,-0.083,-0.044,-0.01,-0.015,-0.024
1.504,-0.02,0.005,0.024,0.01,-0.024,0.015,-0.024,-0.088,-0.049,-0.015,-0.015,-0.02
1.506,-0.02,0.0,0.02,0.01,-0.02,0.01,-0.024,-0.093,-0.054,-0.024,-0.015,-0.02
1.508,-0.02,-0.01,0.01,0.015,-0.015,0.0,-0.024,-0.088,-0.049,-0.02,-0.01,-0.02
1.51,-0.029,-0.02,0.01,0.024,-0.02,-0.005,-0.024,-0.088,-0.054,-0.02,-0.02,-0.029
1.512,-0.024,-0.024,0.0,0.024,-0.015,-0.015,-0.02,-0.088,-0.044,-0.015,-0.015,-0.02
1.514,-0.024,-0.02,0.005,0.024,-0.015,-0.01,-0.01,-0.083,-0.039,-0.015,-0.015,-0.015
1.516,-0.039,-0.034,0.005,0.039,-0.024,-0.015,-0.005,-0.068,-0.029,-0.005,-0.01,-0.02
1.518,-0.034,-0.02,0.015,0.029,-0.024,-0.005,0.0,-0.063,-0.024,0.0,-0.01,-0.02
1.52,-0.034,-0.005,0.029,0.02,-0.034,0.01,0.01,-0.054,-0.005,0.005,-0.01,-0.01
1.522,-0.039,0.01,0.049,0.015,-0.044,0.029,0.034,-0.005,0.039,0.034,0.0,-0.01
1.524,-0.034,0.039,0.073,0.0,-0.054,0.054,0.059,0.073,0.107,0.068,0.01,-0.015
1.526,-0.024,0.044,0.068,-0.01,-0.049,0.054,0.083,0.156,0.2,0.137,0.034,0.0
1.528,0.01,0.054,0.044,-0.029,-0.02,0.049,0.078,0.234,0.312,0.234,0.098,0.024
1.53,0.049,0.078,0.029,-0.063,0.01,0.054,0.059,0.283,0.434,0.39,0.205,0.083
1.532,0.098,0.102,0.005,-0.098,0.044,0.054,0.039,0.356,0.586,0.576,0.332,0.161
1.534,0.166,0.146,-0.02,-0.156,0.093,0.063,0.044,0.483,0.795,0.8,0.468,0.224
1.536,0.234,0.176,-0.059,-0.205,0.146,0.059,0.059,0.644,1.044,1.049,0.62,0.303
1.538,0.317,0.22,-0.098,-0.268,0.205,0.059,0.039,0.752,1.274,1.308,0.791,0.4
1.54,0.42,0.303,-0.117,-0.361,0.268,0.093,-0.01,0.752,1.42,1.537,0.976,0.522
1.542,0.512,0.342,-0.171,-0.425,0.342,0.083,-0.078,0.61,1.43,1.679,1.118,0.61
1.544,0.576,0.405,-0.171,-0.488,0.371,0.117,-0.156,0.332,1.318,1.728,1.205,0.688
1.546,0.62,0.493,-0.127,-0.556,0.371,0.181,-0.268,-0.049,1.098,1.713,1.288,0.781
1.548,0.644,0.571,-0.073,-0.605,0.356,0.249,-0.366,-0.376,0.82,1.581,1.303,0.849
1.55,0.634,0.654,0.02,-0.644,0.307,0.337,-0.4,-0.595,0.551,1.381,1.259,0.878
1.552,0.605,0.673,0.068,-0.639,0.268,0.371,-0.41,-0.766,0.254,1.088,1.137,0.854
1.554,0.571,0.62,0.049,-0.595,0.259,0.332,-0.4,-0.932,-0.078,0.747,0.976,0.786
1.556,0.522,0.561,0.039,-0.542,0.239,0.298,-0.4,-1.142,-0.454,0.371,0.781,0.708
1.558,0.4,0.459,0.059,-0.429,0.171,0.259,-0.381,-1.41,-0.888,-0.049,0.542,0.595
1.56,0.268,0.395,0.127,-0.332,0.068,0.259,-0.317,-1.625,-1.269,-0.434,0.312,0.488
1.562,0.127,0.351,0.224,-0.239,-0.049,0.288,-0.229,-1.703,-1.454,-0.654,0.156,0.4
1.564,0.024,0.312,0.288,-0.166,-0.132,0.298,-0.166,-1.679,-1.454,-0.708,0.068,0.332
1.566,-0.063,0.278,0.342,-0.107,-0.205,0.307,-0.112,-1.606,-1.405,-0.747,-0.039,0.244
1.568,-0.137,0.249,0.386,-0.054,-0.264,0.317,-0.083,-1.513,-1.342,-0.761,-0.127,0.161
1.57,-0.166,0.21,0.376,-0.02,-0.273,0.293,-0.083,-1.415,-1.249,-0.732,-0.166,0.107
1.572,-0.166,0.181,0.346,-0.005,-0.259,0.264,-0.171,-1.327,-1.166,-0.698,-0.195,0.059
1.574,-0.181,0.156,0.337,0.015,-0.259,0.244,-0.293,-1.249,-1.069,-0.654,-0.21,0.02
1.576,-0.171,0.137,0.307,0.02,-0.239,0.22,-0.317,-1.118,-0.952,-0.595,-0.21,-0.005
1.578,-0.166,0.117,0.283,0.024,-0.224,0.2,-0.293,-0.981,-0.844,-0.537,-0.21,-0.024
1.58,-0.166,0.102,0.268,0.034,-0.22,0.185,-0.254,-0.849,-0.737,-0.483,-0.195,-0.039
1.582,-0.142,0.102,0.244,0.02,-0.195,0.171,-0.21,-0.703,-0.615,-0.415,-0.166,-0.039
1.584,-0.127,0.083,0.21,0.024,-0.171,0.146,-0.181,-0.571,-0.512,-0.351,-0.156,-0.034
1.586,-0.112,0.068,0.181,0.024,-0.146,0.122,-0.151,-0.449,-0.405,-0.283,-0.137,-0.029
1.588,-0.093,0.063,0.156,0.015,-0.127,0.107,-0.122,-0.351,-0.307,-0.215,-0.107,-0.024
1.59,-0.078,0.054,0.132,0.015,-0.107,0.093,-0.107,-0.273,-0.234,-0.171,-0.093,-0.029
1.592,-0.063,0.049,0.112,0.01,-0.088,0.078,-0.068,-0.2,-0.176,-0.127,-0.073,-0.029
1.594,-0.054,0.029,0.083,0.015,-0.068,0.054,-0.059,-0.171,-0.151,-0.107,-0.068,-0.029
1.596,-0.049,0.005,0.054,0.024,-0.054,0.029,-0.044,-0.142,-0.127,-0.093,-0.059,-0.029
1.598,-0.049,-0.01,0.039,0.029,-0.044,0.015,-0.034,-0.122,-0.117,-0.083,-0.059,-0.024
1.6,-0.049,-0.029,0.02,0.039,-0.034,-0.005,-0.029,-0.098,-0.102,-0.078,-0.059,-0.029
1.602,-0.039,-0.039,0.0,0.039,-0.02,-0.02,-0.02,-0.073,-0.083,-0.068,-0.049,-0.024
1.604,-0.039,-0.034,0.005,0.039,-0.024,-0.015,-0.015,-0.049,-0.063,-0.063,-0.049,-0.029
1.606,-0.039,-0.049,-0.01,0.044,-0.015,-0.029,-0.01,-0.029,-0.049,-0.059,-0.059,-0.029
1.608,-0.034,-0.054,-0.02,0.044,-0.01,-0.039,0.005,-0.005,-0.024,-0.054,-0.054,-0.034
1.61,-0.039,-0.063,-0.024,0.054,-0.01,-0.044,0.015,0.015,-0.005,-0.039,-0.049,-0.039
1.612,-0.039,-0.063,-0.024,0.054,-0.01,-0.044,0.029,0.024,0.01,-0.024,-0.044,-0.039
1.614,-0.029,-0.059,-0.029,0.044,0.0,-0.044,0.029,0.034,0.01,-0.015,-0.044,-0.029
1.616,-0.029,-0.063,-0.034,0.049,0.0,-0.049,0.029,0.02,0.01,-0.015,-0.044,-0.034
1.618,-0.024,-0.059,-0.034,0.044,0.005,-0.049,0.024,0.024,0.01,-0.02,-0.039,-0.029
1.62,-0.015,-0.044,-0.029,0.029,0.005,-0.039,0.029,0.029,0.005,-0.02,-0.029,-0.024
1.622,-0.015,-0.049,-0.034,0.034,0.01,-0.044,0.02,0.029,0.0,-0.02,-0.039,-0.024
1.624,-0.01,-0.034,-0.024,0.024,0.005,-0.029,0.015,0.034,0.01,-0.029,-0.044,-0.029
1.626,-0.024,-0.044,-0.02,0.034,-0.005,-0.034,0.01,0.039,0.015,-0.029,-0.049,-0.034
1.628,-0.029,-0.059,-0.029,0.044,0.0,-0.044,0.02,0.049,0.029,-0.024,-0.049,-0.029
1.63,-0.02,-0.059,-0.039,0.039,0.01,-0.049,0.02,0.059,0.029,-0.015,-0.044,-0.039
1.632,-0.024,-0.063,-0.039,0.044,0.005,-0.054,0.029,0.063,0.034,-0.005,-0.039,-0.039
1.634,-0.02,-0.059,-0.039,0.039,0.01,-0.049,0.034,0.059,0.034,0.005,-0.034,-0.034
1.636,-0.015,-0.054,-0.039,0.034,0.01,-0.049,0.029,0.049,0.029,0.0,-0.034,-0.039
1.638,-0.02,-0.054,-0.034,0.039,0.005,-0.044,0.029,0.054,0.029,0.0,-0.029,-0.029
1.64,-0.01,-0.044,-0.034,0.029,0.01,-0.039,0.029,0.049,0.024,-0.005,-0.034,-0.024
1.642,-0.015,-0.044,-0.029,0.029,0.005,-0.039,0.024,0.054,0.024,-0.005,-0.034,-0.024
1.644,-0.024,-0.039,-0.015,0.034,-0.005,-0.029,0.02,0.059,0.029,-0.01,-0.034,-0.024
1.646,-0.02,-0.044,-0.024,0.034,0.0,-0.034,0.02,0.068,0.029,-0.015,-0.044,-0.024
1.648,-0.02,-0.054,-0.034,0.039,0.005,-0.044,0.015,0.068,0.029,-0.015,-0.049,-0.034
1.65,-0.02,-0.063,-0.044,0.044,0.01,-0.054,0.02,0.073,0.044,-0.005,-0.044,-0.034
1.652,-0.02,-0.059,-0.039,0.039,0.01,-0.049,0.024,0.073,0.049,0.005,-0.039,-0.039
1.654,-0.029,-0.073,-0.044,0.054,0.005,-0.059,0.029,0.073,0.049,0.01,-0.034,-0.039
1.656,-0.024,-0.073,-0.049,0.049,0.01,-0.063,0.039,0.073,0.049,0.015,-0.02,-0.029
1.658,-0.015,-0.063,-0.049,0.039,0.015,-0.059,0.039,0.073,0.049,0.015,-0.02,-0.024
1.66,-0.015,-0.063,-0.049,0.039,0.015,-0.059,0.044,0.073,0.049,0.01,-0.02,-0.02
1.662,-0.015,-0.054,-0.039,0.034,0.01,-0.049,0.039,0.078,0.044,0.005,-0.024,-0.02
1.664,-0.015,-0.054,-0.039,0.034,0.01,-0.049,0.034,0.078,0.039,-0.01,-0.034,-0.02
1.666,-0.015,-0.049,-0.034,0.034,0.01,-0.044,0.029,0.088,0.044,-0.005,-0.034,-0.029
1.668,-0.02,-0.059,-0.039,0.039,0.01,-0.049,0.029,0.088,0.049,-0.01,-0.044,-0.034
1.67,-0.02,-0.073,-0.054,0.049,0.015,-0.063,0.034,0.098,0.059,0.005,-0.039,-0.029
1.672,-0.01,-0.063,-0.054,0.039,0.02,-0.059,0.044,0.102,0.073,0.015,-0.029,-0.024
1.674,-0.02,-0.073,-0.054,0.049,0.015,-0.063,0.044,0.107,0.063,0.015,-0.029,-0.034
1.676,-0.024,-0.088,-0.063,0.059,0.02,-0.078,0.049,0.098,0.063,0.015,-0.024,-0.034
1.678,-0.024,-0.083,-0.059,0.054,0.015,-0.073,0.049,0.107,0.063,0.024,-0.02,-0.034
1.68,-0.024,-0.073,-0.049,0.049,0.01,-0.063,0.044,0.102,0.059,0.015,-0.02,-0.034
1.682,-0.015,-0.063,-0.049,0.039,0.015,-0.059,0.039,0.112,0.059,0.015,-0.02,-0.034
1.684,-0.01,-0.054,-0.044,0.034,0.015,-0.049,0.034,0.112,0.059,0.01,-0.029,-0.029
1.686,-0.015,-0.054,-0.039,0.034,0.01,-0.049,0.029,0.122,0.063,0.005,-0.034,-0.034
1.688,-0.01,-0.049,-0.039,0.029,0.015,-0.044,0.039,0.127,0.078,0.015,-0.024,-0.029
1.69,-0.015,-0.054,-0.039,0.034,0.01,-0.049,0.034,0.127,0.078,0.015,-0.034,-0.039
1.692,-0.015,-0.059,-0.044,0.039,0.015,-0.054,0.044,0.132,0.083,0.024,-0.029,-0.039
1.694,-0.015,-0.063,-0.049,0.039,0.015,-0.059,0.044,0.132,0.078,0.02,-0.024,-0.049
1.696,-0.024,-0.083,-0.059,0.054,0.015,-0.073,0.049,0.122,0.078,0.024,-0.024,-0.044
1.698,-0.015,-0.073,-0.059,0.044,0.02,-0.068,0.049,0.132,0.088,0.029,-0.015,-0.034
1.7,-0.01,-0.073,-0.063,0.044,0.024,-0.068,0.049,0.132,0.083,0.029,-0.015,-0.034
1.702,-0.015,-0.078,-0.063,0.049,0.024,-0.073,0.044,0.142,0.083,0.024,-0.015,-0.029
1.704,-0.005,-0.059,-0.054,0.034,0.024,-0.059,0.039,0.146,0.083,0.02,-0.02,-0.024
1.706,-0.015,-0.063,-0.049,0.039,0.015,-0.059,0.039,0.151,0.088,0.015,-0.024,-0.034
1.708,-0.01,-0.063,-0.054,0.039,0.02,-0.059,0.039,0.151,0.083,0.015,-0.034,-0.044
1.71,0.0,-0.054,-0.054,0.029,0.024,-0.054,0.044,0.156,0.098,0.02,-0.029,-0.049
1.712,-0.005,-0.063,-0.059,0.034,0.024,-0.063,0.049,0.156,0.102,0.024,-0.029,-0.039
1.714,-0.01,-0.068,-0.059,0.039,0.024,-0.063,0.049,0.166,0.107,0.024,-0.024,-0.039
1.716,-0.015,-0.078,-0.063,0.049,0.024,-0.073,0.049,0.166,0.102,0.029,-0.024,-0.034
1.718,-0.015,-0.083,-0.068,0.049,0.024,-0.078,0.049,0.166,0.102,0.024,-0.024,-0.039
1.72,-0.01,-0.068,-0.059,0.039,0.024,-0.063,0.054,0.166,0.102,0.029,-0.015,-0.034
1.722,-0.015,-0.078,-0.063,0.049,0.024,-0.073,0.049,0.171,0.098,0.024,-0.015,-0.034
1.724,-0.02,-0.088,-0.068,0.054,0.024,-0.078,0.054,0.176,0.102,0.024,-0.02,-0.034
1.726,-0.015,-0.083,-0.068,0.049,0.024,-0.078,0.049,0.185,0.107,0.02,-0.024,-0.044
1.728,-0.015,-0.083,-0.068,0.049,0.024,-0.078,0.049,0.19,0.112,0.02,-0.024,-0.044
1.73,-0.01,-0.078,-0.068,0.044,0.029,-0.073,0.049,0.195,0.122,0.024,-0.029,-0.044
1.732,-0.01,-0.063,-0.054,0.039,0.02,-0.059,0.059,0.195,0.117,0.024,-0.034,-0.044
1.734,-0.015,-0.078,-0.063,0.049,0.024,-0.073,0.063,0.195,0.127,0.034,-0.024,-0.054
1.736,-0.01,-0.073,-0.063,0.044,0.024,-0.068,0.063,0.195,0.117,0.029,-0.034,-0.049
1.738,-0.02,-0.088,-0.068,0.054,0.024,-0.078,0.063,0.195,0.117,0.024,-0.034,-0.044
1.74,-0.015,-0.083,-0.068,0.049,0.024,-0.078,0.063,0.2,0.117,0.024,-0.034,-0.039
1.742,-0.01,-0.083,-0.073,0.049,0.029,-0.078,0.063,0.205,0.122,0.024,-0.024,-0.034
1.744,-0.02,-0.093,-0.073,0.059,0.024,-0.083,0.059,0.215,0.122,0.015,-0.034,-0.034
1.746,-0.029,-0.093,-0.063,0.063,0.015,-0.078,0.063,0.229,0.132,0.024,-0.029,-0.039
1.748,-0.02,-0.088,-0.068,0.054,0.024,-0.078,0.063,0.239,0.132,0.024,-0.039,-0.044
1.75,-0.005,-0.088,-0.083,0.049,0.039,-0.088,0.063,0.244,0.142,0.024,-0.039,-0.044
1.752,-0.005,-0.073,-0.068,0.039,0.029,-0.073,0.068,0.249,0.146,0.024,-0.034,-0.039
1.754,-0.01,-0.088,-0.078,0.049,0.034,-0.083,0.073,0.249,0.146,0.029,-0.034,-0.044
1.756,-0.005,-0.088,-0.083,0.049,0.039,-0.088,0.078,0.254,0.146,0.034,-0.029,-0.034
1.758,0.0,-0.073,-0.073,0.039,0.034,-0.073,0.073,0.249,0.146,0.024,-0.034,-0.034
1.76,-0.01,-0.078,-0.068,0.044,0.029,-0.073,0.073,0.244,0.142,0.024,-0.039,-0.044
1.762,-0.005,-0.078,-0.073,0.044,0.034,-0.078,0.073,0.259,0.142,0.024,-0.039,-0.049
1.764,-0.01,-0.088,-0.078,0.049,0.034,-0.083,0.068,0.268,0.142,0.02,-0.039,-0.034
1.766,-0.015,-0.093,-0.078,0.054,0.029,-0.088,0.063,0.278,0.146,0.015,-0.044,-0.044
1.768,-0.01,-0.093,-0.083,0.054,0.034,-0.088,0.068,0.288,0.156,0.02,-0.039,-0.044
1.77,-0.015,-0.102,-0.088,0.059,0.034,-0.098,0.073,0.298,0.161,0.024,-0.039,-0.044
1.772,-0.01,-0.093,-0.083,0.054,0.034,-0.088,0.083,0.307,0.166,0.029,-0.039,-0.044
1.774,-0.005,-0.093,-0.088,0.049,0.039,-0.093,0.088,0.307,0.171,0.034,-0.039,-0.054
1.776,-0.005,-0.098,-0.093,0.054,0.044,-0.098,0.088,0.307,0.161,0.029,-0.039,-0.054
1.778,0.0,-0.088,-0.088,0.044,0.044,-0.088,0.093,0.317,0.166,0.024,-0.044,-0.049
1.78,-0.005,-0.083,-0.078,0.044,0.034,-0.083,0.093,0.317,0.156,0.024,-0.044,-0.054
1.782,0.0,-0.083,-0.083,0.044,0.039,-0.083,0.093,0.322,0.156,0.015,-0.049,-0.054
1.784,-0.005,-0.078,-0.073,0.044,0.034,-0.078,0.088,0.337,0.156,0.005,-0.054,-0.049
1.786,-0.015,-0.093,-0.078,0.054,0.029,-0.088,0.083,0.342,0.161,0.0,-0.059,-0.063
1.788,-0.015,-0.098,-0.083,0.059,0.034,-0.093,0.088,0.351,0.176,0.015,-0.054,-0.054
1.79,-0.015,-0.098,-0.083,0.059,0.034,-0.093,0.098,0.361,0.176,0.015,-0.054,-0.059
1.792,-0.02,-0.107,-0.088,0.063,0.034,-0.098,0.102,0.366,0.181,0.01,-0.054,-0.059
1.794,-0.015,-0.112,-0.098,0.063,0.039,-0.107,0.112,0.381,0.185,0.02,-0.054,-0.059
1.796,-0.024,-0.112,-0.088,0.068,0.029,-0.102,0.117,0.381,0.185,0.02,-0.049,-0.063
1.798,-0.015,-0.102,-0.088,0.059,0.034,-0.098,0.122,0.386,0.181,0.015,-0.049,-0.063
1.8,-0.01,-0.083,-0.073,0.049,0.029,-0.078,0.112,0.386,0.176,0.01,-0.054,-0.059
1.802,-0.015,-0.093,-0.078,0.054,0.029,-0.088,0.112,0.386,0.181,0.005,-0.054,-0.059
1.804,-0.015,-0.088,-0.073,0.054,0.029,-0.083,0.112,0.4,0.181,0.0,-0.059,-0.059
1.806,-0.02,-0.098,-0.078,0.059,0.029,-0.088,0.112,0.41,0.176,-0.01,-0.068,-0.068
1.808,-0.024,-0.112,-0.088,0.068,0.029,-0.102,0.112,0.415,0.185,0.0,-0.068,-0.068
1.81,-0.024,-0.112,-0.088,0.068,0.029,-0.102,0.127,0.434,0.19,0.0,-0.063,-0.063
1.812,-0.029,-0.112,-0.083,0.073,0.024,-0.098,0.127,0.434,0.19,-0.01,-0.073,-0.068
1.814,-0.029,-0.127,-0.098,0.078,0.034,-0.112,0.132,0.434,0.19,-0.01,-0.068,-0.078
1.816,-0.029,-0.127,-0.098,0.078,0.034,-0.112,0.142,0.439,0.19,-0.005,-0.063,-0.078
1.818,-0.029,-0.127,-0.098,0.078,0.034,-0.112,0.142,0.439,0.176,-0.015,-0.068,-0.068
1.82,-0.02,-0.112,-0.093,0.068,0.034,-0.102,0.137,0.439,0.176,-0.02,-0.073,-0.073
1.822,-0.02,-0.102,-0.083,0.063,0.029,-0.093,0.137,0.444,0.171,-0.029,-0.073,-0.063
1.824,-0.024,-0.107,-0.083,0.068,0.029,-0.098,0.137,0.444,0.166,-0.044,-0.088,-0.078
1.826,-0.02,-0.093,-0.073,0.059,0.024,-0.083,0.132,0.449,0.166,-0.049,-0.088,-0.078
1.828,-0.02,-0.088,-0.068,0.054,0.024,-0.078,0.132,0.454,0.156,-0.054,-0.098,-0.083
1.83,-0.024,-0.102,-0.078,0.063,0.024,-0.093,0.142,0.454,0.156,-0.059,-0.102,-0.088
1.832,-0.024,-0.093,-0.068,0.059,0.02,-0.083,0.146,0.449,0.146,-0.063,-0.112,-0.093
1.834,-0.034,-0.112,-0.078,0.073,0.02,-0.098,0.146,0.444,0.142,-0.068,-0.112,-0.093
1.836,-0.029,-0.112,-0.083,0.073,0.024,-0.098,0.156,0.444,0.142,-0.068,-0.112,-0.083
1.838,-0.034,-0.107,-0.073,0.073,0.02,-0.093,0.156,0.439,0.132,-0.078,-0.112,-0.078
1.84,-0.029,-0.098,-0.068,0.063,0.02,-0.083,0.151,0.434,0.122,-0.083,-0.117,-0.088
1.842,-0.02,-0.083,-0.063,0.054,0.02,-0.073,0.146,0.429,0.112,-0.098,-0.117,-0.088
1.844,-0.024,-0.083,-0.059,0.054,0.015,-0.073,0.146,0.425,0.107,-0.112,-0.127,-0.083
1.846,-0.029,-0.083,-0.054,0.059,0.01,-0.068,0.142,0.425,0.107,-0.117,-0.132,-0.093
1.848,-0.029,-0.068,-0.039,0.049,0.005,-0.054,0.146,0.42,0.098,-0.127,-0.137,-0.098
1.85,-0.029,-0.078,-0.049,0.054,0.01,-0.063,0.146,0.415,0.093,-0.137,-0.142,-0.093
1.852,-0.024,-0.083,-0.059,0.054,0.015,-0.073,0.151,0.405,0.083,-0.137,-0.146,-0.098
1.854,-0.039,-0.093,-0.054,0.068,0.005,-0.073,0.146,0.39,0.073,-0.142,-0.146,-0.098
1.856,-0.039,-0.098,-0.059,0.068,0.01,-0.078,0.151,0.386,0.068,-0.142,-0.142,-0.093
1.858,-0.034,-0.093,-0.059,0.063,0.01,-0.078,0.146,0.371,0.054,-0.151,-0.137,-0.083
1.86,-0.034,-0.093,-0.059,0.063,0.01,-0.078,0.137,0.356,0.044,-0.161,-0.137,-0.088
1.862,-0.039,-0.102,-0.063,0.073,0.01,-0.083,0.137,0.346,0.034,-0.171,-0.137,-0.088
1.864,-0.039,-0.093,-0.054,0.068,0.005,-0.073,0.132,0.332,0.024,-0.181,-0.146,-0.088
1.866,-0.044,-0.098,-0.054,0.073,0.005,-0.078,0.132,0.332,0.02,-0.181,-0.142,-0.088
1.868,-0.029,-0.078,-0.049,0.054,0.01,-0.063,0.127,0.317,0.005,-0.185,-0.151,-0.088
1.87,-0.034,-0.078,-0.044,0.059,0.005,-0.063,0.132,0.312,0.01,-0.19,-0.151,-0.083
1.872,-0.039,-0.083,-0.044,0.063,0.0,-0.063,0.127,0.293,-0.005,-0.195,-0.156,-0.093
1.874,-0.039,-0.083,-0.044,0.063,0.0,-0.063,0.127,0.273,-0.01,-0.19,-0.146,-0.083
1.876,-0.044,-0.093,-0.049,0.068,0.0,-0.073,0.127,0.254,-0.02,-0.19,-0.146,-0.083
1.878,-0.044,-0.088,-0.044,0.068,0.0,-0.068,0.127,0.239,-0.029,-0.195,-0.142,-0.078
1.88,-0.039,-0.073,-0.034,0.059,-0.005,-0.054,0.117,0.22,-0.039,-0.2,-0.137,-0.078
1.882,-0.044,-0.083,-0.039,0.063,-0.005,-0.063,0.112,0.205,-0.049,-0.205,-0.137,-0.073
1.884,-0.039,-0.078,-0.039,0.059,0.0,-0.059,0.102,0.195,-0.054,-0.21,-0.142,-0.063
1.886,-0.044,-0.073,-0.029,0.059,-0.01,-0.054,0.093,0.176,-0.059,-0.215,-0.137,-0.068
1.888,-0.034,-0.068,-0.034,0.054,0.0,-0.054,0.088,0.166,-0.063,-0.21,-0.132,-0.068
1.89,-0.024,-0.054,-0.029,0.039,0.0,-0.044,0.083,0.151,-0.063,-0.21,-0.132,-0.059
1.892,-0.029,-0.059,-0.029,0.044,0.0,-0.044,0.083,0.142,-0.063,-0.2,-0.132,-0.059
1.894,-0.029,-0.063,-0.034,0.049,0.0,-0.049,0.083,0.122,-0.063,-0.195,-0.122,-0.059
1.896,-0.015,-0.049,-0.034,0.034,0.01,-0.044,0.078,0.098,-0.073,-0.181,-0.117,-0.049
1.898,-0.01,-0.049,-0.039,0.029,0.015,-0.044,0.068,0.088,-0.078,-0.181,-0.112,-0.049
1.9,-0.015,-0.049,-0.034,0.034,0.01,-0.044,0.059,0.073,-0.083,-0.181,-0.102,-0.044
1.902,-0.02,-0.063,-0.044,0.044,0.01,-0.054,0.054,0.059,-0.078,-0.166,-0.088,-0.029
1.904,-0.015,-0.063,-0.049,0.039,0.015,-0.059,0.044,0.049,-0.078,-0.171,-0.088,-0.034
1.906,-0.005,-0.049,-0.044,0.029,0.02,-0.049,0.034,0.039,-0.083,-0.171,-0.083,-0.034
1.908,-0.01,-0.049,-0.039,0.029,0.015,-0.044,0.029,0.034,-0.073,-0.151,-0.083,-0.034
1.91,0.0,-0.044,-0.044,0.024,0.02,-0.044,0.029,0.024,-0.063,-0.137,-0.073,-0.024
1.912,0.005,-0.039,-0.044,0.02,0.024,-0.044,0.024,0.015,-0.063,-0.127,-0.073,-0.02
1.914,0.0,-0.049,-0.049,0.024,0.024,-0.049,0.029,0.005,-0.054,-0.117,-0.059,-0.01
1.916,0.01,-0.039,-0.049,0.015,0.029,-0.044,0.024,0.0,-0.049,-0.098,-0.049,-0.01
1.918,0.005,-0.034,-0.039,0.015,0.02,-0.039,0.029,0.0,-0.044,-0.093,-0.039,-0.005
1.92,0.01,-0.039,-0.049,0.015,0.029,-0.044,0.015,-0.01,-0.049,-0.083,-0.039,-0.005
1.922,0.015,-0.044,-0.059,0.015,0.034,-0.054,0.015,-0.015,-0.044,-0.078,-0.029,-0.005
1.924,0.005,-0.049,-0.054,0.024,0.029,-0.054,0.0,-0.015,-0.044,-0.073,-0.029,-0.005
1.926,0.01,-0.049,-0.059,0.02,0.034,-0.054,-0.005,-0.024,-0.039,-0.068,-0.029,-0.01
1.928,0.005,-0.044,-0.049,0.02,0.024,-0.049,-0.005,-0.02,-0.029,-0.059,-0.024,-0.01
1.93,0.0,-0.063,-0.063,0.034,0.029,-0.063,-0.005,-0.02,-0.015,-0.044,-0.015,0.0
1.932,0.005,-0.059,-0.063,0.029,0.034,-0.063,-0.01,-0.024,-0.015,-0.024,-0.015,0.005
1.934,0.005,-0.059,-0.063,0.029,0.034,-0.063,-0.005,-0.029,-0.01,-0.02,-0.005,0.005
1.936,0.005,-0.054,-0.059,0.024,0.029,-0.059,-0.005,-0.024,0.0,-0.005,0.01,0.01
1.938,0.02,-0.039,-0.059,0.01,0.039,-0.049,-0.005,-0.034,0.0,-0.005,0.01,0.02
1.94,0.02,-0.049,-0.068,0.015,0.044,-0.059,-0.01,-0.039,-0.005,0.0,0.01,0.024
1.942,0.02,-0.049,-0.068,0.015,0.044,-0.059,-0.015,-0.039,0.0,0.005,0.015,0.029
1.944,0.005,-0.054,-0.059,0.024,0.029,-0.059,-0.015,-0.039,-0.005,0.005,0.01,0.024
1.946,-0.005,-0.063,-0.059,0.034,0.024,-0.063,-0.01,-0.029,0.005,0.01,0.015,0.029
1.948,0.01,-0.054,-0.063,0.024,0.034,-0.059,-0.02,-0.034,0.01,0.01,0.015,0.02
1.95,0.0,-0.063,-0.063,0.034,0.029,-0.063,-0.015,-0.029,0.01,0.01,0.015,0.02
1.952,0.0,-0.068,-0.068,0.034,0.034,-0.068,-0.015,-0.034,0.015,0.024,0.015,0.015
1.954,0.005,-0.063,-0.068,0.029,0.034,-0.068,-0.01,-0.039,0.015,0.029,0.02,0.02
1.956,0.0,-0.068,-0.068,0.034,0.034,-0.068,-0.01,-0.039,0.015,0.029,0.024,0.02
1.958,0.005,-0.063,-0.068,0.029,0.034,-0.068,-0.005,-0.039,0.015,0.034,0.029,0.029
1.96,0.005,-0.059,-0.063,0.029,0.034,-0.063,-0.01,-0.044,0.01,0.029,0.029,0.029
1.962,0.0,-0.073,-0.073,0.039,0.034,-0.073,-0.01,-0.039,0.015,0.039,0.034,0.039
1.964,0.01,-0.059,-0.068,0.024,0.039,-0.063,-0.015,-0.039,0.015,0.034,0.029,0.029
1.966,0.015,-0.044,-0.059,0.015,0.034,-0.054,-0.024,-0.049,0.01,0.024,0.02,0.02
1.968,0.01,-0.044,-0.054,0.02,0.029,-0.049,-0.029,-0.039,0.015,0.024,0.02,0.024
1.97,0.005,-0.049,-0.054,0.024,0.029,-0.054,-0.02,-0.039,0.015,0.024,0.01,0.015
1.972,-0.005,-0.063,-0.059,0.034,0.024,-0.063,-0.02,-0.039,0.015,0.024,0.01,0.01
1.974,-0.01,-0.063,-0.054,0.039,0.02,-0.059,-0.01,-0.034,0.02,0.039,0.024,0.02
1.976,0.0,-0.059,-0.059,0.029,0.029,-0.059,-0.02,-0.044,0.015,0.024,0.015,0.015
1.978,0.005,-0.059,-0.063,0.029,0.034,-0.063,-0.01,-0.044,0.015,0.029,0.024,0.02
1.98,0.01,-0.049,-0.059,0.02,0.034,-0.054,-0.01,-0.044,0.015,0.034,0.024,0.024
1.982,0.005,-0.063,-0.068,0.029,0.034,-0.068,-0.015,-0.044,0.01,0.024,0.024,0.02
1.984,0.005,-0.063,-0.068,0.029,0.034,-0.068,-0.015,-0.044,0.01,0.024,0.02,0.015
1.986,0.005,-0.044,-0.049,0.02,0.024,-0.049,-0.015,-0.039,0.01,0.024,0.015,0.015
1.988,0.005,-0.044,-0.049,0.02,0.024,-0.049,-0.024,-0.039,0.01,0.02,0.01,0.01
1.99,0.005,-0.049,-0.054,0.024,0.029,-0.054,-0.02,-0.034,0.015,0.02,0.015,0.01
1.992,0.0,-0.054,-0.054,0.029,0.024,-0.054,-0.015,-0.039,0.01,0.024,0.01,0.005
1.994,-0.005,-0.068,-0.063,0.039,0.029,-0.068,-0.01,-0.039,0.02,0.029,0.02,0.015
1.996,0.0,-0.063,-0.063,0.034,0.029,-0.063,-0.015,-0.039,0.015,0.024,0.029,0.01
1.998,-0.01,-0.078,-0.068,0.044,0.029,-0.073,-0.005,-0.039,0.015,0.029,0.029,0.015
2.0,-0.015,-0.088,-0.073,0.054,0.029,-0.083,-0.005,-0.034,0.02,0.034,0.034,0.015
2.002,-0.005,-0.083,-0.078,0.044,0.034,-0.083,0.0,-0.039,0.02,0.029,0.039,0.02
2.004,-0.01,-0.088,-0.078,0.049,0.034,-0.083,-0.005,-0.034,0.015,0.024,0.029,0.015
2.006,-0.005,-0.073,-0.068,0.039,0.029,-0.073,-0.005,-0.029,0.02,0.029,0.029,0.015
2.008,0.0,-0.059,-0.059,0.029,0.029,-0.059,-0.024,-0.039,0.01,0.02,0.02,0.005
2.01,-0.01,-0.063,-0.054,0.039,0.02,-0.059,-0.015,-0.034,0.02,0.02,0.02,0.01
2.012,-0.005,-0.059,-0.054,0.034,0.024,-0.059,-0.01,-0.034,0.02,0.024,0.015,0.005
2.014,-0.015,-0.078,-0.063,0.049,0.024,-0.073,-0.01,-0.029,0.02,0.024,0.02,0.0
2.016,-0.015,-0.078,-0.063,0.049,0.024,-0.073,-0.01,-0.029,0.02,0.024,0.024,0.005
2.018,-0.015,-0.083,-0.068,0.049,0.024,-0.078,0.0,-0.029,0.015,0.029,0.024,-0.005
2.02,-0.015,-0.088,-0.073,0.054,0.029,-0.083,-0.005,-0.02,0.02,0.029,0.029,0.005
2.022,-0.01,-0.093,-0.083,0.054,0.034,-0.088,0.0,-0.02,0.029,0.029,0.034,0.01
2.024,-0.01,-0.088,-0.078,0.049,0.034,-0.083,-0.005,-0.02,0.024,0.024,0.024,0.005
2.026,-0.005,-0.088,-0.083,0.049,0.039,-0.088,-0.005,-0.02,0.029,0.029,0.024,0.01
2.028,0.0,-0.073,-0.073,0.039,0.034,-0.073,-0.01,-0.015,0.024,0.029,0.02,0.005
2.03,-0.005,-0.078,-0.073,0.044,0.034,-0.078,-0.005,-0.02,0.029,0.02,0.015,0.01
2.032,-0.005,-0.078,-0.073,0.044,0.034,-0.078,0.0,-0.01,0.034,0.024,0.015,0.01
2.034,0.0,-0.059,-0.059,0.029,0.029,-0.059,-0.005,-0.02,0.034,0.029,0.015,0.01
2.036,-0.005,-0.073,-0.068,0.039,0.029,-0.073,-0.005,-0.015,0.034,0.029,0.015,0.01
2.038,-0.005,-0.083,-0.078,0.044,0.034,-0.083,0.0,-0.015,0.034,0.029,0.02,0.005
2.04,-0.01,-0.088,-0.078,0.049,0.034,-0.083,0.0,-0.01,0.034,0.034,0.024,0.005
2.042,-0.015,-0.098,-0.083,0.059,0.034,-0.093,0.0,-0.005,0.039,0.034,0.029,0.01
2.044,-0.01,-0.098,-0.088,0.054,0.039,-0.093,0.005,-0.005,0.044,0.029,0.029,0.02
2.046,-0.01,-0.098,-0.088,0.054,0.039,-0.093,0.0,-0.005,0.044,0.029,0.024,0.01
2.048,0.0,-0.078,-0.078,0.039,0.039,-0.078,-0.01,0.0,0.044,0.029,0.024,0.01
2.05,-0.005,-0.068,-0.063,0.039,0.029,-0.068,-0.01,-0.01,0.049,0.024,0.015,0.005
2.052,-0.01,-0.078,-0.068,0.044,0.029,-0.073,-0.005,-0.01,0.049,0.024,0.01,-0.005
2.054,0.0,-0.063,-0.063,0.034,0.029,-0.063,0.0,-0.01,0.049,0.034,0.015,-0.005
2.056,0.005,-0.063,-0.068,0.029,0.034,-0.068,0.0,-0.01,0.049,0.034,0.015,-0.005
2.058,-0.01,-0.078,-0.068,0.044,0.029,-0.073,0.01,0.0,0.049,0.039,0.02,0.0
2.06,-0.01,-0.083,-0.073,0.049,0.029,-0.078,0.01,0.01,0.054,0.044,0.024,0.005
2.062,-0.015,-0.098,-0.083,0.059,0.034,-0.093,0.01,0.01,0.054,0.044,0.024,0.01
2.064,-0.01,-0.088,-0.078,0.049,0.034,-0.083,0.005,0.01,0.054,0.039,0.02,0.005
2.066,-0.01,-0.083,-0.073,0.049,0.029,-0.078,0.01,0.015,0.059,0.039,0.02,0.0
2.068,-0.015,-0.088,-0.073,0.054,0.029,-0.083,0.0,0.01,0.049,0.034,0.01,0.0
2.07,-0.015,-0.088,-0.073,0.054,0.029,-0.083,0.0,0.005,0.059,0.039,0.015,0.0
2.072,-0.015,-0.088,-0.073,0.054,0.029,-0.083,0.01,0.01,0.063,0.039,0.015,-0.015
2.074,-0.01,-0.083,-0.073,0.049,0.029,-0.078,0.01,0.015,0.068,0.049,0.02,0.0
2.076,0.0,-0.068,-0.068,0.034,0.034,-0.068,0.01,0.01,0.063,0.044,0.02,0.005
2.078,-0.01,-0.078,-0.068,0.044,0.029,-0.073,0.01,0.01,0.063,0.049,0.02,0.0
2.08,-0.01,-0.073,-0.063,0.044,0.024,-0.068,0.01,0.015,0.063,0.049,0.024,0.005
2.082,-0.015,-0.083,-0.068,0.049,0.024,-0.078,0.005,0.015,0.059,0.044,0.024,0.01
2.084,-0.02,-0.098,-0.078,0.059,0.029,-0.088,0.005,0.01,0.059,0.039,0.02,0.0
2.086,-0.02,-0.093,-0.073,0.059,0.024,-0.083,0.005,0.02,0.063,0.044,0.024,0.005
2.088,-0.015,-0.088,-0.073,0.054,0.029,-0.083,0.0,0.01,0.063,0.039,0.015,0.0
2.09,-0.015,-0.098,-0.083,0.059,0.034,-0.093,0.0,0.01,0.068,0.044,0.02,0.0
2.092,-0.01,-0.088,-0.078,0.049,0.034,-0.083,0.005,0.01,0.063,0.044,0.015,0.0
2.094,-0.015,-0.088,-0.073,0.054,0.029,-0.083,0.005,0.01,0.063,0.044,0.02,-0.005
2.096,-0.01,-0.078,-0.068,0.044,0.029,-0.073,0.005,0.01,0.068,0.049,0.024,0.0
2.098,-0.005,-0.078,-0.073,0.044,0.034,-0.078,0.005,0.01,0.063,0.049,0.029,0.01
2.1,-0.01,-0.083,-0.073,0.049,0.029,-0.078,0.005,0.005,0.059,0.044,0.02,0.0
2.102,-0.005,-0.073,-0.068,0.039,0.029,-0.073,0.0,0.01,0.059,0.044,0.024,0.0
2.104,0.0,-0.068,-0.068,0.034,0.034,-0.068,-0.005,0.005,0.054,0.039,0.02,0.0
2.106,0.0,-0.073,-0.073,0.039,0.034,-0.073,0.0,0.01,0.059,0.039,0.02,-0.005
2.108,0.0,-0.068,-0.068,0.034,0.034,-0.068,-0.005,0.005,0.059,0.034,0.015,-0.01
2.11,-0.01,-0.083,-0.073,0.049,0.029,-0.078,-0.005,0.005,0.059,0.034,0.02,0.0
2.112,-0.005,-0.088,-0.083,0.049,0.039,-0.088,0.0,0.0,0.059,0.044,0.02,0.0
2.114,-0.005,-0.083,-0.078,0.044,0.034,-0.083,0.005,0.005,0.063,0.049,0.024,0.005
2.116,0.0,-0.083,-0.083,0.044,0.039,-0.083,0.005,0.005,0.063,0.049,0.029,0.01
2.118,0.0,-0.078,-0.078,0.039,0.039,-0.078,0.005,0.005,0.059,0.054,0.029,0.01
2.12,-0.005,-0.073,-0.068,0.039,0.029,-0.073,0.0,-0.005,0.054,0.049,0.029,0.01
2.122,-0.005,-0.068,-0.063,0.039,0.029,-0.068,0.0,-0.005,0.054,0.044,0.039,0.015
2.124,0.005,-0.059,-0.063,0.029,0.034,-0.063,-0.005,-0.005,0.049,0.034,0.034,0.01
2.126,0.005,-0.059,-0.063,0.029,0.034,-0.063,-0.005,-0.01,0.044,0.029,0.024,0.01
2.128,0.01,-0.044,-0.054,0.02,0.029,-0.049,-0.01,-0.01,0.044,0.029,0.02,0.005
2.13,0.0,-0.059,-0.059,0.029,0.029,-0.059,-0.005,-0.01,0.049,0.034,0.02,0.01
2.132,-0.005,-0.073,-0.068,0.039,0.029,-0.073,0.0,-0.01,0.054,0.039,0.02,0.005
2.134,-0.005,-0.068,-0.063,0.039,0.029,-0.068,0.005,-0.01,0.059,0.044,0.029,0.0
2.136,-0.01,-0.073,-0.063,0.044,0.024,-0.068,0.0,-0.01,0.054,0.044,0.029,0.005
2.138,-0.01,-0.088,-0.078,0.049,0.034,-0.083,0.005,-0.01,0.054,0.049,0.034,0.015
2.14,-0.005,-0.073,-0.068,0.039,0.029,-0.073,0.0,-0.01,0.054,0.049,0.034,0.01
2.142,-0.01,-0.078,-0.068,0.044,0.029,-0.073,0.0,-0.01,0.054,0.039,0.034,0.024
2.144,0.005,-0.063,-0.068,0.029,0.034,-0.068,-0.005,-0.01,0.049,0.039,0.034,0.02
2.146,0.0,-0.054,-0.054,0.029,0.024,-0.054,-0.01,-0.015,0.044,0.034,0.029,0.01
2.148,0.0,-0.054,-0.054,0.029,0.024,-0.054,-0.015,-0.02,0.039,0.029,0.02,0.005
2.15,0.0,-0.059,-0.059,0.029,0.029,-0.059,-0.01,-0.015,0.044,0.034,0.02,0.01
2.152,-0.005,-0.078,-0.073,0.044,0.034,-0.078,-0.005,-0.01,0.044,0.044,0.029,0.01
2.154,-0.005,-0.073,-0.068,0.039,0.029,-0.073,-0.005,-0.015,0.044,0.044,0.029,0.01
2.156,0.0,-0.078,-0.078,0.039,0.039,-0.078,-0.005,-0.015,0.044,0.044,0.034,0.02
2.158,-0.01,-0.093,-0.083,0.054,0.034,-0.088,-0.005,-0.015,0.044,0.044,0.039,0.02
2.16,-0.01,-0.088,-0.078,0.049,0.034,-0.083,-0.005,-0.02,0.039,0.044,0.034,0.02
2.162,-0.01,-0.078,-0.068,0.044,0.029,-0.073,-0.005,-0.024,0.034,0.034,0.034,0.024
2.164,-0.005,-0.068,-0.063,0.039,0.029,-0.068,-0.015,-0.029,0.029,0.029,0.029,0.01
2.166,0.0,-0.049,-0.049,0.024,0.024,-0.049,-0.01,-0.024,0.034,0.034,0.029,0.015
2.168,-0.005,-0.063,-0.059,0.034,0.024,-0.063,-0.02,-0.029,0.024,0.024,0.015,0.01
2.17,-0.005,-0.063,-0.059,0.034,0.024,-0.063,-0.02,-0.029,0.029,0.024,0.02,0.01
2.172,0.005,-0.049,-0.054,0.024,0.029,-0.054,-0.015,-0.029,0.034,0.029,0.024,0.015
2.174,0.0,-0.054,-0.054,0.029,0.024,-0.054,-0.015,-0.029,0.029,0.034,0.02,0.01
2.176,0.005,-0.054,-0.059,0.024,0.029,-0.059,-0.02,-0.029,0.029,0.029,0.024,0.01
2.178,-0.005,-0.063,-0.059,0.034,0.024,-0.063,-0.02,-0.029,0.029,0.034,0.02,0.0
2.18,-0.015,-0.073,-0.059,0.044,0.02,-0.068,-0.01,-0.024,0.024,0.044,0.029,0.01
2.182,-0.01,-0.063,-0.054,0.039,0.02,-0.059,-0.02,-0.029,0.024,0.039,0.024,0.01
2.184,0.0,-0.059,-0.059,0.029,0.029,-0.059,-0.024,-0.034,0.02,0.024,0.024,0.0
2.186,0.015,-0.044,-0.059,0.015,0.034,-0.054,-0.029,-0.034,0.02,0.029,0.02,0.0
2.188,0.01,-0.049,-0.059,0.02,0.034,-0.054,-0.029,-0.034,0.02,0.029,0.015,0.005
2.19,0.0,-0.054,-0.054,0.029,0.024,-0.054,-0.029,-0.034,0.024,0.024,0.015,0.005
2.192,0.005,-0.049,-0.054,0.024,0.029,-0.054,-0.024,-0.034,0.029,0.034,0.02,0.01
2.194,0.005,-0.044,-0.049,0.02,0.024,-0.049,-0.024,-0.034,0.024,0.039,0.02,0.01
2.196,0.005,-0.054,-0.059,0.024,0.029,-0.059,-0.02,-0.034,0.029,0.039,0.02,0.01
2.198,0.0,-0.044,-0.044,0.024,0.02,-0.044,-0.024,-0.044,0.024,0.034,0.02,0.0
2.2,-0.01,-0.063,-0.054,0.039,0.02,-0.059,-0.02,-0.039,0.015,0.034,0.02,0.0
2.202,0.0,-0.054,-0.054,0.029,0.024,-0.054,-0.02,-0.039,0.015,0.034,0.02,0.005
2.204,-0.005,-0.049,-0.044,0.029,0.02,-0.049,-0.024,-0.039,0.015,0.034,0.02,0.015
2.206,-0.005,-0.059,-0.054,0.034,0.024,-0.059,-0.024,-0.039,0.01,0.029,0.024,0.005
2.208,0.0,-0.063,-0.063,0.034,0.029,-0.063,-0.024,-0.034,0.02,0.029,0.02,0.01
2.21,-0.005,-0.059,-0.054,0.034,0.024,-0.059,-0.029,-0.039,0.02,0.024,0.02,0.005
2.212,-0.005,-0.054,-0.049,0.029,0.02,-0.054,-0.029,-0.034,0.02,0.029,0.02,-0.005
2.214,0.005,-0.049,-0.054,0.024,0.029,-0.054,-0.02,-0.029,0.024,0.039,0.029,-0.005
2.216,0.0,-0.054,-0.054,0.029,0.024,-0.054,-0.024,-0.029,0.02,0.034,0.024,-0.005
2.218,0.0,-0.054,-0.054,0.029,0.024,-0.054,-0.024,-0.034,0.015,0.034,0.024,0.01
2.22,-0.005,-0.054,-0.049,0.029,0.02,-0.054,-0.024,-0.039,0.005,0.029,0.02,0.005
2.222,-0.005,-0.068,-0.063,0.039,0.029,-0.068,-0.024,-0.039,0.01,0.024,0.02,0.01
2.224,-0.005,-0.059,-0.054,0.034,0.024,-0.059,-0.02,-0.034,0.01,0.029,0.029,0.015
2.226,-0.01,-0.059,-0.049,0.034,0.02,-0.054,-0.024,-0.034,0.01,0.024,0.024,0.01
2.228,-0.01,-0.063,-0.054,0.039,0.02,-0.059,-0.034,-0.034,0.01,0.024,0.02,0.005
2.23,-0.005,-0.063,-0.059,0.034,0.024,-0.063,-0.024,-0.029,0.02,0.029,0.024,0.01
2.232,-0.01,-0.068,-0.059,0.039,0.024,-0.063,-0.024,-0.029,0.024,0.034,0.024,0.01
2.234,0.0,-0.059,-0.059,0.029,0.029,-0.059,-0.02,-0.029,0.02,0.034,0.024,0.005
2.236,0.005,-0.049,-0.054,0.024,0.029,-0.054,-0.029,-0.034,0.015,0.034,0.029,0.0
2.238,-0.005,-0.054,-0.049,0.029,0.02,-0.054,-0.029,-0.039,0.01,0.034,0.029,0.0
2.24,0.005,-0.034,-0.039,0.015,0.02,-0.039,-0.024,-0.039,0.01,0.029,0.029,0.0
2.242,0.01,-0.039,-0.049,0.015,0.029,-0.044,-0.034,-0.044,0.0,0.02,0.024,-0.005
2.244,0.005,-0.044,-0.049,0.02,0.024,-0.049,-0.029,-0.044,0.01,0.02,0.024,0.0
2.246,0.005,-0.034,-0.039,0.015,0.02,-0.039,-0.034,-0.044,0.0,0.015,0.015,-0.005
2.248,-0.005,-0.049,-0.044,0.029,0.02,-0.049,-0.039,-0.039,0.005,0.015,0.015,-0.01
2.25,-0.005,-0.059,-0.054,0.034,0.024,-0.059,-0.034,-0.034,0.015,0.024,0.02,0.005
2.252,0.0,-0.054,-0.054,0.029,0.024,-0.054,-0.029,-0.029,0.02,0.024,0.024,0.0
2.254,0.0,-0.044,-0.044,0.024,0.02,-0.044,-0.029,-0.029,0.01,0.024,0.024,-0.005
2.256,0.005,-0.034,-0.039,0.015,0.02,-0.039,-0.029,-0.034,0.015,0.024,0.024,0.005
2.258,-0.005,-0.044,-0.039,0.024,0.015,-0.044,-0.029,-0.039,0.01,0.024,0.024,0.005
2.26,0.005,-0.039,-0.044,0.02,0.024,-0.044,-0.029,-0.034,0.005,0.02,0.024,0.0
2.262,0.015,-0.024,-0.039,0.005,0.024,-0.034,-0.029,-0.034,0.005,0.024,0.02,0.005
2.264,0.01,-0.024,-0.034,0.01,0.02,-0.029,-0.034,-0.044,0.005,0.015,0.02,0.0
2.266,0.015,-0.02,-0.034,0.005,0.024,-0.029,-0.034,-0.039,0.0,0.015,0.015,-0.005
2.268,0.0,-0.029,-0.029,0.015,0.015,-0.029,-0.039,-0.044,0.005,0.01,0.005,-0.005
2.27,-0.005,-0.049,-0.044,0.029,0.02,-0.049,-0.034,-0.039,0.015,0.024,0.015,0.005
2.272,0.0,-0.049,-0.049,0.024,0.024,-0.049,-0.034,-0.039,0.01,0.02,0.02,0.0
2.274,-0.015,-0.054,-0.039,0.034,0.01,-0.049,-0.029,-0.039,0.01,0.024,0.02,0.005
2.276,-0.015,-0.059,-0.044,0.039,0.015,-0.054,-0.029,-0.039,0.015,0.024,0.02,0.005
2.278,-0.005,-0.054,-0.049,0.029,0.02,-0.054,-0.029,-0.044,0.005,0.029,0.024,0.01
2.28,0.0,-0.054,-0.054,0.029,0.024,-0.054,-0.029,-0.044,0.005,0.024,0.024,0.01
2.282,0.005,-0.049,-0.054,0.024,0.029,-0.054,-0.034,-0.044,0.005,0.02,0.02,0.015
2.284,0.005,-0.034,-0.039,0.015,0.02,-0.039,-0.039,-0.049,0.0,0.015,0.02,0.01
2.286,0.0,-0.034,-0.034,0.02,0.015,-0.034,-0.044,-0.044,0.0,0.015,0.01,0.0
2.288,0.005,-0.034,-0.039,0.015,0.02,-0.039,-0.049,-0.044,0.005,0.015,0.01,0.005
2.29,-0.01,-0.049,-0.039,0.029,0.015,-0.044,-0.049,-0.044,0.005,0.015,0.01,-0.005
2.292,-0.005,-0.054,-0.049,0.029,0.02,-0.054,-0.039,-0.039,0.005,0.024,0.02,-0.005
2.294,0.0,-0.049,-0.049,0.024,0.024,-0.049,-0.034,-0.034,0.01,0.024,0.015,0.005
2.296,-0.005,-0.063,-0.059,0.034,0.024,-0.063,-0.034,-0.034,0.01,0.029,0.02,0.005
2.298,-0.01,-0.059,-0.049,0.034,0.02,-0.054,-0.034,-0.034,0.005,0.029,0.024,0.01
2.3,-0.01,-0.054,-0.044,0.034,0.015,-0.049,-0.034,-0.034,0.005,0.02,0.02,0.005
2.302,-0.01,-0.054,-0.044,0.034,0.015,-0.049,-0.034,-0.034,0.005,0.02,0.02,0.015
2.304,0.005,-0.034,-0.039,0.015,0.02,-0.039,-0.039,-0.039,0.0,0.02,0.015,0.01
2.306,0.0,-0.034,-0.034,0.02,0.015,-0.034,-0.044,-0.044,-0.005,0.02,0.01,0.0
2.308,0.0,-0.024,-0.024,0.015,0.01,-0.024,-0.044,-0.039,0.0,0.02,0.01,0.005
2.31,0.005,-0.015,-0.02,0.005,0.01,-0.02,-0.044,-0.039,0.005,0.024,0.01,0.01
2.312,0.0,-0.024,-0.024,0.015,0.01,-0.024,-0.039,-0.039,0.005,0.02,0.015,0.005
2.314,-0.005,-0.024,-0.02,0.015,0.005,-0.024,-0.034,-0.034,0.01,0.029,0.01,0.0
2.316,-0.01,-0.039,-0.029,0.024,0.01,-0.034,-0.039,-0.039,0.005,0.024,0.01,-0.005
2.318,-0.015,-0.044,-0.029,0.029,0.005,-0.039,-0.039,-0.039,0.005,0.024,0.015,0.005
2.32,-0.01,-0.034,-0.024,0.024,0.005,-0.029,-0.034,-0.034,0.0,0.02,0.015,0.01
2.322,-0.01,-0.039,-0.029,0.024,0.01,-0.034,-0.039,-0.034,0.0,0.015,0.01,0.01
2.324,0.005,-0.02,-0.024,0.01,0.015,-0.024,-0.044,-0.039,0.0,0.015,0.015,0.015
2.326,0.0,-0.015,-0.015,0.01,0.005,-0.015,-0.039,-0.039,-0.005,0.02,0.01,0.015
2.328,0.0,-0.024,-0.024,0.015,0.01,-0.024,-0.039,-0.039,0.0,0.02,0.005,0.01
2.33,0.005,-0.015,-0.02,0.005,0.01,-0.02,-0.039,-0.034,0.005,0.02,0.01,0.01
2.332,0.005,-0.015,-0.02,0.005,0.01,-0.02,-0.039,-0.034,0.005,0.02,0.01,0.005
2.334,0.0,-0.02,-0.02,0.01,0.01,-0.02,-0.039,-0.034,0.005,0.024,0.005,0.01
2.336,0.0,-0.024,-0.024,0.015,0.01,-0.024,-0.034,-0.034,0.005,0.024,0.01,0.01
2.338,-0.01,-0.039,-0.029,0.024,0.01,-0.034,-0.039,-0.039,0.0,0.02,0.01,0.005
2.34,-0.005,-0.039,-0.034,0.024,0.015,-0.039,-0.029,-0.029,0.0,0.029,0.02,0.01
2.342,-0.005,-0.029,-0.024,0.02,0.01,-0.029,-0.039,-0.039,-0.005,0.02,0.01,0.01
2.344,-0.015,-0.044,-0.029,0.029,0.005,-0.039,-0.039,-0.039,0.0,0.02,0.015,0.01
2.346,-0.01,-0.034,-0.024,0.024,0.005,-0.029,-0.034,-0.034,0.0,0.02,0.015,0.01
2.348,-0.005,-0.029,-0.024,0.02,0.01,-0.029,-0.039,-0.044,-0.005,0.015,0.01,0.0
2.35,-0.01,-0.029,-0.02,0.02,0.005,-0.024,-0.034,-0.034,0.005,0.024,0.01,0.01
2.352,0.005,-0.024,-0.029,0.01,0.015,-0.029,-0.034,-0.029,0.005,0.024,0.01,0.005
2.354,-0.005,-0.029,-0.024,0.02,0.01,-0.029,-0.029,-0.029,0.005,0.029,0.015,0.005
2.356,-0.005,-0.034,-0.029,0.02,0.01,-0.034,-0.024,-0.024,0.015,0.029,0.02,0.015
2.358,-0.01,-0.039,-0.029,0.024,0.01,-0.034,-0.029,-0.029,0.005,0.02,0.015,0.01
2.36,-0.015,-0.049,-0.034,0.034,0.01,-0.044,-0.029,-0.029,0.0,0.024,0.01,0.0
2.362,-0.005,-0.039,-0.034,0.024,0.015,-0.039,-0.029,-0.029,0.0,0.024,0.02,0.015
2.364,-0.01,-0.034,-0.024,0.024,0.005,-0.029,-0.034,-0.034,0.0,0.02,0.015,0.015
2.366,-0.015,-0.044,-0.029,0.029,0.005,-0.039,-0.029,-0.029,0.005,0.024,0.015,0.015
2.368,-0.01,-0.039,-0.029,0.024,0.01,-0.034,-0.034,-0.029,0.0,0.02,0.01,0.01
2.37,-0.01,-0.044,-0.034,0.029,0.01,-0.039,-0.029,-0.024,0.01,0.024,0.015,0.015
2.372,-0.005,-0.039,-0.034,0.024,0.015,-0.039,-0.024,-0.02,0.015,0.029,0.015,0.01
2.374,-0.005,-0.029,-0.024,0.02,0.01,-0.029,-0.029,-0.024,0.005,0.029,0.015,0.01
2.376,-0.02,-0.044,-0.024,0.034,0.0,-0.034,-0.024,-0.02,0.015,0.029,0.015,0.029
2.378,-0.005,-0.034,-0.029,0.02,0.01,-0.034,-0.029,-0.029,0.01,0.024,0.015,0.029
2.38,0.005,-0.029,-0.034,0.015,0.02,-0.034,-0.029,-0.029,-0.005,0.029,0.015,0.02
2.382,0.005,-0.034,-0.039,0.015,0.02,-0.039,-0.029,-0.029,0.0,0.029,0.02,0.02
2.384,0.0,-0.029,-0.029,0.015,0.015,-0.029,-0.024,-0.024,0.005,0.024,0.015,0.02
2.386,-0.01,-0.044,-0.034,0.029,0.01,-0.039,-0.034,-0.029,-0.005,0.02,0.01,0.015
2.388,-0.005,-0.044,-0.039,0.024,0.015,-0.044,-0.029,-0.02,0.005,0.024,0.01,0.02
2.39,-0.005,-0.039,-0.034,0.024,0.015,-0.039,-0.024,-0.02,0.015,0.029,0.01,0.015
2.392,0.0,-0.039,-0.039,0.02,0.02,-0.039,-0.029,-0.02,0.01,0.029,0.015,0.015
2.394,0.005,-0.029,-0.034,0.015,0.02,-0.034,-0.024,-0.02,0.005,0.034,0.015,0.024
2.396,0.005,-0.039,-0.044,0.02,0.024,-0.044,-0.024,-0.02,0.01,0.029,0.015,0.024
2.398,-0.005,-0.039,-0.034,0.024,0.015,-0.039,-0.02,-0.02,0.01,0.039,0.024,0.029
2.4,0.0,-0.024,-0.024,0.015,0.01,-0.024,-0.02,-0.02,0.005,0.029,0.02,0.024
2.402,0.0,-0.029,-0.029,0.015,0.015,-0.029,-0.024,-0.02,0.005,0.029,0.01,0.029
2.404,0.0,-0.029,-0.029,0.015,0.015,-0.029,-0.024,-0.024,0.005,0.024,0.015,0.024
2.406,-0.005,-0.029,-0.024,0.02,0.01,-0.029,-0.029,-0.029,-0.005,0.02,0.01,0.02
2.408,0.0,-0.039,-0.039,0.02,0.02,-0.039,-0.034,-0.024,0.0,0.015,0.005,0.01
2.41,0.0,-0.034,-0.034,0.02,0.015,-0.034,-0.029,-0.02,0.01,0.024,0.01,0.01
2.412,-0.01,-0.044,-0.034,0.029,0.01,-0.039,-0.024,-0.02,0.01,0.024,0.01,0.005
2.414,-0.015,-0.059,-0.044,0.039,0.015,-0.054,-0.015,-0.015,0.015,0.034,0.024,0.015
2.416,0.0,-0.049,-0.049,0.024,0.024,-0.049,-0.02,-0.015,0.015,0.029,0.02,0.02
2.418,-0.005,-0.049,-0.044,0.029,0.02,-0.049,-0.02,-0.015,0.01,0.029,0.024,0.024
2.42,0.0,-0.034,-0.034,0.02,0.015,-0.034,-0.015,-0.01,0.015,0.029,0.024,0.024
2.422,0.0,-0.034,-0.034,0.02,0.015,-0.034,-0.024,-0.015,0.005,0.029,0.02,0.02
2.424,0.0,-0.039,-0.039,0.02,0.02,-0.039,-0.029,-0.02,0.005,0.02,0.015,0.015
2.426,0.0,-0.029,-0.029,0.015,0.015,-0.029,-0.024,-0.02,0.005,0.024,0.02,0.02
2.428,-0.01,-0.044,-0.034,0.029,0.01,-0.039,-0.034,-0.02,0.005,0.02,0.01,0.015
2.43,-0.005,-0.054,-0.049,0.029,0.02,-0.054,-0.024,-0.015,0.01,0.029,0.015,0.024
2.432,-0.005,-0.054,-0.049,0.029,0.02,-0.054,-0.02,-0.01,0.015,0.029,0.024,0.02
2.434,-0.02,-0.068,-0.049,0.044,0.015,-0.059,-0.015,-0.01,0.015,0.039,0.024,0.029
2.436,-0.015,-0.068,-0.054,0.044,0.02,-0.063,-0.01,-0.02,0.015,0.039,0.024,0.034
2.438,-0.01,-0.054,-0.044,0.034,0.015,-0.049,-0.01,-0.015,0.015,0.039,0.029,0.029
2.44,-0.005,-0.039,-0.034,0.024,0.015,-0.039,-0.01,-0.015,0.015,0.034,0.029,0.034
2.442,0.005,-0.029,-0.034,0.015,0.02,-0.034,-0.01,-0.015,0.01,0.034,0.029,0.039
2.444,0.005,-0.024,-0.029,0.01,0.015,-0.029,-0.015,-0.02,0.015,0.029,0.029,0.029
2.446,0.005,-0.015,-0.02,0.005,0.01,-0.02,-0.015,-0.01,0.015,0.034,0.029,0.024
2.448,0.015,0.005,-0.01,-0.01,0.01,-0.005,-0.005,0.0,0.024,0.039,0.034,0.029
2.45,0.015,0.005,-0.01,-0.01,0.01,-0.005,-0.005,0.005,0.029,0.039,0.034,0.029
2.452,0.02,0.005,-0.015,-0.01,0.015,-0.005,0.005,0.005,0.039,0.049,0.044,0.034
2.454,0.01,0.0,-0.01,-0.005,0.01,-0.005,0.01,0.01,0.034,0.059,0.044,0.044
2.456,0.005,-0.01,-0.015,0.005,0.01,-0.015,0.01,0.01,0.044,0.059,0.049,0.049
2.458,0.005,0.0,-0.005,0.0,0.005,-0.005,0.02,0.02,0.049,0.059,0.054,0.054
2.46,0.015,0.005,-0.01,-0.01,0.01,-0.005,0.015,0.015,0.044,0.059,0.054,0.049
2.462,0.039,0.024,-0.015,-0.029,0.024,0.005,0.01,0.015,0.039,0.063,0.054,0.049
2.464,0.034,0.034,0.0,-0.034,0.015,0.015,0.01,0.01,0.039,0.054,0.049,0.049
2.466,0.02,0.029,0.01,-0.024,0.005,0.02,0.01,0.02,0.039,0.059,0.054,0.039
2.468,0.034,0.044,0.01,-0.039,0.01,0.024,0.005,0.01,0.044,0.054,0.049,0.039
2.47,0.034,0.049,0.015,-0.039,0.01,0.029,0.0,0.01,0.044,0.059,0.049,0.044
2.472,0.034,0.034,0.0,-0.034,0.015,0.015,0.0,0.015,0.054,0.059,0.054,0.039
2.474,0.029,0.034,0.005,-0.029,0.01,0.02,0.0,0.015,0.049,0.063,0.054,0.044
2.476,0.024,0.024,0.0,-0.024,0.01,0.01,-0.005,0.02,0.054,0.063,0.054,0.054
2.478,0.034,0.029,-0.005,-0.029,0.02,0.01,-0.01,0.024,0.054,0.073,0.063,0.059
2.48,0.034,0.039,0.005,-0.034,0.015,0.02,-0.01,0.02,0.049,0.068,0.068,0.059
2.482,0.029,0.034,0.005,-0.029,0.01,0.02,-0.024,0.015,0.044,0.063,0.059,0.059
2.484,0.039,0.044,0.005,-0.039,0.015,0.024,-0.024,0.015,0.049,0.063,0.063,0.059
2.486,0.039,0.054,0.015,-0.044,0.01,0.034,-0.029,0.02,0.049,0.068,0.063,0.063
2.488,0.039,0.059,0.02,-0.049,0.01,0.039,-0.024,0.02,0.063,0.078,0.073,0.068
2.49,0.054,0.073,0.02,-0.063,0.015,0.044,-0.034,0.02,0.063,0.078,0.073,0.073
2.492,0.059,0.068,0.01,-0.063,0.024,0.039,-0.044,0.005,0.054,0.068,0.068,0.068
2.494,0.059,0.068,0.01,-0.063,0.024,0.039,-0.039,0.005,0.054,0.083,0.073,0.073
2.496,0.054,0.059,0.005,-0.054,0.024,0.029,-0.039,0.0,0.054,0.083,0.078,0.073
2.498,0.044,0.044,0.0,-0.044,0.02,0.02,-0.039,0.01,0.054,0.088,0.083,0.073
2.5,0.054,0.049,-0.005,-0.049,0.029,0.02,-0.044,0.0,0.049,0.083,0.078,0.068
2.502,0.049,0.039,-0.01,-0.044,0.029,0.015,-0.049,-0.005,0.034,0.073,0.068,0.063
2.504,0.054,0.024,-0.029,-0.039,0.039,-0.005,-0.059,-0.005,0.034,0.063,0.063,0.063
2.506,0.054,0.034,-0.02,-0.044,0.034,0.005,-0.054,0.0,0.029,0.063,0.063,0.073
2.508,0.049,0.029,-0.02,-0.039,0.034,0.005,-0.054,-0.005,0.029,0.059,0.054,0.059
2.51,0.054,0.034,-0.02,-0.044,0.034,0.005,-0.049,-0.005,0.029,0.059,0.059,0.059
2.512,0.049,0.024,-0.024,-0.034,0.034,0.0,-0.049,-0.005,0.024,0.059,0.054,0.054
2.514,0.039,0.015,-0.024,-0.024,0.029,-0.005,-0.039,-0.005,0.024,0.059,0.059,0.059
2.516,0.049,0.024,-0.024,-0.034,0.034,0.0,-0.034,-0.005,0.034,0.063,0.059,0.063
2.518,0.049,0.029,-0.02,-0.039,0.034,0.005,-0.039,-0.01,0.024,0.059,0.054,0.054
2.52,0.049,0.02,-0.029,-0.034,0.039,-0.005,-0.039,-0.005,0.024,0.054,0.059,0.054
2.522,0.049,0.02,-0.029,-0.034,0.039,-0.005,-0.039,-0.01,0.02,0.054,0.054,0.054
2.524,0.039,0.01,-0.029,-0.024,0.034,-0.01,-0.054,-0.024,0.015,0.044,0.044,0.054
2.526,0.034,0.015,-0.02,-0.024,0.024,-0.005,-0.054,-0.024,0.01,0.049,0.049,0.063
2.528,0.024,0.015,-0.01,-0.02,0.015,0.0,-0.054,-0.029,0.01,0.039,0.049,0.059
2.53,0.024,0.01,-0.015,-0.015,0.02,-0.005,-0.054,-0.029,0.0,0.034,0.039,0.054
2.532,0.029,0.015,-0.015,-0.02,0.02,0.0,-0.044,-0.029,-0.005,0.029,0.034,0.044
2.534,0.015,0.0,-0.015,-0.005,0.015,-0.01,-0.039,-0.02,-0.005,0.029,0.029,0.039
2.536,0.005,-0.005,-0.01,0.0,0.005,-0.01,-0.034,-0.02,0.005,0.029,0.039,0.039
2.538,0.005,0.01,0.005,-0.005,0.0,0.005,-0.034,-0.029,-0.005,0.024,0.034,0.039
2.54,0.0,0.005,0.005,0.0,-0.005,0.005,-0.039,-0.034,-0.015,0.015,0.024,0.034
2.542,0.005,0.005,0.0,-0.005,0.0,0.0,-0.039,-0.034,-0.015,0.015,0.02,0.029
2.544,0.0,-0.005,-0.005,0.005,0.0,-0.005,-0.044,-0.039,-0.015,0.01,0.015,0.024
2.546,-0.01,-0.01,0.0,0.01,-0.005,-0.005,-0.044,-0.039,-0.024,0.01,0.01,0.015
2.548,-0.005,-0.015,-0.01,0.01,0.0,-0.015,-0.034,-0.039,-0.02,0.01,0.01,0.015
2.55,-0.01,-0.024,-0.015,0.02,0.0,-0.02,-0.034,-0.039,-0.024,0.005,0.005,0.015
2.552,-0.02,-0.039,-0.02,0.029,0.0,-0.029,-0.024,-0.034,-0.015,0.015,0.01,0.01
2.554,-0.02,-0.039,-0.02,0.029,0.0,-0.029,-0.02,-0.024,-0.015,0.015,0.02,0.01
2.556,-0.015,-0.039,-0.024,0.029,0.005,-0.034,-0.024,-0.029,-0.015,0.015,0.015,0.01
2.558,-0.01,-0.024,-0.015,0.02,0.0,-0.02,-0.02,-0.029,-0.02,0.02,0.02,0.015
2.56,-0.005,-0.015,-0.01,0.01,0.0,-0.015,-0.02,-0.029,-0.024,0.005,0.01,0.01
2.562,-0.01,-0.01,0.0,0.01,-0.005,-0.005,-0.024,-0.034,-0.024,0.005,0.005,0.005
2.564,-0.015,-0.015,0.0,0.015,-0.01,-0.01,-0.024,-0.034,-0.02,0.0,0.005,0.02
2.566,-0.02,-0.024,-0.005,0.024,-0.01,-0.015,-0.029,-0.034,-0.029,0.0,0.005,0.005
2.568,-0.01,-0.024,-0.015,0.02,0.0,-0.02,-0.034,-0.034,-0.029,0.0,0.005,-0.005
2.57,-0.015,-0.029,-0.015,0.024,0.0,-0.024,-0.029,-0.034,-0.02,0.01,0.005,0.005
2.572,-0.029,-0.044,-0.015,0.039,-0.01,-0.029,-0.02,-0.029,-0.02,0.005,0.01,0.005
2.574,-0.024,-0.044,-0.02,0.034,-0.005,-0.034,-0.02,-0.029,-0.02,0.005,0.01,0.005
2.576,-0.02,-0.044,-0.024,0.034,0.0,-0.034,-0.015,-0.024,-0.015,0.015,0.01,0.015
2.578,-0.024,-0.039,-0.015,0.034,-0.005,-0.029,-0.015,-0.029,-0.02,0.01,0.01,0.02
2.58,-0.015,-0.02,-0.005,0.02,-0.005,-0.015,-0.01,-0.034,-0.024,0.0,0.005,0.015
2.582,-0.02,-0.024,-0.005,0.024,-0.01,-0.015,-0.015,-0.029,-0.029,0.0,0.005,0.005
2.584,-0.015,-0.015,0.0,0.015,-0.01,-0.01,-0.02,-0.034,-0.024,-0.005,0.0,0.015
2.586,-0.01,-0.005,0.005,0.01,-0.01,0.0,-0.015,-0.034,-0.029,0.005,0.005,0.015
2.588,-0.01,-0.005,0.005,0.01,-0.01,0.0,-0.02,-0.029,-0.024,0.0,0.0,0.005
2.59,-0.01,-0.01,0.0,0.01,-0.005,-0.005,-0.02,-0.029,-0.024,0.005,0.0,-0.005
2.592,-0.024,-0.015,0.01,0.02,-0.02,-0.005,-0.02,-0.029,-0.024,-0.005,-0.005,0.0
2.594,-0.024,-0.029,-0.005,0.029,-0.01,-0.02,-0.01,-0.024,-0.024,0.0,0.0,0.0
2.596,-0.015,-0.02,-0.005,0.02,-0.005,-0.015,-0.01,-0.024,-0.02,0.005,0.005,0.0
2.598,-0.015,-0.02,-0.005,0.02,-0.005,-0.015,-0.01,-0.024,-0.024,0.01,0.005,0.0
2.6,-0.01,-0.005,0.005,0.01,-0.01,0.0,0.0,-0.02,-0.02,0.005,0.01,0.005
2.602,-0.015,-0.005,0.01,0.01,-0.015,0.0,-0.005,-0.02,-0.024,-0.005,0.0,0.0
2.604,-0.01,-0.005,0.005,0.01,-0.01,0.0,-0.01,-0.024,-0.024,-0.005,0.0,0.01
2.606,-0.01,0.005,0.015,0.005,-0.015,0.01,-0.01,-0.024,-0.024,0.0,0.0,0.005
2.608,-0.005,0.01,0.015,0.0,-0.01,0.01,-0.015,-0.029,-0.034,-0.01,-0.01,-0.005
2.61,-0.01,0.005,0.015,0.005,-0.015,0.01,-0.01,-0.02,-0.024,-0.005,-0.005,-0.005
2.612,-0.01,0.005,0.015,0.005,-0.015,0.01,-0.01,-0.024,-0.024,-0.005,-0.005,-0.005
2.614,-0.024,-0.015,0.01,0.02,-0.02,-0.005,0.0,-0.02,-0.024,-0.005,-0.005,-0.01
2.616,-0.024,-0.01,0.015,0.02,-0.02,0.0,0.005,-0.01,-0.015,0.01,0.005,0.005
2.618,-0.034,0.0,0.034,0.02,-0.034,0.015,0.015,0.0,-0.01,0.015,0.005,0.005
2.62,-0.034,0.0,0.034,0.02,-0.034,0.015,0.015,0.005,0.0,0.015,0.005,0.005
2.622,-0.029,0.01,0.039,0.01,-0.034,0.024,0.029,0.034,0.024,0.024,0.005,0.005
2.624,-0.029,0.034,0.063,0.0,-0.049,0.049,0.054,0.083,0.073,0.049,0.01,0.01
2.626,-0.029,0.044,0.073,-0.005,-0.054,0.059,0.098,0.181,0.171,0.107,0.034,0.024
2.628,0.0,0.068,0.068,-0.034,-0.034,0.068,0.107,0.268,0.273,0.19,0.073,0.034
2.63,0.039,0.088,0.049,-0.063,-0.005,0.068,0.088,0.327,0.386,0.312,0.161,0.073
2.632,0.093,0.127,0.034,-0.107,0.029,0.078,0.063,0.376,0.517,0.493,0.278,0.151
2.634,0.137,0.146,0.01,-0.142,0.063,0.078,0.059,0.478,0.698,0.688,0.405,0.21
2.636,0.2,0.181,-0.02,-0.19,0.107,0.078,0.078,0.644,0.937,0.913,0.542,0.283
2.638,0.293,0.234,-0.059,-0.264,0.176,0.088,0.073,0.805,1.176,1.166,0.698,0.371
2.64,0.376,0.288,-0.088,-0.332,0.229,0.098,0.039,0.869,1.371,1.405,0.874,0.478
2.642,0.483,0.337,-0.146,-0.41,0.312,0.093,-0.024,0.805,1.444,1.571,1.025,0.566
2.644,0.556,0.39,-0.166,-0.473,0.361,0.112,-0.098,0.595,1.386,1.649,1.132,0.649
2.646,0.615,0.464,-0.151,-0.537,0.381,0.156,-0.2,0.229,1.21,1.659,1.205,0.727
2.648,0.664,0.561,-0.102,-0.61,0.381,0.229,-0.303,-0.146,0.956,1.591,1.264,0.815
2.65,0.669,0.649,-0.02,-0.659,0.342,0.312,-0.361,-0.41,0.678,1.415,1.24,0.849
2.652,0.634,0.688,0.054,-0.659,0.288,0.371,-0.386,-0.61,0.4,1.181,1.157,0.859
2.654,0.605,0.678,0.073,-0.639,0.264,0.376,-0.381,-0.786,0.078,0.854,1.015,0.815
2.656,0.566,0.625,0.059,-0.595,0.254,0.342,-0.381,-0.996,-0.278,0.493,0.834,0.737
2.658,0.483,0.547,0.063,-0.512,0.21,0.303,-0.366,-1.249,-0.698,0.093,0.605,0.63
2.66,0.346,0.473,0.127,-0.41,0.107,0.298,-0.322,-1.498,-1.103,-0.298,0.376,0.532
2.662,0.205,0.405,0.2,-0.303,0.0,0.303,-0.244,-1.64,-1.381,-0.576,0.2,0.434
2.664,0.078,0.371,0.293,-0.224,-0.107,0.332,-0.161,-1.64,-1.425,-0.664,0.102,0.366
2.666,-0.024,0.322,0.346,-0.146,-0.185,0.332,-0.112,-1.586,-1.386,-0.708,0.01,0.293
2.668,-0.112,0.298,0.41,-0.093,-0.264,0.351,-0.063,-1.508,-1.337,-0.732,-0.083,0.21
2.67,-0.156,0.288,0.444,-0.063,-0.303,0.366,-0.049,-1.415,-1.259,-0.722,-0.137,0.142
2.672,-0.176,0.244,0.42,-0.034,-0.298,0.332,-0.102,-1.342,-1.186,-0.698,-0.176,0.078
2.674,-0.176,0.21,0.386,-0.015,-0.283,0.298,-0.22,-1.249,-1.088,-0.649,-0.185,0.054
2.676,-0.166,0.21,0.376,-0.02,-0.273,0.293,-0.307,-1.142,-0.991,-0.605,-0.195,0.02
2.678,-0.166,0.19,0.356,-0.01,-0.264,0.273,-0.303,-1.0,-0.883,-0.556,-0.205,-0.005
2.68,-0.156,0.181,0.337,-0.01,-0.249,0.259,-0.264,-0.864,-0.776,-0.493,-0.195,-0.01
2.682,-0.142,0.171,0.312,-0.015,-0.229,0.239,-0.224,-0.737,-0.673,-0.434,-0.176,-0.024
2.684,-0.127,0.142,0.268,-0.005,-0.2,0.205,-0.19,-0.59,-0.556,-0.376,-0.156,-0.024
2.686,-0.107,0.137,0.244,-0.015,-0.176,0.19,-0.161,-0.449,-0.444,-0.307,-0.137,-0.015
2.688,-0.102,0.127,0.229,-0.01,-0.166,0.176,-0.132,-0.346,-0.342,-0.239,-0.107,-0.015
2.69,-0.093,0.117,0.21,-0.01,-0.151,0.161,-0.098,-0.254,-0.259,-0.185,-0.088,-0.02
2.692,-0.068,0.112,0.181,-0.02,-0.127,0.146,-0.073,-0.181,-0.2,-0.137,-0.063,-0.01
2.694,-0.049,0.083,0.132,-0.015,-0.093,0.107,-0.063,-0.137,-0.166,-0.112,-0.059,-0.024
2.696,-0.039,0.073,0.112,-0.015,-0.078,0.093,-0.039,-0.107,-0.142,-0.093,-0.044,-0.024
2.698,-0.034,0.059,0.093,-0.01,-0.063,0.073,-0.029,-0.083,-0.127,-0.088,-0.044,-0.02
2.7,-0.034,0.049,0.083,-0.005,-0.059,0.063,-0.024,-0.063,-0.112,-0.078,-0.044,-0.02
2.702,-0.029,0.044,0.073,-0.005,-0.054,0.059,-0.01,-0.044,-0.102,-0.073,-0.049,-0.02
2.704,-0.039,0.024,0.063,0.01,-0.054,0.044,-0.015,-0.02,-0.078,-0.073,-0.054,-0.029
2.706,-0.034,0.024,0.059,0.005,-0.049,0.039,-0.015,0.01,-0.063,-0.068,-0.059,-0.029
2.708,-0.034,0.029,0.063,0.005,-0.049,0.044,0.0,0.024,-0.039,-0.054,-0.054,-0.024
2.71,-0.044,0.005,0.049,0.02,-0.049,0.024,0.01,0.049,-0.024,-0.039,-0.049,-0.034
2.712,-0.039,0.0,0.039,0.02,-0.039,0.02,0.024,0.063,-0.015,-0.024,-0.049,-0.034
2.714,-0.034,0.005,0.039,0.015,-0.039,0.02,0.034,0.068,-0.005,-0.01,-0.039,-0.029
2.716,-0.024,0.005,0.029,0.01,-0.029,0.015,0.039,0.063,-0.005,-0.01,-0.024,-0.034
2.718,-0.015,0.024,0.039,-0.005,-0.029,0.029,0.034,0.068,-0.005,-0.01,-0.029,-0.029
2.72,-0.015,0.02,0.034,0.0,-0.024,0.024,0.024,0.068,-0.01,-0.02,-0.029,-0.024
2.722,-0.015,0.024,0.039,-0.005,-0.029,0.029,0.02,0.068,-0.015,-0.02,-0.029,-0.029
2.724,-0.01,0.044,0.054,-0.015,-0.034,0.049,0.01,0.078,-0.015,-0.024,-0.034,-0.039
2.726,-0.015,0.039,0.054,-0.01,-0.034,0.044,0.005,0.088,-0.01,-0.034,-0.049,-0.034
2.728,-0.02,0.039,0.059,-0.01,-0.039,0.049,0.005,0.093,0.0,-0.029,-0.049,-0.044
2.73,-0.029,0.034,0.063,0.0,-0.049,0.049,0.02,0.102,0.015,-0.02,-0.039,-0.039
2.732,-0.024,0.02,0.044,0.005,-0.034,0.029,0.02,0.102,0.02,-0.015,-0.039,-0.054
2.734,-0.02,0.024,0.044,0.0,-0.034,0.034,0.029,0.107,0.024,-0.005,-0.034,-0.039
2.736,-0.015,0.024,0.039,-0.005,-0.029,0.029,0.029,0.093,0.01,-0.005,-0.034,-0.044
2.738,-0.005,0.029,0.034,-0.01,-0.02,0.029,0.029,0.093,0.01,-0.005,-0.029,-0.039
2.74,-0.005,0.034,0.039,-0.015,-0.024,0.034,0.024,0.088,0.005,-0.01,-0.029,-0.039
2.742,-0.01,0.034,0.044,-0.01,-0.029,0.039,0.02,0.088,0.0,-0.01,-0.034,-0.049
2.744,0.0,0.049,0.049,-0.024,-0.024,0.049,0.024,0.102,0.01,-0.01,-0.029,-0.034
2.746,0.0,0.059,0.059,-0.029,-0.029,0.059,0.015,0.107,0.01,-0.024,-0.044,-0.044
2.748,0.0,0.054,0.054,-0.024,-0.029,0.054,0.015,0.107,0.015,-0.024,-0.049,-0.049
2.75,-0.01,0.049,0.059,-0.02,-0.034,0.054,0.024,0.112,0.024,-0.015,-0.044,-0.049
2.752,-0.02,0.029,0.049,-0.005,-0.034,0.039,0.029,0.117,0.029,-0.01,-0.044,-0.054
2.754,-0.015,0.029,0.044,-0.005,-0.029,0.034,0.039,0.117,0.039,0.0,-0.044,-0.054
2.756,-0.01,0.034,0.044,-0.01,-0.029,0.039,0.034,0.102,0.024,0.0,-0.034,-0.054
2.758,-0.015,0.015,0.029,0.0,-0.024,0.02,0.039,0.107,0.024,0.0,-0.029,-0.044
2.76,-0.015,0.02,0.034,0.0,-0.024,0.024,0.039,0.112,0.034,0.01,-0.02,-0.029
2.762,-0.005,0.029,0.034,-0.01,-0.02,0.029,0.029,0.112,0.024,-0.005,-0.029,-0.039
2.764,-0.01,0.034,0.044,-0.01,-0.029,0.039,0.029,0.117,0.024,-0.01,-0.029,-0.039
2.766,0.0,0.049,0.049,-0.024,-0.024,0.049,0.024,0.132,0.034,-0.01,-0.039,-0.034
2.768,-0.015,0.049,0.063,-0.015,-0.039,0.054,0.024,0.137,0.034,-0.01,-0.044,-0.049
2.77,-0.01,0.044,0.054,-0.015,-0.034,0.049,0.034,0.142,0.044,0.0,-0.044,-0.054
2.772,-0.01,0.034,0.044,-0.01,-0.029,0.039,0.034,0.142,0.044,-0.005,-0.044,-0.059
2.774,-0.02,0.02,0.039,0.0,-0.029,0.029,0.049,0.146,0.054,0.005,-0.034,-0.059
2.776,-0.02,0.024,0.044,0.0,-0.034,0.034,0.054,0.142,0.049,0.01,-0.024,-0.054
2.778,-0.024,0.02,0.044,0.005,-0.034,0.029,0.049,0.132,0.034,0.0,-0.029,-0.049
2.78,-0.02,0.005,0.024,0.01,-0.024,0.015,0.049,0.137,0.034,0.0,-0.024,-0.044
2.782,-0.015,0.015,0.029,0.0,-0.024,0.02,0.049,0.146,0.039,0.0,-0.029,-0.044
2.784,-0.015,0.02,0.034,0.0,-0.024,0.024,0.044,0.151,0.039,-0.005,-0.029,-0.039
2.786,-0.015,0.029,0.044,-0.005,-0.029,0.034,0.039,0.161,0.049,-0.005,-0.039,-0.044
2.788,-0.02,0.039,0.059,-0.01,-0.039,0.049,0.044,0.166,0.054,-0.005,-0.044,-0.054
2.79,-0.02,0.029,0.049,-0.005,-0.034,0.039,0.049,0.166,0.054,-0.005,-0.049,-0.054
2.792,-0.005,0.034,0.039,-0.015,-0.024,0.034,0.059,0.166,0.063,0.005,-0.044,-0.054
2.794,-0.005,0.034,0.039,-0.015,-0.024,0.034,0.059,0.171,0.063,0.01,-0.044,-0.059
2.796,-0.005,0.034,0.039,-0.015,-0.024,0.034,0.054,0.161,0.059,0.01,-0.039,-0.063
2.798,-0.005,0.029,0.034,-0.01,-0.02,0.029,0.054,0.161,0.059,0.01,-0.034,-0.063
2.8,-0.015,0.015,0.029,0.0,-0.024,0.02,0.049,0.166,0.054,0.005,-0.039,-0.054
2.802,-0.015,0.02,0.034,0.0,-0.024,0.024,0.054,0.181,0.054,0.01,-0.034,-0.049
2.804,-0.015,0.024,0.039,-0.005,-0.029,0.029,0.049,0.181,0.059,0.0,-0.034,-0.044
2.806,-0.01,0.029,0.039,-0.01,-0.024,0.034,0.049,0.195,0.063,0.0,-0.039,-0.044
2.808,-0.005,0.049,0.054,-0.02,-0.029,0.049,0.049,0.195,0.068,0.005,-0.044,-0.054
2.81,-0.01,0.034,0.044,-0.01,-0.029,0.039,0.054,0.195,0.073,0.0,-0.044,-0.059
2.812,-0.015,0.034,0.049,-0.01,-0.034,0.039,0.063,0.2,0.088,0.01,-0.039,-0.063
2.814,0.0,0.044,0.044,-0.02,-0.024,0.044,0.068,0.2,0.083,0.015,-0.039,-0.063
2.816,0.0,0.044,0.044,-0.02,-0.024,0.044,0.073,0.19,0.078,0.01,-0.039,-0.068
2.818,0.0,0.039,0.039,-0.02,-0.02,0.039,0.068,0.19,0.073,0.005,-0.039,-0.063
2.82,-0.01,0.034,0.044,-0.01,-0.029,0.039,0.063,0.19,0.068,0.005,-0.044,-0.054
2.822,-0.01,0.015,0.024,0.0,-0.02,0.02,0.073,0.205,0.073,0.015,-0.034,-0.049
2.824,-0.01,0.029,0.039,-0.01,-0.024,0.034,0.068,0.215,0.073,0.005,-0.039,-0.044
2.826,-0.015,0.02,0.034,0.0,-0.024,0.024,0.068,0.224,0.073,0.0,-0.044,-0.054
2.828,-0.02,0.015,0.034,0.005,-0.029,0.024,0.063,0.224,0.073,0.0,-0.054,-0.059
2.83,-0.02,0.01,0.029,0.005,-0.024,0.02,0.083,0.234,0.088,0.015,-0.039,-0.054
2.832,-0.02,0.015,0.034,0.005,-0.029,0.024,0.073,0.229,0.093,0.005,-0.044,-0.059
2.834,-0.005,0.02,0.024,-0.005,-0.015,0.02,0.083,0.234,0.093,0.015,-0.049,-0.063
2.836,-0.005,0.029,0.034,-0.01,-0.02,0.029,0.083,0.229,0.088,0.01,-0.044,-0.063
2.838,-0.01,0.02,0.029,-0.005,-0.02,0.024,0.083,0.229,0.093,0.005,-0.034,-0.054
2.84,-0.01,0.024,0.034,-0.005,-0.024,0.029,0.078,0.234,0.093,0.005,-0.039,-0.054
2.842,-0.015,0.01,0.024,0.005,-0.02,0.015,0.078,0.234,0.083,0.0,-0.044,-0.059
2.844,-0.015,0.015,0.029,0.0,-0.024,0.02,0.078,0.249,0.093,0.0,-0.039,-0.059
2.846,-0.01,0.02,0.029,-0.005,-0.02,0.024,0.068,0.259,0.093,-0.01,-0.054,-0.063
2.848,-0.02,0.01,0.029,0.005,-0.024,0.02,0.078,0.264,0.102,0.0,-0.054,-0.059
2.85,-0.02,0.005,0.024,0.01,-0.024,0.015,0.088,0.273,0.112,0.005,-0.049,-0.068
2.852,-0.015,0.01,0.024,0.005,-0.02,0.015,0.083,0.273,0.107,0.0,-0.059,-0.073
2.854,-0.015,0.01,0.024,0.005,-0.02,0.015,0.088,0.273,0.112,0.005,-0.054,-0.073
2.856,-0.005,0.02,0.024,-0.005,-0.015,0.02,0.098,0.273,0.112,0.01,-0.049,-0.063
2.858,-0.01,0.02,0.029,-0.005,-0.02,0.024,0.093,0.273,0.102,0.0,-0.049,-0.063
2.86,-0.005,0.024,0.029,-0.01,-0.02,0.024,0.098,0.283,0.107,0.01,-0.049,-0.063
2.862,0.005,0.034,0.029,-0.02,-0.015,0.029,0.088,0.283,0.098,0.0,-0.054,-0.073
2.864,-0.005,0.029,0.034,-0.01,-0.02,0.029,0.083,0.288,0.093,-0.01,-0.059,-0.083
2.866,-0.005,0.034,0.039,-0.015,-0.024,0.034,0.083,0.303,0.102,-0.01,-0.063,-0.073
2.868,-0.005,0.024,0.029,-0.01,-0.02,0.024,0.083,0.303,0.107,-0.01,-0.068,-0.078
2.87,-0.02,0.01,0.029,0.005,-0.024,0.02,0.088,0.312,0.117,-0.005,-0.063,-0.078
2.872,-0.02,0.015,0.034,0.005,-0.029,0.024,0.098,0.312,0.122,0.0,-0.068,-0.078
2.874,-0.02,0.01,0.029,0.005,-0.024,0.02,0.102,0.317,0.127,0.005,-0.068,-0.083
2.876,0.0,0.024,0.024,-0.01,-0.015,0.024,0.102,0.307,0.117,0.005,-0.068,-0.088
2.878,-0.005,0.024,0.029,-0.01,-0.02,0.024,0.107,0.312,0.117,0.0,-0.063,-0.073
2.88,-0.01,0.02,0.029,-0.005,-0.02,0.024,0.102,0.322,0.112,-0.01,-0.068,-0.078
2.882,0.0,0.034,0.034,-0.015,-0.02,0.034,0.098,0.327,0.117,-0.015,-0.063,-0.078
2.884,0.0,0.039,0.039,-0.02,-0.02,0.039,0.093,0.327,0.112,-0.024,-0.073,-0.088
2.886,-0.005,0.034,0.039,-0.015,-0.024,0.034,0.098,0.332,0.117,-0.024,-0.078,-0.078
2.888,0.0,0.034,0.034,-0.015,-0.02,0.034,0.098,0.342,0.127,-0.024,-0.083,-0.093
2.89,-0.015,0.02,0.034,0.0,-0.024,0.024,0.102,0.351,0.127,-0.024,-0.083,-0.107
2.892,-0.015,0.015,0.029,0.0,-0.024,0.02,0.117,0.356,0.132,-0.02,-0.083,-0.098
2.894,-0.02,0.015,0.034,0.005,-0.029,0.024,0.122,0.361,0.137,-0.02,-0.083,-0.098
2.896,-0.024,0.0,0.024,0.015,-0.024,0.01,0.122,0.361,0.137,-0.015,-0.078,-0.102
2.898,-0.015,0.0,0.015,0.01,-0.015,0.005,0.127,0.376,0.127,-0.02,-0.073,-0.088
2.9,-0.015,0.005,0.02,0.005,-0.02,0.01,0.117,0.371,0.127,-0.029,-0.083,-0.093
2.902,-0.02,0.01,0.029,0.005,-0.024,0.02,0.122,0.376,0.127,-0.034,-0.083,-0.093
2.904,-0.01,0.029,0.039,-0.01,-0.024,0.034,0.117,0.371,0.122,-0.039,-0.088,-0.093
2.906,-0.01,0.024,0.034,-0.005,-0.024,0.029,0.122,0.386,0.122,-0.044,-0.098,-0.098
2.908,-0.015,0.024,0.039,-0.005,-0.029,0.029,0.122,0.4,0.122,-0.039,-0.098,-0.102
2.91,-0.02,0.015,0.034,0.005,-0.029,0.024,0.127,0.395,0.127,-0.044,-0.102,-0.112
2.912,-0.029,0.0,0.029,0.015,-0.029,0.015,0.137,0.41,0.132,-0.039,-0.102,-0.098
2.914,-0.024,0.005,0.029,0.01,-0.029,0.015,0.142,0.415,0.132,-0.039,-0.102,-0.098
2.916,-0.029,0.0,0.029,0.015,-0.029,0.015,0.142,0.41,0.132,-0.044,-0.098,-0.102
2.918,-0.034,-0.005,0.029,0.02,-0.034,0.01,0.146,0.415,0.122,-0.054,-0.102,-0.107
2.92,-0.029,-0.005,0.024,0.02,-0.029,0.01,0.151,0.42,0.122,-0.059,-0.098,-0.102
2.922,-0.029,0.0,0.029,0.015,-0.029,0.015,0.151,0.415,0.117,-0.063,-0.102,-0.102
2.924,-0.024,0.015,0.039,0.005,-0.034,0.024,0.146,0.42,0.112,-0.073,-0.112,-0.112
2.926,-0.024,0.015,0.039,0.005,-0.034,0.024,0.146,0.42,0.107,-0.093,-0.122,-0.112
2.928,-0.034,0.01,0.044,0.015,-0.039,0.024,0.146,0.42,0.102,-0.093,-0.127,-0.117
2.93,-0.024,0.015,0.039,0.005,-0.034,0.024,0.151,0.425,0.107,-0.093,-0.127,-0.122
2.932,-0.024,0.02,0.044,0.005,-0.034,0.029,0.161,0.429,0.102,-0.098,-0.137,-0.127
2.934,-0.029,0.01,0.039,0.01,-0.034,0.024,0.156,0.425,0.102,-0.098,-0.132,-0.122
2.936,-0.029,0.015,0.044,0.01,-0.039,0.029,0.156,0.42,0.088,-0.107,-0.137,-0.122
2.938,-0.039,0.005,0.044,0.02,-0.044,0.024,0.151,0.415,0.073,-0.117,-0.142,-0.127
2.94,-0.034,0.0,0.034,0.02,-0.034,0.015,0.161,0.405,0.073,-0.122,-0.142,-0.117
2.942,-0.034,0.005,0.039,0.015,-0.039,0.02,0.161,0.4,0.063,-0.137,-0.142,-0.117
2.944,-0.034,0.01,0.044,0.015,-0.039,0.024,0.151,0.4,0.054,-0.151,-0.156,-0.117
2.946,-0.029,0.024,0.054,0.005,-0.044,0.039,0.151,0.4,0.044,-0.156,-0.156,-0.127
2.948,-0.039,0.02,0.059,0.01,-0.049,0.039,0.146,0.39,0.034,-0.161,-0.166,-0.127
2.95,-0.034,0.015,0.049,0.01,-0.044,0.029,0.151,0.386,0.034,-0.166,-0.166,-0.127
