time,I,II,III,aVR,aVL,aVF,V1,V2,V3,V4,V5,V6
0.0,0.02,0.039,0.02,-0.029,0.0,0.029,0.01,0.112,-0.029,0.532,-0.083,-0.039
0.002,0.02,0.024,0.005,-0.02,0.005,0.015,0.015,0.112,-0.029,0.532,-0.083,-0.044
0.004,0.02,0.01,-0.01,-0.015,0.015,0.0,0.02,0.112,-0.024,0.532,-0.083,-0.044
0.006,0.02,0.005,-0.015,-0.01,0.015,-0.005,0.024,0.122,-0.015,0.532,-0.083,-0.039
0.008,0.034,0.0,-0.034,-0.015,0.034,-0.02,0.024,0.127,-0.01,0.522,-0.088,-0.029
0.01,0.02,-0.01,-0.029,-0.005,0.024,-0.02,0.005,0.117,-0.024,0.503,-0.102,-0.039
0.012,0.015,-0.02,-0.034,0.005,0.024,-0.029,0.005,0.107,-0.039,0.483,-0.127,-0.044
0.014,0.0,-0.039,-0.039,0.02,0.02,-0.039,0.005,0.102,-0.049,0.454,-0.142,-0.059
0.016,-0.005,-0.054,-0.049,0.029,0.02,-0.054,0.015,0.102,-0.059,0.439,-0.137,-0.068
0.018,-0.01,-0.059,-0.049,0.034,0.02,-0.054,0.02,0.107,-0.059,0.425,-0.137,-0.073
0.02,-0.02,-0.063,-0.044,0.044,0.01,-0.054,0.034,0.107,-0.059,0.405,-0.146,-0.078
0.022,-0.029,-0.068,-0.039,0.049,0.005,-0.054,0.034,0.107,-0.063,0.376,-0.161,-0.093
0.024,-0.049,-0.078,-0.029,0.063,-0.01,-0.054,0.039,0.098,-0.078,0.356,-0.171,-0.102
0.026,-0.049,-0.083,-0.034,0.068,-0.01,-0.059,0.044,0.098,-0.083,0.337,-0.19,-0.112
0.028,-0.063,-0.059,0.005,0.063,-0.034,-0.029,0.044,0.098,-0.088,0.322,-0.2,-0.117
0.03,-0.073,-0.059,0.015,0.068,-0.044,-0.024,0.044,0.088,-0.098,0.298,-0.215,-0.127
0.032,-0.073,-0.088,-0.015,0.083,-0.029,-0.054,0.039,0.088,-0.093,0.273,-0.21,-0.122
0.034,-0.083,-0.098,-0.015,0.093,-0.034,-0.059,0.039,0.088,-0.098,0.264,-0.195,-0.127
0.036,-0.088,-0.107,-0.02,0.098,-0.034,-0.063,0.039,0.088,-0.098,0.259,-0.185,-0.132
0.038,-0.088,-0.112,-0.024,0.102,-0.034,-0.068,0.044,0.093,-0.107,0.249,-0.176,-0.137
0.04,-0.059,-0.107,-0.049,0.083,-0.005,-0.078,0.049,0.102,-0.098,0.229,-0.166,-0.122
0.042,-0.054,-0.107,-0.054,0.083,0.0,-0.083,0.054,0.102,-0.098,0.22,-0.151,-0.127
0.044,-0.049,-0.088,-0.039,0.068,-0.005,-0.063,0.049,0.107,-0.098,0.21,-0.146,-0.122
0.046,-0.054,-0.112,-0.059,0.083,0.0,-0.088,0.063,0.117,-0.098,0.205,-0.132,-0.117
0.048,-0.083,-0.112,-0.029,0.098,-0.029,-0.073,0.073,0.107,-0.107,0.215,-0.156,-0.122
0.05,-0.088,-0.102,-0.015,0.098,-0.039,-0.059,0.068,0.102,-0.117,0.215,-0.171,-0.127
0.052,-0.088,-0.102,-0.015,0.098,-0.039,-0.059,0.068,0.102,-0.122,0.215,-0.185,-0.132
0.054,-0.093,-0.107,-0.015,0.102,-0.039,-0.063,0.073,0.102,-0.127,0.215,-0.2,-0.137
0.056,-0.107,-0.098,0.01,0.102,-0.059,-0.044,0.063,0.102,-0.117,0.224,-0.21,-0.146
0.058,-0.112,-0.102,0.01,0.107,-0.063,-0.049,0.063,0.102,-0.117,0.229,-0.22,-0.151
0.06,-0.122,-0.117,0.005,0.122,-0.063,-0.059,0.068,0.098,-0.117,0.224,-0.234,-0.151
0.062,-0.127,-0.117,0.01,0.122,-0.068,-0.054,0.068,0.098,-0.122,0.229,-0.249,-0.156
0.064,-0.137,-0.112,0.024,0.127,-0.083,-0.044,0.083,0.098,-0.117,0.239,-0.249,-0.151
0.066,-0.142,-0.132,0.01,0.137,-0.078,-0.063,0.088,0.098,-0.107,0.244,-0.244,-0.151
0.068,-0.142,-0.127,0.015,0.137,-0.078,-0.059,0.098,0.098,-0.098,0.244,-0.244,-0.142
0.07,-0.132,-0.122,0.01,0.127,-0.073,-0.059,0.102,0.098,-0.093,0.244,-0.244,-0.142
0.072,-0.098,-0.098,0.0,0.098,-0.049,-0.049,0.117,0.107,-0.078,0.234,-0.244,-0.142
0.074,-0.102,-0.107,-0.005,0.107,-0.049,-0.059,0.132,0.127,-0.054,0.249,-0.234,-0.127
0.076,-0.132,-0.122,0.01,0.127,-0.073,-0.059,0.166,0.146,-0.039,0.244,-0.234,-0.127
0.078,-0.127,-0.078,0.049,0.102,-0.088,-0.015,0.176,0.156,-0.044,0.244,-0.249,-0.146
0.08,-0.083,-0.059,0.024,0.073,-0.054,-0.02,0.181,0.19,0.0,0.259,-0.239,-0.151
0.082,-0.098,-0.093,0.005,0.098,-0.054,-0.044,0.244,0.264,0.098,0.307,-0.195,-0.122
0.084,-0.093,-0.068,0.024,0.083,-0.059,-0.024,0.307,0.346,0.21,0.386,-0.132,-0.107
0.086,-0.059,-0.02,0.039,0.039,-0.049,0.01,0.371,0.473,0.327,0.459,-0.088,-0.102
0.088,-0.015,-0.063,-0.049,0.039,0.015,-0.059,0.464,0.683,0.483,0.547,-0.024,-0.083
0.09,0.059,-0.093,-0.151,0.02,0.102,-0.122,0.556,0.922,0.698,0.698,0.078,-0.02
0.092,0.195,-0.093,-0.288,-0.049,0.239,-0.19,0.634,1.142,0.947,0.917,0.264,0.102
0.094,0.337,-0.098,-0.434,-0.117,0.386,-0.268,0.639,1.274,1.161,1.176,0.503,0.268
0.096,0.493,-0.078,-0.571,-0.205,0.532,-0.327,0.571,1.283,1.288,1.44,0.756,0.464
0.098,0.639,0.039,-0.6,-0.337,0.62,-0.283,0.454,1.176,1.342,1.684,1.049,0.683
0.1,0.786,0.205,-0.581,-0.493,0.683,-0.19,0.254,0.908,1.283,1.908,1.381,0.961
0.102,0.927,0.351,-0.576,-0.639,0.752,-0.112,0.01,0.532,1.166,2.142,1.737,1.24
0.104,1.059,0.542,-0.517,-0.8,0.786,0.01,-0.224,0.21,1.113,2.42,2.108,1.508
0.106,1.161,0.722,-0.439,-0.942,0.8,0.142,-0.41,-0.024,1.078,2.674,2.45,1.752
0.108,1.22,0.878,-0.342,-1.049,0.781,0.268,-0.605,-0.268,0.952,2.757,2.65,1.937
0.11,1.127,0.956,-0.171,-1.039,0.649,0.39,-0.781,-0.571,0.634,2.489,2.499,1.937
0.112,0.893,0.956,0.063,-0.922,0.415,0.508,-0.874,-0.878,0.088,1.796,1.893,1.693
0.114,0.605,0.839,0.234,-0.722,0.185,0.537,-0.893,-1.142,-0.508,0.937,1.098,1.322
0.116,0.327,0.654,0.327,-0.488,0.0,0.488,-0.883,-1.269,-0.956,0.19,0.337,0.913
0.118,0.083,0.488,0.405,-0.283,-0.161,0.444,-0.854,-1.366,-1.352,-0.512,-0.366,0.508
0.12,-0.151,0.439,0.59,-0.142,-0.371,0.512,-0.834,-1.498,-1.781,-1.118,-0.82,0.21
0.122,-0.298,0.439,0.737,-0.068,-0.517,0.586,-0.869,-1.62,-2.054,-1.435,-0.966,0.083
0.124,-0.337,0.405,0.742,-0.034,-0.542,0.571,-0.913,-1.61,-2.02,-1.43,-0.952,0.02
0.126,-0.322,0.293,0.615,0.015,-0.468,0.454,-0.893,-1.469,-1.796,-1.254,-0.893,-0.015
0.128,-0.317,0.215,0.532,0.054,-0.425,0.371,-0.791,-1.288,-1.571,-1.088,-0.82,-0.054
0.13,-0.278,0.234,0.512,0.024,-0.395,0.371,-0.673,-1.069,-1.357,-0.961,-0.786,-0.117
0.132,-0.229,0.22,0.449,0.005,-0.342,0.332,-0.527,-0.825,-1.093,-0.781,-0.717,-0.137
0.134,-0.2,0.107,0.307,0.049,-0.254,0.205,-0.39,-0.6,-0.844,-0.59,-0.595,-0.093
0.136,-0.171,0.078,0.249,0.049,-0.21,0.161,-0.283,-0.439,-0.673,-0.464,-0.508,-0.054
0.138,-0.142,0.083,0.224,0.029,-0.185,0.151,-0.2,-0.288,-0.547,-0.366,-0.464,-0.073
0.14,-0.137,0.015,0.151,0.063,-0.146,0.083,-0.093,-0.151,-0.415,-0.259,-0.425,-0.093
0.142,-0.122,-0.063,0.059,0.093,-0.093,-0.005,0.005,-0.029,-0.307,-0.2,-0.376,-0.093
0.144,-0.098,-0.083,0.015,0.093,-0.059,-0.034,0.059,0.029,-0.249,-0.176,-0.376,-0.107
0.146,-0.117,-0.073,0.044,0.098,-0.083,-0.015,0.088,0.049,-0.229,-0.171,-0.376,-0.122
0.148,-0.142,-0.093,0.049,0.117,-0.098,-0.024,0.102,0.073,-0.21,-0.176,-0.386,-0.142
0.15,-0.132,-0.093,0.039,0.112,-0.088,-0.029,0.107,0.098,-0.181,-0.171,-0.381,-0.151
0.152,-0.122,-0.102,0.02,0.112,-0.073,-0.044,0.122,0.127,-0.161,-0.142,-0.351,-0.151
0.154,-0.132,-0.107,0.024,0.122,-0.078,-0.044,0.127,0.142,-0.132,-0.127,-0.332,-0.146
0.156,-0.117,-0.102,0.015,0.112,-0.068,-0.044,0.137,0.156,-0.117,-0.098,-0.317,-0.146
0.158,-0.112,-0.107,0.005,0.112,-0.059,-0.054,0.142,0.181,-0.098,-0.088,-0.307,-0.146
0.16,-0.112,-0.122,-0.01,0.117,-0.054,-0.068,0.166,0.2,-0.088,-0.088,-0.307,-0.146
0.162,-0.122,-0.127,-0.005,0.127,-0.059,-0.068,0.181,0.22,-0.078,-0.102,-0.327,-0.166
0.164,-0.122,-0.132,-0.01,0.127,-0.059,-0.073,0.185,0.229,-0.068,-0.112,-0.337,-0.151
0.166,-0.132,-0.156,-0.024,0.146,-0.054,-0.093,0.19,0.239,-0.059,-0.127,-0.342,-0.151
0.168,-0.132,-0.161,-0.029,0.146,-0.054,-0.098,0.19,0.239,-0.059,-0.127,-0.346,-0.151
0.17,-0.137,-0.151,-0.015,0.146,-0.063,-0.083,0.195,0.244,-0.059,-0.132,-0.337,-0.142
0.172,-0.132,-0.151,-0.02,0.142,-0.059,-0.088,0.185,0.249,-0.054,-0.117,-0.327,-0.142
0.174,-0.132,-0.146,-0.015,0.142,-0.059,-0.083,0.185,0.254,-0.039,-0.107,-0.322,-0.142
0.176,-0.122,-0.132,-0.01,0.127,-0.059,-0.073,0.19,0.259,-0.034,-0.098,-0.312,-0.142
0.178,-0.098,-0.127,-0.029,0.112,-0.034,-0.078,0.185,0.268,-0.039,-0.098,-0.307,-0.142
0.18,-0.098,-0.132,-0.034,0.117,-0.034,-0.083,0.181,0.273,-0.039,-0.112,-0.317,-0.142
0.182,-0.098,-0.127,-0.029,0.112,-0.034,-0.078,0.176,0.278,-0.044,-0.122,-0.327,-0.142
0.184,-0.102,-0.112,-0.01,0.107,-0.049,-0.063,0.181,0.283,-0.049,-0.132,-0.337,-0.137
0.186,-0.112,-0.122,-0.01,0.117,-0.054,-0.068,0.19,0.312,-0.024,-0.132,-0.312,-0.117
0.188,-0.122,-0.132,-0.01,0.127,-0.059,-0.073,0.21,0.307,-0.024,-0.127,-0.317,-0.112
0.19,-0.107,-0.112,-0.005,0.112,-0.054,-0.059,0.21,0.307,-0.024,-0.122,-0.312,-0.112
0.192,-0.107,-0.093,0.015,0.102,-0.063,-0.039,0.22,0.312,-0.02,-0.122,-0.303,-0.112
0.194,-0.098,-0.107,-0.01,0.102,-0.044,-0.059,0.19,0.312,-0.029,-0.142,-0.307,-0.122
0.196,-0.098,-0.127,-0.029,0.112,-0.034,-0.078,0.181,0.307,-0.024,-0.142,-0.303,-0.127
0.198,-0.093,-0.132,-0.039,0.112,-0.029,-0.088,0.176,0.298,-0.015,-0.132,-0.293,-0.132
0.2,-0.083,-0.142,-0.059,0.112,-0.015,-0.102,0.176,0.288,-0.015,-0.132,-0.298,-0.132
0.202,-0.078,-0.142,-0.063,0.112,-0.01,-0.102,0.181,0.293,-0.015,-0.151,-0.307,-0.132
0.204,-0.078,-0.132,-0.054,0.107,-0.015,-0.093,0.181,0.298,-0.015,-0.156,-0.307,-0.132
0.206,-0.073,-0.132,-0.059,0.102,-0.01,-0.098,0.181,0.317,0.0,-0.151,-0.307,-0.127
0.208,-0.068,-0.132,-0.063,0.102,-0.005,-0.098,0.176,0.327,0.0,-0.146,-0.307,-0.122
0.21,-0.083,-0.132,-0.049,0.107,-0.02,-0.093,0.185,0.337,0.0,-0.146,-0.298,-0.112
0.212,-0.088,-0.127,-0.039,0.107,-0.024,-0.083,0.19,0.337,0.015,-0.137,-0.288,-0.112
0.214,-0.093,-0.127,-0.034,0.112,-0.029,-0.083,0.195,0.337,0.024,-0.127,-0.278,-0.112
0.216,-0.088,-0.127,-0.039,0.107,-0.024,-0.083,0.2,0.342,0.024,-0.117,-0.273,-0.107
0.218,-0.078,-0.122,-0.044,0.102,-0.02,-0.083,0.195,0.346,0.024,-0.122,-0.273,-0.117
0.22,-0.068,-0.137,-0.068,0.102,0.0,-0.102,0.195,0.356,0.039,-0.117,-0.268,-0.107
0.222,-0.059,-0.142,-0.083,0.102,0.01,-0.112,0.19,0.351,0.044,-0.117,-0.268,-0.102
0.224,-0.039,-0.142,-0.102,0.093,0.029,-0.122,0.195,0.342,0.044,-0.122,-0.278,-0.102
0.226,-0.039,-0.122,-0.083,0.083,0.02,-0.102,0.19,0.342,0.049,-0.137,-0.268,-0.102
0.228,-0.029,-0.102,-0.073,0.068,0.02,-0.088,0.19,0.346,0.049,-0.132,-0.268,-0.102
0.23,-0.02,-0.083,-0.063,0.054,0.02,-0.073,0.181,0.351,0.049,-0.142,-0.264,-0.102
0.232,-0.01,-0.078,-0.068,0.044,0.029,-0.073,0.181,0.351,0.044,-0.156,-0.259,-0.102
0.234,-0.015,-0.083,-0.068,0.049,0.024,-0.078,0.185,0.366,0.063,-0.146,-0.244,-0.098
0.236,-0.024,-0.083,-0.059,0.054,0.015,-0.073,0.185,0.366,0.078,-0.146,-0.234,-0.088
0.238,-0.024,-0.098,-0.073,0.063,0.024,-0.088,0.19,0.381,0.098,-0.132,-0.22,-0.073
0.24,-0.029,-0.112,-0.083,0.073,0.024,-0.098,0.205,0.386,0.112,-0.112,-0.205,-0.068
0.242,-0.034,-0.127,-0.093,0.083,0.029,-0.112,0.215,0.4,0.132,-0.102,-0.2,-0.063
0.244,-0.034,-0.122,-0.088,0.078,0.024,-0.107,0.215,0.41,0.156,-0.083,-0.185,-0.059
0.246,-0.034,-0.146,-0.112,0.093,0.039,-0.132,0.215,0.415,0.166,-0.083,-0.176,-0.049
0.248,-0.02,-0.142,-0.122,0.083,0.049,-0.132,0.215,0.42,0.176,-0.073,-0.171,-0.049
0.25,-0.01,-0.127,-0.117,0.068,0.054,-0.122,0.21,0.41,0.185,-0.078,-0.166,-0.049
0.252,0.0,-0.117,-0.117,0.059,0.059,-0.117,0.205,0.42,0.195,-0.063,-0.146,-0.029
0.254,0.005,-0.102,-0.107,0.049,0.054,-0.107,0.2,0.425,0.2,-0.049,-0.137,-0.029
0.256,0.024,-0.059,-0.083,0.02,0.054,-0.073,0.19,0.425,0.205,-0.049,-0.122,-0.024
0.258,0.034,-0.073,-0.107,0.02,0.068,-0.093,0.181,0.415,0.205,-0.063,-0.127,-0.029
0.26,0.044,-0.078,-0.122,0.02,0.083,-0.102,0.176,0.425,0.205,-0.054,-0.122,-0.02
0.262,0.039,-0.083,-0.122,0.024,0.078,-0.102,0.171,0.425,0.205,-0.049,-0.112,-0.01
0.264,0.044,-0.088,-0.132,0.024,0.088,-0.112,0.166,0.429,0.205,-0.034,-0.107,0.0
0.266,0.063,-0.068,-0.132,0.005,0.098,-0.102,0.171,0.429,0.22,-0.02,-0.093,0.024
0.268,0.063,-0.044,-0.107,-0.01,0.083,-0.078,0.176,0.434,0.229,-0.02,-0.073,0.029
0.27,0.068,-0.01,-0.078,-0.029,0.073,-0.044,0.166,0.434,0.244,-0.01,-0.059,0.029
0.272,0.068,0.0,-0.068,-0.034,0.068,-0.034,0.171,0.434,0.254,0.005,-0.059,0.034
0.274,0.078,-0.005,-0.083,-0.034,0.078,-0.044,0.176,0.439,0.268,0.01,-0.034,0.039
0.276,0.078,-0.005,-0.083,-0.034,0.078,-0.044,0.176,0.439,0.273,0.01,-0.029,0.044
0.278,0.078,-0.005,-0.083,-0.034,0.078,-0.044,0.171,0.439,0.268,0.01,-0.024,0.049
0.28,0.078,-0.01,-0.088,-0.034,0.083,-0.049,0.166,0.439,0.273,0.01,-0.01,0.049
0.282,0.088,-0.01,-0.098,-0.039,0.093,-0.054,0.166,0.429,0.264,0.015,-0.005,0.063
0.284,0.088,-0.015,-0.102,-0.034,0.093,-0.059,0.166,0.425,0.264,0.01,-0.005,0.063
0.286,0.093,-0.02,-0.112,-0.034,0.102,-0.068,0.166,0.425,0.264,0.0,-0.005,0.068
0.288,0.107,-0.005,-0.112,-0.049,0.107,-0.059,0.161,0.405,0.259,-0.015,-0.005,0.068
0.29,0.102,-0.005,-0.107,-0.049,0.102,-0.059,0.166,0.405,0.249,-0.024,-0.015,0.078
0.292,0.088,-0.015,-0.102,-0.034,0.093,-0.059,0.166,0.405,0.249,-0.034,-0.005,0.078
0.294,0.073,-0.029,-0.102,-0.02,0.088,-0.068,0.161,0.4,0.244,-0.034,-0.015,0.068
0.296,0.068,-0.02,-0.088,-0.024,0.078,-0.054,0.156,0.39,0.234,-0.039,-0.029,0.068
0.298,0.078,-0.015,-0.093,-0.029,0.083,-0.054,0.151,0.376,0.224,-0.034,-0.024,0.063
0.3,0.088,-0.015,-0.102,-0.034,0.093,-0.059,0.151,0.381,0.215,-0.029,-0.024,0.063
0.302,0.102,-0.01,-0.112,-0.044,0.107,-0.063,0.146,0.366,0.195,-0.039,-0.039,0.059
0.304,0.112,0.01,-0.102,-0.059,0.107,-0.049,0.132,0.351,0.181,-0.034,-0.044,0.049
0.306,0.098,0.005,-0.093,-0.049,0.093,-0.044,0.122,0.351,0.185,-0.02,-0.039,0.049
0.308,0.093,0.0,-0.093,-0.044,0.093,-0.049,0.122,0.342,0.185,-0.015,-0.039,0.049
0.31,0.083,-0.01,-0.093,-0.034,0.088,-0.054,0.127,0.337,0.181,-0.01,-0.039,0.049
0.312,0.063,-0.02,-0.083,-0.02,0.073,-0.054,0.127,0.332,0.181,-0.02,-0.044,0.049
0.314,0.073,-0.015,-0.088,-0.029,0.078,-0.054,0.112,0.322,0.181,-0.039,-0.049,0.044
0.316,0.073,0.0,-0.073,-0.034,0.073,-0.039,0.112,0.322,0.185,-0.044,-0.049,0.039
0.318,0.073,0.005,-0.068,-0.039,0.068,-0.034,0.112,0.337,0.19,-0.049,-0.054,0.034
0.32,0.073,0.005,-0.068,-0.039,0.068,-0.034,0.112,0.337,0.195,-0.054,-0.068,0.029
0.322,0.059,-0.024,-0.083,-0.015,0.068,-0.054,0.117,0.322,0.176,-0.068,-0.068,0.024
0.324,0.054,-0.029,-0.083,-0.01,0.068,-0.059,0.122,0.317,0.161,-0.078,-0.073,0.029
0.326,0.049,-0.044,-0.093,0.0,0.068,-0.068,0.127,0.307,0.156,-0.083,-0.078,0.034
0.328,0.044,-0.039,-0.083,0.0,0.063,-0.063,0.132,0.293,0.151,-0.098,-0.083,0.039
0.33,0.049,-0.015,-0.063,-0.015,0.054,-0.039,0.142,0.293,0.156,-0.093,-0.073,0.044
0.332,0.039,-0.005,-0.044,-0.015,0.039,-0.024,0.142,0.293,0.146,-0.102,-0.073,0.044
0.334,0.029,0.005,-0.024,-0.015,0.024,-0.01,0.142,0.298,0.137,-0.112,-0.073,0.039
0.336,0.029,0.0,-0.029,-0.015,0.029,-0.015,0.137,0.283,0.122,-0.107,-0.073,0.034
0.338,0.015,-0.02,-0.034,0.005,0.024,-0.029,0.122,0.268,0.117,-0.112,-0.088,0.029
0.34,0.01,-0.024,-0.034,0.01,0.02,-0.029,0.117,0.259,0.112,-0.122,-0.098,0.029
0.342,0.005,-0.024,-0.029,0.01,0.015,-0.029,0.112,0.239,0.083,-0.137,-0.107,0.015
0.344,0.0,-0.029,-0.029,0.015,0.015,-0.029,0.107,0.229,0.063,-0.166,-0.127,0.005
0.346,-0.005,-0.044,-0.039,0.024,0.015,-0.044,0.112,0.239,0.044,-0.181,-0.127,0.015
0.348,0.0,-0.044,-0.044,0.024,0.02,-0.044,0.117,0.229,0.039,-0.195,-0.127,0.01
0.35,-0.005,-0.049,-0.044,0.029,0.02,-0.049,0.122,0.229,0.034,-0.224,-0.142,-0.005
0.352,-0.02,-0.068,-0.049,0.044,0.015,-0.059,0.127,0.229,0.024,-0.239,-0.156,-0.01
0.354,-0.039,-0.034,0.005,0.039,-0.024,-0.015,0.117,0.22,0.024,-0.239,-0.161,-0.02
0.356,-0.049,-0.015,0.034,0.034,-0.044,0.01,0.117,0.21,0.024,-0.239,-0.166,-0.029
0.358,-0.054,-0.005,0.049,0.029,-0.054,0.02,0.112,0.205,0.024,-0.244,-0.171,-0.039
0.36,-0.059,0.0,0.059,0.029,-0.059,0.029,0.107,0.2,0.024,-0.249,-0.176,-0.054
0.362,-0.063,-0.015,0.049,0.039,-0.059,0.015,0.117,0.181,0.0,-0.273,-0.19,-0.054
0.364,-0.068,-0.029,0.039,0.049,-0.054,0.005,0.117,0.181,-0.01,-0.278,-0.2,-0.054
0.366,-0.068,-0.059,0.01,0.063,-0.039,-0.024,0.122,0.176,-0.015,-0.278,-0.2,-0.049
0.368,-0.068,-0.073,-0.005,0.073,-0.034,-0.039,0.122,0.176,-0.024,-0.283,-0.205,-0.049
0.37,-0.054,-0.063,-0.01,0.059,-0.024,-0.039,0.127,0.166,-0.024,-0.293,-0.2,-0.049
0.372,-0.059,-0.073,-0.015,0.068,-0.024,-0.044,0.127,0.161,-0.024,-0.298,-0.2,-0.059
0.374,-0.054,-0.073,-0.02,0.063,-0.02,-0.049,0.127,0.156,-0.024,-0.303,-0.2,-0.059
0.376,-0.049,-0.054,-0.005,0.054,-0.024,-0.029,0.117,0.146,-0.034,-0.317,-0.21,-0.068
0.378,-0.059,-0.044,0.015,0.054,-0.039,-0.015,0.107,0.137,-0.049,-0.307,-0.21,-0.068
0.38,-0.063,-0.049,0.015,0.059,-0.039,-0.02,0.107,0.137,-0.049,-0.307,-0.21,-0.063
0.382,-0.063,-0.063,0.0,0.063,-0.034,-0.034,0.122,0.142,-0.054,-0.307,-0.205,-0.059
0.384,-0.059,-0.063,-0.005,0.063,-0.029,-0.034,0.122,0.142,-0.059,-0.307,-0.205,-0.059
0.386,-0.034,-0.039,-0.005,0.039,-0.015,-0.024,0.112,0.146,-0.044,-0.303,-0.21,-0.054
0.388,-0.024,-0.029,-0.005,0.029,-0.01,-0.02,0.112,0.151,-0.039,-0.298,-0.22,-0.059
0.39,-0.015,-0.015,0.0,0.015,-0.01,-0.01,0.107,0.156,-0.039,-0.293,-0.22,-0.059
0.392,-0.01,-0.005,0.005,0.01,-0.01,0.0,0.107,0.171,-0.034,-0.283,-0.22,-0.059
0.394,-0.034,-0.02,0.015,0.029,-0.024,-0.005,0.102,0.161,-0.039,-0.283,-0.22,-0.068
0.396,-0.049,-0.024,0.024,0.039,-0.039,0.0,0.098,0.132,-0.049,-0.288,-0.229,-0.073
0.398,-0.063,-0.034,0.029,0.049,-0.049,-0.005,0.083,0.122,-0.054,-0.288,-0.229,-0.073
0.4,-0.073,-0.059,0.015,0.068,-0.044,-0.024,0.078,0.122,-0.049,-0.283,-0.224,-0.073
0.402,-0.054,-0.044,0.01,0.049,-0.034,-0.02,0.098,0.142,-0.039,-0.273,-0.22,-0.068
0.404,-0.044,-0.039,0.005,0.044,-0.024,-0.02,0.107,0.151,-0.029,-0.273,-0.215,-0.063
0.406,-0.039,-0.054,-0.015,0.049,-0.015,-0.034,0.117,0.166,-0.01,-0.273,-0.215,-0.059
0.408,-0.029,-0.049,-0.02,0.039,-0.005,-0.034,0.122,0.176,-0.01,-0.278,-0.215,-0.059
0.41,-0.059,-0.049,0.01,0.054,-0.034,-0.02,0.102,0.127,-0.044,-0.307,-0.244,-0.098
0.412,-0.078,-0.059,0.02,0.068,-0.049,-0.02,0.088,0.117,-0.059,-0.312,-0.254,-0.107
0.414,-0.078,-0.068,0.01,0.073,-0.044,-0.029,0.093,0.127,-0.049,-0.303,-0.239,-0.098
0.416,-0.078,-0.068,0.01,0.073,-0.044,-0.029,0.098,0.137,-0.039,-0.293,-0.234,-0.088
0.418,-0.078,-0.068,0.01,0.073,-0.044,-0.029,0.102,0.146,-0.029,-0.283,-0.229,-0.078
0.42,-0.078,-0.068,0.01,0.073,-0.044,-0.029,0.107,0.156,-0.02,-0.273,-0.224,-0.068
0.422,-0.078,-0.059,0.02,0.068,-0.049,-0.02,0.107,0.156,-0.029,-0.273,-0.22,-0.073
0.424,-0.073,-0.054,0.02,0.063,-0.049,-0.02,0.107,0.161,-0.029,-0.273,-0.22,-0.068
0.426,-0.068,-0.054,0.015,0.063,-0.044,-0.02,0.107,0.161,-0.029,-0.278,-0.22,-0.068
0.428,-0.068,-0.054,0.015,0.063,-0.044,-0.02,0.107,0.161,-0.029,-0.283,-0.224,-0.078
0.43,-0.063,-0.054,0.01,0.059,-0.039,-0.024,0.102,0.146,-0.049,-0.293,-0.239,-0.088
0.432,-0.063,-0.049,0.015,0.059,-0.039,-0.02,0.102,0.142,-0.059,-0.293,-0.239,-0.088
0.434,-0.059,-0.039,0.02,0.049,-0.039,-0.01,0.107,0.137,-0.059,-0.298,-0.229,-0.083
0.436,-0.044,-0.02,0.024,0.034,-0.034,0.0,0.107,0.137,-0.068,-0.298,-0.234,-0.078
0.438,-0.044,-0.024,0.02,0.034,-0.034,-0.005,0.102,0.137,-0.063,-0.288,-0.22,-0.078
0.44,-0.059,-0.024,0.034,0.044,-0.049,0.005,0.102,0.142,-0.054,-0.288,-0.22,-0.078
0.442,-0.059,-0.01,0.049,0.034,-0.054,0.02,0.107,0.146,-0.049,-0.273,-0.22,-0.073
0.444,-0.049,0.005,0.054,0.024,-0.054,0.029,0.107,0.146,-0.044,-0.273,-0.22,-0.073
0.446,-0.039,0.0,0.039,0.02,-0.039,0.02,0.117,0.151,-0.024,-0.278,-0.205,-0.068
0.448,-0.059,-0.029,0.029,0.044,-0.044,0.0,0.127,0.161,-0.01,-0.264,-0.195,-0.063
0.45,-0.063,-0.044,0.02,0.054,-0.044,-0.015,0.137,0.171,0.0,-0.249,-0.19,-0.059
0.452,-0.068,-0.059,0.01,0.063,-0.039,-0.024,0.151,0.185,0.015,-0.234,-0.181,-0.054
0.454,-0.068,-0.049,0.02,0.059,-0.044,-0.015,0.146,0.181,0.005,-0.244,-0.181,-0.049
0.456,-0.073,-0.039,0.034,0.059,-0.054,-0.005,0.142,0.185,0.01,-0.249,-0.181,-0.049
0.458,-0.078,-0.005,0.073,0.044,-0.078,0.034,0.146,0.185,0.02,-0.244,-0.181,-0.049
0.46,-0.078,0.005,0.083,0.039,-0.083,0.044,0.142,0.185,0.02,-0.244,-0.181,-0.049
0.462,-0.054,0.005,0.059,0.024,-0.059,0.029,0.132,0.171,0.0,-0.264,-0.195,-0.054
0.464,-0.039,0.005,0.044,0.02,-0.044,0.024,0.132,0.166,-0.005,-0.278,-0.2,-0.059
0.466,-0.029,0.01,0.039,0.01,-0.034,0.024,0.132,0.161,-0.01,-0.278,-0.2,-0.063
0.468,-0.015,0.015,0.029,0.0,-0.024,0.02,0.132,0.156,-0.015,-0.288,-0.2,-0.063
0.47,-0.01,0.024,0.034,-0.005,-0.024,0.029,0.137,0.166,-0.015,-0.288,-0.2,-0.063
0.472,0.0,0.034,0.034,-0.015,-0.02,0.034,0.137,0.166,-0.015,-0.293,-0.195,-0.063
0.474,0.0,0.02,0.02,-0.01,-0.01,0.02,0.137,0.166,-0.01,-0.293,-0.19,-0.063
0.476,0.0,0.015,0.015,-0.005,-0.01,0.015,0.146,0.181,0.005,-0.283,-0.185,-0.054
0.478,0.005,0.01,0.005,-0.005,0.0,0.005,0.146,0.181,0.02,-0.264,-0.171,-0.044
0.48,0.0,0.01,0.01,-0.005,-0.005,0.01,0.142,0.181,0.024,-0.249,-0.166,-0.029
0.482,0.0,0.01,0.01,-0.005,-0.005,0.01,0.137,0.181,0.039,-0.244,-0.151,-0.015
0.484,0.005,0.02,0.015,-0.01,-0.005,0.015,0.122,0.171,0.044,-0.239,-0.132,-0.005
0.486,0.024,0.039,0.015,-0.029,0.005,0.024,0.093,0.146,0.049,-0.239,-0.142,0.005
0.488,0.029,0.044,0.015,-0.034,0.005,0.029,0.063,0.127,0.029,-0.239,-0.142,0.0
0.49,0.029,0.039,0.01,-0.034,0.01,0.024,0.024,0.093,0.01,-0.254,-0.142,-0.005
0.492,0.024,0.044,0.02,-0.034,0.0,0.029,0.0,0.078,0.0,-0.268,-0.142,-0.01
0.494,0.039,0.039,0.0,-0.039,0.02,0.02,0.005,0.083,0.0,-0.254,-0.146,0.0
0.496,0.044,0.039,-0.005,-0.039,0.024,0.015,0.015,0.088,0.0,-0.244,-0.142,0.0
0.498,0.049,0.039,-0.01,-0.044,0.029,0.015,0.02,0.098,0.0,-0.239,-0.132,0.0
0.5,0.049,0.044,-0.005,-0.044,0.024,0.02,0.034,0.102,0.0,-0.239,-0.127,0.0
0.502,0.024,0.024,0.0,-0.024,0.01,0.01,0.029,0.098,-0.015,-0.244,-0.146,-0.01
0.504,0.015,0.024,0.01,-0.02,0.0,0.015,0.029,0.093,-0.029,-0.268,-0.166,-0.02
0.506,0.005,0.005,0.0,-0.005,0.0,0.0,0.034,0.088,-0.029,-0.273,-0.171,-0.02
0.508,-0.01,-0.02,-0.01,0.015,0.0,-0.015,0.049,0.093,-0.029,-0.278,-0.171,-0.02
0.51,0.01,-0.015,-0.024,0.005,0.015,-0.02,0.049,0.093,-0.029,-0.278,-0.161,-0.015
0.512,0.029,-0.02,-0.049,-0.005,0.039,-0.034,0.049,0.093,-0.024,-0.278,-0.161,-0.015
0.514,0.049,-0.015,-0.063,-0.015,0.054,-0.039,0.049,0.102,-0.015,-0.278,-0.161,-0.01
0.516,0.068,-0.005,-0.073,-0.029,0.068,-0.039,0.044,0.102,-0.024,-0.283,-0.161,-0.01
0.518,0.039,-0.02,-0.059,-0.01,0.049,-0.039,0.029,0.083,-0.054,-0.307,-0.176,-0.029
0.52,0.029,-0.024,-0.054,0.0,0.039,-0.039,0.034,0.063,-0.083,-0.332,-0.2,-0.034
0.522,0.01,-0.039,-0.049,0.015,0.029,-0.044,0.039,0.049,-0.107,-0.366,-0.215,-0.049
0.524,-0.005,-0.044,-0.039,0.024,0.015,-0.044,0.054,0.044,-0.117,-0.376,-0.224,-0.059
0.526,-0.02,-0.049,-0.029,0.034,0.005,-0.039,0.068,0.054,-0.098,-0.366,-0.21,-0.049
0.528,-0.039,-0.054,-0.015,0.049,-0.015,-0.034,0.083,0.059,-0.088,-0.361,-0.215,-0.049
0.53,-0.059,-0.059,0.0,0.059,-0.029,-0.029,0.083,0.063,-0.083,-0.366,-0.224,-0.059
0.532,-0.078,-0.078,0.0,0.078,-0.039,-0.039,0.088,0.068,-0.078,-0.356,-0.224,-0.063
0.534,-0.068,-0.083,-0.015,0.078,-0.029,-0.049,0.078,0.059,-0.088,-0.371,-0.249,-0.078
0.536,-0.073,-0.059,0.015,0.068,-0.044,-0.024,0.073,0.059,-0.098,-0.381,-0.254,-0.088
0.538,-0.073,-0.059,0.015,0.068,-0.044,-0.024,0.068,0.049,-0.112,-0.4,-0.264,-0.102
0.54,-0.073,-0.063,0.01,0.068,-0.044,-0.029,0.059,0.039,-0.122,-0.415,-0.273,-0.112
0.542,-0.093,-0.088,0.005,0.093,-0.049,-0.044,0.063,0.029,-0.117,-0.42,-0.273,-0.117
0.544,-0.107,-0.112,-0.005,0.112,-0.054,-0.059,0.068,0.029,-0.117,-0.42,-0.278,-0.122
0.546,-0.117,-0.132,-0.015,0.127,-0.054,-0.073,0.078,0.034,-0.127,-0.425,-0.283,-0.127
0.548,-0.112,-0.146,-0.034,0.132,-0.039,-0.093,0.083,0.034,-0.127,-0.429,-0.288,-0.127
0.55,-0.107,-0.137,-0.029,0.122,-0.039,-0.083,0.073,0.024,-0.117,-0.439,-0.288,-0.146
0.552,-0.102,-0.117,-0.015,0.112,-0.044,-0.068,0.063,0.02,-0.117,-0.449,-0.298,-0.146
0.554,-0.107,-0.142,-0.034,0.127,-0.039,-0.088,0.073,0.02,-0.117,-0.454,-0.298,-0.146
0.556,-0.117,-0.142,-0.024,0.132,-0.049,-0.083,0.073,0.02,-0.122,-0.459,-0.298,-0.146
0.558,-0.102,-0.117,-0.015,0.112,-0.044,-0.068,0.068,0.005,-0.142,-0.473,-0.298,-0.156
0.56,-0.093,-0.112,-0.02,0.102,-0.039,-0.068,0.068,0.005,-0.146,-0.478,-0.298,-0.156
0.562,-0.088,-0.112,-0.024,0.102,-0.034,-0.068,0.073,0.005,-0.151,-0.483,-0.298,-0.156
0.564,-0.083,-0.107,-0.024,0.098,-0.029,-0.068,0.073,0.015,-0.156,-0.483,-0.298,-0.156
0.566,-0.093,-0.117,-0.024,0.107,-0.034,-0.073,0.063,0.01,-0.166,-0.493,-0.298,-0.161
0.568,-0.107,-0.137,-0.029,0.122,-0.039,-0.083,0.068,0.0,-0.166,-0.503,-0.303,-0.161
0.57,-0.117,-0.142,-0.024,0.132,-0.049,-0.083,0.068,-0.005,-0.171,-0.503,-0.307,-0.166
0.572,-0.127,-0.137,-0.01,0.132,-0.059,-0.073,0.068,-0.01,-0.171,-0.503,-0.307,-0.171
0.574,-0.102,-0.112,-0.01,0.107,-0.049,-0.063,0.068,0.01,-0.127,-0.468,-0.273,-0.151
0.576,-0.083,-0.093,-0.01,0.088,-0.039,-0.054,0.054,0.02,-0.112,-0.459,-0.273,-0.151
0.578,-0.093,-0.073,0.02,0.083,-0.059,-0.029,0.054,0.01,-0.112,-0.459,-0.273,-0.151
0.58,-0.146,-0.107,0.039,0.127,-0.093,-0.034,0.078,0.02,-0.107,-0.439,-0.264,-0.151
0.582,-0.171,-0.127,0.044,0.151,-0.107,-0.044,0.102,0.039,-0.093,-0.425,-0.254,-0.146
0.584,-0.132,-0.054,0.078,0.093,-0.107,0.01,0.117,0.068,-0.068,-0.41,-0.244,-0.156
0.586,-0.117,-0.039,0.078,0.078,-0.098,0.02,0.127,0.098,-0.015,-0.371,-0.239,-0.156
0.588,-0.151,-0.098,0.054,0.127,-0.102,-0.024,0.171,0.151,0.078,-0.317,-0.19,-0.142
0.59,-0.137,-0.093,0.044,0.117,-0.093,-0.024,0.215,0.224,0.185,-0.239,-0.137,-0.112
0.592,-0.073,-0.088,-0.015,0.083,-0.029,-0.054,0.278,0.337,0.307,-0.151,-0.054,-0.078
0.594,-0.029,-0.137,-0.107,0.083,0.039,-0.122,0.351,0.483,0.454,-0.059,0.029,-0.044
0.596,0.044,-0.112,-0.156,0.034,0.098,-0.137,0.415,0.673,0.62,0.049,0.102,-0.015
0.598,0.176,-0.034,-0.21,-0.068,0.19,-0.122,0.468,0.874,0.825,0.229,0.234,0.068
0.6,0.332,-0.024,-0.356,-0.151,0.342,-0.19,0.498,1.025,1.054,0.468,0.439,0.2
0.602,0.493,-0.049,-0.542,-0.22,0.517,-0.298,0.483,1.108,1.24,0.727,0.698,0.395
0.604,0.63,-0.029,-0.659,-0.298,0.644,-0.346,0.425,1.118,1.357,0.991,1.0,0.63
0.606,0.747,0.107,-0.639,-0.425,0.693,-0.268,0.298,0.981,1.362,1.225,1.332,0.888
0.608,0.854,0.303,-0.551,-0.576,0.703,-0.127,0.078,0.673,1.244,1.401,1.684,1.166
0.61,0.917,0.478,-0.439,-0.698,0.678,0.02,-0.156,0.307,1.108,1.596,2.05,1.454
0.612,0.971,0.649,-0.322,-0.81,0.644,0.161,-0.39,-0.015,1.005,1.815,2.391,1.703
0.614,1.035,0.83,-0.205,-0.932,0.62,0.312,-0.586,-0.259,0.913,1.972,2.674,1.918
0.616,1.054,0.937,-0.117,-0.996,0.586,0.41,-0.732,-0.483,0.708,1.908,2.689,2.006
0.618,0.893,0.956,0.063,-0.922,0.415,0.508,-0.81,-0.727,0.303,1.435,2.255,1.82
0.62,0.571,0.888,0.317,-0.727,0.127,0.6,-0.854,-0.996,-0.254,0.664,1.503,1.43
0.622,0.312,0.781,0.468,-0.547,-0.078,0.625,-0.844,-1.171,-0.722,-0.049,0.717,1.0
0.624,0.132,0.654,0.522,-0.39,-0.195,0.586,-0.766,-1.23,-1.064,-0.659,0.015,0.581
0.626,-0.083,0.508,0.59,-0.21,-0.337,0.547,-0.688,-1.288,-1.401,-1.274,-0.532,0.244
0.628,-0.278,0.4,0.678,-0.059,-0.478,0.537,-0.678,-1.391,-1.732,-1.771,-0.839,0.063
0.63,-0.366,0.371,0.737,0.0,-0.551,0.551,-0.742,-1.474,-1.889,-1.991,-0.956,-0.044
0.632,-0.346,0.346,0.693,0.0,-0.522,0.517,-0.805,-1.444,-1.796,-1.928,-0.952,-0.107
0.634,-0.342,0.244,0.586,0.049,-0.464,0.415,-0.795,-1.342,-1.61,-1.762,-0.883,-0.132
0.636,-0.356,0.166,0.522,0.098,-0.439,0.342,-0.732,-1.21,-1.454,-1.645,-0.849,-0.19
0.638,-0.356,0.156,0.512,0.102,-0.434,0.332,-0.644,-1.049,-1.308,-1.547,-0.834,-0.244
0.64,-0.317,0.112,0.429,0.102,-0.376,0.268,-0.537,-0.844,-1.103,-1.386,-0.747,-0.234
0.642,-0.21,0.078,0.288,0.068,-0.249,0.181,-0.429,-0.649,-0.893,-1.225,-0.634,-0.2
0.644,-0.151,0.107,0.259,0.024,-0.205,0.181,-0.322,-0.488,-0.703,-1.069,-0.547,-0.171
0.646,-0.161,0.083,0.244,0.039,-0.205,0.161,-0.21,-0.317,-0.508,-0.922,-0.454,-0.151
0.648,-0.137,-0.005,0.132,0.073,-0.137,0.063,-0.112,-0.171,-0.356,-0.815,-0.395,-0.142
0.65,-0.102,-0.063,0.039,0.083,-0.073,-0.015,-0.054,-0.098,-0.288,-0.786,-0.386,-0.151
0.652,-0.137,-0.093,0.044,0.117,-0.093,-0.024,-0.02,-0.068,-0.259,-0.781,-0.386,-0.166
0.654,-0.195,-0.142,0.054,0.171,-0.127,-0.044,0.02,-0.029,-0.229,-0.766,-0.366,-0.161
0.656,-0.181,-0.142,0.039,0.161,-0.112,-0.054,0.044,-0.005,-0.2,-0.742,-0.346,-0.151
0.658,-0.142,-0.102,0.039,0.122,-0.093,-0.034,0.049,0.01,-0.181,-0.708,-0.332,-0.161
0.66,-0.142,-0.132,0.01,0.137,-0.078,-0.063,0.054,0.02,-0.161,-0.659,-0.303,-0.171
0.662,-0.137,-0.127,0.01,0.132,-0.073,-0.059,0.049,0.02,-0.151,-0.644,-0.298,-0.176
0.664,-0.117,-0.112,0.005,0.117,-0.063,-0.054,0.049,0.029,-0.137,-0.615,-0.288,-0.176
0.666,-0.107,-0.107,0.0,0.107,-0.054,-0.054,0.044,0.049,-0.117,-0.605,-0.283,-0.176
0.668,-0.102,-0.112,-0.01,0.107,-0.049,-0.063,0.059,0.063,-0.107,-0.605,-0.288,-0.176
0.67,-0.112,-0.093,0.02,0.102,-0.068,-0.039,0.063,0.083,-0.093,-0.595,-0.288,-0.181
0.672,-0.112,-0.093,0.02,0.102,-0.068,-0.039,0.068,0.093,-0.078,-0.6,-0.288,-0.161
0.674,-0.122,-0.112,0.01,0.117,-0.068,-0.054,0.073,0.102,-0.063,-0.61,-0.283,-0.156
0.676,-0.122,-0.112,0.01,0.117,-0.068,-0.054,0.073,0.102,-0.059,-0.605,-0.278,-0.151
0.678,-0.127,-0.122,0.005,0.127,-0.068,-0.059,0.073,0.093,-0.078,-0.61,-0.283,-0.156
0.68,-0.122,-0.122,0.0,0.122,-0.063,-0.063,0.068,0.093,-0.083,-0.595,-0.278,-0.161
0.682,-0.122,-0.117,0.005,0.122,-0.063,-0.059,0.073,0.093,-0.078,-0.586,-0.278,-0.166
0.684,-0.112,-0.102,0.01,0.107,-0.063,-0.049,0.083,0.093,-0.083,-0.576,-0.273,-0.171
0.686,-0.102,-0.122,-0.02,0.112,-0.044,-0.073,0.093,0.098,-0.073,-0.561,-0.264,-0.161
0.688,-0.107,-0.142,-0.034,0.127,-0.039,-0.088,0.093,0.098,-0.068,-0.571,-0.268,-0.161
0.69,-0.112,-0.151,-0.039,0.132,-0.039,-0.098,0.093,0.098,-0.068,-0.576,-0.273,-0.161
0.692,-0.122,-0.151,-0.029,0.137,-0.049,-0.093,0.102,0.098,-0.068,-0.581,-0.278,-0.156
0.694,-0.122,-0.151,-0.029,0.137,-0.049,-0.093,0.098,0.122,-0.049,-0.566,-0.249,-0.142
0.696,-0.132,-0.151,-0.02,0.142,-0.059,-0.088,0.102,0.112,-0.044,-0.556,-0.249,-0.132
0.698,-0.117,-0.122,-0.005,0.122,-0.059,-0.063,0.088,0.107,-0.039,-0.547,-0.239,-0.127
0.7,-0.117,-0.093,0.024,0.107,-0.073,-0.034,0.083,0.107,-0.029,-0.542,-0.224,-0.122
0.702,-0.107,-0.088,0.02,0.098,-0.063,-0.034,0.068,0.102,-0.044,-0.556,-0.234,-0.142
0.704,-0.098,-0.098,0.0,0.098,-0.049,-0.049,0.063,0.102,-0.044,-0.561,-0.234,-0.146
0.706,-0.083,-0.093,-0.01,0.088,-0.039,-0.054,0.063,0.098,-0.039,-0.556,-0.229,-0.151
0.708,-0.063,-0.093,-0.029,0.078,-0.02,-0.063,0.068,0.093,-0.044,-0.561,-0.239,-0.151
0.71,-0.063,-0.107,-0.044,0.088,-0.01,-0.078,0.078,0.098,-0.029,-0.556,-0.239,-0.142
0.712,-0.068,-0.112,-0.044,0.093,-0.015,-0.078,0.083,0.102,-0.024,-0.556,-0.239,-0.142
0.714,-0.068,-0.127,-0.059,0.098,-0.005,-0.093,0.088,0.122,-0.005,-0.547,-0.239,-0.137
0.716,-0.068,-0.142,-0.073,0.107,0.0,-0.107,0.088,0.132,0.0,-0.537,-0.239,-0.132
0.718,-0.078,-0.132,-0.054,0.107,-0.015,-0.093,0.093,0.127,-0.005,-0.542,-0.239,-0.132
0.72,-0.078,-0.127,-0.049,0.102,-0.015,-0.088,0.093,0.122,0.005,-0.537,-0.229,-0.132
0.722,-0.078,-0.127,-0.049,0.102,-0.015,-0.088,0.093,0.117,0.01,-0.532,-0.22,-0.132
0.724,-0.068,-0.127,-0.059,0.098,-0.005,-0.093,0.093,0.117,0.005,-0.527,-0.215,-0.127
0.726,-0.059,-0.098,-0.039,0.078,-0.01,-0.068,0.083,0.122,-0.01,-0.527,-0.215,-0.127
0.728,-0.049,-0.107,-0.059,0.078,0.005,-0.083,0.088,0.132,0.0,-0.517,-0.21,-0.117
0.73,-0.039,-0.107,-0.068,0.073,0.015,-0.088,0.088,0.127,0.0,-0.512,-0.21,-0.112
0.732,-0.02,-0.102,-0.083,0.063,0.029,-0.093,0.098,0.117,-0.005,-0.512,-0.22,-0.112
0.734,-0.044,-0.102,-0.059,0.073,0.005,-0.083,0.098,0.127,0.024,-0.522,-0.195,-0.098
0.736,-0.049,-0.102,-0.054,0.078,0.0,-0.078,0.093,0.132,0.039,-0.503,-0.19,-0.093
0.738,-0.054,-0.102,-0.049,0.078,-0.005,-0.078,0.078,0.137,0.054,-0.498,-0.181,-0.088
0.74,-0.059,-0.117,-0.059,0.088,0.0,-0.088,0.073,0.137,0.063,-0.498,-0.171,-0.083
0.742,-0.049,-0.117,-0.068,0.083,0.01,-0.093,0.078,0.151,0.078,-0.488,-0.156,-0.083
0.744,-0.044,-0.102,-0.059,0.073,0.005,-0.083,0.078,0.151,0.088,-0.488,-0.146,-0.078
0.746,-0.029,-0.102,-0.073,0.068,0.02,-0.088,0.083,0.166,0.102,-0.473,-0.132,-0.068
0.748,-0.02,-0.102,-0.083,0.063,0.029,-0.093,0.098,0.171,0.112,-0.454,-0.117,-0.068
0.75,-0.015,-0.093,-0.078,0.054,0.029,-0.088,0.107,0.166,0.117,-0.425,-0.117,-0.063
0.752,-0.015,-0.073,-0.059,0.044,0.02,-0.068,0.107,0.166,0.137,-0.405,-0.107,-0.059
0.754,-0.015,-0.083,-0.068,0.049,0.024,-0.078,0.107,0.161,0.142,-0.405,-0.102,-0.049
0.756,0.0,-0.063,-0.063,0.034,0.029,-0.063,0.107,0.156,0.146,-0.395,-0.102,-0.049
0.758,-0.005,-0.078,-0.073,0.044,0.034,-0.078,0.093,0.166,0.156,-0.386,-0.088,-0.044
0.76,0.0,-0.088,-0.088,0.044,0.044,-0.088,0.088,0.176,0.166,-0.366,-0.068,-0.029
0.762,0.0,-0.093,-0.093,0.049,0.044,-0.093,0.083,0.181,0.171,-0.346,-0.059,-0.034
0.764,0.015,-0.068,-0.083,0.029,0.049,-0.078,0.073,0.181,0.176,-0.342,-0.044,-0.034
0.766,0.029,-0.049,-0.078,0.01,0.054,-0.063,0.059,0.176,0.181,-0.346,-0.039,-0.029
0.768,0.044,-0.039,-0.083,0.0,0.063,-0.063,0.059,0.181,0.185,-0.337,-0.034,-0.02
0.77,0.044,-0.029,-0.073,-0.005,0.059,-0.054,0.059,0.176,0.19,-0.332,-0.024,-0.01
0.772,0.054,-0.02,-0.073,-0.015,0.063,-0.049,0.059,0.176,0.195,-0.317,-0.02,0.0
0.774,0.059,-0.044,-0.102,-0.005,0.078,-0.073,0.068,0.176,0.21,-0.322,-0.015,0.015
0.776,0.054,-0.054,-0.107,0.0,0.078,-0.083,0.068,0.181,0.21,-0.322,0.005,0.02
0.778,0.054,-0.054,-0.107,0.0,0.078,-0.083,0.054,0.181,0.215,-0.312,0.02,0.02
0.78,0.049,-0.078,-0.127,0.015,0.088,-0.102,0.054,0.181,0.215,-0.298,0.02,0.024
0.782,0.059,-0.059,-0.117,0.0,0.088,-0.088,0.059,0.166,0.21,-0.303,0.024,0.02
0.784,0.059,-0.044,-0.102,-0.005,0.078,-0.073,0.059,0.156,0.205,-0.312,0.02,0.024
0.786,0.059,-0.029,-0.088,-0.015,0.073,-0.059,0.054,0.146,0.19,-0.322,0.015,0.029
0.788,0.059,-0.02,-0.078,-0.02,0.068,-0.049,0.049,0.137,0.185,-0.332,0.02,0.029
0.79,0.054,-0.024,-0.078,-0.015,0.063,-0.054,0.039,0.151,0.2,-0.322,0.034,0.049
0.792,0.049,-0.024,-0.073,-0.01,0.059,-0.049,0.039,0.151,0.205,-0.322,0.034,0.054
0.794,0.049,-0.024,-0.073,-0.01,0.059,-0.049,0.039,0.156,0.21,-0.327,0.034,0.063
0.796,0.059,-0.005,-0.063,-0.024,0.059,-0.034,0.034,0.142,0.21,-0.337,0.034,0.068
0.798,0.073,0.015,-0.059,-0.044,0.063,-0.024,0.029,0.142,0.19,-0.337,0.024,0.063
0.8,0.078,0.015,-0.063,-0.044,0.068,-0.024,0.029,0.142,0.19,-0.346,0.034,0.059
0.802,0.083,0.01,-0.073,-0.044,0.078,-0.034,0.024,0.137,0.185,-0.346,0.024,0.044
0.804,0.098,0.029,-0.068,-0.063,0.083,-0.02,0.02,0.127,0.176,-0.351,0.01,0.039
0.806,0.088,0.02,-0.068,-0.054,0.078,-0.024,0.01,0.117,0.166,-0.366,0.0,0.039
0.808,0.078,0.015,-0.063,-0.044,0.068,-0.024,0.015,0.127,0.166,-0.371,-0.005,0.034
0.81,0.073,0.015,-0.059,-0.044,0.063,-0.024,0.015,0.117,0.156,-0.39,-0.024,0.024
0.812,0.063,0.029,-0.034,-0.044,0.049,-0.005,0.005,0.107,0.151,-0.395,-0.034,0.01
0.814,0.054,0.01,-0.044,-0.029,0.049,-0.02,0.02,0.107,0.156,-0.395,-0.024,0.024
0.816,0.054,0.0,-0.054,-0.024,0.054,-0.029,0.024,0.098,0.156,-0.395,-0.02,0.029
0.818,0.049,-0.015,-0.063,-0.015,0.054,-0.039,0.034,0.093,0.151,-0.395,-0.015,0.034
0.82,0.034,-0.029,-0.063,0.0,0.049,-0.049,0.039,0.088,0.151,-0.41,-0.015,0.039
0.822,0.039,-0.02,-0.059,-0.01,0.049,-0.039,0.024,0.088,0.146,-0.425,-0.015,0.039
0.824,0.044,-0.01,-0.054,-0.015,0.049,-0.034,0.024,0.088,0.146,-0.425,-0.01,0.039
0.826,0.049,-0.01,-0.059,-0.02,0.054,-0.034,0.024,0.102,0.146,-0.425,-0.01,0.039
0.828,0.054,-0.015,-0.068,-0.02,0.059,-0.044,0.024,0.102,0.146,-0.425,-0.02,0.039
0.83,0.044,-0.02,-0.063,-0.01,0.054,-0.044,0.024,0.098,0.132,-0.449,-0.029,0.029
0.832,0.044,-0.01,-0.054,-0.015,0.049,-0.034,0.024,0.093,0.122,-0.459,-0.034,0.029
0.834,0.044,-0.01,-0.054,-0.015,0.049,-0.034,0.024,0.083,0.122,-0.464,-0.039,0.029
0.836,0.044,0.01,-0.034,-0.024,0.039,-0.015,0.024,0.068,0.122,-0.478,-0.044,0.029
0.838,0.034,0.02,-0.015,-0.024,0.024,0.0,0.029,0.059,0.127,-0.483,-0.044,0.034
0.84,0.02,0.015,-0.005,-0.015,0.01,0.005,0.034,0.059,0.117,-0.493,-0.044,0.034
0.842,0.005,0.01,0.005,-0.005,0.0,0.005,0.039,0.063,0.107,-0.503,-0.044,0.029
0.844,0.0,-0.01,-0.01,0.005,0.005,-0.01,0.039,0.049,0.093,-0.498,-0.044,0.024
0.846,-0.005,-0.024,-0.02,0.015,0.005,-0.024,0.034,0.039,0.088,-0.508,-0.063,0.005
0.848,-0.01,-0.024,-0.015,0.02,0.0,-0.02,0.029,0.024,0.083,-0.522,-0.078,0.0
0.85,-0.015,-0.02,-0.005,0.02,-0.005,-0.015,0.024,0.0,0.054,-0.542,-0.093,-0.02
0.852,-0.02,-0.02,0.0,0.02,-0.01,-0.01,0.02,-0.015,0.034,-0.576,-0.117,-0.034
0.854,-0.01,-0.024,-0.015,0.02,0.0,-0.02,0.029,-0.005,0.024,-0.576,-0.127,-0.034
0.856,0.0,-0.024,-0.024,0.015,0.01,-0.024,0.029,-0.015,0.02,-0.586,-0.127,-0.039
0.858,0.0,-0.029,-0.029,0.015,0.015,-0.029,0.029,-0.015,0.015,-0.61,-0.142,-0.054
0.86,-0.01,-0.049,-0.039,0.029,0.015,-0.044,0.029,-0.015,0.005,-0.62,-0.156,-0.059
0.862,-0.01,-0.024,-0.015,0.02,0.0,-0.02,0.029,-0.029,0.0,-0.625,-0.171,-0.059
0.864,-0.02,-0.005,0.015,0.015,-0.02,0.005,0.029,-0.034,-0.005,-0.63,-0.176,-0.059
0.866,-0.024,0.005,0.029,0.01,-0.029,0.015,0.024,-0.034,-0.01,-0.639,-0.181,-0.059
0.868,-0.029,0.01,0.039,0.01,-0.034,0.024,0.02,-0.034,-0.015,-0.649,-0.185,-0.063
0.87,-0.044,-0.005,0.039,0.024,-0.044,0.015,0.029,-0.029,-0.01,-0.659,-0.185,-0.063
0.872,-0.049,-0.02,0.029,0.034,-0.039,0.005,0.029,-0.024,-0.01,-0.659,-0.19,-0.063
0.874,-0.049,-0.049,0.0,0.049,-0.024,-0.024,0.034,-0.024,-0.005,-0.654,-0.185,-0.059
0.876,-0.049,-0.063,-0.015,0.059,-0.02,-0.039,0.034,-0.02,-0.005,-0.654,-0.185,-0.059
0.878,-0.059,-0.049,0.01,0.054,-0.034,-0.02,0.029,-0.029,-0.02,-0.664,-0.181,-0.059
0.88,-0.068,-0.054,0.015,0.063,-0.044,-0.02,0.029,-0.034,-0.024,-0.669,-0.181,-0.068
0.882,-0.068,-0.049,0.02,0.059,-0.044,-0.015,0.029,-0.039,-0.029,-0.673,-0.181,-0.068
0.884,-0.068,-0.024,0.044,0.049,-0.059,0.01,0.02,-0.049,-0.044,-0.688,-0.19,-0.078
0.886,-0.063,-0.01,0.054,0.039,-0.059,0.02,0.029,-0.068,-0.054,-0.703,-0.2,-0.088
0.888,-0.063,-0.01,0.054,0.039,-0.059,0.02,0.029,-0.068,-0.049,-0.708,-0.2,-0.083
0.89,-0.059,-0.02,0.039,0.039,-0.049,0.01,0.044,-0.063,-0.049,-0.712,-0.195,-0.078
0.892,-0.049,-0.015,0.034,0.034,-0.044,0.01,0.044,-0.063,-0.049,-0.717,-0.195,-0.078
0.894,-0.034,-0.015,0.02,0.024,-0.029,0.0,0.039,-0.063,-0.059,-0.722,-0.21,-0.083
0.896,-0.034,-0.02,0.015,0.029,-0.024,-0.005,0.034,-0.063,-0.059,-0.727,-0.22,-0.088
0.898,-0.034,-0.02,0.015,0.029,-0.024,-0.005,0.024,-0.063,-0.063,-0.732,-0.22,-0.088
0.9,-0.039,-0.024,0.015,0.034,-0.029,-0.005,0.02,-0.054,-0.063,-0.732,-0.22,-0.088
0.902,-0.059,-0.024,0.034,0.044,-0.049,0.005,0.02,-0.054,-0.049,-0.732,-0.215,-0.078
0.904,-0.068,-0.024,0.044,0.049,-0.059,0.01,0.02,-0.073,-0.049,-0.737,-0.22,-0.083
0.906,-0.078,-0.029,0.049,0.054,-0.063,0.01,0.01,-0.073,-0.044,-0.737,-0.215,-0.083
0.908,-0.083,-0.049,0.034,0.068,-0.059,-0.01,0.01,-0.063,-0.029,-0.732,-0.205,-0.083
0.91,-0.044,0.0,0.044,0.024,-0.044,0.02,0.02,-0.044,-0.02,-0.732,-0.205,-0.073
0.912,-0.034,-0.01,0.024,0.024,-0.029,0.005,0.01,-0.063,-0.039,-0.761,-0.224,-0.093
0.914,-0.088,-0.068,0.02,0.078,-0.054,-0.024,-0.01,-0.068,-0.049,-0.781,-0.239,-0.093
0.916,-0.107,-0.088,0.02,0.098,-0.063,-0.034,-0.015,-0.059,-0.049,-0.786,-0.254,-0.107
0.918,-0.078,-0.049,0.029,0.063,-0.054,-0.01,0.0,-0.059,-0.049,-0.791,-0.254,-0.107
0.92,-0.063,-0.044,0.02,0.054,-0.044,-0.015,0.01,-0.059,-0.039,-0.781,-0.249,-0.102
0.922,-0.059,-0.039,0.02,0.049,-0.039,-0.01,0.01,-0.059,-0.039,-0.781,-0.244,-0.098
0.924,-0.054,-0.034,0.02,0.044,-0.039,-0.01,0.01,-0.059,-0.039,-0.781,-0.239,-0.093
0.926,-0.049,-0.029,0.02,0.039,-0.034,-0.005,0.01,-0.059,-0.039,-0.781,-0.234,-0.088
0.928,-0.049,-0.029,0.02,0.039,-0.034,-0.005,0.005,-0.073,-0.049,-0.771,-0.229,-0.093
0.93,-0.044,-0.024,0.02,0.034,-0.034,-0.005,0.0,-0.073,-0.049,-0.771,-0.229,-0.088
0.932,-0.039,-0.024,0.015,0.034,-0.029,-0.005,-0.005,-0.078,-0.049,-0.776,-0.229,-0.088
0.934,-0.039,-0.024,0.015,0.034,-0.029,-0.005,-0.01,-0.083,-0.049,-0.781,-0.234,-0.098
0.936,-0.054,-0.034,0.02,0.044,-0.039,-0.01,-0.01,-0.068,-0.044,-0.771,-0.22,-0.083
0.938,-0.063,-0.039,0.024,0.054,-0.044,-0.01,-0.005,-0.063,-0.039,-0.761,-0.21,-0.078
0.94,-0.068,-0.039,0.029,0.054,-0.049,-0.005,0.005,-0.059,-0.024,-0.756,-0.19,-0.068
0.942,-0.063,-0.029,0.034,0.049,-0.049,0.0,0.01,-0.049,-0.02,-0.747,-0.185,-0.059
0.944,-0.039,-0.024,0.015,0.034,-0.029,-0.005,0.015,-0.063,-0.029,-0.752,-0.185,-0.063
0.946,-0.049,-0.024,0.024,0.039,-0.039,0.0,0.015,-0.063,-0.024,-0.756,-0.19,-0.068
0.948,-0.044,-0.01,0.034,0.029,-0.039,0.01,0.02,-0.063,-0.024,-0.747,-0.195,-0.068
0.95,-0.029,0.005,0.034,0.015,-0.034,0.02,0.02,-0.068,-0.024,-0.752,-0.2,-0.073
0.952,-0.024,0.024,0.049,0.0,-0.039,0.034,0.01,-0.078,-0.034,-0.771,-0.205,-0.078
0.954,-0.049,0.02,0.068,0.015,-0.059,0.044,0.01,-0.083,-0.029,-0.771,-0.205,-0.083
0.956,-0.059,0.029,0.088,0.015,-0.073,0.059,0.01,-0.088,-0.029,-0.771,-0.21,-0.088
0.958,-0.068,0.039,0.107,0.015,-0.088,0.073,0.015,-0.088,-0.024,-0.771,-0.21,-0.093
0.96,-0.044,0.029,0.073,0.01,-0.059,0.049,0.01,-0.083,-0.015,-0.761,-0.2,-0.073
0.962,-0.044,0.02,0.063,0.015,-0.054,0.039,0.005,-0.068,-0.01,-0.756,-0.19,-0.068
0.964,-0.044,0.034,0.078,0.005,-0.063,0.054,0.01,-0.059,0.0,-0.742,-0.181,-0.063
0.966,-0.039,0.024,0.063,0.01,-0.054,0.044,0.005,-0.049,0.0,-0.732,-0.171,-0.059
0.968,-0.024,0.02,0.044,0.005,-0.034,0.029,0.015,-0.049,-0.01,-0.742,-0.176,-0.059
0.97,-0.02,0.015,0.034,0.005,-0.029,0.024,0.015,-0.049,-0.005,-0.747,-0.181,-0.059
0.972,-0.02,0.015,0.034,0.005,-0.029,0.024,0.015,-0.049,0.0,-0.737,-0.181,-0.059
0.974,-0.015,0.015,0.029,0.0,-0.024,0.02,0.015,-0.049,0.005,-0.737,-0.181,-0.054
0.976,-0.01,0.034,0.044,-0.01,-0.029,0.039,0.02,-0.039,0.015,-0.727,-0.171,-0.044
0.978,0.0,0.054,0.054,-0.024,-0.029,0.054,0.02,-0.039,0.015,-0.732,-0.166,-0.044
0.98,0.0,0.049,0.049,-0.024,-0.024,0.049,0.02,-0.039,0.02,-0.732,-0.161,-0.044
0.982,0.0,0.054,0.054,-0.024,-0.029,0.054,0.029,-0.024,0.034,-0.722,-0.156,-0.034
0.984,0.02,0.044,0.024,-0.029,-0.005,0.034,0.024,-0.029,0.039,-0.717,-0.161,-0.029
0.986,0.02,0.049,0.029,-0.034,-0.005,0.039,0.015,-0.034,0.034,-0.717,-0.166,-0.02
0.988,0.024,0.054,0.029,-0.039,-0.005,0.039,0.005,-0.039,0.039,-0.727,-0.161,-0.01
0.99,0.034,0.068,0.034,-0.049,0.0,0.049,-0.015,-0.054,0.034,-0.737,-0.151,-0.005
0.992,0.063,0.083,0.02,-0.073,0.02,0.049,-0.024,-0.059,0.034,-0.722,-0.146,0.01
0.994,0.068,0.083,0.015,-0.073,0.024,0.049,-0.044,-0.078,0.02,-0.717,-0.142,0.01
0.996,0.068,0.073,0.005,-0.068,0.029,0.039,-0.073,-0.112,0.005,-0.727,-0.137,0.01
0.998,0.063,0.073,0.01,-0.068,0.024,0.039,-0.088,-0.127,0.0,-0.737,-0.132,0.01
1.0,0.044,0.063,0.02,-0.054,0.01,0.039,-0.098,-0.137,0.0,-0.742,-0.142,0.0
1.002,0.034,0.059,0.024,-0.044,0.005,0.039,-0.093,-0.137,0.0,-0.742,-0.142,0.0
1.004,0.024,0.054,0.029,-0.039,-0.005,0.039,-0.093,-0.132,0.0,-0.747,-0.137,0.0
1.006,0.01,0.054,0.044,-0.029,-0.02,0.049,-0.083,-0.132,0.0,-0.756,-0.137,0.0
1.008,0.015,0.054,0.039,-0.034,-0.015,0.044,-0.093,-0.137,-0.02,-0.771,-0.156,-0.01
1.01,0.024,0.063,0.039,-0.044,-0.01,0.049,-0.088,-0.142,-0.039,-0.795,-0.176,-0.02
1.012,0.034,0.054,0.02,-0.044,0.005,0.034,-0.078,-0.146,-0.044,-0.8,-0.181,-0.02
1.014,0.039,0.039,0.0,-0.039,0.02,0.02,-0.059,-0.142,-0.049,-0.805,-0.181,-0.02
1.016,0.039,0.015,-0.024,-0.024,0.029,-0.005,-0.063,-0.142,-0.039,-0.8,-0.176,-0.015
1.018,0.039,-0.01,-0.049,-0.015,0.044,-0.029,-0.059,-0.142,-0.034,-0.795,-0.171,-0.015
1.02,0.039,-0.024,-0.063,-0.005,0.049,-0.044,-0.054,-0.132,-0.024,-0.791,-0.166,-0.01
1.022,0.039,-0.034,-0.073,0.0,0.054,-0.054,-0.054,-0.132,-0.034,-0.791,-0.161,-0.01
1.024,0.029,-0.029,-0.059,0.0,0.044,-0.044,-0.068,-0.137,-0.049,-0.8,-0.171,-0.02
1.026,0.02,-0.024,-0.044,0.005,0.029,-0.034,-0.063,-0.151,-0.063,-0.81,-0.19,-0.024
1.028,0.0,-0.029,-0.029,0.015,0.015,-0.029,-0.059,-0.161,-0.073,-0.83,-0.2,-0.039
1.03,-0.015,-0.024,-0.01,0.02,-0.005,-0.02,-0.044,-0.161,-0.068,-0.825,-0.205,-0.049
1.032,-0.005,-0.02,-0.015,0.015,0.005,-0.02,-0.044,-0.161,-0.073,-0.834,-0.22,-0.068
1.034,-0.01,-0.024,-0.015,0.02,0.0,-0.02,-0.034,-0.166,-0.078,-0.849,-0.234,-0.078
1.036,-0.015,-0.029,-0.015,0.024,0.0,-0.024,-0.039,-0.171,-0.088,-0.874,-0.254,-0.098
1.038,-0.02,-0.049,-0.029,0.034,0.005,-0.039,-0.039,-0.176,-0.098,-0.883,-0.264,-0.112
1.04,-0.034,-0.073,-0.039,0.054,0.0,-0.059,-0.029,-0.171,-0.093,-0.883,-0.264,-0.117
1.042,-0.063,-0.068,-0.005,0.068,-0.029,-0.039,-0.024,-0.166,-0.098,-0.888,-0.264,-0.117
1.044,-0.088,-0.088,0.0,0.088,-0.044,-0.044,-0.02,-0.171,-0.107,-0.903,-0.268,-0.122
1.046,-0.112,-0.112,0.0,0.112,-0.059,-0.059,-0.02,-0.176,-0.112,-0.913,-0.273,-0.122
1.048,-0.112,-0.102,0.01,0.107,-0.063,-0.049,-0.024,-0.185,-0.117,-0.917,-0.278,-0.127
1.05,-0.107,-0.102,0.005,0.107,-0.059,-0.049,-0.029,-0.185,-0.117,-0.917,-0.288,-0.132
1.052,-0.098,-0.098,0.0,0.098,-0.049,-0.049,-0.029,-0.181,-0.127,-0.922,-0.298,-0.137
1.054,-0.073,-0.088,-0.015,0.083,-0.029,-0.054,-0.034,-0.181,-0.127,-0.927,-0.307,-0.137
1.056,-0.073,-0.078,-0.005,0.078,-0.034,-0.044,-0.034,-0.181,-0.127,-0.932,-0.303,-0.137
1.058,-0.073,-0.059,0.015,0.068,-0.044,-0.024,-0.044,-0.185,-0.127,-0.937,-0.307,-0.137
1.06,-0.083,-0.083,0.0,0.083,-0.044,-0.044,-0.034,-0.185,-0.127,-0.937,-0.303,-0.137
1.062,-0.098,-0.083,0.015,0.093,-0.059,-0.034,-0.034,-0.185,-0.132,-0.937,-0.298,-0.137
1.064,-0.107,-0.078,0.029,0.093,-0.068,-0.024,-0.029,-0.181,-0.127,-0.947,-0.298,-0.127
1.066,-0.102,-0.083,0.02,0.093,-0.063,-0.034,-0.029,-0.181,-0.127,-0.947,-0.298,-0.127
1.068,-0.102,-0.093,0.01,0.098,-0.059,-0.044,-0.024,-0.181,-0.127,-0.947,-0.298,-0.127
1.07,-0.102,-0.098,0.005,0.102,-0.054,-0.049,-0.024,-0.171,-0.127,-0.942,-0.298,-0.127
1.072,-0.102,-0.098,0.005,0.102,-0.054,-0.049,-0.034,-0.171,-0.127,-0.956,-0.312,-0.146
1.074,-0.107,-0.107,0.0,0.107,-0.054,-0.054,-0.029,-0.176,-0.127,-0.971,-0.322,-0.151
1.076,-0.107,-0.102,0.005,0.107,-0.059,-0.049,-0.029,-0.176,-0.132,-0.976,-0.332,-0.161
1.078,-0.107,-0.088,0.02,0.098,-0.063,-0.034,-0.029,-0.176,-0.132,-0.981,-0.337,-0.171
1.08,-0.112,-0.044,0.068,0.078,-0.093,0.01,-0.059,-0.205,-0.156,-0.996,-0.351,-0.19
1.082,-0.122,-0.122,0.0,0.122,-0.063,-0.063,-0.024,-0.176,-0.132,-0.976,-0.322,-0.171
1.084,-0.142,-0.142,0.0,0.142,-0.073,-0.073,-0.024,-0.185,-0.142,-0.976,-0.332,-0.161
1.086,-0.127,-0.127,0.0,0.127,-0.063,-0.063,-0.02,-0.176,-0.137,-0.976,-0.332,-0.161
1.088,-0.102,-0.127,-0.024,0.117,-0.039,-0.078,0.015,-0.137,-0.093,-0.942,-0.312,-0.146
1.09,-0.083,-0.093,-0.01,0.088,-0.039,-0.054,0.039,-0.107,-0.059,-0.917,-0.293,-0.146
1.092,-0.107,-0.098,0.01,0.102,-0.059,-0.044,0.049,-0.088,-0.015,-0.888,-0.288,-0.156
1.094,-0.132,-0.146,-0.015,0.142,-0.059,-0.083,0.073,-0.044,0.068,-0.834,-0.249,-0.151
1.096,-0.137,-0.132,0.005,0.137,-0.073,-0.063,0.107,0.01,0.156,-0.776,-0.205,-0.142
1.098,-0.102,-0.059,0.044,0.083,-0.073,-0.01,0.132,0.093,0.249,-0.698,-0.142,-0.127
1.1,-0.049,-0.059,-0.01,0.054,-0.02,-0.034,0.195,0.229,0.395,-0.586,-0.059,-0.093
1.102,0.054,-0.112,-0.166,0.029,0.107,-0.142,0.278,0.42,0.59,-0.42,0.063,-0.024
1.104,0.176,-0.112,-0.288,-0.029,0.229,-0.2,0.371,0.639,0.844,-0.2,0.215,0.078
1.106,0.312,-0.044,-0.356,-0.132,0.332,-0.2,0.41,0.82,1.093,0.049,0.42,0.22
1.108,0.464,0.02,-0.444,-0.239,0.454,-0.215,0.395,0.903,1.279,0.307,0.678,0.405
1.11,0.61,0.098,-0.512,-0.351,0.561,-0.21,0.327,0.883,1.396,0.561,0.981,0.62
1.112,0.727,0.176,-0.551,-0.449,0.639,-0.19,0.21,0.766,1.41,0.805,1.322,0.888
1.114,0.864,0.303,-0.561,-0.581,0.712,-0.132,0.029,0.508,1.303,0.991,1.684,1.186
1.116,0.956,0.468,-0.488,-0.712,0.722,-0.01,-0.205,0.151,1.108,1.157,2.04,1.454
1.118,0.981,0.669,-0.312,-0.825,0.644,0.176,-0.439,-0.181,0.986,1.357,2.381,1.693
1.12,1.015,0.869,-0.146,-0.942,0.581,0.361,-0.634,-0.415,0.913,1.523,2.674,1.918
1.122,1.035,1.025,-0.01,-1.03,0.522,0.508,-0.781,-0.639,0.737,1.488,2.738,2.015
1.124,0.883,1.015,0.132,-0.947,0.376,0.571,-0.869,-0.864,0.361,1.083,2.352,1.859
1.126,0.59,0.878,0.288,-0.732,0.151,0.581,-0.893,-1.093,-0.156,0.371,1.62,1.498
1.128,0.342,0.761,0.42,-0.551,-0.039,0.59,-0.883,-1.269,-0.615,-0.332,0.854,1.078
1.13,0.151,0.673,0.522,-0.41,-0.185,0.595,-0.834,-1.337,-0.947,-0.922,0.142,0.659
1.132,-0.073,0.556,0.63,-0.239,-0.351,0.59,-0.786,-1.415,-1.303,-1.547,-0.493,0.264
1.134,-0.239,0.439,0.678,-0.098,-0.459,0.556,-0.805,-1.557,-1.693,-2.133,-0.917,0.005
1.136,-0.346,0.351,0.698,0.0,-0.522,0.522,-0.839,-1.659,-1.908,-2.43,-1.083,-0.112
1.138,-0.395,0.307,0.703,0.044,-0.551,0.503,-0.864,-1.63,-1.845,-2.386,-1.078,-0.166
1.14,-0.371,0.273,0.644,0.049,-0.508,0.459,-0.874,-1.557,-1.679,-2.22,-1.01,-0.2
1.142,-0.356,0.254,0.61,0.054,-0.483,0.429,-0.839,-1.454,-1.532,-2.113,-0.976,-0.249
1.144,-0.366,0.205,0.571,0.083,-0.468,0.386,-0.742,-1.274,-1.366,-1.986,-0.932,-0.273
1.146,-0.346,0.112,0.459,0.117,-0.405,0.283,-0.615,-1.049,-1.122,-1.786,-0.825,-0.234
1.148,-0.278,0.068,0.346,0.107,-0.312,0.205,-0.498,-0.864,-0.903,-1.606,-0.703,-0.19
1.15,-0.229,0.117,0.346,0.059,-0.288,0.229,-0.42,-0.732,-0.732,-1.469,-0.634,-0.19
1.152,-0.21,0.122,0.332,0.044,-0.273,0.224,-0.327,-0.571,-0.556,-1.322,-0.551,-0.19
1.154,-0.146,0.034,0.181,0.059,-0.166,0.107,-0.19,-0.395,-0.366,-1.176,-0.444,-0.161
1.156,-0.112,-0.034,0.078,0.073,-0.098,0.02,-0.112,-0.283,-0.249,-1.098,-0.386,-0.142
1.158,-0.137,-0.054,0.083,0.098,-0.112,0.015,-0.068,-0.224,-0.2,-1.074,-0.356,-0.146
1.16,-0.166,-0.083,0.083,0.127,-0.127,0.0,-0.049,-0.205,-0.171,-1.069,-0.346,-0.161
1.162,-0.142,-0.073,0.068,0.107,-0.107,-0.005,-0.044,-0.2,-0.161,-1.064,-0.346,-0.171
1.164,-0.093,-0.015,0.078,0.054,-0.088,0.029,-0.059,-0.185,-0.151,-1.059,-0.332,-0.171
1.166,-0.083,-0.005,0.078,0.044,-0.083,0.034,-0.054,-0.156,-0.142,-1.039,-0.312,-0.181
1.168,-0.098,-0.029,0.068,0.063,-0.083,0.02,-0.054,-0.151,-0.132,-1.035,-0.312,-0.195
1.17,-0.098,-0.034,0.063,0.068,-0.083,0.015,-0.049,-0.146,-0.117,-1.015,-0.298,-0.195
1.172,-0.107,-0.049,0.059,0.078,-0.083,0.005,-0.049,-0.132,-0.098,-1.015,-0.288,-0.195
1.174,-0.122,-0.073,0.049,0.098,-0.088,-0.015,-0.029,-0.122,-0.088,-1.025,-0.288,-0.195
1.176,-0.102,-0.068,0.034,0.088,-0.068,-0.02,-0.005,-0.122,-0.088,-1.025,-0.283,-0.2
1.178,-0.093,-0.073,0.02,0.083,-0.059,-0.029,0.0,-0.112,-0.078,-1.03,-0.278,-0.181
1.18,-0.093,-0.098,-0.005,0.098,-0.044,-0.054,0.005,-0.102,-0.068,-1.039,-0.268,-0.176
1.182,-0.083,-0.102,-0.02,0.093,-0.034,-0.063,0.005,-0.102,-0.068,-1.035,-0.259,-0.171
1.184,-0.083,-0.093,-0.01,0.088,-0.039,-0.054,0.01,-0.102,-0.083,-1.025,-0.249,-0.166
1.186,-0.083,-0.093,-0.01,0.088,-0.039,-0.054,0.0,-0.102,-0.083,-1.005,-0.239,-0.161
1.188,-0.088,-0.088,0.0,0.088,-0.044,-0.044,0.0,-0.102,-0.073,-0.991,-0.234,-0.156
1.19,-0.083,-0.073,0.01,0.078,-0.049,-0.034,0.005,-0.102,-0.073,-0.976,-0.224,-0.151
1.192,-0.063,-0.088,-0.024,0.078,-0.02,-0.059,0.01,-0.107,-0.068,-0.966,-0.224,-0.166
1.194,-0.059,-0.102,-0.044,0.083,-0.01,-0.073,0.005,-0.107,-0.068,-0.981,-0.229,-0.171
1.196,-0.054,-0.107,-0.054,0.083,0.0,-0.083,0.0,-0.107,-0.073,-0.991,-0.234,-0.176
1.198,-0.054,-0.102,-0.049,0.078,-0.005,-0.078,0.005,-0.107,-0.078,-1.0,-0.239,-0.176
1.2,-0.059,-0.102,-0.044,0.083,-0.01,-0.073,-0.005,-0.083,-0.054,-0.981,-0.22,-0.166
1.202,-0.073,-0.112,-0.039,0.093,-0.02,-0.078,0.005,-0.093,-0.054,-0.976,-0.229,-0.161
1.204,-0.063,-0.093,-0.029,0.078,-0.02,-0.063,-0.005,-0.098,-0.054,-0.971,-0.229,-0.161
1.206,-0.068,-0.073,-0.005,0.073,-0.034,-0.039,-0.005,-0.098,-0.049,-0.971,-0.224,-0.161
1.208,-0.078,-0.088,-0.01,0.083,-0.034,-0.049,-0.005,-0.073,-0.039,-0.961,-0.215,-0.161
1.21,-0.078,-0.107,-0.029,0.093,-0.024,-0.068,-0.005,-0.063,-0.024,-0.952,-0.205,-0.156
1.212,-0.073,-0.112,-0.039,0.093,-0.02,-0.078,0.0,-0.059,-0.005,-0.932,-0.19,-0.151
1.214,-0.063,-0.122,-0.059,0.093,-0.005,-0.093,0.01,-0.054,0.005,-0.922,-0.19,-0.142
1.216,-0.073,-0.122,-0.049,0.098,-0.015,-0.088,0.02,-0.044,0.005,-0.927,-0.185,-0.132
1.218,-0.078,-0.112,-0.034,0.098,-0.024,-0.073,0.024,-0.034,0.005,-0.927,-0.181,-0.132
1.22,-0.078,-0.112,-0.034,0.098,-0.024,-0.073,0.029,-0.01,0.02,-0.917,-0.176,-0.127
1.222,-0.078,-0.112,-0.034,0.098,-0.024,-0.073,0.029,0.005,0.02,-0.908,-0.171,-0.122
1.224,-0.093,-0.112,-0.02,0.102,-0.039,-0.068,0.015,-0.015,0.005,-0.917,-0.171,-0.132
1.226,-0.107,-0.107,0.0,0.107,-0.054,-0.054,0.015,-0.024,0.015,-0.917,-0.161,-0.132
1.228,-0.122,-0.107,0.015,0.117,-0.068,-0.049,0.015,-0.034,0.02,-0.917,-0.151,-0.132
1.23,-0.127,-0.107,0.02,0.117,-0.073,-0.044,0.015,-0.039,0.015,-0.917,-0.146,-0.127
1.232,-0.098,-0.078,0.02,0.088,-0.059,-0.029,0.024,-0.015,0.015,-0.917,-0.146,-0.127
1.234,-0.068,-0.088,-0.02,0.078,-0.024,-0.054,0.029,0.005,0.029,-0.908,-0.142,-0.117
1.236,-0.039,-0.088,-0.049,0.063,0.005,-0.068,0.029,0.01,0.034,-0.903,-0.142,-0.112
1.238,0.0,-0.083,-0.083,0.044,0.039,-0.083,0.039,0.01,0.034,-0.903,-0.151,-0.112
1.24,-0.024,-0.083,-0.059,0.054,0.015,-0.073,0.039,0.005,0.039,-0.913,-0.132,-0.107
1.242,-0.029,-0.083,-0.054,0.059,0.01,-0.068,0.034,0.005,0.039,-0.903,-0.132,-0.112
1.244,-0.034,-0.083,-0.049,0.059,0.005,-0.068,0.02,0.005,0.039,-0.908,-0.127,-0.117
1.246,-0.039,-0.098,-0.059,0.068,0.01,-0.078,0.015,0.0,0.034,-0.917,-0.122,-0.122
1.248,-0.039,-0.102,-0.063,0.073,0.01,-0.083,0.015,0.015,0.049,-0.917,-0.112,-0.112
1.25,-0.044,-0.093,-0.049,0.068,0.0,-0.073,0.01,0.015,0.059,-0.927,-0.107,-0.107
1.252,-0.039,-0.098,-0.059,0.068,0.01,-0.078,0.01,0.029,0.073,-0.922,-0.098,-0.098
1.254,-0.039,-0.102,-0.063,0.073,0.01,-0.083,0.02,0.034,0.083,-0.913,-0.088,-0.098
1.256,-0.024,-0.078,-0.054,0.054,0.015,-0.068,0.02,0.049,0.093,-0.888,-0.073,-0.093
1.258,-0.015,-0.054,-0.039,0.034,0.01,-0.049,0.02,0.059,0.117,-0.864,-0.059,-0.088
1.26,-0.005,-0.059,-0.054,0.034,0.024,-0.059,0.02,0.063,0.127,-0.859,-0.049,-0.078
1.262,0.02,-0.034,-0.054,0.01,0.034,-0.044,0.02,0.068,0.137,-0.844,-0.044,-0.078
1.264,0.015,-0.034,-0.049,0.01,0.029,-0.044,0.02,0.059,0.156,-0.844,-0.029,-0.059
1.266,0.02,-0.039,-0.059,0.01,0.039,-0.049,0.02,0.068,0.166,-0.825,-0.01,-0.039
1.268,0.02,-0.039,-0.059,0.01,0.039,-0.049,0.02,0.073,0.171,-0.805,0.0,-0.039
1.27,0.034,-0.01,-0.044,-0.01,0.039,-0.029,0.015,0.073,0.176,-0.8,0.015,-0.034
1.272,0.039,-0.02,-0.059,-0.01,0.049,-0.039,0.01,0.078,0.185,-0.8,0.034,-0.02
1.274,0.054,-0.029,-0.083,-0.01,0.068,-0.059,0.01,0.093,0.195,-0.786,0.044,-0.01
1.276,0.054,-0.039,-0.093,-0.005,0.073,-0.068,0.01,0.098,0.205,-0.776,0.059,0.0
1.278,0.063,-0.049,-0.112,-0.005,0.088,-0.083,0.01,0.107,0.215,-0.756,0.068,0.01
1.28,0.078,-0.034,-0.112,-0.02,0.093,-0.073,0.02,0.117,0.229,-0.761,0.063,0.024
1.282,0.083,-0.015,-0.098,-0.034,0.088,-0.059,0.02,0.122,0.229,-0.761,0.083,0.029
1.284,0.093,0.015,-0.078,-0.054,0.083,-0.034,0.005,0.122,0.234,-0.752,0.098,0.029
1.286,0.098,0.02,-0.078,-0.059,0.088,-0.029,0.005,0.122,0.234,-0.737,0.098,0.034
1.288,0.083,0.0,-0.083,-0.039,0.083,-0.044,0.01,0.122,0.239,-0.742,0.098,0.034
1.29,0.078,-0.005,-0.083,-0.034,0.078,-0.044,0.01,0.117,0.234,-0.752,0.098,0.034
1.292,0.073,-0.01,-0.083,-0.029,0.078,-0.049,0.005,0.112,0.22,-0.761,0.098,0.034
1.294,0.068,-0.02,-0.088,-0.024,0.078,-0.054,0.0,0.107,0.215,-0.771,0.107,0.029
1.296,0.059,0.0,-0.059,-0.029,0.059,-0.029,-0.01,0.107,0.215,-0.776,0.102,0.024
1.298,0.059,0.005,-0.054,-0.029,0.054,-0.024,-0.01,0.102,0.215,-0.781,0.102,0.024
1.3,0.063,0.01,-0.054,-0.034,0.059,-0.024,-0.01,0.102,0.215,-0.791,0.102,0.029
1.302,0.078,0.034,-0.044,-0.054,0.059,-0.005,-0.015,0.083,0.21,-0.805,0.102,0.029
1.304,0.088,0.044,-0.044,-0.063,0.063,0.0,-0.02,0.073,0.19,-0.815,0.102,0.039
1.306,0.078,0.034,-0.044,-0.054,0.059,-0.005,-0.02,0.073,0.19,-0.825,0.112,0.039
1.308,0.068,0.02,-0.049,-0.044,0.059,-0.015,-0.024,0.068,0.185,-0.825,0.102,0.029
1.31,0.068,0.029,-0.039,-0.049,0.054,-0.005,-0.029,0.059,0.176,-0.83,0.088,0.029
1.312,0.063,0.015,-0.049,-0.039,0.054,-0.02,-0.015,0.073,0.185,-0.83,0.093,0.044
1.314,0.059,0.005,-0.054,-0.029,0.054,-0.024,-0.005,0.088,0.185,-0.83,0.102,0.054
1.316,0.059,0.0,-0.059,-0.029,0.059,-0.029,0.0,0.083,0.176,-0.844,0.098,0.059
1.318,0.054,0.01,-0.044,-0.029,0.049,-0.02,-0.005,0.078,0.171,-0.844,0.102,0.059
1.32,0.068,0.015,-0.054,-0.039,0.059,-0.02,-0.01,0.078,0.171,-0.864,0.083,0.044
1.322,0.073,0.02,-0.054,-0.044,0.063,-0.02,-0.015,0.068,0.166,-0.874,0.078,0.039
1.324,0.073,0.02,-0.054,-0.044,0.063,-0.02,-0.015,0.063,0.156,-0.883,0.073,0.034
1.326,0.063,0.02,-0.044,-0.039,0.054,-0.015,-0.02,0.059,0.151,-0.908,0.063,0.029
1.328,0.068,0.029,-0.039,-0.049,0.054,-0.005,-0.015,0.059,0.137,-0.932,0.054,0.029
1.33,0.073,0.039,-0.034,-0.054,0.054,0.0,-0.015,0.059,0.137,-0.932,0.059,0.029
1.332,0.078,0.039,-0.039,-0.059,0.059,0.0,-0.015,0.073,0.137,-0.932,0.059,0.029
1.334,0.083,0.034,-0.049,-0.059,0.063,-0.01,-0.015,0.073,0.137,-0.932,0.049,0.029
1.336,0.059,0.015,-0.044,-0.034,0.049,-0.015,-0.02,0.054,0.117,-0.956,0.039,0.02
1.338,0.044,0.01,-0.034,-0.024,0.039,-0.015,-0.024,0.044,0.102,-0.966,0.034,0.02
1.34,0.029,-0.005,-0.034,-0.01,0.029,-0.02,-0.029,0.029,0.098,-0.971,0.029,0.02
1.342,0.015,0.0,-0.015,-0.005,0.015,-0.01,-0.034,0.01,0.093,-0.986,0.024,0.02
1.344,0.02,0.024,0.005,-0.02,0.005,0.015,-0.044,0.005,0.102,-0.986,0.034,0.015
1.346,0.01,0.024,0.015,-0.015,-0.005,0.02,-0.044,0.01,0.098,-1.0,0.034,0.015
1.348,0.0,0.024,0.024,-0.01,-0.015,0.024,-0.044,0.02,0.093,-1.015,0.034,0.01
1.35,0.0,0.01,0.01,-0.005,-0.005,0.01,-0.049,0.01,0.083,-1.015,0.034,0.005
1.352,-0.01,0.005,0.015,0.005,-0.015,0.01,-0.034,0.015,0.083,-1.005,0.039,0.01
1.354,-0.01,0.005,0.015,0.005,-0.015,0.01,-0.029,0.015,0.083,-1.01,0.029,0.01
1.356,-0.01,0.01,0.02,0.0,-0.015,0.015,-0.024,0.005,0.059,-1.02,0.02,-0.005
1.358,-0.01,0.01,0.02,0.0,-0.015,0.015,-0.02,0.005,0.044,-1.044,0.0,-0.015
1.36,-0.01,0.0,0.01,0.005,-0.01,0.005,-0.029,-0.005,0.039,-1.044,-0.02,-0.015
1.362,0.0,0.005,0.005,0.0,-0.005,0.005,-0.029,-0.015,0.039,-1.054,-0.02,-0.02
1.364,0.0,0.005,0.005,0.0,-0.005,0.005,-0.029,-0.015,0.039,-1.078,-0.034,-0.034
1.366,-0.01,-0.01,0.0,0.01,-0.005,-0.005,-0.029,-0.015,0.034,-1.088,-0.049,-0.039
1.368,-0.015,0.01,0.024,0.005,-0.02,0.015,-0.024,-0.02,0.02,-1.098,-0.054,-0.044
1.37,-0.02,0.024,0.044,0.0,-0.034,0.034,-0.02,-0.024,0.015,-1.098,-0.059,-0.049
1.372,-0.02,0.029,0.049,-0.005,-0.034,0.039,-0.02,-0.024,0.01,-1.103,-0.063,-0.054
1.374,-0.02,0.029,0.049,-0.005,-0.034,0.039,-0.02,-0.024,0.005,-1.108,-0.068,-0.063
1.376,-0.024,0.01,0.034,0.01,-0.029,0.02,-0.01,-0.034,-0.015,-1.132,-0.073,-0.063
1.378,-0.029,0.0,0.029,0.015,-0.029,0.015,-0.01,-0.034,-0.02,-1.137,-0.083,-0.063
1.38,-0.029,-0.024,0.005,0.029,-0.02,-0.01,-0.005,-0.039,-0.02,-1.137,-0.083,-0.059
1.382,-0.029,-0.034,-0.005,0.034,-0.015,-0.02,-0.005,-0.039,-0.024,-1.142,-0.088,-0.059
1.384,-0.044,-0.034,0.01,0.039,-0.029,-0.015,-0.015,-0.044,-0.044,-1.147,-0.102,-0.068
1.386,-0.059,-0.044,0.015,0.054,-0.039,-0.015,-0.02,-0.044,-0.044,-1.147,-0.102,-0.078
1.388,-0.063,-0.044,0.02,0.054,-0.044,-0.015,-0.024,-0.044,-0.044,-1.147,-0.102,-0.078
1.39,-0.068,-0.024,0.044,0.049,-0.059,0.01,-0.039,-0.049,-0.054,-1.157,-0.112,-0.088
1.392,-0.059,-0.02,0.039,0.039,-0.049,0.01,-0.024,-0.068,-0.054,-1.157,-0.122,-0.093
1.394,-0.063,-0.02,0.044,0.044,-0.054,0.01,-0.02,-0.068,-0.049,-1.157,-0.122,-0.093
1.396,-0.063,-0.029,0.034,0.049,-0.049,0.0,0.0,-0.063,-0.049,-1.157,-0.117,-0.093
1.398,-0.059,-0.024,0.034,0.044,-0.049,0.005,0.005,-0.063,-0.049,-1.157,-0.117,-0.098
1.4,-0.034,-0.015,0.02,0.024,-0.029,0.0,0.0,-0.059,-0.034,-1.152,-0.112,-0.093
1.402,-0.024,-0.01,0.015,0.02,-0.02,0.0,-0.005,-0.054,-0.029,-1.157,-0.122,-0.098
1.404,-0.015,0.0,0.015,0.01,-0.015,0.005,-0.015,-0.049,-0.029,-1.161,-0.122,-0.098
1.406,-0.01,0.005,0.015,0.005,-0.015,0.01,-0.02,-0.034,-0.024,-1.161,-0.122,-0.098
1.408,-0.034,0.02,0.054,0.01,-0.044,0.034,-0.02,-0.034,-0.015,-1.157,-0.117,-0.093
1.41,-0.049,0.024,0.073,0.015,-0.063,0.049,-0.02,-0.054,-0.02,-1.157,-0.122,-0.093
1.412,-0.063,0.024,0.088,0.02,-0.078,0.054,-0.029,-0.054,-0.02,-1.152,-0.117,-0.088
1.414,-0.073,0.01,0.083,0.034,-0.078,0.044,-0.029,-0.044,-0.01,-1.142,-0.107,-0.083
1.416,-0.073,-0.005,0.068,0.039,-0.073,0.029,-0.029,-0.034,-0.015,-1.142,-0.107,-0.093
1.418,-0.073,-0.02,0.054,0.049,-0.063,0.015,-0.029,-0.034,-0.02,-1.142,-0.107,-0.093
1.42,-0.078,-0.054,0.024,0.068,-0.054,-0.015,-0.029,-0.029,-0.015,-1.142,-0.112,-0.093
1.422,-0.078,-0.068,0.01,0.073,-0.044,-0.029,-0.034,-0.029,-0.029,-1.147,-0.117,-0.098
1.424,0.0,0.02,0.02,-0.01,-0.01,0.02,-0.034,-0.039,-0.034,-1.147,-0.117,-0.098
1.426,0.0,0.049,0.049,-0.024,-0.024,0.049,-0.02,-0.039,-0.039,-1.132,-0.117,-0.107
1.428,-0.024,0.039,0.063,-0.005,-0.044,0.049,-0.01,-0.049,-0.049,-1.132,-0.107,-0.098
1.43,-0.039,0.029,0.068,0.005,-0.054,0.049,-0.01,-0.049,-0.049,-1.132,-0.107,-0.098
1.432,-0.054,0.02,0.073,0.02,-0.063,0.044,-0.01,-0.049,-0.049,-1.132,-0.107,-0.098
1.434,-0.068,0.01,0.078,0.029,-0.073,0.044,-0.01,-0.049,-0.049,-1.132,-0.107,-0.098
1.436,-0.063,0.0,0.063,0.034,-0.063,0.029,-0.02,-0.049,-0.039,-1.118,-0.102,-0.083
1.438,-0.054,-0.005,0.049,0.029,-0.054,0.02,-0.02,-0.044,-0.039,-1.113,-0.102,-0.078
1.44,-0.044,-0.015,0.029,0.029,-0.039,0.005,-0.02,-0.044,-0.039,-1.113,-0.102,-0.078
1.442,-0.039,-0.024,0.015,0.034,-0.029,-0.005,-0.02,-0.044,-0.039,-1.113,-0.107,-0.088
1.444,-0.054,-0.034,0.02,0.044,-0.039,-0.01,-0.024,-0.039,-0.029,-1.098,-0.107,-0.078
1.446,-0.063,-0.039,0.024,0.054,-0.044,-0.01,-0.024,-0.034,-0.029,-1.083,-0.102,-0.078
1.448,-0.068,-0.039,0.029,0.054,-0.049,-0.005,-0.02,-0.029,-0.02,-1.074,-0.088,-0.073
1.45,-0.063,-0.029,0.034,0.049,-0.049,0.0,-0.02,-0.02,-0.02,-1.059,-0.088,-0.068
1.452,-0.044,-0.005,0.039,0.024,-0.044,0.015,-0.015,-0.01,-0.005,-1.044,-0.073,-0.068
1.454,-0.049,0.005,0.054,0.024,-0.054,0.029,-0.015,-0.005,0.005,-1.039,-0.073,-0.068
1.456,-0.039,0.029,0.068,0.005,-0.054,0.049,-0.01,0.0,0.01,-1.02,-0.073,-0.063
1.458,-0.02,0.054,0.073,-0.015,-0.049,0.063,-0.01,0.0,0.015,-1.015,-0.073,-0.063
1.46,-0.015,0.054,0.068,-0.02,-0.044,0.059,-0.02,-0.015,0.01,-1.025,-0.078,-0.073
1.462,-0.029,0.029,0.059,0.0,-0.044,0.044,-0.02,-0.015,0.01,-1.025,-0.078,-0.073
1.464,-0.029,0.02,0.049,0.005,-0.039,0.034,-0.02,-0.015,0.005,-1.025,-0.083,-0.073
1.466,-0.029,0.01,0.039,0.01,-0.034,0.024,-0.015,-0.01,0.005,-1.025,-0.083,-0.073
1.468,-0.029,0.015,0.044,0.01,-0.039,0.029,-0.01,0.0,-0.005,-1.005,-0.068,-0.054
1.47,-0.034,0.02,0.054,0.01,-0.044,0.034,-0.005,0.01,0.0,-1.0,-0.063,-0.049
1.472,-0.039,0.049,0.088,-0.005,-0.063,0.068,0.01,0.015,0.01,-0.986,-0.059,-0.044
1.474,-0.039,0.054,0.093,-0.005,-0.068,0.073,0.015,0.02,0.01,-0.976,-0.054,-0.039
1.476,-0.024,0.044,0.068,-0.01,-0.049,0.054,0.015,0.02,0.01,-0.952,-0.054,-0.049
1.478,-0.02,0.034,0.054,-0.005,-0.039,0.044,0.015,0.02,0.015,-0.942,-0.054,-0.049
1.48,-0.02,0.029,0.049,-0.005,-0.034,0.039,0.015,0.02,0.02,-0.917,-0.049,-0.049
1.482,-0.015,0.024,0.039,-0.005,-0.029,0.029,0.015,0.02,0.024,-0.903,-0.044,-0.044
1.484,-0.02,0.039,0.059,-0.01,-0.039,0.049,0.0,0.02,0.024,-0.893,-0.044,-0.034
1.486,-0.01,0.054,0.063,-0.02,-0.039,0.059,0.0,0.02,0.024,-0.898,-0.039,-0.034
1.488,-0.01,0.044,0.054,-0.015,-0.034,0.049,0.0,0.02,0.029,-0.898,-0.034,-0.034
1.49,-0.01,0.044,0.054,-0.015,-0.034,0.049,0.01,0.034,0.044,-0.888,-0.029,-0.024
1.492,-0.005,0.044,0.049,-0.02,-0.029,0.044,0.02,0.034,0.054,-0.874,-0.02,-0.02
1.494,-0.01,0.049,0.059,-0.02,-0.034,0.054,0.015,0.034,0.054,-0.864,-0.02,-0.01
1.496,-0.01,0.054,0.063,-0.02,-0.039,0.059,0.01,0.034,0.063,-0.864,-0.01,0.0
1.498,-0.005,0.068,0.073,-0.029,-0.039,0.068,-0.005,0.024,0.063,-0.864,0.005,0.005
1.5,0.034,0.088,0.054,-0.059,-0.01,0.068,-0.034,0.0,0.059,-0.849,-0.005,0.015
1.502,0.049,0.093,0.044,-0.068,0.0,0.068,-0.054,-0.02,0.039,-0.844,-0.005,0.01
1.504,0.059,0.088,0.029,-0.073,0.015,0.059,-0.083,-0.054,0.02,-0.854,-0.005,0.005
1.506,0.063,0.093,0.029,-0.078,0.015,0.059,-0.098,-0.068,0.01,-0.864,-0.005,0.0
1.508,0.068,0.093,0.024,-0.078,0.02,0.059,-0.098,-0.068,0.02,-0.844,0.0,0.005
1.51,0.073,0.088,0.015,-0.078,0.029,0.049,-0.093,-0.059,0.02,-0.83,0.005,0.01
1.512,0.078,0.083,0.005,-0.078,0.034,0.044,-0.093,-0.044,0.02,-0.82,0.015,0.015
1.514,0.078,0.083,0.005,-0.078,0.034,0.044,-0.083,-0.034,0.02,-0.815,0.02,0.02
1.516,0.063,0.068,0.005,-0.063,0.029,0.034,-0.098,-0.039,-0.01,-0.805,-0.005,0.005
1.518,0.054,0.063,0.01,-0.059,0.02,0.034,-0.098,-0.044,-0.029,-0.825,-0.029,-0.01
1.52,0.044,0.039,-0.005,-0.039,0.024,0.015,-0.093,-0.049,-0.034,-0.825,-0.039,-0.015
1.522,0.029,0.01,-0.02,-0.02,0.024,-0.005,-0.078,-0.044,-0.039,-0.825,-0.044,-0.02
1.524,0.044,0.02,-0.024,-0.029,0.034,-0.005,-0.083,-0.054,-0.049,-0.82,-0.054,-0.029
1.526,0.049,0.02,-0.029,-0.034,0.039,-0.005,-0.078,-0.054,-0.044,-0.815,-0.054,-0.034
1.528,0.054,0.029,-0.024,-0.039,0.039,0.0,-0.073,-0.044,-0.034,-0.81,-0.054,-0.034
1.53,0.059,0.044,-0.015,-0.049,0.034,0.015,-0.073,-0.044,-0.044,-0.81,-0.054,-0.039
1.532,0.034,0.015,-0.02,-0.024,0.024,-0.005,-0.073,-0.044,-0.054,-0.805,-0.049,-0.039
1.534,0.02,-0.005,-0.024,-0.005,0.02,-0.015,-0.063,-0.054,-0.063,-0.8,-0.063,-0.034
1.536,-0.005,-0.034,-0.029,0.02,0.01,-0.034,-0.054,-0.059,-0.068,-0.805,-0.068,-0.039
1.538,-0.024,-0.054,-0.029,0.039,0.0,-0.044,-0.034,-0.054,-0.059,-0.786,-0.068,-0.039
1.54,-0.024,-0.039,-0.015,0.034,-0.005,-0.029,-0.039,-0.049,-0.049,-0.766,-0.078,-0.054
1.542,-0.029,-0.034,-0.005,0.034,-0.015,-0.02,-0.024,-0.049,-0.049,-0.761,-0.088,-0.059
1.544,-0.034,-0.029,0.005,0.034,-0.02,-0.015,-0.024,-0.049,-0.054,-0.766,-0.102,-0.073
1.546,-0.039,-0.039,0.0,0.039,-0.02,-0.02,-0.02,-0.049,-0.059,-0.756,-0.107,-0.083
1.548,-0.039,-0.063,-0.024,0.054,-0.01,-0.044,-0.02,-0.059,-0.078,-0.752,-0.112,-0.102
1.55,-0.054,-0.049,0.005,0.054,-0.029,-0.024,-0.024,-0.068,-0.088,-0.752,-0.117,-0.107
1.552,-0.063,-0.059,0.005,0.063,-0.034,-0.029,-0.029,-0.088,-0.102,-0.761,-0.127,-0.117
1.554,-0.073,-0.073,0.0,0.073,-0.039,-0.039,-0.039,-0.107,-0.112,-0.766,-0.137,-0.122
1.556,-0.088,-0.093,-0.005,0.093,-0.044,-0.049,-0.024,-0.088,-0.102,-0.747,-0.137,-0.122
1.558,-0.098,-0.102,-0.005,0.102,-0.049,-0.054,-0.02,-0.078,-0.098,-0.732,-0.142,-0.122
1.56,-0.102,-0.107,-0.005,0.107,-0.049,-0.059,-0.01,-0.063,-0.102,-0.722,-0.146,-0.122
1.562,-0.093,-0.107,-0.015,0.102,-0.039,-0.063,-0.005,-0.054,-0.098,-0.712,-0.151,-0.117
1.564,-0.093,-0.093,0.0,0.093,-0.049,-0.049,-0.01,-0.073,-0.102,-0.712,-0.151,-0.132
1.566,-0.093,-0.068,0.024,0.083,-0.059,-0.024,-0.024,-0.078,-0.107,-0.712,-0.161,-0.137
1.568,-0.102,-0.088,0.015,0.098,-0.059,-0.039,-0.02,-0.078,-0.112,-0.708,-0.161,-0.142
1.57,-0.117,-0.083,0.034,0.102,-0.078,-0.024,-0.024,-0.078,-0.122,-0.703,-0.161,-0.146
1.572,-0.112,-0.059,0.054,0.088,-0.083,-0.005,-0.029,-0.073,-0.127,-0.688,-0.151,-0.142
1.574,-0.102,-0.054,0.049,0.078,-0.078,-0.005,-0.029,-0.073,-0.127,-0.673,-0.151,-0.137
1.576,-0.098,-0.054,0.044,0.078,-0.073,-0.005,-0.024,-0.073,-0.127,-0.659,-0.151,-0.132
1.578,-0.093,-0.049,0.044,0.073,-0.068,-0.005,-0.024,-0.063,-0.127,-0.639,-0.151,-0.127
1.58,-0.102,-0.059,0.044,0.083,-0.073,-0.01,-0.029,-0.068,-0.137,-0.63,-0.166,-0.146
1.582,-0.107,-0.078,0.029,0.093,-0.068,-0.024,-0.029,-0.078,-0.137,-0.63,-0.176,-0.151
1.584,-0.107,-0.083,0.024,0.098,-0.068,-0.029,-0.034,-0.083,-0.142,-0.62,-0.185,-0.161
1.586,-0.107,-0.078,0.029,0.093,-0.068,-0.024,-0.039,-0.088,-0.142,-0.61,-0.19,-0.171
1.588,-0.151,-0.142,0.01,0.146,-0.083,-0.068,-0.01,-0.059,-0.098,-0.576,-0.166,-0.142
1.59,-0.122,-0.122,0.0,0.122,-0.063,-0.063,-0.015,-0.049,-0.102,-0.566,-0.166,-0.142
1.592,-0.054,-0.093,-0.039,0.073,-0.01,-0.068,-0.024,-0.059,-0.102,-0.556,-0.166,-0.151
1.594,-0.049,-0.117,-0.068,0.083,0.01,-0.093,0.0,-0.049,-0.098,-0.547,-0.176,-0.151
1.596,-0.093,-0.117,-0.024,0.107,-0.034,-0.073,0.024,-0.02,-0.073,-0.522,-0.166,-0.146
1.598,-0.112,-0.083,0.029,0.098,-0.073,-0.029,0.049,0.01,-0.049,-0.488,-0.156,-0.156
1.6,-0.078,-0.039,0.039,0.059,-0.059,0.0,0.078,0.059,0.005,-0.439,-0.142,-0.166
1.602,-0.044,-0.029,0.015,0.039,-0.029,-0.01,0.122,0.132,0.078,-0.366,-0.112,-0.151
1.604,-0.068,-0.024,0.044,0.049,-0.059,0.01,0.156,0.215,0.176,-0.288,-0.059,-0.142
1.606,-0.083,-0.029,0.054,0.059,-0.068,0.01,0.22,0.337,0.298,-0.181,0.015,-0.107
1.608,-0.039,-0.068,-0.029,0.054,-0.005,-0.049,0.303,0.512,0.464,-0.059,0.098,-0.063
1.61,0.044,-0.093,-0.137,0.024,0.088,-0.117,0.376,0.703,0.639,0.088,0.2,-0.005
1.612,0.185,-0.073,-0.259,-0.054,0.22,-0.166,0.439,0.903,0.893,0.317,0.371,0.098
1.614,0.332,-0.054,-0.386,-0.137,0.356,-0.22,0.468,1.064,1.142,0.615,0.615,0.268
1.616,0.473,-0.039,-0.512,-0.215,0.493,-0.278,0.425,1.108,1.298,0.893,0.883,0.454
1.618,0.62,0.049,-0.571,-0.332,0.595,-0.264,0.337,1.049,1.376,1.166,1.186,0.659
1.62,0.747,0.195,-0.551,-0.468,0.649,-0.181,0.2,0.874,1.371,1.42,1.537,0.937
1.622,0.834,0.322,-0.512,-0.576,0.673,-0.098,-0.039,0.556,1.254,1.654,1.908,1.235
1.624,0.937,0.478,-0.459,-0.708,0.698,0.01,-0.303,0.19,1.118,1.869,2.264,1.493
1.626,1.03,0.698,-0.332,-0.864,0.678,0.181,-0.517,-0.093,1.064,2.128,2.606,1.732
1.628,1.093,0.908,-0.185,-1.0,0.639,0.361,-0.683,-0.317,1.0,2.294,2.889,1.967
1.63,1.064,1.035,-0.029,-1.049,0.547,0.503,-0.859,-0.581,0.747,2.162,2.845,2.025
1.632,0.893,0.996,0.102,-0.942,0.395,0.547,-0.986,-0.883,0.244,1.601,2.323,1.801
1.634,0.6,0.878,0.278,-0.737,0.161,0.576,-1.03,-1.152,-0.332,0.8,1.542,1.43
1.636,0.351,0.781,0.429,-0.566,-0.039,0.605,-1.0,-1.279,-0.771,0.117,0.805,1.039
1.638,0.181,0.693,0.512,-0.434,-0.166,0.6,-0.932,-1.327,-1.093,-0.493,0.122,0.649
1.64,-0.024,0.537,0.561,-0.254,-0.293,0.547,-0.893,-1.425,-1.488,-1.108,-0.434,0.312
1.642,-0.229,0.42,0.649,-0.093,-0.439,0.532,-0.903,-1.576,-1.82,-1.576,-0.722,0.112
1.644,-0.307,0.39,0.698,-0.039,-0.503,0.542,-0.937,-1.63,-1.937,-1.718,-0.81,0.015
1.646,-0.288,0.376,0.664,-0.044,-0.478,0.517,-0.942,-1.542,-1.776,-1.586,-0.776,-0.029
1.648,-0.293,0.312,0.605,-0.01,-0.449,0.459,-0.903,-1.401,-1.562,-1.41,-0.717,-0.073
1.65,-0.337,0.224,0.561,0.059,-0.449,0.39,-0.82,-1.24,-1.405,-1.303,-0.693,-0.132
1.652,-0.337,0.166,0.503,0.088,-0.42,0.332,-0.693,-1.03,-1.21,-1.166,-0.649,-0.166
1.654,-0.259,0.151,0.41,0.054,-0.337,0.278,-0.576,-0.805,-0.956,-0.976,-0.542,-0.166
1.656,-0.181,0.137,0.317,0.024,-0.249,0.224,-0.468,-0.62,-0.756,-0.795,-0.439,-0.122
1.658,-0.142,0.088,0.229,0.029,-0.185,0.156,-0.361,-0.468,-0.595,-0.649,-0.361,-0.112
1.66,-0.151,0.054,0.205,0.049,-0.181,0.127,-0.229,-0.298,-0.439,-0.512,-0.288,-0.112
1.662,-0.146,0.015,0.161,0.068,-0.156,0.088,-0.132,-0.171,-0.307,-0.415,-0.259,-0.122
1.664,-0.122,-0.015,0.107,0.068,-0.117,0.044,-0.073,-0.117,-0.249,-0.376,-0.249,-0.142
1.666,-0.107,-0.044,0.063,0.078,-0.088,0.01,-0.039,-0.088,-0.22,-0.351,-0.239,-0.137
1.668,-0.107,-0.102,0.005,0.107,-0.059,-0.049,-0.01,-0.059,-0.19,-0.337,-0.229,-0.132
1.67,-0.122,-0.102,0.02,0.112,-0.073,-0.044,-0.015,-0.054,-0.19,-0.332,-0.22,-0.151
1.672,-0.132,-0.083,0.049,0.107,-0.093,-0.02,-0.029,-0.049,-0.181,-0.307,-0.205,-0.161
1.674,-0.122,-0.063,0.059,0.093,-0.093,-0.005,-0.024,-0.02,-0.151,-0.268,-0.185,-0.161
1.676,-0.112,-0.063,0.049,0.088,-0.083,-0.01,-0.02,-0.02,-0.132,-0.254,-0.19,-0.176
1.678,-0.098,-0.063,0.034,0.083,-0.068,-0.015,-0.01,-0.01,-0.117,-0.224,-0.181,-0.176
1.68,-0.093,-0.073,0.02,0.083,-0.059,-0.029,-0.005,0.01,-0.098,-0.215,-0.176,-0.176
1.682,-0.093,-0.093,0.0,0.093,-0.049,-0.049,0.02,0.024,-0.088,-0.215,-0.181,-0.176
1.684,-0.083,-0.078,0.005,0.083,-0.044,-0.039,0.039,0.044,-0.078,-0.21,-0.176,-0.176
1.686,-0.083,-0.073,0.01,0.078,-0.049,-0.034,0.049,0.054,-0.068,-0.21,-0.181,-0.161
1.688,-0.093,-0.088,0.005,0.093,-0.049,-0.044,0.059,0.063,-0.059,-0.215,-0.181,-0.161
1.69,-0.093,-0.083,0.01,0.088,-0.054,-0.039,0.063,0.063,-0.059,-0.205,-0.181,-0.161
1.692,-0.102,-0.083,0.02,0.093,-0.063,-0.034,0.054,0.049,-0.068,-0.195,-0.176,-0.171
1.694,-0.102,-0.083,0.02,0.093,-0.063,-0.034,0.039,0.044,-0.073,-0.176,-0.161,-0.171
1.696,-0.107,-0.078,0.029,0.093,-0.068,-0.024,0.034,0.039,-0.068,-0.161,-0.151,-0.171
1.698,-0.102,-0.063,0.039,0.083,-0.073,-0.015,0.034,0.034,-0.073,-0.146,-0.137,-0.171
1.7,-0.073,-0.083,-0.01,0.078,-0.034,-0.049,0.054,0.049,-0.049,-0.117,-0.132,-0.156
1.702,-0.068,-0.102,-0.034,0.088,-0.02,-0.068,0.063,0.059,-0.039,-0.112,-0.132,-0.151
1.704,-0.063,-0.112,-0.049,0.088,-0.01,-0.083,0.073,0.068,-0.034,-0.102,-0.132,-0.146
1.706,-0.063,-0.112,-0.049,0.088,-0.01,-0.083,0.093,0.078,-0.029,-0.093,-0.132,-0.137
1.708,-0.073,-0.122,-0.049,0.098,-0.015,-0.088,0.078,0.083,-0.02,-0.088,-0.132,-0.132
1.71,-0.093,-0.132,-0.039,0.112,-0.029,-0.088,0.083,0.073,-0.024,-0.088,-0.142,-0.132
1.712,-0.088,-0.112,-0.024,0.102,-0.034,-0.068,0.068,0.068,-0.029,-0.088,-0.142,-0.137
1.714,-0.098,-0.093,0.005,0.098,-0.054,-0.044,0.063,0.068,-0.029,-0.093,-0.137,-0.142
1.716,-0.107,-0.098,0.01,0.102,-0.059,-0.044,0.063,0.088,-0.029,-0.083,-0.127,-0.137
1.718,-0.107,-0.107,0.0,0.107,-0.054,-0.054,0.063,0.093,-0.024,-0.073,-0.117,-0.137
1.72,-0.102,-0.102,0.0,0.102,-0.054,-0.054,0.068,0.093,-0.015,-0.054,-0.102,-0.137
1.722,-0.093,-0.102,-0.01,0.098,-0.044,-0.059,0.078,0.093,-0.015,-0.044,-0.102,-0.132
1.724,-0.112,-0.122,-0.01,0.117,-0.054,-0.068,0.078,0.093,-0.005,-0.039,-0.107,-0.142
1.726,-0.127,-0.122,0.005,0.127,-0.068,-0.059,0.073,0.093,-0.005,-0.039,-0.112,-0.142
1.728,-0.137,-0.132,0.005,0.137,-0.073,-0.063,0.068,0.107,0.01,-0.029,-0.117,-0.137
1.73,-0.146,-0.142,0.005,0.146,-0.078,-0.068,0.059,0.112,0.01,-0.02,-0.122,-0.132
1.732,-0.112,-0.127,-0.015,0.122,-0.049,-0.073,0.059,0.112,0.0,-0.01,-0.117,-0.132
1.734,-0.088,-0.107,-0.02,0.098,-0.034,-0.063,0.063,0.112,0.015,0.0,-0.102,-0.132
1.736,-0.063,-0.093,-0.029,0.078,-0.02,-0.063,0.068,0.112,0.024,0.01,-0.088,-0.132
1.738,-0.029,-0.078,-0.049,0.054,0.01,-0.063,0.073,0.117,0.024,0.02,-0.078,-0.127
1.74,-0.029,-0.049,-0.02,0.039,-0.005,-0.034,0.073,0.132,0.029,0.034,-0.078,-0.127
1.742,-0.029,-0.059,-0.029,0.044,0.0,-0.044,0.078,0.151,0.049,0.049,-0.073,-0.117
1.744,-0.029,-0.059,-0.029,0.044,0.0,-0.044,0.078,0.156,0.059,0.059,-0.073,-0.112
1.746,-0.02,-0.054,-0.034,0.039,0.005,-0.044,0.088,0.156,0.063,0.063,-0.083,-0.112
1.748,-0.039,-0.078,-0.039,0.059,0.0,-0.059,0.083,0.161,0.073,0.063,-0.059,-0.102
1.75,-0.039,-0.093,-0.054,0.068,0.005,-0.073,0.083,0.171,0.078,0.083,-0.054,-0.102
1.752,-0.039,-0.107,-0.068,0.073,0.015,-0.088,0.073,0.181,0.083,0.088,-0.044,-0.102
1.754,-0.039,-0.137,-0.098,0.088,0.029,-0.117,0.073,0.185,0.083,0.088,-0.034,-0.102
1.756,-0.024,-0.102,-0.078,0.063,0.024,-0.093,0.078,0.181,0.098,0.098,-0.024,-0.102
1.758,-0.024,-0.073,-0.049,0.049,0.01,-0.063,0.078,0.181,0.107,0.098,-0.02,-0.098
1.76,-0.015,-0.059,-0.044,0.039,0.015,-0.054,0.083,0.195,0.122,0.112,-0.01,-0.088
1.762,-0.01,-0.044,-0.034,0.029,0.01,-0.039,0.098,0.2,0.132,0.132,0.0,-0.088
1.764,0.005,-0.039,-0.044,0.02,0.024,-0.044,0.093,0.205,0.127,0.142,0.0,-0.083
1.766,0.005,-0.024,-0.029,0.01,0.015,-0.029,0.088,0.205,0.146,0.161,0.01,-0.078
1.768,0.005,-0.039,-0.044,0.02,0.024,-0.044,0.083,0.2,0.151,0.161,0.015,-0.068
1.77,0.02,-0.024,-0.044,0.005,0.029,-0.034,0.078,0.195,0.156,0.171,0.015,-0.068
1.772,0.01,-0.049,-0.059,0.02,0.034,-0.054,0.088,0.19,0.176,0.176,0.029,-0.059
1.774,0.01,-0.068,-0.078,0.029,0.044,-0.073,0.088,0.195,0.185,0.19,0.059,-0.039
1.776,0.005,-0.083,-0.088,0.039,0.044,-0.088,0.088,0.195,0.19,0.205,0.078,-0.039
1.778,0.015,-0.068,-0.083,0.029,0.049,-0.078,0.083,0.19,0.195,0.205,0.102,-0.034
1.78,0.039,-0.049,-0.088,0.005,0.063,-0.068,0.073,0.2,0.195,0.19,0.098,-0.039
1.782,0.054,-0.039,-0.093,-0.005,0.073,-0.068,0.068,0.21,0.205,0.19,0.102,-0.029
1.784,0.054,-0.029,-0.083,-0.01,0.068,-0.059,0.063,0.21,0.215,0.185,0.112,-0.02
1.786,0.063,-0.02,-0.083,-0.02,0.073,-0.054,0.059,0.215,0.224,0.19,0.117,-0.01
1.788,0.063,-0.02,-0.083,-0.02,0.073,-0.054,0.068,0.22,0.229,0.195,0.122,0.015
1.79,0.063,-0.015,-0.078,-0.024,0.068,-0.049,0.068,0.22,0.229,0.195,0.142,0.02
1.792,0.068,0.0,-0.068,-0.034,0.068,-0.034,0.054,0.215,0.234,0.205,0.156,0.02
1.794,0.068,-0.01,-0.078,-0.029,0.073,-0.044,0.054,0.21,0.234,0.22,0.156,0.024
1.796,0.068,-0.01,-0.078,-0.029,0.073,-0.044,0.059,0.215,0.254,0.229,0.176,0.039
1.798,0.068,-0.005,-0.073,-0.029,0.068,-0.039,0.059,0.215,0.264,0.224,0.176,0.044
1.8,0.068,0.0,-0.068,-0.034,0.068,-0.034,0.054,0.215,0.264,0.22,0.176,0.049
1.802,0.068,0.0,-0.068,-0.034,0.068,-0.034,0.049,0.215,0.273,0.215,0.185,0.049
1.804,0.059,-0.005,-0.063,-0.024,0.059,-0.034,0.054,0.215,0.264,0.2,0.181,0.063
1.806,0.059,-0.005,-0.063,-0.024,0.059,-0.034,0.059,0.21,0.254,0.195,0.181,0.063
1.808,0.063,-0.005,-0.068,-0.029,0.063,-0.039,0.063,0.21,0.244,0.185,0.181,0.068
1.81,0.078,0.015,-0.063,-0.044,0.068,-0.024,0.063,0.19,0.229,0.171,0.181,0.068
1.812,0.073,0.024,-0.049,-0.049,0.059,-0.015,0.054,0.181,0.22,0.161,0.176,0.063
1.814,0.059,0.015,-0.044,-0.034,0.049,-0.015,0.049,0.181,0.22,0.151,0.181,0.059
1.816,0.044,0.0,-0.044,-0.02,0.044,-0.024,0.039,0.176,0.215,0.151,0.166,0.044
1.818,0.039,0.01,-0.029,-0.024,0.034,-0.01,0.029,0.166,0.205,0.146,0.146,0.039
1.82,0.054,0.005,-0.049,-0.029,0.049,-0.024,0.02,0.156,0.215,0.137,0.151,0.044
1.822,0.059,-0.005,-0.063,-0.024,0.059,-0.034,0.024,0.166,0.215,0.137,0.151,0.044
1.824,0.068,-0.01,-0.078,-0.029,0.073,-0.044,0.024,0.156,0.205,0.122,0.137,0.039
1.826,0.073,0.0,-0.073,-0.034,0.073,-0.039,0.015,0.146,0.2,0.122,0.132,0.029
1.828,0.073,0.01,-0.063,-0.039,0.068,-0.029,0.005,0.132,0.185,0.117,0.127,0.029
1.83,0.073,0.01,-0.063,-0.039,0.068,-0.029,0.005,0.117,0.176,0.112,0.127,0.029
1.832,0.068,0.005,-0.063,-0.034,0.063,-0.029,0.01,0.107,0.161,0.107,0.127,0.029
1.834,0.054,0.0,-0.054,-0.024,0.054,-0.029,0.01,0.098,0.151,0.088,0.122,0.029
1.836,0.059,0.015,-0.044,-0.034,0.049,-0.015,0.015,0.093,0.151,0.093,0.132,0.029
1.838,0.063,0.039,-0.024,-0.049,0.044,0.005,0.015,0.098,0.156,0.102,0.137,0.029
1.84,0.068,0.054,-0.015,-0.059,0.039,0.02,0.015,0.117,0.161,0.112,0.137,0.029
1.842,0.073,0.063,-0.01,-0.068,0.039,0.024,0.015,0.122,0.166,0.122,0.127,0.029
1.844,0.063,0.039,-0.024,-0.049,0.044,0.005,0.029,0.122,0.156,0.122,0.132,0.034
1.846,0.063,0.029,-0.034,-0.044,0.049,-0.005,0.034,0.122,0.151,0.127,0.132,0.039
1.848,0.063,0.01,-0.054,-0.034,0.059,-0.024,0.039,0.117,0.156,0.137,0.132,0.044
1.85,0.063,0.01,-0.054,-0.034,0.059,-0.024,0.044,0.107,0.161,0.137,0.132,0.049
1.852,0.054,0.034,-0.02,-0.044,0.034,0.005,0.039,0.083,0.142,0.127,0.127,0.034
1.854,0.039,0.034,-0.005,-0.034,0.02,0.015,0.034,0.078,0.127,0.112,0.122,0.034
1.856,0.024,0.034,0.01,-0.029,0.005,0.02,0.029,0.078,0.112,0.098,0.117,0.029
1.858,0.02,0.02,0.0,-0.02,0.01,0.01,0.02,0.059,0.093,0.098,0.112,0.024
1.86,0.005,0.005,0.0,-0.005,0.0,0.0,0.02,0.059,0.102,0.098,0.098,0.02
1.862,0.0,-0.005,-0.005,0.005,0.0,-0.005,0.02,0.054,0.102,0.093,0.088,0.02
1.864,-0.005,-0.01,-0.005,0.01,0.0,-0.01,0.02,0.039,0.078,0.083,0.078,0.005
1.866,-0.01,-0.02,-0.01,0.015,0.0,-0.015,0.02,0.034,0.063,0.059,0.059,-0.005
1.868,0.0,-0.02,-0.02,0.01,0.01,-0.02,0.02,0.024,0.063,0.054,0.059,-0.005
1.87,0.01,-0.015,-0.024,0.005,0.015,-0.02,0.02,0.015,0.059,0.039,0.059,-0.01
1.872,0.01,-0.015,-0.024,0.005,0.015,-0.02,0.02,0.015,0.054,0.01,0.044,-0.024
1.874,0.0,-0.029,-0.029,0.015,0.015,-0.029,0.02,0.015,0.044,-0.005,0.029,-0.029
1.876,-0.02,-0.005,0.015,0.015,-0.02,0.005,0.034,0.015,0.034,-0.005,0.034,-0.039
1.878,-0.039,0.005,0.044,0.02,-0.044,0.024,0.039,0.015,0.024,-0.005,0.029,-0.039
1.88,-0.054,0.005,0.059,0.024,-0.059,0.029,0.039,0.02,0.015,-0.01,0.024,-0.039
1.882,-0.068,0.0,0.068,0.034,-0.068,0.034,0.039,0.024,0.005,-0.015,0.02,-0.044
1.884,-0.059,-0.015,0.044,0.039,-0.054,0.015,0.049,0.015,0.0,-0.024,0.024,-0.044
1.886,-0.059,-0.02,0.039,0.039,-0.049,0.01,0.049,0.015,0.0,-0.024,0.015,-0.044
1.888,-0.054,-0.039,0.015,0.049,-0.034,-0.015,0.054,0.01,0.005,-0.02,0.015,-0.039
1.89,-0.049,-0.044,0.005,0.049,-0.029,-0.02,0.054,0.01,0.005,-0.02,0.01,-0.039
1.892,-0.039,-0.044,-0.005,0.044,-0.02,-0.024,0.044,0.0,-0.015,-0.034,-0.005,-0.059
1.894,-0.049,-0.054,-0.005,0.054,-0.024,-0.029,0.039,-0.005,-0.015,-0.044,-0.005,-0.068
1.896,-0.049,-0.054,-0.005,0.054,-0.024,-0.029,0.034,-0.01,-0.015,-0.054,-0.005,-0.068
1.898,-0.049,-0.034,0.015,0.044,-0.034,-0.01,0.02,-0.02,-0.024,-0.073,-0.015,-0.078
1.9,-0.044,-0.024,0.02,0.034,-0.034,-0.005,0.02,-0.044,-0.034,-0.083,-0.024,-0.088
1.902,-0.044,-0.029,0.015,0.039,-0.029,-0.01,0.02,-0.049,-0.029,-0.093,-0.024,-0.083
1.904,-0.039,-0.044,-0.005,0.044,-0.02,-0.024,0.034,-0.049,-0.029,-0.102,-0.02,-0.078
1.906,-0.029,-0.044,-0.015,0.039,-0.01,-0.029,0.034,-0.054,-0.029,-0.112,-0.02,-0.078
1.908,-0.039,-0.044,-0.005,0.044,-0.02,-0.024,0.034,-0.063,-0.039,-0.112,-0.015,-0.073
1.91,-0.044,-0.049,-0.005,0.049,-0.02,-0.029,0.034,-0.063,-0.039,-0.112,-0.024,-0.078
1.912,-0.049,-0.049,0.0,0.049,-0.024,-0.024,0.029,-0.063,-0.044,-0.112,-0.024,-0.078
1.914,-0.059,-0.054,0.005,0.059,-0.034,-0.024,0.029,-0.054,-0.044,-0.107,-0.024,-0.078
1.916,-0.073,-0.034,0.039,0.054,-0.059,0.0,0.034,-0.068,-0.044,-0.098,-0.034,-0.088
1.918,-0.078,-0.024,0.054,0.054,-0.068,0.015,0.029,-0.093,-0.049,-0.102,-0.044,-0.093
1.92,-0.083,-0.02,0.063,0.054,-0.073,0.02,0.015,-0.098,-0.049,-0.102,-0.044,-0.093
1.922,-0.083,-0.029,0.054,0.059,-0.068,0.01,0.01,-0.093,-0.039,-0.098,-0.039,-0.093
1.924,-0.005,-0.029,-0.024,0.02,0.01,-0.029,0.0,-0.112,-0.049,-0.098,-0.049,-0.112
1.926,0.015,0.02,0.005,-0.015,0.005,0.01,0.02,-0.093,-0.029,-0.059,-0.029,-0.093
1.928,-0.039,0.029,0.068,0.005,-0.054,0.049,0.029,-0.088,-0.01,-0.039,-0.015,-0.083
1.93,-0.088,0.0,0.088,0.044,-0.088,0.044,0.005,-0.098,-0.02,-0.044,-0.029,-0.098
1.932,-0.078,-0.01,0.068,0.044,-0.073,0.029,-0.02,-0.107,-0.039,-0.059,-0.039,-0.107
1.934,-0.063,-0.01,0.054,0.039,-0.059,0.02,-0.005,-0.102,-0.029,-0.059,-0.039,-0.098
1.936,-0.059,-0.01,0.049,0.034,-0.054,0.02,0.0,-0.098,-0.029,-0.059,-0.039,-0.098
1.938,-0.054,-0.01,0.044,0.034,-0.049,0.015,0.005,-0.093,-0.029,-0.059,-0.039,-0.098
1.94,-0.049,-0.01,0.039,0.029,-0.044,0.015,0.01,-0.088,-0.029,-0.059,-0.039,-0.098
1.942,-0.054,0.0,0.054,0.029,-0.054,0.024,0.02,-0.093,-0.039,-0.059,-0.039,-0.098
1.944,-0.054,0.005,0.059,0.024,-0.059,0.029,0.02,-0.093,-0.039,-0.059,-0.044,-0.098
1.946,-0.054,0.005,0.059,0.024,-0.059,0.029,0.02,-0.098,-0.039,-0.063,-0.049,-0.102
1.948,-0.059,0.005,0.063,0.029,-0.063,0.034,0.02,-0.102,-0.039,-0.068,-0.059,-0.117
1.95,-0.068,0.005,0.073,0.034,-0.073,0.039,0.015,-0.093,-0.034,-0.054,-0.059,-0.117
1.952,-0.073,0.0,0.073,0.039,-0.073,0.034,0.015,-0.093,-0.029,-0.039,-0.054,-0.117
1.954,-0.073,0.0,0.073,0.039,-0.073,0.034,0.02,-0.093,-0.015,-0.029,-0.039,-0.112
1.956,-0.063,0.01,0.073,0.029,-0.068,0.039,0.02,-0.088,-0.01,-0.015,-0.039,-0.107
1.958,-0.049,0.005,0.054,0.024,-0.054,0.029,0.029,-0.098,-0.015,-0.029,-0.024,-0.107
1.96,-0.059,0.005,0.063,0.029,-0.063,0.034,0.034,-0.093,-0.015,-0.034,-0.024,-0.107
1.962,-0.054,0.02,0.073,0.02,-0.063,0.044,0.044,-0.088,-0.02,-0.024,-0.024,-0.102
1.964,-0.039,0.034,0.073,0.005,-0.059,0.054,0.049,-0.088,-0.024,-0.029,-0.024,-0.102
1.966,-0.024,0.039,0.063,-0.005,-0.044,0.049,0.049,-0.093,-0.02,-0.044,-0.015,-0.098
1.968,-0.039,0.02,0.059,0.01,-0.049,0.039,0.049,-0.093,-0.01,-0.039,-0.01,-0.093
1.97,-0.039,0.015,0.054,0.015,-0.049,0.034,0.049,-0.093,-0.005,-0.034,-0.01,-0.088
1.972,-0.039,0.01,0.049,0.015,-0.044,0.029,0.054,-0.088,0.005,-0.029,-0.005,-0.083
1.974,-0.034,0.0,0.034,0.02,-0.034,0.015,0.063,-0.098,0.015,-0.034,0.01,-0.063
1.976,-0.034,0.0,0.034,0.02,-0.034,0.015,0.063,-0.088,0.02,-0.034,0.015,-0.059
1.978,-0.034,0.024,0.059,0.005,-0.049,0.039,0.073,-0.083,0.029,-0.024,0.02,-0.054
1.98,-0.029,0.024,0.054,0.005,-0.044,0.039,0.073,-0.078,0.029,-0.02,0.024,-0.049
1.982,-0.01,0.029,0.039,-0.01,-0.024,0.034,0.073,-0.063,0.029,-0.02,0.024,-0.049
1.984,0.01,0.034,0.024,-0.02,-0.01,0.029,0.073,-0.059,0.034,-0.024,0.024,-0.049
1.986,0.024,0.044,0.02,-0.034,0.0,0.029,0.073,-0.054,0.039,-0.015,0.029,-0.049
1.988,0.044,0.054,0.01,-0.049,0.015,0.029,0.073,-0.049,0.044,-0.015,0.034,-0.044
1.99,0.029,0.054,0.024,-0.039,0.0,0.039,0.059,-0.039,0.044,-0.024,0.034,-0.044
1.992,0.029,0.054,0.024,-0.039,0.0,0.039,0.059,-0.039,0.044,-0.029,0.039,-0.044
1.994,0.02,0.029,0.01,-0.024,0.005,0.02,0.059,-0.039,0.049,-0.029,0.044,-0.044
1.996,0.01,0.015,0.005,-0.01,0.0,0.01,0.068,-0.024,0.063,-0.02,0.049,-0.034
1.998,0.005,0.0,-0.005,0.0,0.005,-0.005,0.078,-0.024,0.083,-0.015,0.068,-0.02
2.0,0.0,0.0,0.0,0.0,0.0,0.0,0.073,-0.024,0.083,-0.005,0.068,-0.01
2.002,0.0,0.0,0.0,0.0,0.0,0.0,0.068,-0.024,0.093,-0.005,0.078,0.0
2.004,0.005,0.01,0.005,-0.005,0.0,0.005,0.054,-0.034,0.093,-0.005,0.093,0.005
2.006,0.015,0.029,0.015,-0.02,0.0,0.02,0.044,-0.044,0.088,0.005,0.102,0.02
2.008,0.02,0.034,0.015,-0.024,0.0,0.024,0.024,-0.059,0.068,0.005,0.102,0.02
2.01,0.02,0.029,0.01,-0.024,0.005,0.02,-0.005,-0.088,0.049,-0.01,0.102,0.02
2.012,0.015,0.034,0.02,-0.024,-0.005,0.024,-0.02,-0.098,0.039,-0.024,0.102,0.02
2.014,0.024,0.039,0.015,-0.029,0.005,0.024,-0.029,-0.117,0.039,-0.024,0.093,0.02
2.016,0.034,0.039,0.005,-0.034,0.015,0.02,-0.024,-0.117,0.039,-0.02,0.093,0.02
2.018,0.044,0.039,-0.005,-0.039,0.024,0.015,-0.024,-0.112,0.039,-0.02,0.098,0.02
2.02,0.049,0.044,-0.005,-0.044,0.024,0.02,-0.015,-0.112,0.039,-0.024,0.098,0.02
2.022,0.049,0.044,-0.005,-0.044,0.024,0.02,-0.039,-0.117,0.015,-0.039,0.088,0.0
2.024,0.054,0.054,0.0,-0.054,0.024,0.024,-0.039,-0.122,0.0,-0.063,0.068,-0.01
2.026,0.059,0.044,-0.015,-0.049,0.034,0.015,-0.034,-0.127,0.0,-0.068,0.063,-0.01
2.028,0.059,0.029,-0.029,-0.044,0.044,0.0,-0.02,-0.122,0.0,-0.073,0.063,-0.01
2.03,0.039,0.02,-0.02,-0.029,0.029,0.0,-0.024,-0.122,-0.01,-0.073,0.054,-0.015
2.032,0.029,0.01,-0.02,-0.02,0.024,-0.005,-0.02,-0.122,-0.005,-0.073,0.054,-0.015
2.034,0.02,0.01,-0.01,-0.015,0.015,0.0,-0.015,-0.112,0.005,-0.073,0.054,-0.01
2.036,0.01,0.015,0.005,-0.01,0.0,0.01,-0.015,-0.112,-0.005,-0.078,0.054,-0.01
2.038,0.005,-0.005,-0.01,0.0,0.005,-0.01,-0.044,-0.137,-0.029,-0.107,0.039,-0.029
2.04,0.01,-0.015,-0.024,0.005,0.015,-0.02,-0.044,-0.161,-0.054,-0.127,0.015,-0.034
2.042,0.005,-0.034,-0.039,0.015,0.02,-0.039,-0.044,-0.181,-0.073,-0.156,0.0,-0.049
2.044,0.005,-0.044,-0.049,0.02,0.024,-0.049,-0.034,-0.19,-0.078,-0.161,-0.01,-0.059
2.046,0.01,-0.034,-0.044,0.015,0.024,-0.039,-0.024,-0.176,-0.073,-0.151,0.0,-0.049
2.048,0.0,-0.034,-0.034,0.02,0.015,-0.034,-0.005,-0.166,-0.068,-0.156,-0.01,-0.049
2.05,-0.01,-0.034,-0.024,0.024,0.005,-0.029,0.0,-0.156,-0.068,-0.171,-0.024,-0.059
2.052,-0.02,-0.049,-0.029,0.034,0.005,-0.039,0.01,-0.146,-0.068,-0.171,-0.029,-0.063
2.054,-0.02,-0.049,-0.029,0.034,0.005,-0.039,0.015,-0.156,-0.083,-0.181,-0.034,-0.073
2.056,-0.034,-0.029,0.005,0.034,-0.02,-0.015,0.015,-0.156,-0.088,-0.185,-0.039,-0.078
2.058,-0.044,-0.034,0.01,0.039,-0.029,-0.015,0.015,-0.166,-0.098,-0.2,-0.049,-0.088
2.06,-0.054,-0.044,0.01,0.049,-0.034,-0.02,0.01,-0.176,-0.102,-0.21,-0.059,-0.093
2.062,-0.068,-0.068,0.0,0.068,-0.034,-0.034,0.01,-0.176,-0.102,-0.205,-0.059,-0.102
2.064,-0.078,-0.083,-0.005,0.083,-0.039,-0.044,0.01,-0.176,-0.098,-0.205,-0.063,-0.112
2.066,-0.083,-0.093,-0.01,0.088,-0.039,-0.054,0.015,-0.171,-0.102,-0.21,-0.068,-0.122
2.068,-0.073,-0.098,-0.024,0.088,-0.024,-0.063,0.015,-0.171,-0.098,-0.215,-0.073,-0.127
2.07,-0.063,-0.093,-0.029,0.078,-0.02,-0.063,0.015,-0.171,-0.107,-0.229,-0.083,-0.137
2.072,-0.063,-0.068,-0.005,0.068,-0.029,-0.039,0.005,-0.176,-0.107,-0.234,-0.093,-0.137
2.074,-0.073,-0.088,-0.015,0.083,-0.029,-0.054,0.015,-0.176,-0.107,-0.234,-0.093,-0.137
2.076,-0.088,-0.083,0.005,0.088,-0.049,-0.039,0.015,-0.176,-0.112,-0.234,-0.093,-0.137
2.078,-0.098,-0.088,0.01,0.093,-0.054,-0.039,0.005,-0.19,-0.127,-0.239,-0.102,-0.146
2.08,-0.102,-0.102,0.0,0.102,-0.054,-0.054,0.0,-0.19,-0.127,-0.244,-0.102,-0.146
2.082,-0.112,-0.122,-0.01,0.117,-0.054,-0.068,0.0,-0.19,-0.127,-0.249,-0.102,-0.146
2.084,-0.122,-0.137,-0.015,0.132,-0.054,-0.078,-0.005,-0.181,-0.127,-0.249,-0.102,-0.146
2.086,-0.117,-0.127,-0.01,0.122,-0.054,-0.068,0.005,-0.19,-0.117,-0.244,-0.088,-0.137
2.088,-0.117,-0.137,-0.02,0.127,-0.049,-0.078,0.01,-0.195,-0.117,-0.249,-0.088,-0.132
2.09,-0.112,-0.132,-0.02,0.122,-0.049,-0.078,0.01,-0.195,-0.122,-0.244,-0.088,-0.132
2.092,-0.107,-0.117,-0.01,0.112,-0.049,-0.063,0.01,-0.195,-0.122,-0.239,-0.083,-0.132
2.094,-0.161,-0.142,0.02,0.151,-0.093,-0.063,0.01,-0.176,-0.117,-0.234,-0.078,-0.122
2.096,-0.171,-0.102,0.068,0.137,-0.122,-0.02,0.034,-0.176,-0.102,-0.224,-0.068,-0.112
2.098,-0.122,-0.044,0.078,0.083,-0.102,0.015,0.044,-0.176,-0.102,-0.224,-0.078,-0.122
2.1,-0.117,-0.078,0.039,0.098,-0.078,-0.02,0.049,-0.176,-0.088,-0.215,-0.078,-0.122
2.102,-0.142,-0.127,0.015,0.137,-0.078,-0.059,0.054,-0.166,-0.073,-0.22,-0.078,-0.146
2.104,-0.142,-0.122,0.02,0.132,-0.083,-0.054,0.068,-0.166,-0.068,-0.215,-0.088,-0.156
2.106,-0.137,-0.117,0.02,0.127,-0.078,-0.049,0.098,-0.137,-0.024,-0.185,-0.073,-0.156
2.108,-0.171,-0.127,0.044,0.151,-0.107,-0.044,0.132,-0.073,0.059,-0.142,-0.034,-0.142
2.11,-0.146,-0.102,0.044,0.127,-0.098,-0.029,0.146,-0.029,0.127,-0.083,0.0,-0.132
2.112,-0.093,-0.088,0.005,0.093,-0.049,-0.044,0.181,0.044,0.22,-0.015,0.044,-0.127
2.114,-0.088,-0.098,-0.01,0.093,-0.039,-0.054,0.254,0.181,0.346,0.068,0.088,-0.102
2.116,-0.044,-0.083,-0.039,0.063,-0.005,-0.063,0.327,0.381,0.493,0.176,0.151,-0.083
2.118,0.098,-0.024,-0.122,-0.034,0.107,-0.073,0.42,0.61,0.698,0.327,0.264,-0.01
2.12,0.224,-0.044,-0.268,-0.088,0.244,-0.156,0.498,0.8,0.927,0.547,0.439,0.102
2.122,0.376,-0.059,-0.434,-0.156,0.405,-0.249,0.493,0.893,1.142,0.805,0.678,0.268
2.124,0.551,0.0,-0.551,-0.273,0.551,-0.278,0.425,0.893,1.279,1.088,0.961,0.464
2.126,0.688,0.098,-0.59,-0.39,0.639,-0.249,0.317,0.786,1.352,1.391,1.283,0.703
2.128,0.795,0.215,-0.581,-0.503,0.688,-0.185,0.127,0.527,1.303,1.654,1.654,0.991
2.13,0.908,0.381,-0.527,-0.644,0.717,-0.073,-0.137,0.142,1.166,1.908,2.02,1.279
2.132,1.01,0.542,-0.468,-0.776,0.737,0.034,-0.381,-0.19,1.093,2.196,2.391,1.557
2.134,1.103,0.712,-0.39,-0.908,0.747,0.161,-0.576,-0.434,1.059,2.469,2.743,1.801
2.136,1.191,0.937,-0.254,-1.064,0.722,0.342,-0.761,-0.678,0.942,2.562,2.923,1.976
2.138,1.157,1.044,-0.112,-1.098,0.634,0.464,-0.908,-0.952,0.625,2.303,2.733,1.967
2.14,0.874,0.908,0.034,-0.888,0.42,0.468,-0.981,-1.23,0.098,1.62,2.128,1.713
2.142,0.517,0.732,0.215,-0.625,0.151,0.473,-1.0,-1.503,-0.488,0.781,1.322,1.322
2.144,0.307,0.644,0.337,-0.473,-0.015,0.488,-0.991,-1.649,-0.947,0.034,0.542,0.883
2.146,0.122,0.566,0.444,-0.342,-0.161,0.503,-0.952,-1.737,-1.332,-0.669,-0.161,0.468
2.148,-0.102,0.468,0.571,-0.181,-0.337,0.517,-0.922,-1.859,-1.723,-1.264,-0.586,0.2
2.15,-0.268,0.39,0.659,-0.059,-0.464,0.522,-0.956,-1.972,-1.957,-1.542,-0.732,0.073
2.152,-0.298,0.366,0.664,-0.034,-0.483,0.512,-1.0,-1.942,-1.913,-1.518,-0.727,0.01
2.154,-0.312,0.351,0.664,-0.02,-0.488,0.508,-0.971,-1.791,-1.698,-1.332,-0.659,-0.015
2.156,-0.307,0.303,0.61,0.005,-0.459,0.454,-0.878,-1.61,-1.493,-1.166,-0.605,-0.054
2.158,-0.288,0.205,0.493,0.044,-0.39,0.346,-0.742,-1.42,-1.298,-1.039,-0.571,-0.117
2.16,-0.288,0.102,0.39,0.093,-0.342,0.244,-0.586,-1.176,-1.064,-0.849,-0.483,-0.127
2.162,-0.229,0.137,0.366,0.049,-0.298,0.249,-0.478,-0.981,-0.834,-0.688,-0.39,-0.102
2.164,-0.122,0.215,0.337,-0.044,-0.229,0.273,-0.41,-0.859,-0.693,-0.571,-0.332,-0.112
2.166,-0.083,0.161,0.244,-0.039,-0.166,0.2,-0.307,-0.717,-0.537,-0.444,-0.259,-0.112
2.168,-0.098,-0.015,0.083,0.059,-0.093,0.034,-0.171,-0.542,-0.366,-0.298,-0.181,-0.093
2.17,-0.112,-0.073,0.039,0.093,-0.078,-0.02,-0.122,-0.449,-0.278,-0.239,-0.151,-0.112
2.172,-0.137,-0.054,0.083,0.098,-0.112,0.015,-0.107,-0.42,-0.259,-0.234,-0.171,-0.146
2.174,-0.156,-0.093,0.063,0.127,-0.112,-0.015,-0.059,-0.361,-0.21,-0.21,-0.171,-0.132
2.176,-0.161,-0.122,0.039,0.142,-0.102,-0.044,-0.005,-0.298,-0.151,-0.156,-0.132,-0.122
2.178,-0.19,-0.122,0.068,0.156,-0.132,-0.029,0.01,-0.283,-0.132,-0.142,-0.117,-0.122
2.18,-0.2,-0.122,0.078,0.161,-0.142,-0.024,0.015,-0.283,-0.122,-0.132,-0.117,-0.132
2.182,-0.181,-0.132,0.049,0.156,-0.117,-0.044,0.01,-0.288,-0.112,-0.127,-0.122,-0.151
2.184,-0.156,-0.132,0.024,0.146,-0.093,-0.054,0.01,-0.283,-0.107,-0.107,-0.112,-0.156
2.186,-0.142,-0.142,0.0,0.142,-0.073,-0.073,0.005,-0.268,-0.098,-0.107,-0.107,-0.161
2.188,-0.132,-0.161,-0.029,0.146,-0.054,-0.098,0.02,-0.259,-0.098,-0.117,-0.112,-0.166
2.19,-0.127,-0.137,-0.01,0.132,-0.059,-0.073,0.044,-0.254,-0.098,-0.117,-0.127,-0.185
2.192,-0.122,-0.132,-0.01,0.127,-0.059,-0.073,0.049,-0.249,-0.088,-0.122,-0.132,-0.171
2.194,-0.127,-0.146,-0.02,0.137,-0.054,-0.083,0.054,-0.244,-0.078,-0.132,-0.132,-0.171
2.196,-0.122,-0.142,-0.02,0.132,-0.054,-0.083,0.054,-0.249,-0.078,-0.127,-0.132,-0.171
2.198,-0.127,-0.132,-0.005,0.132,-0.063,-0.068,0.049,-0.259,-0.073,-0.107,-0.127,-0.161
2.2,-0.122,-0.132,-0.01,0.127,-0.059,-0.073,0.039,-0.259,-0.073,-0.088,-0.112,-0.161
2.202,-0.122,-0.127,-0.005,0.127,-0.059,-0.068,0.039,-0.259,-0.063,-0.073,-0.102,-0.161
2.204,-0.112,-0.112,0.0,0.112,-0.059,-0.059,0.044,-0.259,-0.063,-0.059,-0.088,-0.161
2.206,-0.098,-0.137,-0.039,0.117,-0.029,-0.088,0.049,-0.254,-0.063,-0.049,-0.083,-0.161
2.208,-0.098,-0.151,-0.054,0.127,-0.024,-0.102,0.044,-0.254,-0.059,-0.054,-0.083,-0.161
2.21,-0.098,-0.156,-0.059,0.127,-0.02,-0.107,0.039,-0.254,-0.059,-0.054,-0.083,-0.161
2.212,-0.102,-0.151,-0.049,0.127,-0.029,-0.102,0.044,-0.254,-0.059,-0.054,-0.083,-0.156
2.214,-0.093,-0.151,-0.059,0.122,-0.02,-0.107,0.049,-0.234,-0.044,-0.049,-0.083,-0.146
2.216,-0.102,-0.151,-0.049,0.127,-0.029,-0.102,0.063,-0.239,-0.044,-0.049,-0.093,-0.142
2.218,-0.088,-0.122,-0.034,0.107,-0.029,-0.078,0.059,-0.239,-0.044,-0.049,-0.093,-0.142
2.22,-0.088,-0.093,-0.005,0.093,-0.044,-0.049,0.063,-0.234,-0.039,-0.054,-0.088,-0.142
2.222,-0.088,-0.107,-0.02,0.098,-0.034,-0.063,0.054,-0.239,-0.029,-0.049,-0.078,-0.156
2.224,-0.088,-0.127,-0.039,0.107,-0.024,-0.083,0.054,-0.239,-0.024,-0.034,-0.068,-0.156
2.226,-0.083,-0.132,-0.049,0.107,-0.02,-0.093,0.059,-0.244,-0.015,-0.01,-0.054,-0.156
2.228,-0.073,-0.142,-0.068,0.107,-0.005,-0.107,0.068,-0.249,-0.015,0.005,-0.054,-0.151
2.23,-0.063,-0.127,-0.063,0.098,0.0,-0.098,0.068,-0.234,-0.01,0.005,-0.044,-0.142
2.232,-0.068,-0.112,-0.044,0.093,-0.015,-0.078,0.063,-0.229,-0.005,0.01,-0.044,-0.142
2.234,-0.068,-0.107,-0.039,0.088,-0.015,-0.073,0.059,-0.21,0.015,0.024,-0.044,-0.137
2.236,-0.068,-0.102,-0.034,0.088,-0.02,-0.068,0.049,-0.2,0.02,0.039,-0.044,-0.132
2.238,-0.088,-0.112,-0.024,0.102,-0.034,-0.068,0.049,-0.215,0.01,0.024,-0.044,-0.132
2.24,-0.098,-0.117,-0.02,0.107,-0.039,-0.068,0.054,-0.22,0.024,0.029,-0.034,-0.132
2.242,-0.107,-0.127,-0.02,0.117,-0.044,-0.073,0.059,-0.224,0.034,0.034,-0.024,-0.132
2.244,-0.107,-0.137,-0.029,0.122,-0.039,-0.083,0.063,-0.224,0.034,0.039,-0.02,-0.127
2.246,-0.098,-0.107,-0.01,0.102,-0.044,-0.059,0.063,-0.2,0.039,0.044,-0.01,-0.117
2.248,-0.088,-0.117,-0.029,0.102,-0.029,-0.073,0.068,-0.181,0.059,0.059,-0.005,-0.107
2.25,-0.078,-0.117,-0.039,0.098,-0.02,-0.078,0.068,-0.176,0.068,0.068,-0.005,-0.102
2.252,-0.059,-0.112,-0.054,0.088,-0.005,-0.083,0.078,-0.176,0.073,0.073,-0.015,-0.102
2.254,-0.063,-0.098,-0.034,0.083,-0.015,-0.068,0.068,-0.161,0.068,0.063,-0.01,-0.107
2.256,-0.059,-0.093,-0.034,0.078,-0.015,-0.063,0.063,-0.151,0.068,0.073,-0.015,-0.112
2.258,-0.054,-0.088,-0.034,0.073,-0.01,-0.063,0.049,-0.142,0.068,0.068,-0.015,-0.117
2.26,-0.049,-0.098,-0.049,0.073,0.0,-0.073,0.044,-0.137,0.063,0.059,-0.015,-0.122
2.262,-0.034,-0.102,-0.068,0.068,0.015,-0.088,0.049,-0.093,0.083,0.068,0.0,-0.112
2.264,-0.034,-0.102,-0.068,0.068,0.015,-0.088,0.049,-0.054,0.098,0.068,0.01,-0.107
2.266,-0.024,-0.117,-0.093,0.073,0.034,-0.107,0.054,0.0,0.117,0.083,0.024,-0.098
2.268,-0.02,-0.132,-0.112,0.078,0.044,-0.122,0.068,0.044,0.132,0.102,0.039,-0.098
2.27,-0.024,-0.122,-0.098,0.073,0.034,-0.112,0.068,0.083,0.137,0.112,0.054,-0.083
2.272,-0.024,-0.102,-0.078,0.063,0.024,-0.093,0.068,0.117,0.156,0.132,0.068,-0.078
2.274,-0.024,-0.112,-0.088,0.068,0.029,-0.102,0.068,0.146,0.161,0.132,0.078,-0.068
2.276,-0.01,-0.093,-0.083,0.054,0.034,-0.088,0.068,0.176,0.166,0.142,0.083,-0.068
2.278,0.01,-0.083,-0.093,0.039,0.049,-0.088,0.078,0.185,0.171,0.142,0.088,-0.068
2.28,0.02,-0.078,-0.098,0.029,0.059,-0.088,0.078,0.195,0.176,0.161,0.107,-0.049
2.282,0.024,-0.068,-0.093,0.024,0.059,-0.083,0.078,0.2,0.176,0.181,0.117,-0.049
2.284,0.044,-0.029,-0.073,-0.005,0.059,-0.054,0.073,0.2,0.176,0.185,0.132,-0.044
2.286,0.044,-0.044,-0.088,0.0,0.063,-0.068,0.059,0.215,0.19,0.176,0.142,-0.039
2.288,0.054,-0.049,-0.102,0.0,0.078,-0.078,0.059,0.229,0.205,0.19,0.151,-0.029
2.29,0.049,-0.054,-0.102,0.005,0.073,-0.078,0.059,0.234,0.22,0.2,0.166,-0.02
2.292,0.054,-0.059,-0.112,0.005,0.083,-0.088,0.059,0.244,0.234,0.22,0.176,-0.01
2.294,0.054,-0.068,-0.122,0.01,0.088,-0.098,0.054,0.268,0.229,0.215,0.176,0.005
2.296,0.044,-0.073,-0.117,0.015,0.078,-0.098,0.049,0.278,0.229,0.205,0.19,0.01
2.298,0.039,-0.068,-0.107,0.015,0.073,-0.088,0.029,0.283,0.234,0.205,0.2,0.01
2.3,0.029,-0.088,-0.117,0.029,0.073,-0.102,0.024,0.288,0.234,0.21,0.195,0.015
2.302,0.039,-0.073,-0.112,0.02,0.073,-0.093,0.02,0.278,0.239,0.215,0.195,0.01
2.304,0.049,-0.054,-0.102,0.005,0.073,-0.078,0.02,0.273,0.234,0.205,0.195,0.015
2.306,0.059,-0.034,-0.093,-0.01,0.073,-0.063,0.015,0.268,0.22,0.195,0.195,0.02
2.308,0.068,-0.02,-0.088,-0.024,0.078,-0.054,0.01,0.264,0.215,0.185,0.205,0.02
2.31,0.078,-0.005,-0.083,-0.034,0.078,-0.044,0.024,0.283,0.224,0.205,0.22,0.039
2.312,0.088,-0.005,-0.093,-0.039,0.088,-0.049,0.029,0.298,0.234,0.215,0.229,0.044
2.314,0.102,-0.005,-0.107,-0.049,0.102,-0.059,0.034,0.317,0.244,0.22,0.239,0.054
2.316,0.127,0.015,-0.112,-0.068,0.117,-0.049,0.034,0.317,0.249,0.22,0.249,0.059
2.318,0.117,0.024,-0.093,-0.068,0.102,-0.034,0.029,0.317,0.249,0.234,0.264,0.078
2.32,0.098,0.015,-0.083,-0.054,0.088,-0.034,0.029,0.317,0.259,0.229,0.278,0.078
2.322,0.078,0.0,-0.078,-0.039,0.078,-0.039,0.024,0.312,0.264,0.234,0.273,0.068
2.324,0.068,0.01,-0.059,-0.039,0.063,-0.024,0.02,0.303,0.264,0.234,0.264,0.068
2.326,0.068,-0.005,-0.073,-0.029,0.068,-0.039,0.015,0.303,0.259,0.22,0.254,0.063
2.328,0.068,-0.015,-0.083,-0.024,0.073,-0.049,0.015,0.312,0.254,0.215,0.249,0.063
2.33,0.073,-0.02,-0.093,-0.024,0.083,-0.059,0.01,0.303,0.239,0.195,0.229,0.059
2.332,0.073,-0.01,-0.083,-0.029,0.078,-0.049,-0.005,0.293,0.229,0.19,0.22,0.049
2.334,0.078,-0.02,-0.098,-0.029,0.088,-0.059,-0.005,0.298,0.224,0.171,0.205,0.034
2.336,0.083,-0.02,-0.102,-0.029,0.093,-0.063,-0.005,0.293,0.215,0.161,0.195,0.029
2.338,0.083,-0.024,-0.107,-0.029,0.093,-0.068,0.0,0.293,0.2,0.151,0.185,0.024
2.34,0.073,-0.029,-0.102,-0.02,0.088,-0.068,0.0,0.293,0.19,0.127,0.171,0.02
2.342,0.059,-0.039,-0.098,-0.01,0.078,-0.068,-0.015,0.273,0.185,0.122,0.181,0.029
2.344,0.054,-0.029,-0.083,-0.01,0.068,-0.059,-0.015,0.273,0.185,0.122,0.185,0.029
2.346,0.049,-0.029,-0.078,-0.01,0.063,-0.054,-0.015,0.288,0.185,0.122,0.185,0.029
2.348,0.044,-0.034,-0.078,-0.005,0.059,-0.059,-0.015,0.288,0.185,0.122,0.176,0.029
2.35,0.044,-0.034,-0.078,-0.005,0.059,-0.059,-0.01,0.298,0.181,0.112,0.181,0.024
2.352,0.044,-0.02,-0.063,-0.01,0.054,-0.044,-0.005,0.298,0.171,0.107,0.181,0.029
2.354,0.044,-0.015,-0.059,-0.015,0.049,-0.039,0.0,0.293,0.171,0.107,0.181,0.034
2.356,0.044,0.01,-0.034,-0.024,0.039,-0.015,0.005,0.283,0.171,0.098,0.181,0.039
2.358,0.039,0.01,-0.029,-0.024,0.034,-0.01,0.015,0.268,0.161,0.083,0.176,0.034
2.36,0.029,-0.005,-0.034,-0.01,0.029,-0.02,0.015,0.264,0.146,0.063,0.171,0.034
2.362,0.02,-0.02,-0.039,0.0,0.029,-0.029,0.015,0.264,0.132,0.044,0.166,0.029
2.364,0.02,-0.049,-0.068,0.015,0.044,-0.059,0.01,0.244,0.112,0.039,0.161,0.024
2.366,0.02,-0.034,-0.054,0.01,0.034,-0.044,0.0,0.239,0.107,0.034,0.146,0.02
2.368,0.02,-0.024,-0.044,0.005,0.029,-0.034,0.0,0.229,0.102,0.024,0.137,0.02
2.37,0.02,-0.01,-0.029,-0.005,0.024,-0.02,0.0,0.21,0.073,0.01,0.127,0.005
2.372,0.02,0.0,-0.02,-0.01,0.02,-0.01,0.0,0.2,0.054,-0.02,0.107,-0.005
2.374,0.015,-0.015,-0.029,0.0,0.02,-0.024,0.01,0.215,0.054,-0.029,0.102,0.005
2.376,0.02,-0.024,-0.044,0.005,0.029,-0.034,0.01,0.21,0.059,-0.039,0.107,0.0
2.378,0.015,-0.039,-0.054,0.015,0.034,-0.049,0.01,0.215,0.063,-0.063,0.098,-0.015
2.38,0.0,-0.068,-0.068,0.034,0.034,-0.068,0.01,0.22,0.063,-0.073,0.088,-0.02
2.382,-0.02,-0.049,-0.029,0.034,0.005,-0.039,0.005,0.21,0.044,-0.083,0.078,-0.029
2.384,-0.029,-0.034,-0.005,0.034,-0.015,-0.02,0.01,0.2,0.034,-0.093,0.068,-0.029
2.386,-0.034,-0.029,0.005,0.034,-0.02,-0.015,0.01,0.195,0.024,-0.107,0.059,-0.029
2.388,-0.039,-0.029,0.01,0.034,-0.024,-0.01,0.01,0.19,0.015,-0.122,0.049,-0.034
2.39,-0.054,-0.044,0.01,0.049,-0.034,-0.02,0.0,0.181,-0.005,-0.146,0.044,-0.039
2.392,-0.059,-0.049,0.01,0.054,-0.034,-0.02,0.0,0.181,-0.01,-0.151,0.034,-0.044
2.394,-0.059,-0.068,-0.01,0.063,-0.024,-0.039,0.005,0.176,-0.01,-0.151,0.034,-0.044
2.396,-0.059,-0.073,-0.015,0.068,-0.024,-0.044,0.005,0.176,-0.015,-0.156,0.029,-0.049
2.398,-0.054,-0.063,-0.01,0.059,-0.024,-0.039,-0.015,0.161,-0.01,-0.161,0.015,-0.059
2.4,-0.059,-0.063,-0.005,0.063,-0.029,-0.034,-0.02,0.161,-0.005,-0.161,0.015,-0.068
2.402,-0.054,-0.054,0.0,0.054,-0.029,-0.029,-0.024,0.161,0.0,-0.161,0.015,-0.068
2.404,-0.049,-0.024,0.024,0.039,-0.039,0.0,-0.039,0.156,-0.005,-0.171,0.005,-0.078
2.406,-0.039,-0.034,0.005,0.039,-0.024,-0.015,-0.024,0.161,-0.015,-0.176,0.015,-0.073
2.408,-0.034,-0.039,-0.005,0.039,-0.015,-0.024,-0.02,0.166,-0.01,-0.181,0.015,-0.063
2.41,-0.024,-0.054,-0.029,0.039,0.0,-0.044,0.0,0.176,-0.01,-0.185,0.02,-0.054
2.412,-0.01,-0.054,-0.044,0.034,0.015,-0.049,0.005,0.181,-0.01,-0.19,0.02,-0.049
2.414,-0.01,-0.059,-0.049,0.034,0.02,-0.054,0.0,0.176,-0.01,-0.2,0.005,-0.063
2.416,-0.015,-0.059,-0.044,0.039,0.015,-0.054,-0.005,0.171,-0.01,-0.21,-0.005,-0.068
2.418,-0.02,-0.054,-0.034,0.039,0.005,-0.044,-0.015,0.166,-0.015,-0.22,-0.005,-0.068
2.42,-0.029,-0.054,-0.024,0.044,-0.005,-0.039,-0.02,0.171,-0.015,-0.224,-0.005,-0.068
2.422,-0.039,-0.054,-0.015,0.049,-0.015,-0.034,-0.02,0.166,-0.024,-0.239,-0.01,-0.068
2.424,-0.049,-0.054,-0.005,0.054,-0.024,-0.029,-0.02,0.142,-0.029,-0.249,-0.024,-0.073
2.426,-0.059,-0.059,0.0,0.059,-0.029,-0.029,-0.029,0.137,-0.029,-0.254,-0.029,-0.073
2.428,-0.063,-0.078,-0.015,0.073,-0.024,-0.049,-0.029,0.142,-0.02,-0.254,-0.029,-0.073
2.43,-0.059,-0.063,-0.005,0.063,-0.029,-0.034,-0.039,0.142,-0.029,-0.278,-0.034,-0.073
2.432,-0.063,-0.059,0.005,0.063,-0.034,-0.029,-0.039,0.142,-0.029,-0.293,-0.039,-0.073
2.434,-0.073,-0.073,0.0,0.073,-0.039,-0.039,-0.039,0.146,-0.02,-0.307,-0.049,-0.073
2.436,-0.078,-0.068,0.01,0.073,-0.044,-0.029,-0.044,0.146,-0.029,-0.327,-0.059,-0.078
2.438,-0.078,-0.029,0.049,0.054,-0.063,0.01,-0.034,0.127,-0.044,-0.376,-0.068,-0.088
2.44,-0.078,-0.068,0.01,0.073,-0.044,-0.029,-0.01,0.146,-0.029,-0.371,-0.059,-0.068
2.442,-0.088,-0.073,0.015,0.083,-0.054,-0.029,-0.02,0.142,-0.039,-0.386,-0.059,-0.078
2.444,-0.088,-0.078,0.01,0.083,-0.049,-0.034,-0.02,0.137,-0.039,-0.39,-0.059,-0.078
2.446,-0.088,-0.083,0.005,0.088,-0.049,-0.039,-0.02,0.132,-0.039,-0.395,-0.059,-0.078
2.448,-0.088,-0.088,0.0,0.088,-0.044,-0.044,-0.02,0.127,-0.039,-0.4,-0.059,-0.078
2.45,-0.068,-0.059,0.01,0.063,-0.039,-0.024,-0.01,0.127,-0.044,-0.415,-0.054,-0.083
2.452,-0.054,-0.034,0.02,0.044,-0.039,-0.01,-0.01,0.132,-0.049,-0.42,-0.054,-0.078
2.454,-0.039,-0.015,0.024,0.029,-0.034,0.005,-0.01,0.132,-0.054,-0.429,-0.054,-0.078
2.456,-0.029,0.005,0.034,0.015,-0.034,0.02,-0.01,0.132,-0.059,-0.439,-0.059,-0.088
2.458,-0.029,-0.02,0.01,0.024,-0.02,-0.005,-0.005,0.142,-0.049,-0.444,-0.063,-0.088
2.46,-0.034,-0.029,0.005,0.034,-0.02,-0.015,-0.005,0.142,-0.049,-0.439,-0.063,-0.088
2.462,-0.034,-0.034,0.0,0.034,-0.02,-0.02,0.0,0.142,-0.039,-0.439,-0.054,-0.083
2.464,-0.024,-0.029,-0.005,0.029,-0.01,-0.02,0.0,0.146,-0.039,-0.434,-0.059,-0.078
2.466,-0.029,-0.034,-0.005,0.034,-0.015,-0.02,-0.005,0.132,-0.039,-0.454,-0.063,-0.078
2.468,-0.059,-0.044,0.015,0.054,-0.039,-0.015,-0.005,0.132,-0.034,-0.464,-0.063,-0.078
2.47,-0.073,-0.039,0.034,0.059,-0.054,-0.005,0.0,0.132,-0.034,-0.459,-0.063,-0.073
2.472,-0.078,-0.034,0.044,0.059,-0.063,0.005,0.0,0.127,-0.034,-0.468,-0.063,-0.073
2.474,-0.059,-0.024,0.034,0.044,-0.049,0.005,-0.01,0.127,-0.024,-0.493,-0.054,-0.068
2.476,-0.068,-0.039,0.029,0.054,-0.049,-0.005,-0.01,0.132,-0.02,-0.498,-0.049,-0.063
2.478,-0.063,-0.039,0.024,0.054,-0.044,-0.01,-0.01,0.137,-0.02,-0.503,-0.049,-0.059
2.48,-0.059,-0.039,0.02,0.049,-0.039,-0.01,-0.005,0.146,-0.015,-0.508,-0.044,-0.054
2.482,-0.034,-0.024,0.01,0.029,-0.024,-0.01,0.005,0.151,-0.005,-0.493,-0.029,-0.044
2.484,-0.034,-0.02,0.015,0.029,-0.024,-0.005,0.005,0.166,0.0,-0.493,-0.024,-0.039
2.486,-0.034,0.01,0.044,0.015,-0.039,0.024,0.015,0.176,0.01,-0.483,-0.02,-0.034
2.488,-0.029,0.015,0.044,0.01,-0.039,0.029,0.015,0.185,0.01,-0.478,-0.015,-0.029
2.49,-0.02,0.02,0.039,0.0,-0.029,0.029,0.005,0.185,0.024,-0.488,-0.024,-0.039
2.492,-0.01,0.015,0.024,0.0,-0.02,0.02,0.005,0.185,0.034,-0.493,-0.024,-0.039
2.494,-0.005,0.015,0.02,-0.005,-0.015,0.015,0.005,0.185,0.044,-0.483,-0.02,-0.039
2.496,0.005,0.015,0.01,-0.01,-0.005,0.01,0.005,0.185,0.054,-0.483,-0.015,-0.034
2.498,0.0,0.015,0.015,-0.005,-0.01,0.015,0.0,0.181,0.049,-0.488,-0.005,-0.024
2.5,0.01,0.024,0.015,-0.015,-0.005,0.02,0.0,0.176,0.044,-0.498,0.0,-0.024
2.502,0.01,0.01,0.0,-0.01,0.005,0.005,0.0,0.171,0.044,-0.503,0.005,-0.024
2.504,0.01,0.005,-0.005,-0.005,0.005,0.0,0.01,0.181,0.054,-0.498,0.01,-0.015
2.506,0.024,0.005,-0.02,-0.015,0.02,-0.01,0.005,0.19,0.059,-0.493,0.005,-0.015
2.508,0.029,0.01,-0.02,-0.02,0.024,-0.005,-0.005,0.19,0.054,-0.483,0.0,-0.01
2.51,0.039,0.015,-0.024,-0.024,0.029,-0.005,-0.015,0.19,0.059,-0.483,0.005,-0.005
2.512,0.054,0.029,-0.024,-0.039,0.039,0.0,-0.034,0.181,0.054,-0.483,0.015,-0.005
2.514,0.049,0.024,-0.024,-0.034,0.034,0.0,-0.054,0.146,0.044,-0.483,0.005,0.01
2.516,0.039,0.015,-0.024,-0.024,0.029,-0.005,-0.073,0.117,0.02,-0.493,0.005,0.01
2.518,0.024,-0.005,-0.029,-0.01,0.024,-0.02,-0.102,0.073,-0.005,-0.517,0.005,0.01
2.52,0.005,-0.015,-0.02,0.005,0.01,-0.02,-0.117,0.049,-0.02,-0.542,0.005,0.01
2.522,0.015,-0.02,-0.034,0.005,0.024,-0.029,-0.117,0.044,-0.01,-0.532,-0.005,0.0
2.524,0.024,-0.02,-0.044,0.0,0.034,-0.034,-0.112,0.049,-0.01,-0.527,-0.005,0.0
2.526,0.034,-0.02,-0.054,-0.005,0.044,-0.039,-0.112,0.059,-0.01,-0.527,0.0,0.0
2.528,0.039,-0.015,-0.054,-0.01,0.044,-0.034,-0.102,0.063,-0.01,-0.532,0.0,0.0
2.53,0.029,0.005,-0.024,-0.015,0.024,-0.01,-0.107,0.068,-0.015,-0.542,0.0,-0.005
2.532,0.034,0.024,-0.01,-0.029,0.02,0.005,-0.107,0.073,-0.029,-0.561,-0.02,-0.01
2.534,0.039,0.024,-0.015,-0.029,0.024,0.005,-0.102,0.078,-0.029,-0.561,-0.024,-0.005
2.536,0.039,0.02,-0.02,-0.029,0.029,0.0,-0.088,0.093,-0.029,-0.561,-0.024,0.0
2.538,0.029,0.015,-0.015,-0.02,0.02,0.0,-0.093,0.088,-0.039,-0.571,-0.034,-0.01
2.54,0.029,0.0,-0.029,-0.015,0.029,-0.015,-0.088,0.083,-0.034,-0.571,-0.034,-0.015
2.542,0.029,-0.005,-0.034,-0.01,0.029,-0.02,-0.083,0.088,-0.024,-0.571,-0.034,-0.015
2.544,0.029,-0.005,-0.034,-0.01,0.029,-0.02,-0.083,0.083,-0.034,-0.576,-0.034,-0.02
2.546,0.0,-0.015,-0.015,0.01,0.005,-0.015,-0.098,0.059,-0.054,-0.6,-0.034,-0.02
2.548,-0.01,-0.024,-0.015,0.02,0.0,-0.02,-0.093,0.044,-0.073,-0.615,-0.054,-0.024
2.55,-0.029,-0.044,-0.015,0.039,-0.01,-0.029,-0.088,0.034,-0.088,-0.639,-0.063,-0.039
2.552,-0.044,-0.054,-0.01,0.049,-0.02,-0.034,-0.073,0.034,-0.088,-0.639,-0.068,-0.049
2.554,-0.034,-0.059,-0.024,0.049,-0.005,-0.044,-0.068,0.039,-0.078,-0.634,-0.063,-0.049
2.556,-0.039,-0.063,-0.024,0.054,-0.01,-0.044,-0.054,0.039,-0.078,-0.634,-0.068,-0.049
2.558,-0.044,-0.068,-0.024,0.059,-0.01,-0.049,-0.054,0.039,-0.083,-0.644,-0.078,-0.059
2.56,-0.049,-0.088,-0.039,0.068,-0.005,-0.063,-0.049,0.039,-0.088,-0.639,-0.078,-0.063
2.562,-0.039,-0.112,-0.073,0.078,0.015,-0.093,-0.044,0.039,-0.083,-0.654,-0.102,-0.073
2.564,-0.054,-0.098,-0.044,0.078,-0.005,-0.073,-0.044,0.039,-0.088,-0.664,-0.107,-0.078
2.566,-0.063,-0.107,-0.044,0.088,-0.01,-0.078,-0.044,0.029,-0.098,-0.683,-0.117,-0.088
2.568,-0.073,-0.122,-0.049,0.098,-0.015,-0.088,-0.049,0.02,-0.102,-0.698,-0.127,-0.093
2.57,-0.083,-0.122,-0.039,0.102,-0.024,-0.083,-0.054,0.02,-0.098,-0.693,-0.137,-0.112
2.572,-0.088,-0.122,-0.034,0.107,-0.029,-0.078,-0.059,0.02,-0.098,-0.693,-0.142,-0.122
2.574,-0.088,-0.117,-0.029,0.102,-0.029,-0.073,-0.059,0.024,-0.107,-0.698,-0.146,-0.132
2.576,-0.073,-0.107,-0.034,0.093,-0.02,-0.073,-0.063,0.024,-0.107,-0.703,-0.151,-0.137
2.578,-0.068,-0.102,-0.034,0.088,-0.02,-0.068,-0.059,0.015,-0.117,-0.722,-0.161,-0.146
2.58,-0.063,-0.078,-0.015,0.073,-0.024,-0.049,-0.063,0.01,-0.117,-0.732,-0.171,-0.146
2.582,-0.068,-0.098,-0.029,0.083,-0.02,-0.063,-0.049,0.01,-0.117,-0.737,-0.171,-0.146
2.584,-0.078,-0.093,-0.015,0.088,-0.034,-0.054,-0.044,0.01,-0.122,-0.742,-0.171,-0.146
2.586,-0.083,-0.098,-0.015,0.093,-0.034,-0.059,-0.039,-0.005,-0.127,-0.756,-0.171,-0.137
2.588,-0.083,-0.102,-0.02,0.093,-0.034,-0.063,-0.039,-0.005,-0.127,-0.761,-0.171,-0.137
2.59,-0.088,-0.112,-0.024,0.102,-0.034,-0.068,-0.034,-0.005,-0.127,-0.766,-0.171,-0.137
2.592,-0.093,-0.117,-0.024,0.107,-0.034,-0.073,-0.034,0.005,-0.127,-0.766,-0.171,-0.137
2.594,-0.098,-0.137,-0.039,0.117,-0.029,-0.088,-0.024,0.005,-0.137,-0.752,-0.161,-0.132
2.596,-0.107,-0.156,-0.049,0.132,-0.029,-0.102,-0.02,0.0,-0.137,-0.756,-0.156,-0.122
2.598,-0.112,-0.161,-0.049,0.137,-0.034,-0.107,-0.02,0.0,-0.142,-0.752,-0.151,-0.117
2.6,-0.117,-0.156,-0.039,0.137,-0.039,-0.098,-0.02,0.0,-0.142,-0.747,-0.142,-0.112
2.602,-0.112,-0.142,-0.029,0.127,-0.044,-0.088,-0.01,0.01,-0.117,-0.742,-0.146,-0.112
2.604,-0.083,-0.122,-0.039,0.102,-0.024,-0.083,-0.015,-0.01,-0.122,-0.752,-0.156,-0.122
2.606,-0.083,-0.132,-0.049,0.107,-0.02,-0.093,-0.024,-0.029,-0.132,-0.781,-0.176,-0.142
2.608,-0.156,-0.166,-0.01,0.161,-0.073,-0.088,-0.039,-0.029,-0.127,-0.8,-0.195,-0.171
2.61,-0.181,-0.156,0.024,0.171,-0.102,-0.068,-0.024,-0.01,-0.112,-0.805,-0.195,-0.185
2.612,-0.151,-0.142,0.01,0.146,-0.083,-0.068,0.02,0.029,-0.068,-0.771,-0.166,-0.166
2.614,-0.127,-0.146,-0.02,0.137,-0.054,-0.083,0.049,0.088,-0.005,-0.703,-0.122,-0.137
2.616,-0.093,-0.127,-0.034,0.112,-0.029,-0.083,0.083,0.142,0.088,-0.639,-0.073,-0.132
2.618,-0.068,-0.083,-0.015,0.078,-0.029,-0.049,0.137,0.215,0.185,-0.561,-0.02,-0.122
2.62,-0.083,-0.107,-0.024,0.098,-0.029,-0.068,0.19,0.307,0.298,-0.464,0.044,-0.088
2.622,-0.039,-0.137,-0.098,0.088,0.029,-0.117,0.264,0.454,0.444,-0.371,0.107,-0.054
2.624,0.093,-0.083,-0.176,-0.005,0.132,-0.132,0.337,0.644,0.63,-0.254,0.181,-0.015
2.626,0.224,-0.044,-0.268,-0.088,0.244,-0.156,0.4,0.864,0.874,-0.044,0.332,0.088
2.628,0.312,-0.102,-0.415,-0.102,0.361,-0.259,0.429,1.025,1.122,0.224,0.576,0.249
2.63,0.454,-0.088,-0.542,-0.181,0.498,-0.317,0.395,1.069,1.288,0.493,0.854,0.444
2.632,0.6,0.029,-0.571,-0.312,0.586,-0.273,0.307,1.01,1.366,0.737,1.147,0.659
2.634,0.708,0.166,-0.542,-0.434,0.625,-0.19,0.151,0.844,1.332,0.961,1.488,0.927
2.636,0.825,0.322,-0.503,-0.571,0.664,-0.093,-0.059,0.527,1.186,1.147,1.85,1.205
2.638,0.927,0.517,-0.41,-0.722,0.669,0.054,-0.293,0.161,1.03,1.342,2.216,1.484
2.64,1.02,0.737,-0.283,-0.878,0.649,0.224,-0.488,-0.112,0.966,1.581,2.586,1.752
2.642,1.093,0.937,-0.156,-1.015,0.625,0.39,-0.654,-0.327,0.883,1.747,2.86,1.976
2.644,1.054,1.005,-0.049,-1.03,0.551,0.478,-0.8,-0.581,0.649,1.615,2.816,2.015
2.646,0.834,0.947,0.112,-0.888,0.361,0.527,-0.869,-0.825,0.224,1.103,2.323,1.801
2.648,0.532,0.839,0.307,-0.683,0.112,0.571,-0.883,-1.044,-0.293,0.371,1.562,1.401
2.65,0.283,0.683,0.4,-0.483,-0.059,0.542,-0.883,-1.191,-0.712,-0.303,0.805,0.971
2.652,0.063,0.517,0.454,-0.288,-0.195,0.483,-0.825,-1.24,-1.044,-0.932,0.093,0.522
2.654,-0.171,0.449,0.62,-0.137,-0.395,0.532,-0.776,-1.308,-1.41,-1.576,-0.483,0.176
2.656,-0.317,0.439,0.756,-0.059,-0.537,0.595,-0.786,-1.43,-1.752,-2.084,-0.8,-0.015
2.658,-0.376,0.39,0.766,-0.005,-0.571,0.576,-0.791,-1.484,-1.879,-2.255,-0.888,-0.093
2.66,-0.346,0.317,0.664,0.015,-0.508,0.488,-0.805,-1.435,-1.747,-2.152,-0.844,-0.117
2.662,-0.361,0.224,0.586,0.068,-0.473,0.405,-0.815,-1.342,-1.581,-1.996,-0.786,-0.151
2.664,-0.405,0.166,0.571,0.122,-0.488,0.366,-0.781,-1.24,-1.454,-1.918,-0.781,-0.22
2.666,-0.376,0.107,0.483,0.137,-0.429,0.293,-0.683,-1.059,-1.269,-1.791,-0.727,-0.234
2.668,-0.298,0.063,0.361,0.117,-0.332,0.21,-0.566,-0.854,-1.035,-1.62,-0.63,-0.205
2.67,-0.249,0.068,0.317,0.093,-0.283,0.19,-0.508,-0.708,-0.854,-1.479,-0.547,-0.2
2.672,-0.22,0.068,0.288,0.078,-0.254,0.176,-0.4,-0.537,-0.673,-1.332,-0.449,-0.181
2.674,-0.19,0.034,0.224,0.078,-0.21,0.127,-0.249,-0.327,-0.449,-1.147,-0.327,-0.151
2.676,-0.146,0.005,0.151,0.073,-0.151,0.078,-0.142,-0.181,-0.317,-1.03,-0.259,-0.132
2.678,-0.122,-0.005,0.117,0.063,-0.122,0.054,-0.093,-0.127,-0.278,-1.01,-0.268,-0.161
2.68,-0.107,-0.034,0.073,0.073,-0.093,0.02,-0.049,-0.088,-0.249,-1.005,-0.268,-0.156
2.682,-0.127,-0.054,0.073,0.093,-0.102,0.01,-0.01,-0.059,-0.21,-1.0,-0.268,-0.151
2.684,-0.112,-0.063,0.049,0.088,-0.083,-0.01,-0.015,-0.073,-0.21,-1.005,-0.278,-0.161
2.686,-0.083,-0.073,0.01,0.078,-0.049,-0.034,-0.02,-0.078,-0.2,-0.991,-0.264,-0.171
2.688,-0.093,-0.093,0.0,0.093,-0.049,-0.049,-0.015,-0.068,-0.181,-0.971,-0.244,-0.171
2.69,-0.102,-0.102,0.0,0.102,-0.054,-0.054,-0.005,-0.054,-0.171,-0.956,-0.234,-0.185
2.692,-0.098,-0.102,-0.005,0.102,-0.049,-0.054,0.0,-0.039,-0.156,-0.927,-0.22,-0.185
2.694,-0.102,-0.112,-0.01,0.107,-0.049,-0.063,0.0,-0.015,-0.137,-0.917,-0.21,-0.185
2.696,-0.112,-0.132,-0.02,0.122,-0.049,-0.078,0.02,0.005,-0.127,-0.917,-0.21,-0.185
2.698,-0.117,-0.132,-0.015,0.127,-0.054,-0.073,0.044,0.024,-0.107,-0.908,-0.21,-0.185
2.7,-0.122,-0.142,-0.02,0.132,-0.054,-0.083,0.049,0.034,-0.098,-0.913,-0.21,-0.161
2.702,-0.137,-0.171,-0.034,0.156,-0.054,-0.102,0.054,0.044,-0.088,-0.922,-0.205,-0.151
2.704,-0.142,-0.181,-0.039,0.161,-0.054,-0.112,0.054,0.044,-0.088,-0.917,-0.2,-0.142
2.706,-0.117,-0.171,-0.054,0.146,-0.034,-0.112,0.049,0.039,-0.102,-0.927,-0.21,-0.146
2.708,-0.102,-0.161,-0.059,0.132,-0.024,-0.112,0.039,0.034,-0.102,-0.917,-0.2,-0.151
2.71,-0.093,-0.146,-0.054,0.122,-0.02,-0.102,0.039,0.029,-0.093,-0.913,-0.195,-0.156
2.712,-0.073,-0.122,-0.049,0.098,-0.015,-0.088,0.044,0.024,-0.093,-0.908,-0.185,-0.161
2.714,-0.078,-0.132,-0.054,0.107,-0.015,-0.093,0.063,0.049,-0.078,-0.888,-0.171,-0.156
2.716,-0.088,-0.142,-0.054,0.117,-0.02,-0.098,0.063,0.059,-0.068,-0.893,-0.171,-0.151
2.718,-0.098,-0.142,-0.044,0.122,-0.029,-0.093,0.063,0.068,-0.063,-0.893,-0.171,-0.146
2.72,-0.112,-0.132,-0.02,0.122,-0.049,-0.078,0.073,0.078,-0.059,-0.893,-0.171,-0.137
2.722,-0.098,-0.142,-0.044,0.122,-0.029,-0.093,0.059,0.088,-0.054,-0.893,-0.151,-0.137
2.724,-0.102,-0.151,-0.049,0.127,-0.029,-0.102,0.063,0.073,-0.054,-0.898,-0.161,-0.132
2.726,-0.083,-0.132,-0.049,0.107,-0.02,-0.093,0.049,0.063,-0.054,-0.903,-0.161,-0.132
2.728,-0.078,-0.112,-0.034,0.098,-0.024,-0.073,0.044,0.059,-0.049,-0.913,-0.156,-0.132
2.73,-0.083,-0.127,-0.044,0.107,-0.02,-0.088,0.044,0.078,-0.039,-0.917,-0.146,-0.127
2.732,-0.088,-0.146,-0.059,0.117,-0.015,-0.102,0.044,0.083,-0.024,-0.913,-0.137,-0.127
2.734,-0.088,-0.151,-0.063,0.122,-0.015,-0.107,0.049,0.083,-0.005,-0.898,-0.122,-0.127
2.736,-0.083,-0.161,-0.078,0.122,-0.005,-0.122,0.059,0.083,0.005,-0.893,-0.122,-0.122
2.738,-0.073,-0.146,-0.073,0.112,0.0,-0.112,0.073,0.093,0.0,-0.903,-0.127,-0.132
2.74,-0.078,-0.132,-0.054,0.107,-0.015,-0.093,0.073,0.093,-0.005,-0.908,-0.132,-0.132
2.742,-0.078,-0.127,-0.049,0.102,-0.015,-0.088,0.073,0.107,0.005,-0.903,-0.137,-0.127
2.744,-0.078,-0.122,-0.044,0.102,-0.02,-0.083,0.068,0.112,0.0,-0.898,-0.142,-0.122
2.746,-0.078,-0.122,-0.044,0.102,-0.02,-0.083,0.054,0.102,-0.01,-0.913,-0.146,-0.127
2.748,-0.078,-0.117,-0.039,0.098,-0.02,-0.078,0.054,0.093,-0.005,-0.917,-0.142,-0.132
2.75,-0.078,-0.117,-0.039,0.098,-0.02,-0.078,0.054,0.083,-0.005,-0.922,-0.137,-0.137
2.752,-0.068,-0.117,-0.049,0.093,-0.01,-0.083,0.054,0.078,-0.015,-0.927,-0.137,-0.137
2.754,-0.054,-0.112,-0.059,0.083,0.0,-0.088,0.063,0.083,-0.01,-0.932,-0.117,-0.137
2.756,-0.049,-0.127,-0.078,0.088,0.015,-0.102,0.068,0.102,0.01,-0.927,-0.112,-0.127
2.758,-0.044,-0.132,-0.088,0.088,0.02,-0.112,0.068,0.107,0.02,-0.927,-0.112,-0.122
2.76,-0.029,-0.132,-0.102,0.083,0.034,-0.117,0.078,0.107,0.024,-0.932,-0.122,-0.122
2.762,-0.059,-0.122,-0.063,0.093,0.0,-0.093,0.078,0.117,0.034,-0.942,-0.107,-0.112
2.764,-0.068,-0.122,-0.054,0.098,-0.01,-0.088,0.073,0.122,0.039,-0.922,-0.102,-0.112
2.766,-0.078,-0.122,-0.044,0.102,-0.02,-0.083,0.059,0.127,0.044,-0.917,-0.093,-0.112
2.768,-0.088,-0.137,-0.049,0.112,-0.02,-0.093,0.054,0.127,0.044,-0.917,-0.083,-0.112
2.77,-0.073,-0.151,-0.078,0.112,0.0,-0.117,0.063,0.142,0.059,-0.913,-0.059,-0.107
2.772,-0.063,-0.151,-0.088,0.107,0.01,-0.122,0.059,0.142,0.068,-0.917,-0.049,-0.098
2.774,-0.044,-0.166,-0.122,0.107,0.039,-0.146,0.059,0.156,0.083,-0.908,-0.034,-0.083
2.776,-0.029,-0.181,-0.151,0.107,0.059,-0.166,0.068,0.161,0.093,-0.893,-0.02,-0.078
2.778,-0.015,-0.156,-0.142,0.088,0.063,-0.151,0.078,0.171,0.093,-0.883,-0.024,-0.073
2.78,-0.005,-0.122,-0.117,0.063,0.054,-0.122,0.078,0.176,0.117,-0.864,-0.01,-0.068
2.782,0.005,-0.117,-0.122,0.059,0.063,-0.122,0.078,0.176,0.127,-0.864,0.0,-0.059
2.784,0.029,-0.083,-0.112,0.029,0.068,-0.098,0.078,0.176,0.137,-0.854,0.005,-0.059
2.786,0.024,-0.073,-0.098,0.024,0.059,-0.088,0.078,0.185,0.156,-0.849,0.01,-0.049
2.788,0.029,-0.068,-0.098,0.02,0.063,-0.083,0.078,0.195,0.166,-0.834,0.029,-0.029
2.79,0.029,-0.059,-0.088,0.015,0.059,-0.073,0.078,0.2,0.171,-0.82,0.039,-0.029
2.792,0.044,-0.02,-0.063,-0.01,0.054,-0.044,0.073,0.2,0.176,-0.82,0.054,-0.024
2.794,0.039,-0.029,-0.068,-0.005,0.054,-0.049,0.059,0.2,0.176,-0.825,0.063,-0.02
2.796,0.044,-0.039,-0.083,0.0,0.063,-0.063,0.059,0.21,0.185,-0.815,0.073,-0.01
2.798,0.034,-0.049,-0.083,0.01,0.059,-0.068,0.059,0.21,0.195,-0.81,0.088,0.0
2.8,0.034,-0.059,-0.093,0.015,0.063,-0.078,0.059,0.215,0.205,-0.795,0.098,0.01
2.802,0.049,-0.068,-0.117,0.01,0.083,-0.093,0.068,0.215,0.22,-0.781,0.102,0.024
2.804,0.054,-0.073,-0.127,0.01,0.088,-0.102,0.068,0.22,0.22,-0.781,0.122,0.029
2.806,0.063,-0.068,-0.132,0.005,0.098,-0.102,0.054,0.22,0.224,-0.771,0.137,0.029
2.808,0.068,-0.088,-0.156,0.01,0.112,-0.122,0.054,0.22,0.224,-0.756,0.137,0.034
2.81,0.068,-0.068,-0.137,0.0,0.102,-0.102,0.059,0.22,0.229,-0.752,0.137,0.039
2.812,0.068,-0.054,-0.122,-0.005,0.093,-0.088,0.059,0.215,0.224,-0.761,0.137,0.044
2.814,0.068,-0.039,-0.107,-0.015,0.088,-0.073,0.054,0.21,0.21,-0.771,0.137,0.049
2.816,0.068,-0.029,-0.098,-0.02,0.083,-0.063,0.049,0.205,0.205,-0.781,0.146,0.049
2.818,0.059,-0.015,-0.073,-0.02,0.063,-0.044,0.049,0.215,0.215,-0.776,0.151,0.063
2.82,0.059,-0.015,-0.073,-0.02,0.063,-0.044,0.049,0.21,0.215,-0.781,0.151,0.063
2.822,0.063,-0.015,-0.078,-0.024,0.068,-0.049,0.049,0.21,0.215,-0.791,0.151,0.068
2.824,0.078,0.005,-0.073,-0.039,0.073,-0.034,0.044,0.19,0.21,-0.805,0.151,0.068
2.826,0.088,0.005,-0.083,-0.044,0.083,-0.039,0.029,0.181,0.21,-0.805,0.142,0.068
2.828,0.088,-0.005,-0.093,-0.039,0.088,-0.049,0.029,0.181,0.21,-0.815,0.151,0.068
2.83,0.088,-0.02,-0.107,-0.034,0.098,-0.063,0.024,0.176,0.205,-0.815,0.142,0.059
2.832,0.098,-0.01,-0.107,-0.044,0.102,-0.059,0.02,0.166,0.195,-0.82,0.127,0.059
2.834,0.088,-0.01,-0.098,-0.039,0.093,-0.054,0.01,0.176,0.19,-0.83,0.117,0.059
2.836,0.078,-0.015,-0.093,-0.029,0.083,-0.054,0.015,0.185,0.185,-0.839,0.112,0.054
2.838,0.073,-0.015,-0.088,-0.029,0.078,-0.054,0.015,0.176,0.171,-0.864,0.093,0.044
2.84,0.063,0.0,-0.063,-0.029,0.063,-0.034,0.005,0.166,0.161,-0.874,0.083,0.029
2.842,0.063,-0.01,-0.073,-0.024,0.068,-0.044,0.01,0.161,0.151,-0.883,0.078,0.029
2.844,0.063,-0.01,-0.073,-0.024,0.068,-0.044,0.015,0.146,0.137,-0.893,0.078,0.029
2.846,0.059,-0.015,-0.073,-0.02,0.063,-0.044,0.024,0.137,0.117,-0.903,0.078,0.029
2.848,0.044,-0.02,-0.063,-0.01,0.054,-0.044,0.029,0.127,0.102,-0.927,0.073,0.029
2.85,0.034,-0.029,-0.063,0.0,0.049,-0.049,0.015,0.127,0.107,-0.937,0.083,0.039
2.852,0.034,-0.029,-0.063,0.0,0.049,-0.049,0.015,0.127,0.117,-0.932,0.088,0.039
2.854,0.034,-0.039,-0.073,0.005,0.054,-0.059,0.015,0.142,0.127,-0.927,0.088,0.039
2.856,0.034,-0.054,-0.088,0.01,0.059,-0.073,0.015,0.142,0.137,-0.922,0.078,0.039
2.858,0.029,-0.044,-0.073,0.01,0.049,-0.059,0.015,0.127,0.122,-0.937,0.078,0.02
2.86,0.034,-0.029,-0.063,0.0,0.049,-0.049,0.015,0.122,0.112,-0.947,0.073,0.02
2.862,0.039,-0.024,-0.063,-0.005,0.049,-0.044,0.015,0.112,0.112,-0.952,0.068,0.02
2.864,0.044,0.0,-0.044,-0.02,0.044,-0.024,0.015,0.098,0.112,-0.966,0.063,0.02
2.866,0.049,-0.005,-0.054,-0.02,0.049,-0.029,0.024,0.098,0.117,-0.976,0.049,0.005
2.868,0.039,-0.015,-0.054,-0.01,0.044,-0.034,0.024,0.098,0.107,-0.991,0.044,0.005
2.87,0.029,-0.024,-0.054,0.0,0.039,-0.039,0.024,0.102,0.098,-1.005,0.039,0.0
2.872,0.029,-0.049,-0.078,0.01,0.054,-0.063,0.02,0.088,0.083,-1.005,0.034,-0.005
2.874,0.01,-0.039,-0.049,0.015,0.029,-0.044,0.02,0.098,0.083,-1.0,0.034,0.0
2.876,0.0,-0.034,-0.034,0.02,0.015,-0.034,0.02,0.093,0.083,-1.01,0.029,0.0
2.878,-0.01,-0.024,-0.015,0.02,0.0,-0.02,0.02,0.078,0.059,-1.025,0.024,-0.015
2.88,-0.02,-0.02,0.0,0.02,-0.01,-0.01,0.02,0.073,0.044,-1.054,0.01,-0.024
2.882,-0.029,-0.02,0.01,0.024,-0.02,-0.005,0.034,0.063,0.024,-1.078,0.0,-0.024
2.884,-0.02,-0.015,0.005,0.02,-0.015,-0.005,0.039,0.054,0.02,-1.093,0.0,-0.029
2.886,-0.02,-0.015,0.005,0.02,-0.015,-0.005,0.044,0.054,0.015,-1.122,-0.015,-0.044
2.888,-0.029,-0.029,0.0,0.029,-0.015,-0.015,0.049,0.054,0.005,-1.137,-0.029,-0.049
2.89,-0.029,-0.024,0.005,0.029,-0.02,-0.01,0.049,0.039,0.01,-1.137,-0.024,-0.049
2.892,-0.039,-0.024,0.015,0.034,-0.029,-0.005,0.049,0.034,0.005,-1.137,-0.029,-0.049
