time,I,II,III,aVR,aVL,aVF,V1,V2,V3,V4,V5,V6
0.0,-0.0008556452068501026,-0.0011847395171770653,-0.0003290943103269626,0.0010750414137347445,-0.0003290943103269626,-0.0007459471034077819,0.002457237517107987,0.0008556452068501026,0.0008556452068501026,0.00278633182743495,-0.00043879241376928345,-0.000636248999965461
0.002,-0.005757563852393685,-0.008056394644423811,-0.002298830792030126,0.007290117713747103,-0.0021891326885878047,-0.005100985025159298,0.017383999454042915,0.00641575247304761,0.00641575247304761,0.019792528349515358,-0.0028457115158221926,-0.004334708094482589
0.004,-0.017433145742723435,-0.024752960537393523,-0.007319814794670093,0.02223989020354195,-0.006443839760551064,-0.015796050442990886,0.05525839371907846,0.021811411119899038,0.021811411119899038,0.06334448544442527,-0.008080935060283612,-0.013173282005696984
0.006,-0.03195371623647661,-0.04635694658680782,-0.014403230350331217,0.041096210964519354,-0.011145822706491396,-0.029950388258027965,0.105317487829109,0.04525824855065954,0.045148550447217224,0.12234348661673414,-0.013039452581497715,-0.02370397949817815
0.008,-0.040858242752111106,-0.06116918305174455,-0.020310940299633436,0.053103024917636604,-0.012865906695136455,-0.04034681632594248,0.1372932768171707,0.06639083481199234,0.06573425598475796,0.16396032398009627,-0.012391659983743735,-0.02825697361731801
0.01,-0.04076134632615672,-0.063694322087057,-0.022911036140211817,0.05383960846624605,-0.011093403332783828,-0.04340278396069663,0.13715390404051897,0.07814420119089958,0.0763974077877247,0.17283330133727806,-0.004735435813365892,-0.02339250981534094
0.012,-0.03548404775034378,-0.058545101220869346,-0.02290779808439024,0.04823685343303847,-0.008268544602614284,-0.041605404130156745,0.12304036751590117,0.08401463096900275,0.08124502605987739,0.16761715270738417,0.005643400688964,-0.012795610196014402
0.014,-0.029615709722246034,-0.05265675584128148,-0.022582311293642066,0.04251619125677139,-0.005645919752347026,-0.039092995689757645,0.11802133864425882,0.09020574176993072,0.08729094311335284,0.17086821587631934,0.013544365358453558,-0.0018557745299294032
0.016,-0.02426960291296263,-0.04878704741866718,-0.023767420229379835,0.038207023308005926,-0.0021375487935419804,-0.03800375669854367,0.12443405168964586,0.09774006869358486,0.09575540991238222,0.18331277366375712,0.01765023104760371,0.0066627310775965835
0.018,-0.018510748682762476,-0.04588467269257179,-0.02669577812206204,0.03347171897066617,0.003040927638570362,-0.03802137460828075,0.1306729312307713,0.1041736125251581,0.10362489220170648,0.19316671224344303,0.020019778356167278,0.012402246725656296
0.02,-0.012740951888911866,-0.04358347738013668,-0.03061265827999341,0.02824204435294036,0.008736940337284595,-0.03847272584216451,0.13009375266412004,0.10767998181448564,0.10812442766625786,0.19488674199847555,0.022118242012422976,0.015717422199139828
0.022,-0.00943631481733486,-0.0441215976181144,-0.03485675286759596,0.025840648977477187,0.012815426785818271,-0.04027427939629128,0.12588511259275448,0.1084748014798906,0.10886343680903825,0.19200941192436466,0.022922654075553512,0.016356836185245877
0.024,-0.010124249441710947,-0.04843899544765252,-0.0385237583228371,0.028249462692436073,0.014024259606332091,-0.04401309989861615,0.12317541756791105,0.10863615417234036,0.10801356228357757,0.18932337450429307,0.021122752078945383,0.013945477056535488
0.026,-0.013248653801286035,-0.053314128828619044,-0.040082560817389035,0.032735241327107534,0.01290807090739546,-0.04741914499905487,0.1228814055878013,0.11028127221702877,0.10840272162466891,0.18817893001036698,0.01801862047421958,0.00971100677972724
0.028,-0.015944306169221364,-0.0543442508604232,-0.03829739644851862,0.03495808082692251,0.010644645219971173,-0.04723173537171306,0.12360752484515641,0.11434569681332007,0.11209860814418861,0.1890017361098268,0.017146174947863715,0.006294364624527577
0.03,-0.016454951720621513,-0.04978056834982053,-0.03326703716831184,0.03315064624353807,0.007714384004196814,-0.04245637882221108,0.1266564828933122,0.12213706540983216,0.12103484642069086,0.19496740276530128,0.021422389746106198,0.005976515212926127
0.032,-0.015097288943495806,-0.04228969428496167,-0.027219850008175502,0.029326936192833317,0.00464680426490221,-0.03556328316275985,0.13490778951954954,0.13416144562260435,0.13505031640839907,0.20776651672390728,0.03032204207926876,0.00927533902229821
0.034,-0.013415677940784763,-0.03761229953409352,-0.024241545789600166,0.027180240178878677,0.0031925891009170035,-0.031367424524192014,0.1458583329848822,0.1460638005852619,0.14844364054738912,0.22081894852682576,0.03919265017524723,0.014152770387552199
0.036,-0.011258557465718022,-0.03814662295928377,-0.026894563011282846,0.02723568731475319,0.005389761371856128,-0.03248927690230192,0.15165923176761376,0.15183976081853082,0.15421881840530974,0.225127238541394,0.04348144510412362,0.01779830624012522
0.038,-0.006599745830253195,-0.039317180563167124,-0.03269604779399711,0.025825861977552194,0.010938093236516011,-0.035765740069815886,0.1492169815801354,0.15193724163734032,0.15284321182272395,0.2215885753332454,0.04410618297923197,0.020215493806940273
0.04,0.00033214701875465807,-0.03618192651378603,-0.036500318931384584,0.020776793481915842,0.016644197738397717,-0.03622509820622434,0.1449480711711211,0.15261016241947378,0.15144574518092999,0.21948031151852568,0.045663930664816346,0.023522993435798143
0.042,0.005810167137202684,-0.030839588142712152,-0.03665485571614933,0.015088105080949082,0.019704191338787085,-0.03387036380773594,0.14599220888693382,0.15762282321194226,0.1546123676654891,0.22372990778594198,0.0497749310195041,0.027305984690892952
0.044,0.006913873710104268,-0.029078781742934087,-0.03600259668183802,0.012969245275662008,0.020252082073406577,-0.03296463919197235,0.1517097171811879,0.16494658701731732,0.16114237987181743,0.230574838149103,0.05392828840448813,0.028505734766862256
0.046,0.005289997460247266,-0.03143041233043131,-0.036722374536677,0.014189217615737276,0.01997301533364164,-0.03495913691073209,0.15740541511884415,0.17130330448961634,0.16866842085791933,0.23530932738871838,0.056353075638741694,0.02659331511646332
0.048,0.004671663670373057,-0.032772674509977076,-0.03743985154437537,0.015034382821424377,0.019665212513069744,-0.036443686141156714,0.16115213872487608,0.17679508629810042,0.17633163927667647,0.2387648099995667,0.057874888518461474,0.02457396061775301
0.05,0.005210264251076888,-0.030366989972438054,-0.03559597863170608,0.01410685269336095,0.018362807762545275,-0.03445503701107213,0.1635359340408801,0.18378063463826028,0.1837544433154393,0.24475345364725204,0.05947265733951913,0.024175867867907565
0.052,0.004009267640381563,-0.026329443837217272,-0.03044900033593639,0.01312237867647516,0.01483165215806527,-0.029700630007572407,0.1651291314239457,0.19260838890087809,0.19097881155757807,0.2540876153113387,0.061841566081197744,0.02448173671757822
0.054,0.0015972415494138721,-0.022627604476581638,-0.024423139895971495,0.0121256976470988,0.01067406532089434,-0.024793168322200985,0.16635328738233324,0.2009377811508493,0.19855103829292123,0.2633847188512701,0.06605646756970407,0.025274902452416294
0.056,0.00229421033800242,-0.01900772424169135,-0.021375729362424642,0.009031049569423043,0.009653882359807539,-0.02181204000958699,0.1673444799959114,0.20696434921185464,0.20601385877186884,0.26938740825659724,0.07155925071205221,0.02745316294079524
0.058,0.0071027110088490355,-0.015464949787723014,-0.02224640728952465,0.0042713429374505885,0.012549603162486088,-0.020847998972412463,0.1681799239372685,0.2109972221897808,0.2117531014993555,0.27273788569309876,0.07604473137488892,0.031292316780374335
0.06,0.01254159977224506,-0.0129551119621425,-0.024756017659494572,0.0006636496854182872,0.016703664122320584,-0.02062153743683149,0.1701157099809794,0.21446702178651916,0.2153961645407315,0.2768741392679346,0.07953822860101467,0.03725868394655105
0.062,0.016813346981602507,-0.011605265579398897,-0.02754861870323748,-0.0013263615958770676,0.02085716587935954,-0.020677432380191704,0.1742167617775812,0.2188610418406233,0.2189201736090974,0.28399212126432355,0.08479407343979825,0.045640502907243884
0.064,0.021098936706455077,-0.010504682550417,-0.03100853424497734,-0.0035836374852547333,0.025599984961017817,-0.021646527677674644,0.1789902690944944,0.2248523571977189,0.2244862902633431,0.29262395079778836,0.09232478975786367,0.0540341291253891
0.066,0.02602721062534406,-0.009021179820964667,-0.034928014325836976,-0.006963384590734105,0.030352028493835025,-0.02341064693657597,0.1825600786379995,0.23237320310371445,0.2327676612870352,0.299988118652341,0.09948881833042464,0.05933580006074865
0.068,0.030990860008469557,-0.007032449069779073,-0.03820487509132202,-0.010930066262960466,0.03376313544156569,-0.02448237241087332,0.18554996663665665,0.24164696084980503,0.24341717825313353,0.30654134009070394,0.1049655650939685,0.06176830396369944
0.07,0.03471585428005752,-0.0045687061036253475,-0.03943914420772052,-0.014432666784790353,0.035230277401946855,-0.023396209939168997,0.18884307132309713,0.25265370093886763,0.25497323875703914,0.3155474718327369,0.10991841619395522,0.062916235808514
0.072,0.036015404664100935,-0.0020760486565639174,-0.03807679536864752,-0.016392629327097105,0.035148313817394326,-0.020737847113822972,0.19097044467658186,0.26377755820323867,0.2650813837847033,0.3275745802711468,0.1146362295636181,0.0624493136469903
0.074,0.037061030567699695,-0.000525856236116247,-0.037498730544385205,-0.017411474618311103,0.03623701639969228,-0.019843923448915085,0.18996963923259286,0.2728670790002227,0.27263855142023247,0.33867396666756766,0.11748942976656165,0.06050456627857189
0.076,0.04226627544302412,-0.00012987703352492018,-0.04236174956692342,-0.019782629117912412,0.04157986730952835,-0.022919857205121377,0.18657555576420937,0.28008864298848957,0.27929756679324524,0.34599743287273105,0.11862753641709907,0.060701964749889904
0.078,0.049482614572146096,0.00044949586353678055,-0.04906426931137477,-0.02340421407035932,0.04760230748246244,-0.026277970736498298,0.18480513859911843,0.28842012819142077,0.2882387420828466,0.35259589536569,0.12245081041690581,0.06779719754305688
0.08,0.049850843478836546,0.0018619113809743217,-0.048022439665589854,-0.024417986052147053,0.04614674745732167,-0.02455464940602973,0.18863211567580782,0.3000037969624825,0.30093684694769934,0.36344317051740926,0.13276400186302012,0.08191750337927352
0.082,0.04287962219333223,0.003246608544300984,-0.039653976026792916,-0.02203480324467666,0.03848623584928165,-0.01917674627830021,0.19768989908609938,0.31354588900421354,0.3154733226619439,0.37865108316727014,0.14628921880515622,0.09611908250496028
0.084,0.04107650941876247,0.005297660020043662,-0.03589143758972109,-0.02247919862510561,0.03673353110483892,-0.016282049568975988,0.20790120493611997,0.32721003605191884,0.3292031032403383,0.39388384962844936,0.15578194611263,0.10230571177945555
0.086,0.05141117469073953,0.00985651840457925,-0.04187366983202242,-0.0298829892497129,0.045682991658125637,-0.017355473041451353,0.21648320213655992,0.34195448703080455,0.342413019716606,0.40683739742168024,0.15981445088331991,0.10022760118108247
0.088,0.0638783569140373,0.015807111491557512,-0.048500054780612395,-0.03871454433925179,0.05512341348525535,-0.017847976315431464,0.22397285623017996,0.35958792507231296,0.3577504109904609,0.420590117902425,0.16434782102130419,0.09757833997238041
0.09,0.06659748298061306,0.019750025310478734,-0.04713248728969454,-0.04172940078884657,0.05553878708980472,-0.014773366284020706,0.2310225541614484,0.3789039232516614,0.37611613453751597,0.43841450696208123,0.17361808659817932,0.10026596978691604
0.092,0.06188658465720697,0.020047223962727442,-0.04196716256051981,-0.03954185889927796,0.05086924311870093,-0.011391696641072637,0.23613885521284367,0.3962835462737669,0.39475494881591405,0.45758520042641915,0.1852453637526445,0.10679623355130811
0.094,0.06035062927636942,0.01807429398441889,-0.042585258777413204,-0.037812390332722275,0.050668505600343194,-0.012408587898874621,0.23755415605077893,0.4099732527725099,0.41033381625530646,0.47268315664393296,0.195885603892874,0.1134885530389165
0.096,0.06660661702804238,0.0175220048877022,-0.04976938308033895,-0.04045771642092777,0.05708214795262243,-0.01646052238634636,0.2351860763540516,0.4219687992381651,0.4228353464048995,0.48325746054061436,0.2056071176189197,0.119859366519277
0.098,0.07667258221675932,0.022043338033873174,-0.05535473765512245,-0.047638696287024884,0.06461760078746243,-0.01740651832877228,0.2311063911156837,0.43540269165056705,0.4350555182050191,0.493987690927735,0.21524777835707676,0.1270792909362181
0.1,0.08405742210121853,0.030344116771611647,-0.05400128446362271,-0.05558652347621846,0.06808568622401442,-0.013152263535441303,0.2292307983527471,0.45060256412660316,0.4485974484921374,0.5076873460687991,0.22388484634908576,0.13470573326873853
0.102,0.0850531640208957,0.03610383762564566,-0.048780161912542454,-0.05912801363277023,0.06683155090964649,-0.008137164604121387,0.23275446060570854,0.46458115653785587,0.4621240762723169,0.5213673301172874,0.22987926895792232,0.14057825395113493
0.104,0.08278677079519207,0.03688548302149037,-0.04566181440923113,-0.058764496586179035,0.06450233102815592,-0.005948803901011521,0.24158264821212982,0.4756589464359381,0.4744157130015433,0.5314247771316164,0.2336487594476523,0.14394638179863126
0.106,0.08489894742516249,0.03825512779810136,-0.04661092810787363,-0.06107715576625731,0.06564859009793128,-0.004779364772981476,0.25300220964854375,0.48677784804443996,0.4871096505567733,0.5404370501283849,0.23881453753204843,0.14727216136773902
0.108,0.09292324610645117,0.04425578392210678,-0.04877906524714668,-0.06813691131128416,0.07014795126078358,-0.002219914701790636,0.26376268988931995,0.5015582557517824,0.502365588077629,0.5542441101034764,0.24836768049684435,0.1529400387648592
0.11,0.09951517272924207,0.050235242813543426,-0.04935145313940809,-0.07349325367832292,0.07327012058640216,4.7516759891773593e-05,0.27194663035293326,0.5194459217407597,0.5196885034456561,0.5736580974072948,0.2605482124125991,0.16007914989306335
0.112,0.09947257290387806,0.05054903901786616,-0.04889733049387708,-0.07251863146296587,0.07243304052357726,-0.0004942935254771464,0.27826723195284936,0.5373076620403969,0.5369991851966638,0.5939040557342292,0.2721091307076272,0.16713394669269938
0.114,0.09683825302419048,0.04830706127498764,-0.04847979765360793,-0.07001512460013537,0.07015242183609638,-0.0016945912630610277,0.2848877385623802,0.5533855611340793,0.553106403605227,0.611327656035662,0.28423155873323325,0.17568243387137794
0.116,0.098595444205749,0.051619495916066106,-0.046965683313524,-0.07364764204460482,0.07009766439514235,0.0014363023746744358,0.2918258269332888,0.5678229219164168,0.5677682265753681,0.6263647424037229,0.300028352366897,0.18806695441607374
0.118,0.10629224869524666,0.06185630493517709,-0.04445906191947489,-0.08390629726192106,0.07361945025841793,0.008877637511716375,0.29573304077086415,0.5807943235563575,0.5803267427440607,0.6398836326928949,0.3169687050374424,0.2017292581121778
0.12,0.11627217476555167,0.07172277670307332,-0.04456603553511794,-0.09441727023260156,0.07990030720434195,0.014099157451779518,0.2944446038626386,0.5918195827185094,0.5899152226699008,0.6509169810655742,0.32817487422947983,0.21077546371980183
0.122,0.12427646235598858,0.07572840585310604,-0.048543388302454284,-0.10005247916137489,0.0861731863449427,0.013224583792318263,0.2913639044321374,0.6011731086947868,0.5977839078604108,0.6600517319444625,0.33172972884691576,0.21367661454879905
0.124,0.12760640596168024,0.07659022801158037,-0.051004869931429844,-0.10120404477063785,0.08834635520594418,0.01099799663067045,0.29248030421749704,0.6110068256135861,0.6079181278429932,0.671248097263892,0.3335230477075905,0.21466355533276624
0.126,0.12709979194056717,0.07965048779271837,-0.04744645066911513,-0.10167724147596115,0.08564544572165748,0.013513967500949537,0.29989499641467665,0.6243966058928508,0.6238816465306561,0.6876125573683282,0.340595600724817,0.2178883779122543
0.128,0.12803835901591593,0.08610045858183658,-0.04194270845235726,-0.10519595830558728,0.08340075061491106,0.01971827026687822,0.309937379261064,0.6428338127846468,0.6453283070260396,0.7082107683598895,0.3545832257739049,0.2243230303131892
0.13,0.1345730061385015,0.09375259233483592,-0.04082426752807398,-0.11276835041150884,0.08655537636373864,0.024871088960618515,0.31710061345149887,0.6638986341090872,0.6676654547835594,0.7300242140558234,0.37142369015881577,0.23316836961378978
0.132,0.1441196116231939,0.10064042078419942,-0.043478407727759134,-0.12172597881330519,0.0929169868779757,0.02774871670855821,0.3191471975904826,0.682293304612704,0.6853272773702118,0.7501316402688906,0.38616110170080553,0.2431269704889683
0.134,0.1517873347202447,0.10608578381226778,-0.04569907378681303,-0.12864422311466617,0.09754514627359497,0.02974261976978554,0.3184627863033567,0.6951495699126504,0.696663602672093,0.7665503331000948,0.3977839746147139,0.25346284542546943
0.136,0.15825230310494143,0.11107627794776366,-0.047197208933945765,-0.13399440098546175,0.10063899904159394,0.03133133779902535,0.31862706316900147,0.7054457312929536,0.7055939441164578,0.7797804165523913,0.40934947069637095,0.2652437961384947
0.138,0.1676969104810872,0.11770761231653251,-0.050121604720906134,-0.1411111316766632,0.1059792252540986,0.032858283707482734,0.3200017662850246,0.7174776933556473,0.7164920567741397,0.7919245918324391,0.4232785428765663,0.2794861761869355
0.14,0.1789346481158616,0.12552302666909837,-0.053739926244208994,-0.14972170807887863,0.11340343914754825,0.03485993171738223,0.31968808424647344,0.7302542887941694,0.7283319142543638,0.8028198643051122,0.4372069616621513,0.293479362041259
0.142,0.18464705172120477,0.13036015702488157,-0.054709382291617384,-0.15475847893244316,0.11756506678474053,0.0366473495009229,0.316008892594552,0.7393450643400923,0.7371491526859146,0.8106167061542405,0.44663222127692304,0.302353135724669
0.144,0.18155861832212258,0.1305492418609137,-0.05126437758267562,-0.15409525618907396,0.11511001295517215,0.03810170883770949,0.3110003642172829,0.7446427005586925,0.7428739057717632,0.8167554065671052,0.45191315176545155,0.30572800540365935
0.146,0.17684373046926277,0.13121564893667179,-0.045602214542443266,-0.15343626166853466,0.11028960086301738,0.04137740218845823,0.30762098341592525,0.7518546995401258,0.7500830895756259,0.8255693307487585,0.45936046901787386,0.309413560214684
0.148,0.17969245607349452,0.1379187050487275,-0.04162815642252293,-0.15919685968373182,0.10998017654138083,0.04771085733909718,0.3068103375624728,0.765112275126891,0.7622713722251173,0.8384410878872819,0.473788260078879,0.31815422941460836
0.15,0.1903037699049789,0.1502771273192465,-0.03996362897773781,-0.17060952124302553,0.11468759365995612,0.055754409744669386,0.3084311662239949,0.7815466595808052,0.7774887388670167,0.852263960247593,0.49262969333602097,0.32935683036948904
0.152,0.2025168089272936,0.1652345445129253,-0.037328380631089855,-0.18325097818385855,0.11940103039895138,0.0645598375057571,0.312440695503498,0.7948955095550323,0.790540353601809,0.8638384361418366,0.5095230986760435,0.33715631432413506
0.154,0.21105033523866706,0.17931864975708167,-0.031787986966699634,-0.19357572721400776,0.12072722326944021,0.07331605354552462,0.31701295804468943,0.8015797726584262,0.7982354816440448,0.8724259920240165,0.5212699718396665,0.3407764582153183
0.156,0.21250162255729355,0.18670381971555644,-0.025777976029753912,-0.1975033126523329,0.11869413034311928,0.0786612887988271,0.31818201680636155,0.8022074427798983,0.8008942580641645,0.8775738228684707,0.5292608136491014,0.3453018302728838
0.158,0.20840249732499438,0.18485510220006465,-0.023386514230413814,-0.19453809881260173,0.1159257612311859,0.07817752499112851,0.31426645890338084,0.7996646324236184,0.8001665498026174,0.8783287205715031,0.5369811909679378,0.3553199623450067
0.16,0.20751016354904703,0.18072477638906423,-0.026442695512529295,-0.19258809454279815,0.11697455475116345,0.07488048339893648,0.30843691650447447,0.7967346083913438,0.7976543449650353,0.8760268219359804,0.5472263935473716,0.37032742293044074
0.162,0.2153528053553623,0.18256626721657906,-0.03237275347642119,-0.1983447005161566,0.12300534326111687,0.07373270271685012,0.3045200834697986,0.794679269354535,0.7949120694621064,0.8740784901549282,0.559234002659041,0.38554623771381774
0.164,0.22449438187964468,0.1893301183121811,-0.03492126381275586,-0.20675355784482102,0.12764612148597979,0.07644648798347872,0.3022235098112991,0.7931922596112524,0.7928281878493608,0.8736900343022127,0.569128955575684,0.3962459839142888
0.166,0.2243460470110572,0.1947372200638291,-0.029635677105031663,-0.20894371824704558,0.12407392027725637,0.0818208166604503,0.2986802541748714,0.7914822305372059,0.791181549333664,0.8730826931052446,0.5745217679897249,0.4017495424235259
0.168,0.21671304035923994,0.19651460128631892,-0.020337954777376065,-0.2053202521925141,0.11536483602254291,0.08713352329930238,0.29322520584123896,0.789102925655117,0.7891545636695619,0.8709261869327898,0.5765289825054544,0.4046749359390784
0.17,0.21273248822016003,0.19566938118979094,-0.017122680798627152,-0.20286218886523538,0.11194523436368085,0.08794433071422718,0.28773365167922027,0.7854120537431656,0.7855995711685541,0.8677001298699899,0.5771529574616544,0.4066738029256511
0.172,0.21758416074095535,0.1922696161261645,-0.02527010272855245,-0.20427426289903697,0.11884908560183677,0.08149183459130224,0.28276950263528056,0.7800854997025254,0.7800372032124171,0.8644335475862549,0.5786870562067298,0.4077803576795194
0.174,0.22615394030805586,0.1876010120718098,-0.03849930365966612,-0.2068397894757471,0.13045428465073827,0.0718810261138248,0.27665985180795116,0.7742849079069205,0.7735554907557209,0.8612828936578614,0.5849245642627044,0.4097350661712419
0.176,0.23181484798748822,0.185848543707742,-0.045964556373863714,-0.208676977761097,0.1380635265603674,0.06738124566136885,0.26887287576747254,0.7684293503558146,0.7666143131742034,0.8566163746877838,0.5970050194253648,0.41591925551889686
0.178,0.23336226755797992,0.18957496886003164,-0.043815577274009566,-0.21074133413644391,0.13863485405130482,0.07142919245063262,0.2611738184738019,0.760271677233452,0.7575092229443956,0.8483668036974552,0.6091937571738401,0.4267098649706089
0.18,0.2336147667755174,0.1960191315170833,-0.03761009418390521,-0.21376736787337036,0.13568470792809534,0.0791167228492502,0.25414474957197836,0.7480182404008757,0.7451440914902765,0.8367619161337678,0.6146253880845929,0.43745928115151095
0.182,0.23529120473843224,0.1999694353435469,-0.035313262293923446,-0.21671491753027583,0.13469497833702873,0.08288411205091609,0.24568355653767707,0.7330187505623398,0.7309399054260856,0.824412201071686,0.6138537437269345,0.4430179404251721
0.184,0.23884650242663338,0.19916808094058608,-0.03966647432602238,-0.21839153826274793,0.13809485497719193,0.08007834865129872,0.23422545094976932,0.717755306945134,0.7165352336977814,0.8134035805925853,0.6129955478160828,0.44304413114434077
0.186,0.2418033093468119,0.19516117196178195,-0.046641073239313297,-0.21813342511430261,0.14315594202989962,0.0741397829840225,0.22067138663872732,0.7033375567940398,0.7020416272081149,0.8028464792689841,0.6146586635783441,0.44111867086322964
0.188,0.24068478581592098,0.19034418566273478,-0.050368550410205416,-0.21531682559313042,0.14489348555905104,0.06969276351944202,0.206905071411165,0.6896198921258319,0.6874805851052197,0.7899592764107661,0.6152715031829791,0.4397216881644471
0.19,0.23506307816322558,0.1860814049628755,-0.04911644039174235,-0.21018526976507618,0.14142168102978062,0.06803256570727227,0.19455006815904355,0.6760133686588435,0.6734687563695881,0.7739123170647042,0.6113286613271702,0.43789065914876196
0.192,0.22775914748550713,0.18208613190778644,-0.045998803093265817,-0.20388932279031702,0.13543971390023915,0.06703221785585553,0.18461597403335553,0.6615454193942972,0.6597457504979561,0.7572355710988413,0.6039780331098759,0.4333620938658558
0.194,0.22147686908822284,0.17758517463792511,-0.04431163687225452,-0.19758366550729,0.13079182069349257,0.06481857862433844,0.1766657372802992,0.645372485733797,0.6449422860130869,0.7422336473923061,0.5961196152333587,0.425531017158149
0.196,0.21775261493148754,0.1739098855186051,-0.04409788857373954,-0.19308697991391188,0.12924379081323664,0.06252005761909026,0.16855074625064476,0.6275871811692634,0.6280682316143744,0.7277268357269601,0.5882578848681049,0.4161662711770068
0.198,0.2166750392799746,0.1731309427650223,-0.04351969397267968,-0.19202569565357774,0.12968097470852452,0.062378388105492864,0.15788887830723133,0.6084392967703826,0.6088956965079713,0.7107543935375271,0.5790780949512386,0.40784759694716827
0.2,0.2154992282199511,0.17383186359106706,-0.04152238327924378,-0.1925995866910337,0.12902334525700543,0.06426295003525616,0.14453556397585504,0.5875312383895664,0.5875176562661063,0.689906365387146,0.5677687920256264,0.40133551451792493
0.202,0.21094723508104474,0.17223217831881182,-0.03865153689328435,-0.19065601171882532,0.125277766937802,0.0656045817733713,0.1323771867400044,0.565772663479712,0.5655282251458101,0.6666515107802129,0.5541258285534345,0.3944075251795044
0.204,0.20402367831123755,0.16750723341167337,-0.036561984632135794,-0.18526097652515774,0.12021256812293125,0.06452114303103743,0.1270230634949078,0.5463886567555805,0.5462790444946755,0.6446881842463388,0.5378778152883361,0.3840926617632665
0.206,0.19853772254192242,0.1617855681632843,-0.03680845678185528,-0.1791650671035549,0.1170134406375445,0.06143895294551158,0.12888635958884942,0.5306131837671676,0.5308023598790836,0.6265497022059271,0.51868478054872,0.3695671570982714
0.208,0.19406612304656293,0.15543719150046292,-0.03863135939421165,-0.17297858211008002,0.11503348150116363,0.0576800927749509,0.13073840068029188,0.5144845211645909,0.515238367658234,0.6101759461961327,0.49656031424766345,0.3522836597232844
0.21,0.18547067634353104,0.14708082847085363,-0.038360432722651015,-0.1640903904012621,0.11004271848152007,0.05434720995408102,0.1258224300832818,0.49399394048145595,0.49563414676807444,0.5917712000097575,0.4732275436435914,0.3345049650534512
0.212,0.17084993009688051,0.13740237990695295,-0.03343217731627195,-0.15209857116686928,0.10052425081415624,0.05213275275137305,0.11543865170084718,0.4708674966309793,0.4729290025303466,0.5711731600980314,0.4521105220884136,0.3186564967742204
0.214,0.1549744238322481,0.1288683756948594,-0.026114738942185658,-0.14027613627584581,0.08994471750834879,0.05078024474740696,0.10506757123286882,0.4488808716682539,0.4502419896610005,0.5504436709562877,0.4349449757548268,0.30694794986686424
0.216,0.1429180468969682,0.12207605511642762,-0.020854525450357826,-0.13090857264899042,0.08189003126273149,0.049163810603102605,0.09651421930504717,0.4272237539730228,0.42776752513531535,0.5292689864571659,0.4192532150883086,0.29908631471372055
0.218,0.13396669597800132,0.1141207485148938,-0.019847191506458056,-0.12225885685372595,0.07652600500628039,0.045508673591652046,0.08728228229824675,0.40194016245854164,0.40287004674989985,0.5051634626434964,0.4000166382547947,0.29028326353087913
0.22,0.12427471448008738,0.1016959376275484,-0.022572532073074806,-0.11142821827721433,0.0723791317772422,0.03812130265661172,0.07606026293062843,0.3723497019508998,0.374148556698521,0.477062524267277,0.3740252903227133,0.2751140887701033
0.222,0.113056435280636,0.08653058326045622,-0.02650025095963079,-0.09895140895001535,0.06853382644993662,0.028330116188472976,0.06560357322845231,0.34302734795067075,0.34452473050546445,0.4480918162256296,0.3432742250976168,0.2538158317823635
0.224,0.10258437082891544,0.07449368052567931,-0.027982973166102085,-0.08797011932094474,0.0644156333127325,0.020899332650646918,0.058888757908492795,0.3194370780210427,0.3195845216279578,0.42385702586403534,0.3132296871426851,0.23134098113043805
0.226,0.09372371769018784,0.06772725478857061,-0.025803150128969856,-0.07949985752296448,0.059605370522258054,0.01845272554423745,0.05477171114578543,0.3022143782509359,0.30149918775164836,0.4058654398426576,0.2874144421456299,0.21096908006632814
0.228,0.08580022828411861,0.062290907707590874,-0.02341456195290372,-0.07201291426991248,0.055048649880984936,0.01775257875059604,0.049421372903329625,0.28620318618167756,0.28574393280552,0.38872057650681935,0.2645208164952243,0.19190282541262124
0.23,0.07934792127358885,0.05493426743569277,-0.024579399743972104,-0.06499240961570489,0.05249715540283288,0.014508072434412557,0.04072080798196733,0.26622400230174936,0.26637874858067817,0.36711452638569086,0.24076220552509467,0.1717694117635478
0.232,0.07417438310000853,0.04725454125439199,-0.02720019281044903,-0.05900520437438948,0.05069494823889758,0.009810878301803513,0.030253268884699525,0.2429812018114936,0.2433050776686834,0.3430416043182384,0.21458855308521094,0.14966069368336646
0.234,0.06691328824112228,0.04122141983864209,-0.025812298865986356,-0.05282193025528259,0.045414763839172215,0.007601857270305348,0.02146176484208186,0.2209576445730363,0.2210297965707687,0.32199507153353035,0.18811469517186666,0.12745082140758532
0.236,0.05529654186525689,0.03486889087254386,-0.02036762755847913,-0.04424393409795729,0.03597075305915387,0.007150878231882243,0.016779310185416334,0.20231006479350191,0.20216853574259502,0.30511201567654517,0.16380959674817122,0.10795724564745907
0.238,0.04167434351385764,0.02525370383284732,-0.016442737220904845,-0.033175617699462534,0.026736129270518685,0.00377572735525686,0.016492910961024017,0.18604848673724111,0.1860512240847604,0.2895288288696099,0.1417002125000378,0.0920348535268756
0.24,0.029385747643518877,0.01327555694706633,-0.01642704503899824,-0.02160280349299543,0.020577708432931417,-0.003317998136394622,0.018681013421878678,0.17099962474821467,0.17168225651471486,0.2735084839861228,0.12079423457748578,0.07912902197688658
0.242,0.02011256125703156,0.003152753518051112,-0.017414529007850357,-0.012031652661062979,0.016800666629471453,-0.009635073312554771,0.019837120415322887,0.1564587230844682,0.1582762973764688,0.25782572187432884,0.1010742307151529,0.06892816613670708
0.244,0.014940116849004018,-0.0027308852889746695,-0.017827048526223827,-0.005981112297212302,0.015182550405876337,-0.012533647715646159,0.017181658042752335,0.1412491280570248,0.1441480222365233,0.24363297593005134,0.08228381446211154,0.059663210279955844
0.246,0.012438387202365741,-0.006754367028141361,-0.018847449937252354,-0.0018781178409214903,0.015171037519395424,-0.014460549725966162,0.011631019527504548,0.12492984822675296,0.12847196123866844,0.23094937281421815,0.06358743053482674,0.04794948457435952
0.248,0.006760590357348279,-0.012722915637745223,-0.019022315880227122,0.004512719385765808,0.012236752110427346,-0.017420455943535057,0.00804853689839143,0.11001186258089851,0.11369670703901893,0.21950460209933276,0.04629245355933735,0.03352983755336553
0.25,-0.006301343889631151,-0.02112423182497566,-0.014849687630203714,0.01537044114467744,0.002390489351986857,-0.019616155789993584,0.010571394351680434,0.10032565871789557,0.1035168556124068,0.20996756499811464,0.03320424805080325,0.02070069279751775
0.252,-0.02126867495865746,-0.028443696247084926,-0.007834016164138568,0.026460141437761257,-0.009805749966340043,-0.019609934802842455,0.01723277179567717,0.09614345836977538,0.0983018540020593,0.20317053509973426,0.024027412648658226,0.012787430765366065
0.254,-0.02713468791137784,-0.03060580491988019,-0.004417033617803599,0.03029864126936478,-0.01459154138871093,-0.019063798759919218,0.02183695449653069,0.09283705049219057,0.09390587082105979,0.19791608362687282,0.015127307923836644,0.008503289255255597
0.256,-0.021136798139723852,-0.027994529161584358,-0.007776167512838985,0.025692930290685048,-0.009043046632531523,-0.02006001054631004,0.02185502793105208,0.08559213628748254,0.08593308570822292,0.19087901132260807,0.004600167271251725,0.004794926971977413
0.258,-0.012329324164371136,-0.026264515428440445,-0.014713893393311934,0.02034686598115675,-0.00015257568270735805,-0.023005781928911093,0.020936358519648486,0.07449420063524904,0.07474873805277868,0.18034676008012043,-0.005840775097294635,9.133496962920775e-06
0.26,-0.010483144367947426,-0.030181040597908014,-0.020214292803054784,0.02160448561186282,0.0038065663557446793,-0.027056244410376212,0.022967145058939126,0.06412027214163175,0.06446739140684704,0.16896799878616697,-0.014892799457834916,-0.006183610206352896
0.262,-0.016656283293787415,-0.037629622371353276,-0.02113451128689555,0.0283820293571304,0.0007103767112927695,-0.030159836746938316,0.02762693261904316,0.05871728308857297,0.057641973218090975,0.16108475301520636,-0.023955682913285776,-0.013058398828974069
0.264,-0.024060690949881773,-0.041898003832297276,-0.01783427928531232,0.0337292544593645,-0.004857865311412265,-0.030162930658870872,0.032107597449943806,0.05811172767519823,0.05349569237671863,0.15789296575302955,-0.033616084671586124,-0.018884641433758696
0.266,-0.025850119820662983,-0.04085512376389675,-0.01516580850565409,0.03375510032546154,-0.006286542946894611,-0.02861162438079927,0.033968493718113925,0.0579681803363303,0.05038626323461742,0.15596108974409298,-0.041481084103699425,-0.02301399116326442
0.268,-0.023310422650667614,-0.041055582480145195,-0.01800795360763985,0.03285657426261693,-0.0023817596419171043,-0.03071422885830085,0.03267373702703192,0.05415399837432117,0.0473487922506892,0.15087849226461925,-0.04614353500461248,-0.027708702584333292
0.27,-0.024180926771992822,-0.04828973647776902,-0.02397847929288393,0.03766067092379159,0.000655697601438349,-0.037837960865120236,0.030492661835426683,0.046967897935547676,0.04412134357312272,0.1426595156169092,-0.04996392317570674,-0.03535459211778484
0.272,-0.031969287122911874,-0.057610243372435206,-0.024904044554743782,0.04703943024565279,-0.0032812608818880524,-0.04334177094299668,0.030974839515749752,0.040810236545460704,0.04154621254956725,0.13628800738508148,-0.05518180212726269,-0.04416822313686925
0.274,-0.042306186830479375,-0.060297608772455796,-0.017168714023929808,0.054032809133725504,-0.013230751626944594,-0.0407279473467241,0.03500160984601915,0.039289335918354124,0.04083853484521528,0.1353515687511256,-0.06060035127636408,-0.049986299324979555
0.276,-0.05024058703403199,-0.057836380044214875,-0.007425043144279437,0.05670818113054266,-0.022864776834826885,-0.03375791960756942,0.03946740907454995,0.040665487083042885,0.041046531029934594,0.13648771315012626,-0.06464673276563512,-0.05213757273544974
0.278,-0.05526360268796846,-0.05976182868645569,-0.005193007056434763,0.05978170603796394,-0.027005920061517606,-0.032439331695845605,0.040908862385591216,0.039575732019402,0.03896663044533662,0.13307443253534232,-0.06829161551702774,-0.05402969482894726
0.28,-0.05858559512898196,-0.06863716991312133,-0.011235466232969954,0.06553822578190907,-0.025844281856611542,-0.03934824508437332,0.03912865464594932,0.03388682048001774,0.03340024497905997,0.1238126023461437,-0.07289956931115762,-0.05789570128861418
0.282,-0.060068301102085574,-0.07633706854431618,-0.017455986566828178,0.0700270091984162,-0.023415088535955905,-0.046635290199019346,0.036705512748695886,0.027231594298015735,0.02732862593740655,0.11398437549655722,-0.07828880837786739,-0.062230268497942984
0.284,-0.05944727542147656,-0.0756483781636721,-0.01717624390369974,0.06933010812109537,-0.02312296676257739,-0.046884295699278544,0.03604772101830142,0.023758163962765737,0.024067383637383546,0.10815661765419175,-0.08386068938984713,-0.06504891075786322
0.286,-0.05853499030475909,-0.06837681640759284,-0.010573221719081772,0.06508759254603409,-0.025935934584969695,-0.040576577321531054,0.03718102171182715,0.023658605291845405,0.023752803371985317,0.10548657171036988,-0.08925294350754345,-0.06699679098942897
0.288,-0.05972964149503528,-0.061040469692539845,-0.0016580956672497087,0.061969037173286605,-0.03086210106496637,-0.03275081255025789,0.038435611525018384,0.02499194193275239,0.024868342093614604,0.1032019449362786,-0.0937127279795271,-0.06971911450001275
0.29,-0.061976336901549856,-0.05690927604183504,0.005266805950001589,0.061337129807315253,-0.03487583122093207,-0.027255680847540376,0.03856329862798981,0.026614012935475134,0.026503694247440594,0.10141011238261495,-0.096216538772479,-0.07291041495482856
0.292,-0.06144354382457567,-0.05437522401883006,0.007613225150119511,0.0602877783061017,-0.03501553950522453,-0.024688254976599117,0.03707343339640602,0.02773499544227677,0.02774977619189184,0.10203319124691042,-0.09652328004672414,-0.0749887995975336
0.294,-0.057180402461400014,-0.05145429249286027,0.006114347604621859,0.056912197112981976,-0.03206380855396493,-0.023632682065037294,0.03451603423914958,0.02711071369133512,0.027177969188412497,0.10496921127201539,-0.09579298396028611,-0.07545402875571706
0.296,-0.05257815826438507,-0.049194246264822605,0.0033433349634000983,0.053127031986253674,-0.02928625528798573,-0.023549304024383093,0.032930908823310366,0.024542965766843367,0.024479260085102268,0.10786200991548009,-0.09574581009580879,-0.07484069318958057
0.298,-0.0508973196398176,-0.05043809034859005,0.00011587651822412054,0.05200726157947281,-0.02779284703586284,-0.026000456894608736,0.03295478958937356,0.021484520925848693,0.0209340428953605,0.10828924058400499,-0.09715658317641629,-0.07382340590538028
0.3,-0.05161198921913589,-0.05571372056474287,-0.004528251568658978,0.05405364719897512,-0.025831266197090714,-0.031603463353740834,0.03185805450904427,0.018539755813607246,0.017204909766148014,0.1054899411783776,-0.09984031566742416,-0.07362238807670028
0.302,-0.051436174442359435,-0.06098845915537126,-0.009910265834760712,0.05639058438557702,-0.022174101253421778,-0.0371190028945735,0.027644850874700058,0.014744777602569654,0.013143853414691412,0.10212667011294528,-0.10359055445004968,-0.0755758070560222
0.304,-0.04926222072568855,-0.061637327944522376,-0.012524000078949084,0.056409142433393546,-0.01897273793870587,-0.038129275750892,0.023072687991456422,0.011653628976446874,0.011171295403288055,0.1038287670388881,-0.10718885390600064,-0.07902217794625019
0.306,-0.04912859002856304,-0.058312354016066034,-0.009021171234148181,0.055572572175841016,-0.02062160762861043,-0.03388958854028194,0.022555500810102918,0.014197429476483881,0.015725506609073722,0.1139375600624327,-0.10796170099806947,-0.08120233971333131
0.308,-0.05480909219145475,-0.056330485468783976,-0.001113492821607068,0.05725786777919698,-0.027925807008921173,-0.0287282124809173,0.025870473231199922,0.023499255458763475,0.026424362734940237,0.12818991430685756,-0.10570536258126625,-0.08097926226663507
0.31,-0.062444556133702284,-0.05931404650804257,0.003461246206483871,0.0615878260251389,-0.03439788089695595,-0.028708682490775527,0.02813252272076418,0.03311144687910579,0.03601786254621684,0.13764492424055286,-0.10493974180744488,-0.08095510275994611
0.312,-0.06442661730376498,-0.06510242340564107,-0.0007815165369519704,0.06514268266263602,-0.033077750452309075,-0.034989478095424444,0.026494554104429708,0.03667256560697539,0.03849842471553481,0.13873460897758796,-0.10928537340484816,-0.08360431780502943
0.314,-0.05946145738347218,-0.06816972445516131,-0.009194126891024139,0.0649316402584804,-0.025773179655650687,-0.04122144488537932,0.023328233138066583,0.035391262849402846,0.035863242162123006,0.13706480196245596,-0.11547996283675739,-0.08693574255537932
0.316,-0.05306916365616573,-0.06585942405883975,-0.013191472580834546,0.06107053003328039,-0.02012053227714503,-0.041105680906165135,0.02164495044246351,0.0343564113667334,0.03396800903855892,0.13886642918664135,-0.11687659091918222,-0.08680077855665279
0.318,-0.0508410231203461,-0.06203953575016336,-0.011215635952117005,0.05739541098685757,-0.02021000214164321,-0.03685448900800965,0.020796853936905915,0.03521604281797993,0.03478899475883033,0.14298298112320768,-0.11187452139291695,-0.08280173243937443
0.32,-0.05435383094853233,-0.06263658038199932,-0.00810307957840493,0.05864219789932447,-0.024187749080683767,-0.035584743946960165,0.018719831647122594,0.03650760469445394,0.03636748994894673,0.14495392667674864,-0.10540310632768386,-0.07877847559120227
0.322,-0.05997633632378808,-0.0678826875697594,-0.007924532154247163,0.06445673383339806,-0.027423017161622543,-0.039562070419641056,0.01619510825644842,0.03837125682971678,0.037918624951279914,0.14553618371081814,-0.10248147169791383,-0.07710940959674997
0.324,-0.061998895395719754,-0.07326047528315767,-0.011663289100504081,0.06940476800242049,-0.026330461464646772,-0.0452424216549093,0.01590496390383666,0.04212495657633663,0.04060193620012686,0.14992784991490002,-0.10333834000279274,-0.07624488015302258
0.326,-0.059566514462117394,-0.07647112939114922,-0.01754501693766877,0.07032010921201992,-0.021986836553221863,-0.04925045911662651,0.017789416756036142,0.046594404765209575,0.04442651184356905,0.15918995799598554,-0.105099372445395,-0.07481009272703068
0.328,-0.05741759030004527,-0.07785075918063335,-0.021051192798294864,0.06901836047908931,-0.019470032990482288,-0.05028508881679784,0.01862617586863991,0.04924524583902698,0.047879756423024826,0.167579953128827,-0.10608284582833778,-0.07388592656423104
0.33,-0.0586547762038437,-0.0769265522052543,-0.018781207265389135,0.06790429647300261,-0.0217118604119057,-0.04804253421511511,0.016663665764555146,0.050078637874002095,0.05030469696416977,0.16990722755225515,-0.10690713558962149,-0.07406909815319229
0.332,-0.06097496056165102,-0.07361891787214263,-0.013207755405882647,0.06717549919543156,-0.02572906704463313,-0.04392232793265119,0.01344028561218612,0.05107487182662352,0.052502511947123874,0.16778478722842102,-0.10797198861419556,-0.07412405516119182
0.334,-0.06075130036088619,-0.07007047843728238,-0.010143075736127556,0.06602802426070087,-0.02669512975436356,-0.04085798369399671,0.010530763600968043,0.05247268528132094,0.05445247961768103,0.16623695281089007,-0.1086317369579289,-0.07346343103265032
0.336,-0.056854689145591726,-0.06791683813333765,-0.012118423742387458,0.06368624684647375,-0.02349354267220308,-0.04058567928903227,0.007779042219322031,0.052518662464614646,0.054390792820735764,0.16684958710991235,-0.10968045487195964,-0.07346481473551046
0.338,-0.05036965698493779,-0.065348346428159,-0.015955699447240644,0.05936205912338925,-0.01889554524989237,-0.041202769577820174,0.005347575253065279,0.05119572717821207,0.052171921915129996,0.16764726766241464,-0.1131445993029979,-0.07574545963675636
0.34,-0.04448225642430813,-0.059513260427780365,-0.015577440374718107,0.0536063581475462,-0.016886322660482293,-0.03847266640568986,0.004733959057025087,0.05138310796104799,0.051240253268054474,0.16815895348490711,-0.11820548072850756,-0.07981627052562033
0.342,-0.04310341893378159,-0.051512030333635606,-0.008450067530583071,0.049057155699494086,-0.019533259063367964,-0.03131187373839854,0.006708494398433018,0.054813940953675123,0.05424182456885699,0.17024572799416507,-0.12093025978446532,-0.08299730709375017
0.344,-0.04617125173998283,-0.04685038522645466,-0.0005010484507893388,0.04801066824029,-0.024026664760708298,-0.025064781179001582,0.009682311933131231,0.05924468524170335,0.058923670469350126,0.17378139662492764,-0.119476971444971,-0.08369904221761804
0.346,-0.04937801294875246,-0.04974533412138033,-0.00037558402590436176,0.0505179241800792,-0.02522417323748829,-0.02596311700356097,0.011459698724574858,0.06158625226066283,0.06135538551194933,0.17589738707399755,-0.11653472246660405,-0.08381858317296437
0.348,-0.05014729820184502,-0.05749614398313726,-0.007738028646451094,0.054793640174068264,-0.02254230472449601,-0.032669779094399616,0.012325331462807872,0.06196535497667555,0.06152723659380914,0.17562655438791655,-0.11536070563658991,-0.08559093450105949
0.35,-0.0501516145387669,-0.06320150301779023,-0.01370908938426623,0.05826889282220076,-0.020284419126226687,-0.03796152339976094,0.014454163777054684,0.0628172094282398,0.0627677094099304,0.17553583953159071,-0.11560365471848331,-0.08773270798998407
0.352,-0.050947278820203,-0.06413796042122653,-0.01394539141769294,0.05922121876925059,-0.020466921552695975,-0.03892158453056671,0.017513199736688197,0.06516423399138309,0.0661403546014827,0.17747457606046943,-0.1146157652476121,-0.0877919615041654
0.354,-0.05082477571357572,-0.0631998129560474,-0.013216518229585025,0.05780755037430808,-0.02038860371918107,-0.0393290936270071,0.01752755948904558,0.06713180614080398,0.06845531837860684,0.17906347103161993,-0.11216590944566754,-0.0864439557365144
0.356,-0.048674804380682564,-0.06289234189222587,-0.01518140153645952,0.05572463876788255,-0.018585688429982747,-0.04142112519585413,0.012347100482601956,0.06611092471590484,0.06660109632265208,0.17601745149655595,-0.1112343876357973,-0.08612863335466851
0.358,-0.04721067428513419,-0.06252804901100732,-0.01624074006695943,0.054837432109790606,-0.017813048245780914,-0.041956537175991154,0.006099394767135735,0.06222815933181451,0.061909632842525875,0.16794663848697255,-0.112609512149252,-0.08660636657754879
0.36,-0.048384236356141155,-0.0604207637339805,-0.01260735832207026,0.0550716316692655,-0.0199820945985516,-0.03792433744284253,0.005006925418510737,0.05883039089385686,0.05898995670364466,0.15995732643617228,-0.11239218357084411,-0.08479662787990422
0.362,-0.0498292488545013,-0.05628185288018565,-0.006534830778860988,0.05454224586947313,-0.022931886528489955,-0.03146122959258294,0.009691638274791598,0.058655061378543684,0.0602727122998173,0.15663880531347255,-0.10821713248320755,-0.079285953412081
0.364,-0.04976018687090253,-0.0521641579346083,-0.002188167285656367,0.05287557072127506,-0.024592432187853758,-0.02713374521106275,0.015179175568395185,0.060690009754762304,0.06306286325300238,0.15663249147004168,-0.10382525946308448,-0.07308055154010026
0.366,-0.051202469191094155,-0.05136043425047004,9.3750865199949e-05,0.052792129401537255,-0.026585164405798212,-0.02658275431689662,0.01808099431778467,0.06186351645911795,0.06327727012745137,0.1558789907855456,-0.10364547849970616,-0.07037023725368316
0.368,-0.05683191898849805,-0.05509638222290631,0.0019043831352600947,0.05652774167753889,-0.030541894733251775,-0.027991971969477884,0.019563440145424202,0.06029508226973453,0.059980952015176336,0.15336334316239375,-0.10661074024000478,-0.07160089967577989
0.37,-0.06277466088694594,-0.060270542927695264,0.0025114414491457047,0.061572217362903685,-0.03373754808637038,-0.029466677507083632,0.02162819563187241,0.05631195655895479,0.054815903002336804,0.15033716757783983,-0.10838464644638583,-0.07353794808612399
0.372,-0.0627418639606563,-0.06194081792273317,0.0006064693891675646,0.06261302380764626,-0.03255460331834282,-0.030400948587462912,0.02497682182229954,0.05203370177495675,0.050069194875777524,0.14697634913002702,-0.10651955398270858,-0.0732801995332078
0.374,-0.05617168821596991,-0.05860802704705694,-0.0026832666706181037,0.05794387704633451,-0.027825716346192818,-0.03077143084348322,0.029649078166307536,0.04979894846941062,0.04786172395096294,0.14243269981199047,-0.10165712120245744,-0.07074972786628819
0.376,-0.04825703332772203,-0.05371455067048281,-0.005546377783753191,0.051558761479569566,-0.023182869846475936,-0.030852935317805558,0.03382935746065589,0.04953444460246625,0.04780493663748171,0.13572331711801613,-0.09660077006169406,-0.06799147602494143
0.378,-0.043504550836445395,-0.05117570166241195,-0.007592325018192351,0.048074294699450494,-0.020361402572755892,-0.030785350404748352,0.034171998836643465,0.04846714730294843,0.04629818332536695,0.1264256607122134,-0.09492102039097294,-0.06688845749116372
0.38,-0.041977378787044856,-0.05147608726537385,-0.009408192553868867,0.04789928412803818,-0.01846866522392568,-0.030695275658490753,0.030227405795756484,0.04460765641753867,0.0414139114902082,0.11643678324195103,-0.09776734204357013,-0.06734115695924428
0.382,-0.04167595622127378,-0.05307228780607599,-0.011392982403808186,0.04885492527580297,-0.01666581456643802,-0.03133135761237834,0.025824050053307925,0.03963857200745004,0.036483482415538955,0.10926774110299406,-0.10200230124416583,-0.06752562162148827
0.384,-0.04139706742319148,-0.05442656241482453,-0.013076792170700697,0.04938763103220492,-0.015205897249832054,-0.03300210808492334,0.024388875038688255,0.036995864089950384,0.03567155776273005,0.10618186666777574,-0.10326155803001602,-0.06593373614125148
0.386,-0.04005825673251785,-0.053781784235693075,-0.013748184244266118,0.04846179364059923,-0.013978146255290376,-0.034331617074776936,0.025199451308474324,0.03763620661214675,0.038281923682917135,0.10524700139120545,-0.10026927666304829,-0.06300400702707962
0.388,-0.03725529886225718,-0.0500786626000274,-0.01280947858513823,0.04562502362859783,-0.013123742344254981,-0.033194521439185075,0.025698074466935117,0.03922822945806076,0.04026575485944703,0.10446992202562536,-0.09542089040267177,-0.06068876612454544
0.39,-0.03471854614601418,-0.04422573167923189,-0.009487118546959307,0.04174485508640729,-0.014189546428307262,-0.028720398017896095,0.02594876459498016,0.03922238374549354,0.039418957227399715,0.10344865600249648,-0.0918503219735545,-0.06052047525500859
0.392,-0.03338398588620943,-0.038172952519249535,-0.00480888662632485,0.03775500020042157,-0.016946083844071404,-0.022770604694421034,0.02810787171002557,0.03738355145921838,0.036818303361806866,0.10224458755526546,-0.09029154383809182,-0.06209525999889841
0.394,-0.031495966244481456,-0.03445887030177262,-0.003126138849273983,0.034421348032188985,-0.017536585474362182,-0.019599965071002562,0.03161330792396466,0.03479709817984447,0.03370468140160842,0.10017621192694996,-0.08949976825267064,-0.06379449645294193
0.396,-0.029703239740683427,-0.03703082086921649,-0.00781412358451787,0.034683568636986135,-0.014149790667875842,-0.02309618628476157,0.032576422110896605,0.03123457019693869,0.029031064491827158,0.09592050400636087,-0.08936337593837992,-0.06516958711073698
0.398,-0.03356910547768481,-0.04858275508373907,-0.01591428676043757,0.04255313678618426,-0.011415876319609022,-0.03299238842876946,0.029497494533547608,0.025909296910362353,0.02237946141232567,0.08987076996329195,-0.09072740228895021,-0.06700653033385676
0.4,-0.04476721129082496,-0.064442945644453,-0.020808150873032123,0.05607468294822648,-0.013928596821058981,-0.043441602047295406,0.026094488141465626,0.020616075893213782,0.017281437763681833,0.08551258021676009,-0.09247018478888204,-0.0686151308392588
0.402,-0.05441252316161709,-0.07312078314071507,-0.019687461235550423,0.06512283121320918,-0.018711042820877537,-0.047140434737485165,0.026404767098837736,0.01827026864013436,0.017027636532251988,0.08515547029288043,-0.09254770534503176,-0.06802539173495606
0.404,-0.052905538461759424,-0.06737747508883993,-0.014980718940289506,0.06165005048922894,-0.01997407657940447,-0.04181416286105444,0.030193439822083366,0.01856747757430818,0.019349688417503157,0.08628266545338355,-0.09156982308194084,-0.06522514769938459
0.406,-0.0423937733164536,-0.05254543965369593,-0.010173904067905325,0.049249417136035194,-0.017556429209761453,-0.032100915493506285,0.03430816090027989,0.01855458742609653,0.019614667504864618,0.08547517367664065,-0.09223570596727686,-0.06259550882279347
0.408,-0.032847845131608384,-0.040746330348736336,-0.007709440315377143,0.03834748039037547,-0.015065015100719512,-0.025353700977344438,0.03568488357947934,0.016316852124629425,0.01645045404534433,0.0823244000405986,-0.09558251445544066,-0.06278429011618882
0.41,-0.029408110706466636,-0.03827783237200353,-0.0087622693521756,0.03474416446006638,-0.013413461095306231,-0.025155229385588545,0.03332826072542246,0.01215876486754447,0.011660836244581637,0.07801898873455057,-0.09951041242225177,-0.06672691872770621
0.412,-0.029445758270598,-0.04179336015104328,-0.012388890398014626,0.03641048465595452,-0.011107530788708003,-0.0288502069386465,0.02930180773426376,0.007653416085904943,0.007451003335989086,0.07420986964140713,-0.10112447773803565,-0.07215180868867731
0.414,-0.030186360615180922,-0.046332147992634284,-0.016221332266183868,0.03967607330033825,-0.008557532066304621,-0.032303860916440066,0.026539929832252653,0.003441900748360155,0.0043281402815605954,0.07221823114664996,-0.10020739924644477,-0.07506632192639602
0.416,-0.032577494393892764,-0.05119162635015464,-0.018628109972846762,0.043583811613566475,-0.007902217890948665,-0.034756706087628084,0.02551586898060277,-0.002175797171021707,0.0004544367187620383,0.07069043432143536,-0.09932373988286088,-0.07368890330071362
0.418,-0.03625687220476709,-0.05547281130986299,-0.019181910250004517,0.047040439315005955,-0.00922385076776693,-0.0367196355136848,0.02473358086829975,-0.010156891525960152,-0.005619455406114752,0.06680510939681407,-0.09992183953283498,-0.06950772006134556
0.42,-0.037138671407098686,-0.0548676827320144,-0.01770525653559737,0.04690876780673097,-0.01030709320565751,-0.03652822765111613,0.023326753177923057,-0.017891751162920064,-0.012441810339131169,0.06045006684843665,-0.10044341781879562,-0.06521242647678246
0.422,-0.033730523407098395,-0.048114103389984765,-0.014390780459360224,0.04260376167653844,-0.010420772183369275,-0.032729740775567,0.0215811344966515,-0.02267497744864927,-0.018175627407955124,0.054049884600546605,-0.09945153368297803,-0.06326966498145577
0.424,-0.03078743362146879,-0.041568452022319055,-0.010797396577200524,0.03887954175710934,-0.011239293991020834,-0.027942851792958464,0.019914677471858423,-0.02565286597588778,-0.023520527128479327,0.04862962786193347,-0.09828524771033113,-0.06509618399779295
0.426,-0.03281063488039702,-0.041808738413861256,-0.009001991585926461,0.03999857484590878,-0.013493754505817832,-0.026441436154900872,0.017968761967139455,-0.029823128157137162,-0.029924432157470995,0.04278603338530268,-0.09901692378221569,-0.06955218909820243
0.428,-0.03805210002051905,-0.046694063518771096,-0.008634883958869933,0.04388620572244272,-0.01608502265240156,-0.02808988076177527,0.014975403749594695,-0.03537927076787559,-0.03628428192205188,0.03566992525419804,-0.101119312855491,-0.0728311198734893
0.43,-0.0413756524831134,-0.048611092684844155,-0.007229937996470001,0.045336123749686597,-0.01807494232601143,-0.028649958930666134,0.011919584667878864,-0.03881497516480133,-0.03922298711911943,0.029384422571267565,-0.10170504942335443,-0.0717181430448072
0.432,-0.04017769739239184,-0.04517044901947823,-0.0049939871863091045,0.04289906789016822,-0.01873226406811797,-0.026737857563841977,0.011873708647512622,-0.03790406999421204,-0.03765024991833872,0.026880078428852507,-0.09918792986532192,-0.06727952439735282
0.434,-0.03719860643377867,-0.0423586262363623,-0.005163612587663996,0.04053113951705863,-0.017872721901030612,-0.026045540337861613,0.016171054712444042,-0.03614517169448136,-0.03581211222654706,0.026946732407777375,-0.09553875143645504,-0.06379469301594233
0.436,-0.037909233591179446,-0.04651772815946767,-0.008631475971097254,0.04301557092243475,-0.017089273898450042,-0.02954537273897422,0.021664478157221577,-0.038908056463621304,-0.038885241692743676,0.023798919726060203,-0.09415391796343814,-0.06393923233890637
0.438,-0.04391860384996163,-0.056803109000009275,-0.013014357850559509,0.05063777886588961,-0.017567361537855042,-0.035847461330132765,0.023729066206928624,-0.04648951389231779,-0.04687755224747228,0.013811199867392007,-0.096777233439336,-0.06712779606270647
0.44,-0.050580715364041955,-0.06736072804250726,-0.01710616437719626,0.05907212121355083,-0.017650760267287867,-0.042439576132312494,0.021276691781020807,-0.054898005614113475,-0.05630368033537747,2.8815734593553753e-05,-0.10287814075272532,-0.07211544995057265
0.442,-0.05243356076501537,-0.0735768526093436,-0.021588029751515067,0.06365658082217115,-0.015312443642956357,-0.04815440705388943,0.01759437718138259,-0.061989046685285,-0.06521551526996301,-0.012053375575598185,-0.11023590010175274,-0.07804770259528337
0.444,-0.04965143748681073,-0.07465520804217245,-0.02541335046274601,0.06326021444683674,-0.012092364344266124,-0.0515976101980758,0.01639228657407984,-0.0688745310993354,-0.07291770652848943,-0.02051663351188095,-0.11596164066566897,-0.08317412975813888
0.446,-0.04789726373214135,-0.07317321002860243,-0.025731216328993486,0.06119545865685203,-0.012044543060186545,-0.051420361812486146,0.01767873273414502,-0.07612679350999518,-0.07790703328514262,-0.027372953550564464,-0.11833084611063675,-0.08566786692916727
0.448,-0.05089572650244049,-0.07233576310471808,-0.022197220404168227,0.06140990246706653,-0.016068913812341545,-0.04856110985818393,0.01833195059506462,-0.0820556479344207,-0.07954092185510248,-0.03472975183245333,-0.11783183196739754,-0.08567396054316438
0.45,-0.05544964731214182,-0.07246929126629123,-0.018114958812697344,0.06365656560503645,-0.02021649612997682,-0.04547902275736804,0.01643338106188571,-0.08532463716998627,-0.08013844024995188,-0.041990858993865225,-0.1161667755656339,-0.08473849383172471
0.452,-0.05633999966859538,-0.07160922915676188,-0.016426591563498846,0.06460835639172582,-0.02091662176500275,-0.04363309432225255,0.01287024537684092,-0.08749907099798918,-0.083357468707179,-0.04762081630440536,-0.11482536450620069,-0.08416153888633908
0.454,-0.052678518203324774,-0.06870798021540535,-0.016942084862365977,0.06234980471768522,-0.018542751066717326,-0.04278225540545186,0.008781091093961529,-0.09196924146011441,-0.09060837261171201,-0.05298944783934444,-0.11473347698410509,-0.084506332938115
0.456,-0.04763549157012657,-0.06475254376828336,-0.017694056836813816,0.058065787924433905,-0.01568915902666169,-0.04198903811508063,0.0041393092795892535,-0.10020735842629809,-0.09998895465575681,-0.06133354659871598,-0.11593661311293452,-0.08540301586886619
0.458,-0.044567963344664695,-0.06102030484132609,-0.01681707907975882,0.054058321805661634,-0.014802664834331325,-0.040229139146627915,-0.0006819132604094432,-0.10945121823260465,-0.10841237738018691,-0.07225000933729508,-0.11742127907789304,-0.08583191111590255
0.46,-0.04389729822254542,-0.05677038880859262,-0.013148174081236719,0.05071773066968969,-0.01665940005888021,-0.03623520826443919,-0.0034335309269526255,-0.11567896088049245,-0.11419576763595443,-0.08132499952841031,-0.11846553390536937,-0.08523899737440525
0.462,-0.043814846857403514,-0.051623393916820116,-0.007968607249613822,0.047522103635877985,-0.01939905519999027,-0.030599844978196386,-0.0017315940551754906,-0.11912170495883188,-0.11847280417292419,-0.08702131796918974,-0.11960554972356877,-0.08431932110465916
0.464,-0.043391839334896466,-0.049414420269944165,-0.0060213980675446616,0.04619998751589586,-0.019799509068878493,-0.027896518943658744,0.0030971251891773084,-0.12387205798610368,-0.12362648525546581,-0.09329001951879191,-0.12124770047473118,-0.08427985708739019
0.466,-0.04319011281359552,-0.05350167167069933,-0.010248692240246625,0.04865167878657881,-0.01697152464369035,-0.0317778379429342,0.006166601880014963,-0.13160773774670628,-0.12978251078638153,-0.10277821148551013,-0.12255600500055672,-0.08519903867001054
0.468,-0.04417932584062363,-0.0604256349524098,-0.016352523899113795,0.053311365065499085,-0.014330000666304025,-0.03891702814941377,0.004191041547568515,-0.1393826056365065,-0.13498333108463015,-0.11238346538915442,-0.12269669292691315,-0.0858585819666403
0.47,-0.046505030717243476,-0.0643645383098781,-0.018339329118812208,0.056857670255622494,-0.01522993674334219,-0.043222481553389556,-0.0020392242754485902,-0.14390685059540737,-0.1385677275174527,-0.11809673846380626,-0.12197101585344457,-0.0852548191123845
0.472,-0.048349908587346994,-0.06458584056759768,-0.017043652477428322,0.05785958935021887,-0.017670603136289573,-0.04378464246596405,-0.010412577617989699,-0.14502582399219133,-0.14160891369434891,-0.11992828971622035,-0.12079655528597931,-0.08381829003723329
0.474,-0.04841237436469243,-0.0642608611596463,-0.01668582429993562,0.05765205495151441,-0.017970810303528498,-0.04364873170558818,-0.019130716136611613,-0.14545566623069822,-0.14502095764275877,-0.12076088056640827,-0.118847370367469,-0.08336240656162029
0.476,-0.048779982096031876,-0.06526924639702682,-0.01718325451811927,0.05844859316573351,-0.017245202888055068,-0.04399059112095314,-0.025887981531538266,-0.1488318545023188,-0.1494785689184791,-0.12345743063592372,-0.1165825843695789,-0.08555171750383567
0.478,-0.05163101537388356,-0.06740192193655474,-0.016491567487834268,0.06090698649559737,-0.01858683476631108,-0.04427878661197132,-0.02925345823853738,-0.1562325416493636,-0.15541994575876353,-0.1289946421040149,-0.1158777391424124,-0.08986635766073921
0.48,-0.05566069187059945,-0.07039005869759732,-0.01566092493693848,0.06404745123761807,-0.021457503344913174,-0.04504091071574123,-0.030888078201803726,-0.16419074190924407,-0.1619247324141264,-0.13593418112517508,-0.11730659169555555,-0.0937175481904458
0.482,-0.05856833357231387,-0.07409901374314735,-0.016523266275542,0.06695469668012942,-0.023351461972126827,-0.04698108898139287,-0.03369958126498556,-0.16923160214840138,-0.16804989158625072,-0.1421888135126195,-0.11938751325964202,-0.09559490174710288
0.484,-0.05955764579757196,-0.07719723412112293,-0.018403799695448347,0.06880461159130422,-0.023375453433170025,-0.04931939556046611,-0.03760952388724273,-0.17279860970156907,-0.1745472339706214,-0.14673349533333305,-0.12164936830981585,-0.0971969726918655
0.486,-0.05870360003585396,-0.07756679325523821,-0.019397911608652983,0.06852579072942598,-0.02215541634326605,-0.050329306318837565,-0.03916734413151878,-0.1774240112115694,-0.18116538235641372,-0.1494103488804571,-0.12465037958481431,-0.10061298868497083
0.488,-0.05751843243386742,-0.07581916091218395,-0.01885409867207372,0.06714164235962024,-0.020918866804231582,-0.049495968420948264,-0.03641097248543807,-0.18129954273201535,-0.1847147691343435,-0.1508653192217067,-0.12702913056298346,-0.10454162175000069
0.49,-0.058361801150603805,-0.07576233186902837,-0.01808118823394344,0.06757323543413059,-0.020719658993342667,-0.048607081456815436,-0.032407190858795294,-0.18160892873416679,-0.18320891946442275,-0.15223496416212945,-0.12678000000328643,-0.10564927099380624
0.492,-0.06059796526179584,-0.07834539578294243,-0.018472751683066117,0.06972401344960796,-0.021384581867386777,-0.04913368039244228,-0.03200354030599926,-0.1805522438422447,-0.18004064842043563,-0.15419312810974392,-0.12493004649778346,-0.1028490037254875
0.494,-0.06151848689634539,-0.08026450279100565,-0.019399592247400937,0.0709399792217758,-0.02224292469408517,-0.05021999811855334,-0.03628538329497839,-0.18365568768330676,-0.18163915065631048,-0.1580663345461489,-0.12472866150590747,-0.09852183532163063
0.496,-0.06135397105362215,-0.08080369501079052,-0.019814236457854805,0.07167742005666973,-0.023014440193691598,-0.05130601796960307,-0.041978214351191576,-0.1924198683699702,-0.19066330809339588,-0.16596793121638825,-0.12710190641795316,-0.09547913398770755
0.498,-0.061929860305266024,-0.0828640284525499,-0.020779889113629334,0.07396183680730757,-0.022765059013490407,-0.05358563753896307,-0.04521148426578556,-0.2018026804448575,-0.20224713910767872,-0.1766137929834865,-0.12875679269272783,-0.0936913835272413
0.5,-0.062357227644541026,-0.08613908843193321,-0.023256959539056793,0.07594953909200537,-0.02072902718866136,-0.05666111320723194,-0.044507439821054734,-0.20644361116012908,-0.20887524560237072,-0.1847614831637491,-0.12611698240909125,-0.09124127495778271
0.502,-0.06051907760581762,-0.08628673182729084,-0.025367349605567743,0.07421189203631005,-0.018276361646463766,-0.057447119696599894,-0.04106756205421166,-0.20677306578591093,-0.2088244163756137,-0.188028320362951,-0.12029971292941313,-0.08786747107174896
0.504,-0.05689739413888287,-0.08235502261282303,-0.02545966758113268,0.06973286912640679,-0.017033780891013,-0.0550115144607051,-0.03793140251342217,-0.20721655138640507,-0.20743342174314364,-0.19010128677259513,-0.11641489577852548,-0.08597951316171
0.506,-0.05458193528456946,-0.07926990928796755,-0.024898276470967866,0.06731470847212243,-0.016789550684718664,-0.052793250581499106,-0.03828206303235044,-0.21114327862032808,-0.21066833761360043,-0.19529413009798907,-0.1180623738595852,-0.08815845687820027
0.508,-0.05547113984944015,-0.08032363351173913,-0.024959676209360827,0.06908553443561824,-0.016991032486093502,-0.05340571773813279,-0.042551651455008443,-0.2190145790579403,-0.2193014501552291,-0.203453738703352,-0.12350801910747268,-0.0938352001221839
0.51,-0.05809222016401485,-0.0823192740478024,-0.02416723562428518,0.07188974644830165,-0.018096561088669874,-0.05473691256988196,-0.0477738404487316,-0.22850852973052233,-0.22858836354756104,-0.21113460954135055,-0.1274823483159768,-0.0990967213310747
0.512,-0.060305411535487845,-0.08064136575904327,-0.020271089978176695,0.07203355837636766,-0.020870665642503214,-0.052900119470275585,-0.0509619913154786,-0.2356183580752968,-0.23358768027035717,-0.21594788386611627,-0.12665916706351274,-0.10097313846372671
0.514,-0.061261626701933386,-0.07478855983231732,-0.01367096806602537,0.0691621731070914,-0.024614945626808563,-0.04684904443098122,-0.05158029304757937,-0.2383792062009263,-0.23493088206754628,-0.21877097317740693,-0.1228674491042408,-0.1005273773531585
0.516,-0.05994895574643824,-0.06787417465711408,-0.008448684845141968,0.06485824841586668,-0.026531250074160413,-0.03980583030938662,-0.050302601238603174,-0.23909717678725606,-0.23701244671022717,-0.2217266739791836,-0.12033324339986207,-0.1001259197293529
0.518,-0.05616992242977708,-0.06327000778572966,-0.008006887897254102,0.0608519610473919,-0.02515380658965164,-0.03615290013904488,-0.04804388046303876,-0.24109012657679732,-0.24149423031865003,-0.22572990038125068,-0.12061088627077578,-0.0998199822719273
0.52,-0.05324137597477915,-0.062098328798393526,-0.009873287078963285,0.05890507819732932,-0.02351987651497298,-0.03652602486364875,-0.04667678890403998,-0.24504154648933563,-0.2463642876057347,-0.23083878494527918,-0.1214752166076802,-0.09824962749621825
0.522,-0.05489550199938306,-0.06371700624412949,-0.009586069444740013,0.06009474069076194,-0.024945057661746272,-0.03816246150014377,-0.047990228107118095,-0.249677469726009,-0.2501422710252359,-0.2368933920159577,-0.12061201897544008,-0.09557751920639276
0.524,-0.059390331949158305,-0.06789988155476376,-0.008917953454590306,0.06383826852407619,-0.02704003539925612,-0.040360448951546134,-0.05153753144912311,-0.2541900948549188,-0.25381865734848114,-0.24308290070652,-0.1191563360579726,-0.09411010313871886
0.526,-0.06104338284863633,-0.07404631438284544,-0.013221806110804157,0.0678998023599789,-0.024824486862007524,-0.045023477753236084,-0.055107670613196894,-0.25850655435688397,-0.2585693601846435,-0.24813837650095494,-0.11993415219997072,-0.09556680724369403
0.528,-0.05743984492348165,-0.07859770310473627,-0.021387822159357,0.06928194726589285,-0.018465854783830813,-0.05087934502703791,-0.057011544856753985,-0.26202108638292254,-0.2629425164274739,-0.25088298567007006,-0.12289839193813827,-0.09820615989586673
0.53,-0.05195617971328107,-0.07786135885060305,-0.026266138032333634,0.0667959083364166,-0.013235550905051989,-0.05321848076197593,-0.05727800989521569,-0.26419857599324614,-0.2644262507419778,-0.2510980831396499,-0.12581161469213623,-0.09931997485433065
0.532,-0.04890354750317775,-0.07320534020651866,-0.024810374234326422,0.06274073027822125,-0.012455578047513393,-0.0506283581421956,-0.05732253571993243,-0.26589492493179556,-0.26386664038854696,-0.2507384378390251,-0.12866133302097596,-0.10016647842470681
0.534,-0.048284517871296416,-0.0687018778995603,-0.02098710981375681,0.0597549852118547,-0.014242731596459396,-0.046360449638210684,-0.0585825513889274,-0.26834925570769147,-0.2650477746211532,-0.2524978946315687,-0.13285582971453846,-0.10385062844742263
0.536,-0.04763155120342085,-0.06546673774843013,-0.018368687989619676,0.057850864700049694,-0.015863160451434134,-0.042898598707226704,-0.060940854792694,-0.27169906246161324,-0.2693105336768961,-0.2562815853474942,-0.13721232633708746,-0.10922304253111755
0.538,-0.04739745336701972,-0.06234430829870469,-0.015405729667837282,0.05657637116901842,-0.01801210808243021,-0.03959691822594855,-0.0625950016367717,-0.27479571665665264,-0.27367407289656936,-0.2591516399747529,-0.13899852142386704,-0.1119077224283737
0.54,-0.05047384732686146,-0.060200300790299525,-0.010068036480034332,0.05734365690986559,-0.02234128544026654,-0.036076690579723694,-0.0617549204453507,-0.2759174119512074,-0.2749938016175074,-0.2595655030560808,-0.13774283389125194,-0.11022413141603356
0.542,-0.05704750328954149,-0.06230135920075765,-0.0054017641492802165,0.06163386206754465,-0.027148694860938006,-0.03504091327586243,-0.05842044559676672,-0.27449897532161704,-0.27355407620512967,-0.2596471860327744,-0.13513748607238565,-0.1065294496951178
0.544,-0.0622590864768692,-0.06918209747829013,-0.00688243852787175,0.06734451522250187,-0.028098510936554286,-0.039142396675796796,-0.054808367048225164,-0.2722024827358083,-0.2718561863271921,-0.261568475995177,-0.13305900669953846,-0.1041324876724397
0.546,-0.06022512809874347,-0.07517516836012014,-0.014874934121982104,0.06910033076809204,-0.023040276544081167,-0.04601250535555722,-0.053926923094247965,-0.2717769974541923,-0.272096912330107,-0.2637042870569282,-0.1334621012982353,-0.1048094646246433
0.548,-0.05213769071170166,-0.07427549361439179,-0.022259290307467098,0.06480851847511611,-0.016008567277760115,-0.049619108944279365,-0.05627734115578235,-0.27438243413361096,-0.27475986531393143,-0.2629683047654988,-0.13701108485251612,-0.10750024026787525
0.55,-0.047028338630512895,-0.06863700364945938,-0.022102335934630665,0.05973027782804522,-0.014128659992323492,-0.04737457488368576,-0.05841732152823618,-0.2774149300543607,-0.2774361152638111,-0.2593652755510948,-0.14057516032741632,-0.10860689180198112
0.552,-0.05024619143033643,-0.06640922789939863,-0.01694710327669806,0.06020469231323604,-0.018347065106080855,-0.04383739873796761,-0.057382783286709524,-0.2772823547609292,-0.277087121946041,-0.25604740143449267,-0.13989122217407174,-0.10593975639250476
0.554,-0.05640837620741805,-0.0711822354526127,-0.01544958283295369,0.06549596629842551,-0.02183952269025239,-0.044969061850366754,-0.05533256611032231,-0.2750071941995058,-0.2749005547091711,-0.25578688784739645,-0.13496513671494142,-0.1017453186031809
0.556,-0.058906706616816504,-0.07878621752351377,-0.02006783560985836,0.07042791483359916,-0.02049089386466428,-0.05042232586178187,-0.05641127900252321,-0.27464931614500626,-0.27481389872369844,-0.2585721051454749,-0.12957045658025587,-0.09924891044882476
0.558,-0.05952275377629788,-0.08489670900022933,-0.025063124233412937,0.07366426463825942,-0.01831033915596832,-0.055459946148578014,-0.06052706073217643,-0.276482468909487,-0.27722344428489915,-0.2622162788708319,-0.1265668730714535,-0.09856597010018958
0.56,-0.06218536194816789,-0.08959944912398862,-0.02688449229335187,0.07727547194636342,-0.019014498508657073,-0.05833149153841371,-0.06353712122809278,-0.27703922410541887,-0.27868676882750737,-0.2646166245665374,-0.12619633502379943,-0.09831051453788908
0.562,-0.06441574030240176,-0.09351680022370837,-0.028669018863854628,0.08032098169695588,-0.01954400836116659,-0.060960670014615775,-0.0628865479732718,-0.27536725772893345,-0.27743925079339665,-0.2654878282917527,-0.12765069372116308,-0.0985466474953795
0.564,-0.062141359901111665,-0.09458560245087541,-0.03229117364239631,0.07936007732154877,-0.01659864394746161,-0.0635337470794579,-0.060651630969651586,-0.27444852929384705,-0.2755912323721864,-0.2658938992735191,-0.13036408588041948,-0.10031087546112877
0.566,-0.057531937438582086,-0.09063376857117363,-0.033181873657298945,0.07445414200495064,-0.013482647772178115,-0.0629128240973485,-0.059910349877824697,-0.27605640590076397,-0.2752817624281526,-0.26588955227690064,-0.1333967719914535,-0.10330413234469847
0.568,-0.056019071219403214,-0.08401616722058458,-0.028113478830356257,0.07016096672073321,-0.014720777964710774,-0.058113255367707645,-0.06007086726572546,-0.2777384737901728,-0.27539112305788255,-0.2640648534920085,-0.13475057198547905,-0.10552489313272992
0.57,-0.05866656715030036,-0.08093581628505839,-0.022288897782949634,0.07014900530052065,-0.018422606786164798,-0.0537357209712027,-0.058767599083686554,-0.2760436727118203,-0.273617891046352,-0.26036173772097904,-0.13324573042015225,-0.1056480344298634
0.572,-0.06212317045088621,-0.08406008669179399,-0.02186407197094621,0.07344139079275784,-0.02001579611730395,-0.05406089766876831,-0.05649202536054127,-0.2710048746869015,-0.26994918828255554,-0.2570268635490078,-0.1307825325710913,-0.10456968800719933
0.574,-0.06395004562187237,-0.0888007794166386,-0.024706408532734377,0.07656023589229381,-0.019518100028941172,-0.05699772073826173,-0.05576991729289758,-0.266505821276625,-0.26702004151474,-0.25568193403788225,-0.13036655162211805,-0.10373492337242936
0.576,-0.06387407010195081,-0.08905276279901825,-0.025015221616401247,0.07684439169067489,-0.019633199069284256,-0.057532444289303576,-0.05696414877713724,-0.266046450084264,-0.2674446929400197,-0.25560858780236145,-0.13176741645955434,-0.10300715204312644
0.578,-0.061618168347968856,-0.08374593823500226,-0.02218792966759135,0.07335947428579097,-0.020229869188120704,-0.05411202384802929,-0.05800188300923876,-0.2685648884469344,-0.27037416884840015,-0.2558390280527439,-0.13212549795598622,-0.10151295454295965
0.58,-0.05661757151052191,-0.0766496455649307,-0.020532199467632472,0.0670652487641912,-0.018600887318707245,-0.04962479208447761,-0.05801813474219766,-0.27020877310975566,-0.27201550961258614,-0.25693418275367064,-0.1308811508592626,-0.09975834065334453
0.582,-0.05038088032062321,-0.07276367775611679,-0.023076216899399628,0.06142458598163303,-0.014009427178347541,-0.04828653386184811,-0.05843911616415078,-0.2698393076466458,-0.2708772215951177,-0.2590791387092525,-0.1304145684475682,-0.0993937670914721
0.584,-0.04830685853544718,-0.0759267179915332,-0.027987483669457528,0.06175042753381149,-0.010428210071458662,-0.0522058387515076,-0.06006348295064195,-0.2698350564521115,-0.26975733345878733,-0.26031783730015906,-0.13213185875343622,-0.10168549455891762
0.586,-0.0544722696380668,-0.08528607486968152,-0.030707386069438007,0.0698016512386575,-0.01240976734127473,-0.05898531796459394,-0.06170690226602228,-0.2715279464755479,-0.2710629574121033,-0.2586394926655547,-0.13498021962482715,-0.10638944294282275
0.588,-0.06408852037107625,-0.0925203370766887,-0.028181937531125432,0.0787726257051224,-0.01878673174133283,-0.06212083893136079,-0.06235563956111141,-0.27290301429033603,-0.2732895697775403,-0.25451447744530614,-0.13706377487879726,-0.1108264345492845
0.59,-0.06840435433535108,-0.08892670104011174,-0.02047229432207341,0.07988287797604103,-0.02488156154240086,-0.056490893141612784,-0.0625019347874686,-0.2714824886169203,-0.27328812472818953,-0.2501429616400464,-0.13704421787311438,-0.11161132407728591
0.592,-0.06590025017427818,-0.07627393431725427,-0.010603237115633223,0.07316708371468697,-0.028728631353208044,-0.04455173345405364,-0.06262700483994614,-0.2673098062436845,-0.2696501582773285,-0.24689679981861345,-0.13480322489692848,-0.10874468710438492
0.594,-0.06192933642370502,-0.0650598233027517,-0.003544239147831413,0.06606871782758424,-0.030673775205142906,-0.03484524620379275,-0.06190419484765958,-0.2624017090133444,-0.263697952721583,-0.24469740128025508,-0.13158609330978205,-0.10593412552741946
0.596,-0.0605747401086071,-0.06270919766480561,-0.002567164736801481,0.06393040170738186,-0.03070957366643418,-0.03347349679979113,-0.05964703385215188,-0.25875261946561656,-0.258509799898275,-0.24367434886194816,-0.12940418950706697,-0.10625827035412125
0.598,-0.06141713095704822,-0.06690640759178157,-0.0058235365718199775,0.06568034494390407,-0.029402118425592587,-0.03806171675264361,-0.05728868531110547,-0.2570720072783577,-0.2562782478463737,-0.244761395429804,-0.12998591832909967,-0.10926688376141168
0.6,-0.0622713628689768,-0.07025488940958166,-0.008266599668966167,0.06739386641036892,-0.02847150069090656,-0.04132240968168464,-0.05706901843366755,-0.2570825044109881,-0.25679785042490166,-0.2480458235605696,-0.13344506285198365,-0.11225428738805146
0.602,-0.06303820241799728,-0.07010148481003621,-0.007359849419189183,0.0681429318592409,-0.029217227306697503,-0.0402621707282618,-0.05895131113292424,-0.2591565816166521,-0.2594375571751163,-0.25157187476154286,-0.13786058740350493,-0.11322178583963353
0.604,-0.06580657280075711,-0.0712981791727371,-0.005703551306274438,0.07067890064569193,-0.031248662599620315,-0.03917429280213693,-0.060241815854890295,-0.26341410484253747,-0.2637030860963594,-0.2527953773321556,-0.14091916850859662,-0.1122508148969412
0.606,-0.07044396691187435,-0.07803467927882722,-0.007609758423584193,0.07596313960223719,-0.03231025639615928,-0.04294073434803159,-0.05818671147116503,-0.26683606964305057,-0.26671300861406805,-0.25093579287982015,-0.14142852061386574,-0.10999056045530216
0.608,-0.07252813479545098,-0.08674273661999327,-0.014113844013071353,0.08013519457891326,-0.029911872389313837,-0.050589009300120384,-0.05310704356736369,-0.2659652837862422,-0.2650356752877244,-0.24771475841067017,-0.1391828072887896,-0.10604219719082401
0.61,-0.06842679525139493,-0.09092526015457603,-0.02243274488237716,0.07946730200419783,-0.024025085174427432,-0.05737262438196557,-0.04905184160068701,-0.26239944989285363,-0.26014476190610786,-0.2459211894570846,-0.1351195714168342,-0.10028384189902914
0.612,-0.060447917429003316,-0.08991158914367736,-0.029484177389241365,0.07563680227069507,-0.01713304348018315,-0.060915056737637446,-0.050074003586323475,-0.2606061352888896,-0.2575678564423772,-0.24658568489517374,-0.13145430154505508,-0.09451942518261927
0.614,-0.05415866488379986,-0.0880171751048377,-0.033904057948393324,0.07290780074354693,-0.011762280403258971,-0.06240756545259026,-0.05594350169943553,-0.2620816366053061,-0.2602832560827898,-0.2485116171592302,-0.1298129998943579,-0.09096825426471535
0.616,-0.052432126810658335,-0.08775182682607341,-0.03533063369300936,0.07262868040652024,-0.00921174832884024,-0.06314100694686973,-0.06277775528458451,-0.26546563879811375,-0.26577361606072936,-0.25127119612925203,-0.12979253733100515,-0.090086808267244
0.618,-0.05405495700213401,-0.08802825528809093,-0.03395380819550633,0.07310410069219328,-0.00969610028633191,-0.06275986852575853,-0.0672169614099895,-0.2691410543868978,-0.2697136834695631,-0.2558254862150081,-0.13038104479726031,-0.09104513095018305
0.62,-0.05618502615491177,-0.08688992961801204,-0.030689629565827548,0.07255009943879405,-0.01226927176554221,-0.060612941947516784,-0.06857967923049964,-0.2717320568403173,-0.2711751017923064,-0.2615445593405132,-0.13125688553850412,-0.09323644280923926
0.622,-0.056843109510332425,-0.08405998927985311,-0.027198262807577152,0.0708160369025209,-0.015073667134688093,-0.057599974216895715,-0.06768653593453237,-0.273123383585146,-0.2728501200162607,-0.26581998772854165,-0.13211881207403992,-0.09653588152811586
0.624,-0.05660404225932763,-0.08205630224539186,-0.02530892044763255,0.06983090676093867,-0.01683817422108174,-0.05615899353789832,-0.065513640223598,-0.2748963762590439,-0.2764332410884579,-0.267232104516597,-0.13274316751127704,-0.10082358728787748
0.626,-0.05788650194301664,-0.083900210602728,-0.02553595735417617,0.07192438492442303,-0.0179639994735517,-0.05770625225600199,-0.06316767218803783,-0.27800326526391267,-0.28060530557009883,-0.26729126837059586,-0.13423972465079861,-0.10552723329357123
0.628,-0.06139327010319083,-0.08867920338631974,-0.02640057905305823,0.07642774746766749,-0.0193425874040234,-0.060472277920973545,-0.061538365114050045,-0.28138402385898403,-0.2835109719983596,-0.26846783333209967,-0.1378716262369068,-0.10922219632542192
0.63,-0.06510359811212062,-0.09199758936409437,-0.025862974359632612,0.07994858273372872,-0.020990808122465402,-0.06120359891878794,-0.06059318440616136,-0.2834557338989518,-0.2841838464512231,-0.27088897971611337,-0.14179355471475047,-0.11023302996954822
0.632,-0.06760711882386532,-0.09206501897494511,-0.02365268528609948,0.08113764135271097,-0.022529995520168166,-0.05931828861088478,-0.060047130072681365,-0.28377212860329776,-0.28270113237015587,-0.2723938716440918,-0.14209102161870463,-0.10837225350556881
0.634,-0.06931567906500644,-0.09172538096015093,-0.021847118571982207,0.08202204785736386,-0.023746411870543528,-0.05771664923006001,-0.060036371461440585,-0.2831568196237733,-0.2809550032165011,-0.2722899046477558,-0.13792182685428245,-0.10516905943386662
0.636,-0.0699702772969817,-0.09308394158093507,-0.022467762637062596,0.08360606153606312,-0.024183609313288265,-0.05851550842054917,-0.06034706480408546,-0.28281171262338156,-0.28121088524339194,-0.2726242070759963,-0.1323707886792005,-0.10221229133528952
0.638,-0.0682073682075712,-0.09457401559423693,-0.025501205002204794,0.08398549380159595,-0.022957240633133633,-0.06063234721281363,-0.06045166410377157,-0.2834397017790823,-0.2834261361916727,-0.27502585662752577,-0.1283775776504398,-0.10044392891139121
0.64,-0.06419412879514641,-0.09472754745127272,-0.02970949543295624,0.08207865729852183,-0.019665971527565874,-0.06261420652546817,-0.060385817194558496,-0.2846934825046765,-0.2855156516128389,-0.2785319866169815,-0.126603680689461,-0.10001313446022506
0.642,-0.060599752222847435,-0.09462737144932176,-0.03351148447395967,0.07991857391945932,-0.01580346081243038,-0.06441896910525156,-0.060246398021535516,-0.28525592695040947,-0.2858031488964596,-0.2809024688864517,-0.12662794293845991,-0.10006474169469844
0.644,-0.060341476137482454,-0.09589698117889822,-0.03533908059775692,0.08028582194619648,-0.014255324314393249,-0.06607520610319889,-0.05982786940954329,-0.28442439233110706,-0.2849690164895155,-0.2810423765389996,-0.12850365022392707,-0.1005613613475318
0.646,-0.06423668034971587,-0.09893160315215384,-0.0346452163530517,0.08396478593408206,-0.016458039688678337,-0.06736654258876934,-0.05951768732649943,-0.28357773184219726,-0.28552805108742335,-0.2805116341717742,-0.13285443500895747,-0.10352032603678221
0.648,-0.07052311033927432,-0.1019626740494982,-0.031461842372221514,0.08869806435405052,-0.021189795052565824,-0.0675268175335169,-0.059815609166954956,-0.284735268744666,-0.2884404222337793,-0.28216074850933154,-0.1391182833117683,-0.10942272632456299
0.65,-0.0757235173259845,-0.10085191587707003,-0.025163235120170577,0.09002996249234663,-0.026572714624711263,-0.06425601520972346,-0.059715794601812804,-0.28786644190588556,-0.2914222259463345,-0.28599742701168385,-0.14427827307939867,-0.11396428300261079
0.652,-0.0770743824973486,-0.09353566886713804,-0.016472956329868636,0.08578539218379325,-0.0314294942334454,-0.05671463585922979,-0.057716654374220584,-0.2909124354014886,-0.29227480439627657,-0.2883070000796826,-0.1450643077472302,-0.11233172042649513
0.654,-0.07533389967724666,-0.08518498439178819,-0.009840353218800932,0.08008447216313623,-0.03451325996016609,-0.04944437270979553,-0.05454091141966792,-0.2927127900269926,-0.29236169894269065,-0.28721496096098814,-0.14167432990278933,-0.10573436186556229
0.656,-0.07365768020848966,-0.08370088672155178,-0.010009750982043923,0.07906943238255563,-0.03448829556314309,-0.04859933427797917,-0.05275690632382481,-0.29478588488597735,-0.29464558319974665,-0.2862797780966119,-0.13746689244432173,-0.10011261485905408
0.658,-0.07286000737201957,-0.0893472845100768,-0.01635595245025641,0.08254465069228019,-0.031168401217281563,-0.054163444085425894,-0.05377263912221324,-0.2986595402727265,-0.2990360259267415,-0.28910015605692385,-0.13468993405087798,-0.09872239335122826
0.66,-0.07030963145616353,-0.09382086154469615,-0.023211905540218687,0.08403494442716182,-0.02600094802666654,-0.05944869907426394,-0.05668969669646931,-0.30249518269195236,-0.3022072438002435,-0.2936902032892963,-0.1330666662660753,-0.0990849352890608
0.662,-0.06482168798742279,-0.09047948946378895,-0.0253694604353932,0.07935094075349224,-0.021519059070141334,-0.05853757037113107,-0.0596640397804384,-0.30335670551977423,-0.30226772656282785,-0.29591055323964294,-0.13249289162057856,-0.09791294845182227
0.664,-0.0599135774315415,-0.08146296657550978,-0.021641274190822537,0.07160410198198877,-0.020341617298780094,-0.05180239886985333,-0.061493681905136724,-0.3019541417802678,-0.301208953979948,-0.2949193336043138,-0.13385227392011248,-0.09606756944620078
0.666,-0.059484420478212195,-0.07329671896970559,-0.014389366294465139,0.06662622932973399,-0.02334450570140551,-0.043847276076505376,-0.062381212778733874,-0.3017951153539765,-0.3019666854756098,-0.2926812204100948,-0.13703009589726592,-0.09652142618261494
0.668,-0.06223687934463903,-0.0693445323399931,-0.007836257022045313,0.06601306313722333,-0.028142218774646923,-0.03883890601038163,-0.06310007628732242,-0.30418302833981925,-0.3046932961340666,-0.2912721259031369,-0.14041041088313042,-0.09968305400371325
0.67,-0.06405193472618861,-0.06924429203337742,-0.005653810019579012,0.06725253826255756,-0.030917556588315125,-0.038551572391070224,-0.06278275030856358,-0.30664480049037307,-0.30670070236086955,-0.29137550967532355,-0.14231408734413367,-0.10331346283328825
0.672,-0.06422380477589426,-0.07201062858059981,-0.007851144270689149,0.06872401886712698,-0.030527664769081118,-0.04190776535625312,-0.05944191438553604,-0.3067175187760366,-0.3058640452838127,-0.2916813166549769,-0.14196810580619323,-0.10582440794856017
0.674,-0.0653488280817126,-0.0761975332256592,-0.010703022747022643,0.0709512155252759,-0.02938607923194616,-0.04557464947447907,-0.05411382061045107,-0.30584279170854084,-0.30393234270244235,-0.2910266849947887,-0.139644385769427,-0.1074271458969883
0.676,-0.06786515676147754,-0.07881521698919006,-0.010847667912740382,0.07341038026188416,-0.029762193420762174,-0.04660452477791803,-0.05071819114362536,-0.30723943699084366,-0.304509513614064,-0.29080371483171036,-0.1364417506335832,-0.10807809945300959
0.678,-0.06892519646700725,-0.0775846057172749,-0.008682152641586156,0.07386893212233636,-0.03094910326903874,-0.04488171827969158,-0.050238729108184686,-0.31069678560085245,-0.307562634882232,-0.29271645167292637,-0.13370607515599395,-0.10653221734228824
0.68,-0.06784545553351978,-0.07491241999754691,-0.007130850907857295,0.07252707824934261,-0.03138585981236318,-0.043002255014929304,-0.049956321177805324,-0.31330254921765005,-0.3101460520410992,-0.29630961672943396,-0.1326333587713435,-0.1031106116151706
0.682,-0.0679146918604022,-0.07526164262281457,-0.0073651101981986565,0.0726841392064706,-0.03169604808426651,-0.04296590116229101,-0.048510134576263936,-0.3139964425984628,-0.31155071933591477,-0.30028106547134525,-0.1339157661862477,-0.10090749671177435
0.684,-0.07060299273861627,-0.0777081557102029,-0.00707936863724789,0.07495212403614249,-0.03351602464156546,-0.04325370762526911,-0.04650512512047468,-0.3134448301852181,-0.3125437517076382,-0.30287751929992074,-0.13692299186737547,-0.10154890643686572
0.686,-0.0729190931449,-0.0768502195486181,-0.003909027447397366,0.07552682011482384,-0.036584028949966645,-0.041097038372242746,-0.04332079214549819,-0.3115254009303467,-0.31191997726106746,-0.30175409944051784,-0.13936838471573004,-0.10243767690315668
0.688,-0.0715352440084373,-0.07020101851260777,0.0013307100348614008,0.07135696663451656,-0.03857747720799444,-0.03588342713204263,-0.03734672864527651,-0.30812636733239923,-0.3084122996723246,-0.2970592183595999,-0.13855562293533727,-0.10042341804631719
0.69,-0.06608280342875963,-0.06020538985846371,0.0058636935411456705,0.06358318296696314,-0.037569307096021694,-0.02899153136699037,-0.028788516973871064,-0.3046303741055755,-0.30397724531294923,-0.2928349847244488,-0.13407690535330952,-0.09583340763186939
0.692,-0.05903477782967734,-0.05151524662086059,0.00751490218753863,0.056226239976476966,-0.03397566364554668,-0.023121454788076444,-0.020433021791860358,-0.3023973059459624,-0.3017003737069597,-0.2925669075629372,-0.12899609865263376,-0.09154503922007852
0.694,-0.053456944839435666,-0.04760807633870246,0.005854144359002523,0.05226560772327621,-0.029672229769505544,-0.021071181578199753,-0.0153765858395425,-0.3013985162716586,-0.3017553542216987,-0.2951955546450161,-0.12659278538013624,-0.08973504391451702
0.696,-0.05050659681102591,-0.0479040041748133,0.0026076379225683536,0.050931884190112034,-0.02627079506896738,-0.02259429117662826,-0.014536679892648174,-0.30159458573352765,-0.3022574540702605,-0.2973626731267634,-0.1267923051630401,-0.09047867926579714
0.698,-0.04980200864784475,-0.04858236875101939,0.0012191703757244972,0.04991381163161877,-0.025307778870695602,-0.02407043810814091,-0.016201422030338163,-0.3031475554752357,-0.3024699241997132,-0.29747060747897763,-0.12741628355453286,-0.09235327147683771
0.7,-0.0508770885167197,-0.04633190644730061,0.004542204496190579,0.048531989669551606,-0.027932620831592703,-0.022178948921811305,-0.017319126330835422,-0.30463885828172954,-0.30254633808761994,-0.2960255344403789,-0.12709352874433183,-0.09353096832164891
0.702,-0.05224273226668065,-0.04041623273877439,0.011847273169118638,0.046577940789143235,-0.03255508499218,-0.016446689130393655,-0.01573601887663513,-0.30377026492770715,-0.30147996784469666,-0.2933931345975992,-0.12524818978686694,-0.09286723229488372
0.704,-0.05088882192629472,-0.03202775234955169,0.01899345334961319,0.04241762258904093,-0.03516928076756004,-0.008630561280491852,-0.01168300157868762,-0.3000325625797501,-0.29785866749129725,-0.2889655048399583,-0.1213033198203846,-0.09059056484486239
0.706,-0.04517496693549735,-0.022877487116495586,0.022626045318420707,0.03509050089830909,-0.0337779050780478,-0.0010483820294667314,-0.00694542606354326,-0.2952099194920603,-0.2929271939459776,-0.283548960943907,-0.1160597582158991,-0.08793230856622143
0.708,-0.037095117423895915,-0.014298565943934787,0.023219121459972344,0.026680348061781847,-0.030357116641057297,0.0046380376561866886,-0.0026551094266639803,-0.29131047250706826,-0.28996990994800453,-0.2801327850109349,-0.11176114147554325,-0.08540878140360648
0.71,-0.030963931570709546,-0.00786960851930099,0.023349221252677795,0.020942168955401703,-0.027989658668388415,0.007674365628298234,0.001407446220997349,-0.2886400823177742,-0.289372145822388,-0.2798394588544557,-0.10900575792825654,-0.08219541416767709
0.712,-0.0308592760222744,-0.006364525397499191,0.024468789515123112,0.020758909638567295,-0.028541263436080825,0.007911728094986423,0.004604504462511698,-0.286703335903697,-0.28839317256530433,-0.2805889142188957,-0.10656521132450149,-0.07895014026378762
0.714,-0.03729677583944926,-0.01094449938272216,0.026206693063897855,0.02598845515338235,-0.032227358406225266,0.006192047372306445,0.005194321836047077,-0.28616359922718343,-0.2864979597822753,-0.28095511627214864,-0.10462448913374464,-0.07872519346556732
0.716,-0.04538797578238068,-0.01748368143982495,0.027841337452022007,0.03250011393247846,-0.03707575434050842,0.004563735908110874,0.004466248054593175,-0.28741380761445523,-0.285955272798708,-0.28123029764853946,-0.1044432005756431,-0.08231850524389614
0.718,-0.04895778597144038,-0.01972263424380245,0.029281288918481953,0.03504172010225464,-0.03990774098593805,0.004891047587664197,0.006419742768792064,-0.2885662482712188,-0.2873599013451804,-0.2814285012965865,-0.10579859800996326,-0.08657917927170428
0.72,-0.04647685537489876,-0.015889180591659696,0.030643955334697787,0.03186448598320108,-0.03931272433459267,0.007459066987916991,0.011275505937510043,-0.2881318556157112,-0.2887519763782659,-0.2811912832927019,-0.10734959805940451,-0.08872231742926025
0.722,-0.0420875819191023,-0.009408898738776409,0.03268077454390201,0.026238530872576934,-0.037876965623266666,0.011517100644197193,0.014285542495411392,-0.28776093347016707,-0.288745708250679,-0.2799609922912584,-0.10767609165017387,-0.08806150333180793
0.724,-0.04073105218329273,-0.003655676748629896,0.037045811486209605,0.022570517448586413,-0.03972270553961019,0.016484063375216126,0.01097353150282917,-0.28965445667343037,-0.2881849248403426,-0.2774941084443724,-0.10602203080493978,-0.08492198063488061
0.726,-0.04163681120791549,0.0014174461550474228,0.043038997042489924,0.020804466006935394,-0.04398525264450005,0.021544914159934835,0.00017670679653009308,-0.29335472637226007,-0.28922073499584894,-0.2763703555027675,-0.10408202083916232,-0.08133114550824135
0.728,-0.039420900524223,0.006814822019220508,0.04622260869188906,0.01755367657065508,-0.04461472572325304,0.024955054393733234,-0.015696054689020005,-0.29672012182589586,-0.2932788688291235,-0.28050968119213937,-0.10462786528571806,-0.07974667931381191
0.73,-0.03223248549287761,0.011590286206914761,0.04368205302693787,0.01217136772893363,-0.038988050189501855,0.025541671040773192,-0.03137618259829465,-0.2986046769084611,-0.2990083507588733,-0.2891418505641958,-0.10694558569271356,-0.07979913315770461
0.732,-0.023919392609086102,0.014297783269759596,0.037737673276653554,0.00719476223021105,-0.03140429395279168,0.024247570393193123,-0.04259734584101878,-0.30004461430307494,-0.3033581653426448,-0.296952806234892,-0.10738979040095753,-0.07914138507143968
0.734,-0.01846568387876882,0.015107810216990895,0.03266393350652933,0.004128127449873539,-0.02678815291767712,0.022861042084193116,-0.05000109805966252,-0.303171136872867,-0.3057048829544436,-0.30079124685872427,-0.10455220970246029,-0.07643867754943269
0.736,-0.016472984777027518,0.015317383172819936,0.03064984793184213,0.002459777060390298,-0.025783850651590685,0.022330587346559648,-0.05703652485636387,-0.30831672126525056,-0.3079905689565278,-0.3013647332781065,-0.09994265628347399,-0.07152252769011407
0.738,-0.015759401656558644,0.016408011247142848,0.03118921072308395,0.0010152328412179141,-0.02602690781200808,0.023070194311161956,-0.06490486618776707,-0.31281103853705305,-0.310231480220857,-0.2994190084563842,-0.09479330274824298,-0.06475452212132946
0.74,-0.01342929110701261,0.018792329050121556,0.03171773725108434,-0.0012307803629621882,-0.02481454888755158,0.02461042920974489,-0.07154514147412207,-0.3140434361985355,-0.3105696168753006,-0.2958781774650586,-0.08968829231218683,-0.05784409468385496
0.742,-0.010013311963669638,0.019223385417326124,0.029238194248155436,-0.002835591125208256,-0.021426483970205176,0.02404796918700233,-0.07475059700001127,-0.31264735172480235,-0.3099401858611723,-0.29451803730421283,-0.08636947152239655,-0.05391353828333636
0.744,-0.010578138024743323,0.01235814089101353,0.023254823241148935,0.0005444818088406968,-0.018127910265739306,0.018022742957317553,-0.07507811567443062,-0.3114906026818012,-0.3111646083027871,-0.2984646474564356,-0.08700062507423922,-0.05511036219286589
0.746,-0.01657979955367294,-0.001285837274356371,0.015726986511042505,0.009428842983569921,-0.01646379399880208,0.007436272939851999,-0.07525595899051343,-0.312732184221699,-0.31368113781976287,-0.30505570045378894,-0.0909384693447252,-0.059921597411426004
0.748,-0.020326042775402894,-0.012737424041223279,0.00797004435839627,0.016369389922615753,-0.013705613708475787,-0.0024437932534149597,-0.07690783321725846,-0.315992055928956,-0.314471466226271,-0.3093079949250673,-0.09452810384192387,-0.06400838149623665
0.75,-0.014575781158486392,-0.01415322393335645,0.0006036130647295665,0.014479295630870585,-0.007089736527600608,-0.007276562465423818,-0.07930425608915324,-0.3182656246218996,-0.31345601648351407,-0.31055823849948994,-0.09564112233777687,-0.06428097372958659
0.752,-0.0035080725885381133,-0.008241356852237142,-0.004772488842465073,0.007031736777369014,0.0006994008642185389,-0.007708283954941537,-0.08133192194080435,-0.31715587565259135,-0.3138312612522019,-0.3118477007615763,-0.0964110829806815,-0.0615491227933863
0.754,0.001976095064215487,-0.00520721415207557,-0.007317381623484689,0.0037049061597266898,0.004363005799696203,-0.008110107747860482,-0.08282488831273067,-0.3153955158299591,-0.3180814379114235,-0.31524677804521856,-0.10000392305415136,-0.05932040393249992
0.756,-0.0026928662008982147,-0.011241978523729674,-0.00874224687316876,0.009108188200687995,0.0025459252815855735,-0.011716162589912957,-0.08416253391104975,-0.3191111636656807,-0.3259495979715075,-0.3203866583413596,-0.10605079679821049,-0.06047729171801317
0.758,-0.012001248601540206,-0.022328114970656295,-0.010768611939347163,0.018593221323329006,-0.0013848692613987416,-0.017361289685208697,-0.08587861515420984,-0.3298532867493019,-0.3349638956513783,-0.3259486702856386,-0.111027893210838,-0.06474440492569435
0.76,-0.01863473340861298,-0.030056730563970405,-0.012285008697749884,0.024940801151059757,-0.004180689544984965,-0.02121898273947737,-0.08818102785680927,-0.3417730415207407,-0.3420506667339182,-0.33111792771217363,-0.11309150004565449,-0.06924250397179849
0.762,-0.020895891862700352,-0.03068465250091422,-0.010927259062751491,0.025977241197610003,-0.005993916278853057,-0.020875979184744427,-0.09035881068363207,-0.34851485457435,-0.3457883980242219,-0.33581790296603903,-0.1141979756804637,-0.07136776255635716
0.764,-0.02187337961373512,-0.026806541022603343,-0.005913711790907397,0.024940349769308992,-0.00916346724149648,-0.016920420689527663,-0.09134205998049617,-0.3494610661723164,-0.34711258915520543,-0.3398828165156838,-0.11654434590687505,-0.07057628261140902
0.766,-0.02484797352689067,-0.02265966155816049,0.0018249812432098117,0.02544327576416214,-0.015023817773899783,-0.011408320009774996,-0.09068450442601815,-0.3479390618456873,-0.34745758584141134,-0.3423932572294018,-0.11929754621255065,-0.06801600485728182
0.768,-0.02948140330106432,-0.01999379307393443,0.009955009571786628,0.027298736828560623,-0.021568117278663295,-0.006259905500450606,-0.08814807296528658,-0.34689667742368413,-0.34735355258026324,-0.3423218221326514,-0.12008918623346657,-0.06564594216161392
0.77,-0.03170208232264188,-0.018586079844584363,0.014172980754208846,0.0276443763689742,-0.02424136944273997,-0.0035725496564453798,-0.08360079974301012,-0.3472118782752261,-0.3470910024874266,-0.33992562409201826,-0.11833659713395882,-0.06509320716257241
0.772,-0.028557164703594637,-0.01939906972992938,0.010117041646511123,0.025621666931918228,-0.019911442899895784,-0.005977855580331588,-0.07872847918607624,-0.3479202946287725,-0.34707150562327505,-0.33721786583739316,-0.11599594840572969,-0.0660891072181066
0.774,-0.022133535378292084,-0.024271238612381067,-0.0020122388624843686,0.023743866177088225,-0.010215428330338153,-0.01415133333950806,-0.07680203344712608,-0.34789101787134646,-0.34728822829871037,-0.3364030984961518,-0.115532331329083,-0.06674928327823644
0.776,-0.016720199250601035,-0.03138658164419441,-0.01556310096905695,0.023796380571406157,-0.000642423351496696,-0.023853977922620034,-0.07893433492536428,-0.3469539997942995,-0.3470837363588409,-0.3371282705819819,-0.11716933210701157,-0.06592443867168081
0.778,-0.014455110322651992,-0.03497089887678261,-0.021899518263283357,0.024417076638305835,0.0034160179047119,-0.028467484086302917,-0.08194467592427557,-0.34494784797929934,-0.34535335474998846,-0.336319893929621,-0.11831382345851044,-0.06420817963879773
0.78,-0.016177663594976514,-0.03299847465237679,-0.017927617140745707,0.025029258175539266,1.053811168897129e-05,-0.026095504525245682,-0.08117627744635271,-0.3419542109714555,-0.3419778265120556,-0.3322533397751817,-0.11768926504724977,-0.06334881210021968
0.782,-0.02261710044353174,-0.031097395144920437,-0.008923947445111885,0.02819609044959054,-0.008116159852109853,-0.021693858273548826,-0.07474090126965727,-0.3388522355134889,-0.33803968411780444,-0.3265217964926996,-0.1178236283969021,-0.06499925792770953
0.784,-0.03198492814433688,-0.03453624347097781,-0.00247575013014782,0.03501386874725706,-0.015726410598878488,-0.020550451518425463,-0.06456769349222473,-0.3348805696814855,-0.33309542192804253,-0.3202858732947714,-0.11958711700188997,-0.06812703798132663
0.786,-0.0398594163301151,-0.04121868715788327,-0.0011586045066040178,0.042326032485688184,-0.019602613546799277,-0.02285109721353671,-0.05438936275780957,-0.3275589847837909,-0.3253501647607831,-0.3126554074675916,-0.11919831570971146,-0.06890261554072706
0.788,-0.042609343842342766,-0.045953853017610596,-0.0032843336895816344,0.04622589076556157,-0.01980126249485885,-0.025921566545528317,-0.047512619396459094,-0.31759812481783245,-0.3157512102880454,-0.3042824849573817,-0.11481872097369877,-0.0655575759551157
0.79,-0.040682941012982275,-0.04683625374915105,-0.006223392346084825,0.045894713845068526,-0.0182973916624084,-0.027714602514604534,-0.04558226376380301,-0.3100920903507499,-0.30872724450393796,-0.29844221936202947,-0.11044441290788656,-0.061424636246490714
0.792,-0.03960639508719659,-0.04593067349954927,-0.006387799933670172,0.044641290863864,-0.018659720144413236,-0.02736979016202157,-0.047941883052073066,-0.30887742507462146,-0.3081186335723558,-0.2979737040869139,-0.11060311399872416,-0.06112894477249722
0.794,-0.044970568561896025,-0.047037636887455325,-0.002059617218297358,0.047219970704010746,-0.023416033639992062,-0.026069921820667412,-0.052130284348701365,-0.313227425623745,-0.31386928027950156,-0.30350705507714243,-0.11591345812558933,-0.06584468849346137
0.796,-0.0559377444049419,-0.05317829048271887,0.002797151229953001,0.05521935766324737,-0.030590883950434047,-0.027257433065108236,-0.05596950766582529,-0.3209898348948296,-0.3231113140150512,-0.3135984674879831,-0.12480792710149109,-0.07414836428376595
0.798,-0.06694387568876214,-0.06400897447291667,0.002948715218316963,0.06600058218719763,-0.03594872871939222,-0.03301547418651112,-0.05889432579262252,-0.3305567569567626,-0.3329567698730687,-0.32467013835169517,-0.13559023157555838,-0.08482461875524153
0.8,-0.07344710421453529,-0.07450444760678933,-0.0010712928670386572,0.07479200869307369,-0.03755691488626677,-0.04037981739286247,-0.06101703878684196,-0.33953021049985754,-0.34124294578692366,-0.3324613470844531,-0.14611909623470987,-0.09619632664801268
0.802,-0.07386237935873782,-0.07818314684313395,-0.004334944178114504,0.07728074998459637,-0.036280867352022704,-0.043725024477052565,-0.06209438357796811,-0.34574752122088775,-0.34638611175567413,-0.33548673080586555,-0.15432592319702543,-0.1051696282316896
0.804,-0.07013242829132321,-0.07420168355432157,-0.004068408751841347,0.07357711953723328,-0.034125253212206774,-0.0412691996744497,-0.061597796100946026,-0.348627957662839,-0.3477393989044504,-0.33563416523542133,-0.1594545027982996,-0.10981184432535919
0.806,-0.06779450234356471,-0.06961632827445961,-0.0018136863629273194,0.06979242409748099,-0.03356989512680449,-0.03737144529597661,-0.05952251621872841,-0.348231383632765,-0.34616551752961155,-0.3352747385898299,-0.1617668058216043,-0.1116899948761295
0.808,-0.07087874543664105,-0.07132673723069906,-0.00044456703384539056,0.07175029929913078,-0.03582687408610369,-0.037338727491772854,-0.05738467963262141,-0.34567026566069853,-0.34403490946861276,-0.3357529801011618,-0.16205007637179103,-0.11384390505591015
0.81,-0.07620658552442869,-0.0776230704845461,-0.001419291299493204,0.07751177831860034,-0.03857688464903341,-0.04140034704390298,-0.0573186674941393,-0.34315621836709437,-0.34305200759138743,-0.337150523017245,-0.16214269002737555,-0.11736496097376675
0.812,-0.07731050425673291,-0.08251924522577882,-0.0051900107111478916,0.0806983258163992,-0.037914529826908516,-0.04641100269127144,-0.0599394109250247,-0.342133567543666,-0.34293128402949724,-0.3383794347908718,-0.16467744046715124,-0.12124138442579169
0.814,-0.07319313241591673,-0.08551884300197456,-0.012194396247421378,0.0800209309372908,-0.032838559425364205,-0.051647083314961435,-0.06387192440570119,-0.3431000433652446,-0.3436631083565345,-0.33911389258427166,-0.17061500448823155,-0.12406279654840549
0.816,-0.0694212935872876,-0.09006566064226121,-0.02031519724208707,0.08019053669198009,-0.0269837861889721,-0.05762419796941473,-0.06637057384589849,-0.34534444537026315,-0.3456794453143462,-0.34022051681208226,-0.17676976084682816,-0.12475834394327656
0.818,-0.07081210665239507,-0.09535866476077164,-0.024123115861511325,0.08393372218722636,-0.02531482068836261,-0.06154394375803587,-0.06520885425993339,-0.34603143318157964,-0.3471018271585339,-0.34144702982433667,-0.17824351386945556,-0.12349748784599615
0.82,-0.07431193142719582,-0.09661223929628533,-0.02204532281543883,0.08712515276532629,-0.027405785985941858,-0.06043890894933468,-0.06187086855384668,-0.3433359277290888,-0.34572784075173835,-0.34165299357909984,-0.1747278389839058,-0.12227658856126869
0.822,-0.07232533041932444,-0.09175786525799147,-0.019458930479753653,0.08394902230984208,-0.027411595827197596,-0.0560879018854009,-0.060051545698599905,-0.3390039695284685,-0.3424784653541822,-0.34069214991963176,-0.17102649013140042,-0.12273903439735095
0.824,-0.0645789029549099,-0.08348783280461283,-0.019054768195827354,0.07551121125271924,-0.024101266549434883,-0.051394420696522926,-0.059532874965057506,-0.33455719870534273,-0.3383157207313697,-0.33825848451617946,-0.17009709232303125,-0.12385098517228807
0.826,-0.06003589050450846,-0.07573551319273705,-0.015762464224385743,0.06902486522656433,-0.023955261180739793,-0.045823768268909555,-0.05658964716073897,-0.32957210769816847,-0.332346225880744,-0.3334610024490099,-0.17023610035634337,-0.12362406871681164
0.828,-0.06472686624001346,-0.07145301641930456,-0.006679818754897605,0.0690917361334074,-0.03064754012594606,-0.039223029324647135,-0.05141449072151257,-0.3255181530891038,-0.32644777071972203,-0.32773984816959434,-0.16981674465396943,-0.1221790044399278
0.83,-0.0748800217495913,-0.07258031718478734,0.002356014941267006,0.07435853305952786,-0.039528378258073864,-0.03548562439025176,-0.0490580340452272,-0.3246947212265451,-0.3247698432040771,-0.32464910590178786,-0.1696100426931919,-0.12134057917937291
0.832,-0.08321689641188747,-0.0782541298218388,0.004964766201899148,0.08106032658223843,-0.044903476128691534,-0.03742925468803799,-0.052102085891355315,-0.32492474312375846,-0.3264320487854446,-0.3252523419559819,-0.1698203971076179,-0.12215445428809324
0.834,-0.08574850755769571,-0.08383548267286998,0.0018834008345215618,0.08559990825599297,-0.045541723233093426,-0.041987466156922795,-0.05736365513618755,-0.32160014862232306,-0.3252992559122012,-0.326493943769365,-0.16894403837665026,-0.12380081568637769
0.836,-0.08215783192086845,-0.08496286665547872,-0.00282027369196305,0.08528130817321382,-0.042195579494932176,-0.04458091809040741,-0.060509708565815105,-0.3144469647902595,-0.318226301823241,-0.3247625151267907,-0.16630823529716215,-0.12446457731448274
0.838,-0.075118375074799,-0.0818889867656206,-0.006761742918509674,0.08035711053140975,-0.036370291011542884,-0.044666936465641904,-0.060764894899774415,-0.3076118455227156,-0.30897601448757694,-0.3195074136935667,-0.16356709850064338,-0.12346787009676208
0.84,-0.06965074133227511,-0.07765520848069359,-0.007991921552817206,0.07468970339984346,-0.03199275939774772,-0.04361930018689526,-0.06036641282164789,-0.3034522826508679,-0.3024880886353144,-0.31290501090690415,-0.1628493671535061,-0.12237555092887133
0.842,-0.06888572332353729,-0.07372333590987797,-0.004836459967605076,0.0717031743132914,-0.03248800062704552,-0.04104588389571392,-0.06126773900694571,-0.2991210005183685,-0.29790840301741633,-0.3064387723054227,-0.16378335340123037,-0.12279129624999299
0.844,-0.07072571863007564,-0.07011133756832205,0.0006300257253957204,0.07092795141514835,-0.03613543795278455,-0.03691339064498898,-0.06325155368253323,-0.2901319611594769,-0.28991503477935765,-0.2983327335215218,-0.16331029751214673,-0.12371466994605727
0.846,-0.07092607507355476,-0.06690608843458161,0.004169606510230375,0.06980316640186131,-0.03838503993409274,-0.03322931854304984,-0.06383057847276703,-0.2748238321640853,-0.2748705836457062,-0.2846959969365516,-0.15929959391885493,-0.12292858653487482
0.848,-0.06802878411678082,-0.06278169214411274,0.0057294651926424155,0.06667655745324651,-0.037881321063004667,-0.03022385060863467,-0.058520529095956876,-0.25125619830548257,-0.2506190806598894,-0.26177472944029045,-0.15347574167365832,-0.12086744913327674
0.85,-0.06450656591881858,-0.055896711046781594,0.009493990282341307,0.06191739597173679,-0.03759605382798386,-0.02513994911730098,-0.04142920386570179,-0.21131655562727303,-0.2106833844858149,-0.2246203757779831,-0.1491764737133296,-0.12143609096920567
0.852,-0.06352435499752639,-0.04711430261743135,0.01741602547425688,0.057148437375805695,-0.04046874467045178,-0.016689351230338892,-0.00884281331014183,-0.14567626223547792,-0.14624984884372072,-0.16611620531920082,-0.14530790213661215,-0.1267831989081585
0.854,-0.06365905354213577,-0.037876388561155126,0.026433806864732963,0.052174992150741686,-0.044928649893657094,-0.006811223503117863,0.03381352447481645,-0.05716734584726571,-0.05864382401129891,-0.084084378257681,-0.13303520096498733,-0.13060206178813571
0.856,-0.05737124909384175,-0.026313256753715174,0.031141204671138657,0.04297741034978681,-0.04465372975653555,0.002046292634195923,0.07150732447468357,0.037703191876376135,0.03632205778361269,0.012085710219600036,-0.10046100232268998,-0.12031711511635586
0.858,-0.03592950754799591,-0.008999603880525292,0.02669553404142588,0.0239605113262141,-0.03242158033588638,0.008692445714182588,0.09176668861285019,0.12672669930300837,0.12542190076033366,0.11161786915530093,-0.03928221291783557,-0.08720600985035741
0.86,0.004270974229152935,0.0165605831149378,0.012127345879906014,-0.008524745113613973,-0.005494752749865916,0.014156843366584586,0.09570629338629137,0.21752575442229855,0.2158788876605156,0.21851914661107175,0.05649346225504219,-0.029130281665021587
0.862,0.0589796095300808,0.05336963049647391,-0.005548583556520988,-0.054532998370059385,0.030427241896952825,0.02358367284043749,0.09430324531960434,0.32586836674019365,0.324043423676846,0.34502223516502967,0.19333542793205802,0.05562734169508506
0.864,0.1185733361144973,0.1049850549989475,-0.013352535078850716,-0.11087742284647455,0.06374891538533609,0.04499772523417049,0.09607590630829092,0.4485951065228337,0.44682684938522627,0.4876264417146221,0.3715296267023597,0.16823674264928612
0.866,0.175781480857183,0.1726807533762416,-0.0027664750047378447,-0.17396925376662323,0.08685905079190523,0.08348830673008852,0.09965134607076559,0.5612174044169177,0.5596485467996474,0.624307560828674,0.5794753073222911,0.3039202299465657
0.868,0.2327317273161288,0.2554318013974849,0.022948656964529152,-0.2438222556759676,0.10307800948544249,0.1375004156316083,0.09891907629577561,0.6509932546658935,0.650084241871362,0.743368396950572,0.8051964221470309,0.4563457158264012
0.87,0.29818258887195753,0.35203462590538154,0.05374419178724842,-0.3239992418008089,0.12162156516425067,0.20139648136157012,0.09364820773782265,0.7401062542014096,0.7402395523274369,0.8634730531791592,1.0533092813578175,0.627327391757189
0.872,0.37602720955102353,0.45933847903307856,0.08289103332917615,-0.4153860170482868,0.1467086379469268,0.26972316654676304,0.08522441227479677,0.854461183041569,0.8555961296248913,1.0067498791115759,1.3356063129224123,0.8222264783610324
0.874,0.4587499760868575,0.566532485876497,0.10753500568940505,-0.5097865312913985,0.17536621347614953,0.3355097039153779,0.060861370396617605,0.9708414238741949,0.9727301645281305,1.1500559150634615,1.6348808663909116,1.031445466166655
0.876,0.5345558069710212,0.6500750369913183,0.1158165259771568,-0.5898996206570762,0.20822549568641402,0.3811432444488075,-0.0004933083440366685,1.0219167464503918,1.023904363461058,1.2234924187088236,1.889434673277377,1.221758440154563
0.878,0.5945843309648342,0.6784978172898533,0.08451927485868142,-0.6349122473963981,0.2534177107272084,0.37929015107951974,-0.0985651420849495,0.96446436998725,0.9655453983348604,1.1736400111136298,2.028840964052663,1.3515191312437183
0.88,0.6241590666228612,0.6363478437238834,0.012555727983414722,-0.6289014658575125,0.304342586270778,0.32210044544582306,-0.20194782815054935,0.8186633833199434,0.8185076701641614,1.013387200779486,2.0224354972681864,1.395128632574347
0.882,0.5973150652580279,0.5495224761301927,-0.047883327506588906,-0.5718681617781216,0.3214428848988204,0.24919897983047862,-0.2773795334775441,0.6234800169992271,0.622734884747471,0.7878791729395775,1.8829138222888424,1.352371684820333
0.884,0.500520481816987,0.4725102236144841,-0.028368503945071906,-0.48513236388935715,0.2633380971057014,0.22165122548012428,-0.32142234953899324,0.3793613432550579,0.37844828138186903,0.5089848467296598,1.6295575042247425,1.2367552129465442
0.886,0.35795682502369897,0.43916013872973836,0.08079707513350587,-0.3979534104625114,0.13734109950196305,0.26007724872255616,-0.3576646859781418,0.06410985486633097,0.06268091295579381,0.15759258467670087,1.2703216394198158,1.061208687084772
0.888,0.2148466818976761,0.4363470957963159,0.22116059221965523,-0.3254854643731324,-0.00437071557356191,0.3282775989352926,-0.409542941984885,-0.30801347901761755,-0.3098876487706683,-0.25313108515028293,0.8329420179757548,0.8421575218287431
0.89,0.09752524488481419,0.4322246562940175,0.3345263029812869,-0.2643300075154014,-0.11947461324953523,0.38194605456786695,-0.4803124662029687,-0.6710238092211499,-0.6722990819313103,-0.6497207515304843,0.39574323752670004,0.6123262833875938
0.892,0.002799782363550784,0.41300684543605815,0.41022733946656476,-0.20665337063895764,-0.2046171073895485,0.40982844602290563,-0.5544103245610842,-0.9556959222775462,-0.9555862961250278,-0.9513631419353502,0.05114377564728085,0.41063014160179184
0.894,-0.07664541501952564,0.3840641565006569,0.460807963489954,-0.15231502985855655,-0.26990040451027564,0.42128461386166655,-0.6134509201065469,-1.1379866841034425,-1.1367734861871677,-1.1338979886563652,-0.16529322818606645,0.25591120477573714
0.896,-0.1318105669407131,0.35345249602267764,0.48530658353498696,-0.1095817856719534,-0.30992443641714135,0.41920343243550245,-0.6492898375024521,-1.2274094049344593,-1.226160502701237,-1.2187133017096488,-0.2800100219383482,0.14603148777343897
0.898,-0.1487317208668593,0.3251706606085972,0.47387269416885736,-0.08689062076611659,-0.3123517682382409,0.39950414773253706,-0.6621639586014121,-1.2279883638527112,-1.2282150440939328,-1.2201866671674737,-0.3240563354531315,0.07905027593371679
0.9,-0.13103944967698233,0.2998566883534872,0.4308583144704899,-0.08291285913431802,-0.2813021395073559,0.36443782874614583,-0.6524661308238565,-1.142727866704709,-1.1451513619600404,-1.1422810574153157,-0.31036658127910144,0.05497141577044257
0.902,-0.10038739820969328,0.27629804337129604,0.3766831892488451,-0.08646145464473672,-0.23831254181457948,0.32451143290503875,-0.6211808249855651,-1.005022410589602,-1.008157073867111,-1.0130432454714295,-0.25987250096819065,0.06013038289352376
0.904,-0.0750245020465803,0.25402480588115367,0.3290467839156315,-0.08810620541921718,-0.2017390308318013,0.28927443375265544,-0.5744681270860442,-0.8680040591049658,-0.8694938405278563,-0.8809403018695462,-0.20681047437364414,0.07031625828858085
0.906,-0.05533437254713296,0.2343495736048578,0.28956313147692203,-0.08844270998991846,-0.1726280101053907,0.2602471444827888,-0.5198641295029537,-0.7586650494584166,-0.7581748031579532,-0.7734775210167206,-0.17135392252961903,0.07126849004806698
0.908,-0.03407597348074461,0.21690542387851933,0.2506264778161176,-0.0910338213568519,-0.14317490118440593,0.2327548014429223,-0.4598367609390522,-0.6651306185407005,-0.6645797821498297,-0.6831328421478812,-0.14945151465166887,0.06477662038437285
0.91,-0.014392912882369093,0.1975996079570568,0.21145215943972612,-0.09183185327796736,-0.11386861008214313,0.20387185834811192,-0.3939257146681652,-0.5714192009722312,-0.5720470891033393,-0.5961438342330863,-0.13213182112046554,0.05593604337156511
0.912,-0.007430584966209651,0.17407036273230572,0.18102639597304881,-0.083500079576406,-0.09462281338388738,0.17693083323286984,-0.32550498760026925,-0.4838848726223686,-0.48406207729668577,-0.5153406901518189,-0.1194923893878923,0.044635592555445774
0.914,-0.014218422517405049,0.15020639108563466,0.16422809497526125,-0.06757541813978457,-0.08930355064300419,0.15624069192660656,-0.26276682391293565,-0.41652839629465926,-0.41375602860783595,-0.4498073716292342,-0.1138943575963825,0.030067326741011043
0.916,-0.02231137275808054,0.13061364421169724,0.152912950169217,-0.053352772061535304,-0.08839500795902296,0.13999237981864163,-0.2119292287355679,-0.36718502375625794,-0.36194631465654953,-0.39742054756952033,-0.11120447445272374,0.01615823111859279
0.918,-0.022407338243969167,0.11338785946611202,0.13571596940326605,-0.0447672157047866,-0.08084243970969254,0.12205591673589863,-0.171602016716888,-0.32058680217243607,-0.3162524319156388,-0.3467525919862314,-0.10410941816948359,0.00857685168146285
0.92,-0.018190278716474783,0.09322789748313302,0.111234766405096,-0.03653807320548455,-0.06649247061512437,0.09965575072765356,-0.13672802635219533,-0.2684744827255197,-0.2670150035685202,-0.2920682536995099,-0.09066749227905527,0.007657114790817047
0.922,-0.017573746511853262,0.06995039906866593,0.0874105048851892,-0.024196270344042328,-0.0534788685101253,0.07675119981225567,-0.10639256815838966,-0.2172759758387755,-0.21702873389348468,-0.2402501224648015,-0.07664264285403166,0.007751190651109435
0.924,-0.022064040006068163,0.04895679960815138,0.07105599534795007,-0.010564946604180234,-0.04747581891667541,0.059122164501208344,-0.08374651318749153,-0.17705233312667126,-0.17546107669690378,-0.20112404836319564,-0.06915247158302627,0.004340403413333458
0.926,-0.02628599464383725,0.034138785284771815,0.06048595888616689,-0.0012826338668606406,-0.0453726964791257,0.047165488399496885,-0.06969571487755002,-0.14941244216727917,-0.14618908342752607,-0.17549297562271557,-0.06924017731440955,-0.0018527303445530024
0.928,-0.024571557934638305,0.02415089998211448,0.04861439491666805,0.001720109552961797,-0.03939788912542347,0.035898809839138776,-0.06105069952192702,-0.12845179242955465,-0.12508810759167868,-0.15673791640179008,-0.07250694446184851,-0.008529324848816695
0.93,-0.017871929894511356,0.015552095739642405,0.033040783064159404,0.0017985149958769553,-0.027811054441678938,0.02262182883404972,-0.05399561030970082,-0.10938260883028368,-0.10695813261028102,-0.13977570855794488,-0.07568990989331334,-0.014803284213229701
0.932,-0.013078014681851125,0.007448376671628492,0.019943364398336248,0.003574892617003863,-0.017993811861638252,0.011341125184904708,-0.04639611634085597,-0.09129922552727743,-0.08990811058305287,-0.12349621855817906,-0.0786570400606033,-0.01954532691654798
0.934,-0.014587567580506588,0.0015499646067212783,0.015559031463868549,0.008053712278169686,-0.01647495298701157,0.006971523471461533,-0.037953485380029996,-0.07365049910035545,-0.07313319856687928,-0.10750867331224481,-0.0810749964583558,-0.021792570784895764
0.936,-0.0192707962797173,-0.0013597187496767905,0.01753214425710313,0.012402797343019432,-0.02028588974925009,0.008016342796783534,-0.029759214462287204,-0.05549035948690162,-0.055736288068787165,-0.09050023373517393,-0.08154523135970354,-0.023334309739156595
0.938,-0.02095941354645261,-0.002634953887176555,0.018220890839934067,0.013695974443713553,-0.02152174994973601,0.0085366376869483,-0.022611713508377478,-0.0368682569379952,-0.03763760446539867,-0.07045668396037,-0.07949589233421317,-0.02650758537272437
0.94,-0.018006184930445545,-0.004178256004337131,0.013909951557761395,0.012378354511918651,-0.01729598523624538,0.005254075323852675,-0.015787034720460717,-0.018258963676002438,-0.01870499493526177,-0.045512007009701684,-0.07590372636768856,-0.030628897008383348
0.942,-0.014600635129131082,-0.006991350958134393,0.007702301641196509,0.01179102040157728,-0.011835805011750173,-0.00013800916775576569,-0.008334896395143775,-9.67678380528373e-05,0.0012828016239668652,-0.015861314394465864,-0.07266085979255345,-0.03384162591891967
0.944,-0.014906115206115773,-0.01077762195277602,0.00413586126460549,0.01418561419648873,-0.010059255892546868,-0.004522248966935709,-0.0006465416113485814,0.017117852931996216,0.020951127481940533,0.015806215713542175,-0.07094031678794432,-0.03582878396324018
