time,I,II,III,aVR,aVL,aVF,V1,V2,V3,V4,V5,V6
0.0,-0.0014918942068155637,-0.0010750414137347445,0.00043879241376928345,0.001294437620619386,-0.0009653433102924235,-0.0003290943103269626,0.00043879241376928345,-0.003861373241169694,-0.005989516447950719,-0.0023475394136656664,-0.010267742482201232,-0.015621009930186489
0.002,-0.010421366257203237,-0.007509513920631745,0.0030651077227068346,0.00904206778198516,-0.006743236989955035,-0.002298830792030126,0.0030651077227068346,-0.02697294795982014,-0.041838720414948294,-0.016398326316481564,-0.07172352071133993,-0.1091178349283633
0.004,-0.0326858623335659,-0.023553047858010726,0.00961348892163703,0.028359792318829236,-0.021149675627601464,-0.007210116691227772,0.00961348892163703,-0.08459870251040585,-0.1312241237803455,-0.05143216573075811,-0.2249556407663065,-0.3422402056102783
0.006,-0.061423017047282966,-0.044260703460542145,0.018065593249200873,0.05329350008514257,-0.03974430514824191,-0.013549194936900653,0.018065593249200873,-0.15897722059296765,-0.24659534785159196,-0.09665092388322466,-0.42273488203130044,-0.643135119671551
0.008,-0.0784926280107411,-0.057001592564511115,0.022627916159370626,0.06837039969591757,-0.050549302274711626,-0.017799157800517492,0.02284731236625527,-0.20425953344356212,-0.3165773473422321,-0.12432287003004187,-0.542547312438909,-0.8254091719966543
0.01,-0.0747987139016813,-0.05705675067223432,0.018721854717003075,0.06674596744435304,-0.04670559623696297,-0.0199090554419432,0.020254408578356496,-0.20168912327903177,-0.31110104658600307,-0.12365524438045727,-0.5320646869558354,-0.8094284991706673
0.012,-0.059534400877598856,-0.05318690754444096,0.006854169154088744,0.05748738882307275,-0.0331072031789382,-0.02405276658418805,0.011660913614907257,-0.18137906427350067,-0.27610531742352445,-0.11373257029570603,-0.46863861949100166,-0.7128094922859409
0.014,-0.04691588732315378,-0.05431538990760061,-0.0073786476901109375,0.052010868517107796,-0.019797654431373247,-0.03179060886935637,0.0016541489344894954,-0.17857294453505115,-0.2678582855382552,-0.11571093977859259,-0.4480864637341484,-0.6812177857830465
0.016,-0.04228784849294467,-0.05902146460572577,-0.016922171969653548,0.0520726270009091,-0.01303961718822375,-0.038755529520627836,-0.005553364838247072,-0.19467608009136822,-0.29149178852190377,-0.12877695341174455,-0.48082467729390177,-0.7306783824712223
0.018,-0.04276905578239951,-0.06076295087727319,-0.01810035916908601,0.05303339009694871,-0.013101629231121991,-0.039804178939829044,-0.00830144429352495,-0.20927410115186357,-0.31518364449712927,-0.13869015982737548,-0.5154948132486229,-0.784357718273504
0.02,-0.04496899414611947,-0.05700750835994739,-0.011997020542996789,0.05215675495176226,-0.017518180797252012,-0.03432563593579558,-0.006930262333688271,-0.21087567114859845,-0.3174710167241073,-0.13759344243985724,-0.5167662397517983,-0.7908376732013633
0.022,-0.04764651848511665,-0.05040826849683581,-0.002686646435745583,0.05022752480763957,-0.0234867418054029,-0.026053974436128734,-0.0024780974923868026,-0.2052003825352397,-0.3055381932633935,-0.12938134035411225,-0.49408647529575683,-0.7656023781719842
0.024,-0.04946848839207874,-0.044544261066546985,0.004937882590127551,0.04827628402532587,-0.028017555476290194,-0.019534452741127667,0.003381418331730127,-0.20186703757468127,-0.2969771251033461,-0.12146669074198771,-0.4734656459198507,-0.7462406583718962
0.026,-0.048522971002590023,-0.041407486586165894,0.007081542231997415,0.04625188303714731,-0.02859990701117324,-0.01736569049222022,0.00842543038534677,-0.20262867891163833,-0.29738428292016134,-0.11677665269218938,-0.46554841721112633,-0.7451021788685976
0.028,-0.044418388185245856,-0.04191482830099416,0.0024800226268771055,0.04442332412405962,-0.024602547279001095,-0.019990085773510233,0.010981051060535377,-0.20266385279403462,-0.299330950058136,-0.1134135500945328,-0.4638307427857013,-0.7492405280999674
0.03,-0.03953193371536542,-0.04608913234209386,-0.006549941543289454,0.04404377239274596,-0.018161945591837765,-0.02612044492287808,0.011029636417875183,-0.19846570240603817,-0.2967032153826908,-0.10902145008446394,-0.461126017380636,-0.7470821148992909
0.032,-0.03707976530704329,-0.052035575446391445,-0.014939523636665838,0.04574115310792165,-0.012974187566048392,-0.03279936972314633,0.009826589076345427,-0.1918242467818687,-0.29209588436216066,-0.10365331397818912,-0.45810248025548767,-0.7413881300019864
0.034,-0.03774265273011459,-0.05606344375129322,-0.018316977648822213,0.04782832851931165,-0.01128218697025026,-0.03643477243287822,0.007989568101430344,-0.18750482673655727,-0.2905062049647211,-0.09914130230390684,-0.4585313459890637,-0.7402646122008177
0.036,-0.039341572614941346,-0.055323512587043475,-0.01598900515433506,0.04771721700341494,-0.012519965142329231,-0.035126106334781686,0.004948621705375604,-0.18853804843888955,-0.29219964447346614,-0.0970115980873148,-0.4629297327739105,-0.7455898520424865
0.038,-0.0398210299375308,-0.050975259504680945,-0.011159684159975057,0.045265249315525544,-0.01460243675290346,-0.030689068693592506,0.001105899149819265,-0.19319945439575711,-0.2939503042121109,-0.09713502357248031,-0.46793364675683496,-0.75221168583166
0.04,-0.03931970710135189,-0.047585691950950075,-0.0082647343830993,0.043241806696303585,-0.01573816334019581,-0.027554856524372912,-0.0011720560806808466,-0.19679570353307058,-0.2941139027382342,-0.09813467569661183,-0.47025878098529345,-0.7550193775975518
0.042,-0.039533454528267516,-0.04869134094407612,-0.009154312493412994,0.044367359010098265,-0.015656486654212567,-0.028721022130428733,0.00021900494092366975,-0.19682361688956032,-0.29444629431044733,-0.09916623414245362,-0.4705887893287748,-0.7546620795084688
0.044,-0.042002413673710055,-0.053723300406822876,-0.011719862096091842,0.048839109239312034,-0.015754153495599076,-0.03303994167328017,0.0048346906322500405,-0.1949863718346045,-0.2972786741280774,-0.1009785288559839,-0.47229277048620627,-0.7555040818402713
0.046,-0.046850156105990005,-0.058964096237332474,-0.012115401091909266,0.054381120133462045,-0.017796641040728818,-0.03641466998029454,0.00973473757923634,-0.19403179686523797,-0.3018274235884124,-0.10474091431121615,-0.4762359476389037,-0.7590648909146405
0.048,-0.052437623825951594,-0.06086019459442821,-0.008423827768050033,0.05809373863561308,-0.02199304894968035,-0.0356246995887353,0.011583171055278056,-0.1946536434744021,-0.30497550166781134,-0.1102629431738695,-0.4798133057282241,-0.7626942666483509
0.05,-0.055682390431664744,-0.05853018173297133,-0.0028475944303013676,0.05804426808731428,-0.025975515710732377,-0.031198682364539213,0.008699805295615854,-0.19618173721434887,-0.305913466259309,-0.11612512025635371,-0.48212052084951285,-0.7651519730872864
0.052,-0.05328392515234008,-0.05367178245907979,-0.0003870772959386212,0.05373310528747762,-0.02593203453754967,-0.02679833232277974,0.0015052609694834582,-0.1986727346132354,-0.3071928034383897,-0.12129776611230678,-0.48619697039807513,-0.769266397158495
0.054,-0.04438424013351454,-0.049166459013462616,-0.004781953741345767,0.04656264191703628,-0.019654552738361412,-0.026250816587531027,-0.0076004188876940115,-0.20281686974628277,-0.3102570230203628,-0.12593161035857198,-0.4939758217360589,-0.7769890038358916
0.056,-0.0325826794583328,-0.04709025819961827,-0.01450787776676945,0.03959669118247887,-0.009341195545571692,-0.030167589771513736,-0.015108593417797129,-0.208056391746005,-0.31288389181908444,-0.13044443774498832,-0.5022676513051754,-0.7854558828835867
0.058,-0.02455739355408595,-0.046518949603579926,-0.02196184357277981,0.0356842272324487,-0.0016990216139278467,-0.034242618660172246,-0.018490698835890128,-0.211737980029576,-0.31212376838965455,-0.13398135738937422,-0.505537526065347,-0.7900485215871078
0.06,-0.025446329596222728,-0.044557142462374015,-0.0191107870178333,0.03577280635629164,-0.003372768048764129,-0.03269670567993678,-0.017262084698205872,-0.21116566112739255,-0.30789428937752333,-0.1343528932909257,-0.5010687052330892,-0.7888822868784778
0.062,-0.03416037509782726,-0.040630483412245705,-0.006469939059679427,0.038714715594808616,-0.013894003122397632,-0.025109548591518007,-0.012533522977371071,-0.20707235822165038,-0.30318124419201087,-0.1303672947874963,-0.4914779646766468,-0.7835257686841055
0.064,-0.04396296889298516,-0.03786338886010636,0.0060996467721837625,0.04235465297612468,-0.025054192276091125,-0.01772706517864605,-0.006683611064787981,-0.2032764347082409,-0.3008983803677054,-0.12359476503251202,-0.4823115050116328,-0.7771225169729309
0.066,-0.04862960408274818,-0.03977881498707582,0.008850728607762117,0.04522205502754954,-0.028939711922890014,-0.01716460725760975,-0.003003199686753651,-0.20163473528934292,-0.3004243743611504,-0.1166550592950992,-0.4764543143518834,-0.7723117714358603
0.068,-0.046859026279732104,-0.04698261457512793,-0.00012365360892991218,0.04723081065210306,-0.02415690667256288,-0.02483790580875338,-0.0038602837050096166,-0.20004343728350957,-0.2986272151727384,-0.11092215859047178,-0.47248885150510633,-0.7701641016204248
0.07,-0.041204491833766475,-0.056497098861779796,-0.015292605215671726,0.04870462729731729,-0.014521295218737618,-0.036843781621426534,-0.00807638456566918,-0.19686229801350671,-0.2947183592323984,-0.10701009188436325,-0.4689077385216597,-0.770183077992054
0.072,-0.03531650354725439,-0.06391878511129562,-0.028624184675937688,0.04959512573520823,-0.005237191776972967,-0.04731333855189794,-0.0113389185675892,-0.19370273158974105,-0.29131820098880684,-0.10536104737058195,-0.4664847945425503,-0.770757002147173
0.074,-0.0328321798378556,-0.06672092930462116,-0.034020048782650754,0.05019381255284824,-0.0010371490220365096,-0.05182125378401638,-0.010244521969798692,-0.19189603791787416,-0.289790833781937,-0.10481950468212091,-0.46539397073205896,-0.7698399344669186
0.076,-0.03637700897488784,-0.06515110431059327,-0.029101526462139315,0.05139189826621339,-0.004964739188702646,-0.048749484656860055,-0.005287193862373188,-0.18992818610020798,-0.28808738810376805,-0.10296493720717348,-0.463695428064493,-0.7663753357899367
0.078,-0.04501087366351251,-0.060769835020395194,-0.016181581313785498,0.053289193072851376,-0.015730394941835254,-0.03976356926805582,-7.59059074495064e-05,-0.18666968223688477,-0.2848030112241966,-0.09942358878726672,-0.46052684821623185,-0.761856142517779
0.08,-0.054172598300717224,-0.0556039503967475,-0.0016649536026293423,0.05488675336847784,-0.027518299292555542,-0.029436264656983166,0.002066213021427543,-0.18389577706826832,-0.2818725890540496,-0.09668301711328017,-0.45787916914400645,-0.7594817786189876
0.082,-0.06043003881200904,-0.052300683475847286,0.008308292008911094,0.056116537691187324,-0.03513618413917668,-0.02249231540914011,0.0010781750879404282,-0.18352143263280185,-0.2814376150207426,-0.0965590475034407,-0.45759633311525566,-0.7611906948636865
0.084,-0.06431696019851783,-0.05305075416607652,0.011892681072361029,0.05835364985814248,-0.03812904714338184,-0.0207631151586049,-0.000506798314217847,-0.184793407217475,-0.2827660312954372,-0.09793763899334411,-0.45884841654571334,-0.7660095566678823
0.086,-0.0673056382368603,-0.05701595905235668,0.011256172190575425,0.06175468613432283,-0.0389040676485952,-0.022576542722676094,-0.0008021606885579339,-0.18567961738339264,-0.28371228189204506,-0.09873067081134813,-0.45966771740291207,-0.7708334342191139
0.088,-0.06875140701711563,-0.06062593143605617,0.009194283447045011,0.0642334002633682,-0.03874854325519281,-0.02509143695974586,-0.00022052520161081415,-0.18577023066336,-0.2836910736853825,-0.09847415113739993,-0.45971217057452346,-0.7729736487306966
0.09,-0.06672675206108719,-0.062126907909777096,0.005370061642447135,0.064218950604036,-0.03619853610015208,-0.028072647540674713,-0.0004963782406592854,-0.1872534540652051,-0.28437424110506593,-0.09851313317798797,-0.4610889369840879,-0.7729073964967739
0.092,-0.06038720296599647,-0.06347625036850268,-0.0030432658784557975,0.06243120486010056,-0.029063230715351458,-0.033873244653535334,-0.0030388304252559908,-0.1927725786570855,-0.28747501780676765,-0.10048887531397974,-0.4663061146312887,-0.77386034162559
0.094,-0.05166550537406339,-0.06628103000914792,-0.015315087258768912,0.06041097376785831,-0.018589425535836063,-0.04237246555593387,-0.007887784190777458,-0.2017632094666792,-0.2918508330355839,-0.10485867901669194,-0.47487288595013655,-0.7780608953642477
0.096,-0.04438713761469809,-0.06863399801426051,-0.025098244207304173,0.058711886455383666,-0.009980613441393105,-0.04906227222161822,-0.013545421641862503,-0.2102079952702578,-0.2941875935322639,-0.11069343194631598,-0.48304763237037185,-0.7842438493597655
0.098,-0.04067101294787533,-0.0673875192076353,-0.027061659155920757,0.05647908379720965,-0.007270360343649176,-0.04975376185549919,-0.017536923236054797,-0.2148133727505957,-0.29356989712043113,-0.11676064308303198,-0.48767242395259125,-0.7889486714915349
0.1,-0.03954482617358344,-0.062185694563981264,-0.02244047082235896,0.052960323769206445,-0.009591709952053313,-0.044837562626735473,-0.017663765566071524,-0.21575915645981047,-0.29302652106915805,-0.12192640062425888,-0.4887689201475941,-0.7897376067012725
0.102,-0.039065156721198285,-0.05592473209214936,-0.016598587281960845,0.04913133693775248,-0.013044127996128611,-0.038173129779661225,-0.014041325860695002,-0.21518973591813723,-0.2946409591581745,-0.12454405864610445,-0.4880490831838484,-0.7874269928235531
0.104,-0.03696786228429049,-0.05070924144137394,-0.013813725049959783,0.04556568951675128,-0.013867432483170638,-0.03305151246523121,-0.009890278291383408,-0.21453975160384864,-0.29587295246328477,-0.12328885572499512,-0.4860398827183806,-0.7849015249690703
0.106,-0.03131534825078958,-0.04653188487228352,-0.01554547817107683,0.041140457288235094,-0.010114045323277856,-0.031058509948028844,-0.008996877427728107,-0.2131957325712039,-0.29298633756661263,-0.11891539185608331,-0.4812743851061452,-0.783198376265274
0.108,-0.024175904175746003,-0.045859579465027306,-0.02186266583823479,0.037384053490158754,-0.0029295154274085067,-0.03436554288703547,-0.01232616006685713,-0.20926931110973856,-0.2862188610708534,-0.11392056977875398,-0.4725929622236267,-0.7800903681795427
0.11,-0.021656864160679447,-0.05315312764555616,-0.0312972963466536,0.03939210214036485,0.003386048733559558,-0.04408562940012362,-0.01747091472927673,-0.2018371282713573,-0.2795806779977292,-0.11023671998889435,-0.46130433196274667,-0.7733912106971771
0.112,-0.02823021779649584,-0.0666909557709688,-0.038118729157337036,0.04915728538366022,0.003478815944501421,-0.05510320294066937,-0.021106655421143414,-0.19215808336394785,-0.2757636251923657,-0.10722992174189892,-0.44968198550331095,-0.763928880579115
0.114,-0.0425758048370113,-0.07702231086182337,-0.034336682755260514,0.061747780500564245,-0.005496419070883869,-0.05815414895582975,-0.022224354414115452,-0.1835475742883054,-0.27377392343870793,-0.10200908883616588,-0.43869774768643977,-0.7546045563614489
0.116,-0.05783277672728812,-0.07653475112274392,-0.018921521798494743,0.06951698683528439,-0.020315779061707895,-0.0495179888869367,-0.02314770848354894,-0.18039374736688246,-0.27280814926637675,-0.09306174289841662,-0.42918311640741713,-0.7480917734473899
0.118,-0.06690019405165744,-0.0674433914996214,-0.000868169130407136,0.06929583138795432,-0.03345402428300296,-0.035239383050563296,-0.02702056812649692,-0.18457881057921782,-0.2746266458569251,-0.08380453873705826,-0.4233324035023781,-0.7455052544865161
0.12,-0.06970910820570159,-0.05845752903569394,0.011173775077388603,0.06540114620143674,-0.040969066187086796,-0.024159205408812792,-0.03452062442454893,-0.19220372410359576,-0.27979194033658733,-0.08024612446839684,-0.42252574968356127,-0.7461245699410681
0.122,-0.07065321805115082,-0.055078822861434625,0.015940422781282753,0.063622690690895,-0.044255077491467315,-0.020062863161386515,-0.04332695984825103,-0.19656521595344595,-0.28456102149875817,-0.084621795382418,-0.4251937815205332,-0.7486546520061051
0.124,-0.06767946264065217,-0.05562286104255006,0.012700269762983407,0.06255222351035267,-0.041729545877533594,-0.02251421363252225,-0.05005552167184703,-0.19486892815653412,-0.2839204541441126,-0.0930487917124544,-0.428817493910929,-0.7529065811216831
0.126,-0.05330669244416503,-0.05634640926238384,-0.0025170221236309374,0.055913071179838125,-0.02736121979641484,-0.030954619697626765,-0.052561439653462876,-0.1902983004996533,-0.27735598988754545,-0.09938680341193956,-0.43265408620519197,-0.759363868658289
0.128,-0.02892200272788246,-0.056449739726241316,-0.027383444592392947,0.0434655754849841,-0.002401485970618164,-0.04341477619840854,-0.05152904325474173,-0.1872343082350406,-0.2701677736535598,-0.10050403011352382,-0.43714125529295345,-0.7671822121919403
0.13,-0.008455181918326848,-0.05600240287965286,-0.047706951854077966,0.03279920762119773,0.01910921365464284,-0.05324768006792792,-0.04933777296157329,-0.1864053740837132,-0.26799049776081835,-0.09772312958257075,-0.4416411969986755,-0.7731251863598607
0.132,-0.00408146204207323,-0.05289956383252196,-0.049091189182655565,0.029444120301007005,0.022963996030553643,-0.05251572009055405,-0.04674828326613393,-0.18594728973956767,-0.270763207470548,-0.09381079660916097,-0.4440214738756303,-0.7728911615124053
0.134,-0.013733385209069068,-0.04596528864515738,-0.032559932187762305,0.031235829014212384,0.009939463128791988,-0.040746933566877454,-0.04320605109719963,-0.18505988298413847,-0.27345117043140477,-0.09029209996076648,-0.4428937357240814,-0.7651649227499334
0.136,-0.02554497152851209,-0.03868735847508644,-0.013490917985102444,0.03345650444670757,-0.006127647763528752,-0.02710711760764213,-0.04065636725747008,-0.1846004635230142,-0.2720986731410152,-0.08764296834099429,-0.43954082122350635,-0.7544529747745348
0.138,-0.031078192920865527,-0.03569518343161703,-0.004858721649429276,0.03452657439588375,-0.013822994345315384,-0.020821424911968145,-0.04279976099534244,-0.18544112922364017,-0.2672964128946272,-0.08562408489846422,-0.43615983150002097,-0.74702968015405
0.14,-0.030218944333078056,-0.03672742077304732,-0.006658998605055959,0.034802192489431304,-0.01284167619908617,-0.022130196222792126,-0.04936086733179874,-0.18751257501065105,-0.2620644601567067,-0.08350362921333518,-0.4332501038678566,-0.7444028641397309
0.142,-0.026503592533993293,-0.03781456696181431,-0.011654240558608895,0.033994499656120565,-0.00887761251140675,-0.025132473559822944,-0.05476333430356746,-0.18963821220891589,-0.25890903559195744,-0.08160697381120888,-0.4308869322984472,-0.7440281475697582
0.144,-0.02439363472338646,-0.03822329454078738,-0.014518440221713684,0.033336395899248174,-0.0068223519748188645,-0.0264295136039763,-0.054000754519378524,-0.1895547014195361,-0.2590228331744327,-0.08116830352434164,-0.4302483724364805,-0.7443430729198215
0.146,-0.02788319459410038,-0.041946501347167875,-0.01477199343560919,0.0365586140582536,-0.008371928513672928,-0.028138176172961098,-0.04676771706047732,-0.184484018713103,-0.2612755036140901,-0.08151967115016577,-0.43091504598850255,-0.7449273506887161
0.148,-0.034095222841249245,-0.04987653223466115,-0.01605907889679007,0.043246982018078105,-0.010235406898990924,-0.03312234287754347,-0.03529333531646442,-0.17391673494451768,-0.2615957085860368,-0.07957931226189613,-0.42959157934233155,-0.7440533057223292
0.15,-0.032456792367172506,-0.05444213351939208,-0.02182047147653112,0.04478270308467244,-0.006248897450593184,-0.039184259320404,-0.02253107325915832,-0.16293186835668447,-0.25676231531164495,-0.07350328750522073,-0.4244402633429083,-0.7400143772884099
0.152,-0.017865049769938808,-0.0468313152807984,-0.028734414268050856,0.033741637214643426,0.003976856638378404,-0.03966843688329475,-0.012667504446396912,-0.15860841053710628,-0.24864878894650105,-0.06531291221010782,-0.4173353022222464,-0.7335620785711063
0.154,-0.00037981705883369097,-0.02744828788546371,-0.027036875991530106,0.014809675256715829,0.011071805250889293,-0.02962995920810489,-0.008975069569147018,-0.16110914716840588,-0.2411990127973423,-0.05797826649888632,-0.40962470667066336,-0.7266798473224523
0.156,0.004690818567746811,-0.005935431595650596,-0.010734313048798488,0.0007605989725510203,0.005139126386783475,-0.01087260177939559,-0.01166646550886805,-0.16388920677102228,-0.23560405110089563,-0.051882571383565605,-0.4005289236964334,-0.7201400739662389
0.158,-0.006562746734502531,0.007094052643244265,0.013587674721964387,-0.00041073804911618005,-0.012246920308391066,0.008137021962778001,-0.019561374746599264,-0.16439271463193703,-0.23266808075553044,-0.0474367958420702,-0.39195184769154995,-0.7138471543334884
0.16,-0.023602322517432692,0.007876999035534377,0.031504738662524984,0.008240936869863021,-0.02877416968352697,0.01827881976331818,-0.030608031803574864,-0.1676511227522292,-0.23549672484483153,-0.04796614063544896,-0.3892337292601353,-0.7084958313772477
0.162,-0.03177592394798122,0.0015222390168579132,0.03334787253587134,0.016433157820066442,-0.03273862044038278,0.016740583728473323,-0.04062824018259744,-0.17748126917044177,-0.24507142824216954,-0.05570477802810617,-0.39502332618071917,-0.7058716172150765
0.164,-0.02400108347507679,-0.0043960119601481095,0.01961496096479828,0.016098102367675313,-0.021481530071691252,0.006991023848344815,-0.04616089497219093,-0.19037980861454504,-0.25729776117926134,-0.06761540074920878,-0.40603157693938363,-0.7077027354364037
0.166,-0.006284017236173101,-0.008321137518256059,-0.002059498528520253,0.009239706841194096,-0.002162844982759391,-0.006209449499085175,-0.04845606568655925,-0.19990604313562563,-0.267629369010825,-0.07792994262818112,-0.4160870492794849,-0.7137144237360588
0.168,0.007805640863306537,-0.015073450716371617,-0.0228951706959918,0.005415274462957411,0.014356401962557237,-0.020114746703477276,-0.05113343885693371,-0.2032441909690054,-0.2748490972590795,-0.08299496077126865,-0.42089822454663084,-0.7210945050895401
0.17,0.010327349992275673,-0.028777910428384873,-0.03910072930652983,0.01089366655884122,0.022873792216199926,-0.034512578657740905,-0.05443965818236538,-0.20192956186418348,-0.278444822613108,-0.08243424120557662,-0.4204124653691693,-0.7268294160337134
0.172,0.004540817256443309,-0.047386118327739056,-0.051915997753527024,0.023090421893495337,0.025954120199307745,-0.0495027000808269,-0.055035794889093055,-0.19809529401878376,-0.2769074307951736,-0.07772284424670059,-0.41731677560504854,-0.729686284609508
0.174,-0.0024682158206870276,-0.06492592677052775,-0.06245495948198561,0.03563598763969481,0.02757922122743213,-0.06337127036528525,-0.05170924832219462,-0.19279232416532247,-0.271914335053537,-0.07193834214020502,-0.4141785110177955,-0.729778164049492
0.176,-0.007532248432313918,-0.0775387641752011,-0.07001117046691252,0.04494663986173234,0.029037441359114603,-0.074041348640851,-0.04817644657568115,-0.18822581508338462,-0.27007231416649674,-0.06917612748723467,-0.4126142052666952,-0.7282204763122297
0.178,-0.010247476173352525,-0.08411230320430085,-0.07386855186390934,0.0498905825445118,0.030417983793807727,-0.08033299873968679,-0.049144366156818824,-0.18847054086588194,-0.2762663007213392,-0.07137406663565506,-0.4139187865715544,-0.727255249465775
0.18,-0.008820904078290875,-0.08325655285032012,-0.07443488775142693,0.04869924046881587,0.03249473313583244,-0.08118003507657072,-0.05540548108284343,-0.1953607882098348,-0.2873819450590895,-0.07648683929040485,-0.4180477519400811,-0.728481238064202
0.182,-0.001845063795839494,-0.07499798929303128,-0.07312858964610403,0.040882194430290016,0.03569826606881449,-0.07657481037455198,-0.06326373038200839,-0.20497183325499957,-0.2955291599310473,-0.0806620521578841,-0.42209104696331,-0.730597853439757
0.184,0.00735231238887361,-0.06387337755030871,-0.07107170529161291,0.03052975676270596,0.038428610720849424,-0.06908090375571879,-0.06796409224860646,-0.21101668035953067,-0.29615105204029357,-0.0813268097389796,-0.4224772011236312,-0.730413166699983
0.186,0.012611225784247492,-0.05619588004946558,-0.06834933035249954,0.023636222662139727,0.03855475571914244,-0.0625510984515527,-0.06708272227761454,-0.2110741484735088,-0.2904403995446541,-0.07862841062117706,-0.41815877734346585,-0.7261005932659476
0.188,0.010574215918439173,-0.054797691587629704,-0.0646227394398826,0.022996536310382613,0.03563836581427527,-0.059199141654913516,-0.06135506620326692,-0.20764561282892685,-0.28180183438531886,-0.07485598463615672,-0.4100382051539457,-0.7190817362464459
0.19,0.0018737984985462567,-0.05781424988662518,-0.05900978793366617,0.027690492408121655,0.02963435252560733,-0.05799476827233882,-0.05396273086388131,-0.20456881594162946,-0.2739232266806614,-0.0724103616721095,-0.40006482858721626,-0.7138788768730936
0.192,-0.010757605918880711,-0.062322053915678924,-0.051334058809780085,0.03572585531025676,0.020416177852564058,-0.05703627937603173,-0.048300983460716124,-0.20378604583036947,-0.2701952207935381,-0.07227589421382095,-0.39220196067568036,-0.7152822346561691
0.194,-0.02290975069547837,-0.06774372785517459,-0.04500526042240871,0.044959560244833115,0.010914435296046483,-0.057137705217959515,-0.045577622690701335,-0.2047481598776387,-0.2712793595893955,-0.07458169785395002,-0.3908558216537808,-0.7237755662188121
0.196,-0.029848736111299675,-0.07409886550986161,-0.04448127696263718,0.05242745942209582,0.006450905844589007,-0.06000132220598328,-0.04563012867972106,-0.20630967972755707,-0.2750368064029252,-0.07991709654784038,-0.3970396301752082,-0.7351814724275312
0.198,-0.029774816448988148,-0.07910414291204515,-0.049499863024531694,0.055233911199288076,0.009059349639426489,-0.06431482006212354,-0.04854927239278476,-0.20855778491519977,-0.2797639545070501,-0.08848132296671705,-0.4081053332208615,-0.7456624718576653
0.2,-0.02552159193286866,-0.08065933354335013,-0.05549391476196698,0.053541459921361445,0.015017530840745441,-0.06742229107794954,-0.05339143145667974,-0.21187025596761372,-0.28501742787559575,-0.09808716610482232,-0.4206876646632417,-0.7549695588507717
0.202,-0.02375267133224262,-0.0810856125523681,-0.05802427299376954,0.05229678704409202,0.017575953203089297,-0.06901324161375941,-0.057114754401929965,-0.21518750562213967,-0.2903678841934402,-0.10551293157300927,-0.43134114554426184,-0.7641031386403404
0.204,-0.03042507594542221,-0.08511897561727691,-0.05539944356109182,0.0573549326715011,0.012290768789579777,-0.0705494682466439,-0.056720431634911736,-0.21714272927215517,-0.29589374770521865,-0.11005622849336752,-0.4363389678636863,-0.7718525428147335
0.206,-0.04407632063434615,-0.09307227796375389,-0.049248848515919486,0.068373525617059,0.0015072552612338994,-0.07225442914134983,-0.051949167813285034,-0.21798321526581005,-0.3018649977359027,-0.11275337488868119,-0.4346113143503277,-0.7752150366251107
0.208,-0.05729004600396335,-0.09911343527285302,-0.04152714524008593,0.0786507343117458,-0.009188193938034462,-0.07179079445083518,-0.04549352226658457,-0.21839450031816565,-0.30653644900072424,-0.11222590006247811,-0.42877766483473173,-0.7722773171132491
0.21,-0.0671798000544761,-0.0980811815146416,-0.030343562796380348,0.08382802135549669,-0.01949239375562566,-0.06595673663149003,-0.04107343344280514,-0.2180541745344501,-0.30725269319329124,-0.10561998083529034,-0.4212125536405839,-0.7643522517723047
0.212,-0.07756408472807155,-0.09161618455016311,-0.013598629880502616,0.08633141901625804,-0.03287179432399954,-0.05480318221117075,-0.04124739752416374,-0.21746305426552742,-0.3046794856592019,-0.09454103158692026,-0.41263218117206407,-0.7562151897322138
0.214,-0.08808048341582754,-0.08533331217539371,0.002895074666209734,0.08864321671295389,-0.04636294012117311,-0.043768234776975175,-0.04603679937770034,-0.21872560363931878,-0.3031983152994126,-0.08576595464381642,-0.4051515548428909,-0.7527386776461853
0.216,-0.09017748300256184,-0.08160562759640537,0.008455713817195133,0.08760022230917068,-0.05054941704010764,-0.038941066352220007,-0.05338209957714663,-0.22235211304389,-0.3060659891074623,-0.08404151670425986,-0.4019999678837969,-0.7542109013658991
0.218,-0.07848192198837413,-0.07833557571807781,-0.00010529615506905173,0.07958505607361595,-0.041270484393173115,-0.04095802218077346,-0.06126802297936207,-0.22604572611744012,-0.31172619641621685,-0.0872262626207876,-0.4035301108100601,-0.7569706001062843
0.22,-0.05916009662011695,-0.07428087975878866,-0.015462007573964556,0.06734303953964149,-0.0247614919821755,-0.04631221971234642,-0.06860271388330558,-0.22788787422639123,-0.31565858983443984,-0.0903589705703825,-0.4071823795317226,-0.7588251676262148
0.222,-0.04282288452629885,-0.07144893845494989,-0.02899281128921991,0.057408364205347104,-0.010010926378128688,-0.05223838693394647,-0.07429695838737385,-0.22790857491173616,-0.3149136670979227,-0.09151596249208087,-0.4110021792150012,-0.7610225649315623
0.224,-0.03410736577708252,-0.07168742869557139,-0.03780148216199052,0.05316404683098305,-0.0008544069606796093,-0.05758726473797419,-0.07711127365905118,-0.2266246422605878,-0.31046828058929554,-0.09147698523605485,-0.41415069390073056,-0.7642196244072579
0.226,-0.032545904780586374,-0.07464194876018639,-0.04206221646047253,0.05425786571979213,0.0024813371238313815,-0.06118016112804531,-0.07604976929638932,-0.2246940857571851,-0.30565170329288116,-0.0906002440819324,-0.4151773714025512,-0.7655684034439582
0.228,-0.038819163549992625,-0.0794927732865313,-0.04039961359224428,0.06054319942770569,-0.00124297656140741,-0.061886658588409825,-0.07099415012012422,-0.22333854678947046,-0.30237979080367544,-0.0889216829336836,-0.412674069512871,-0.7619347807714967
0.23,-0.05286982894006664,-0.08559587097513119,-0.032208535321053174,0.071360241277807,-0.012110643621932066,-0.06011316178831937,-0.06431441223471933,-0.2232956651790766,-0.2995136576443835,-0.08735498994609771,-0.40707878805737163,-0.7542133621755833
0.232,-0.06890431041908132,-0.0910400709454245,-0.021420334326545006,0.08227470025304014,-0.025336740161697197,-0.05752873274170811,-0.059803315119596655,-0.22397058044408394,-0.2953195486569373,-0.08646639479450788,-0.40036340633718526,-0.7461657892599469
0.234,-0.07858743631310522,-0.0927771660127103,-0.013560075613394578,0.08725492080588225,-0.0343405253379655,-0.05501962323352627,-0.05830473424678018,-0.22435377682998273,-0.29047888982695014,-0.0854680812332341,-0.3947490579539456,-0.7403985779814698
0.236,-0.07742437181681047,-0.08950317948317969,-0.011853608539649323,0.08403858977475587,-0.0351761511157793,-0.052805134900763384,-0.0573256910770314,-0.22418645859979508,-0.2877891350401413,-0.08382421245265419,-0.39212976609518646,-0.7379266970349782
0.238,-0.06716430527881743,-0.08398090099565969,-0.016963982194226703,0.07603313010567962,-0.02786214777184983,-0.05216353541498552,-0.055775833512951796,-0.22389867687385073,-0.2888433540663167,-0.08244012208078891,-0.3929060082682581,-0.7398907092281908
0.24,-0.055148585982188504,-0.08098512760177144,-0.026031504849577773,0.06947730156692584,-0.017255499495096797,-0.05428027519235166,-0.05551013932971556,-0.22385060228901318,-0.29150404124540524,-0.08226295350590233,-0.39506509399023515,-0.7463229078462388
0.242,-0.04899393816322358,-0.08278236289143769,-0.033811924091872496,0.068262869077925,-0.00999752376970515,-0.058359569821658276,-0.05748247228610333,-0.22409354717110078,-0.29200220388993264,-0.08301182660682387,-0.3963021401889279,-0.7539635349416622
0.244,-0.048952795021860604,-0.08736607384909281,-0.03832145414745991,0.07066162187185265,-0.007308436876884972,-0.06292039411555554,-0.05981401411073749,-0.2248399643317639,-0.2895664498405896,-0.08410747804655733,-0.3970432293916828,-0.7582809430171833
0.246,-0.04930678759941744,-0.09075852709550646,-0.04139478222448274,0.07208985850116,-0.0052702581576777405,-0.06682892347627686,-0.06079768446640487,-0.22644734972230346,-0.28701330084321064,-0.08551193924966048,-0.39937139508078456,-0.7579913161136644
0.248,-0.047770026483271666,-0.09071224621730085,-0.042964588061077065,0.0710233551311097,-0.003076301529201255,-0.06825219930170005,-0.060840881904193206,-0.2287165925759898,-0.2866685484551968,-0.08667071846957378,-0.40283582968678994,-0.7559579911967983
0.25,-0.04688281310991278,-0.08725485090424416,-0.04043559191709596,0.06902105783615675,-0.004083603104990397,-0.06518424095168818,-0.05939738129307516,-0.23087663739443698,-0.2876293629224457,-0.08623433772954163,-0.404155270699715,-0.7555664968400404
0.252,-0.04788436588759061,-0.08054613154121149,-0.03280076831192436,0.06636172712697026,-0.009472632247512693,-0.057436358201406634,-0.05261311010725829,-0.23155526534443752,-0.2872144845946634,-0.0843372585960083,-0.40236407463491186,-0.7575327058902382
0.254,-0.05291917494150024,-0.07257154864017736,-0.019960780063622445,0.06448936826295956,-0.019161708456645995,-0.04683552451017212,-0.03836026497307691,-0.22885227153188226,-0.28456711599119267,-0.0841622485812254,-0.4020258055858771,-0.7614282751635183
0.256,-0.06880356801439476,-0.06907725622122106,-0.0006830238072126044,0.06972918737203702,-0.03613739790360045,-0.03570308695075129,-0.021815554485333875,-0.22228902304773074,-0.2824143151055254,-0.08972421023078296,-0.4096211294905185,-0.7697858900979695
0.258,-0.09614561039520458,-0.07371519864653292,0.02217083466500505,0.08513520975017122,-0.0599635201196614,-0.026519503892378355,-0.008333230024407858,-0.211634929234136,-0.2821834094982103,-0.10095638942384716,-0.42639785535247704,-0.7864160396551054
0.26,-0.12084991393111913,-0.08260473000550994,0.03826168905864736,0.10244089572611302,-0.08004648199918253,-0.0223225184235637,0.009272851912302156,-0.19111951302338043,-0.2766362609880062,-0.11146260004219977,-0.44579495497495675,-0.8090870186069029
0.262,-0.12906776478952176,-0.08872138948689488,0.04048999568019121,0.11072899418533723,-0.08610116355064278,-0.02400837816802372,0.04575563388729038,-0.1510141673481827,-0.25387198634593544,-0.1143395489459066,-0.4610650698632739,-0.830860904137834
0.264,-0.1250988338153717,-0.09068285766438967,0.03450509531152006,0.11035283488612523,-0.08156017580288655,-0.028752789508686392,0.10240128341373878,-0.08797546707811772,-0.21068047632209433,-0.10956519794116266,-0.47391247838558015,-0.8503450341130347
0.266,-0.12373070794404224,-0.0952646772616729,0.02857623705126573,0.11163850674617214,-0.07706169519544874,-0.035118593341304634,0.16009891665336015,-0.0091991533736671,-0.15374868282925253,-0.09872346039867158,-0.4875295096224321,-0.8698453907570505
0.268,-0.12702844176338707,-0.10513228096488651,0.022275846121132606,0.11750988659542336,-0.07446475038521144,-0.04340163819869218,0.1965417553108974,0.07102391820831788,-0.08771986515982746,-0.0726418202708543,-0.49054670327075933,-0.8811448755607318
0.27,-0.11891041951841388,-0.10499841641927694,0.01452653882731456,0.11316334745852215,-0.06662598905589323,-0.04643560164564838,0.2025165185876842,0.1333898716683043,-0.014453788877747282,-0.01589792705243614,-0.4595439573336547,-0.8653993104638379
0.272,-0.0863579595731333,-0.0763644784733576,0.010373230264061957,0.08310558725904878,-0.04955973087822467,-0.03341488755266855,0.18076315283407351,0.16222774952432217,0.057441923765470165,0.07420728433814391,-0.38295836882240336,-0.8118261272337999
0.274,-0.033666709841714014,-0.025520065381861932,0.007970043951162638,0.03202364171604166,-0.02308333210254317,-0.009075178219481742,0.1389095975009912,0.16525095147409063,0.12015100972367494,0.18653329220999773,-0.27285123437605774,-0.7289180286222217
0.276,0.032455914007533775,0.025061058080813815,-0.0078519174973102,-0.02630429242441775,0.018201225088663033,0.007805778039772516,0.08522541738341585,0.17635150077524997,0.18530983205789558,0.3162131043637777,-0.14606671400683793,-0.6322521390467071
0.278,0.11392205962933452,0.06885846037499814,-0.04539092797357761,-0.0897848693420492,0.07886531084424828,0.01035445466839297,0.023249169830615885,0.22001935849708756,0.27534075083754767,0.47118928620051226,-0.0018219260221901575,-0.5239344298616302
0.28,0.2056033273070067,0.11579062241087154,-0.09001304055602354,-0.1601980164899564,0.1475307554765282,0.011347161768861334,-0.05176759083256475,0.26805768605256275,0.38365108733519887,0.6515451819577325,0.1718373835204518,-0.39022331202586563
0.282,0.29008262196650564,0.1718136217568314,-0.11854164280000633,-0.23093826571227558,0.20347042845212074,0.025192968809989988,-0.14794121775131702,0.23966979152865991,0.45279724176179575,0.830367802995434,0.37349714902519265,-0.22098535664616434
0.284,0.36088502407725465,0.2411190219199813,-0.12013658926116406,-0.30062074128515087,0.23901477079942468,0.05890554703900902,-0.265587845854768,0.06121434861880593,0.415702843673949,0.970939587160593,0.5860403400136459,-0.022942366622654878
0.286,0.4289774509042804,0.334194711096204,-0.09516987365529965,-0.3805637262425625,0.260763734287456,0.11758764004432519,-0.38836762232768596,-0.25570568768268287,0.2737853047191831,1.0724776703520331,0.8027957356628066,0.1912899766112597
0.288,0.495219734940062,0.45411770349577973,-0.041428738440994234,-0.473386125775167,0.26785808147912354,0.20436185076407143,-0.48763146025804294,-0.6030271880227006,0.11696101766814401,1.1823358046181087,1.0369075011484434,0.41516330760302206
0.29,0.538054277480472,0.5863065969119896,0.04808259147292296,-0.5609925632118463,0.24510621356459614,0.31553796448888316,-0.5427455172105172,-0.8678433364751084,0.0390384342579328,1.3409323152321002,1.2914100154525727,0.6397312784079128
0.292,0.5384958136220931,0.7108417072861598,0.17236343346399324,-0.6234622173830685,0.18290554108882387,0.44043981584792224,-0.5589052210285201,-1.0312634074093598,0.04195176505416267,1.52529053277301,1.5344987181919,0.8445895573242996
0.294,0.5031810709253496,0.8154329982330729,0.31232519533554387,-0.6576931141187788,0.09427835160870193,0.5632722046546611,-0.5604122663808853,-1.1602884252044747,0.04370682205336106,1.6627034117865318,1.7137911504538144,1.0034739451633015
0.296,0.45677933887096417,0.8937453893632876,0.4368778461110848,-0.6729834650713964,0.0077965209871424445,0.6651304015065198,-0.5664682890735554,-1.3186940924467643,-0.03430983939448247,1.683314856621728,1.7785981514235065,1.0862243406649064
0.298,0.4157599654570816,0.9359869757367317,0.519871316409921,-0.6731398850959226,-0.05439002195683885,0.7277031647964604,-0.5756251635904694,-1.503674941481597,-0.20364159263920695,1.552414359445604,1.6906557742293538,1.0606320979905002
0.3,0.3741254932808981,0.9238042452118438,0.5492411650337718,-0.6465179437585605,-0.08893091853354348,0.7357602676485758,-0.570170647565517,-1.6553749874986798,-0.4104817146088497,1.285659656668872,1.448620496596703,0.9184589344791728
0.302,0.3207013116128495,0.8425822036179031,0.5217540932914623,-0.5802896380404146,-0.10070725141481365,0.6807766495675237,-0.5338142314643987,-1.7152211483981463,-0.5831327374441018,0.9522560350273431,1.1129701573826682,0.6994191027799987
0.304,0.26169174210365675,0.7067714546412217,0.445451580592062,-0.48413217733980957,-0.09206547501992,0.5743009866294406,-0.468229252474861,-1.6813301571433272,-0.6904057916740651,0.6369874146266938,0.7789195087219146,0.4685287773357409
0.306,0.20958610753221632,0.5639123011463887,0.3549049658811241,-0.387191126672045,-0.07404741095170955,0.45740288156275244,-0.3941822618036374,-1.61208857538486,-0.7671432928051861,0.37477264019924156,0.5062515815965841,0.26801596076318485
0.308,0.16014057907824658,0.4592714291751097,0.29944433162944445,-0.30968283679715086,-0.07180251121481417,0.3773729649455709,-0.3382090446478294,-1.5746787296685527,-0.8819101658962181,0.12654643508605046,0.2792294233987359,0.0968307881342647
0.31,0.10135051374594056,0.3990546986310913,0.29764614873549416,-0.24923040735774576,-0.09968432638488331,0.34648911526724385,-0.31715655640054846,-1.5889000229286732,-1.068013972507816,-0.16210115449189336,0.044807897073517365,-0.0684379342895028
0.312,0.03652879284235071,0.35638363019842934,0.3197829131767106,-0.19480981813549078,-0.14212375298155724,0.3361558979550079,-0.32880021204550647,-1.617099585714154,-1.2728264537781449,-0.46538469374940933,-0.2035812444786435,-0.23424516091330316
0.314,-0.01837858251224312,0.309956829963655,0.32860142407767984,-0.14395748845362344,-0.17360058005771686,0.31709258659230155,-0.3544524674898382,-1.6069165526145384,-1.3894545826196276,-0.6674226795134666,-0.39850850929293186,-0.3736226820645454
0.316,-0.05311245190187709,0.2667016464137654,0.320314894332192,-0.10508425718767912,-0.18691755062101295,0.2913384925299295,-0.3747265205951833,-1.5472275334476067,-1.3691359644020402,-0.6923374713306624,-0.48106243530575366,-0.4591369450007865
0.318,-0.07043881446617796,0.23877478080286968,0.3095398791526818,-0.08295933971073766,-0.190336293750424,0.27249167259568025,-0.38468395679619927,-1.478285642839834,-1.2864089945885047,-0.6165070291484247,-0.48698831402992365,-0.5051931876998784
0.32,-0.08246271318224038,0.21081267218673339,0.29324123787341305,-0.06385081542031402,-0.18860343896709997,0.25076127141067406,-0.3917969857968159,-1.4405784808021642,-1.2521872052033398,-0.585284362218008,-0.5050716809703859,-0.5552552396565452
0.322,-0.10048966179250152,0.15796923113871722,0.2582706000352746,-0.029077801339846488,-0.18084204747020868,0.20673709195776183,-0.4004958803379281,-1.425871562644891,-1.2823659906059863,-0.6415039486816464,-0.568405585829567,-0.6294511796031927
0.324,-0.124342568845931,0.08968157029124066,0.21396719126571268,0.017154742918156943,-0.17101829005350186,0.1505105530472869,-0.4050974572323059,-1.3929703372184226,-1.2999480424184258,-0.7063767509940226,-0.6357566711879654,-0.7081568847794316
0.326,-0.146344957037002,0.03820306746190281,0.1847411559818559,0.05465394761617065,-0.16711999045898124,0.11103139519487672,-0.4010332045731129,-1.3196225840318248,-1.248085882209056,-0.7094309106413342,-0.6668527345718459,-0.7677116047265764
0.328,-0.1613691047556448,0.01126037692055974,0.17305129634904406,0.07615156609813843,-0.16814754379367014,0.09268746018945385,-0.39470311941247577,-1.2206963543783018,-1.14915522047863,-0.6642990372621308,-0.6677021309242722,-0.8081169873056926
0.33,-0.16255371127171744,-0.0038594787063267,0.15924941511062213,0.0842417514271879,-0.16144771736304014,0.07834565864713357,-0.39149387253438567,-1.1218068826465353,-1.05494935577845,-0.6168228423597828,-0.6615217271735074,-0.8385014138103044
0.332,-0.14077145918921485,-0.004534889370738664,0.13678074288556805,0.07375610215671748,-0.13963175668107272,0.06621751800724687,-0.3792828789911808,-1.0318852884883956,-0.9813104030617895,-0.5780128775219301,-0.6523858892118454,-0.8557053372415354
0.334,-0.10394579211180148,0.0157617945462645,0.1200853059874044,0.04592094375608695,-0.11375226444084868,0.0675787893900538,-0.3396934566171553,-0.9428913006312515,-0.9076378929659934,-0.5296235486376981,-0.6311047567375228,-0.8517153808655457
0.336,-0.08047099581873336,0.037182414070071015,0.11777512502043261,0.024137772268886932,-0.10159553822414123,0.07702586111875813,-0.2760356143757809,-0.8469222653977496,-0.8182262041763239,-0.46493831122202256,-0.5979450064223903,-0.8326736155725527
0.338,-0.08673390813278192,0.03334247046918269,0.12000368522173321,0.02895643013694048,-0.10598474819006747,0.07609396912687967,-0.21434877603808647,-0.747885573288582,-0.7219849329593301,-0.39746886056186687,-0.563132524149392,-0.8148515609285688
0.34,-0.10412630936325806,0.008656391278002672,0.1126842370970345,0.04917203042759848,-0.11079154219245632,0.05979007224747029,-0.17409562026294903,-0.6559299154739139,-0.6353648497119848,-0.3381936512888529,-0.530415849189997,-0.8027624986372527
0.342,-0.10160598883907088,-0.010084295017020227,0.09150663361474405,0.056545053297783386,-0.09854696091574142,0.039548208086411074,-0.15214822574426606,-0.5755200793237969,-0.5624747216549927,-0.2858866762681902,-0.4940423552613265,-0.7859320499524531
0.344,-0.07295565384541541,-0.009001263482521737,0.06399807837794079,0.0411597092685918,-0.06974742329668353,0.026341358756359002,-0.13729473578710205,-0.5053344777504388,-0.4973078161188437,-0.23989492368735144,-0.45265759350980184,-0.7595238466209064
0.346,-0.041530615602396785,0.001446985340210741,0.04300672399844313,0.019925644720878852,-0.04257008353559561,0.02146681990839057,-0.12490168498720292,-0.44496345680350563,-0.4367124179130614,-0.2057365050546935,-0.4145953853951295,-0.7336063323170474
0.348,-0.030497364534393917,0.004502088579130674,0.03498991144429334,0.013018307049468951,-0.03239144487932038,0.019447795758567775,-0.1142285678562483,-0.39395667828445957,-0.3846959225286455,-0.1856389359278118,-0.3875203857501267,-0.7192346348594849
0.35,-0.03746407703812876,-0.0031595031514780065,0.03428425502694079,0.02088151992812477,-0.03551911750426674,0.015330004441927406,-0.10415233805920365,-0.34955574846754334,-0.34721979361730726,-0.17452213562671384,-0.37223397066147634,-0.717260001338545
0.352,-0.04356544648341295,-0.01294045233687428,0.03062049133469603,0.029296502107450245,-0.037039869281138844,0.0083174595626201,-0.09368658277303743,-0.31002485461848855,-0.3248302730767014,-0.16518614693986922,-0.36560847059161483,-0.7208581392428031
0.354,-0.03972604123618732,-0.019692862343839632,0.020042097829421325,0.030853019492859256,-0.02997836617017586,-0.000761075712847035,-0.08029134003296803,-0.27481438230014266,-0.3090887693121631,-0.15107254946543477,-0.3616985993824931,-0.7210538524264174
0.356,-0.03312654869204835,-0.02570735214318238,0.007425908054762752,0.030720299279174273,-0.020392041917980018,-0.010748869625320439,-0.061187065112296136,-0.24245133397096535,-0.28924110594158786,-0.12889330042256353,-0.3541721010617585,-0.7135684091520196
0.358,-0.03269907360703448,-0.03352324513764078,-0.0008477722771674198,0.03501496805049223,-0.016193286210388392,-0.01961790732862893,-0.039200699052972625,-0.21366893334761164,-0.2629630526623992,-0.1029603438004345,-0.3425091684791884,-0.7033911842169209
0.36,-0.0385961874773076,-0.04333757135063112,-0.004877154805588591,0.04338664584945491,-0.017432718602129617,-0.026692027202927054,-0.021397466533209553,-0.19178034433908567,-0.2352932517476983,-0.08031586781748422,-0.32983162578640346,-0.695830709867849
0.362,-0.04290046531802746,-0.051489517857183774,-0.008895753226858979,0.049429791033658035,-0.017998363487131536,-0.03179329396290563,-0.012016948809535124,-0.1767242412171122,-0.20948124027903883,-0.06158524578425833,-0.3154216854926289,-0.6864456838507099
0.364,-0.0357808066617511,-0.049407556649879066,-0.013938131130522911,0.04431574032148858,-0.012544057818291257,-0.03199812556039559,-0.011396042324271494,-0.16457947358772754,-0.18621839856281136,-0.044546556315489025,-0.2977890178067325,-0.6703839127284478
0.366,-0.01640416429302431,-0.03440014741432234,-0.018075811026226622,0.02693252934495951,-0.0014231811584248365,-0.026217709725202584,-0.01823181920735426,-0.1529873939841333,-0.16793556567408396,-0.03209429293983413,-0.28143754703808976,-0.655022151332188
0.368,0.0014436146931156352,-0.018938422888964624,-0.020414701890225852,0.010181946364846062,0.008577283694743441,-0.020290685806438478,-0.02852781568585761,-0.1419179779946663,-0.15643142483882178,-0.02769853607593141,-0.2726354719861191,-0.6515304378603738
0.37,0.003322336226558052,-0.01772773621606544,-0.021531048849593067,0.008052470811984389,0.010634746305650387,-0.02090025346644206,-0.0359090033853858,-0.13039067268682103,-0.1492526456146504,-0.028017503412355548,-0.2721196497248495,-0.6596674207007549
0.372,-0.007557702175207589,-0.029978626787914565,-0.02338926582582899,0.018732231834227835,0.006607001051150511,-0.028145837791350235,-0.03619832904772224,-0.11609294978859741,-0.1424709798488693,-0.026522846011303332,-0.2762120929997838,-0.6699016075319953
0.374,-0.01572464589127024,-0.04315614366640943,-0.028275517529686135,0.029035803159803367,0.0047497192156328895,-0.03719299193507323,-0.029873530700930382,-0.09786367866012864,-0.134181853520265,-0.021271643864637046,-0.28148821728413187,-0.6765173548872836
0.376,-0.014325843856890872,-0.049240885566736316,-0.035118391399238835,0.031825182251061825,0.00829606534921801,-0.04371998084306376,-0.019768803210130838,-0.0778567649710462,-0.12402899504115608,-0.015391946595711309,-0.28592925320022694,-0.6819132684746394
0.378,-0.01030256867602028,-0.05038800560673151,-0.03980681976765068,0.030885770265374705,0.012475352012751928,-0.04674793335402259,-0.009016501600886389,-0.0614365059539371,-0.11226946622877472,-0.010978425296645812,-0.2875838934972341,-0.6891726422315984
0.38,-0.010502865760872643,-0.05095386909403827,-0.04020230837446907,0.031000655625546287,0.013112438907443298,-0.04727867296999365,-0.0010431012331834615,-0.053036329047125415,-0.10003235800303464,-0.005603983369261881,-0.2840756573684553,-0.6956303037249938
0.382,-0.012744039141974655,-0.050321330165094054,-0.03759922467359199,0.031094019841694884,0.011749921807746313,-0.04535351284624742,0.0013827778330645318,-0.05170462688653363,-0.08867041072657601,0.004118914657691557,-0.27425924023222714,-0.6956203651852157
0.384,-0.01191455713478191,-0.04610037821955995,-0.03432888020980109,0.02843289729308294,0.011535013030568924,-0.04107259218139735,-0.0017672363672278518,-0.05284348305584908,-0.07908290954399946,0.01736453029858126,-0.2605295290515551,-0.6876739837949526
0.386,-0.00788778231873934,-0.04063274374830907,-0.03280173878256784,0.02436436351616399,0.013020136330288723,-0.037574300590961326,-0.007318606427235938,-0.05273944670746842,-0.07227338251352476,0.029181071111886316,-0.24805098620159166,-0.6768856307868835
0.388,-0.0047583132655099275,-0.03928094442196004,-0.034472239170631386,0.02274039040870906,0.014800778194317944,-0.038405210235704264,-0.011413730830726658,-0.04956823494982256,-0.0684257900589289,0.035960463194323694,-0.24036701489334716,-0.6694051085352342
0.39,-0.004480392663173455,-0.042706814134001604,-0.038149569191011985,0.024306496583626127,0.0161499535964849,-0.04240343895545293,-0.012975225873488028,-0.04374735877082552,-0.06572527557059336,0.0394863562415848,-0.23654858793729344,-0.6661436545087819
0.392,-0.002875953682939831,-0.045748495079297485,-0.04274247335452731,0.025059112119325155,0.01917973445639832,-0.04595280268164217,-0.013499767960575018,-0.03861473044089163,-0.06283654786449275,0.04416820006821888,-0.2333533997131051,-0.663748805525994
0.394,0.005786975973845619,-0.04500845070690568,-0.05049854417617189,0.020998852445766037,0.027295308054464295,-0.04907025138299354,-0.013386800290155326,-0.036818573582588894,-0.06046617019343274,0.051607309991843035,-0.2291378306393964,-0.6603934683025029
0.396,0.019717462003211353,-0.04283911912396239,-0.06212593504711457,0.013604377267061532,0.03937286927769022,-0.053828114025099905,-0.011000691590828206,-0.036504128589161626,-0.057969694719765985,0.06060447184502326,-0.2245916566048033,-0.6574434812675743
0.398,0.029251410254055827,-0.04253052253030147,-0.07138505191710225,0.008835113894122792,0.04792084103307315,-0.05839101715428452,-0.005214778516843936,-0.033741600438371856,-0.051583821329928635,0.07159462312297338,-0.22013972128460343,-0.6552925429295914
0.4,0.026715236588702534,-0.043863296127354456,-0.07026441528397732,0.010799192334771234,0.045750076333463646,-0.05812115643348269,0.002854205643738802,-0.02652955561285012,-0.038870386145812244,0.08625695123062432,-0.2139274586757941,-0.6514688013294869
0.402,0.0128966651578239,-0.044426334567888914,-0.05704575249121071,0.018053466410205183,0.03239335882975183,-0.05134524006670698,0.009913028071017635,-0.015223019882387112,-0.022965222748988153,0.10191788885988874,-0.20338052800894152,-0.644526450387219
0.404,-0.0053630373031822755,-0.04195384915252477,-0.036405028905908784,0.02564477939013853,0.01341550502321417,-0.04016728533306942,0.012956303866394642,-0.0016064989362657882,-0.009779161893951806,0.11208221777244656,-0.18913182190670383,-0.6363712126168295
0.406,-0.01932759739167478,-0.03541335912149818,-0.016068669403914812,0.028911309716072565,-0.00292454617264456,-0.027932169538685686,0.012788566549745523,0.010961077133344248,-0.0022316766536520944,0.11457175779341598,-0.1763861948570029,-0.6293273842997157
0.408,-0.02200978066976018,-0.027164352933176532,-0.005241987298763676,0.02628050969404166,-0.008657048563344186,-0.019289303575947533,0.012322898138494706,0.01793782502360057,0.0007656295635753179,0.11406223111445504,-0.170649221042691,-0.6237692811590261
0.41,-0.013309479492076103,-0.022757540471998617,-0.009506341913795626,0.02033027087822476,-0.0013904743109037537,-0.01890055392113738,0.011193025788136888,0.017536037272102435,0.0019227415177743158,0.11535188697108884,-0.1715800653549164,-0.6192198700743414
0.412,-0.0011263752742121137,-0.02508050246635507,-0.02393734962910076,0.015554661890929584,0.012153990800762727,-0.02613789705082239,0.007467170825829296,0.0142538887853292,0.004296360116325019,0.11888233074991728,-0.17289175663494877,-0.6154267074965327
0.414,0.005655478132322204,-0.031059913776985817,-0.036675684556803555,0.014603780763374164,0.021760153028581846,-0.0346141358688187,0.003891742753806917,0.01439878135984919,0.009815270176901099,0.12304957603015174,-0.17034297610063825,-0.6123597422285523
0.416,0.004853176608181249,-0.036221503747140435,-0.04106450182763932,0.01689639637468518,0.023358092402921294,-0.03920148881721499,0.005036622528208742,0.018484398855938777,0.01697995520326496,0.12649445864293865,-0.16740802995272697,-0.6107155987824444
0.418,0.0014968920900977898,-0.0389727219947031,-0.040486277649660445,0.019745699675263812,0.021254649488970195,-0.04051266498320963,0.009643854332762327,0.021882313338645383,0.02198822437513902,0.1282521064845279,-0.16931153334377771,-0.6114987502433843
0.42,0.002199937645037363,-0.039756256076423475,-0.04196970541517718,0.0203073051339901,0.022107480142677022,-0.042106810436844076,0.012417693950145102,0.02219445015344383,0.024021076422312923,0.12884855847579352,-0.17424160972463984,-0.613934619993235
0.422,0.008964270346453345,-0.03942410066143223,-0.048385749125811006,0.017487784147975097,0.02831834432314846,-0.045615954868781075,0.011571600535948154,0.022912341535720165,0.02782577460165861,0.13091376525099158,-0.1753128026648623,-0.6150156619039132
0.424,0.0175432650299473,-0.038890293629149676,-0.05642493921615985,0.012913736691645557,0.03634546149371891,-0.04925872347356187,0.010307303216348573,0.028893007866663604,0.038255105222001796,0.13666001317061838,-0.16930916409626195,-0.611965507787824
0.426,0.02169008269434782,-0.03863311649050328,-0.060320512847928,0.009981683240153224,0.04030149245503263,-0.05039127265435659,0.012300883715898318,0.0391411895578185,0.05270472107317128,0.14532100842626516,-0.1594251750285013,-0.6047937475867546
0.428,0.019041301241486747,-0.03785947307987904,-0.056882254521019526,0.010646808755845824,0.03714954511265359,-0.04783665501834456,0.017896881620205782,0.0468768948932553,0.06275923597631472,0.15460492880424437,-0.150154617906014,-0.5964654056929004
0.43,0.012988968971865472,-0.03464214765547543,-0.047502900053909426,0.012600395102104058,0.029079506523053918,-0.04163182935536032,0.02362919754498184,0.047828318980927674,0.06430811098251688,0.1635681397246672,-0.14233882947344123,-0.5905716695277455
0.432,0.009342350697657688,-0.028364190559490833,-0.0373567966537626,0.011466304233255424,0.021831938216469147,-0.03358039740865534,0.02483867945172262,0.04519326264678233,0.062373735429734865,0.17229830948347669,-0.13438347684649596,-0.5885904915448744
0.434,0.011659720483940568,-0.021744282143825826,-0.03284820604878615,0.006125600516313243,0.020653504029534343,-0.027985067717135947,0.020597087190971898,0.044793887125720196,0.06453644436458893,0.18012589505646467,-0.12666923238434089,-0.5890675281398748
0.436,0.019555968204358048,-0.018091109333808128,-0.03706343253945697,-0.0005657232460615269,0.02678928046632249,-0.02810249416744853,0.015955461640408376,0.048432537076852335,0.07258260349412582,0.18614348104072342,-0.12199453566683448,-0.588937899795293
0.438,0.02946945325221618,-0.017567308136872913,-0.04664052586794228,-0.005567501436881977,0.03667334209847102,-0.03242413937618886,0.016634336987496348,0.054112470841697756,0.0822933249177664,0.19033165556453466,-0.12193357355944351,-0.5861669689416639
0.44,0.03596148230068741,-0.018142401762124744,-0.053994846522506294,-0.007650049977705471,0.04396551396111087,-0.03632833848190336,0.021979710069785593,0.060044629638356155,0.0896792330297489,0.193056524774669,-0.12402242550221702,-0.5817071346431243
0.442,0.03534638912246423,-0.017726967689060125,-0.05316220350429164,-0.0074935654202262815,0.0438353536897294,-0.03579734541058367,0.026264613935092412,0.06550860363953975,0.09495377893923442,0.19516850417411985,-0.12279817186947296,-0.5778015255367372
0.444,0.029729117434008603,-0.014802474774606745,-0.044630853038733063,-0.007218268995632088,0.03698659646293595,-0.03019157186455065,0.026209000081369702,0.06964331382374661,0.10011810516349158,0.1987047824526141,-0.11546924919798485,-0.574634837882664
0.446,0.025081763221185313,-0.010480475712226827,-0.035568865642966616,-0.007862154498296003,0.029410385585645175,-0.023691437458529144,0.0239188241321309,0.07216009422539196,0.10522571719568259,0.20526307626737542,-0.10572559760025675,-0.5705009352376168
0.448,0.02501562249308946,-0.008839581286428354,-0.033807052681091826,-0.007980572519072499,0.027207237965102875,-0.02204569017032545,0.022697592029806892,0.07465198974739888,0.10885894709870834,0.2138876829314702,-0.09827808229845923,-0.5645180457578728
0.45,0.027995995088046243,-0.011890277744047505,-0.03985962031029241,-0.006417412042816675,0.030962032254956938,-0.026117495571267052,0.022848169649537932,0.07966237711776814,0.11090956569386547,0.22220722842843882,-0.09194274982091294,-0.5576626223328461
0.452,0.030586902860571984,-0.016461153075640795,-0.047061213232255296,-0.00471038478084628,0.03628548055942537,-0.0312860819745298,0.022368171533798376,0.08788066659466948,0.11368076749128508,0.22954534807778318,-0.08263976979687941,-0.5518031263792283
0.454,0.03263971531232177,-0.01802696903437611,-0.05066544236485779,-0.005618745544180363,0.040420818209021034,-0.03384122531005442,0.020302085917053535,0.09665526536126699,0.12079332307397471,0.238008342200492,-0.07107457970750232,-0.5485144503549008
0.456,0.038160217888193855,-0.015333865917505473,-0.053365478646695705,-0.010615922273033108,0.04583597423348261,-0.03487321783820493,0.01835341301581598,0.10227580151066176,0.1338857422537386,0.24949443929347515,-0.06277490951165098,-0.5482919933688114
0.458,0.05071629191008659,-0.010918321361295596,-0.061275272891734144,-0.019107154307954385,0.05665726841243647,-0.03788933312013846,0.01893151581287628,0.103779871883124,0.14940926626631545,0.2620372119122987,-0.06025314050938599,-0.5499476438167368
0.46,0.06834286808157224,-0.00811478016414709,-0.07589748617359873,-0.028724989769083293,0.07263818364865117,-0.04426381342380038,0.02184039714788628,0.10462495690370442,0.16132894535638628,0.2720106932875699,-0.05872547857389197,-0.5505726330568897
0.462,0.08191104847555718,-0.006953605874108882,-0.088284160414396,-0.035582426782976566,0.08526495542880888,-0.04966720925409921,0.02460227424498231,0.11085424594333636,0.16791545114790857,0.2795651384932917,-0.051726574884964266,-0.5466962457659762
0.464,0.08051018504275206,-0.004188887141413944,-0.08430672323242859,-0.035949614902812566,0.08236827438799886,-0.046330604784863796,0.026092253219092674,0.1250001243207018,0.17323365358333856,0.2876521069983565,-0.03891801234007657,-0.5370814572336033
0.466,0.06239781320147283,0.000659857119884509,-0.06160711548410018,-0.029258401158740215,0.061718898727614074,-0.03303099304829469,0.026895650227081666,0.14119035926281914,0.18177819098773595,0.29673171906794116,-0.026040269258002163,-0.5252946013852877
0.468,0.03823816100954226,0.0027123409590230256,-0.03548129524115106,-0.01860848773718276,0.03609645629495542,-0.019213690653745594,0.02637215154626293,0.15151077655260103,0.19354313999679137,0.3049097066237152,-0.018106647636339068,-0.5170198921752351
0.47,0.021883724629601517,-0.0006620484790786854,-0.02231655846380937,-0.009292273842052803,0.02082804149359713,-0.013968597447581228,0.022391565534990807,0.15683838832110225,0.20463363771705562,0.3115686313906898,-0.014693445814326111,-0.513996904202246
0.472,0.02140118477155323,-0.004626039486636513,-0.025611863025028922,-0.007255282455287441,0.02190591450007047,-0.016913575195560155,0.014547756522096432,0.16424961517569245,0.2122196585818739,0.31724771323387013,-0.012025459086479168,-0.5139023523583695
0.474,0.03686567803638423,-0.0039733040414383115,-0.040536161660576525,-0.01525423070809926,0.037001826362537134,-0.023636530105804472,0.006691025591002434,0.17527066396353164,0.21770521673020385,0.3221103880355678,-0.008002722794851534,-0.5151969029714208
0.476,0.060934610824467855,0.0005886905238548428,-0.060345020581954185,-0.029649335998806522,0.059302812519589174,-0.03127213240830873,0.004240011328478763,0.18426230902998122,0.22351294384313886,0.3271519758516611,-0.003422652125010159,-0.5171928939933447
0.478,0.0814587966358188,0.005728145551693499,-0.07588916736747978,-0.04275397806052379,0.0781417251806931,-0.03633684012128494,0.008220647881379725,0.18784809222110793,0.2284663506432862,0.33507319248979683,0.0016211939437084906,-0.5164597394612609
0.48,0.08869384214728737,0.00886918631329269,-0.07990831685283746,-0.04815054468413403,0.08425672442842932,-0.03608036315282326,0.014515363245827678,0.1901777788525298,0.2299698091566411,0.34762789674029204,0.009789285556263749,-0.5090046597114867
0.482,0.08371706763255848,0.008275331377866915,-0.07539843523342932,-0.04522383919920604,0.07908333496652276,-0.03335067024165299,0.018982895201958682,0.197346976394618,0.2301897640011961,0.36272886036258256,0.02305382295863448,-0.49652696743978314
0.484,0.0771957251601546,0.004581402641499983,-0.0725481167025839,-0.039650302158298345,0.07354877352853291,-0.03363028254520273,0.020819605793515043,0.20962898406313418,0.23606436746063827,0.37682211952470823,0.0395050004824189,-0.4848807926747655
0.486,0.07673066536452676,0.0011166498455726466,-0.07560564149850556,-0.037140913016146075,0.07453066877082616,-0.037523774452917526,0.021776328223417414,0.22215307817004934,0.2518264318983933,0.3902970680820859,0.056194204312301044,-0.4750139524823736
0.488,0.07892064558373742,0.00012116129105780378,-0.07883146338513161,-0.03730640411254931,0.077763447849992,-0.04066724316466598,0.023339799946578307,0.23188511973550566,0.2736766480704321,0.4064443032717245,0.07260694328955426,-0.46166335413363785
0.49,0.07723319422133923,0.0005304606201580417,-0.07672257521581476,-0.03661021568463161,0.07674305508977156,-0.040162095888943095,0.02412282427190702,0.24016326489650186,0.2935051795391194,0.4243289706156788,0.08822801858187052,-0.4433149508128726
0.492,0.07326880902105858,0.0008588237856562819,-0.07240202947473981,-0.03527047400432564,0.07308693842464031,-0.0378261478440967,0.021503288328321515,0.24917593197756793,0.3070759538983109,0.43876774340908975,0.10041289756172916,-0.4269130994811692
0.494,0.07479213023152964,0.002388179056758456,-0.07238932993018793,-0.037431546028292476,0.07353026461847048,-0.036691552167996105,0.01635243836635337,0.2594995634250297,0.3168668545073345,0.4489238160751303,0.10854726870973273,-0.4194039163513832
0.496,0.08397018667417093,0.007732279784059081,-0.07623526461932874,-0.04493789738840006,0.07919840616947396,-0.03605327761082411,0.012980427409784404,0.2706117191196361,0.32713246623812353,0.46031629066708346,0.11644458743354816,-0.41929995439990353
0.498,0.09326026348791609,0.01662486154086754,-0.07664211810673419,-0.05393776160729902,0.08330831096151707,-0.0324274034802888,0.013943576931560288,0.28194526032493283,0.3394443766725484,0.476590626613748,0.1275561572980691,-0.4189911256572156
0.5,0.09635106906718388,0.0255682988941215,-0.07078741981379151,-0.06009157078299711,0.08161437842330625,-0.02543057293743181,0.01747365862739123,0.29326914359766054,0.35370748530381835,0.49469254286016173,0.14120288119074526,-0.41291809462050666
0.502,0.09883720474213635,0.032116498766289726,-0.06671926174183405,-0.06519117820355533,0.08089448769926973,-0.019726725710670637,0.01980274975736171,0.30407437547705096,0.36898197137038774,0.5094176663335377,0.15477867544274912,-0.4021624155652413
0.504,0.1107139397634117,0.03644764283435357,-0.07426306971005786,-0.07380111065196729,0.0910249437262226,-0.020126223610919612,0.018690653871228098,0.3137543678432269,0.3828633361315129,0.5196392394916018,0.16701635897430134,-0.3914724502832241
0.506,0.13133958296411472,0.03870821194981635,-0.09263061768412946,-0.08501095034475377,0.11105969147774293,-0.026860638813221743,0.014680648255338229,0.32270156360968594,0.3940193003335189,0.5292402095808127,0.17886547369243663,-0.3830671770964016
0.508,0.1507785750147765,0.038682735137153666,-0.11209724121380557,-0.09364444787821896,0.13067642860162101,-0.03624773335618232,0.00914954798969899,0.3313430413080057,0.4042628431678825,0.5425667790182646,0.19186643342604373,-0.3750421159522281
0.51,0.1625301909284661,0.038160544477126246,-0.12437072691398991,-0.09792485467850841,0.14234570723345538,-0.043465864097331684,0.0032262059342732016,0.33995390472720544,0.41642261724998275,0.5601410126756622,0.20594407354302788,-0.36452882572525136
0.512,0.16624322107669734,0.03989167189831271,-0.1263513005240577,-0.09990849573521991,0.14474694415715303,-0.044478175672552044,-0.00015896101716683626,0.3517180570735643,0.4321836336937915,0.5798335448588331,0.22039748743182624,-0.35017328091612976
0.514,0.16290926575473338,0.043977841646307816,-0.11893071570389006,-0.10053920229726548,0.13934997660607895,-0.03880584547404371,0.0026545198696912254,0.37086987409118805,0.4512510299765608,0.599987479442984,0.23613767628824875,-0.33333946580597723
0.516,0.15598726707657634,0.04811929867286737,-0.10786776572746612,-0.09989560119547373,0.13102213317416841,-0.03109018746112237,0.010405166925984866,0.3952313010883526,0.4710996936952109,0.6199944485098117,0.2542042325990859,-0.318056268436003
0.518,0.15438429928771225,0.0513386799786304,-0.1030239694720192,-0.10111930536734026,0.12871364360808196,-0.02760921856051048,0.01634561864596219,0.41629243206400257,0.48907394529285647,0.6406949919665405,0.27330448185027045,-0.3077047611738699
0.52,0.16719199342033236,0.05547809789772864,-0.11158282877883696,-0.10960508955673041,0.13956852269948633,-0.03067712667196074,0.01582813430998165,0.42828465517989106,0.5046151441646407,0.6642530700328628,0.29123031897725576,-0.30154823791280616
0.522,0.19334967809409645,0.0631815251287564,-0.1298626343307902,-0.1267898366222594,0.16075987975229755,-0.036176993665069296,0.011737973693796944,0.43334679058279807,0.5185280881512074,0.6903497708984674,0.30794977061290446,-0.2955537232462027
0.524,0.2199271198356344,0.07491998340183299,-0.1447376319848021,-0.1465409795782089,0.18005949222759443,-0.03696040677741639,0.010335206068067112,0.4379830966771647,0.5322567826545364,0.7142386322989046,0.3260958775915784,-0.2859345258128448
0.526,0.23328057166201072,0.08707354738475868,-0.14641016596667408,-0.1595106194051742,0.18705165854294994,-0.030373240885874866,0.013698999967458905,0.4474281168202378,0.5487290715559708,0.7319600931304453,0.3481449615155159,-0.2712627060993655
0.528,0.22974657730900933,0.09420653876755126,-0.13631579559701335,-0.16084947004963773,0.18100406877672545,-0.020695947110498505,0.01824006807079404,0.46260117528545097,0.5696789584293157,0.7456797855356847,0.37298468862865536,-0.252600153653681
0.53,0.2162674109599306,0.09520889118067681,-0.12188251923888442,-0.15401612231418652,0.16819348377173324,-0.012913494147874518,0.018687360823235383,0.4798971456012092,0.5903889760301068,0.7616759002319482,0.39612889426586473,-0.23309401311782751
0.532,0.20451713303688193,0.09437303167171474,-0.11043717912450524,-0.14745229318423878,0.15718701929521417,-0.008588999452237681,0.012275831199460123,0.49478783905138585,0.6031544225319416,0.783261073908061,0.41380719563410484,-0.21608296396770726
0.534,0.20252823430215539,0.09476854401935735,-0.10754205674287406,-0.14649863138696478,0.15484618967883343,-0.008360604504283836,0.0016220236310323481,0.5060153454813519,0.6084319874610299,0.8061320899072474,0.42580055370746667,-0.20225237957438524
0.536,0.20932158317844413,0.09535244614251095,-0.1137036931868739,-0.14985677868310796,0.16136358554583805,-0.012228543619546573,-0.006106922967891649,0.5143704836033115,0.6155931133654953,0.8229008284847731,0.4346852806611268,-0.18991054089423473
0.538,0.2188200544815382,0.09573707811349008,-0.12306374144060458,-0.15474645005600818,0.1706568922238057,-0.016992945625865976,-0.005713258563570319,0.5197292747883906,0.6303579039910273,0.8326203906432165,0.4444146737505549,-0.17796035175890634
0.54,0.22754400219555976,0.0982178074371988,-0.1294583617472518,-0.1612733554658182,0.17748112766370472,-0.01855456335704455,0.00011943554809430442,0.5223609236303176,0.6478903430609148,0.8412599926345811,0.45845809864187037,-0.16674382370619203
0.542,0.2361851334525484,0.10484769623075879,-0.13141133470607486,-0.1704152938634643,0.18153895689865493,-0.015717859778704577,0.0034994409611223843,0.5240769516971154,0.6595828617400785,0.8530213408939344,0.47639600626091283,-0.1569083466186571
0.544,0.24578745178162112,0.11629266236587606,-0.1294585166375668,-0.18170234122640216,0.18436388108758564,-0.00886108250525846,-4.3308707557078804e-05,0.5256797231712822,0.6622667042694643,0.8669893812852322,0.4938319591603363,-0.14894750257023043
0.546,0.2550169431843056,0.13089903601406302,-0.12406041365201144,-0.193067242591237,0.1860792322661943,0.0010486683994596574,-0.00744545468043982,0.5263223769616563,0.6604927016271177,0.8808499833989439,0.5075093054955067,-0.14238178121933173
0.548,0.26096527458949403,0.143017344133365,-0.11794024679710724,-0.2009617666272448,0.18637098895041282,0.010287853325054065,-0.012930595081789563,0.5265934420736975,0.6611476057668977,0.8930223711449926,0.5184800877986555,-0.13505364548165305
0.55,0.2613439698605263,0.14707894179999795,-0.1142927068922925,-0.20238526410632413,0.18515668902553042,0.01468983831366711,-0.014560639435706436,0.528886766084694,0.6666363673599401,0.903273682682099,0.5295150388053368,-0.12479052601614848
0.552,0.2559970463674634,0.14425175882546798,-0.11176269448844789,-0.1981322789890722,0.18154743839652152,0.015190398311078981,-0.014130619043664121,0.5336046657966637,0.6750523820029317,0.9136607727502868,0.5414577124872354,-0.11140777138734015
0.554,0.24822980322304788,0.14113667007312028,-0.1070644040304466,-0.19293352674748038,0.17581467075572615,0.016377285585863165,-0.012578179464840841,0.5379361879188029,0.6846232215779599,0.9265559539322252,0.5531819133916458,-0.09659103104900782
0.556,0.2444950840858406,0.14208475587787525,-0.10224433167841117,-0.19186293045324188,0.17232104693997125,0.019380350097092932,-0.009596133992144125,0.5396794483187604,0.6943577051186999,0.9408833966956299,0.5637610970634057,-0.08291441021534185
0.558,0.24930022732168147,0.14552283191216572,-0.10329434059980587,-0.1962426201948187,0.17596975015705862,0.020552822316900612,-0.007533096396480284,0.5401539225263329,0.7024114601158179,0.9522326159322224,0.5730577836352501,-0.07284461488580819
0.56,0.2594381625556907,0.14758244809273452,-0.11095825089259755,-0.20260393461820764,0.1850889529720513,0.017809980398946816,-0.010613216491049026,0.5420951494583136,0.7065432814491043,0.9574642821328286,0.581033993216988,-0.06699655886097258
0.562,0.26641177886452405,0.14714186882370656,-0.11811516675065359,-0.2060394954019858,0.1918521495971508,0.014209704183117833,-0.01906074726126414,0.5457655403979895,0.7057825657392148,0.958199122322611,0.5879139389374235,-0.06297485585629331
0.564,0.265923509766425,0.14643833315071506,-0.11835080317036854,-0.20509195369759003,0.1911275264938778,0.013816938526420445,-0.027631416758878254,0.5479687159461867,0.7015010701132421,0.9588499849982137,0.5942998821068609,-0.0573435049705904
0.566,0.2621014859577708,0.14769539581633132,-0.11341592906183735,-0.20288111021284455,0.1859182290949519,0.01687681780865801,-0.030880934563813713,0.544978389100973,0.6966399792393964,0.9613202478043045,0.6000085785374617,-0.049700222680609134
0.568,0.2611784504452868,0.15035567944490402,-0.10991990283783921,-0.2029531957925739,0.1828023332832522,0.020188692266138637,-0.028393013769930826,0.53624535699631,0.6929438940278083,0.9628628297219328,0.6036821327871329,-0.044003296313833776
0.57,0.2645674397549041,0.15221128240607115,-0.11154036061476662,-0.2055978846794042,0.1848634446738543,0.020799381377060888,-0.024745236841136505,0.5244796624865232,0.6895510882738899,0.9601215512136609,0.6047413374138557,-0.04449959731497154
0.572,0.2694363211529316,0.15266604768706435,-0.11622521159566311,-0.20906888942379528,0.19015706978822058,0.018922363642298223,-0.024520213532689034,0.5121341164100818,0.6847986682784227,0.9538467358724791,0.6043291993250187,-0.05046789517364167
0.574,0.2727513079579394,0.153174498454659,-0.11945103570862795,-0.21193154309522685,0.19470744305338486,0.017193767868627124,-0.02761224289053507,0.4994156750043659,0.6779865943734044,0.9478101572393743,0.6029803461303366,-0.05609594179980187
0.576,0.2738516873731351,0.15421646145118215,-0.11979419152716114,-0.2133481130128457,0.1964362485033725,0.01678192692489688,-0.030440050150496632,0.4865220897694046,0.6693533090989576,0.9438082734625131,0.599485057182232,-0.05612933404875376
0.578,0.2736404082844562,0.1543085767709821,-0.11948087846521994,-0.21300396535180127,0.19595004801025248,0.016404215719161227,-0.031163916847107263,0.4760614467471765,0.6597272547261799,0.9399338284209336,0.5938280970583035,-0.05100305196468967
0.58,0.27105405720391623,0.1534417176897809,-0.11760719959280955,-0.21115770076928855,0.1926765483992187,0.0168583838806326,-0.031179441086261042,0.47106056436845134,0.6499262862052082,0.9348375168662193,0.5888032245611375,-0.04458389104198521
0.582,0.26399617050012963,0.15493330723285215,-0.10898190908976206,-0.20873517171691658,0.18433229632304218,0.02229293946555972,-0.031236085882129706,0.4697612636311009,0.6405833632768496,0.9304713144908632,0.5862911237134435,-0.0382080239448352
0.584,0.254567243246801,0.16101211950486788,-0.09351886044200693,-0.20722979608495595,0.17238772913509695,0.033558021549533225,-0.029631457449189148,0.4642590934963481,0.6328205952149696,0.9266115379249203,0.584044958651775,-0.03142940705377018
0.586,0.24734719490419674,0.1686163639671622,-0.07875717300121723,-0.20700779326361385,0.16206836704086505,0.04506307799690268,-0.026087726431269977,0.4482186736917756,0.6266297862049304,0.9169425430036918,0.5783408702701862,-0.027184679292377188
0.588,0.2437047182227669,0.1728374228835438,-0.07089953881847968,-0.20686227027559703,0.1564109234245915,0.05107184038778016,-0.024406373988152527,0.4248952897839969,0.6182428476880674,0.8966270852602745,0.5676309321976905,-0.030626285063454124
0.59,0.24382066336497743,0.17187386277490535,-0.07192590880164464,-0.2066019705624521,0.1565914213128437,0.04967319962340282,-0.028646221255363064,0.40213620230475494,0.6026599411811515,0.8692977185351208,0.552268667058704,-0.04329898859145228
0.592,0.24928131407629195,0.16604316613990286,-0.08308976110435572,-0.2068705873648273,0.1643742894448206,0.0406513379914121,-0.037659028827251306,0.3814884522407035,0.5794906579572306,0.8418165414724691,0.5334028013368772,-0.06156808728223511
0.594,0.25767746227400884,0.15594728771347383,-0.10139403525960285,-0.20580448064163587,0.1772539263822905,0.026285436733398306,-0.04531810762995211,0.3591460553591776,0.5539710941208422,0.817664118950352,0.5133008769615323,-0.08012025055458165
0.596,0.2604743818216348,0.14357215459287004,-0.11648477161768653,-0.19992985172685912,0.1861508088596458,0.012816863150418852,-0.0465309468085132,0.33508366088035524,0.5315319048130078,0.7979803969264673,0.4942666532685824,-0.09582501931868742
0.598,0.25085672426360894,0.13242083284516645,-0.11818756815923813,-0.18872885137842463,0.18288412223666556,0.006543928122587748,-0.041723327317008126,0.3136223738330362,0.5127215864185327,0.7822531785476667,0.47602491479185527,-0.1087716065157941
0.6,0.23131208385103266,0.12572374767012603,-0.10561464656503029,-0.17605755626733305,0.16785212768609267,0.009267233239478237,-0.03495797777506212,0.296700695287618,0.4945826338437625,0.7657826889656185,0.45584799174119833,-0.12092585028847035
0.602,0.21230483319282734,0.12408803405291802,-0.08835896133094241,-0.1669569256922376,0.15024148565203901,0.016874203637004228,-0.029313795188917698,0.282517111391962,0.4754417725903421,0.74219824890378,0.43207690128373955,-0.1348164147885031
0.604,0.20145971791499456,0.12386757807732729,-0.07765327202250089,-0.1622772507114196,0.13914739443220933,0.022143106792017614,-0.02492452039897945,0.26916981143832197,0.4562854054319418,0.7106988713942453,0.40583525202992105,-0.15226450562855806
0.606,0.19396978258411848,0.11980693763543838,-0.0741177032187683,-0.15658137885887394,0.1329134191148652,0.021765769738790255,-0.020300762198394173,0.2552498997614704,0.4378485134840176,0.6771912355562326,0.378299962025723,-0.17305312656328514
0.608,0.1805731166060922,0.11087360775708151,-0.06964469956525784,-0.14506537207014444,0.1234098875615973,0.019047862973235682,-0.014806857942965938,0.23787920875626709,0.4171917308966633,0.646484281539376,0.34825220860099,-0.19617372276601852
0.61,0.1640327524159733,0.10089123836992359,-0.06313958219168778,-0.13141521504136708,0.11158545370869362,0.0169707565726841,-0.009899670874182828,0.21398419879564465,0.3890429022786376,0.6162425393958286,0.3138230253769603,-0.22242940259205468
0.612,0.15635610256725468,0.09237830350080611,-0.06400663629968871,-0.12289967220651335,0.10816694922899033,0.01253722181163645,-0.006990342260790825,0.18522396174843173,0.3530900725906283,0.5811008690272519,0.27543682836013966,-0.2529628873733009
0.614,0.15938139266144674,0.08368840174047493,-0.07568587745404538,-0.11947972688821824,0.11608420025950685,0.002638922453138853,-0.004282669530387775,0.15939619378297015,0.3174515356671188,0.5405998493177159,0.23656381044711614,-0.284569811659924
0.616,0.15936766617507706,0.07372756765134064,-0.08552208581359928,-0.11398251447399213,0.12209638741733565,-0.007667132250083586,0.0012772253318584835,0.1426723360229812,0.29061515376098596,0.500620441849826,0.20147950899928166,-0.31030646524412964
0.618,0.14341407981344728,0.06474232362083805,-0.07846344349382202,-0.10145962872110745,0.11144287359368452,-0.009366040824502117,0.008708213601018085,0.13154982401209755,0.2720007217471311,0.46832227547410255,0.17109006795161638,-0.327297077034314
0.62,0.11407644741009725,0.0580196682139857,-0.05596047428358334,-0.08374359976506444,0.08534237007117576,-0.0015061427850598125,0.013477905102703492,0.11786918574873684,0.25414927105408347,0.44582025948785137,0.14236594336468128,-0.3406591896588693
0.622,0.08568780717825876,0.051682718616056805,-0.0341782807714645,-0.06666080106757202,0.059117846466971775,0.007265138253199437,0.013040211573727534,0.09959100148180026,0.23201344188207043,0.4270221963313981,0.11308347736388114,-0.35752373974481055
0.624,0.069978041720061,0.045245287472805026,-0.025039445126495773,-0.055707265815901796,0.04546639024230557,0.009947510161926295,0.008601958353397296,0.08056878769069867,0.20696116321494745,0.40244065264220974,0.08453016850197301,-0.38008457861964257
0.626,0.06665989467484174,0.041629626436827154,-0.025301992296958287,-0.052525674034934335,0.043456394832973144,0.008474487951817754,0.0029919987459296896,0.06279502304798844,0.18284109220813974,0.36894521750316916,0.05918034773987709,-0.40533878043561294
0.628,0.06775323109066787,0.04264359922930602,-0.025483065274478283,-0.0543207998498945,0.04447986751107478,0.008332901070248859,-0.0010230321447154394,0.0448889408098246,0.16048119177446102,0.3322009744176291,0.03766218427596576,-0.42924783203812994
0.63,0.06840082011538973,0.04532731611729942,-0.0237137860756973,-0.0567651463699142,0.04468296132258236,0.009997122596408434,-0.0024446343109948898,0.02668713324071018,0.13720889341578996,0.29879540707414765,0.017162274042190038,-0.4499918450415069
0.632,0.0684478694849918,0.04348903969311491,-0.025627982502594446,-0.055905059251909174,0.04619682750168788,0.008263854651930644,-0.002601623967648895,0.010942272206480284,0.11195955653674539,0.26978613151711645,-0.006560910190754518,-0.46764083607834883
0.634,0.06628394073376201,0.03320349515062703,-0.033365405063548195,-0.04899370944966691,0.04894307905898733,-0.0005200255818069662,-0.0023494827016409133,-0.0005368203830811792,0.08849796818277532,0.24273450705887473,-0.03342890422170179,-0.4827684937277826
0.636,0.05926082026852463,0.017734560697577326,-0.04138624849461864,-0.037060732958977716,0.04891012719106809,-0.012768629391982162,-0.0002493964344278461,-0.010400622070538398,0.07059891117905182,0.21562709443398398,-0.05847591661227248,-0.4968783271220278
0.638,0.048592607659472646,0.004930172095763019,-0.043438533012446545,-0.024977491502940652,0.04414431249356579,-0.02108869915971304,0.005005178974553639,-0.022636237947108222,0.05667475339151788,0.1877612997818814,-0.07868702936109362,-0.5116693346000463
0.64,0.037987211011803544,-0.0010562921604523534,-0.0389802186139081,-0.016660481923703403,0.036865218502736385,-0.02216419922623354,0.012514558944129296,-0.036532674247878025,0.0429181901680036,0.16132881784139622,-0.09556706764110298,-0.5260528632279535
0.642,0.02909183966181355,-0.0034857986086675183,-0.03254539726640369,-0.011334887184245687,0.029886577033159004,-0.019555012062604935,0.019768628216478595,-0.04802050321960661,0.027910479128920754,0.14214495705641025,-0.11088295399792736,-0.5370078072521973
0.644,0.02059808958187405,-0.008351417402114102,-0.028692240121355794,-0.005062886951278818,0.023794755764648182,-0.01922690496344679,0.02326763486409827,-0.05656556211028485,0.011391179283544819,0.13337917545851982,-0.12469142131649648,-0.5447807350782254
0.646,0.010661009799403206,-0.016779835078795224,-0.026998217465443022,0.004166117477636793,0.01736915060008707,-0.022608939278446614,0.020126889921297915,-0.0653772030792402,-0.006415625724521166,0.12922485813834778,-0.13691227776800435,-0.553631569183209
0.648,0.000510585242846579,-0.023593798983513936,-0.023801149825809016,0.01324754926016858,0.010531981813188129,-0.025424406432729047,0.011571030623142195,-0.07589974500812957,-0.02272106095393532,0.12034620158399527,-0.14841923133602564,-0.5661175561805628
0.65,-0.004617310836120996,-0.024654564582990944,-0.020051056515790033,0.01710751287188009,0.006747415907500302,-0.024839024439314617,0.0029899612182371065,-0.08666887393688145,-0.03408167065074811,0.10465759128090737,-0.16111263480563703,-0.5799756302335068
0.652,-0.0014638460475370088,-0.02244309685799749,-0.021167318887701916,0.014885639723805608,0.009240786355714214,-0.023733672600123205,-0.0015936784831201518,-0.0954085849317915,-0.041278640233635096,0.08789405129723069,-0.17597476665251346,-0.5916970002325775
0.654,0.0038560696866274556,-0.021771370691141104,-0.02583815472230358,0.011688189541366151,0.013496956911187711,-0.02460286227807722,-0.003083807917585157,-0.10000564146385367,-0.049030913402941426,0.07494339354781296,-0.19091223654488293,-0.6003699708101576
0.656,0.00023543827466205637,-0.02344923166201224,-0.023962594285629447,0.013371441250332464,0.009551566580176037,-0.024498918778607857,-0.004023695132359528,-0.100101605956338,-0.059568274956878754,0.06529102165051952,-0.20312511590849233,-0.6072709796697139
0.658,-0.013881406869486815,-0.025168200522559553,-0.011664482814510737,0.020030138440563925,-0.00430414529615317,-0.020543132541285064,-0.0045217099340545,-0.09832450416459422,-0.06892953762504972,0.05610011206031762,-0.2126198019822419,-0.6135580757151008
0.66,-0.027203446974570035,-0.026323198557405038,0.0004987020215286887,0.026639754625045586,-0.016958240840594482,-0.01601398114183466,-0.0032726642899516007,-0.0985028683136943,-0.07207955042628715,0.04568972044698806,-0.22114496393045668,-0.6193829127230306
0.662,-0.030840687156911795,-0.028788906125306032,0.0017162378616104113,0.030061916823757702,-0.018999621429135884,-0.016044228224578974,-0.0007090866373031311,-0.10277618688540566,-0.06999359659386536,0.034005967878122025,-0.23010593301213614,-0.6248925702985502
0.664,-0.029382532505764197,-0.03341583807749258,-0.00432915316069842,0.032286498565267364,-0.014870960982673771,-0.020052784846466568,0.0011539635775332747,-0.11066523425264654,-0.06926821300615572,0.02224135541140129,-0.24090069613457613,-0.6309060898358309
0.666,-0.031861641497506504,-0.03859014832252372,-0.006911500511968207,0.036269129371333954,-0.014489788684164132,-0.023210253548440613,0.001678675996087072,-0.12046818340391496,-0.07526788503051582,0.012117172156160459,-0.2538085322509518,-0.6380314965569819
0.668,-0.03846243491256943,-0.04222016418189645,-0.00376334545986727,0.041212389769032465,-0.019230703186606305,-0.02352451394020262,0.0018855437321352896,-0.13039626409895233,-0.08662733872110792,0.004017007440035193,-0.26609533008855013,-0.6459038843901707
0.67,-0.04140534608211428,-0.042942657790843705,-0.0014678767654206278,0.0428678333044342,-0.022045226588698227,-0.02315314390491603,0.0009302970342932823,-0.1384505821431148,-0.09755902797132622,-0.004138286842033158,-0.2750451433840222,-0.6536320416238677
0.672,-0.03541773725381952,-0.04064473123042475,-0.005326339026804819,0.03838220633314375,-0.017245250459409243,-0.02424310717534019,-0.004027326117773957,-0.143845367648541,-0.10545705428823118,-0.013844131358954227,-0.2816001017303438,-0.6602244123985028
0.674,-0.02428103171936924,-0.037569043084887475,-0.013767771888362094,0.03077089853101624,-0.006885325418963823,-0.02667904411698839,-0.01232727496734961,-0.14886921616780754,-0.11310832558453028,-0.021222173985970517,-0.2876036017269882,-0.664473024191002
0.676,-0.016849437525220296,-0.03649082251353619,-0.020452700252599182,0.026458170505491024,0.001295203301612942,-0.02886220574238624,-0.018586654372604306,-0.1563885446933423,-0.12289515589105793,-0.019539487525244804,-0.2923127281663976,-0.6655272502571827
0.678,-0.01681894137958384,-0.03694794346590718,-0.020946153967104825,0.027540203156216542,0.002345998092548789,-0.029326427690630357,-0.018916962926311974,-0.16503256079578207,-0.1325143399714423,-0.009111409500365243,-0.2942083682173209,-0.6639856866314068
0.68,-0.01912772206230147,-0.03653636959988559,-0.017948275978936622,0.029724722863266613,-0.00027030509383804886,-0.028583257685731323,-0.015023296162561697,-0.16972137097532958,-0.13826083759220337,-0.0005614083000925587,-0.2939497208791056,-0.6620847457744307
0.682,-0.01742797271356027,-0.03569481164410445,-0.018505345393527283,0.02885579499148123,0.0006048442734195925,-0.029300256051610806,-0.012306937504820164,-0.16865993482233502,-0.1404271423279062,-0.004573263568749416,-0.294369100576132,-0.6629288990158112
0.684,-0.01099048137890793,-0.03739310980890947,-0.026452743030580577,0.02569668220194884,0.007555519859771202,-0.03376611891670672,-0.014944077818369829,-0.16681494052545812,-0.14264195638842284,-0.02033393383006261,-0.29794349287930383,-0.6685670011634879
0.686,-0.0036260555414720235,-0.04273560926982136,-0.03907539267596162,0.02366648519566848,0.01692630128391752,-0.041651676942372234,-0.021130641607561777,-0.1689406104164319,-0.14693758864058507,-0.03681397927700135,-0.3038709506697529,-0.6772467091361473
0.688,-0.001045013554255216,-0.049472222986621545,-0.04838611098157482,0.02549258987079061,0.021786621260762574,-0.049167033663493676,-0.024703502744647377,-0.17232697040041475,-0.15206225000736695,-0.0445842888172291,-0.3084172046345485,-0.6835709316544814
0.69,-0.008776684637653525,-0.05384621472913878,-0.04506122939052862,0.03200909129389778,0.015620649210085515,-0.04998160880264276,-0.022905702801991265,-0.17096727033737583,-0.154814707665814,-0.043581379854540574,-0.3091139379963845,-0.6835004455493697
0.692,-0.025974258891293716,-0.0533517157803838,-0.027393218840183683,0.04092564425004447,-0.0012159480910418961,-0.041196959087958535,-0.01928253340892698,-0.16394348558939575,-0.15123151169014712,-0.039357327867366926,-0.3073583317653658,-0.6783848391508027
0.694,-0.041940209148657634,-0.048767967727687496,-0.006839856143538957,0.0470033402624617,-0.018258043676167096,-0.028779155539077002,-0.0181856990381236,-0.15544904812054058,-0.1397465109298327,-0.03587411891857002,-0.30630718779965893,-0.6723222314245707
0.696,-0.04554124312516574,-0.04354031833603199,0.0020033776610933556,0.0463809013006532,-0.024081564080209075,-0.022143548773979786,-0.020050091629066798,-0.14920211164304814,-0.1250022087171486,-0.03395420727553755,-0.3079087185572629,-0.6675166822554777
0.698,-0.0373222786929312,-0.04115487769199604,-0.003824950475367799,0.040944502471810106,-0.01800066177007521,-0.024188780516352554,-0.022585360522811137,-0.14660079413311505,-0.11508987792977927,-0.03336341996427544,-0.3119998304017706,-0.6642652838564936
0.7,-0.026989401136662768,-0.04277715199240814,-0.01578543161934695,0.03608862795333269,-0.007938673879229799,-0.03049956227097174,-0.023665326616814295,-0.14793391382142113,-0.11372112963934025,-0.03409260623811483,-0.3164621098003648,-0.6628700470395158
0.702,-0.021419156323772538,-0.046608995541650565,-0.025170947944753136,0.03457589476013563,-0.00010343149625980687,-0.036076496258481375,-0.022710879630538826,-0.15176815199047528,-0.11800417608903438,-0.03695885433495607,-0.31846820142746507,-0.6632238681841535
0.704,-0.02062283066185973,-0.049619301940236,-0.028867871587980543,0.03530302076998492,0.0038040229228401383,-0.03900776169315324,-0.02112759125202298,-0.15493856711591536,-0.12343126433415566,-0.04209040728958634,-0.31661243751194407,-0.6641409654779777
0.706,-0.02244420321391552,-0.05012565631167482,-0.027353668182995935,0.036652664158379755,0.0032794341924016175,-0.039149524455025494,-0.021092238590821738,-0.155610846929358,-0.1277571172692879,-0.04610721262039675,-0.3122526938075988,-0.6646657443646058
0.708,-0.024949478274102974,-0.0480009030735448,-0.022627163464262447,0.03730013872250549,-0.0009304355733044946,-0.03661634915621276,-0.023148257603688265,-0.15470903914008555,-0.13084297210437282,-0.04553890262474403,-0.30986986937213123,-0.665641867530787
0.71,-0.025290915731180707,-0.042637299965630336,-0.01711219204022307,0.03502165388894232,-0.005351421237866806,-0.03158214540823942,-0.026250856998089423,-0.15397946356421158,-0.1336894263750861,-0.04306846275734817,-0.31482714706217896,-0.669134342510828
0.712,-0.021481765663746558,-0.033840846928450435,-0.012538631507867753,0.028861841473050556,-0.006375940930612852,-0.025062990582855132,-0.029738989557300945,-0.15485719715544322,-0.13734767235502932,-0.04362755962912129,-0.3274876442974163,-0.6760079843734818
0.714,-0.01593659289182628,-0.02496814629170836,-0.009614764584064146,0.021938393258197485,-0.004494537838591604,-0.01950906041531761,-0.033128885307042374,-0.15812936831896696,-0.141146668834345,-0.04641478602508873,-0.3407112294736487,-0.6845354541998171
0.716,-0.013946570004026385,-0.020219253560762502,-0.006932624881376091,0.01862047953249897,-0.004424789744126971,-0.016200447641822387,-0.034919460873153826,-0.1621895529813998,-0.1424618649562803,-0.047551186431847844,-0.34670170494417185,-0.6913081297794104
0.718,-0.018010689197252454,-0.01937989663154035,-0.0015421299008269481,0.01988658636779726,-0.009738160200936912,-0.013202144520395339,-0.03333339506965469,-0.16308452242330607,-0.13910556884450082,-0.04687959744512511,-0.34515896983034744,-0.692942664362753
0.72,-0.025967758057055944,-0.020096541348242163,0.006447939801002942,0.024082656524309184,-0.01841902414291729,-0.009227733036458727,-0.027999965581262633,-0.15908652128620673,-0.13188115079974028,-0.04653685951581199,-0.34167221727865854,-0.688223867785283
0.722,-0.03448159552413876,-0.022866517396551954,0.012466730034136737,0.03004448833478112,-0.025611849678087294,-0.007058411548808739,-0.02146240242514546,-0.1541740654481592,-0.12508675749844977,-0.046659597713508076,-0.34048476435995395,-0.6805474256910025
0.724,-0.04110675425452821,-0.029301782711234313,0.01221410486472583,0.03667133976609648,-0.028390890039459934,-0.010154131258011213,-0.018344100103886134,-0.15392632391802688,-0.12402742575548484,-0.04665020627337978,-0.3425845655290977,-0.6761495805084287
0.726,-0.04315024257092191,-0.03688180745095233,0.006098733705707293,0.04101010282587589,-0.02642615671638825,-0.017149057544315678,-0.02054192223195884,-0.1581841767517943,-0.13026861292524913,-0.04713464998352861,-0.34731260815052,-0.67670522700262
0.728,-0.039297583891445255,-0.039152456124512715,-0.0001575346998429334,0.039805258267533894,-0.021880623869602017,-0.02158376115719514,-0.024802660460392534,-0.16054111466605728,-0.13921011104910552,-0.04813787918090479,-0.3516149311533928,-0.6770064809248315
0.73,-0.03323971366362311,-0.03323259047290827,-5.59397948286951e-05,0.03381458651007355,-0.019138554724799774,-0.018668950395150718,-0.027616854309841392,-0.1559410523003473,-0.14352343487812752,-0.04852378001611166,-0.3515174691476283,-0.6734498960059208
0.732,-0.030842488741360807,-0.02490969448559536,0.00606395085161343,0.028446486419065744,-0.02044681912711917,-0.01159624831990268,-0.02955654506187727,-0.1468690768555213,-0.13921468381442312,-0.04767782580807058,-0.34681503093233557,-0.6694135773089029
0.734,-0.03251945978746982,-0.0223617350445976,0.010254907803522275,0.027898605855082664,-0.022263510896650157,-0.008239129015566123,-0.032287855358692316,-0.14054084667665123,-0.129019893184013,-0.04548574504005079,-0.3408040531692275,-0.6684883041231486
0.736,-0.03297168131930871,-0.026270084474115257,0.00667699589458935,0.030235359323226067,-0.019877643634221755,-0.011704748667531998,-0.034825496244818475,-0.14084175213988,-0.11985476055215182,-0.042108429553516666,-0.3358168429140377,-0.6683508657895055
0.738,-0.02876747459019383,-0.030070453439616552,-0.0013675859534205501,0.030355311614773128,-0.013993624761604973,-0.017324664256514164,-0.035369975882910194,-0.14457521123243397,-0.11552758189241111,-0.038911521912303966,-0.33247602474861065,-0.6651914274123357
0.74,-0.021081596822947503,-0.028895732249373265,-0.007853519306774852,0.02610208492330522,-0.00808315265922269,-0.019842994651945257,-0.034306519412026365,-0.14592406514269957,-0.1141453436201238,-0.03742440106396912,-0.3313846411031804,-0.66017908098711
0.742,-0.012825112358199183,-0.02463979434935601,-0.011919099137792467,0.020152722730777665,-0.003063058921749648,-0.019580890834063062,-0.03320769056014234,-0.14288682819799267,-0.113553877785175,-0.03659757771694717,-0.33203172659381847,-0.6580142454026489
0.744,-0.008654104055346397,-0.021959195135206968,-0.01358821057008688,0.01722579585052543,-0.00045882303739525407,-0.018837781862197193,-0.032022685617785054,-0.1378340360345026,-0.11376874793049489,-0.033165473046100805,-0.33161172796565064,-0.6600951256050334
0.746,-0.013159383162107848,-0.022081781732403105,-0.009195746603799973,0.019382911812189044,-0.004416228955591226,-0.016663840613836085,-0.02939808303689699,-0.13386038136745326,-0.11374203228636866,-0.026163188326366008,-0.32771881780179335,-0.6624474112190284
0.748,-0.02401653072514926,-0.022552325310880812,0.0016532887420581954,0.02387265625707911,-0.014439318837853897,-0.011504983963003203,-0.02623974772247807,-0.13303585855513697,-0.11195678117538299,-0.019541780022600864,-0.3217735986308747,-0.6617657320680809
0.75,-0.0322890979126148,-0.02188199831336997,0.01117823950559647,0.026665702051186506,-0.02279887246425347,-0.00613729777085873,-0.026433046075828616,-0.13581019796605262,-0.10958905573105121,-0.018256761791631184,-0.31858265271693303,-0.6603399316646402
0.752,-0.032285508363627556,-0.021499473098394947,0.011615501256379885,0.026773448556265355,-0.023365789273059694,-0.005550860783675141,-0.03187611806120851,-0.13932629881475314,-0.10829558353430212,-0.022334308081133118,-0.32153337628504436,-0.6623362899791659
0.754,-0.026797621885424484,-0.022812860734371842,0.004261030029279636,0.025621489567474866,-0.017979995091977456,-0.010524746735111539,-0.03896139150667909,-0.1390582868389508,-0.10668992086380057,-0.02666253511058271,-0.3283120994854493,-0.6673844067584117
0.756,-0.021897974696085183,-0.02537626387633087,-0.0038497106138359783,0.024547025053410994,-0.01197762192005611,-0.01686331336240116,-0.04257394421790167,-0.1347336697984541,-0.10277674583655873,-0.027226744452308126,-0.33369595111035477,-0.6711504366718841
0.758,-0.02027757880588759,-0.028836753541702495,-0.009286407726876108,0.02461127191142189,-0.007529686341420693,-0.02131951210649952,-0.04138909769944121,-0.1317742941386073,-0.09814376105897607,-0.02584753615524548,-0.335801691959431,-0.6714376514582727
0.76,-0.020877285719657176,-0.033473746574796064,-0.013366888363116211,0.026721432936184994,-0.004200278051210803,-0.02453548026867145,-0.03719263122189281,-0.13466903371616853,-0.09688636723837787,-0.026679375343282352,-0.3364242938503498,-0.6702042887837193
0.762,-0.02242140543357909,-0.03770673719011017,-0.015830201888971114,0.03020737412559924,-0.003208287609825684,-0.027140821260926883,-0.032138571624856095,-0.14143458690371197,-0.10089556021870327,-0.029721900736819774,-0.33711474460526014,-0.6696256697984896
0.764,-0.025321845110548698,-0.03831899750869796,-0.013151954946809999,0.032815450785055704,-0.007191502309726224,-0.026881259955232988,-0.028381587861547205,-0.14617387816985392,-0.10746175769860652,-0.0312531588477447,-0.337918964536184,-0.6694573413015042
0.766,-0.030762359987297372,-0.03426113638173409,-0.0033636266773432832,0.03344469204591553,-0.01648832554800322,-0.021484253986925834,-0.027384812548739423,-0.14444697968914558,-0.1112190689705788,-0.02931470107665132,-0.33810609288949783,-0.6683797212130295
0.768,-0.03817609359134897,-0.028083076508703564,0.010243876202099364,0.033295980533426875,-0.0275204170596292,-0.01240148660376492,-0.02845218342318455,-0.13556214335942454,-0.10851785506583443,-0.02522579983817277,-0.3366315725007209,-0.6655557005371399
0.77,-0.0437712535545023,-0.023681383692349785,0.020098982855171477,0.03361936229629842,-0.034480902859457783,-0.004843858178547959,-0.029537626263001004,-0.12343597171835988,-0.10076393994839827,-0.020714675806930125,-0.33359195914376594,-0.6609558052965377
0.772,-0.043115446066703526,-0.02355322381094507,0.019465635118330257,0.03387781614218304,-0.033075387519781944,-0.0041276550760596855,-0.02954328567725697,-0.11551206887730832,-0.09312064154755419,-0.016602446090337408,-0.33114600224445884,-0.6556978853409978
0.774,-0.035034418782985695,-0.026464708172096965,0.008397486109178766,0.03196435403148156,-0.023666186797330457,-0.010721945754295218,-0.02919207473994575,-0.11722567095814973,-0.09008589019322683,-0.014499696394388046,-0.33164118132232756,-0.6524877730687892
0.776,-0.02208882465961702,-0.027301742782062162,-0.005519677112399415,0.02569760985470603,-0.010859210477837196,-0.018578641941666973,-0.030007578873172982,-0.12717029588129466,-0.09269768196840067,-0.017118803457412093,-0.3356966958424039,-0.6542861590045357
0.778,-0.008951585705645115,-0.02204131660949195,-0.01348029467575152,0.015744183033982118,-0.000287095418779474,-0.02035931879337638,-0.03203397204814724,-0.13886186815417217,-0.09816735260827485,-0.024672698525700584,-0.34231647768586265,-0.6601554778970478
0.78,-0.0010206357738330248,-0.013293046017264819,-0.012523904075816234,0.007216488228381574,0.0042177808381238776,-0.015030298342655556,-0.03278326005019592,-0.1462941002059185,-0.10183171021949178,-0.03277907275230563,-0.3492677683573848,-0.6639185330790806
0.782,-0.002108474356652924,-0.008236602144738004,-0.006117981482102975,0.006082098336586462,0.0015109426513672363,-0.00836517562875934,-0.030915048931640314,-0.14785619002480854,-0.10146376475547668,-0.036781495432903856,-0.3534583191081852,-0.6611478083530594
0.784,-0.01114737358255632,-0.011129218217914471,0.0001323940357407167,0.013060405339581306,-0.006286669408109936,-0.006327905017173852,-0.029800746321500635,-0.14668539747351017,-0.1001770561598208,-0.03729932670825278,-0.35312766835794174,-0.6560167850725286
0.786,-0.021500923215261782,-0.019628185045284,0.0018085164327394192,0.02240221439174867,-0.013366750290856924,-0.010178774729468426,-0.03300892638782093,-0.14668165175637637,-0.10374666713398567,-0.039085684177033966,-0.35027758807269527,-0.6564555737788461
0.788,-0.026160171569378582,-0.02756769039350587,-0.00177396759090087,0.027643994699707856,-0.01428643637320526,-0.016517522034217285,-0.0377893022271425,-0.14717866239105198,-0.1131629319633102,-0.044143394484416294,-0.34862445415726345,-0.6634239215622244
0.79,-0.024586477507521822,-0.030208944719142355,-0.006100216087835097,0.027512546065317844,-0.010410219030608254,-0.020113546268603472,-0.03773476685206639,-0.1442995379625921,-0.12067794276755603,-0.048220973086619705,-0.34859764889478634,-0.6692179644754153
0.792,-0.02269082658689366,-0.028291835925638407,-0.005861976997051647,0.02584502583613302,-0.008691341294217997,-0.01879392747267964,-0.031098991419389557,-0.13781206503002713,-0.11711780037261486,-0.04590669057817764,-0.34729908211057176,-0.6668749995564803
0.794,-0.025234678580591127,-0.02697324260310755,-0.0017074798811680567,0.02673362917071624,-0.012622607683151018,-0.016099378377453566,-0.022910203621693735,-0.13231861611619813,-0.10348474942688912,-0.03768702068862641,-0.3437455123592559,-0.6584380414576982
0.796,-0.02921419790928823,-0.028761865614361552,0.0004608968177208994,0.029363033655761955,-0.01730820898336035,-0.01655454443469856,-0.018900682756239417,-0.13194624492096563,-0.09124720651131132,-0.029803473459716893,-0.34096988095882586,-0.6522299974499891
0.798,-0.027432497425923092,-0.030007834216760634,-0.0030000488183835137,0.028784652276717393,-0.015679781406069994,-0.01966650602028907,-0.02042077699985084,-0.1368325686014328,-0.08990023051896731,-0.028091696868892693,-0.34251658956254827,-0.6532973535698802
0.8,-0.019115953906434842,-0.02725251914061491,-0.009076237187733155,0.023416927604319328,-0.008106921803477671,-0.021545376298629893,-0.02548074955479171,-0.1436476803226523,-0.09813902783724897,-0.033294160374174396,-0.34858630103826255,-0.6589965596079704
0.802,-0.01200313146683966,-0.02260451126525829,-0.011643293548621992,0.018141539335035442,-0.002158897389486003,-0.02016843354852497,-0.031146666048576035,-0.1485210283314546,-0.10848455000374974,-0.04100064130401337,-0.35544024534875335,-0.6636214366969106
0.804,-0.012562080871229604,-0.020076155036793646,-0.008031627230263705,0.01790650969412651,-0.0032254284524845444,-0.016677263868415445,-0.03427833673570362,-0.15011106408063732,-0.11540013989335013,-0.04551491054055425,-0.3586845038323289,-0.6642939257187361
0.806,-0.019043943969071747,-0.021038164769901762,-0.001717492741426208,0.02225849353631616,-0.009022234197302945,-0.013866383032596743,-0.03323608076291997,-0.1492150027168688,-0.11708944564850743,-0.04544706460345007,-0.35765547061160946,-0.6620271700937596
0.808,-0.025017265747229914,-0.024618303877183598,0.0010702278869285876,0.027302063804312285,-0.01331774177614686,-0.014427071780335466,-0.0300351571330063,-0.14653785338303402,-0.11484391513426136,-0.045228706978694716,-0.3558019688307201,-0.6600627678968121
0.81,-0.026600522381666335,-0.029262857633087194,-0.002255434128750138,0.030114083623803856,-0.012892967918157326,-0.018516865460536498,-0.029081786626912937,-0.14294739622832975,-0.1127105393956924,-0.049316602045654995,-0.3571831576522616,-0.6617900373575142
0.812,-0.02567083298510192,-0.03380527594993342,-0.0082125720815263,0.031025420810415184,-0.010125932705036303,-0.023261762268127383,-0.03254719695421085,-0.14001293216566155,-0.11389269760482215,-0.05629716647288595,-0.3629590339528464,-0.6679071925215736
0.814,-0.027110172298122223,-0.038384432735535295,-0.01152474700550158,0.032950746846566084,-0.009476633031367296,-0.02597973070678767,-0.03745010094658784,-0.13871399683752236,-0.11703520796558699,-0.06112094979140575,-0.37003084440426515,-0.674824622760272
0.816,-0.033403591513323665,-0.04317101095272215,-0.009852438850023227,0.037935753563589615,-0.013149172245399306,-0.026422653377473074,-0.03888201501737617,-0.13963095408816498,-0.11864416056740139,-0.06177580263389473,-0.37396699541978706,-0.6778599118845925
0.818,-0.04223266702057221,-0.046462119775934216,-0.004137145924557467,0.044359886622055124,-0.020156413189583545,-0.02524605073874326,-0.036049452179361306,-0.14336024777009712,-0.11794746492012903,-0.06106048980054801,-0.37444171431906453,-0.6770093381970433
0.82,-0.04921035043510961,-0.04646977305017776,0.002830816871413739,0.048703291493463474,-0.027485405042008356,-0.02288576707555947,-0.032594403730184844,-0.14779061746531955,-0.11752068936023609,-0.06208032279579723,-0.3753759396590994,-0.6767631488387262
0.822,-0.05150364812284781,-0.044224930290287394,0.007271857364403245,0.04910723713294548,-0.03144897408930939,-0.020663040866516623,-0.030789104026878764,-0.14800253416900813,-0.12036792451566433,-0.06421344799586123,-0.3787180995540576,-0.6789185203037535
0.824,-0.048489183341853696,-0.04213841275480963,0.0062984242061181195,0.046018293279627226,-0.02949954887719747,-0.020276342420204006,-0.029202095048933913,-0.14256640838425533,-0.12690609320871749,-0.06489563967074985,-0.3814754163676789,-0.6802550965791377
0.826,-0.04123148088379588,-0.0407529921283602,0.0004572374258922406,0.040858964502092525,-0.022302490581495575,-0.02163482650524252,-0.027405308343789746,-0.13677537599623021,-0.13379716317512386,-0.0645198803438079,-0.38063182881291185,-0.6791775817275004
0.828,-0.032399012351894046,-0.03863613863906905,-0.006196790905383588,0.035128468123956744,-0.013955920271392653,-0.022871959578517335,-0.028590248808963804,-0.13676256325387898,-0.1366759371133205,-0.06616257057421816,-0.3780887736811065,-0.6786520669758254
0.83,-0.025364240250902684,-0.0339423910237497,-0.008404519303948334,0.02982865873142085,-0.009435493644076975,-0.021610458659440467,-0.034566556138661324,-0.14338713965257163,-0.13511604772319097,-0.06943557580709576,-0.3776573577328458,-0.6802255105530927
0.832,-0.02228740427721787,-0.025675206461810717,-0.002907434208318923,0.025250907936640553,-0.011051155777268661,-0.015888005164074327,-0.04161524346682589,-0.15290358420496503,-0.13296262547127274,-0.06941581707783842,-0.3790043320962242,-0.6805622900663442
0.834,-0.023028094302674645,-0.01570868938725642,0.008189479848417728,0.021790976062920398,-0.01688038654180692,-0.006513195131479207,-0.044915915479149686,-0.1600266485683005,-0.1333282300664067,-0.06404090252325927,-0.3787970005072086,-0.6761123846063302
0.836,-0.026472236546512387,-0.009164428413487302,0.01833009948597422,0.020822662600625305,-0.02322248632740321,0.0019293745401081372,-0.044996589793734894,-0.16051458181338052,-0.13581809173895645,-0.05786724663044688,-0.37650989018354236,-0.6681048680981557
0.838,-0.03192923135060359,-0.010055034036640487,0.022661643023574398,0.02352974230395618,-0.02800868777884421,0.005018066862044709,-0.04568919654886325,-0.1542343541738953,-0.13761830539790165,-0.0560073847029502,-0.3747785826793279,-0.6618649307558911
0.84,-0.03768228254834196,-0.016844265454527368,0.02125409871401946,0.028687804093632273,-0.030456853058113152,0.002291250377761072,-0.04740055669296924,-0.14571985060213377,-0.13535585195155075,-0.05806169648876824,-0.37517498264092136,-0.6617757122395634
0.842,-0.04034727240356216,-0.02411478025796392,0.016420608945599543,0.033067394167542896,-0.029567831176651585,-0.003752068960893467,-0.04782686075111741,-0.14009801774380126,-0.1290892948774425,-0.060109128183032455,-0.3769546680656512,-0.6666172821404904
0.844,-0.03855588301325816,-0.027820194103243132,0.010825935517955037,0.03443945154366737,-0.025850125950418256,-0.009872019266096814,-0.047643990946533106,-0.1384755447421929,-0.12477295984186819,-0.060449953968715546,-0.3790021909054793,-0.6706717592834424
0.846,-0.035960083048312295,-0.02804787462137627,0.007924607853158658,0.03386551707459615,-0.022989506503961227,-0.013073829265144207,-0.04971802382091292,-0.13866871404973052,-0.1281872754677356,-0.06180706137222407,-0.38090080861720926,-0.6697528840863811
0.848,-0.03779245122844719,-0.028022462193201727,0.009729616237147791,0.034868182069350176,-0.024655708608846853,-0.012485103304978653,-0.05400623754897222,-0.1401301113223873,-0.13755473286054093,-0.06752259341408065,-0.38293738645742464,-0.6652612348872401
0.85,-0.0444932250250835,-0.030888917627349417,0.01357109401126614,0.03936855879049927,-0.029769819645295896,-0.0108394284224242,-0.05688084734338976,-0.14446537836767867,-0.14586382430199377,-0.07592837985709001,-0.38568931796503514,-0.6622310560830985
0.852,-0.05117022105395476,-0.03656755264800534,0.01460613673645933,0.04502456835765649,-0.03355933573028681,-0.011842101267940837,-0.054279381282402554,-0.1511255540370531,-0.14874113382861062,-0.08123851141595237,-0.3884792974272127,-0.6628683423724544
0.854,-0.053406698038008904,-0.04168162739740282,0.011744872739032302,0.04799790685820421,-0.03323273909393023,-0.015673417673485058,-0.04551410001693482,-0.15739160974755234,-0.14799180668949552,-0.08076281226175418,-0.389344674402767,-0.6636529703263829
0.856,-0.051244527924039766,-0.04296157130611096,0.008290885940635507,0.047259732849693585,-0.0302110590462761,-0.018925032459166106,-0.0360093442501229,-0.16208278474167032,-0.1485017445458555,-0.07786007993797567,-0.38820691289586895,-0.6618073157428681
0.858,-0.0483527594683372,-0.040788345212525216,0.0075575203576081175,0.045442756520822976,-0.02791765428692819,-0.019071201405905333,-0.03410124259889854,-0.1654531143676977,-0.15287958897299744,-0.07761010874756434,-0.3879156364131343,-0.6607005142841016
0.86,-0.048574252945771425,-0.03899681817765371,0.009569811088870471,0.04592931221495548,-0.028790856969367843,-0.01726726192541859,-0.0427125508469461,-0.16714155806586845,-0.15988861215902617,-0.08260471084972619,-0.3906786456584516,-0.664699003379859
0.862,-0.05070956339386346,-0.040873725510680144,0.009857880652557598,0.048503754269613585,-0.030467125087073908,-0.017286101799089036,-0.05579151523148596,-0.16693335158958936,-0.1676927994384426,-0.09158737079597314,-0.39636165753205005,-0.6733114726756144
0.864,-0.04801639389128861,-0.04584710606520921,0.0023048076259021932,0.04899284990598844,-0.026107257141224062,-0.02252933140055094,-0.06426475700989376,-0.16604484655286525,-0.1754485207566366,-0.09952470077497566,-0.40420868143666333,-0.6830652248955548
0.866,-0.037961655889897195,-0.05078717127347758,-0.012496144227987485,0.045374735262579936,-0.014045628851448014,-0.03215649357806933,-0.06451548479650333,-0.16625115398940923,-0.18045984650780145,-0.10096137743865709,-0.4119908480334372,-0.6908721005556587
0.868,-0.029031649468394722,-0.053905211270328324,-0.024452317552386093,0.041924415454357836,-0.0036187106572023774,-0.04025606124564737,-0.060014827876867065,-0.16849366560006918,-0.17870401179378834,-0.09490498849502949,-0.4157671033643063,-0.6947664682921563
0.87,-0.030833354387648896,-0.055614460310356995,-0.02452728037290436,0.04382135531714241,-0.004590301477826153,-0.041281560172284376,-0.055958386512579,-0.17283399410264602,-0.1708789630600054,-0.08626207707458172,-0.41543739126023616,-0.6947346193057398
0.872,-0.04059597138343817,-0.056187522958741014,-0.015617301581203103,0.049601860731539896,-0.014287785472644279,-0.03622474625708392,-0.0541986865280849,-0.17872293103014034,-0.1632103578022003,-0.08319851409983506,-0.41646362140624077,-0.6928299918862315
0.874,-0.04631735358019129,-0.055360368916018254,-0.009187912563703956,0.05263456186453659,-0.02092786612942326,-0.03181315386537297,-0.05312034878259554,-0.18431333565905356,-0.1603714365066499,-0.09004794506118263,-0.4220981897350432,-0.6906339832432026
0.876,-0.04163158182462512,-0.053588798521487443,-0.012041900673806992,0.04920424301915843,-0.017670067684719768,-0.03287272506483618,-0.05169819714595519,-0.18727188672757147,-0.16161242474780807,-0.10072859677840379,-0.4289336162168611,-0.6877737734748331
0.878,-0.031293754434193626,-0.05096009916262065,-0.019751796239928322,0.04167322664869838,-0.008531087181821868,-0.03667526398737397,-0.05216439953724874,-0.1879649460557232,-0.1642550397811232,-0.1049493227096576,-0.4330705488344958,-0.6842116955011512
0.88,-0.022318782701955576,-0.0464402467931469,-0.02439284895225537,0.03408499702623104,-0.0005990987489619801,-0.03727209384669747,-0.05659417500091376,-0.189843848294211,-0.16751179978695266,-0.10168405390276679,-0.43573050147178566,-0.6818629452355457
0.882,-0.016489556270799916,-0.04077938076747623,-0.024710307072422926,0.02850542040301351,0.004043514147321172,-0.034122304903181105,-0.06257858421183965,-0.19566700743057344,-0.1721468757473898,-0.09922274876490203,-0.43950808680720793,-0.6825739851433883
0.884,-0.013312994190251368,-0.0378976596497129,-0.024869620699379747,0.02603847603704215,0.00640075948900704,-0.03228766633870356,-0.0654965286444512,-0.204622909878595,-0.17768434503055383,-0.10262613727562032,-0.4423316140483321,-0.6857952817732966
0.886,-0.01493672578367859,-0.040961913059235036,-0.026014719852578836,0.02833425278153853,0.005190572153747466,-0.03468356654891958,-0.06383633563095385,-0.2116399587099016,-0.18125064443997485,-0.10762171897493206,-0.439008164592007,-0.6879744999242572
0.888,-0.02363442164857926,-0.04836422761514462,-0.024553299561499736,0.035880002736834206,-0.0017801893491912607,-0.03835839818961497,-0.05975772794317244,-0.20959936987990307,-0.1805013773615055,-0.10757026206323766,-0.4287092913832608,-0.684408823625537
0.89,-0.035098645740299056,-0.054881248767686776,-0.01955365139493464,0.04493916291440173,-0.011264353932690211,-0.03929409713081978,-0.055783498627740485,-0.1968976035311786,-0.17685395355433484,-0.10321908464724283,-0.4182207824565284,-0.674953960332959
0.892,-0.04004586954473144,-0.0567410506018116,-0.016281400803708983,0.04937050596878281,-0.015266068093705652,-0.03784117022147802,-0.05307628088819482,-0.18209522287481786,-0.1738169491816857,-0.10160287110705836,-0.4153511563825455,-0.6670790923259141
0.894,-0.036110373063045535,-0.054933200099588526,-0.01813546967849207,0.04754691920476816,-0.01160550575719643,-0.03696022255148704,-0.052174767285805355,-0.17599874995200235,-0.17298511020025473,-0.10518084626519233,-0.42038870058226974,-0.6682601860955436
0.896,-0.0328700421282696,-0.05307025100377292,-0.019527849900270424,0.04488962930695139,-0.008869465923531064,-0.0367192390295934,-0.05326092230888816,-0.18057338211951016,-0.1730694305656405,-0.10811265546513205,-0.42706689559040945,-0.6766252462286267
0.898,-0.0399490960631296,-0.05296298173854332,-0.012752734532949879,0.04736030869695039,-0.015793625788605544,-0.03399521700102585,-0.05541462170926319,-0.1892329208184326,-0.17176017974288582,-0.10524756844833258,-0.4305473909832866,-0.6837699776661827
0.9,-0.05373313412200948,-0.05329121477485361,0.00028854786185766846,0.053810465972861606,-0.028925509341563054,-0.02784526433673749,-0.05781291533433925,-0.19574833416416126,-0.16860799269632537,-0.09954664115164427,-0.4313755742931138,-0.6846347296870238
0.902,-0.06086892682556638,-0.05223396514573242,0.00841754065390186,0.05709556538020274,-0.03572318491614279,-0.022452240828502015,-0.06152985069575962,-0.19939217067460085,-0.16642912467112847,-0.09809450330822773,-0.4321941114342573,-0.680882613374104
0.904,-0.054236403156292835,-0.050469376007110135,0.0037360549521820337,0.05330582726943016,-0.02947725617074103,-0.02296949308241019,-0.06750699651490395,-0.20203872649689977,-0.16803408495315478,-0.10369705402633134,-0.43340168035200344,-0.6763443170587471
0.906,-0.0416341069925601,-0.05042653025347937,-0.008691919147038214,0.04713391539118833,-0.01755354800737357,-0.029068529281455723,-0.0729114089230273,-0.20314286093394948,-0.1726405708132346,-0.11218111922284771,-0.4338026853880307,-0.6719794569077472
0.908,-0.03632204534766979,-0.05242447272677533,-0.016037247082562336,0.04554262895164537,-0.012583446719326104,-0.0344819949819243,-0.07139348876520854,-0.2000211661533742,-0.1776114273591651,-0.11641950318986778,-0.43361429565650705,-0.6666618863942712
0.91,-0.041257151211300296,-0.05343549316620765,-0.01220151848458654,0.048557577814314426,-0.01763753206349963,-0.03381673363433137,-0.059756611785842025,-0.193489311794797,-0.18148286265142935,-0.11316920828789495,-0.43441032363595067,-0.6623719394936178
0.912,-0.04746107058460604,-0.05111790515514675,-0.0037033222909251,0.05027409639992598,-0.02425791301157706,-0.028482021833253494,-0.045310484579582935,-0.1899377075717264,-0.18400797686147904,-0.1071614030553503,-0.4369438192879764,-0.6640738649830882
0.914,-0.04749327313277642,-0.04750957018490245,-2.5870572350511584e-05,0.047960942229238336,-0.02466757578873301,-0.024305538807127287,-0.040828273678536794,-0.1947911898341896,-0.18505189125928334,-0.10637124815604314,-0.43954844671189297,-0.6723889657110426
0.916,-0.04372889584840396,-0.046269502924985495,-0.002519836139255919,0.04517262583423055,-0.020534112997916815,-0.024485738936882814,-0.04974609516600087,-0.20591411980505622,-0.18417767338585492,-0.11277386707676218,-0.4391030334581475,-0.6815388696245486
0.918,-0.04111869799450296,-0.047247213251540736,-0.006113376246508082,0.04476860619604585,-0.01756358081372662,-0.027133480939491347,-0.06232293019671052,-0.2154151538888731,-0.18156257237511947,-0.12079207100731923,-0.4355897877200845,-0.686471297298511
0.92,-0.03939715519174824,-0.04675735688125663,-0.007364304691693101,0.04438988578663074,-0.01706622472356548,-0.02856074206997359,-0.06785793594517135,-0.2167993063184736,-0.17943300144040544,-0.1246482507526418,-0.4341730961020309,-0.6871509658770505
0.922,-0.03709955170976582,-0.04313418659526377,-0.006044855190272968,0.04174449830791565,-0.017308686835669242,-0.02676538347281146,-0.06572236370978962,-0.2106538867648735,-0.1811015036857989,-0.12433986005719899,-0.43938551086289857,-0.6856471756024309
0.924,-0.036690433331294396,-0.03941920364116833,-0.00273141268080601,0.03952485985304963,-0.018598920398094965,-0.022785223640659373,-0.0631202282265463,-0.20376511446816337,-0.18703340656172124,-0.12408397824635947,-0.44868139426571974,-0.6833887718273344
0.926,-0.03975293998935965,-0.03941403877956316,0.00034321647335593645,0.04098786705198705,-0.021371071746590566,-0.020103121963033422,-0.0651223180871833,-0.2016884493465616,-0.19235694614732354,-0.12677738534497002,-0.4544678048034982,-0.6810192462627787
0.928,-0.041565619066185305,-0.042679697474479014,-0.0011105752568945553,0.04371618303240063,-0.02208397073123816,-0.021830347197324167,-0.06942737119610566,-0.20327152063194265,-0.19122948229234807,-0.1306490296357404,-0.45237069050629575,-0.6790761614440393
0.93,-0.03737568479180147,-0.045412893714835825,-0.008037890579303356,0.04287617343231796,-0.017590836765380945,-0.027147682609019112,-0.07090420661153314,-0.20379395513151052,-0.1846910044532595,-0.13072275914202192,-0.4462393200328288,-0.6785520290582698
0.932,-0.03147810097267383,-0.04562498239769488,-0.014149118769847409,0.03951552306407909,-0.012149166398285406,-0.031187891524974715,-0.06843773988108126,-0.20178369547458,-0.17990697645124706,-0.12436085970277135,-0.44361085907477354,-0.6791587346935001
0.934,-0.03240637998895693,-0.04548965747601513,-0.01308397416701177,0.03986326643428408,-0.012834140314874596,-0.03056014081396954,-0.0652127823735228,-0.20071724030127566,-0.18018321829830952,-0.11559402433070248,-0.4470693073529216,-0.6779990378266255
0.936,-0.0407669761107299,-0.048036645018441786,-0.007246841087710213,0.046158262271450735,-0.01930617380138245,-0.027839219975755045,-0.0640031961813566,-0.20436905288015195,-0.1813473646608217,-0.11179252501115133,-0.4526116036201711,-0.6734879367550097
0.938,-0.04940198123261498,-0.05288435291762029,-0.0033721910932681836,0.053700081394949625,-0.025308056471452234,-0.027526769744274055,-0.06444457440193924,-0.21211611285910598,-0.17995035174965207,-0.11635580130755127,-0.45577307850227267,-0.6690171129966498
0.94,-0.05273186563299033,-0.056912574149041176,-0.0039847056848167405,0.05725449256753457,-0.026835011169378618,-0.030333883749292127,-0.06521196109533578,-0.21974022754449363,-0.17910201009474438,-0.1265921379202041,-0.45669559275409993,-0.6693612113084184
