time,I,II,III,aVR,aVL,aVF,V1,V2,V3,V4,V5,V6
0.0,0.0030057280343195915,0.003203184620515769,0.00021939620688464173,-0.003115426137761912,0.0013821961033732427,0.0017112904137002052,-0.007174255965127784,-0.0315930537913884,-0.05491487058322582,-0.02955266906736124,0.0034225808274004105,0.016498594757725058
0.002,0.020995987900541815,0.022068131686121394,0.0012034595510264548,-0.021542868624333883,0.00976478742996885,0.011624825808229692,-0.048820073645637355,-0.2183182770005379,-0.37975879787627903,-0.20751004653804,0.019410217995978155,0.1126591751325382
0.004,0.06519421049255973,0.06706755041176311,0.002178819358461427,-0.06597727037886171,0.030939068930391035,0.03455752700238883,-0.1473925289833725,-0.6733817793450259,-1.1727761670383468,-0.6553948455859665,0.039728425810542554,0.3403992594759509
0.006,0.11884449748332723,0.1175505062772153,-0.0010027017551806022,-0.11759009585925213,0.05865341213815762,0.058055343679322934,-0.26158257797011875,-1.2317736886557562,-2.1481457785607634,-1.24191010752833,0.01307449618550599,0.5990273552938953
0.008,0.1423022750496803,0.1287789687777644,-0.013595184660493295,-0.13438164144209405,0.07632377645757098,0.05705230003682927,-0.3076775055660867,-1.5110374409552942,-2.6319722764860987,-1.601903416277218,-0.10583224542458516,0.6790657186798631
0.01,0.12259641930053856,0.08562275552133074,-0.03742194245572366,-0.10269791424113695,0.07888038345593038,0.023165058357596954,-0.26581795726529955,-1.3727520148221,-2.357988229678068,-1.5439884386284815,-0.27273861706308977,0.5199030282649973
0.012,0.0927548330653263,0.02311900791423702,-0.0700371624291371,-0.05684284859571557,0.08119587367676619,-0.02443709568560326,-0.2039005359380028,-1.0784767490808351,-1.7611027555598004,-1.2480945347213406,-0.38017721811157995,0.2879365901514868
0.014,0.08721366233072807,-0.017698306044985204,-0.10497145024648089,-0.034354305655812496,0.09638096247540995,-0.06179197104256425,-0.18376102219926227,-0.9152511368991316,-1.3640884641673872,-0.9930803962217243,-0.37811545160864973,0.15823064381784194
0.016,0.10198798952931776,-0.029868105080667316,-0.1317954838485925,-0.03597544201196405,0.11698034436296002,-0.08084201995426121,-0.19850036984367195,-0.8917999819035294,-1.242248668130338,-0.866233827729553,-0.31872222369938963,0.14089059072847526
0.018,0.11146293971920992,-0.029210575618541484,-0.1408813003649587,-0.04055357728475287,0.12584387561887833,-0.0853296308665919,-0.2082261080693372,-0.8545871177643828,-1.1652647049763116,-0.7840103799331349,-0.27489733022927704,0.14523910751388022
0.02,0.10308713310454484,-0.024922134415635816,-0.12847584151835487,-0.03778257639737441,0.11510878586870525,-0.07751867733513262,-0.19517469863040826,-0.7328074131206522,-0.9891554771890932,-0.6686610025094608,-0.2593010746772178,0.11883426707590526
0.022,0.08262177562926593,-0.014833731170102902,-0.09779707159833467,-0.032326000843752305,0.08903246864648712,-0.057260704520335146,-0.1700091476141733,-0.5831036046193654,-0.7706479201786478,-0.5292722964352565,-0.23923808763753457,0.08131457615569655
0.024,0.06091950261749546,0.0010727121497933066,-0.059860536157834675,-0.0294694836279601,0.058666013690924945,-0.030463443244824206,-0.14612495668508135,-0.4717800898193904,-0.6107644978906678,-0.41154147679800057,-0.19657336419211438,0.06597568199977408
0.026,0.04417570418843688,0.01569567997182186,-0.028427116696808852,-0.028213547730041255,0.03475857853134254,-0.008199348344022618,-0.12394042174142482,-0.4003963415270454,-0.5229136607555032,-0.3328648992272116,-0.1473705835027874,0.07250506677875707
0.028,0.0300080903772664,0.02188142091881544,-0.008362988351546813,-0.02373105097029112,0.01874123235115836,0.003961587385956719,-0.09734514089987542,-0.33756439842755465,-0.4569254582719762,-0.2779935010375218,-0.11628805003710946,0.07600218060409834
0.03,0.013776224970959242,0.019137310427148654,0.004884717981889738,-0.013866060850890866,0.005022478403241975,0.008923700813543503,-0.06633379764557218,-0.2689224263022072,-0.3783178495747001,-0.22862395289923412,-0.11019718951861195,0.060417701034566056
0.032,-0.0019001016505326975,0.012100918291092161,0.013692145531031217,-0.0024898958599583057,-0.007147047812385985,0.010212664469876905,-0.0378383451965732,-0.20113631239015473,-0.2914063136410184,-0.17905919075915414,-0.11569416712180634,0.032955871730934144
0.034,-0.012306860565847604,0.0032109887835901395,0.01566783664409241,0.006967566652541506,-0.013929013192947426,0.007201122453645015,-0.016986267195496122,-0.14336048233781812,-0.2136070285544744,-0.13330020427155675,-0.11640209568734111,0.01022760011126119
0.036,-0.019200156476436435,-0.008309128353689276,0.011401826077248009,0.016016241473196115,-0.01584017552446717,-0.00048364767684667726,-0.0029804340380618125,-0.09937237867947755,-0.1544083645072106,-0.09828958313917076,-0.11020995739179594,-0.0013913236164594669
0.038,-0.024525798318311094,-0.019358031905739616,0.005675357112356689,0.02420497127411277,-0.016099369953093905,-0.00865952805020406,0.007150554120449718,-0.06825809882973109,-0.11286732861151634,-0.076896762882975,-0.10641854029529385,-0.007859184005392636
0.04,-0.026398747557327122,-0.024012995757596342,0.0025850702539616964,0.027607407965651126,-0.01580584539161551,-0.012237715067197496,0.014523330866396763,-0.046624578715606775,-0.08234966392514907,-0.06404556459957902,-0.11008392357408203,-0.015710080250083573
0.042,-0.02724194102052741,-0.02379492865913665,0.0033482265872372993,0.02805926501124917,-0.016592443442746223,-0.011627765051831152,0.01818821582692371,-0.03157008666822301,-0.0572820248601619,-0.05174380493480935,-0.11758944807333938,-0.025671638929108315
0.044,-0.03182584645287415,-0.02639144233993719,0.0052839799702570755,0.03162396666215245,-0.01961393061068547,-0.012074569924470178,0.01699204871954023,-0.02047849147170606,-0.03662086586765311,-0.03715672777229572,-0.12448621013472987,-0.03533811601245914
0.046,-0.03663011537349259,-0.032429147166732196,0.0041972292227688696,0.036672454012065134,-0.021484962197145314,-0.015643534583159757,0.012259597524579322,-0.009513140538972939,-0.02046143822108971,-0.023335639691613366,-0.12968951369693582,-0.04199472967805649
0.048,-0.034751804289116554,-0.03390241657016051,0.0010472858754972565,0.03571641814681915,-0.019387202794433518,-0.017744878429439646,0.009120923199508442,0.0038832400408844734,-0.0068638890563134216,-0.01335901385033941,-0.13340184944881545,-0.044470516011183056
0.05,-0.02860443094222234,-0.02781165120985286,0.0011659202726009134,0.02891962476027674,-0.01677220524117883,-0.01475561728413694,0.012483250753967178,0.01834290004642407,0.006758286688309852,-0.006432304490958886,-0.13572889304012492,-0.04564431912714062
0.052,-0.02792651648596289,-0.022088041864006643,0.006225037482351848,0.025700230280236783,-0.018959948600933998,-0.01009890177747518,0.02147689533405158,0.030725390665104275,0.02220310203666015,-3.134261438291874e-06,-0.136831711634735,-0.05060664021244242
0.054,-0.03752194294559738,-0.023952663147947792,0.013640028240430953,0.03198643895069341,-0.02728507971259067,-0.007854490245562205,0.031190833437166443,0.04014453546521732,0.040131384738168074,0.0068733264029069655,-0.13680510081404612,-0.06049247255779863
0.056,-0.051667674356702734,-0.030253195894145952,0.02092270407772008,0.042823830136983085,-0.03808636220404887,-0.006745375211712713,0.03853484208507823,0.049485939532247156,0.05908500983152202,0.014156759822539711,-0.13635959798128383,-0.07113885024390806
0.058,-0.06004031503778466,-0.034641556513771134,0.024538550083058434,0.04960183321498392,-0.04425708549574107,-0.005956276116780517,0.04286519854966953,0.06236678366131828,0.07616214279371812,0.022167299674461644,-0.13703334458768693,-0.07842363089050917
0.06,-0.05910523746874421,-0.03696996372354118,0.02153577179231111,0.050301294749175704,-0.04208212191603624,-0.008508467963905964,0.043977876534817995,0.07782105098973464,0.08976676525472921,0.030362620570964116,-0.13879227935290328,-0.08189328955446261
0.062,-0.05630799473790909,-0.039785860281144815,0.016641451457134377,0.049706642217689216,-0.03796994183525609,-0.013644467163104627,0.043154771169853993,0.09064357536245674,0.10068924263773404,0.037673096779136064,-0.13960283321607367,-0.08304316661695832
0.064,-0.05875589093417466,-0.040892146306400125,0.018376010971042064,0.05047284114657912,-0.04038489832685852,-0.014477012948566098,0.043103835271985934,0.09817382722406094,0.11079368623309545,0.04485261227344155,-0.1394149382373002,-0.08264932258561282
0.066,-0.06251794435274755,-0.03586130013208116,0.026793961749054365,0.049032379772533524,-0.04700991892128888,-0.007407803025515561,0.04421555248069512,0.10279667086617211,0.12114383309105387,0.05317679444027498,-0.14101467089200193,-0.08091450307897184
0.068,-0.06120325788859711,-0.02686602466473729,0.033879261704745214,0.04367388710254881,-0.04979873063326873,0.0019676576928750154,0.04354155736034414,0.10756806679938669,0.1310495706361977,0.061107727206242274,-0.14520279103524075,-0.07940020624964127
0.07,-0.05639339062875681,-0.02185792040994619,0.03404063548390668,0.039069848576866816,-0.04691201708511555,0.005199910255994049,0.03979489672851823,0.11403284126388401,0.13982622150187377,0.06594082347309267,-0.14852819043466245,-0.08100214730150246
0.072,-0.05125407217732381,-0.02329735542691168,0.027978409678908057,0.03778695728878692,-0.04096387519044465,0.0007040021028312917,0.0365273089293735,0.12308037915030987,0.14862728746454087,0.06743242937451642,-0.14716759726681442,-0.08673269428572272
0.074,-0.04558776373879827,-0.02561408982285688,0.020400205959720474,0.03680134031529293,-0.03422362894261519,-0.005143584883130563,0.037339682969412404,0.13356406291752276,0.1582340447386356,0.0667661590702821,-0.14115260108725566,-0.09360369726114387
0.076,-0.04200140776879213,-0.025810559000257076,0.01645126981806519,0.03566077914148772,-0.03026902381955855,-0.006767359784497735,0.041278549869622747,0.14258723835526532,0.16712985202049838,0.06472726918637345,-0.1343165803452434,-0.09731606553757993
0.078,-0.04603041665071501,-0.029454610488542265,0.0163655601127047,0.039599179863765356,-0.03208762326705647,-0.007076728366421043,0.0448313098213605,0.14903555619715736,0.17377093687227954,0.0625301594439835,-0.1318005849182376,-0.09682808512880428
0.08,-0.058951162828895357,-0.04290073660913266,0.01568064415975879,0.05265946961247339,-0.038388044660752,-0.013030154378578053,0.044472785440218016,0.15322986944746658,0.17830101271808588,0.06185043268584302,-0.13748551360375677,-0.09544777752722568
0.082,-0.0733294718411674,-0.06055302975042028,0.012779977351180903,0.06891631477586961,-0.0445243500839631,-0.023669005233010576,0.03898281844340424,0.15515107719919702,0.18216599631577132,0.06479548446651306,-0.14949503856272525,-0.09617556667168164
0.084,-0.07461144508182606,-0.0647281628181283,0.010492536492919155,0.07220768323048397,-0.04405324863337226,-0.028358879447984094,0.03245312857354783,0.15662816903255972,0.18785511162969395,0.07420173639643282,-0.1573770273739453,-0.09650638426317906
0.086,-0.05540622866554307,-0.046000218667780056,0.010434808563060373,0.05346389383033734,-0.033986727949642005,-0.02016437901156652,0.030108683097086492,0.16050887442028186,0.1967327004819933,0.08955581880787668,-0.15134935938011493,-0.09195662388446292
0.088,-0.03005233202021581,-0.01950127468421376,0.011560031377714428,0.027207358577427794,-0.021719997264259057,-0.006038554063583126,0.031019381626590663,0.16576586882345332,0.20637936183843228,0.10342648944252322,-0.13609739482042058,-0.08415801286283309
0.09,-0.02117049706888048,-0.009171855281930815,0.012572779841010073,0.017248705420448682,-0.018314274509773926,0.000936634413033044,0.030528141943809903,0.16855813665859626,0.21287592593503957,0.10816068912056354,-0.12651959299015256,-0.07942215446712411
0.092,-0.032561406788247975,-0.018834808923192045,0.013771155460992704,0.027775506548047252,-0.02513320239641596,-0.0025988451374478624,0.027928182206226705,0.16809517498669227,0.21577339112847344,0.10509280440742567,-0.1288876464498698,-0.07990586991769147
0.094,-0.04908861320219356,-0.031183700098522137,0.017693953369330925,0.04223573477054631,-0.035250915863112305,-0.007503791663141794,0.02695412450025273,0.16675547260152357,0.2181994120592835,0.10167842824850626,-0.13605067526770004,-0.08227155377613206
0.096,-0.05816783858953634,-0.0337600977364681,0.024277732976010453,0.04772506427313622,-0.04279218116372304,-0.006689524222348301,0.02917423611129512,0.16488864517228152,0.22149972229451687,0.10163028997155854,-0.14147204134688,-0.08454347848405351
0.098,-0.058732352088304296,-0.0314886146794259,0.02728583668264363,0.04634351383906705,-0.044780389408862364,-0.0045188404562725715,0.0315901040258664,0.16041348667849634,0.22309240594619778,0.10357200553329468,-0.1462532872208119,-0.08762680306696706
0.1,-0.05590467298673132,-0.032099109765658135,0.0238936607229349,0.044796537622645974,-0.04217893703241995,-0.0062419319624632975,0.03270290322111013,0.15324073293718288,0.22160955140224697,0.10691096142642266,-0.15126238227762998,-0.08991744026839565
0.102,-0.056649351047739195,-0.0352804739938019,0.021410346590436776,0.04636855824095452,-0.04141001133632783,-0.008685137589195644,0.034577393067376665,0.14501740396152044,0.21972322830291283,0.11225641942224669,-0.1540734192488547,-0.08836593683070416
0.104,-0.06427076893328856,-0.03920906776338622,0.025154807918851423,0.05184355973397703,-0.04641083937276535,-0.008392470048132043,0.036586725578141494,0.1363299632371469,0.21958445758134565,0.11764357614844163,-0.1546945234667001,-0.08524272422492069
0.106,-0.07373189373292652,-0.04389987698614356,0.030130661088287585,0.059142522837309974,-0.0525694672442826,-0.007829320041160596,0.03484322333199017,0.12854708572003348,0.22048417296939432,0.12000438320140926,-0.15567931690256914,-0.08577988640725577
0.108,-0.07821503726308252,-0.0474771539188825,0.031167572369536396,0.06409191583397507,-0.054791390394955106,-0.00894559036064067,0.028922158703120614,0.12427573169668588,0.22179351832716182,0.1189099172333855,-0.15750546757895326,-0.08984774112097825
0.11,-0.07657772989467472,-0.04738545915663475,0.029444932847544195,0.06409086852121372,-0.05341020208391293,-0.0098995465458289,0.023062709937274245,0.12360947174231812,0.22401424708917275,0.11617960715735358,-0.15835162114929988,-0.09232438403493311
0.112,-0.0702338275152644,-0.043138557949629716,0.026921573634362535,0.05877844709633261,-0.0493966580485593,-0.0091561085599088,0.020556074774681528,0.12432059556785185,0.22790182717251803,0.11405108874237865,-0.156104589673352,-0.0899143789291249
0.114,-0.06074910866909473,-0.03613068768610131,0.024027927911967114,0.04999050308382308,-0.04317781224900069,-0.007107569739715118,0.019527286473977366,0.1252259708640717,0.2342302844436399,0.11387840618869693,-0.15004953702942406,-0.08419125574188012
0.116,-0.05129168953474128,-0.028703016383088614,0.02190012034651489,0.04131961344559982,-0.037263764395153144,-0.004296054953163467,0.015511920238315878,0.12728850624320479,0.24310683244999942,0.11564238348551054,-0.14256718460718182,-0.07910615892098584
0.118,-0.043747670556244615,-0.021901603414842624,0.021542616218124772,0.03429136279768002,-0.03350981353803998,-0.0006170058050320023,0.00853159821439971,0.1332373984431298,0.25439756191883983,0.12019870380005443,-0.1368587516266907,-0.07620486811398709
0.12,-0.03879507180594907,-0.016554987660884764,0.022493405162251567,0.029363670658304673,-0.031843084983026494,0.0029427063325061704,0.0036240729265420435,0.14437431399378176,0.2682404169282267,0.1289234569378007,-0.1329522827598841,-0.07364045355299935
0.122,-0.04080675802819527,-0.017746406775133974,0.02349088696565231,0.03124535821369534,-0.03353414804931131,0.0026372574147753903,0.0023878837643693837,0.15640180590041167,0.2824303150107801,0.13900332192161083,-0.12967677895412028,-0.07115741465414521
0.124,-0.052004308793122705,-0.02917904514232862,0.022977375365944522,0.04284904010822558,-0.038812707040067534,-0.004166900601682525,-4.282734530313616e-05,0.16255797823988832,0.292082202883767,0.14529194412204663,-0.12793414500050734,-0.07201412619969555
0.126,-0.0628369974240588,-0.042387981265413766,0.020303468238128848,0.054981412200730655,-0.042512495351490376,-0.013086078882978821,-0.006677554700362601,0.16154093863158922,0.29534546851286103,0.1480665879396366,-0.12757035004455727,-0.07674479774235288
0.128,-0.06233496369533354,-0.04436988247946023,0.0178082975199682,0.05549281063700433,-0.04060714045253493,-0.01604952437881008,-0.013052428073711876,0.15867771163617517,0.29639137585809794,0.1522595293901423,-0.12538065081939942,-0.07942600051443101
0.13,-0.05463565949879633,-0.03590648729210978,0.018752133279747625,0.0467326706625907,-0.03750784792634669,-0.011631648412382617,-0.013400410210375259,0.15911082234291837,0.30028132701247595,0.15882599621087623,-0.12048175275997412,-0.07518688121637247
0.132,-0.05205913523430054,-0.030250986634165613,0.02204680077479345,0.04170189295893377,-0.03892643492622992,-0.007085701420018495,-0.008635527557612967,0.16237140000235797,0.3073924408664795,0.16257686242566619,-0.11670647058814011,-0.0684579337920164
0.134,-0.05752344882681268,-0.034760045247039996,0.02326260584436985,0.046120464212085654,-0.043132059359818044,-0.008564981224344433,-0.0050254026452651104,0.16467730893036167,0.31492955260615707,0.15915409500518674,-0.11638369587166277,-0.06735325062457184
0.136,-0.06314641770217103,-0.043124284722606515,0.020745051181445998,0.05316566110527522,-0.044423973547952196,-0.013720457468535431,-0.0060478457612403655,0.16545491399255344,0.3225366642144978,0.15115937670771998,-0.11644333863697029,-0.07181276383563127
0.138,-0.0609385046751345,-0.045533347971745665,0.0160482992288726,0.05352396850127031,-0.03970804111621765,-0.016566605526283616,-0.008214688756464366,0.1685554905456425,0.332785541929481,0.14650409926635782,-0.11313529910543763,-0.07452610467370388
0.14,-0.05011303110797829,-0.03953589699588161,0.010805062190219794,0.04514688193661823,-0.030430673248867696,-0.015158047319952987,-0.006518269161210014,0.1760816985874951,0.3455394310475699,0.1508895308145168,-0.10689820575369786,-0.07139697056767963
0.142,-0.03611193088678861,-0.02868151728184733,0.007277111604473966,0.03279420055772489,-0.021432038369659203,-0.010800080426938408,-0.0011755789810278987,0.18538550815456437,0.3569981807836373,0.16269461297750848,-0.10015114003438759,-0.06426009701174853
0.144,-0.025189316634809243,-0.0176040493422934,0.007385990095683255,0.022459602876890146,-0.016807849027951557,-0.005349429543194761,0.003289572245692571,0.1929901129905341,0.3652104832398126,0.17522843720857373,-0.09368140627352328,-0.056734628878239816
0.146,-0.022323365228861147,-0.013123454947379007,0.009177560393437442,0.019902614813629003,-0.017113608646096467,-0.002981450710790328,0.002493419482211867,0.19627622029671157,0.3707121820726467,0.18215288106669236,-0.08843526278621662,-0.0525277570906405
0.148,-0.02976694026957367,-0.020516132221793052,0.009345529553953687,0.028020080190598064,-0.02095542673834687,-0.007313394084359366,-0.0038597847536133425,0.19358485722312627,0.37343245215949394,0.18186573015914048,-0.08618988176898942,-0.0528935302463744
0.15,-0.03987113925886097,-0.03211644388158048,0.007812409149456398,0.03855891351883309,-0.02456156700519307,-0.01400567979048382,-0.00972986370331041,0.18838311228104912,0.3752110673527413,0.17918693710988184,-0.08476544184037914,-0.05335847017315221
0.152,-0.038665986784864076,-0.032192939396266856,0.006427520802507059,0.03708862229134259,-0.02279805110280052,-0.014158175005635324,-0.008644446347763785,0.1878338047824882,0.3804829372557273,0.18065541765374,-0.07911877812155177,-0.04908086113342595
0.154,-0.02772620098724269,-0.020339501591256408,0.0072127744930975506,0.025258167345071345,-0.018266686432959246,-0.006924216721930306,-0.0030772091743832,0.19292561393287186,0.3887774097551339,0.1862971736868835,-0.0699776392186075,-0.04283124763804755
0.156,-0.026868978719982433,-0.015156954700194658,0.01137710800154294,0.02278106205132796,-0.021096166200024448,-0.0017252889349799803,-0.001755140684788839,0.1974403608341891,0.3930307950251442,0.189501004597261,-0.06371839884252267,-0.04040412922251776
0.158,-0.043093242814440574,-0.02671388092901697,0.0159983424610464,0.03747524010322661,-0.03199700258232653,-0.0056439643363898175,-0.00772593488522618,0.19825318608623613,0.38976338161691193,0.18666525091470454,-0.06188147672876557,-0.040336238845738386
0.16,-0.05617668103077347,-0.039568319966558824,0.01649760469231598,0.05042851951424195,-0.038051466572004894,-0.013038325065125384,-0.014797310656969404,0.1990404854175572,0.3852597725218763,0.1829567737441489,-0.058310575070532694,-0.035762750879389564
0.162,-0.04589017770437259,-0.032594835736127994,0.01364414738830707,0.040864313976675073,-0.030678193451031836,-0.011904567060151338,-0.016353276450064964,0.20392648739146893,0.3878564257227601,0.1855436671728938,-0.04875273518227444,-0.024888215977017823
0.164,-0.017845148577827905,-0.007252981327872108,0.011151172451564086,0.013236619734957003,-0.01576841707320786,-0.00033140340534209244,-0.013961499450117378,0.2122315170836283,0.3970203992606277,0.19329966879469826,-0.037210902290224245,-0.013644524923508131
0.166,0.004120265500165012,0.013335949318110338,0.009554231351950413,-0.008349005868768671,-0.005117002457841336,0.009799092866218656,-0.014315012264088673,0.2185538705687451,0.40353058892661137,0.19747277141778027,-0.030192600135893494,-0.00818795789952545
0.168,0.0036756909505988645,0.01225649470745353,0.008644417817226274,-0.0075725796684088876,-0.005435647684682762,0.008848706338172403,-0.019617348796550447,0.21751768943988803,0.40016238374374086,0.19253713871186645,-0.02848031399127503,-0.008553485804602747
0.17,-0.012031415969283202,-0.0030581761788363894,0.009101575516879545,0.007842038624797711,-0.01291724704445178,0.0009923605525269403,-0.02644205804936517,0.20994257111032644,0.389646013362307,0.18199897860745287,-0.02657088914377625,-0.010053508638215029
0.172,-0.022665366835213915,-0.01407472739813338,0.008969064854077599,0.01852158690294973,-0.01708684450668827,-0.004609000843217644,-0.032898608809498915,0.20221004672264864,0.3806892507777312,0.17248426379272228,-0.01933590074981504,-0.007891115680284116
0.174,-0.020363946191464373,-0.014190961689282149,0.006655452610270104,0.017540153815241752,-0.01419288475698542,-0.005485716526259809,-0.0396645799086986,0.1986547503670754,0.37744102690482156,0.1656033977847415,-0.00922848650082702,-0.00020379423533779768
0.176,-0.015706109914709096,-0.010787524321009264,0.005422803189985825,0.013992912532523688,-0.011420140009008324,-0.004478168421764095,-0.04437659979253796,0.19829617042341702,0.37640777958250776,0.1583827336366219,-0.004701476576961656,0.010601422088536943
0.178,-0.01585694275389915,-0.008789893495351008,0.007665466118676622,0.013655408552994708,-0.013079048812583226,-0.002945819764153731,-0.04312904721809798,0.19902867602331206,0.37402961182756017,0.1506917366404627,-0.009039398547637101,0.019674342502462642
0.18,-0.013381721353705918,-0.0036438701825485314,0.010311331754361623,0.010119086984021964,-0.01339345305765967,0.0005207485236521224,-0.038626028671139734,0.2000487682382758,0.37165662597117743,0.1476580832487372,-0.014709682724169032,0.024863068737063416
0.182,-0.0032069261631200436,0.007244967948007576,0.01073320565627627,-0.0005622023458058856,-0.008401327726471234,0.006268451138562642,-0.03937534204762809,0.20029072984764887,0.37116634443740243,0.15276925629826318,-0.011986620467649126,0.02898208657273281
0.184,0.007039172489861075,0.017654878670460627,0.010646629387262603,-0.011207522208642682,-0.0030177999621767556,0.011768500107240952,-0.04905422845812536,0.1985241113273969,0.3707275656346388,0.1627916783753186,0.0003181379444755878,0.03520515698609813
0.186,0.009765577203049656,0.02183292187379988,0.012203980162674804,-0.014857337330996794,-0.002370984617807674,0.014833103329677093,-0.06256613897251034,0.19411398308582425,0.3667298941817708,0.17156929622045156,0.014166328919495694,0.042173160502102916
0.188,0.0067643100823677514,0.02199244772281451,0.015603726234082857,-0.013447663165640653,-0.005689589063981328,0.016543042474874196,-0.07271491669094796,0.18643121660046758,0.35778086708583706,0.1749867759047808,0.020621168917116437,0.046267403490090585
0.19,0.004775322946110443,0.024021849396815557,0.01958037421017002,-0.013334520777370556,-0.008726106955763006,0.019291572280779726,-0.07612353217831598,0.17598585300090053,0.346571449055991,0.17164983355832403,0.019001605549307465,0.04716613193492244
0.192,0.008641368608115579,0.030153567143583387,0.021549841110802357,-0.01803639969334543,-0.00746219011596898,0.023056171248737906,-0.07460730481754872,0.16522060860534935,0.3370359566920949,0.16256370185952224,0.01620797513311291,0.0475373193618501
0.194,0.014795594628437206,0.03562276141691698,0.02066941004492493,-0.023594474219279217,-0.0034561586380554596,0.02526062106705414,-0.0738576524889337,0.1552888742008991,0.32897867207931125,0.1504071051820905,0.01658632978679561,0.04724698621617494
0.196,0.013289804711007788,0.03306739409731696,0.01969620050554703,-0.02190371233322979,-0.0037307257269550125,0.023883089888588834,-0.07789838233749201,0.14463768958954584,0.3188270476276162,0.13758948436094995,0.01739543179404871,0.04316937385422917
0.198,0.003413024291273468,0.023090359063138107,0.019864071380444718,-0.012974419371989721,-0.009417700450936982,0.019770062685797573,-0.08395341764094878,0.13370953187748413,0.3068043282282509,0.12601873894657203,0.015549588651829236,0.037220300193856304
0.2,-0.0016104688714954343,0.016434682638468597,0.018598067694270415,-0.00790688626346112,-0.012064403135780237,0.016338335939309365,-0.08653809323273359,0.12682651946780624,0.29761883906859815,0.11769354391338707,0.012854826986374152,0.037489856116475685
0.202,0.007101407546289756,0.02058966706893103,0.01438621469518411,-0.014011407205847554,-0.006051142640384291,0.016227567048610128,-0.08637327897792914,0.12527281239645993,0.29187708193048917,0.11222882561138808,0.0113586750064684,0.046288226955945706
0.204,0.022592916696093597,0.030201273997865728,0.008582586176567469,-0.025272362932790702,0.004498336202176457,0.018158973036038625,-0.08897621577680649,0.12345548398825101,0.284141958136342,0.10619661930863816,0.009186879278635136,0.054930790171855495
0.206,0.03259392690522363,0.036196667309729584,0.0042311813008226425,-0.03198387511689696,0.011824761671901598,0.0197245346513945,-0.09360825099977783,0.11722552613862515,0.27219411776026425,0.09779582844181206,0.005044391756672619,0.05592687092457998
0.208,0.03084575868351228,0.03640269759886175,0.005668552691764936,-0.030758850888341,0.010445910807257874,0.02132405565032981,-0.09294128710790192,0.11039744646377822,0.2602812145168603,0.0879334871166888,0.0010232476600214447,0.05201351216667642
0.21,0.01962696719861041,0.03297840841664527,0.013263855414226368,-0.023800654758913898,0.0012712219147334586,0.02321427515239199,-0.08628130596001586,0.10693569784416472,0.2510551810496299,0.07672571932472842,-0.001801812477532936,0.04922254056148119
0.212,0.008324780259993345,0.02751717850583491,0.01936141631600684,-0.015905564496176982,-0.00689437730728351,0.02237220507528943,-0.08265681547665482,0.10301539166258326,0.24140792164241767,0.06418147441527529,-0.005336274140708055,0.0488194670491965
0.214,0.004307222576753792,0.020933393403491898,0.017081636230577533,-0.010628786744942803,-0.006904626837979049,0.016744828350777646,-0.08724140750248734,0.09386625548107529,0.22789392136292738,0.0522443010482708,-0.011024681738580618,0.04840828087326634
0.216,0.004497563647122215,0.01354985370168439,0.009407003267397383,-0.006714309606676294,-0.00249096040468771,0.008970167528868785,-0.09404829636789419,0.08297445055002232,0.21141839981993657,0.042459045582699764,-0.017696207838001805,0.04567933083368183
0.218,0.0026062160665281386,0.00547437099617616,0.0028723425298759825,-0.0017563130725843203,-0.0006116461471197703,0.002564572029196189,-0.09551338683987365,0.07744452075494687,0.19552686357719748,0.03406101263149983,-0.02344702648019105,0.03977157221097161
0.22,-0.00030371063012442465,-0.0010848115152353487,-0.0009662151378156406,0.002201729520939232,-0.001051057171636781,-0.0015258933966277477,-0.0913302969514139,0.07792892093582227,0.18290658504023288,0.026179745826717008,-0.027853702558214923,0.03218437525118419
0.222,0.0012358195163633117,-0.00142695652542447,-0.0027828732696850373,0.0006645387264226202,5.539579935469563e-05,-0.0023641510019088265,-0.08478968943889473,0.0789108359721229,0.17384527163997968,0.01971941962164545,-0.03132278649538908,0.026837791781740103
0.224,0.008979909749196177,0.0065284112782055094,-0.0025319412489175686,-0.00735525762949488,0.0038931257674796648,0.0013133850082519339,-0.0773433544281607,0.07673233610852165,0.1667132528625624,0.01566619364052719,-0.03451688576694769,0.0259654601592533
0.226,0.018258040839235015,0.016929719274366452,-0.0015780137646837671,-0.0166873483475162,0.008791108124337066,0.006881677094365768,-0.0699564805898529,0.07279493352014857,0.15955489119151445,0.012560949268103748,-0.03987790025660693,0.02649349097419388
0.228,0.0199875367322677,0.019059471767162574,-0.0013409252262934646,-0.018282583325955597,0.010487040759113275,0.00829709534112821,-0.06516360655932286,0.0692158131404882,0.1505882285323941,0.006402708337571677,-0.05053405554952552,0.023832032295568753
0.23,0.008664872104294152,0.007396782366987944,-0.0015612410568812392,-0.006870054936330183,0.00523263510283136,0.002007280702938388,-0.06442856880493569,0.06539703226661968,0.13882599318405725,-0.005914784101159842,-0.06537722326623158,0.017137529134167502
0.232,-0.009684056424697416,-0.012033651811245738,-0.002347201319365103,0.011994986485016526,-0.004286560849561727,-0.00921074817680413,-0.06572349003720927,0.060780257091953456,0.12621475742465701,-0.02220058559016525,-0.07796223637995205,0.0086788057257893
0.234,-0.022498019554722925,-0.026120382163098716,-0.003467179050913159,0.025833230952221817,-0.011247233645130871,-0.017570179229138644,-0.06596449869837999,0.0575324768256885,0.11679002265402633,-0.03612031984641849,-0.08286530098527926,0.001466688367715595
0.236,-0.020751844544781295,-0.024409192900948264,-0.003576951754945956,0.024722574823847383,-0.011020869222656136,-0.016200324503298832,-0.06269315964444183,0.058276939262228176,0.11343624775488076,-0.043679817945660275,-0.08090671278941372,-0.000981168128398686
0.238,-0.002578431773062524,-0.006393591937996801,-0.0038582062349280426,0.006807577813693509,-0.0020257294319830105,-0.006050536188716463,-0.0528960456436436,0.06384534794203464,0.11652165067679394,-0.04583389167268167,-0.07665673995459006,0.0033801989690092245
0.24,0.021910069117434188,0.015513872360505221,-0.0064605171745489316,-0.01715733172284483,0.011508555930123272,0.004073086366490007,-0.03656237060331263,0.072868564435455,0.12201368178758126,-0.045726944668616314,-0.07427113651674525,0.010443519350991368
0.242,0.031549840610479454,0.022792196964795116,-0.00878720149121493,-0.026856098406203496,0.01782561386711587,0.005846980956172349,-0.021383418942849456,0.0806629743988062,0.12161693278021476,-0.04725257215353057,-0.07676423676723876,0.010942013216650849
0.244,0.015304624307996706,0.007847049412624799,-0.007557579108806342,-0.011774428733601938,0.009963155790172727,-0.0016825230949358554,-0.016633222705952435,0.0816755608881845,0.11053504126419642,-0.0542741534247151,-0.08519908785614377,8.995372895147496e-05
0.246,-0.011953486518180734,-0.016920127000815126,-0.005274948377550603,0.015014179711483657,-0.0038945775093338444,-0.012637891984089097,-0.022024852484009323,0.07609339765923946,0.09351591156813524,-0.0676070551142645,-0.09730252900602583,-0.01655061716483979
0.248,-0.028783087455838352,-0.033605491337532795,-0.005274888835939162,0.032962751172387075,-0.012211433814982235,-0.020133389550917553,-0.02795779076662092,0.07003265896312592,0.07902101145425691,-0.08385626348584087,-0.10965410084156949,-0.02972346832860638
0.25,-0.03379090181112037,-0.04018319410761479,-0.006793363905675887,0.03911519136496366,-0.014688862556187024,-0.023571987988911306,-0.026553724909628436,0.06791676294618912,0.07068704236655343,-0.09809096614957077,-0.12132939126737058,-0.03615112843276965
0.252,-0.03786360415021329,-0.046336681333514415,-0.008777279669807566,0.043809547229404264,-0.016510970414842816,-0.027533952512466514,-0.01843200746670708,0.06911389516857662,0.06729407380192845,-0.10702093961792436,-0.13288657035602786,-0.03871274778093999
0.254,-0.04089610833224705,-0.051742603888468,-0.011138660691766696,0.0479082779140945,-0.01710655845538764,-0.031716869549157034,-0.009596760710060616,0.07163164045366363,0.06680774219321158,-0.11089118134923742,-0.14256892245570957,-0.03963346108149457
0.256,-0.03489174701582619,-0.04719346505288323,-0.012642813469685482,0.0431004484176664,-0.013145822976233523,-0.03073387171312684,-0.004807077932265997,0.07449515159089724,0.06772281942016344,-0.11257221410896819,-0.14676109583219762,-0.03815550599843394
0.258,-0.021963174931602887,-0.03487083916994167,-0.01338830582140259,0.030635504405333466,-0.006091970652829423,-0.02536696390538487,-0.0036048875813552788,0.07702997607934231,0.06868199640892965,-0.11316852717312072,-0.1442205513273965,-0.03469037769780944
0.26,-0.012994815341461822,-0.028111326190985043,-0.015802236682342048,0.022126224224412034,-0.0005531361535900869,-0.023150031354647566,-0.0028030698620425754,0.07854209431546444,0.06795377377657967,-0.11069768877068982,-0.13824778220395906,-0.03340725762030981
0.262,-0.012601715866984912,-0.03171065608898412,-0.019858055769017762,0.023159768889926654,0.0013661382066249706,-0.02659871933214791,-0.0025530207474970595,0.07785493291352648,0.0640387811189019,-0.10558886194037587,-0.13502761861599738,-0.03860270058540185
0.264,-0.015886915197753256,-0.03731648166042591,-0.022002001560512862,0.028010217169939507,0.0009094472508974214,-0.030326363526492605,-0.00601778898103919,0.07334505865709702,0.05775316097833753,-0.10326773837711316,-0.13931655896049142,-0.0488534706400893
0.266,-0.018837374999363717,-0.03848063944503464,-0.01993445598934621,0.03081413422540738,-0.0009964653443052768,-0.030369810596139954,-0.01251667353949847,0.06518822811639675,0.051264985871818165,-0.10813517060263418,-0.14963694570235742,-0.05749677810093901
0.268,-0.02330353776636187,-0.03792689574652938,-0.014681120423580376,0.03269089510851458,-0.005405648670791758,-0.028300872004985097,-0.01640259525618585,0.05620158933068442,0.04476766586201084,-0.11843556942401738,-0.15831125383058003,-0.0602257059944068
0.27,-0.029355681606226362,-0.03870504683025969,-0.009312195743210034,0.035249896827130575,-0.011293016199644415,-0.02639619842086195,-0.014711468166612313,0.049143728815141514,0.03796569172147069,-0.12864378277865648,-0.15919431086756242,-0.05907244187561511
0.272,-0.0321568012898384,-0.03963686182864959,-0.007576129669492407,0.03634584475915915,-0.013990635218921785,-0.025495432844454807,-0.011274070889807416,0.04433409128154163,0.03321577739559014,-0.1348110324016538,-0.15474020982011094,-0.05839258472728486
0.274,-0.03197132252280184,-0.04182064745028126,-0.010327610230107488,0.037156835231032845,-0.012543688391306353,-0.026907238652037143,-0.011229540244113247,0.04036382783561529,0.03242225017329154,-0.13732076632763304,-0.15273122060889122,-0.06091965318323956
0.276,-0.03642064445344195,-0.04949558699363753,-0.013961701230081246,0.04364591476167285,-0.012490811327351945,-0.03185137889677525,-0.015056791806855273,0.036463802683432106,0.03319028771489222,-0.13850636901534633,-0.15732493802531802,-0.06736927240765042
0.278,-0.04605237845561624,-0.06153904432012556,-0.01637532562314531,0.055092444964028146,-0.015601638970993438,-0.039357017481679066,-0.01917908155958346,0.0331405481804759,0.03205378698836118,-0.13782657564546294,-0.1654870057589733,-0.07554745653732442
0.28,-0.05113625994171991,-0.07065150386861836,-0.01983262177383718,0.06215874674298504,-0.016280236055120408,-0.0465109363459621,-0.020539701105582894,0.030150024792640763,0.02846596368443872,-0.13289087773236055,-0.17152705619576034,-0.08088666197764144
0.282,-0.047966442511114746,-0.07203886385026342,-0.023722481627687413,0.060381506667965934,-0.013080978346959274,-0.049639097063834396,-0.019091385330512516,0.026687357338609486,0.023714324354812445,-0.1249890332055064,-0.17334268487352203,-0.08091302407559396
0.284,-0.043226495654610154,-0.06624998849495949,-0.022553942541159985,0.054252380378216815,-0.0119073016054613,-0.045926696565292316,-0.015531439073731518,0.024437039186371703,0.01949188634797848,-0.11824296090863895,-0.17318613264954555,-0.07733302713804945
0.286,-0.041906508134976775,-0.05775549633171947,-0.01584869767133046,0.04939045925158829,-0.015186352299255563,-0.038026468678358065,-0.010670628236283182,0.024871647831690852,0.016513639847248483,-0.11549850899152908,-0.17403619433574202,-0.07423837041287215
0.288,-0.044330375151120816,-0.054988997154113664,-0.01119646980090017,0.05008113893480945,-0.018963945450052602,-0.03468445596805908,-0.008354519076985005,0.02350862262121269,0.01264322724841072,-0.11902409651309222,-0.17692532752005097,-0.07582974987776785
0.29,-0.05039995734891362,-0.06309595145667792,-0.01341638795016087,0.05803484973446963,-0.020587368968966173,-0.04067459086088283,-0.011164725834906316,0.014949439062041858,0.0064178798293463,-0.12944238167044864,-0.18006632355031968,-0.08193770870154805
0.292,-0.05795034191311651,-0.07532385685502871,-0.01793679198665698,0.06815063585122322,-0.021514952398794127,-0.04953071289013304,-0.012716087004346129,0.0026277034993982505,0.0013217783425572161,-0.14157927109580476,-0.18038483169438022,-0.08681557221649218
0.294,-0.06239569855256418,-0.07981414173447324,-0.017715779570851405,0.0723391609981434,-0.0234874332219845,-0.051529788645318514,-0.004750879284420522,-0.004388946196332181,0.0011731055147781028,-0.14750650412083127,-0.1774531058892701,-0.08648245500896154
0.296,-0.06080346427064501,-0.07402895552486756,-0.013298151819203519,0.0685252342352705,-0.024859622530007938,-0.046155477235931594,0.009265410564983523,-0.003002087176847674,0.003761553853498756,-0.14510765792419875,-0.17436634912745055,-0.08322291717541117
0.298,-0.05390620835535558,-0.06676049245359963,-0.012823798874189668,0.06187727013347706,-0.021571327900363427,-0.04228951422082251,0.01788841590522668,0.0010440212426216277,0.003819951879457289,-0.1399940325229443,-0.17378892672883764,-0.08123005886194933
0.3,-0.046601564039380684,-0.06624794544853341,-0.019715657198658303,0.0587248701426658,-0.01433741283952853,-0.04543426607238001,0.016721225635317784,0.0014746718830252854,0.0005889973182778142,-0.13804259702430546,-0.1745448039249887,-0.08205799322580182
0.302,-0.04599623691981675,-0.07154111231206539,-0.02586358310698732,0.06158401462953263,-0.011303721059753028,-0.05042795489349034,0.01168602426854188,-0.001303055782009295,-0.0016922236040403998,-0.1386634161808693,-0.1736724346805062,-0.08419564074965293
0.304,-0.053827360103247,-0.07700607605367348,-0.023650112010365612,0.06816016002678241,-0.01724945946468416,-0.05086366306441551,0.00950515080911385,-0.0030196718645150653,-0.0006215667771807948,-0.13766840506975106,-0.17139589329506338,-0.085413366585279
0.306,-0.06299956407722589,-0.07920697394757044,-0.016611883641131107,0.07326421733433446,-0.02606178717256756,-0.04790439587286629,0.011337257591285088,-0.002054387927314588,0.0011002123634270753,-0.1343131790200976,-0.1699946803857445,-0.08525556999019038
0.308,-0.06743434333759629,-0.07884156763028569,-0.01170312007960248,0.07460771857118724,-0.03063383198945446,-0.045881062313069036,0.01464479344950291,-0.0005070365640284702,-8.385245005508198e-05,-0.13206821556011838,-0.16908708541071488,-0.08462561872384043
0.31,-0.06980951100385198,-0.0802687816429894,-0.010723802396242196,0.07608822694885942,-0.03183034922349609,-0.04707613172012943,0.016042983146879096,-0.0014787048348694385,-0.00394191374390272,-0.13363554225083452,-0.16790572765527098,-0.08429105655053694
0.312,-0.07293270005374233,-0.08540489385486724,-0.012661842473058087,0.08003485826515995,-0.03227562708062922,-0.0510631308611909,0.012899217778291634,-0.005933575130292905,-0.006508542819297277,-0.13728439426811653,-0.1683147250774169,-0.08440262620630562
0.314,-0.07263606805563774,-0.08778611742336614,-0.015175908532131905,0.0810156418072194,-0.03108656304912728,-0.053379947119858655,0.0063961336447612505,-0.010002604256783775,-0.003854823901182321,-0.13829928582435844,-0.17008644451984187,-0.08363896016429606
0.316,-0.06509130116774633,-0.0796043271720764,-0.014427682921837291,0.07344100281021736,-0.027669740928274556,-0.04848420917067814,0.0030237956401318734,-0.0070288513359189255,0.00432975728372853,-0.13371101537762073,-0.16842979190161897,-0.07942589576902913
0.318,-0.05312471032430817,-0.06378323559540111,-0.010618389736674564,0.060123013353296964,-0.022918798437661394,-0.03818152961405755,0.00867225333743535,0.0047403465030888105,0.014279928266147318,-0.1253531370906498,-0.16052446631189785,-0.071374535722815
0.32,-0.04385822971606964,-0.05301693323824202,-0.009325794334888346,0.050297014308572585,-0.017976133816443106,-0.031946741003032124,0.019652908769266397,0.01827672447408133,0.020671619787991515,-0.1181896947786356,-0.1504766007524718,-0.06383235795777856
0.322,-0.04276668492693544,-0.05501846977245024,-0.012750892560731825,0.05026474408217123,-0.015365048949764848,-0.03504894222184095,0.02446595012052302,0.024665963041331125,0.020995392006066038,-0.11534199575545923,-0.14439277098914938,-0.06204188648272333
0.324,-0.04683954905075119,-0.0625404840942294,-0.016463061312729985,0.0554218119900527,-0.016268205732710678,-0.04142536942703206,0.01757622961157231,0.022476300734665874,0.01822975992874678,-0.11570757842443631,-0.14311726670548233,-0.06562986624278067
0.326,-0.04714545319763143,-0.06318426592354735,-0.016700850558535308,0.05569815224227871,-0.017600800618910728,-0.04216175911743884,0.006824845931246245,0.017963911086188278,0.017785827609598164,-0.11651200452083436,-0.14333720621411836,-0.06917153337367594
0.328,-0.04320815140499331,-0.05672750794251648,-0.013756867325781316,0.0507810697342424,-0.017960217296804748,-0.03691748411867574,0.003007056684932684,0.01718526423305875,0.02121383081065422,-0.11578266619304772,-0.14371479304625667,-0.069661838563719
0.33,-0.04468009881025224,-0.05438523349951872,-0.009666924468330377,0.050645896011809396,-0.020561988778264453,-0.033191229346697604,0.006422880070694456,0.01995714646853442,0.02451788401585179,-0.1127928940560988,-0.14503996015032186,-0.06951259949971832
0.332,-0.05343541668631707,-0.06133261741290241,-0.008024331197511732,0.058542122260802305,-0.024806082156547518,-0.036321676672183945,0.009514571895628215,0.02210638039977124,0.02404811044010231,-0.10838198410867499,-0.145719355001142,-0.0714828643699506
0.334,-0.059031705792664736,-0.06997412626145716,-0.011351045936928617,0.06570065335185973,-0.025050924680136397,-0.04330245734443096,0.008767233191280687,0.022117647923733216,0.021885727648438956,-0.10418888215635454,-0.14200214934590324,-0.07452461365284181
0.336,-0.054835375840943806,-0.07097274388173402,-0.016492180697738456,0.06433327038056429,-0.020362224458602054,-0.04650321401529165,0.007410933749140188,0.023358288660226902,0.02364803437695066,-0.09999695021266365,-0.13233635538118113,-0.0748725241574449
0.338,-0.04414715689592231,-0.06268326168132461,-0.018565751124958882,0.05509783221391432,-0.014774184793762165,-0.04211973627258397,0.008561393556496247,0.030019632326942016,0.032574737999220664,-0.09308503388374122,-0.11988218913024609,-0.0697455178496356
0.34,-0.03364233669854599,-0.05070773898287286,-0.016892391938990965,0.04384078788729753,-0.010853593249822439,-0.033611935818301256,0.010531550672556081,0.042192361151066296,0.04579725035338265,-0.08272129620657269,-0.11146821706642143,-0.0612506035120159
0.342,-0.030326999386370627,-0.04242528218973029,-0.011992032031825365,0.03752394692136733,-0.01094867451344189,-0.026351737911625293,0.00962992961335673,0.05487124277009528,0.05600678165847081,-0.07310125292168361,-0.11254111836501929,-0.05483960806314884
0.344,-0.0365645668325766,-0.040121475761943894,-0.003575378029145265,0.038619776130485416,-0.016999036632417155,-0.021695137790210324,0.005764273372929154,0.06220181375461325,0.05878786442948249,-0.0681066365087543,-0.12064583982245694,-0.05208967932462202
0.346,-0.04414043102192571,-0.03871291972806515,0.005503621550785003,0.04108711265172275,-0.024861555942545303,-0.017574068899704583,0.003758559365647841,0.06357703339486621,0.05802537788402043,-0.06565079147173836,-0.1251947182957385,-0.0488564094759058
0.348,-0.04264244317977319,-0.03253843679460834,0.010547564439167418,0.03742813341069668,-0.027367511712568085,-0.012278290723666223,0.00894157797944197,0.06404638675411915,0.06076096262393969,-0.060735424391172334,-0.1171796402533109,-0.04193153586632186
0.35,-0.03392578084085048,-0.024979564221394156,0.009730939858588217,0.030224863968244815,-0.023672825516523274,-0.008142734641191071,0.020247240084296337,0.06714284269931155,0.06713959180565672,-0.05280915601421214,-0.09954217512636432,-0.034081800583382824
0.352,-0.029321192726226766,-0.026015388616483753,0.004008802868809586,0.02942546637927121,-0.018970877035043902,-0.010591881501623693,0.028616914584170927,0.07014450940070763,0.07049121262965517,-0.04741919634594402,-0.08469454188910618,-0.031197744298513328
0.354,-0.03301921000148237,-0.03591590986810132,-0.0026519394755120996,0.0365220885465886,-0.01702326772547142,-0.01892438071666809,0.02713614541840818,0.06940785049284456,0.06818439211470839,-0.04893481048600435,-0.08054872160612593,-0.034772369465560914
0.356,-0.036407716144118425,-0.03988944401849493,-0.003538803808924313,0.0399700030954742,-0.017275923831213937,-0.022597003545494203,0.021383323813665457,0.06735727392494192,0.06666405653426563,-0.053243273944542514,-0.08213300127703461,-0.03814556638948839
0.358,-0.03005276839199038,-0.027304074817212254,0.0028628630333584343,0.030325070997106244,-0.016530029203430947,-0.014379399527176552,0.0224831894670354,0.06983681890498983,0.07252680943574837,-0.05245217561005464,-0.07934576442211529,-0.03380707714426987
0.36,-0.01682677543434145,-0.008712977759867582,0.008526526771576639,0.014158147889410576,-0.012644876815428436,-0.0022056426499425697,0.0311070104801443,0.0770941581539101,0.0821024564312846,-0.0465977847901114,-0.07084784534347661,-0.024569592576753015
0.362,-0.00986451100441463,-0.003996766474128829,0.006231589247663084,0.00762886289266256,-0.008487908471705939,3.788501778445168e-05,0.036679113217921014,0.08170223041867176,0.08487675090994444,-0.04380301481156662,-0.06576561127712265,-0.02133399055074457
0.364,-0.016034147279112843,-0.01697907174963358,-0.0009132036611422534,0.016639543069261815,-0.008714876102146772,-0.009737618101819048,0.03293210436121851,0.07881699296430625,0.07773138353521852,-0.04751880521387016,-0.07003763241807003,-0.028334054540189727
0.366,-0.027511888350654084,-0.032464179277850856,-0.0051292393453975646,0.03036137746220869,-0.012865919701771564,-0.020636193284300386,0.025861519941444533,0.07399171576268501,0.0698132123271404,-0.05177633982816904,-0.07714027510527031,-0.03730826342294301
0.368,-0.03481259987175491,-0.03847294346784771,-0.0037696074371603274,0.0375636548210578,-0.0172198417104603,-0.023916299329292075,0.023750266452085753,0.07414554957565254,0.06948197840600295,-0.05147609203716673,-0.07802857160916794,-0.03871064793796013
0.37,-0.037347584390759477,-0.03771558565352165,-0.00032688263835457777,0.038393847565034035,-0.019947980318071143,-0.021411093008589042,0.02724390436392559,0.07712188628928908,0.07346671323088028,-0.048824107527604764,-0.07388730015895857,-0.032996704288821725
0.372,-0.035857325590607544,-0.035055709211449036,0.0008807448968046102,0.035875750135166085,-0.01981805226367186,-0.01829861392320007,0.03279350362733413,0.07764520795537946,0.07396802853233816,-0.04770382233034523,-0.0720313332492688,-0.028105055874814697
0.374,-0.029014940915220937,-0.029947714663298975,-0.000917037015536501,0.02997381838123189,-0.015843153464161833,-0.015972504977233376,0.03862691272953239,0.07582567962150566,0.06905925172563818,-0.049381123745468845,-0.07482461967988258,-0.02956975070760952
0.376,-0.0210595177844363,-0.024415186674735148,-0.0033911827668614567,0.023872058939492014,-0.010673401102917413,-0.014690074994737961,0.043546636662128775,0.07438229665154612,0.061820826514766176,-0.05403367072701911,-0.07864317913045793,-0.035817907266343534
0.378,-0.01954774452129125,-0.0244885495181222,-0.0049663526992982645,0.023610668653192293,-0.008729184901058746,-0.016252666136675576,0.04499377151934934,0.07416630946683425,0.05504750171484392,-0.06090192706481709,-0.0804260449315234,-0.042051493373414635
0.38,-0.025681754987673774,-0.031794607771581176,-0.00610569351494609,0.030288119201536613,-0.011213148199922713,-0.02087364874365956,0.04122054792108647,0.07441209603032149,0.04967589163219682,-0.06750125197563943,-0.0810192989551004,-0.046006300499558485
0.382,-0.03457599590402556,-0.041798025898690895,-0.007204675283001505,0.03964868492930204,-0.0158838747989204,-0.025827099788271374,0.03356878197107654,0.0734181333965489,0.0457941092996719,-0.07121721512667255,-0.08265698433479751,-0.048441954408038515
0.384,-0.040222071039800945,-0.049184303452068374,-0.008935910218061713,0.04628052572715718,-0.018613697852030566,-0.029341154596764257,0.025744884241326104,0.07006194542603433,0.04324860873568097,-0.07157253575996085,-0.08594132165815001,-0.050783119150847586
0.386,-0.038475023454928904,-0.05208345448323993,-0.013506431497359604,0.046678264301375866,-0.015459111633422297,-0.03295562672665968,0.020523560908538272,0.06609246217703996,0.04081313566174006,-0.071349127784322,-0.09020162706945005,-0.05480460541808381
0.388,-0.03234715559888293,-0.05345517684059068,-0.020895893158599268,0.04359273127140217,-0.008017677108225143,-0.03835204342609315,0.017186649607516993,0.06382919308433353,0.03651278070432524,-0.07463395752594003,-0.09442058171589217,-0.06102981834873044
0.39,-0.030588721785210275,-0.057295843172408434,-0.026479419130089988,0.04417540883063048,-0.003421458372131819,-0.04397024850164515,0.013477831554179575,0.06208742935424895,0.030743912946772676,-0.08205520811581805,-0.09661926566192358,-0.06546144223284096
0.392,-0.03548613804709047,-0.06256934867903538,-0.02694099457364774,0.04968961915368933,-0.005020914114661341,-0.04695781495907826,0.009206590121005954,0.058441715237195976,0.026790714209756854,-0.08948530644104481,-0.094989118829235,-0.06341911122023483
0.394,-0.040243491022144494,-0.0646671589397553,-0.024412432019246814,0.05383262977265539,-0.008908393363228864,-0.046701467833386634,0.006299084507745871,0.05410018236536937,0.026545640133124087,-0.09263231213963294,-0.0905483218013746,-0.05775911745143348
0.396,-0.03972696962952463,-0.061075812468768385,-0.021564304022140778,0.05193269407804273,-0.01096499006834017,-0.043746762842935494,0.006999549611738925,0.05270922164021402,0.029033943126743865,-0.09077752197675154,-0.08645544654101736,-0.05600445658894802
0.398,-0.034826575606325905,-0.052096004521116075,-0.017767801861370197,0.04474401334716242,-0.010908853113579208,-0.03759479871882559,0.012339173449328202,0.05531353797414623,0.03353235681556966,-0.08544487586226925,-0.08493330570937528,-0.059036671589951996
0.4,-0.030107509315586107,-0.04159385617819965,-0.012105577379776406,0.037082756589102955,-0.010978751729048775,-0.02943536030050691,0.019628632738391126,0.058820081095193134,0.039221955422323714,-0.07863083496837274,-0.08634838541088231,-0.06103351182053849
0.402,-0.03254048310600435,-0.038341703122491896,-0.006250251154937424,0.03685013762085945,-0.014466529940332932,-0.024661851659795328,0.022485955756851913,0.05920431352219359,0.041830164433364,-0.073384775184505,-0.08965479410953835,-0.05986668833415161
0.404,-0.043894210570523465,-0.04758374262912167,-0.003807106258882073,0.04726661848615493,-0.02113887303312782,-0.02793743803098293,0.01642516124209548,0.05552481142283068,0.036807569409479955,-0.07259408596513088,-0.09244846033112887,-0.058535917796284635
0.406,-0.05452114798081223,-0.0622423745410882,-0.0076299355250837725,0.060072142668538664,-0.02457059788375426,-0.037173150452262126,0.0037363189205169723,0.050490459702423836,0.026678872473472913,-0.07639890176451482,-0.09295817315001269,-0.058205212142532006
0.408,-0.05521306926274897,-0.0711154022551539,-0.015917843691142967,0.06531074094816484,-0.02062120717168122,-0.0456749666135213,-0.008192614628229771,0.04703638245853118,0.01958065361697581,-0.08287939909883117,-0.09293977944613166,-0.058097904156108555
0.41,-0.04936744013988728,-0.07167859539295203,-0.022637222504681153,0.0631505942571854,-0.014130750903360042,-0.049065770353911464,-0.013128475904183867,0.0452460087435474,0.019954963662091076,-0.08981924334202133,-0.09558830701954157,-0.05904925749254787
0.412,-0.04492724916760035,-0.06876240914061586,-0.024317450166990356,0.05937838958716746,-0.011217799855872297,-0.048374692739690986,-0.011339300119057054,0.04311999766744947,0.024898079473891638,-0.09491658845804166,-0.10020182312518029,-0.06141454973333593
0.414,-0.04471291184739924,-0.06678256038689968,-0.022376423810029494,0.05738599921203356,-0.012616723262395118,-0.046796272449566224,-0.008474934372400577,0.039539069622603146,0.028718346967499687,-0.09678846079667633,-0.10279425713043978,-0.06356685800521186
0.416,-0.04858464561341061,-0.06717773078415618,-0.01868054406323016,0.05826250373556303,-0.016776511463105652,-0.0453957289311061,-0.008996432220925612,0.03563238272206069,0.028400542142626762,-0.09600162498855708,-0.10188684008029214,-0.06483495027541576
0.418,-0.05308618746116658,-0.06842776321819112,-0.015476718701742413,0.06036888503951257,-0.020183418089892637,-0.04379802563770584,-0.012291131512712033,0.03351205031955646,0.02580424674576776,-0.09368705739103492,-0.09940744304835795,-0.06578257396837173
0.42,-0.04951073992997926,-0.06579059846778129,-0.016506128681690883,0.05761790339492464,-0.016770175631120203,-0.042017827384273586,-0.014725932360737184,0.03471820095966606,0.02525413781281076,-0.09010379159010569,-0.09663346746343118,-0.06566578655559445
0.422,-0.03241096620772187,-0.053758255925716945,-0.021312113092181974,0.044356446382407155,-0.00501392191778024,-0.03835275900807495,-0.013977415578811629,0.03946903965925597,0.02861358515425134,-0.085849423403497,-0.09340235160328834,-0.06321583788749721
0.424,-0.00896380085587736,-0.03378596771240603,-0.02430594518494955,0.023890223265665173,0.00819020770112078,-0.030839936744805355,-0.01181011225217139,0.04551214489762378,0.032982733872662144,-0.08357152488928908,-0.09075390957540075,-0.05984859490544599
0.426,0.004502627185942344,-0.019822407325461217,-0.023594933732231954,0.010327684272224446,0.01423256073162493,-0.024176968091520038,-0.012629351450165062,0.047936465820238854,0.0329916861706189,-0.0866378432238516,-0.09160352840952776,-0.05976774931394219
0.428,-0.003928294753563757,-0.02755665065888586,-0.023111194268016624,0.017564039595175003,0.009696544066798837,-0.02742174408609991,-0.01886388273122096,0.04284868789498846,0.025687543727912758,-0.0951036726332257,-0.09843986318353751,-0.06522562481251283
0.43,-0.03004267960163538,-0.05500445441916424,-0.024750827689467073,0.04374614912351023,-0.002528473614454498,-0.041415597010633916,-0.028528501525356513,0.03191969887446213,0.013866576088109178,-0.10439955081506876,-0.11034475554872014,-0.07274569909244806
0.432,-0.05530544297493547,-0.0812117042436164,-0.02573562117334882,0.06993563769981125,-0.01508129520085628,-0.05517823658566547,-0.03669734143030438,0.0212683970562586,0.004390196920653939,-0.10946895711957198,-0.12170796087670213,-0.07677928701532688
0.434,-0.06276656882288893,-0.08690152466874733,-0.023806452292176847,0.07736593490652886,-0.02056252049873868,-0.05745950171629422,-0.03837364093947956,0.015848821388389864,0.0023868005147548547,-0.10851295078544793,-0.1249248085691309,-0.07583910411637272
0.436,-0.05175225791484708,-0.07290961102881176,-0.020748217175395624,0.06515978018778949,-0.017012084993526005,-0.048862060863162214,-0.03248752931598544,0.01615495553669507,0.006325110389141426,-0.10299350278798007,-0.1167090216530662,-0.07273392176811247
0.438,-0.036176124002815786,-0.05723291256263906,-0.020683930448311176,0.049302928644709705,-0.008975387612830612,-0.04065102283622985,-0.02446483068080429,0.018908486934264845,0.009946561585869857,-0.09731268325902193,-0.10235019944196802,-0.07104472706459311
0.44,-0.030519198528367517,-0.05599372415255718,-0.025175853170013,0.04560065445647507,-0.00350933245370559,-0.04217541570263845,-0.022250174450428983,0.01941294976304775,0.009057921434770126,-0.09724943232090878,-0.09280645236167179,-0.07299374538171974
0.442,-0.037946537954449786,-0.06936433103296472,-0.03125343644704742,0.055702190413079965,-0.004329759690994814,-0.05211486941366289,-0.028913086790375755,0.01453830861640246,0.003550681224827205,-0.10483103904862916,-0.09606652016903587,-0.0783615732879251
0.444,-0.047841475411460305,-0.08371806097040022,-0.035881288012514646,0.06731757426634505,-0.007593252465500799,-0.06174330556310621,-0.03937707346581847,0.00538598473116832,-0.004898247996589769,-0.11526857980120282,-0.10893317954964471,-0.08362850426818766
0.446,-0.04613797323731432,-0.08460819526269764,-0.03853442041699335,0.0665969011465943,-0.006008982672716821,-0.06306550678603869,-0.04426570068543319,-0.0030514372517919195,-0.012708104486561173,-0.12143501839046714,-0.1192144116459094,-0.08427711059024073
0.448,-0.03244199482372118,-0.07090765565438902,-0.03838014116410111,0.05309437687367549,0.0007482556000832223,-0.0551692483408787,-0.039099271467299725,-0.006664130926296386,-0.016269756172768633,-0.12142530173890828,-0.12026775648622055,-0.08074762561640272
0.45,-0.022113486283011286,-0.05718604237068137,-0.03472309887133881,0.041379581642125525,0.004645691820955604,-0.04574972403398967,-0.029453535262401444,-0.006531299378508812,-0.016700488161667654,-0.1199160221948064,-0.11809815337538655,-0.07908573084229646
0.452,-0.027549036727078476,-0.05744271874274858,-0.029457609178207233,0.044294645986229175,-0.00028826873508717196,-0.04329380254403936,-0.024135784057332698,-0.006934718865109541,-0.017332365319721182,-0.12161078367805724,-0.11915869504734161,-0.08225644373864344
0.454,-0.04391815862502411,-0.0681753811268932,-0.024127742947885177,0.05765030141686132,-0.011286466909994646,-0.046519023958495,-0.025648505984257275,-0.010216477227594936,-0.017699767824642762,-0.12615337596155443,-0.12095764255984924,-0.08595173951222342
0.456,-0.05619367563823864,-0.07394234915257958,-0.01811843457588905,0.06614459864796463,-0.020714378968036583,-0.04681893319287298,-0.03042708645645532,-0.015200437296608587,-0.01618596064697986,-0.1305505442650269,-0.11987056875481021,-0.0859334895032367
0.458,-0.05522255016390207,-0.06809789584372022,-0.013454574523935918,0.06222656492087785,-0.022653743525115132,-0.04178890906050839,-0.034596461914359056,-0.019649698584526247,-0.014923972244770631,-0.13314670255562747,-0.11782003477586404,-0.08302867129892452
0.46,-0.04572095527037638,-0.060905994547481856,-0.015499888758030211,0.05411777905758999,-0.016846169616278564,-0.03948940455157227,-0.036324661338127846,-0.022507832488599885,-0.01652571898041207,-0.13352073828512848,-0.11730124382076997,-0.07948559807352817
0.462,-0.04050821555149619,-0.06548557731408312,-0.02489779024450225,0.054516010158664724,-0.009165683022565683,-0.046766286993983504,-0.03591443002574578,-0.023631471960546276,-0.020250126427578816,-0.1310382364411518,-0.1176304560424315,-0.07668608329550294
0.464,-0.04688716687477287,-0.08157332329663246,-0.034482363048751366,0.06567529835168676,-0.006749635037594402,-0.059500868268133215,-0.03624028890499703,-0.02359595217645489,-0.02489701115417899,-0.12583146369087403,-0.11890591092829704,-0.07673821782009826
0.466,-0.060199354746140826,-0.09737335989923619,-0.03711211273607313,0.07916625143941362,-0.011579752604509247,-0.06816837061913505,-0.04050985346988314,-0.024756028721815076,-0.030649604130935284,-0.11962348043105112,-0.12358704390876743,-0.08110246297184867
0.468,-0.07098402745117514,-0.10273934499664869,-0.03185551834168781,0.08663978502987026,-0.02014356111335655,-0.0678660437705574,-0.04771581612723539,-0.029062039780219134,-0.03589124278904799,-0.11334945533420972,-0.13062948868565077,-0.08704478324969238
0.47,-0.07311914236487935,-0.09554473358872367,-0.022627948470047145,0.08495359404408084,-0.026914058737272328,-0.059921631319149314,-0.05249455815885429,-0.03351669759969887,-0.03652408476700706,-0.10610643992923502,-0.1334602095023781,-0.08894122405491038
0.472,-0.06525627365710568,-0.07989688784444672,-0.014981602896512899,0.07448350137637957,-0.02716191952777776,-0.04867706569318115,-0.050807098346744434,-0.032619673145234625,-0.03060976501815098,-0.09860275734252937,-0.12809977128631747,-0.08414868092815228
0.474,-0.052571712037719764,-0.06417262835284597,-0.012134167562972442,0.060521303706964284,-0.0215826685499209,-0.039241478577481205,-0.04439038864831924,-0.02651858546555698,-0.021852270010363526,-0.0947150715262361,-0.11909494375271842,-0.07620966999267426
0.476,-0.0457294254935851,-0.05788932675352695,-0.012836454557726038,0.05332632839895931,-0.017123364674047913,-0.03598216178373178,-0.03937844503071773,-0.02164879359724017,-0.017064090297650356,-0.097118008399625,-0.11427027397979952,-0.07174958964885907
0.478,-0.05020509965471811,-0.06544590075837371,-0.01584953073175239,0.059131994132505174,-0.017843772367400743,-0.04134698003992242,-0.0410130142505229,-0.022656926196604768,-0.01958753308273098,-0.10365209585238426,-0.11685694359066601,-0.07429752483521464
0.48,-0.059250368411391356,-0.08163645840308123,-0.022607122540464684,0.072348759711833,-0.01936334922474004,-0.05348719391235056,-0.04811889724785693,-0.026975231130585715,-0.024807807795076017,-0.1089972276167928,-0.1237759088391492,-0.08061291094773973
0.482,-0.060858674574671395,-0.09332371525375996,-0.03220821348149711,0.07957874345826683,-0.015658538347667825,-0.06449503309838034,-0.052944769671704084,-0.027499263930939027,-0.024466715318291362,-0.10827722238834571,-0.12879637604726674,-0.08345968408525083
0.484,-0.047644542632557615,-0.08845436830726734,-0.040419741175490895,0.07048625305342107,-0.005118307223944524,-0.0658473687489611,-0.049811898948307204,-0.02050382410147683,-0.016923169283048847,-0.10073657529953765,-0.1275618341922239,-0.07931127487532404
0.486,-0.0225511267712162,-0.06752716337073222,-0.04482325726843711,0.04710660451158112,0.00934213243382382,-0.056984969526669295,-0.04255801127516582,-0.010653066541800534,-0.008981879342050924,-0.09120507204977323,-0.1211547765712291,-0.0722542707013815
0.488,-0.0012778060130210567,-0.0458714360737394,-0.04459633688975327,0.025428733450334556,0.019525277566428755,-0.045511553348770786,-0.038567235005891626,-0.005518584296299501,-0.006415601200623945,-0.08605446794408787,-0.11483032714154269,-0.0689993907856417
0.49,-0.0016558658468580729,-0.04040147017146646,-0.03853604744930685,0.02277914431514429,0.01637757604173424,-0.03944248881810593,-0.03797006127994848,-0.006045817120129067,-0.007815536841625796,-0.0877298966654037,-0.11300347554192339,-0.0716942291696546
0.492,-0.022874485847205417,-0.05230879967156304,-0.028877545010240237,0.039152727610380376,0.0015633476180241827,-0.04063698456297623,-0.034787327428421375,-0.006897691098014323,-0.008034579867319742,-0.09338715808449082,-0.11453237866191257,-0.07638296302852551
0.494,-0.045316520955895286,-0.06724405619396553,-0.0212675550024825,0.05762598609679825,-0.012700282078738252,-0.04473067901373998,-0.026766998139991997,-0.004830057279618978,-0.004060646690800639,-0.097981851235528,-0.11390073659334121,-0.07752964379501089
0.496,-0.05393015024591457,-0.07217762895948714,-0.0178150712334725,0.06427452656598175,-0.018220823175562118,-0.04599303255775228,-0.017487751932064283,-0.0006740568420532165,0.002732221245551823,-0.09833170992100053,-0.10840162773281772,-0.07335455939708416
0.498,-0.04825913359077915,-0.06513313105876072,-0.016789173024691597,0.05789536444766729,-0.015686879763924955,-0.04228258471919495,-0.00957182556055905,0.005494871557755621,0.009165631430393952,-0.09372999645158729,-0.10179783087925871,-0.0664180971787383
0.5,-0.03399527723639653,-0.051980451881287,-0.018105299615515807,0.044279315013142875,-0.007874007018558423,-0.036605704192959436,-0.002703755607661425,0.013876522687796752,0.013285490266419172,-0.08530326207079023,-0.09968512119301988,-0.06031054924902131
0.502,-0.020480305578966896,-0.04119298839291676,-0.020813682506071237,0.03226814873359314,-4.4740334400501195e-05,-0.0330042384976205,0.0026162621728717723,0.02122356062727139,0.014686038505922781,-0.07654043071816322,-0.10254582848909989,-0.0569466098789348
0.504,-0.018948553771558352,-0.038756822936527505,-0.019798664988974687,0.030280736657347845,-0.0007227972218291452,-0.031591407450846716,0.005349259479633557,0.024022124262346917,0.01448733025794112,-0.07096881844762933,-0.10492629331524715,-0.056258032727221866
0.506,-0.03141192670738403,-0.044571436912797885,-0.013102658539827077,0.03925071960727156,-0.01169400630160276,-0.03073330132768899,0.006055708184860991,0.023167470622900144,0.014100094696048872,-0.06907844432705561,-0.10289381743105158,-0.05748317230179652
0.508,-0.048088075476293755,-0.05353010722801161,-0.00542008031031007,0.052003428316292254,-0.024705082329201693,-0.03046149355167063,0.00569076239376198,0.022037035095874905,0.013299761356738856,-0.06926347638864938,-0.0993121306680424,-0.05973707457636736
0.51,-0.058178083778643565,-0.058471966440301434,-0.0003140331879893819,0.05977985424558919,-0.031746595228395555,-0.02987649147750573,0.004855979602207603,0.02318945902207035,0.012460887508554307,-0.06937705014015548,-0.09803307934995993,-0.061374349835130966
0.512,-0.05592349618123655,-0.05284420504449179,0.003079758304196279,0.05616084003585861,-0.030725435048406476,-0.025598054494964467,0.00582203768749682,0.028377637928331555,0.0158123205967177,-0.06668570871707945,-0.09639100998709867,-0.05998825582343164
0.514,-0.041478525002681225,-0.03485251001362388,0.00673612677092198,0.03971479576417245,-0.024044083158539363,-0.01523498433569119,0.01299272743890603,0.03863905754388191,0.028197615795297726,-0.05876692496843036,-0.08850315329885962,-0.05345474024662496
0.516,-0.022828308546553492,-0.010639986767969909,0.012418415324719084,0.01740149014923048,-0.017549322355899323,-0.00042862119868766036,0.028058036765259864,0.05268348676000227,0.047648285096167316,-0.04590846011887003,-0.07455434092499448,-0.042093123461702346
0.518,-0.009605681211608829,0.009508002340028918,0.019323594481037244,-9.95480495806845e-05,-0.015287440692278132,0.013338293014641706,0.04526657120465532,0.06640034865653074,0.06490704332950696,-0.032243106212677716,-0.06183807144368589,-0.030184320381348752
0.52,-0.004915641454863597,0.018281770332490493,0.02322242938920339,-0.006853315684157596,-0.015700676580738517,0.020055726230068256,0.055470391764781656,0.07512447526878854,0.07305600706252582,-0.022859118799554157,-0.056063927021795336,-0.02345524156478581
0.522,-0.00905983798181156,0.01395582252409308,0.02284673346406021,-0.001959731513905013,-0.0177172492483756,0.018103805776052303,0.05531412862277883,0.07668088212325323,0.07407383952422522,-0.019402209948258503,-0.056033419085318975,-0.02496272973451401
0.524,-0.02188420383372095,0.000542671244796538,0.02224894701182079,0.011642388899560938,-0.023243161880173363,0.011453925554372676,0.04994876011451324,0.07300198056450381,0.07330003174205915,-0.019549652637104654,-0.057626759482763266,-0.03320960864620478
0.526,-0.0380280556720097,-0.013554098194716344,0.02449595206159501,0.026494458503268346,-0.03169134711585744,0.005511163763363297,0.04657454596487429,0.06835152049249921,0.07181056301558339,-0.020349404641103554,-0.05871275832260262,-0.04230286669729113
0.528,-0.05068158179187331,-0.021386740156727146,0.02951186427692224,0.03614048107191266,-0.04047572462693247,0.0035791037177750106,0.04789092030060884,0.0650318176691556,0.06726795514798091,-0.020701051646097937,-0.05915679859059308,-0.046073260630476294
0.53,-0.05711257719633126,-0.021624328575345332,0.0357406818889222,0.039436517597917116,-0.04753640951381797,0.006173453750471717,0.053166064193918464,0.06259959645489765,0.05984143171713365,-0.020494554312443878,-0.058980977070382,-0.04398542427930789
0.532,-0.05532673819186575,-0.01636979682630225,0.03915233481243887,0.03680377572110728,-0.0489403584750224,0.010677955003350127,0.06152868233796612,0.06107843063522908,0.054495158317490924,-0.018995619139601055,-0.05773983985308537,-0.04010200885701678
0.534,-0.04668151976751761,-0.00967518957921571,0.0371201818201056,0.03035473406192585,-0.04333191741323193,0.013087291498241338,0.07006195361751417,0.06116308087501774,0.05587067056085245,-0.015991286841391485,-0.055857395926583384,-0.037750602387769096
0.536,-0.04193007186937399,-0.00825594098546184,0.03369161952787526,0.027700554073015252,-0.038614231447579424,0.01134716418766046,0.07327679983639579,0.06157827009562598,0.06158714676921095,-0.013722726782524971,-0.055896024551253844,-0.038640695564833745
0.538,-0.04859561645894765,-0.015708912989995452,0.032842935661081964,0.03393022299672146,-0.04158768813313636,0.006083671517310879,0.06936764718891109,0.0601021861148607,0.06450126224929738,-0.014541144924354963,-0.05928689387655368,-0.042885479396716865
0.54,-0.056172869100290415,-0.02484829157646231,0.03131147023845543,0.04106183567100162,-0.04533265369624892,0.0001992372632162523,0.06292495842407525,0.05699176467955204,0.0619482045192409,-0.01667004479431379,-0.06232817351045562,-0.04745602274158815
0.542,-0.049802610549200564,-0.024757592066652945,0.025180726381516617,0.0374055951539784,-0.03937086065469545,-0.0025690788353118286,0.05923564498808478,0.05462075386795492,0.057602892991010506,-0.016424021460738042,-0.060367964062665654,-0.04882605078447449
0.544,-0.03112292096456808,-0.01574592635465497,0.015725300040739076,0.024111969212214684,-0.02476801881526814,-0.0022568111064716232,0.05999339458009578,0.054281270819725794,0.054360930470778716,-0.014401588648508934,-0.05465315606044772,-0.047020126005633246
0.546,-0.013813984287149679,-0.00854442344616975,0.0057219300492938364,0.012745614211616288,-0.010556987473382861,-0.0032648428748089492,0.0636527684872385,0.05467431831302215,0.05105878791982318,-0.014363630733699555,-0.04999644149496663,-0.044223237415946255
0.548,-0.007772693379162659,-0.010354522404844475,-0.0022025033176981844,0.01125984345295434,-0.003701352215265136,-0.00786710099106412,0.06620607323210165,0.05294042043414577,0.046111678135569115,-0.017158023050934872,-0.048468183088604115,-0.04186906713526899
0.55,-0.014007991343869378,-0.02003883166185581,-0.005758887726083867,0.0191555915949911,-0.005629342492203889,-0.01434899017387409,0.06414307092491221,0.047238777051733766,0.03994689106204428,-0.021192887088897324,-0.05041908105288242,-0.04158434183810735
0.552,-0.028373106877350555,-0.0354707011270266,-0.006951755092024822,0.0331283178464514,-0.012574688048825649,-0.022632904306246884,0.058388786310897695,0.03829449753654987,0.0333380272860243,-0.026823136324838136,-0.058018899500962444,-0.045671899755378324
0.554,-0.04551018634059555,-0.05517096423092247,-0.009791426821629166,0.05029944365883045,-0.019400580681278017,-0.03362681987950393,0.05279317238471825,0.02883169035133074,0.02650997735968391,-0.03443889965754394,-0.0715878082133816,-0.05376763973000261
0.556,-0.05818102793470255,-0.07036285247825674,-0.012582039554275358,0.06358801106359094,-0.02356165983731475,-0.04199428561149749,0.049891180509365474,0.022811793547066455,0.021058161982506443,-0.04012108056768076,-0.08424169613698898,-0.061372501134863554
0.558,-0.05898526156005549,-0.06947310969224428,-0.0108562082727355,0.0638052916457357,-0.024481165057798994,-0.040396962730604634,0.0497261180472727,0.02303479527827318,0.019644157535583556,-0.03960076617428254,-0.08619797543385728,-0.06401413676017424
0.56,-0.05000951923993569,-0.05629641345774781,-0.006455363335739941,0.05337407991002551,-0.022892691336498655,-0.03220927002652635,0.05053695558173038,0.02772935616660775,0.022267445920667494,-0.03492918298199071,-0.0752857376775749,-0.061749626685513224
0.562,-0.0429641021158638,-0.047923205211333295,-0.00512422849566262,0.046267044016520466,-0.021139769104279466,-0.028240079344513568,0.050384162604407375,0.032496436817584184,0.02590449510316678,-0.03103834958518493,-0.0598418624534567,-0.05837187883802444
0.564,-0.0436608441061405,-0.05124282668816366,-0.007921257580584687,0.04890300577356027,-0.020380593000700043,-0.031449679100083415,0.0489815869458682,0.035464497368629944,0.02864954087056777,-0.028813169652952324,-0.05047527194576421,-0.05687915537177054
0.566,-0.0471138876613693,-0.05806649121334015,-0.011374137364807782,0.05460458119328691,-0.019683292233113967,-0.036112566161532064,0.046314095809018255,0.036806080374159236,0.03080847745844469,-0.027629692829256446,-0.05109566210998915,-0.0570224797611829
0.568,-0.0497899414488004,-0.06293622092402341,-0.013521779113363823,0.058506926629542086,-0.019354930128905958,-0.03935337921716451,0.03996420461292334,0.035024197977127886,0.03146982562273429,-0.030273529277724563,-0.058532132351659785,-0.057944893279080124
0.57,-0.05253832508552346,-0.0687707499084168,-0.016525922579826012,0.06265903303306768,-0.019594109653844696,-0.04376327081588922,0.027671794985469008,0.02857281464889826,0.028379195436329885,-0.03892649192857099,-0.06794737275564557,-0.060659470270971905
0.572,-0.05239152567820092,-0.07546064879652857,-0.0232293390310705,0.06609605625244312,-0.01700488746505866,-0.05019185683643375,0.012968939394128224,0.02022239992000492,0.022846443193888333,-0.04956048178303879,-0.07558703312649917,-0.064944785386284
0.574,-0.045730651818538776,-0.0769822302039521,-0.031247599052746752,0.0638196374730112,-0.009862669806147669,-0.05453722466894669,0.004001982079376357,0.015827582637967658,0.0204511302840612,-0.05537245300649786,-0.07809223608724944,-0.06719829418240159
0.576,-0.03658147528907307,-0.07077246990533587,-0.03410744827255648,0.055712420292057065,-0.0031641711235112337,-0.05285741983582379,0.005104404013497425,0.018359184170308233,0.024341952643024155,-0.05355973457399579,-0.07392031360430326,-0.06516218977360773
0.578,-0.03187822412672284,-0.06253023875716728,-0.030607073155477522,0.047999219286332745,-0.0017428184981197724,-0.04746476755166058,0.011415103083629835,0.024578943586831273,0.030696318161969712,-0.046657272624505086,-0.06705502206585943,-0.062106276880404196
0.58,-0.03351801633365396,-0.06058564289614804,-0.027110603922787142,0.046772446280158156,-0.003957939183391002,-0.04513012819335135,0.013274751466040555,0.02871604075696668,0.03334969681325202,-0.039930107397877,-0.06556528017615831,-0.0636968912534001
0.582,-0.038892519330697053,-0.06554161698002478,-0.026814876929941743,0.051770436846129884,-0.0069081996547459106,-0.04748246903441904,0.006927620338228982,0.030587086225181068,0.033216371882804956,-0.036515238496496835,-0.07216011628337632,-0.07141978711627667
0.584,-0.04358101082762373,-0.06657260232045711,-0.02334629943370034,0.05512712967840961,-0.011590501433253348,-0.04638663427808331,-4.167506493691145e-05,0.038569606483454456,0.041996420596320645,-0.031948620400368825,-0.07854086254885406,-0.08041275744846038
0.586,-0.045533901581143496,-0.05373019093319091,-0.008756041354811636,0.05032713665085665,-0.02082930974887103,-0.03304116618332305,0.003360664456738096,0.06198114169022025,0.07349653496690949,-0.016219345948090044,-0.07446543682849403,-0.08529495360046786
0.588,-0.05076685926272179,-0.032478826355835,0.017584368623205254,0.04299279355774212,-0.037220096385995244,-0.00914391058269714,0.0185910856141906,0.1017200407520111,0.1305491675290444,0.016630986967626736,-0.060180583524582186,-0.0867530133784048
0.59,-0.06558721339686518,-0.015446579728405647,0.04941257841532697,0.04252827337154671,-0.060139924049990814,0.01602707726650336,0.03674333691735665,0.15048602796737223,0.20388705073985916,0.06482611690353153,-0.04325505132449097,-0.08773646639964869
0.592,-0.08052169849074264,-0.0010000785779360544,0.07900365658168101,0.04298292847571669,-0.08133981518712724,0.03831680445295228,0.050919774235607895,0.20151739359076434,0.2846772255852907,0.12511481158853935,-0.024808670303861965,-0.08474877994980545
0.594,-0.07959019028926942,0.02404220487062418,0.10359547293183062,0.029554215173136857,-0.09248468501296556,0.06239643021557221,0.06259886294937432,0.2559172511597923,0.37405151324041686,0.1974383754701766,0.0023478995406088538,-0.07109627242303379
0.596,-0.06666188069222721,0.059612374685087954,0.12673037813273294,0.004614182828408703,-0.0977462964472787,0.09116090209474145,0.07388669910810786,0.32104310447891193,0.47765817854860204,0.28178250619187584,0.04101872207671463,-0.048342895135982875
0.598,-0.059011929850456404,0.0894267420523343,0.1490163432164743,-0.014613954494753613,-0.1055616773241638,0.11766943186408735,0.08239992107749124,0.4028371487725782,0.5946040648574993,0.3736883662637703,0.08361964137916654,-0.02559774368527715
0.6,-0.05687999826260698,0.10545690411936778,0.1626067129589799,-0.024015990221879766,-0.11157436133384721,0.13308764060086115,0.08796057840235769,0.5021818858707165,0.717366136112541,0.46600172750387536,0.12186441960335614,-0.0066351153759349885
0.602,-0.04346472211894614,0.1167000449940244,0.16006448943050108,-0.03651454238464821,-0.10348301257802689,0.13716335218539866,0.09594072167771185,0.6153778218170851,0.8373216012502546,0.5528425971873333,0.15658412010489864,0.014976886334789262
0.604,-0.010192248080283451,0.13010638212432754,0.14010913609254003,-0.05959765539402469,-0.07630888223015533,0.1331724830465458,0.10845266677252179,0.7281995245056514,0.9370264435361235,0.6250184275377834,0.19416442472095105,0.045586345557021256
0.606,0.03441624042357765,0.13816963933637066,0.10370950540408073,-0.08521977002797383,-0.03516618749113748,0.11864458723958465,0.11765160225543456,0.8082761163416743,0.9797376398564073,0.6637215619746887,0.23569887726809444,0.08197880099637772
0.608,0.07563817899219347,0.12950627057355749,0.05392521178088893,-0.10085032640302477,0.01045712808528304,0.0893979279352546,0.1112996617796492,0.8160957520406296,0.9258751125890934,0.649464858739864,0.2741754069897277,0.11771655382919718
0.61,0.10741312542727639,0.10274783885968926,-0.004734983058554754,-0.1033002383954709,0.05541581278018921,0.04686480119232777,0.08297925440683296,0.733010838329282,0.7637012831725112,0.5771119307235337,0.3048447340859251,0.15591115563485908
0.612,0.1381318268212782,0.06673710914897674,-0.07171349756891282,-0.10116961839269334,0.10429740720229543,-0.004024724025216114,0.03777817778611929,0.5747628243634979,0.5102992018813787,0.4556287506025506,0.33438275225373665,0.20823509272124527
0.614,0.176288353337861,0.030535451798326663,-0.14608401387429157,-0.10272400704827399,0.16095894137052524,-0.0585230105202371,-0.01285804387669438,0.37107100955066363,0.18652086540313736,0.299518903293648,0.3750292285364834,0.28162751534682084
0.616,0.21561952786086144,-0.0010705759565859932,-0.21662998725739618,-0.10670565501261763,0.2160197349202477,-0.1095758538639963,-0.06532785913091704,0.1335674738778641,-0.1922500051148334,0.1295596153511179,0.4367189764791659,0.3746248414869357
0.618,0.24734058076006388,-0.018459023593204105,-0.2653132918566314,-0.11363669315111095,0.2555588200142941,-0.14367969166142563,-0.12767130625884285,-0.14574170320483382,-0.6076870887608993,-0.027126217984840675,0.5315826584016471,0.4893275311612317
0.62,0.27556370196404667,-0.0032504464021661673,-0.2782673963059241,-0.135334276383127,0.27495180828749827,-0.14366245038466438,-0.20349672657009998,-0.46056665393723684,-1.0377888467519787,-0.15331162919588162,0.6724350390700404,0.6355634788588653
0.622,0.30374641595441965,0.05059420089574022,-0.2527893021616721,-0.17655771505291595,0.2753582869409014,-0.10391813812911543,-0.2799942673692071,-0.7717088480478662,-1.4596576179426872,-0.25944522380001644,0.8508607708107392,0.8119549466047076
0.624,0.32043941659984515,0.11596278555033603,-0.20425462398711222,-0.21736430770892928,0.25918516475906095,-0.04577133677922128,-0.3384821461335357,-1.035030365660921,-1.845095746216571,-0.37966756758541215,1.0232397000922682,0.9873225373376278
0.626,0.31517843139020796,0.15204060545409326,-0.16298300352914882,-0.23208276428820246,0.2361496800764561,-0.006079266367660533,-0.36986733878097217,-1.2349195165229312,-2.161270750062952,-0.5441869393833588,1.1342582668460004,1.1135644896119792
0.628,0.2945846442259145,0.14444816558951618,-0.1499835796104817,-0.2178060306149723,0.21986045012018102,-0.003382891789883675,-0.37682933437762617,-1.3799050097519148,-2.3807567559743994,-0.7443287830331502,1.1580524530928964,1.1604636930517156
0.63,0.2713351584791961,0.11142319808800283,-0.15964109317075054,-0.19043359522392334,0.21393715541498973,-0.025084395379268893,-0.36848904395677373,-1.4784579911251772,-2.4889815456215505,-0.9265378896206516,1.1053888237291853,1.1299510591312663
0.632,0.24926831183862463,0.07547726839795804,-0.17341443037061222,-0.16221903650206831,0.2107454193437299,-0.049646995956347244,-0.35493086658053646,-1.5301718859953366,-2.488530899413148,-1.0411689793089063,0.9823929699104426,1.0346240509563611
0.634,0.22424665938790833,0.0448407871054181,-0.17912256858921638,-0.13432988999858403,0.20144605223003853,-0.06705877420523144,-0.34145781149182247,-1.5327508851034164,-2.4022191004944458,-1.0955124525963598,0.766699772622661,0.8811006504700081
0.636,0.19219233627909388,0.017549459584842504,-0.1744875191283931,-0.10422262526382181,0.18282877472808806,-0.07803180784102204,-0.32525970750434324,-1.4868946210857077,-2.26471775623563,-1.135409202130236,0.45784661905114304,0.6881493046065471
0.638,0.15664357813774973,-0.010936193132050192,-0.1672563758718614,-0.07235089225796262,0.16126441698666014,-0.08891702232976322,-0.2998677137243046,-1.3984088401527983,-2.106341829719037,-1.1834744388294733,0.12751027590045183,0.49900627004131387
0.64,0.1282654911588812,-0.04319280972484796,-0.17078151228279315,-0.04270576233163651,0.14913784997252147,-0.10719501229074532,-0.26592223051111563,-1.2861542722312438,-1.9466099455988657,-1.222997348421715,-0.12978824407740824,0.3506264314149952
0.642,0.11247819272043473,-0.07658670917287708,-0.18835111681111108,-0.018483601274913643,0.15037103681196418,-0.13287165158766384,-0.23462823079909836,-1.1802121201363036,-1.7945674493473167,-1.2299869280368512,-0.28331674489965225,0.24191196922127578
0.644,0.1036183655732272,-0.10567928756747119,-0.20901092830244572,0.0007791199775422165,0.15604158666729004,-0.15801158129913084,-0.21642552741747648,-1.0958589661505984,-1.6453378433875547,-1.1918066087610293,-0.365332493276103,0.14956400082512078
0.646,0.09479391646015514,-0.128408956113888,-0.22334431352597559,0.017035431623498205,0.1579522261906906,-0.17722371159043612,-0.21028533085160162,-1.0183278551222499,-1.4842745296671729,-1.1053641614561385,-0.4049214094272557,0.06539246284451761
0.648,0.08519481470132291,-0.14571288019927206,-0.23103434485387414,0.03069863693161028,0.15631101431532782,-0.19045485065616713,-0.2078738907657553,-0.9296690832830615,-1.3048970090440102,-0.9819109544234984,-0.4041540071800306,0.003438335917694173
0.65,0.07962203583493796,-0.15257766779875495,-0.23203800080169784,0.037033735683531716,0.15431159999842012,-0.19447939741551515,-0.20319710139827651,-0.8363685262918026,-1.1187542783639883,-0.8467436632086792,-0.36630301408415605,-0.022994835316536733
0.652,0.08471623680815205,-0.13810252602508316,-0.22261457532571477,0.027580923765871488,0.15298649630898167,-0.18213998366556405,-0.19497050999346224,-0.7536967211779948,-0.9444896256357518,-0.721339575895791,-0.3100403489827379,-0.018284313139927243
0.654,0.09665732481145417,-0.10373825612378634,-0.20049154152075468,0.004794368797163027,0.1479308747708563,-0.1537226824568172,-0.18416371339922974,-0.6805674026366992,-0.7945919036059957,-0.6124345299178124,-0.2551544704324181,-0.00020782221696441486
0.656,0.09681382950030937,-0.07124731883406486,-0.16836734634879444,-0.011421098063239113,0.13085863322215574,-0.12149713605132578,-0.17149414667289678,-0.6056372100358405,-0.6723530449257826,-0.5192181289865258,-0.2116056475838386,0.013678838757752249
0.658,0.07210999839026709,-0.06074596054389079,-0.13304860450371336,-0.004342377223896101,0.10002541268823519,-0.09866256990672602,-0.15447507941865254,-0.5233030711290556,-0.5714973609687989,-0.4395936899036324,-0.18064997210042955,0.015573640243529212
0.66,0.03143822434971573,-0.06851887103721294,-0.09999443360710479,0.02006665682051534,0.06381872051382108,-0.0861802229155273,-0.12823545743274944,-0.4353354076455116,-0.47944090893675273,-0.36947148551662323,-0.15844463935962713,0.007885759126062325
0.662,-0.005731578918207184,-0.07496339724604555,-0.0692960333581691,0.042380748179541315,0.031300668557143765,-0.07418233456089923,-0.09322897670550698,-0.34855317638874633,-0.388804787880559,-0.30549519367714006,-0.14045656249711977,-0.003369317265639886
0.664,-0.027181831035958167,-0.06962025112208194,-0.042506803560761405,0.0510205850353739,0.00768605891225204,-0.057876881659654225,-0.058948079687929186,-0.2735950428298431,-0.30457800985748645,-0.24956127992218868,-0.12545275625417637,-0.015368976364029487
0.666,-0.03265455801376185,-0.06004111289949545,-0.027278160491440603,0.049313728153322425,-0.0034436242732750165,-0.045055551673871375,-0.03443985960759127,-0.21793926055266974,-0.23572241459718712,-0.20646000878373846,-0.11553758841545013,-0.028580617628452428
0.668,-0.029688837195990567,-0.05566803017467255,-0.025740864666299667,0.04564433689014428,-0.0036556502169752653,-0.04194420071644556,-0.01789117877282505,-0.17835770096785314,-0.1824711875643947,-0.17745280669340424,-0.11304820217755382,-0.04183179125937283
0.67,-0.02526081430522933,-0.05329947236402837,-0.0279071499191856,0.041993272430489226,-0.00047834594601129103,-0.04189198482012589,-0.001345704720185783,-0.1437880818202779,-0.13643155899349796,-0.1576981647661503,-0.11664271379567723,-0.05163703488417015
0.672,-0.020621648200599123,-0.0453667639946766,-0.024798876004682387,0.0354229124636317,0.0008395502135317343,-0.036350786357380004,0.016740853187398545,-0.10685347515759779,-0.09158055504031398,-0.13902569580599414,-0.119914151302885,-0.05674473307334824
0.674,-0.01775321699116998,-0.035003658742098466,-0.017352222225884773,0.028741165454648,-0.0009663162637897542,-0.02733929779965844,0.030490605083144502,-0.0701964935963669,-0.04987736493718958,-0.1157284889087049,-0.11633948690568939,-0.059305769533058515
0.676,-0.022535119252019776,-0.032990240959728925,-0.01047751779002974,0.030276530455537992,-0.006962161567515179,-0.0227212484172726,0.036629093535246564,-0.0404103326740661,-0.015730918487654923,-0.08908281276790068,-0.10635848932840453,-0.06140343720873082
0.678,-0.03256810064544222,-0.0409901131183558,-0.008399605817156274,0.03930365864990619,-0.013590543573826745,-0.025456809567157963,0.03833010844169543,-0.01945401435810179,0.01016495999018567,-0.06505477429983485,-0.09687039608020286,-0.06321559652106104
0.68,-0.035377484059686125,-0.04724586058138074,-0.011966052490879665,0.0432969937480066,-0.013226161108781298,-0.030331746895034817,0.040039350600968235,-0.004750928159860127,0.030066371159700053,-0.04756510158138186,-0.09367238462734773,-0.06447775686533709
0.682,-0.02805386214758095,-0.0429420427529991,-0.015223584210352192,0.03638974379058998,-0.0070650084805128546,-0.029980774386894567,0.04407571481960834,0.006018925491412879,0.04587105298273045,-0.036185039020495975,-0.09688776443916915,-0.06616344074183793
0.684,-0.02273059864802048,-0.034381048954788586,-0.012095206286325759,0.02838821201203862,-0.005150668361606114,-0.024030659147401115,0.0503574264604205,0.014180141487277913,0.05872427308860004,-0.02897027082411227,-0.10300911422563201,-0.07016258160585669
0.686,-0.027296231154991083,-0.03262921313162362,-0.00559475761527039,0.029432847674597622,-0.010736091970263695,-0.019291060733769523,0.05600872208793111,0.02189211266329907,0.07047292033278062,-0.0241915347980008,-0.10846822897209847,-0.07672039008588583
0.688,-0.03691194489467716,-0.03894665453300161,-0.001999933058316153,0.037766597695525476,-0.017835098443079192,-0.020097919594146526,0.05825241061286122,0.031743242992565326,0.08359049221857379,-0.019727010210681406,-0.11047385820851634,-0.08267093403595889
0.69,-0.04465659197028939,-0.04620297161066798,-0.0013928331789095317,0.045973048421107665,-0.022183893636425058,-0.023654684994884635,0.05893176375045592,0.045165984376971356,0.09969653770779029,-0.013106542779639964,-0.10691130682582779,-0.08494583668238638
0.692,-0.047061426333026964,-0.048304516295494905,-0.0011811396825415752,0.04902340526157464,-0.023480414746025396,-0.025485021367534465,0.06256674996386265,0.061500956774956386,0.11843206850245448,-0.003066964959800541,-0.09863453681167549,-0.08547506746943466
0.694,-0.04424662678276972,-0.04571612291029477,-0.0015204594414222057,0.046919062478912144,-0.022184334388758175,-0.024925426671145716,0.06985503404089062,0.07754769748273727,0.13663290667609307,0.00906847780356607,-0.09120180603495877,-0.0884677512746416
0.696,-0.0424442048485449,-0.045087455891905034,-0.0027012874504504045,0.045688696190093796,-0.020905756383701332,-0.024941594279251002,0.07653499313635548,0.08917612224263932,0.14931359546601305,0.020384870983249682,-0.09053223374210019,-0.09338639137780246
0.698,-0.04753506093726234,-0.050685219071273754,-0.003150454492489948,0.050505867547141294,-0.022782687877003657,-0.027468823929336715,0.07921631606356229,0.09518032284684057,0.15428657969598022,0.029601876663133055,-0.09577969507294376,-0.09544673549012177
0.7,-0.05479405201999252,-0.05642902317406304,-0.0016035916164269578,0.056597536036043845,-0.02659770272331777,-0.029453915540755583,0.07963733450415024,0.09825630374970004,0.1550397634502654,0.03800188695611569,-0.10024672911057601,-0.09315167663048535
0.702,-0.055096632171368266,-0.05407292280999374,0.0010388573292492613,0.055617272147332274,-0.028391034899039196,-0.027150997296006167,0.08144652719891295,0.10096560311680763,0.1565270938955993,0.04592378066757612,-0.10067049415248214,-0.09098401500546771
0.704,-0.04910089718677852,-0.047001004541796225,0.002090022402228253,0.049332985325023664,-0.02707610250511759,-0.023258816560667056,0.0845110076073439,0.10274697125575318,0.16006009096580398,0.050709355617397894,-0.1007085533455842,-0.09366982567328828
0.706,-0.046696471487179626,-0.04648409390210602,0.00019940328810513644,0.047918195903523204,-0.025614033213310128,-0.023798118305577726,0.08461149225156096,0.10172587482478061,0.16405808090771143,0.04994853805363271,-0.10445215734731035,-0.10087719220427138
0.708,-0.05304391939765098,-0.05543483383323338,-0.0023917252997550905,0.05526250773704503,-0.026840861293171925,-0.029034456524902764,0.07878851524675513,0.09798031540938616,0.16760483756960745,0.045452793142482066,-0.1112306587327314,-0.10831440072485096
0.71,-0.0607974779641629,-0.06410711310293037,-0.0033029429887649095,0.06316221678509022,-0.02905044101560171,-0.03329899008289019,0.07010130595486636,0.09463078733562717,0.17214398482942303,0.042717169544562526,-0.11603706219444825,-0.11152184819515253
0.712,-0.059693088239665036,-0.06361776363379922,-0.0039210366616096145,0.0626183001517471,-0.027857232796914693,-0.0334554241456027,0.0651756533452333,0.09496449903636858,0.17915789181280012,0.04541833700327956,-0.11351239844010061,-0.10889191685834895
0.714,-0.051468396320895934,-0.05731432012285271,-0.005847837796383563,0.05606269393590469,-0.023615674994065337,-0.032143739278878265,0.06602936677456622,0.09803152763628067,0.18614637953246801,0.0513174903900153,-0.10492722705874524,-0.1035243063115283
0.716,-0.04891875991148072,-0.05526801877077783,-0.006352158784886392,0.05412983879241602,-0.02316407248293596,-0.03231906385807573,0.06698490581561141,0.09929083038904671,0.18835226097301017,0.05623747383321129,-0.09963351809355445,-0.10129027100728974
0.718,-0.058903341911796574,-0.06162900327973522,-0.0027260020057188303,0.06210155780182367,-0.030544848704770297,-0.03374365029069602,0.06159447023940952,0.09600741389379315,0.18539483625725373,0.06003809062966131,-0.10463573062420367,-0.10500195513391816
0.72,-0.07255696677012334,-0.0698220343064953,0.0027363523125559083,0.07276812703199242,-0.04019846299364419,-0.03441269881573623,0.05086662174757047,0.08993543912987871,0.18210664025787093,0.06499853324480433,-0.11537963988992257,-0.11139311399809566
0.722,-0.07545758262249715,-0.06877458422803483,0.0066838624839309895,0.073647834233157,-0.043464425979010575,-0.03159624822141395,0.04269292361567529,0.08521521410279116,0.18220832937709538,0.07097081369227368,-0.1214889822176387,-0.11520586611995358
0.724,-0.062112596624275804,-0.05410657432543288,0.008005660190001011,0.059734902616699136,-0.03706378734925571,-0.024188088044630903,0.04281948643452202,0.08499373479852541,0.18521083649149428,0.07584285385440447,-0.11892163948523633,-0.11457995673618332
0.726,-0.040709532842638924,-0.034662389816138735,0.0060684381304570946,0.0393654149108831,-0.024864152925893952,-0.01631096210505404,0.047479050164033275,0.0886122068627551,0.1894351617754404,0.07835128720488438,-0.11299039891549827,-0.11140409948651542
0.728,-0.028843503954312708,-0.026788995075546107,0.002185714399060225,0.029147967951280877,-0.016606177130233088,-0.014617380626334464,0.04706870382424746,0.09120757752228763,0.19411655920972645,0.07724084400315295,-0.11119788994045986,-0.10914032072412054
0.73,-0.037519043045777856,-0.03810308893924905,-0.000278267385500646,0.03852262487302803,-0.019509546266472114,-0.020952308223257464,0.03739068733539736,0.08863720587163577,0.19947877456572077,0.07048055295251586,-0.11464506969883119,-0.11050587240131014
0.732,-0.05613544089824069,-0.05787017917961561,-0.0014213061948099232,0.05775909317570689,-0.028092701932342905,-0.030541114329360936,0.02402473059330434,0.08330105686661309,0.20674636520931158,0.05870411145174703,-0.11708204449922763,-0.11436754990855169
0.734,-0.0648810760250241,-0.06844261394805227,-0.0035021667838753675,0.06848628447548462,-0.03148690487226188,-0.03650282134844603,0.014778039950516294,0.0815612226688962,0.21595998897903296,0.047326692141813724,-0.11343134367585603,-0.11620438330921229
0.736,-0.059118527293725506,-0.06332085725451161,-0.00432333200610722,0.0640611475147073,-0.02859430777134426,-0.03468654661676928,0.012607106010629235,0.0865451432404432,0.22537377190874283,0.04312802005771381,-0.10620475285547508,-0.11326380840506055
0.738,-0.04873639910991348,-0.049442330781798834,-0.0006846956178615507,0.051711714785762974,-0.025755964377034892,-0.026562189146046144,0.016696489243391174,0.09721757103168512,0.23529102724123716,0.04924373010284877,-0.10065453621373385,-0.10690848470352304
0.74,-0.04201532134485786,-0.03704382698103494,0.005189555282112504,0.040808825421773644,-0.02574931210735476,-0.018014564827642496,0.02406688819948164,0.11034100396871525,0.24748323934806715,0.06222919253169037,-0.09739958498238777,-0.10042717381324513
0.742,-0.04161506707766099,-0.032032710526827414,0.00974865686953514,0.03675223978783885,-0.027744915260965845,-0.013505370092735692,0.029359846505752792,0.12031259733385587,0.259861168060759,0.07351465995380094,-0.09361867079625807,-0.09684903458135347
0.744,-0.046929191735342,-0.03405699040407308,0.012846027221402765,0.04000423818647994,-0.03106514595358113,-0.012563973743974761,0.02922431109202491,0.12296967197776193,0.26842624560827355,0.07688402949760442,-0.08882877528764889,-0.09697888725054707
0.746,-0.052802768118140005,-0.03773619304572176,0.014959359283697024,0.04536656350216381,-0.03401192332057813,-0.01240123573255453,0.026611933497015603,0.1209139789625599,0.27390073533696213,0.07435913561259982,-0.08533599591491438,-0.0986509687772662
0.748,-0.05257417791026426,-0.03661360295421878,0.01594261171569987,0.04558472638555862,-0.034399897515106886,-0.010848109708423492,0.02653857214535657,0.12067967845569574,0.2807233094142235,0.07179501672608762,-0.08386187228815221,-0.09963597914160899
0.75,-0.04470176982258034,-0.028187580970276335,0.01670639597729114,0.03775229881525856,-0.03200799686652068,-0.006884771736168107,0.029988388988659676,0.1260050647621846,0.2914250334368095,0.07203059403522412,-0.0819304948686409,-0.09994547579915859
0.752,-0.03454138218917701,-0.017379498957638927,0.01766121678001692,0.026769907540124496,-0.028397851873383253,-0.001960034126511377,0.034060171668186166,0.13609779303146616,0.30483336820214335,0.07529200205488219,-0.07687371733065587,-0.09977276320592117
0.754,-0.031844338554168204,-0.014554577416436206,0.018038062210103616,0.02353989790766384,-0.027139452591038057,-0.00026498852259686494,0.03508282986913248,0.1474964003215744,0.31720639690412816,0.08111443588547373,-0.06939021148263581,-0.09785186327135506
0.756,-0.042516001286636566,-0.0245825447519621,0.018588644855411094,0.034425009330674314,-0.032101230578903794,-0.00400489243233242,0.03201069256465306,0.15655393171841636,0.3256798341946186,0.08795011394308541,-0.06313814666568605,-0.09361126416687833
0.758,-0.05830889543129902,-0.03793372465138764,0.020595001573629625,0.05010369866433832,-0.04071118399472145,-0.00939678816514436,0.028847467571536833,0.1623998006843904,0.33271670425754246,0.09493732292864042,-0.060096654652395456,-0.08847107056756771
0.76,-0.06380531156921387,-0.041118988021305904,0.02252258140916364,0.05459520141115098,-0.04460198372075414,-0.011134772055130327,0.03056866152562016,0.16715685744828898,0.3434750266672262,0.10308810975904113,-0.05831438372443043,-0.08409603284490917
0.762,-0.056701593703872136,-0.03475170376271445,0.021750045140935696,0.04665723201483839,-0.040728813700934625,-0.009503346041104959,0.035626114929522334,0.172117150636823,0.35749933944599427,0.1121592962775773,-0.055905068225984456,-0.08160900818813245
0.764,-0.048247164117600265,-0.03039686384286824,0.017855316259593433,0.03918509739878256,-0.0340412683516867,-0.009168063635417173,0.03784466820819962,0.17636291921557676,0.36898788080759676,0.11955290598181748,-0.05395643769276925,-0.08166352907183708
0.766,-0.0434176777398069,-0.03106915373835963,0.012577462843814525,0.03747406150514194,-0.028315413407795847,-0.01130857336794044,0.03630689109198207,0.18040653560823905,0.37667995311812674,0.12479747090832194,-0.052206635140663614,-0.0828628541739358
0.768,-0.03559705661248522,-0.02705599702805328,0.008924617120059784,0.032764305318891705,-0.02263726457426648,-0.010897140793878556,0.03633272645909201,0.18686535899053158,0.38667514561016897,0.13169494327912415,-0.04625992697054931,-0.08214267817328483
0.77,-0.020964913813513203,-0.012512946945397282,0.008848649219441753,0.018731109299393416,-0.01612124060867087,-0.004200378715431103,0.039705852719252505,0.19635778161262799,0.40355189575829903,0.14322203245001508,-0.03392055007144325,-0.07842909808995806
0.772,-0.005917436352226775,0.0040376334342125,0.010167745245567246,0.0023305169860024567,-0.01009802788448453,0.004332785977717662,0.041781738501734944,0.20671025025821713,0.4244763968164546,0.1575942232587176,-0.019826805733141818,-0.07359699038564341
0.774,0.00011372138436119977,0.009699821075288877,0.009576021333310316,-0.004399840723774827,-0.007142992649531011,0.007277963279537666,0.039651178944204446,0.215640154934172,0.4429617201064198,0.17158055962216823,-0.010236991037352379,-0.06962794970377431
0.776,-0.00610689092365525,0.0018032019680236959,0.007915948436115011,0.0024580367087635472,-0.009243207568761845,0.003619509217809966,0.035826038648588875,0.2218499104118405,0.4544121028564406,0.18364570308450906,-0.006437907162131126,-0.06679997817390455
0.778,-0.017235083290861285,-0.009849932575377248,0.007662523369837919,0.014121334951090421,-0.013949719379529794,-0.001173961151941996,0.033242851545977795,0.22569007776038913,0.45912528069759406,0.1929538778852006,-0.004404710022085435,-0.0641128815026891
0.78,-0.02164887598352962,-0.013020641734492468,0.009070223070423641,0.01789001153148054,-0.01586470653358352,-0.0015210766597631394,0.03230977553746151,0.22890429733155493,0.462451032220298,0.19988436957362613,-0.00020368966287148498,-0.06065804193379113
0.782,-0.016968067160103437,-0.004889706439004375,0.01224952243779803,0.01126415647580649,-0.014591274601015886,0.004012418741196263,0.03224958972362618,0.23160987666433008,0.46988586215810113,0.20725750231566978,0.005565766732101385,-0.05697094848994588
0.784,-0.009491386367197128,0.007453808922331998,0.016614298066781313,0.001552202397974006,-0.013352355001035078,0.012120357272864113,0.03239245288879787,0.23223699893824842,0.4812013032679862,0.2170967638884966,0.011470063778732501,-0.05406907312189837
0.786,-0.00153877596006184,0.017076466177681136,0.018152814350136784,-0.006812792055218033,-0.010650228008452292,0.017710820610359456,0.03280449824440455,0.23165347295411431,0.4914851564838179,0.22687502578234697,0.019800584528265584,-0.05112169587220178
0.788,0.007113441586196831,0.02130048342062233,0.014183462673980565,-0.013271282193264972,-0.004264184821877919,0.017994322851797685,0.03270589231062164,0.23229603560209375,0.49708163288751195,0.23207276536942628,0.03106460646747051,-0.04712066373099778
0.79,0.010322356848816326,0.01805604692368748,0.008236062056488486,-0.013584439571871783,0.0006117402380307559,0.013368350806228365,0.028529104677862505,0.23347516880288458,0.4992134363124286,0.23235510665855416,0.03924812602673979,-0.044091767264968204
0.792,0.002854732516262491,0.008246457790819726,0.005838018792915751,-0.00489387323655509,-0.0023176247809340122,0.006783557613093634,0.018509181237972978,0.2336368531121795,0.5027217695992877,0.23286171869452205,0.040592817423172715,-0.0437072446500523
0.794,-0.0091441240602328,6.433017164122877e-06,0.009059603595534725,0.005721924218878663,-0.010843099886178478,0.0033925109809675113,0.008672435446047278,0.2353814138213246,0.5107339631221526,0.23872527506749666,0.040402488728963064,-0.042833222999537915
0.796,-0.014862786716790557,0.0015808777338658755,0.015911250480578797,0.008111678006166407,-0.01738028360594879,0.006880024461875194,0.007995455695031548,0.24234465406227618,0.5210142395000916,0.25021078923549916,0.044616657580869704,-0.03809943307336561
0.798,-0.009675156978774153,0.012492021112459086,0.021737996567974604,-0.00017213814923110638,-0.01701118604737206,0.015212121439970222,0.01834850891615783,0.2531716404681531,0.5296783209359582,0.2640483888719304,0.05329834765763755,-0.03113840793305193
0.8,0.004475972691635272,0.02671049109803829,0.02236073040906441,-0.014769847251370214,-0.00979394541673736,0.023015404729051784,0.03272801835282179,0.2620061528220289,0.5358478691113059,0.2761695224572435,0.06485790469156096,-0.02461134560429006
0.802,0.021622393331016305,0.03874837299057434,0.01767519019884411,-0.02936271875660519,0.0006124932998574451,0.026785183201750804,0.04106555223986636,0.2634332366691718,0.539242827364298,0.28171938176400196,0.07603953151013926,-0.01828653912321745
0.804,0.032747804975321135,0.04358480352524979,0.0112572798145999,-0.036952833301292426,0.008779517899637459,0.025584000582939043,0.037793673564018866,0.2570318065283212,0.5371194605184783,0.27778592808565106,0.08021919812233405,-0.012398433328159715
0.806,0.03052183902866863,0.037722201048282424,0.007192042511312643,-0.03269654768952894,0.009914646794442455,0.020092760007190145,0.027095739435426286,0.24841949951433318,0.5281015697399527,0.26780860474741924,0.07620696998303735,-0.009879823076332717
0.808,0.01663645615703769,0.02470266790553974,0.007842050489766684,-0.01960317025109892,0.003120878493310334,0.013682606650339907,0.019505937080261472,0.24467409977076016,0.5167417664763766,0.25837301609769936,0.0727422065655713,-0.012103724702333918
0.81,0.004580812100642368,0.016277538706444404,0.01158670446821556,-0.01010572657514589,-0.005034079991750765,0.011458174233836538,0.02195248242024021,0.24868131344022634,0.5108987898219032,0.25273333952991056,0.07733574144991191,-0.014663609440806236
0.812,0.011143943495301078,0.023275456222191106,0.012197656093539413,-0.01744954084457225,-0.0028562282427982005,0.015450127981904314,0.03248872050523046,0.2585041540335299,0.5142011329282787,0.25114536222736766,0.08784481303276524,-0.010681274974645926
0.814,0.0372158105342538,0.042958975996001396,0.00583453567474104,-0.04031664159300521,0.012931347561725752,0.02208341412735857,0.04296406236534523,0.26966427642365925,0.5211828211241863,0.2527335307135975,0.09750997393781305,0.0008057789064844276
0.816,0.06039495980255333,0.05912785696858354,-0.0012372303646260442,-0.05944603030039459,0.028459312837437654,0.026387967209906705,0.04568070970488002,0.2766700173116907,0.5215339222806096,0.25427334006812974,0.10218275901914708,0.012666498088269126
0.818,0.060444432021510494,0.06070067351765533,0.00034165344046648287,-0.059551818517286616,0.0287616932871122,0.02797118781145937,0.04110148897751994,0.27625348399284627,0.5118540439470509,0.25327345623291253,0.10307911202273963,0.018606600056490962
0.82,0.04537267460259489,0.054421139972806606,0.009371577952622527,-0.048587391152855194,0.017816612004431,0.030044001523557663,0.0378346699880373,0.27006960252450984,0.4996314829826604,0.2514056074385395,0.10466218599920941,0.020276193925257435
0.822,0.03539832537702065,0.05108108524903964,0.016249176167312838,-0.042305174853912136,0.009690150857645482,0.03272193217598193,0.04050512750950453,0.26058365322407046,0.4911681938223416,0.248855123450372,0.10740510892409397,0.021439525505656126
0.824,0.03513190900361478,0.05041428684954207,0.0158856213314455,-0.042222335781638504,0.008957679406717258,0.03234316856213566,0.043157891288357154,0.24791055108282553,0.48282634019427484,0.2413906237855982,0.10630787329451334,0.021956053329168276
0.826,0.0372821923066825,0.048046126712001126,0.011185675169143454,-0.041703113978377074,0.01138235903542052,0.028082768673089932,0.04003523065635035,0.23416998084300444,0.46975063374142295,0.22824742271091086,0.10015831782884184,0.02166981510658406
0.828,0.03625408779382911,0.044054170355165075,0.0080314445754543,-0.03841957678691471,0.012258010788309634,0.02373747772635928,0.034840740074487536,0.22375966361889085,0.4545455345031133,0.21453729697595467,0.09441593801324165,0.022093110644985668
0.83,0.030604411251279506,0.04071479828681267,0.010342719182906156,-0.03403875836344029,0.008733576968679005,0.022964864563507482,0.03411292550360228,0.2178160557935132,0.4428568687287797,0.2037469152610945,0.09263142394952058,0.022877996321790245
0.832,0.024483246798358234,0.04032384555382904,0.01616586923269316,-0.03191179493745304,0.003031133045681467,0.02595846331713338,0.03786075435345615,0.21469029442322088,0.4362668861008816,0.19519083070847087,0.09314527570104023,0.02317199036309499
0.834,0.022437008411675268,0.04190409997978728,0.01974227054561399,-0.03243167837298595,0.0001372788158418058,0.02924087143143017,0.040083956809465915,0.21289633018264867,0.43082760712285895,0.18711763362352424,0.0932716478639928,0.023798014433718068
0.836,0.021375759405769804,0.0397875477065985,0.018566596621117905,-0.030171539658063105,9.11166429297983e-05,0.02840190722551918,0.03625303066057572,0.20971953907569585,0.420904823051469,0.17790106046196752,0.0908227458067911,0.024271814270257028
0.838,0.019016606433416273,0.03271829502270069,0.013908087875370389,-0.023973031453713895,0.0012816820076121428,0.02291752948653882,0.02904120233426549,0.2026261038656184,0.4055946055294502,0.16794900450756348,0.08499890000593528,0.022931492740503955
0.84,0.021171846841378354,0.02821097715076779,0.007383912726268663,-0.02188055319159586,0.005815313233635241,0.01717309207506952,0.02500309775180998,0.19318402366327658,0.38989592138688195,0.1608798714615486,0.07876483177473569,0.021367458022667166
0.842,0.02986098241165631,0.03152124334688941,0.0019415649952032996,-0.028213108610080185,0.013070406461504116,0.015540415905177133,0.025945603341905845,0.18435007662278233,0.3781578250383939,0.1583672946948292,0.07602300849306229,0.022477040964718885
0.844,0.03888587961137732,0.03886623428049338,9.33826598170198e-06,-0.037621764447831225,0.01832074249580417,0.017646922124151344,0.02746212514435374,0.1758513856758201,0.3691303981270503,0.15580560508077382,0.07620935658629151,0.024639713117678024
0.846,0.04632311770129543,0.04543259128093056,-0.001023907425515039,-0.045846054791464544,0.021777129321822818,0.02002240451508463,0.025832794848999988,0.16649350215901076,0.35852532125683595,0.14730808640296597,0.07595796027455316,0.02425285590458746
0.848,0.054425461463626465,0.050399174979897064,-0.004113254699136528,-0.0528813628777552,0.02679210895882887,0.021047439162515637,0.022473092202317625,0.15742369361018194,0.34427332022095514,0.13301529320257813,0.07391212326003327,0.021914228508434126
0.85,0.05793073825239912,0.051207570056279406,-0.006695156546917209,-0.05482148400376293,0.030386504418746567,0.02089412044410973,0.021185076969821987,0.14983902299908303,0.3281281489700666,0.11873863779953206,0.07003434317766816,0.02013277057570382
0.852,0.0504160547928887,0.04346217527705861,-0.006915110695396916,-0.046819228285871435,0.028100677175419655,0.017996690270779676,0.023102406182099588,0.14261404930830307,0.31300034686819045,0.11010094519801893,0.06355945701436667,0.018434619738515144
0.854,0.038141956560878404,0.029381928290630095,-0.008899192361488185,-0.03344804153366608,0.02363138223807723,0.010488422019944868,0.025431307712235982,0.13406898802979933,0.2998665769636428,0.10803481809859,0.0546009810879725,0.0153344804685956
0.856,0.032389681872772996,0.017948922900345547,-0.014925742297521504,-0.02452810839056289,0.022982078008306137,0.0010485515943863474,0.025847973456133603,0.12484380467801638,0.2876921048427715,0.10885229906710542,0.04554040897726419,0.011548287293277002
0.858,0.03415681913916527,0.015087605500403547,-0.01986140198883301,-0.023141022745559205,0.025073584013194292,-0.004094045479432749,0.026262712259260287,0.11768112324637288,0.27550026104968117,0.1081351798651171,0.039096826959831875,0.008268061021357765
0.86,0.03567991115872342,0.017625740198870622,-0.018858987002908688,-0.02423176567870609,0.024996250737966606,-0.002768066996260697,0.028780664477335818,0.11285524848588975,0.2626859233236052,0.1032329717556196,0.035276025611909796,0.004622554438362884
0.862,0.03142360531958122,0.0175824591241512,-0.014385183391779995,-0.0219745444592354,0.021326345907443433,-0.0001761601910443761,0.03135189114665921,0.10634648227565853,0.2482288907307895,0.09296740922533533,0.03158865140691734,-0.0006420688828076891
0.864,0.023990528993320773,0.011783964312734763,-0.01245390655522418,-0.016250833419338046,0.01743077374853577,-0.002019929553136097,0.03220967909842686,0.09621292981528108,0.23220786161269857,0.07870078113359129,0.026824053808095202,-0.006649028272615708
0.866,0.020041774854902755,0.0047376384911989745,-0.015356082271806177,-0.011748676073044138,0.01722570535190487,-0.007357689386673432,0.033237478013829924,0.08623864641989235,0.21669788433444667,0.06405970050779927,0.02233531386280135,-0.012476487452525116
0.868,0.020169728545279264,0.0009384544524072495,-0.01919317232854176,-0.010254120196982651,0.01934385071317579,-0.011012772614828317,0.03503253891480698,0.07930589281211282,0.2034167802424568,0.0507953248875944,0.01862781097803979,-0.01897069143593128
0.87,0.0181616832123487,-0.0010019553643715884,-0.019097718784936307,-0.008036488170803997,0.018536122854414725,-0.011059776669859878,0.034338508547071614,0.07304058565301882,0.19226113535700584,0.03803594995314262,0.013374482469436396,-0.025530010747529853
0.872,0.01243712883616024,-0.00447360103315193,-0.016749947027611022,-0.002997034048869064,0.014673597746245156,-0.011129884309321473,0.028617209528732316,0.06478482539000906,0.18228150243429111,0.025967590723466882,0.004529262882138495,-0.029286281818451727
0.874,0.00895932982046649,-0.00938724326064093,-0.017905541889086884,0.0015957228284207133,0.0134608597745569,-0.014735207668020906,0.019856767259467,0.05525380757064187,0.1722652184290867,0.016284181838611567,-0.00628815563015885,-0.02993271252621375
0.876,0.010053501771087115,-0.013229209560246346,-0.022523350482968208,0.003271156521519566,0.016223541122084215,-0.019975582616712763,0.012830113877991092,0.04643590393282691,0.1611201830663955,0.009390673814801964,-0.014937411226733328,-0.03109322815676449
0.878,0.011105338023760066,-0.01493380399442867,-0.025204469737902885,0.0037024634657488523,0.018111791824442943,-0.022546690250378067,0.010350268314362468,0.04028936965060772,0.14892244759496917,0.003917777116722339,-0.01832344958811682,-0.0351448883568671
0.88,0.009578368831046397,-0.015700677485888402,-0.02460406874985764,0.004480983197778007,0.017101985794337554,-0.021910898691570833,0.0105891098924334,0.03783506243405146,0.13631470970510054,-0.0015612531122280813,-0.017128258803995204,-0.04032635451727586
0.882,0.006587665791362058,-0.017550640878300702,-0.023666937425062276,0.006250197374986903,0.0151196591205788,-0.02119505341381139,0.009130391166178396,0.03600038188240247,0.12294403388183285,-0.007850564562162867,-0.016427708492227466,-0.04420855940631939
0.884,0.0026310151911990683,-0.020558947195642323,-0.022920405417088355,0.009680767309385925,0.012584023767261816,-0.021889405185726216,0.003893871801430816,0.029376574356216885,0.10902700104552118,-0.014864160674946844,-0.020989987535446626,-0.0468448439825399
0.886,-0.00025631398966789384,-0.02088431016741836,-0.020513250087746397,0.012158248660112822,0.009560345496572583,-0.021481884306403486,-0.0020794846477320797,0.017580801839452022,0.09758611660291278,-0.021075541971669245,-0.028278943539172083,-0.04942028795319836
0.888,0.0008750036683091227,-0.014755430095536985,-0.015531756853849455,0.009337321235999514,0.0073429617019393194,-0.016694935974795252,-0.003593368604852682,0.006308874506464725,0.09201537272833926,-0.024880832053827375,-0.030918301935180827,-0.05211532314964581
0.89,0.004794803331546184,-0.004406548613557567,-0.009068761509609587,0.0019697333828566244,0.0060156770406528115,-0.00821815888472051,0.0008483617416223155,0.000489325729591013,0.09198999565521873,-0.02662821471867298,-0.02723844114020847,-0.05431219722325378
0.892,0.007942941051353418,0.002839942494918955,-0.0050268334862364,-0.004118837637051915,0.0053004041422288544,-0.00189342614296308,0.006931607366184024,-0.0005227330750301199,0.09307182786875226,-0.028638825289310516,-0.02400151747245304,-0.05604599684987171
0.894,0.007721682928056547,0.0010873197614400813,-0.006681973514706504,-0.0036116010919223884,0.005229367636306399,-0.003326943726043205,0.008620147333758174,-0.0012745636599343201,0.09016341365522289,-0.03359445269783425,-0.02805721843871615,-0.05813280117263377
0.896,0.0021739797107255023,-0.008902752380647435,-0.01126596485107123,0.004371346905254652,0.004019798686828948,-0.011113097348891675,0.004311975767142205,-0.004461680628473694,0.08222711204581265,-0.041339012003844954,-0.03894784566119777,-0.06061449077073701
0.898,-0.0067811561736945206,-0.020038109901771052,-0.013600641382531987,0.01467567378533901,0.0008785111225374005,-0.018466506640967256,-0.0010542447831167502,-0.0078378923981281,0.07312199622257472,-0.0474020695422558,-0.04985361772992173,-0.0626902157706174
0.9,-0.013094660163206377,-0.02525816881185347,-0.012562632717245014,0.020345533506061313,-0.0016598123306198872,-0.02071699347078122,-0.000584262851755356,-0.008633400541946824,0.06657619662223052,-0.047874027191826055,-0.054401903915235,-0.06479987561361485
0.902,-0.015332592530400944,-0.024149967352903305,-0.009052600834144732,0.020962830389051668,-0.0033244000451046296,-0.018331583504906615,0.007050771806175722,-0.008495178861597119,0.06242328595139657,-0.044679079479984625,-0.05275111180039592,-0.06891638456635651
0.904,-0.017306492660382082,-0.021163962294975344,-0.0038347830728067325,0.021123487728537855,-0.006753857577931035,-0.01424541592731265,0.015721974850829587,-0.010407745886678978,0.05896604351330479,-0.043047598493840926,-0.050292243775355794,-0.07572388088755765
0.906,-0.017810393614566256,-0.017691358828832677,0.0002523331343881844,0.020389592931573025,-0.010144338258527813,-0.01026864007379618,0.018766820946610172,-0.01305297741359089,0.056352129415673996,-0.04535371804499747,-0.05003498315087697,-0.0823258503348695
0.908,-0.012150669160471878,-0.010919407489172719,0.0012901265273380228,0.014078477192096473,-0.009225248807058885,-0.005839926485476552,0.01613775796965289,-0.012376654850112257,0.05596654689668687,-0.04953202365618367,-0.04940033307129071,-0.08456804694391205
0.91,-0.003245659708815957,-0.0011501061780487092,0.0020541602412357794,0.0036736367081541352,-0.005747578899122916,-0.0004407483798426491,0.01363727508358047,-0.007155005900049192,0.0578206267199434,-0.052340024965796844,-0.04589690942255038,-0.08276368861267135
0.912,0.0006527348835999244,0.005294600917050394,0.0045900839746259685,-0.0025698189470546723,-0.004711940012301797,0.003540253515613756,0.016445625019022747,0.00036297655295923167,0.06033792170569435,-0.05273232779359493,-0.04201162126168914,-0.08195895748998593
0.914,-0.003274139098007532,0.0027494271536175983,0.006021035306672848,0.0005919181887146458,-0.006604254247633623,0.0027519759097264633,0.023155684579042286,0.006949084119702036,0.06245365815646859,-0.05238207455712533,-0.04189934743932088,-0.08368076268260566
0.916,-0.010766914190363205,-0.006922950987976515,0.003870862517076976,0.009971105284971627,-0.008383791222645267,-0.0026765006970883506,0.026502538452591286,0.009653132983081972,0.063891678934549,-0.05328858851744843,-0.04582226171367844,-0.08287561388970825
0.918,-0.015391018904706854,-0.015785478869566473,-0.0003802325080946961,0.01754940870081432,-0.00772200753887002,-0.009012328986101376,0.022383164551598035,0.009003291891934545,0.06401031235327051,-0.05484816885426206,-0.05021391847052239,-0.07670038547682707
0.92,-0.013930234181504188,-0.017763280019869942,-0.003840910834244686,0.01820754747486241,-0.004805680449840587,-0.012519815926357463,0.01600065716239125,0.010481111457571949,0.06273677869067446,-0.054367467210889135,-0.052144907654260844,-0.06950148051325178
0.922,-0.011170038352362934,-0.014923487993731919,-0.00374302417054079,0.015226309385091263,-0.0037222695348039245,-0.012099643009434414,0.014741048314919618,0.016697096094847284,0.0612763592935154,-0.05079404943500311,-0.05237403114718367,-0.06659404148619666
0.924,-0.015170955540559099,-0.014112607023437642,0.0011884565538578863,0.01600410317662519,-0.008902063696992526,-0.009355302772698226,0.017959144791265792,0.021782793756103366,0.060241463515287794,-0.04571598274177949,-0.05307567539247329,-0.06934055905526797
0.926,-0.024317492368178335,-0.016734930589916062,0.007915686589065137,0.02094641491699778,-0.017318735873045794,-0.006456012237137229,0.01907000762848873,0.020075771874564306,0.05892633561584453,-0.041101072748248466,-0.05318774549322651,-0.07639426625925011
0.928,-0.02748458473094339,-0.01669727695472477,0.011213297145691085,0.0222736500916377,-0.020465709513048724,-0.004035793746825756,0.01586875812921405,0.014990955461247835,0.057317479527123114,-0.03898286777186903,-0.04990545340102635,-0.08444569065369535
0.93,-0.020221130267407277,-0.010379422681623885,0.010095750962682806,0.015875387053388236,-0.01601075200626865,-0.0014162203775733265,0.014150818492051126,0.014491398060314275,0.05733156217592558,-0.04058773676728793,-0.04439425520002805,-0.08823904182788862
0.932,-0.011809353391922036,-0.0031999325498627044,0.008603125045605675,0.008181135325405476,-0.01089122512037084,0.001382974010838936,0.0201305116943566,0.02174529737190733,0.06091606511580341,-0.04264402030195186,-0.040724137035479537,-0.08410967856282754
0.934,-0.013391450730361453,-0.003279626465979732,0.010118876435456212,0.008492230228438404,-0.012191261607987544,0.002672495456465992,0.03141751700635991,0.03172056067174233,0.06690904675241703,-0.0394537165317906,-0.040214980490155684,-0.07442607304794714
