time,I,II,III,aVR,aVL,aVF,V1,V2,V3,V4,V5,V6
0.0,-0.00021939620688464173,-0.0030057280343195915,-0.00278633182743495,0.0016015923102578845,0.001294437620619386,-0.0028960299308772707,0.008666150171943348,0.002150082827469489,0.0016015923102578845,0.0005265508965231401,-0.001294437620619386,0.0013821961033732427
0.002,-0.0015325538613534173,-0.020776591693657174,-0.019244037832303756,0.011077945084437624,0.008932369678542839,-0.020010314762980465,0.060645575626902294,0.014909329737821168,0.011077945084437624,0.003480672681052024,-0.00904206778198516,0.009567330843772672
0.004,-0.004477650150491553,-0.06431984525186024,-0.059842195101368685,0.03421325952985613,0.027900670077791026,-0.062135869228335625,0.1908520793398927,0.04644951688878706,0.03432295763329845,0.01015688823074636,-0.028250094215386917,0.029559770455172957
0.006,-0.006843663936012632,-0.11935942208928829,-0.11251575815327566,0.06298916240538185,0.05314540136407042,-0.11626587953489917,0.36095078897036453,0.08688431162135173,0.06364574123261625,0.017352641884304385,-0.052636921257908184,0.05410794591653631
0.008,-0.004705571163970769,-0.15243998486036317,-0.14771247407570395,0.07889951299853058,0.07167881486976696,-0.1508838073075556,0.46869942660041347,0.11123197042647734,0.08073406488445932,0.019682171049758286,-0.06682106287893888,0.06611321511686556
0.01,0.002660065485399119,-0.15140643435777423,-0.15391324445703802,0.07515814933570743,0.07819028596864518,-0.1536616643759724,0.4683000894830013,0.10834783450700537,0.07867241351350494,0.016875840067575042,-0.0652679025276919,0.059066924233858537
0.012,0.010744244774966076,-0.13688145951927236,-0.147166969468845,0.06375250558520504,0.07867628289074742,-0.1426198635769527,0.4211681317479976,0.09295792404123372,0.06939983623948007,0.01435211995851241,-0.058175940533247844,0.045066305218621795
0.014,0.01281207576117684,-0.1311678817153191,-0.1432299332001712,0.05925687665211289,0.07749150851457752,-0.13741542014280234,0.40665364090101924,0.08532132403243725,0.06697242382897008,0.016309470734938422,-0.05557645008648377,0.039061118590865966
0.016,0.005938185607570855,-0.13554641563639402,-0.14080645535621758,0.064580333665875,0.07218081736912807,-0.13876887295370094,0.43615310198163204,0.08996728756657951,0.07289033917243637,0.021408232532424486,-0.05659337762890444,0.043327210575387354
0.018,-0.0038108651142157056,-0.13856730699334077,-0.1345265746678937,0.07162081973022434,0.06338660623947256,-0.13791431107539132,0.46898475792623634,0.09695992376227379,0.07902146009801139,0.02522746873112113,-0.056271271567502154,0.049217223250039834
0.02,-0.005971616206003152,-0.1344814054106368,-0.12868125927145008,0.07185335928244176,0.05912573816784381,-0.13326896709472597,0.4752832967516141,0.09750485124781817,0.07925945944510705,0.025030405368730153,-0.054093854636122846,0.048926142890479106
0.022,0.0014510141041738133,-0.12879920191371283,-0.13045922833478216,0.06578928226378891,0.0638806518678233,-0.13104958928654117,0.46243503765448896,0.09260559475188355,0.07498771936403374,0.02150248386069834,-0.0527543610114633,0.043086879376133994
0.024,0.008547963100588066,-0.12878277043790598,-0.13734781932855009,0.061336366794240454,0.07092570499879355,-0.13416378177726426,0.45351971292693516,0.0879206538277713,0.07080441459035705,0.01737197016031036,-0.05306883119846536,0.03847295960650667
0.026,0.005412193021148119,-0.13460710152875643,-0.13993868592790984,0.06430571464702275,0.07073126177851971,-0.13836728435348714,0.45965448646185786,0.08710040680220334,0.0698807877959757,0.015745976526854156,-0.05279217195822039,0.0404299182697687
0.028,-0.006856257647757699,-0.14098043730017862,-0.13419691595698066,0.07289854888338007,0.06227050711426045,-0.13890624878905447,0.4749010370050106,0.09097645430981845,0.07341137566274905,0.017899392862199888,-0.049959660018513395,0.04776563069946408
0.03,-0.01816694502098693,-0.1421675105047877,-0.12435542921045696,0.07975549991029209,0.052648568660831806,-0.13476674037804778,0.48553649320554276,0.09771382066420746,0.07939337542584658,0.020837580175096244,-0.046477335304419075,0.05456194348688925
0.032,-0.019390570934758815,-0.13471126809979167,-0.11578822657770248,0.07785276057958977,0.04862804171967399,-0.1266989568614554,0.4790313213252986,0.10390758187522353,0.08311607743419087,0.020088444044922594,-0.04597671281364564,0.05751181966995275
0.034,-0.010601867548491718,-0.12133156949760004,-0.11099174013819446,0.06739130842954116,0.051000570150511675,-0.11718164826925098,0.45028153679563193,0.10827616379854295,0.0830363928041508,0.016577578858388696,-0.047595237204500304,0.059545756084625256
0.036,-0.0009398282539371059,-0.11169294398652996,-0.11070605533353833,0.057285116259366546,0.05557149164466772,-0.1115258597340694,0.40284288086882986,0.1113225729617064,0.08233781555159209,0.01591001152452076,-0.04634021860132108,0.06358103319686406
0.038,0.000997042019733726,-0.11230657153745835,-0.11314406234935721,0.055763478961273046,0.05751490190661523,-0.1125706863660476,0.34417663933251363,0.11177958248955805,0.08243046756256882,0.01996630286528936,-0.0406176570759894,0.06703045456322762
0.04,-0.004416060483713641,-0.11851915463005039,-0.11404497887235446,0.06136220088420851,0.05513662552273634,-0.11639091020747401,0.28176025986885755,0.1092194157328645,0.08172784968050276,0.025237972229178028,-0.03412251425922949,0.06723141662476353
0.042,-0.010977986886911957,-0.12238058641312073,-0.11145867067516924,0.06713329185978599,0.050383075999472095,-0.11802922556417937,0.22251950128448475,0.10810987674440344,0.08193288143332134,0.029216803692511836,-0.02942196938289388,0.0674109603473012
0.044,-0.013715204767687126,-0.12206096269583473,-0.10840414099666852,0.06877238067204047,0.0470561989029556,-0.11728716548647306,0.1714980860525003,0.11246850721970093,0.08710023199364679,0.0320405724031156,-0.025332752633105922,0.07117329178449402
0.046,-0.009806437805190025,-0.1198799765581347,-0.11007121325533462,0.06558153019317912,0.04940823292772546,-0.11713422502579394,0.13402289506229348,0.11892233671924489,0.09543218938856694,0.03261419106109497,-0.02201916575860087,0.0746426634377366
0.048,0.0009420144574113188,-0.11797286288636206,-0.1188820563262017,0.05922827895346599,0.05890023655294546,-0.12012021725638322,0.12411908025132,0.12111727248237994,0.10008439830489153,0.029342119471947373,-0.02322344006515635,0.07152121092363876
0.05,0.012931725248173811,-0.1168573379172363,-0.1297746574877722,0.053278314422593766,0.06978601516695675,-0.1247601055266414,0.15940414853044935,0.11833463774463499,0.09873939595096212,0.024292937630184593,-0.031135713051631625,0.06408946763165486
0.052,0.018102927877695463,-0.11498694221290406,-0.1331008815395758,0.05038789525127296,0.07304176725609403,-0.1255882670641344,0.23385518879280084,0.11501296831175095,0.09572803045592221,0.021908401511034764,-0.04234346151939339,0.061059903723247884
0.054,0.014551274674638709,-0.11241599095692484,-0.12698037994396805,0.05070431956129592,0.06745928506203447,-0.1214025528142252,0.30611794048073254,0.11451990130258859,0.0953291815438588,0.024057438661488583,-0.05030838219547512,0.06586911450396757
0.056,0.0074129955534409965,-0.11387405580560349,-0.12128730631888084,0.05408924438183171,0.06130704039140579,-0.1193568279577255,0.3300754898503546,0.11657097212727036,0.09791312406514102,0.028671700252453983,-0.050895412111925685,0.07445155883864008
0.058,0.0022110568723261977,-0.12147255469217752,-0.12367657747453717,0.05985847870025223,0.06107760033708575,-0.12421703804481071,0.2938661127598868,0.11889070595952539,0.10153149317719176,0.03270312638480688,-0.04542621800517826,0.08245242221680991
0.06,0.0005795832007389204,-0.12805804094919795,-0.12863412545821284,0.0644880570730798,0.06389825769284482,-0.12967026947588786,0.22484013412091436,0.12031365484908824,0.10483016446583324,0.03585304848692739,-0.03820488228530117,0.08858662995288039
0.062,0.000416718642205205,-0.12632968466334113,-0.12674857079576443,0.06489078540277972,0.06320667804442326,-0.12769095238625422,0.16104441680797763,0.12213136104285299,0.10850533353714106,0.040058080654241324,-0.031824489438938376,0.09307473367931052
0.064,-0.0010567066195496726,-0.11953203270727221,-0.1184782706732519,0.06263535630888105,0.058007074826556634,-0.12040383038116799,0.12227389030364345,0.12539330288051237,0.11342104998190145,0.04505484072945944,-0.026554425662976867,0.09658856893528298
0.066,-0.0032502560675709783,-0.11590428939096502,-0.11265425695463936,0.06100883566323939,0.053703733494290085,-0.11603658321495092,0.10987250993395027,0.12879767346755477,0.11843905495792581,0.048459193479194466,-0.02265736575911316,0.09934161980842215
0.068,-0.0020739483701688473,-0.1173063329006624,-0.11525282404155265,0.060079950038385864,0.05550155011626392,-0.11784289631009111,0.12526729732993636,0.13075235558666007,0.12188420505640579,0.05024195490551465,-0.02058031326600803,0.10032303876382144
0.07,0.0053687634178070836,-0.11821519462283647,-0.12373637485359747,0.05692280950168575,0.06318357605763468,-0.12189025709399344,0.17171161894729467,0.13087603842954582,0.12301682664820941,0.052156356634190645,-0.020130871523992535,0.09843978901839857
0.072,0.016685173176429702,-0.11389867819420521,-0.13106494391367143,0.05006520923435674,0.0720781896205718,-0.12332930094974037,0.23803100462061885,0.12897052402455195,0.12111447366049939,0.05388160908042493,-0.0211578740701909,0.09380702496968354
0.074,0.025349928507137732,-0.10688635579205472,-0.13311828167585207,0.04291034350432744,0.07754709632134497,-0.12179729177224435,0.2989997002706819,0.1251920643348536,0.1163328838489814,0.05419352483150184,-0.023626878968885802,0.08770056351066584
0.076,0.0263550098290719,-0.1036768125765218,-0.1310374731670758,0.04074571073959826,0.07762966181673414,-0.12020008970572403,0.3380500520515358,0.12088991727140007,0.11150094397010607,0.05414648248133986,-0.02630147861130519,0.08220838691776843
0.078,0.020468728211442976,-0.10602915148165641,-0.12715003438707156,0.044258906096918474,0.07281588060818638,-0.11958649298352438,0.3604500537493391,0.11751834920406887,0.11002588054993892,0.05602537168060166,-0.026736350099169897,0.07963831138997365
0.08,0.011914437428067958,-0.10980189317741047,-0.12182214223314933,0.04963392785249845,0.06514421947039892,-0.11807588121981903,0.38223874204801817,0.1160423048202383,0.11275185736666288,0.060834637480660966,-0.02284987527341018,0.08157629894424366
0.082,0.0031760017625983746,-0.11159690142948465,-0.11466961171407834,0.05437433953385998,0.05675106261804669,-0.11445075112641015,0.4118587527802455,0.11737560963936762,0.11804063807893732,0.06743989251067731,-0.014760066585930261,0.08767465639485081
0.084,-0.00430642075015746,-0.1107903712363886,-0.1066266934200203,0.05785116788238109,0.04931798371520496,-0.10944294433109375,0.4441102461390255,0.12024713332402577,0.12281415574164538,0.0725224369371588,-0.006194095133908553,0.09441654662273817
0.086,-0.006795747631203864,-0.10708198704220558,-0.10061688822245225,0.058080945282137544,0.045436045275075845,-0.10441205480480356,0.47026063411261043,0.12043715878358804,0.12396868814747873,0.07294402661156082,-0.0023790703765723424,0.09686109908919598
0.088,-0.003356335358025144,-0.10234205529339459,-0.09901848412612183,0.0547908600672683,0.046427551929814126,-0.10113963680224758,0.4902163277732977,0.1166043346100175,0.12163281123092011,0.06968044037810893,-0.004383076876964283,0.09393836639263306
0.09,-0.001840723172702605,-0.10070473635715145,-0.09844466161489233,0.05292616967299516,0.047207092290950534,-0.09983966339937668,0.5108072239584909,0.11380668753435907,0.12026182161596652,0.06755715595778661,-0.007289839655974007,0.09038524770413132
0.092,-0.010726522413848598,-0.10183605007004409,-0.09066544154119405,0.05659355855131867,0.039440273371954555,-0.09647831343389471,0.5347272938186091,0.11674587626639543,0.12423227887453502,0.07029012451279054,-0.0056149269209302,0.09142035020362742
0.094,-0.02700578746182532,-0.10072569546971111,-0.07362435500983706,0.06306918940211771,0.02287361313157823,-0.087659339985129,0.5569030792742589,0.12265197222279173,0.1325613807231686,0.07676206914426048,0.000835831824255196,0.097098496038932
0.096,-0.03840800622196923,-0.09553030594064989,-0.05718898664539566,0.06629408568026371,0.008447013180070476,-0.07700197433716122,0.571341407484464,0.12495639316446049,0.1398258511563599,0.0829865852272375,0.008082212940402114,0.10318800467415393
0.098,-0.03559700732929511,-0.0874508681046109,-0.05166863729151775,0.06181260740382302,0.006718870716760065,-0.06994919416673538,0.5780385077072306,0.12222056203307405,0.1429239521040574,0.08778002829981854,0.014166082370322358,0.10617563907740432
0.1,-0.01963625363469024,-0.07640715564783994,-0.05631178283271703,0.04895783656622525,0.017178932032237592,-0.06660059482869851,0.5828383666155305,0.11953343015336258,0.14473482607108235,0.09409904842028939,0.02130084950822378,0.10641260858080637
0.102,-1.8612469343327445e-05,-0.06516007319601765,-0.06479114567311792,0.033434837208331736,0.031491859032741876,-0.06589744684214373,0.5904618391806719,0.12069449286212733,0.1491572800168057,0.10318746579870405,0.030870094620308132,0.10667644997558033
0.104,0.012739258180696692,-0.06065290821639273,-0.07337017405378683,0.02458241228389047,0.04208135941527287,-0.06912980198729964,0.5984804572585523,0.12287963333097018,0.15497700982210777,0.11106110681010674,0.039685409090583844,0.1085633390555313
0.106,0.014322333450671606,-0.06428615131779426,-0.07866222871122745,0.025579590792557463,0.045280507558212085,-0.07403711590658071,0.6016559735936954,0.1220969165527577,0.1583773758005435,0.113811969831433,0.0441541446347159,0.11185849154593225
0.108,0.008746250515713105,-0.06816906679369744,-0.07668389826044632,0.030147307147788807,0.04156825432482906,-0.07399055786423371,0.5995729029790199,0.12002386749826299,0.15900667384446962,0.11301207630104759,0.04546810905917302,0.1168873277729245
0.11,0.003980218662077071,-0.06455033208115635,-0.06805606718988857,0.030630826521176078,0.035109389086874804,-0.06628645998834083,0.5943192226576369,0.12030598160007108,0.1591895446044399,0.11285457786587065,0.04733449606735958,0.12427215109309694
0.112,0.005445150227227385,-0.0533868029346383,-0.05849936502404685,0.025001324666760992,0.030715669889579352,-0.05522337765533752,0.5855592083345262,0.12228995066514502,0.16024139957065173,0.11508466100238054,0.051710104094355565,0.13232491716346242
0.114,0.012392949978621599,-0.04105497841884484,-0.053486664040899606,0.016478937139683892,0.03056698864405241,-0.047239347955114634,0.5737364705878504,0.12371954730457072,0.16256618998194092,0.11921290236419592,0.059469920613414884,0.13795662371699144
0.116,0.01926316602560096,-0.034037745545213195,-0.05359373893952315,0.009743838640653462,0.03311331882472005,-0.045167853393099124,0.5638095857740779,0.12473338573278847,0.16562668424388435,0.1248756467591399,0.07146606184720093,0.14027649118563354
0.118,0.020299443194099178,-0.03175539365189387,-0.05235892330115427,0.007145537230169553,0.033100240825606704,-0.04432429241066581,0.5631568008907922,0.125710131972776,0.16762706665829388,0.13235122516786504,0.08709996972248729,0.14183819578951484
0.12,0.012490435915615597,-0.02808092327353237,-0.040742104807633905,0.0085048389217238,0.024164559601472013,-0.03643841463442873,0.5775010201464923,0.12678807155629432,0.16926583095804948,0.14223932025076708,0.10408316281830672,0.1466501587076738
0.122,-0.002212908125496186,-0.02104847228488767,-0.018922451499972945,0.012630937026580873,0.006450744685218704,-0.0211152963939842,0.6057763520942051,0.12989657168073834,0.17449759265306727,0.15380604163805836,0.11917665364041345,0.15549710751477472
0.124,-0.014119736150970907,-0.014385415732510207,-0.00040201936966014314,0.015570057708634455,-0.008624300021440531,-0.008026224633518667,0.6370598910625878,0.1350426276780902,0.18312282019842815,0.16270547074925576,0.12822740593660933,0.1630085717245866
0.126,-0.01118722631181886,-0.010045004633041177,0.0009692758041866746,0.01134656741660363,-0.0074557977894741815,-0.005210453145005142,0.6580057259908509,0.13696647289842845,0.18837591174515922,0.1635703124361689,0.12762471234612285,0.16370332660398196
0.128,0.008588949637357858,-0.0066099458529845735,-0.01527648247149032,-0.0011744115276591327,0.011411254312927312,-0.01144609922809355,0.6658162973152595,0.13176152105611563,0.18624604206734668,0.15648912803437423,0.11729032622355184,0.16096088534710914
0.13,0.033903031499232836,-0.0031171366472591204,-0.036995073189799804,-0.01561739926811125,0.0354605955197933,-0.01998336766614484,0.6693275723853,0.12345236752072944,0.18101117043085663,0.14773037451499987,0.10180652155688147,0.16403062706481467
0.132,0.04892022961683885,0.001066199056204096,-0.04791608531523082,-0.024064537641955413,0.048086297976612666,-0.023175510152808235,0.6769157249976494,0.11922385795791635,0.17896921392839668,0.1440452094106884,0.08959947054755624,0.17584099946195406
0.134,0.0449071888970414,0.007401464367295143,-0.037822990135661136,-0.023842119949693333,0.0404759651643876,-0.015864542911813113,0.6882674708355448,0.12109209584388064,0.18206188354333178,0.14884482163828885,0.09025270640195618,0.18957949902595259
0.136,0.028765695998339075,0.016400325671241608,-0.012842511492535534,-0.01996165470114388,0.019859327265463807,-0.0003371670032116411,0.6972628725081655,0.12466022093140168,0.187872249470673,0.16091625759966985,0.10671978503985394,0.19761118889852983
0.138,0.01778594222928959,0.02705579718626387,0.008861649600292208,-0.020874348166168007,0.003559666732546952,0.015079171659222484,0.6995656266478569,0.12492975277556562,0.19278986866185327,0.1748685733771417,0.13005773566690157,0.1996276111620071
0.14,0.02106836449181256,0.03684673976811361,0.015484091267659351,-0.028880834008620317,0.0015291894820616192,0.023803949574411433,0.69797264231416,0.12227029562373887,0.1955118263148609,0.1855856934395221,0.14788575342228974,0.2012011378136389
0.142,0.03257730825436463,0.04145987089009705,0.00862095437154122,-0.037573173616216024,0.010311560208583393,0.023832373563566794,0.6989825534639986,0.12062034022734745,0.19670897542144858,0.19125423650090287,0.15598499211751626,0.20556832672116163
0.144,0.04206725944250402,0.039855679773190746,-0.0024007042105669415,-0.0409652597918248,0.02047109289301648,0.018250153932663292,0.7041573672982888,0.12120334182657563,0.19630726996132702,0.19204123030376158,0.15818508169736648,0.21002549008466284
0.146,0.043043448631540054,0.03845675150967516,-0.0046358536809316874,-0.039668315760495815,0.022175569389356903,0.01639712804299409,0.7098062777311578,0.12247702279397554,0.19465785783930895,0.19010973015927254,0.15966507277263098,0.2123717458150614
0.148,0.035101491087807676,0.044149604179104365,0.00900120044349822,-0.03778501025955361,0.011692128356044185,0.02571640754231859,0.7132516077060093,0.12370304216487626,0.19396827815719977,0.1898027147122576,0.16280437820538068,0.21560778556634538
0.15,0.027323441433632314,0.05591293770672506,0.028346383754044607,-0.0396013977965784,-0.001474033334122423,0.04111406973124185,0.7133434000112658,0.12361061126347801,0.194966568667536,0.1936988867632763,0.16658137528399733,0.222263364118371
0.152,0.03145297199514602,0.06649812552907648,0.03474068160361337,-0.047052252545325295,-0.002700862362520047,0.049835646184895784,0.7087353807611728,0.1192239413135032,0.1951650494229818,0.19959004129172336,0.1687611760978401,0.2289822149663968
0.154,0.04564303989724609,0.06945464768663025,0.0238432661955779,-0.055809368163422544,0.009284401706488704,0.04630032655959562,0.7012250720153189,0.11083269622858276,0.1930941605753308,0.20378968381097506,0.1694008942973675,0.23106011170731053
0.156,0.055005918521624036,0.06505612590002875,0.010508040396211577,-0.058605036748254895,0.020689936733747583,0.03746036514062207,0.6955055303620018,0.10384868100296456,0.19066789641293014,0.20557315360419176,0.17133904763415728,0.22856115447291875
0.158,0.05234427333420781,0.06088652175038494,0.009090790726078317,-0.05550906534288906,0.02123748225056638,0.0340656376191243,0.6917242989438159,0.10191051543264464,0.189352389814075,0.20639652425394162,0.1761330516147224,0.2250682476296514
0.16,0.04575881343297805,0.06390213368145056,0.018522627681424784,-0.053957000473435865,0.014388862734700674,0.03988804429964426,0.6844008071963192,0.10338856732725249,0.1886207996482375,0.20746982485182633,0.18219786694733076,0.22495897387705932
0.162,0.043707199277025995,0.07308405856801335,0.02960573721882122,-0.057695618898117584,0.007666858351684755,0.050504442144849546,0.6695894357905302,0.1062338612820583,0.18913427971202504,0.20933047525712983,0.18837582985863688,0.232397580012241
0.164,0.047615685522171214,0.0841391884177234,0.03665072693523791,-0.065080658887106,0.004904874830112733,0.06019169770419007,0.6465400992227319,0.10983469363295947,0.19206538179268798,0.21127303094861016,0.19535667493033282,0.2469247324604586
0.166,0.05812306313202174,0.09622579538883616,0.038095923349542614,-0.07595194383846146,0.008696228288369984,0.06675206665113803,0.6140812004491111,0.11221916589166318,0.19551829104359675,0.21160862465868252,0.20232899045270475,0.26067503008019555
0.168,0.07302615569227976,0.10775244419242921,0.03453842609316094,-0.08897408382198532,0.018425967243097988,0.07005062438222989,0.5715554210609373,0.11098785698406206,0.1958921809988702,0.20977878853807258,0.2061200294943132,0.2650950692732979
0.17,0.08320073529240288,0.11347604902182917,0.029905426027885925,-0.09725834859578239,0.026797801748832832,0.07028606866896164,0.5218248474590854,0.1064597960064273,0.19188083669825476,0.20710777730151506,0.20525378955296103,0.2598567701623915
0.172,0.08220494406621082,0.111961222888969,0.029363116818602427,-0.09624855273607942,0.02693852108659025,0.0692122009015408,0.4706784339414636,0.10122725836451006,0.18559446217885228,0.20575382912413678,0.20247633227554315,0.25241712841035496
0.174,0.07373324699194743,0.10812902003514004,0.0342982035091468,-0.08986320780868594,0.019905247580988796,0.06956634368571182,0.42449887150184423,0.09758696070302406,0.18092839190781693,0.20750519638629888,0.2018999634864406,0.24987258909113316
0.176,0.06556705619869625,0.10592906631138897,0.04072410780445526,-0.08458756496494173,0.012071919431253592,0.0715271395371154,0.386902325885611,0.09575490567341363,0.18013240966625207,0.21224768952527143,0.20500477805724346,0.25301804404963574
0.178,0.06365505746532496,0.10506337735474897,0.041988559165321356,-0.08367544117857094,0.009975473766003592,0.0717450207544185,0.35561137989354924,0.093900375262698,0.1812772544162213,0.21716218466994425,0.2101045909917429,0.25731842166429564
0.18,0.07007659926389494,0.10455659020152286,0.03492032548690749,-0.0870790020071595,0.01623439868113292,0.06787373957313365,0.32610083618508456,0.09111655168203668,0.18082465533572264,0.2185122586493491,0.21470531222738806,0.2590672374492521
0.182,0.07990274730721249,0.10500775473191626,0.025361467003351228,-0.09206531790383848,0.025491013666407488,0.06323681074005252,0.2981550716931707,0.08915933086649792,0.17795613545261424,0.21459463324309283,0.2173692902358832,0.259771970988246
0.184,0.08404098460443739,0.10756792915070947,0.023753045446337853,-0.09503271880767185,0.028059335726579256,0.06395364300299754,0.27392479196345704,0.08872981365922304,0.1743154900703264,0.20708127411977348,0.21779066545000636,0.26232815799131537
0.186,0.07908855212946288,0.11226927349459677,0.03339509203002648,-0.09500610488935568,0.020715833982754416,0.07140753154774655,0.253472917365301,0.08745774278890897,0.17134581318254447,0.199902024126835,0.216857119029556,0.265731894965591
0.188,0.07025600504800147,0.11759114746429575,0.047492548228872875,-0.09384734558251469,0.009557686050504326,0.08110510592496385,0.23937346815288346,0.08407074722967958,0.1691649221651073,0.19568453178092066,0.21621186765237,0.26692010919802084
0.19,0.06465118824842572,0.12193225453757243,0.05740090183138298,-0.09344978004627133,0.0022381909045555105,0.08840650019330129,0.24339598876076254,0.07971080959640277,0.1659850325960753,0.1927993037385708,0.21585521155726614,0.26419128240062123
0.192,0.06645472362067824,0.12431900124694213,0.05791158258948582,-0.09469234529897068,0.002874009898796249,0.09068182598952543,0.2786258079785081,0.07374988280331378,0.15860610750095125,0.1875833329016078,0.21279280041462673,0.2571059711273636
0.194,0.07537229188633576,0.1227988176346458,0.047395965951725384,-0.09698951377448571,0.011901778476067836,0.08553631200878001,0.33550521466263544,0.06414905358477611,0.14576105272858422,0.17885276777644404,0.20397042832288317,0.24716535378687995
0.196,0.08480522262880966,0.11605634972815235,0.03133780155746607,-0.09779841462053146,0.02397057435723367,0.07404396593605429,0.37441520302534065,0.053028757967926624,0.13071442130449612,0.16826258323863846,0.19072379562953212,0.2388663033087508
0.198,0.08672349313230461,0.10746556772084333,0.02106142248942511,-0.09533379205395807,0.03030787341382082,0.06343220478950934,0.3625350833921479,0.04561575420721895,0.11819690450041431,0.15745769012483965,0.17798203537845678,0.2354259204388905
0.2,0.0810733298703447,0.10147230142022894,0.020701267906252655,-0.0907563058960864,0.028791988232567556,0.05904743576697214,0.31649562451495117,0.04310530575380191,0.10999736260966671,0.14708068361353652,0.16867342646438865,0.23396277376274754
0.202,0.07433688675794733,0.09746515826178753,0.023064793720618027,-0.08588711094933371,0.025210085216740567,0.0580594432805342,0.2919837546245666,0.04258000535785075,0.10582225668025166,0.13794568897677162,0.1624727767380742,0.22965346189309818
0.204,0.07036193129343275,0.09325630909055468,0.022431447103332447,-0.08167873198801906,0.023400173968355833,0.056259805288853784,0.3276703404004262,0.042551789049007,0.10482756094131117,0.13079894563279995,0.15893870648709005,0.22269360871438104
0.206,0.0684338954043903,0.08981991051344666,0.02085456990195533,-0.07892365064355827,0.022305371390283685,0.05414665942739754,0.4066343964620311,0.04364201122982747,0.10454138143385602,0.12492101674523588,0.15699375130322193,0.21679433480754787
0.208,0.06645568655459715,0.08825957367451329,0.02154489526398484,-0.07726170017805917,0.02041914043613571,0.05360582782907936,0.47975500826094236,0.046052711714054326,0.10254257898734197,0.1188746595981376,0.15350425256610026,0.2132565982129955
0.21,0.06333961992966348,0.08761381743765016,0.02423652117448686,-0.07541578793481761,0.017663123500229527,0.05438625958433902,0.5185194958384993,0.04826312481676066,0.09853560198340168,0.11208357796927501,0.14635236732779067,0.2093402238490692
0.212,0.060961198990207945,0.0867145478825569,0.02561640673939722,-0.07370833973854939,0.015973832410351368,0.05439623720250927,0.5289285815439743,0.047743989251820385,0.09234035103634751,0.10432577857230768,0.1365709524636233,0.20179980296189168
0.214,0.06125497874609481,0.08377573636417424,0.022266618089684047,-0.07243112462105408,0.01776997103973095,0.051128670408533666,0.5259380425511306,0.044134571742414516,0.08324347061039322,0.09453344030970419,0.12592486568958997,0.19179995704399816
0.216,0.06169214715981368,0.07692404076900868,0.015232790736283374,-0.06942383552706613,0.021677667382015185,0.04439774845819331,0.5164019989059293,0.03959772203530263,0.07207319453071778,0.08142663677409893,0.11545501620425204,0.18470315402827317
0.218,0.058060751837180465,0.06870473277346961,0.011038177683356468,-0.06352349235876306,0.022424023029824068,0.0386647643106543,0.5001426112323787,0.035261493063810094,0.06128552739576301,0.06641363854455634,0.10732729611701416,0.18341722514729855
0.22,0.04845407328419677,0.06437095624411954,0.016308789954388354,-0.05603571036128586,0.015355958037003898,0.03941303060287079,0.47577994425132525,0.03135273667579792,0.05350743756699993,0.05438882656840031,0.10412678259642243,0.18445621434991563
0.222,0.03431914193200012,0.06325145117902663,0.02887387366593405,-0.04757265757171958,0.0019571093497223174,0.04481256810503941,0.4470201170965928,0.02926974078740053,0.04957416502400056,0.04772294140721159,0.10405173465176637,0.18194550398200737
0.224,0.022682250181095025,0.058765985003597324,0.03557444046478378,-0.039168902458308695,-0.0076908729927999825,0.045070413818155054,0.42183850343948054,0.02937340816381035,0.046975678427782726,0.04176386271935562,0.10093953452944888,0.1735931534217623
0.226,0.021393206052936112,0.04759996493018659,0.02565005505523229,-0.033370887539988583,-0.00382507378519266,0.03378634729685929,0.4036312095446864,0.02902070001259066,0.042167416475148815,0.03136094537123772,0.09137397832814204,0.16204200710289035
0.228,0.027679735798579335,0.03324375736739209,0.005340062292008219,-0.0298277651592527,0.009604384013990183,0.016456898462892857,0.38695015669106003,0.024862160340396327,0.03413762596395645,0.017607886434395904,0.07742628247320162,0.1509149477883646
0.23,0.030977525193874707,0.022171796771623592,-0.008692054168294975,-0.025972593612210604,0.018816681088290533,0.004722740087360936,0.3651155395425109,0.016070201942397423,0.024110786335490113,0.003846548545328875,0.06202735931191501,0.14080459795313024
0.232,0.029816190891020198,0.01955017693076222,-0.010095034502672077,-0.023872198119575198,0.019205252814845523,0.003954361720670714,0.3403680710869134,0.005910590421312615,0.01396555794471779,-0.008987900610326463,0.04666544956464383,0.13032746782531104
0.234,0.03525118664180253,0.025916627163242428,-0.0093071699437503,-0.029586603071324553,0.021300280526817723,0.008550250621852386,0.32150728904569564,-0.0003951345487997965,0.0059809031143093095,-0.019762707709572443,0.03308170612189843,0.11930349373212132
0.236,0.05331184795779016,0.03568678709936118,-0.01768009734185391,-0.04347342206247658,0.03420100024441115,0.009337551872091837,0.3116804422971685,-0.001386147938591467,0.0010306821503164687,-0.026393011389908193,0.022603519607692406,0.10884632119408695
0.238,0.07195917165305749,0.03960862170495565,-0.032270853960949336,-0.05489836747854568,0.05062166752957463,0.003159008852664964,0.30483792993000797,-0.0015201770135790165,-0.0035738622497961956,-0.03062411678786933,0.013338580913677857,0.09964707636454825
0.24,0.07281661463883801,0.03153856780863745,-0.04093367114847302,-0.0511904146268675,0.05508606394802956,-0.006025508279195069,0.2957534235239441,-0.0052742916130008345,-0.0110425070865574,-0.037567957028375364,0.0017046079847178488,0.09196355074386652
0.242,0.053064602485106215,0.014797220124665954,-0.03780865858936095,-0.032319282304411084,0.04342273703192768,-0.013003382644423826,0.2876475994086864,-0.010833102251148518,-0.019993049860784023,-0.04837977846869624,-0.011564968527108746,0.08646958654782898
0.244,0.028920523996958485,-3.0173391325679852e-05,-0.02868715956632097,-0.012175101438944297,0.02725114453683458,-0.015990151180742262,0.28654651207137427,-0.01266703944844954,-0.026148499494387887,-0.05897207406964673,-0.020463236177339892,0.08352182671203703
0.246,0.01824265428435839,-0.0054003037430883655,-0.023684503190089214,-0.004099123027891128,0.020525999161110368,-0.01683341953633003,0.29203130428520335,-0.009410328898353113,-0.02855935171260787,-0.06676158125842487,-0.021514844350739432,0.08181961231797537
0.248,0.024156365137313302,-0.0037314653503384755,-0.028045565645880077,-0.0084823934000985,0.026476181871379876,-0.018606407597682555,0.29729624417280187,-0.006147302071739779,-0.03080131074190312,-0.07382724247894595,-0.019907578941797437,0.07889848418161491
0.25,0.03470708922251484,-0.0026808120454064315,-0.03744815802197438,-0.015049011187313333,0.03620305126863607,-0.021988447243569218,0.2976036583516165,-0.008430566286372315,-0.036166797745186226,-0.08231523554602499,-0.023671864263755733,0.073662582372892
0.252,0.03581505929616481,-0.005641025086499591,-0.041380087265718145,-0.014511691004600117,0.03772230514446909,-0.023864066587497252,0.29604841025529965,-0.01563975838966863,-0.04345765052305646,-0.08967879800744301,-0.0324618678165975,0.0680164869568392
0.254,0.02542193766658319,-0.01004202673561914,-0.03527405875318085,-0.0068801804272337844,0.0286619635160666,-0.022056187807454174,0.29771290530368655,-0.021923315756991843,-0.0482778258838505,-0.09130972366719532,-0.037916361872305904,0.06416629338804707
0.256,0.014877960634770943,-0.012761792811120264,-0.027313462242108965,0.0003512019284721504,0.019301335865095838,-0.019764804357477406,0.2994755472452842,-0.023728274553905217,-0.0483264857174918,-0.08723041743070527,-0.03602451043531069,0.06064333333204959
0.258,0.014502300285916342,-0.013911263680234275,-0.028023320585383784,0.0014812111280503954,0.019790575564692832,-0.021852217035014162,0.2926750531413735,-0.023747124716360646,-0.04636477231950753,-0.0828357983560397,-0.03268567055715934,0.054133504240574705
0.26,0.0208413509816905,-0.01704562022187344,-0.03764627045944661,-0.000316471513453938,0.028044528669008036,-0.02933039627212513,0.2763891556851497,-0.025634515894550066,-0.0468130978893665,-0.08271455478525,-0.034824211962402776,0.04540444054661627
0.262,0.02279212882014881,-0.025313780384412784,-0.04812102922140332,0.00249309930931644,0.03440310347387747,-0.03902698850073281,0.2596767398489328,-0.028104397482801413,-0.05026612257042313,-0.0870432883204913,-0.04188454153712948,0.039645238440838566
0.264,0.017322763056552844,-0.0350094167132601,-0.05246484385194434,0.01013142944322011,0.03408688832544196,-0.04552075220294043,0.24902490075891354,-0.028116679136108515,-0.053729514575465306,-0.09458844723234405,-0.049579838514697015,0.03953660127136608
0.266,0.012757060605712287,-0.03738332755119633,-0.050203090263846575,0.01385376405508664,0.031050961753769448,-0.04477849706225887,0.24149984379604814,-0.026492868325213303,-0.055268170587912745,-0.1046752687535093,-0.05631125665326111,0.04169141051815292
0.268,0.016152544655854785,-0.030287140040828036,-0.046400475263101836,0.008419104100638819,0.03111885823692768,-0.03879686961536749,0.23210036761385147,-0.025823040273457335,-0.05533177917943254,-0.11493602995310305,-0.061610098014805784,0.04204383137019837
0.27,0.02366049161853254,-0.02165144994367905,-0.045259108815997255,-0.00024590872581237166,0.03428383135745946,-0.03382471688047392,0.22081508970071767,-0.02660552919297532,-0.054965035755687064,-0.1220436540347808,-0.06391423102998034,0.040573147202618724
0.272,0.027078282644565854,-0.018230434718549193,-0.04528255261069377,-0.0039675177179686084,0.03561187112367717,-0.032534926780990445,0.21024601355700492,-0.02852491221939563,-0.05533857860850397,-0.12510156671995845,-0.06370473642242366,0.038573289596485656
0.274,0.024738536209734076,-0.017981719737884268,-0.04261560342253291,-0.0026108500704403043,0.03233350332260228,-0.03164714501395354,0.201347237685623,-0.03111173081562608,-0.05716301442921064,-0.12477904648399928,-0.06417583904281965,0.03606553605751317
0.276,0.021708212868002154,-0.016112032608746357,-0.03750786566138103,-0.0014485061013015884,0.02756492409330548,-0.028240952539492728,0.1925607386057719,-0.032500923092716204,-0.05954051001563485,-0.12155690597643076,-0.06677875435556035,0.0333135574350729
0.278,0.02292917385916965,-0.012753933178642873,-0.0352750930582534,-0.0034766316736528683,0.027208272906051885,-0.02496845467559199,0.18077085130663798,-0.0316465609437152,-0.061389177647437974,-0.11722847590712211,-0.06979203672886802,0.03068376618819849
0.28,0.027770757977463003,-0.012659518077581082,-0.04029434076010659,-0.006424864194561725,0.03297428368710082,-0.027109132180842887,0.16525010494993456,-0.030137056196162096,-0.06289293836570616,-0.1145102844415747,-0.07155448804390721,0.027705778624431767
0.282,0.029843818195465714,-0.0187235583752748,-0.048918885700442886,-0.005343225279531629,0.038527309578383004,-0.03490320799260023,0.1502480011634229,-0.029313712515836254,-0.06382081603858593,-0.11443382841023461,-0.07207540368680358,0.024989740419557
0.284,0.024838292058954773,-0.026462565080687523,-0.051874892367960265,0.000548316409945253,0.03643533334397855,-0.04124797668358608,0.138806607321659,-0.028968611174538434,-0.06310489483750074,-0.1166751216834493,-0.07230096111430652,0.024255911721284523
0.286,0.01860080856230771,-0.02784011559358242,-0.04676323514121934,0.004618921339745747,0.029534446101383827,-0.04007458149323223,0.12750711241664536,-0.029615989729177023,-0.06119606046833517,-0.12065632253155753,-0.0737075769836105,0.02498148480758416
0.288,0.021445404183446447,-0.020773193044061358,-0.042145417449989384,0.00021446729292102167,0.02868591458677309,-0.03404994805650035,0.11289069785644548,-0.03196579331274779,-0.06002713088260696,-0.1245948561028079,-0.07699743457861633,0.024017641992639793
0.29,0.033609937924527745,-0.010943866168431512,-0.04434899193507104,-0.010244945187326816,0.03704909423051853,-0.02935163611210724,0.09737249598028012,-0.03446944129913202,-0.060174005878014455,-0.1258811163828494,-0.08056374392809919,0.019384358789632232
0.292,0.04307990725473885,-0.004919281684119727,-0.047933322657780636,-0.01741589606238696,0.04440297232557053,-0.027083189008835034,0.0842995558342456,-0.03459810788945305,-0.05991010739989713,-0.12339443480380136,-0.08238542462799349,0.012798075493984063
0.294,0.040106552916262604,-0.00512282366218477,-0.04528435627065705,-0.015396274495462287,0.04119967455876619,-0.025103763558299286,0.0732350775487186,-0.03202173926158043,-0.05763602148180702,-0.11893111074413042,-0.08347002997951893,0.007945895832829768
0.296,0.027112072921278596,-0.009949063343680314,-0.03700238965214562,-0.006637518844722282,0.029851356215794957,-0.02312875118997684,0.06312849615059447,-0.028974274704959602,-0.05436947826176972,-0.11596193193951872,-0.0865351262981711,0.00726793695092729
0.298,0.01100793910857406,-0.015144315761586074,-0.02581792778146952,0.003173228916043722,0.01636324622861396,-0.020494416189075243,0.05475067440839131,-0.027620200305038006,-0.052488088380972076,-0.1154459758010369,-0.09081799572102332,0.01082053587394554
0.3,-0.005700224845262862,-0.017188224716894664,-0.01104458952556519,0.01160587182134545,0.0012816697467594885,-0.015110001380978542,0.04754963789609028,-0.027614079205613453,-0.05230962204539935,-0.11409194617759771,-0.09187098918217411,0.016199887405098038
0.302,-0.01951026246984923,-0.017255228427614434,0.002417843634899975,0.018375715919893384,-0.012308980220346218,-0.009475878030399123,0.03747587340386925,-0.026852413214765707,-0.051527662897681376,-0.10950969302953985,-0.08795696262440202,0.01857296484440967
0.304,-0.020011847073411068,-0.017352289126211975,0.002422424695948636,0.01947617178950659,-0.013111977582545249,-0.009663882167923514,0.020060450763364816,-0.024029611138847974,-0.04779914552381219,-0.10452888601060896,-0.08330413873554385,0.014103973074024062
0.306,-0.0008988396353791377,-0.013809754172272296,-0.013190248442752253,0.009081415082647815,0.004003638640278051,-0.014754826652782606,-0.004501804726212994,-0.018922569953219802,-0.041041120055132406,-0.10292618074661837,-0.08304501105597527,0.005554994506414912
0.308,0.02619305515245242,-0.0031489577812449966,-0.029368938568796115,-0.009680387403435301,0.025931813004132855,-0.016663697655971955,-0.030594440269721745,-0.011832989209373026,-0.03398007852899787,-0.1040233839667307,-0.08738528252458325,0.0010745874782275453
0.31,0.04067095639518177,0.00813065146834744,-0.03253116618977286,-0.023410221643842755,0.03516984274043353,-0.012798968202460242,-0.05286137425036411,-0.005633682688915904,-0.030822257622971045,-0.10545443791926297,-0.09295494112413452,0.004152493161287908
0.312,0.036078954410963614,0.00989040833450423,-0.026430504558392288,-0.023168358557450423,0.030234371770835447,-0.009563051006049926,-0.0704417084423389,-0.00511264253791523,-0.034027300348075586,-0.10787280062518267,-0.09788006335761928,0.008001151518255385
0.314,0.024014741550945046,0.0019503165537354675,-0.0223815130513172,-0.013753276840277625,0.022496497937482984,-0.011738053138524421,-0.08380618570801887,-0.010298124425163048,-0.041093874466412605,-0.11247956354876548,-0.10269192864855621,0.004344844033605445
0.316,0.016522668506660728,-0.0070069914822643315,-0.023515327575913927,-0.004998349082916244,0.01913804815362489,-0.01659109348557817,-0.09184447750723847,-0.0145794585880478,-0.045850363501245696,-0.11661225153743394,-0.10717741847754304,-0.004925223919568723
0.318,0.01596791804146794,-0.010309482810380688,-0.02582988798780974,-0.001719027860867182,0.019470928762429233,-0.019442976113392334,-0.09506851218309861,-0.012839687745128751,-0.04483597205195644,-0.11599834459401444,-0.10898959545968179,-0.010281810609115144
0.32,0.019278398086174042,-0.007428231753557225,-0.026155754604824128,-0.003557764456793835,0.021281159288722373,-0.01868339084064595,-0.09716805279235913,-0.0073021414524649005,-0.040445746095722344,-0.11037291204985007,-0.10635524669126362,-0.007350660249614567
0.322,0.02182634553422475,-0.0018471119951478793,-0.023418717411626058,-0.007211734400701816,0.02205021490412703,-0.015108951340323248,-0.10024067537357297,-0.0032955694677731097,-0.036221497482734934,-0.1042360489851054,-0.10105437411232555,-0.0015001835833490258
0.324,0.020498643370155174,0.001683237142925558,-0.01888925983904113,-0.008841024252759315,0.020011871202967255,-0.011048678854099894,-0.10194555845140983,-0.002553853006747481,-0.03242203849243064,-0.10181618339282554,-0.09678760229038381,0.0004393991137896777
0.326,0.017702139361311483,0.0003381398921986907,-0.01741190124221872,-0.007864327124811546,0.017966816102030395,-0.01006087919954346,-0.10014530376558334,-0.002620294510001917,-0.028519810587596037,-0.10269139020116555,-0.09547999040168116,-0.002271940021916317
0.328,0.01895602092404566,-0.004710696854989962,-0.023380374432513038,-0.007034168032614421,0.02102024666864573,-0.014300277782741407,-0.09803031129428316,-0.0015785098712670159,-0.02667099963596769,-0.1036092601754047,-0.09746763441640843,-0.006384229443919485
0.33,0.026324485136457635,-0.009354682883286593,-0.03518162830376914,-0.008727732533733825,0.029994531887929977,-0.021769851469500792,-0.10089245977773503,-0.0008031520545131249,-0.028918067256190567,-0.10334524525709879,-0.10314290418223873,-0.010296466590334948
0.332,0.035101547856305405,-0.010301776950482696,-0.045067731964241554,-0.011894258473567412,0.03895064926685719,-0.027356327129418524,-0.10779592819919102,-0.0015555002038310367,-0.032677339066473916,-0.10297059427091618,-0.11131594514004367,-0.014744441696244791
0.334,0.03658650950837444,-0.00836409272769113,-0.044835761789381624,-0.012293642437918209,0.039410603745414906,-0.02706918116585415,-0.11132267157253484,-0.0014269698248456626,-0.032882547381115276,-0.10210134656729238,-0.11810807183801308,-0.01952268407696039
0.336,0.027636611283544044,-0.007219445943137684,-0.03458076742711663,-0.0074868980631197825,0.02972714609623809,-0.022060037481075056,-0.10827644539928104,0.0021384119548833835,-0.028698347763198517,-0.09919962684478868,-0.12075083671829656,-0.02339742738180253
0.338,0.01732525935541895,-0.008543338000201245,-0.025192816944558605,-0.0016323764734585962,0.01982153726483789,-0.018143565217263572,-0.10526259686323362,0.0068066426977025744,-0.02544781273769792,-0.09589720442955052,-0.12093499420916888,-0.027073190477359278
0.34,0.018721409296068935,-0.00875676801288626,-0.026738642675451788,-0.002757608954147849,0.021297768011840478,-0.018843990607916097,-0.10895849026815008,0.008185947427955864,-0.028090720863667998,-0.09561070885555623,-0.12152903310448733,-0.031827652579580645
0.342,0.03453491196100567,-0.0017573194503173505,-0.03599264598061469,-0.014832279513568882,0.03377543800697121,-0.019993885563797366,-0.11623792527691365,0.005914812009181552,-0.034128181961909844,-0.09720863528939193,-0.1221833826719357,-0.035374744535910274
0.344,0.05499912875804594,0.013199043558927566,-0.04199330799219872,-0.03312549277914689,0.04671362551136898,-0.015755508402602716,-0.11968341518640838,0.0035230814989356428,-0.03596888088664794,-0.09590501695636676,-0.12100651816459393,-0.033944580788598896
0.346,0.06718386204730745,0.02637486928003023,-0.04118712679686191,-0.04614899988891965,0.05203231020777448,-0.008980924260440582,-0.11793731907216207,0.0045073578783739665,-0.02961827118622239,-0.09019463976207481,-0.11791271850954917,-0.02857845425123445
0.348,0.06246627599361738,0.023556063948492263,-0.03927287442024634,-0.04245941215565582,0.04856006481331133,-0.009629680843606502,-0.11533881779092262,0.010228800402866256,-0.01797589290361616,-0.08285151146666618,-0.11422469333850395,-0.024908969703589773
0.35,0.04079530097899858,0.0008566232228724025,-0.04024679498538822,-0.020251145818496498,0.03834392233141507,-0.02158106711886365,-0.11602977277226054,0.018859008759934737,-0.0065058960214762086,-0.0766532351378985,-0.11132777575864766,-0.026393709865357967
0.352,0.013373976119402527,-0.028750685370474163,-0.042306017554655066,0.008396806951155366,0.026031906027104902,-0.03706416772208322,-0.12210493294168673,0.02614105803359873,0.001094187700502387,-0.07269184062573768,-0.11078843965794798,-0.03164014788782641
0.354,-0.004592298507588957,-0.04827324264320157,-0.0436817772299372,0.027558815117664313,0.018245014383257468,-0.04679301999032753,-0.13276817277039243,0.029179846018662046,0.0034658320723319246,-0.07085263459720395,-0.11351972319349853,-0.038036702929242286
0.356,-0.006570742393404619,-0.05093370759046572,-0.04427015987067556,0.03040373953509865,0.018052041363730276,-0.04807362926065783,-0.14348939190547297,0.0282306205972184,0.0009519752664830438,-0.07015846556802428,-0.11774721243745206,-0.04429784986495389
0.358,0.0047966047959478245,-0.038224963028092945,-0.04296921454796659,0.018579812156429516,0.023320660555302294,-0.041340507361104145,-0.15018821728231735,0.02438967935479992,-0.005004037011823381,-0.07023169879528185,-0.1204219030033119,-0.05013921959842944
0.36,0.02453703973039086,-0.015135261413083587,-0.0396727870406358,-0.0030221740838452396,0.031135422929997048,-0.028610652854794368,-0.15352987951325064,0.0188100221118272,-0.01217302187296536,-0.0718465126791162,-0.12155875351029533,-0.054993258154559646
0.362,0.04555741737126683,0.008663315924698448,-0.03680196046259061,-0.025896608897101405,0.03924958751141821,-0.015740133381945097,-0.156724772519339,0.013907165329548787,-0.017437978232147266,-0.07490342020987785,-0.1239208551764627,-0.05662240044690681
0.364,0.06034008021145355,0.023300815885195756,-0.03674064466084782,-0.04125966115333091,0.0460353903818035,-0.008740514357875704,-0.1618427303600514,0.011739701059948641,-0.018626425814550384,-0.07796340109340329,-0.1277099424694573,-0.053707343962194135
0.366,0.06617320128987018,0.024987272811738976,-0.040876686523937444,-0.04539886931299472,0.05161705517959477,-0.009805348132818126,-0.16806144093713263,0.012419836401255852,-0.016586768751640946,-0.07992582164135068,-0.12911321562854036,-0.04997465900789765
0.368,0.0616050449820455,0.01313200777510833,-0.04853259900004924,-0.036587922281708145,0.05426012099860441,-0.018864497891059703,-0.17189829141868676,0.01563868696974234,-0.013517299294813708,-0.08054004464303564,-0.12619618382938838,-0.05104637635929399
0.37,0.04350206281720059,-0.011204508106559274,-0.0551587448707634,-0.013930803699304333,0.04865107862146179,-0.033673779777685535,-0.17194077737379543,0.02086425903970265,-0.010459266072725534,-0.08031416291519722,-0.12305984740584293,-0.057885401088385295
0.372,0.015054338849068052,-0.03959421733003196,-0.055058468693190615,0.015570476399404676,0.033465578916205455,-0.0477281096740145,-0.1712128000997547,0.026508211628299326,-0.006941709673756756,-0.07939741110913301,-0.1239451282227362,-0.06621036048186352
0.374,-0.011656505937653286,-0.05777257657223452,-0.04615558321152492,0.037915406583427326,0.01524970238183579,-0.052958153747042436,-0.17130287357782512,0.03130527000516209,-0.0022171056305680305,-0.07602525961316717,-0.12663140771674694,-0.07063340823868658
0.376,-0.023361913838146956,-0.056541366102100934,-0.03298378807712443,0.042440613291965086,0.003526460298529484,-0.046430742505175975,-0.17064158499216375,0.034376370652383116,0.001960110876651758,-0.06962249162025208,-0.1271056742513907,-0.069255717280241
0.378,-0.010585397216090853,-0.03702673757716053,-0.026318846073438967,0.02599976163870501,0.007111863531317301,-0.03328476347088924,-0.1718534794475555,0.03362078343622273,0.0012122592742247588,-0.06452031565759299,-0.12649235960332356,-0.06526925686870248
0.38,0.026862175794321708,-0.008132328357450291,-0.035039146436878735,-0.007098047579241883,0.02950501860187413,-0.022596528234473105,-0.1819035088928699,0.027659985474641862,-0.006182626241109118,-0.06573153595875428,-0.12841456933939524,-0.06299494020342723
0.382,0.07316094010416915,0.017222711926539094,-0.056026134871077965,-0.043409425104778666,0.062076581923067815,-0.020276872829937523,-0.2012342001395956,0.019180510250047012,-0.015890614927739403,-0.07241727108493003,-0.1333234937592288,-0.06339886108008302
0.384,0.1049227500526233,0.02896566527052775,-0.07597509596777961,-0.06639372838794654,0.08789995046882394,-0.02487336083050575,-0.21970290312327806,0.013506102715088812,-0.02136807232579775,-0.07883152360267491,-0.13789388349549886,-0.06423567721140352
0.386,0.10986042660787815,0.025620282479359466,-0.08420094403878466,-0.06820792692634413,0.0955377621984243,-0.03091626297377351,-0.226414226864742,0.014207685211621494,-0.01981851317717537,-0.08059105547062921,-0.1382134335402238,-0.06257031908906448
0.388,0.09204680731506994,0.010451926155029705,-0.08156633714486272,-0.05178480515113743,0.08618586513412527,-0.03688210640212836,-0.22030933810481476,0.02122558472816103,-0.013371543493527331,-0.07824982018632771,-0.13366916615987492,-0.05751659578395711
0.39,0.06352020901699097,-0.01303598410367948,-0.07654199286558888,-0.025208453792810802,0.0692306198678009,-0.04580956293003769,-0.20965486364408756,0.031625294717560565,-0.005589755530399646,-0.07521015544185793,-0.12737969462425835,-0.05199827548876906
0.392,0.036629798449956834,-0.03798059023943474,-0.07449833902011603,0.0013482941380983178,0.05396103186189877,-0.05719762850969944,-0.20259062287610108,0.04121956302363812,0.0013953131682883917,-0.07344020502694928,-0.12242649055195044,-0.05075060412720614
0.394,0.01943245396337431,-0.053685906537726834,-0.07281785979090413,0.018321316443064003,0.044015947434044966,-0.06404229698559753,-0.20058614673796682,0.04693228825475317,0.006576504725302043,-0.07198303122528424,-0.11973725787277209,-0.055660324905049595
0.396,0.014116428669000588,-0.0522946792529266,-0.06611168354983135,0.020456999281804694,0.0381770288151527,-0.05972011008230632,-0.2021064622112441,0.047670249751151306,0.008393266574994547,-0.06962142127924757,-0.11933175378760294,-0.06352467610488596
0.398,0.0199624026818353,-0.03394106457577277,-0.05396874331021341,0.007928598270031804,0.03559735959867984,-0.04456950737861444,-0.20747511815460007,0.043379567205263016,0.0049596931690754735,-0.06724425241577799,-0.12050477855171342,-0.06865102448761459
0.4,0.03460208813112571,-0.007278233948204118,-0.04235182615962727,-0.013341367438636188,0.037700312862484125,-0.02589545404483058,-0.21534379890568164,0.03607089908664461,-0.002390134450204891,-0.06614316011260298,-0.12083807368336327,-0.06812659297120659
0.402,0.05265193416752394,0.014728139155163432,-0.03846066521998866,-0.033391973478731164,0.04524048104874904,-0.013277682331483638,-0.22044231574037695,0.030392736926441358,-0.007948556587007242,-0.06616406365710899,-0.11802635023473977,-0.064854837672777
0.404,0.06879652061779909,0.02402870445305399,-0.04513409012527451,-0.04554862229620878,0.05685401166546597,-0.011957709667341502,-0.22047556379939107,0.0289236421348788,-0.008067063217105897,-0.06724282502635932,-0.11342473604848255,-0.06451015855789521
0.406,0.08010266024422893,0.0208065524568001,-0.05952511206613425,-0.04929925843792982,0.06957872649826706,-0.020437135930436175,-0.21896892014351577,0.02913153586183829,-0.006195549816963503,-0.07018190385770781,-0.11129355556265472,-0.06908619060099916
0.408,0.08115200539693819,0.006421162116034765,-0.07488717340809234,-0.04294972091858549,0.07740637681258583,-0.03469896352578703,-0.21797136109174264,0.028788901531667115,-0.006702245739407742,-0.0743249660403235,-0.11289385706817415,-0.07431848383524695
0.41,0.06515012624664078,-0.01720925416008496,-0.08248724145116439,-0.023352394305653345,0.07264798436499585,-0.04995199132327595,-0.21557703049893923,0.029985298397053876,-0.007766866507030599,-0.0770440515001218,-0.1140972925230151,-0.07425497064646457
0.412,0.03674558722546671,-0.040713043120045776,-0.07759587910240319,0.0030528748323900624,0.05549021723588362,-0.059835973616753226,-0.21232262105666455,0.03409084618784116,-0.005783913203691533,-0.07692376147334125,-0.11173561141234406,-0.06845301034271027
0.414,0.014786183187268724,-0.05251434716827096,-0.06735031533321023,0.02072696510528696,0.039364135277469285,-0.06168679569369024,-0.21265620718979605,0.03758882565070185,-0.002540235132771144,-0.07577248202462308,-0.10893029134135845,-0.06342941908084347
0.416,0.014441579556440584,-0.04958813127572217,-0.06387000860188663,0.01979890049806326,0.03796955088030218,-0.05870501656318353,-0.21949158748564576,0.03556538820442274,-0.0035617983889952754,-0.07691409728470891,-0.11059398294281941,-0.06533031428485647
0.418,0.03200785493937164,-0.035026907638970525,-0.06678173664905393,0.0031855207252028403,0.04870127624572495,-0.05201402019909837,-0.23137155021440942,0.027007168890595207,-0.011236381136932483,-0.08149081342766874,-0.11646007124635625,-0.07189447011598647
0.42,0.05160457299215572,-0.012819524539937217,-0.06431378880551329,-0.018807058312377736,0.05724422367091974,-0.039008212118817845,-0.24346612027570275,0.01693405521903093,-0.021302262164052864,-0.08591387543130241,-0.1207994087283739,-0.07457821938333976
0.422,0.06202567756530389,0.00989391648347273,-0.05220378985125817,-0.036086971453423974,0.056051899255101026,-0.022006860925725295,-0.25087868910195266,0.013012124831869792,-0.02656373783670286,-0.08473722284898758,-0.11809644671774165,-0.06887635607769932
0.424,0.06353909242560252,0.02417400420606501,-0.03946403970337744,-0.043845691966633425,0.05034809747564698,-0.009435108554351826,-0.25359476498946537,0.017582662476297726,-0.023992493652356093,-0.07727877448298098,-0.10900086429097545,-0.05885397955671414
0.426,0.061154605644213315,0.02454538707555052,-0.036620282820190225,-0.04220073139323552,0.0482004742065987,-0.008192949400569945,-0.25664997042086474,0.025026521808415067,-0.01661809453690479,-0.06899768855834228,-0.0997650769864995,-0.05113029738208722
0.428,0.05555945220580625,0.009686940196870332,-0.04582429122726688,-0.031518941083960576,0.0506786523759218,-0.01952068399062891,-0.2640437256564835,0.029721896291946007,-0.008687675862937767,-0.06545161878827148,-0.09488069275795592,-0.048856384881595175
0.43,0.04343714110265181,-0.015806910690515236,-0.059214744822385514,-0.012621387327607595,0.051372123329961425,-0.03777337256022725,-0.27474865667871934,0.03256624682606694,-0.002004881391762473,-0.06710172052178637,-0.09315500830313934,-0.0519386253443811
0.432,0.02587721206105361,-0.039382563981416145,-0.0652719451365922,0.008198697607774566,0.04460620747314286,-0.051925001643411024,-0.2845429577666067,0.036520641744683544,0.00276150833845606,-0.07023614216158336,-0.09228533333939509,-0.05854683353076384
0.434,0.011479987572215682,-0.04922017883431431,-0.06072195167733868,0.02085819615356135,0.03378887684029029,-0.054748336586068765,-0.2900239258159941,0.040549986798061176,0.004758854938301211,-0.07129381622298761,-0.09326502145595429,-0.0649951429271508
0.436,0.009735920581748998,-0.043160823307150244,-0.05290052069113674,0.01864009630208179,0.028590543015058634,-0.04845246420786061,-0.29175775920613123,0.040803488056804706,0.003320082296601034,-0.07022196299832362,-0.09825011646997042,-0.06747672981144912
0.438,0.023690638974085826,-0.02428887371383181,-0.0479694348444449,0.001084725940779599,0.033753070109204586,-0.03736130385310283,-0.2936580334942463,0.03486151921837262,-0.002035971148730558,-0.06956224771006468,-0.10606763138001984,-0.06591485533213791
0.44,0.047020059894157924,0.0028442430395662624,-0.0441689428843144,-0.025304793221498437,0.04432225536970861,-0.022743653650132138,-0.2976240946588228,0.02508237430773061,-0.00976369643695691,-0.0698373714507689,-0.11136794823337547,-0.06386037704135569
0.442,0.06701899583979774,0.027884672772950928,-0.03915847841694659,-0.04775881628696214,0.052227335683988005,-0.008327368018050986,-0.30029107706851976,0.018207370205654744,-0.01464142546715226,-0.068367725693056,-0.10953416681990367,-0.06367346831207456
0.444,0.0739259442942374,0.037994254189286585,-0.03606781518977625,-0.055184706238371836,0.05425848261389495,-0.0018427094939127467,-0.29724639666640235,0.018546516929438133,-0.012821561697628197,-0.06444363271621657,-0.10262944798772226,-0.06457368406653637
0.446,0.06694298524059943,0.02895175610091762,-0.03831973618513265,-0.04605186199385096,0.05179310576785256,-0.007091163194348024,-0.2876364907438715,0.02357997617955646,-0.007039222795680701,-0.06153964891872271,-0.09744268221024656,-0.06507246412017804
0.448,0.05039932572971952,0.007304491427523552,-0.04351533467229897,-0.026217040997397845,0.045593557728476494,-0.01966369053396157,-0.2727483507021696,0.029403460818281293,-0.002005876335515984,-0.06176229618762338,-0.09663986328549014,-0.06436509624153938
0.45,0.030615198038875475,-0.015770180045903602,-0.046639319642075606,-0.004390114870476299,0.036316322891811095,-0.03168704863750221,-0.2542934010967553,0.03530301822060789,0.0014426309520029277,-0.06273608262731199,-0.09621410033471234,-0.06254053037560749
0.452,0.01795857707756427,-0.028978602352641304,-0.04691189081056891,0.008483378921502827,0.029380936749376526,-0.037606211049184005,-0.23563572750319345,0.04036786336968148,0.0038901781465155725,-0.06198661843158879,-0.09288407139780597,-0.0609955886722612
0.454,0.020884157396300566,-0.02632764288323539,-0.047067060166105214,0.004940475935503071,0.03112912879945847,-0.036171907834758356,-0.21955817012711487,0.04194357489975179,0.004265859129017309,-0.060115980807138834,-0.08856070231268533,-0.06082186983043468
0.456,0.034618987740424934,-0.011868476969294063,-0.04640260400073548,-0.010460651413610862,0.038657329814137074,-0.029097904555706874,-0.2029636113540975,0.03948454666026073,0.0017740643725273181,-0.05857548183957038,-0.0858962171876542,-0.061008008576501675
0.458,0.046375291403894986,0.00579080159018049,-0.04047692852226296,-0.02610629793201963,0.04221572065153869,-0.018144273080356738,-0.17939331148083903,0.03568703088829505,-0.0021832204636053195,-0.056926292999797845,-0.08403888913382114,-0.060168725356580154
0.46,0.05200978736115051,0.02196127449104314,-0.029645827411138612,-0.03664718285305664,0.03918396428322909,-0.005155711304452283,-0.15001547210657082,0.03335519330895355,-0.004731172993762772,-0.05334285689208744,-0.08064649451202788,-0.05880576812878675
0.462,0.05731398500393468,0.035054543153052536,-0.021511640319436847,-0.044667834537568056,0.036903252409245885,0.005625127883934372,-0.12657305984879053,0.0332488147843995,-0.0039260587323969275,-0.04773144898188002,-0.07589353885704221,-0.05826621460125191
0.464,0.06484041360645576,0.04282857486198369,-0.021304317826242734,-0.051834017415487724,0.04036008010246275,0.010000557083010184,-0.11895897204152814,0.03467755616617142,-0.000911848518532374,-0.043120852940592126,-0.07272754288641958,-0.05871498271942601
0.466,0.06811565537399461,0.04251410391858508,-0.025356442463431515,-0.054029705061930736,0.04472453625492351,0.008044145206807287,-0.12429388636796514,0.03688913530313874,0.0013596799650689552,-0.04260468062337054,-0.07299275408115227,-0.059251416173155894
0.468,0.05922805251772607,0.03131417323699288,-0.028094080875329334,-0.04495519017688794,0.0426533326300924,0.0014092571836063,-0.13178621061455906,0.03938799726770456,0.0016510085598425198,-0.0460045566352376,-0.07485713241262716,-0.05936430178390841
0.47,0.03878094352638045,0.008931863987030792,-0.030070573437132354,-0.02369490589571014,0.03394608188727968,-0.010263549181487835,-0.13418406702771896,0.04155038577451718,0.0007722968780050577,-0.05105072255871542,-0.07570281891113062,-0.059609929540988094
0.472,0.01680775505086436,-0.017423609708724707,-0.03424964748898831,0.0014379123342142083,0.024623031215354457,-0.025310056974102355,-0.13123569837019425,0.0431486413602378,-0.0008128958498806257,-0.056581808476078986,-0.0757795355715164,-0.060880592651585075
0.474,0.0035896974784314726,-0.03545340530362886,-0.03893431568660266,0.01849130064485543,0.019269246401628158,-0.036988571316218986,-0.12557858864247004,0.04499877060168092,-0.0028317771300362996,-0.061859115132579065,-0.07667401079888163,-0.06341821490460635
0.476,0.00155690385170794,-0.03759117871112823,-0.03910780981944365,0.021180662511600827,0.017553274493622015,-0.03884369556440129,-0.11962876317458072,0.04760303919807683,-0.003842984976016481,-0.06356749067428552,-0.0779322159374191,-0.0667441228207669
0.478,0.007667438645813057,-0.025111277460144573,-0.03293914594208083,0.01103021600971676,0.017563199251475654,-0.030378598737521276,-0.1149922870985815,0.04975988966092293,-0.0025071698341121917,-0.05821547002439423,-0.07716052175403261,-0.06955063113697717
0.48,0.01902616393346094,-0.005257772884903748,-0.02465905998919306,-0.005980829421080336,0.01951805420102469,-0.01694924159299908,-0.11142533378578155,0.04991042105431942,0.0006061926781173505,-0.04845902580048859,-0.07299837703793179,-0.06956792932294062
0.482,0.03271191558287401,0.012225007175043668,-0.020894488313909197,-0.02209697019129641,0.02479399581701635,-0.006173466313147292,-0.10732221554579985,0.04767982577135234,0.0028470582529819483,-0.04254804111774785,-0.06784240920053465,-0.06589449818272751
0.484,0.044703458378488894,0.02058970832650192,-0.024215270038612263,-0.031713717063603514,0.03272068840786474,-0.0027657097370542647,-0.10240003288833929,0.043815756855172784,0.0013124874126711737,-0.04547486351763119,-0.06638746471662603,-0.06168492543472677
0.486,0.05016846225744238,0.019271884062197264,-0.030528874083034008,-0.03319004280141994,0.038760680832511725,-0.006004424717946597,-0.09688644227030799,0.04038291262192144,-0.003752203753894,-0.0535926257300215,-0.07000266486581279,-0.06183394098176315
0.488,0.043361718695860155,0.009250093406292776,-0.03354863381017652,-0.025034255693865373,0.03661986871150518,-0.013149115742089192,-0.08833660845861276,0.0399092204355504,-0.008358876805190357,-0.05967547331348457,-0.07508912709747995,-0.06789387798460521
0.49,0.022834664659616595,-0.008689455459621517,-0.031237860295803367,-0.006596490775351674,0.02476399418066495,-0.022249850617378608,-0.0745812316687999,0.04241988614087934,-0.00888232736161159,-0.060538553250116214,-0.07829960559233778,-0.07697760230316109
0.492,-0.0028619880156261933,-0.02840107399754659,-0.02574429484603263,0.015792713733604358,0.008999917714446531,-0.029848696258124578,-0.059168250926180915,0.04509132038647191,-0.00557585774311646,-0.05744171932031743,-0.07943601777967514,-0.08467923714089999
0.494,-0.022043978687473317,-0.03955694945562307,-0.018037841808369568,0.03141971074884991,-0.004382274300084464,-0.030835273012050277,-0.04903669968261594,0.0458724053456184,-0.0015064668355644663,-0.05195898670669298,-0.0785373593643814,-0.08778325412787158
0.496,-0.0306015223965874,-0.03740420972980119,-0.007287254003143272,0.03507534088381198,-0.014060002109015493,-0.02363333892749554,-0.04897940883322208,0.04513415543894684,0.0006329952408791866,-0.04548182632605591,-0.07517660892974071,-0.0861790775025034
0.498,-0.03005055523715498,-0.026094453773497714,0.0037753286316606826,0.029054469939537683,-0.019419025505021496,-0.012644565261823365,-0.05977430106983985,0.04406468125883658,0.0001715633884055714,-0.04091150089350657,-0.07123432566224853,-0.08317085612851259
0.5,-0.02080386033532611,-0.01267651437541024,0.008222429960735318,0.017482378591135862,-0.01696133115726219,-0.004191381656968781,-0.07589917984974477,0.04420172726920798,-0.001606623076021182,-0.04029352114162242,-0.06941750304810952,-0.08155624605328092
0.502,-0.004894983525058783,-0.0014892685727607362,0.0035442689168235708,0.003862965266771876,-0.0062649129841133525,-0.000707452678184696,-0.08648358048552351,0.04668177406518257,-0.002607579536937519,-0.04198812924878095,-0.06907410300043396,-0.08026162356455858
0.504,0.009305535488771284,0.006724184885926488,-0.002559315743983306,-0.007535259296378995,0.004706774225826309,0.0012180441795035294,-0.08568923717465401,0.04965691362450817,-0.002232433909618663,-0.04315218454675316,-0.06769992708233942,-0.07752516483955141
0.506,0.011877890448166957,0.010945083319407061,-0.0009946525050629263,-0.01134770005726781,0.006185991674406116,0.004919517537311555,-0.07875066004539724,0.04978823148547859,-0.0019384266961210215,-0.0429549015632149,-0.06539149800443658,-0.07479486889181287
0.508,0.00011353408902953829,0.0064434011919598235,0.006288395853314342,-0.003440088142581714,-0.0028622425654423037,0.006563462855566878,-0.07324104537341058,0.04707360153753337,-0.0020986245835599247,-0.04196974691749465,-0.06426067482575763,-0.07496344563055253
0.51,-0.019046693617889195,-0.009017145897339464,0.010043095231232263,0.014258730115785203,-0.014835699224806896,0.00042313992162030275,-0.0705250794936976,0.04459775058057407,-0.0005514391660574997,-0.04015113609245625,-0.06457414161742914,-0.07894118964718727
0.512,-0.035540737349887684,-0.027360168442413756,0.0082095211184187,0.03263295084805523,-0.023395614447883975,-0.010141274062909919,-0.06854729726154483,0.04444011621669836,0.0037127213614196637,-0.0359508249471388,-0.06381519847871935,-0.08478328908575256
0.514,-0.04493517808177463,-0.03657449087615614,0.008367121785743734,0.04277582877741674,-0.029191177767718596,-0.015093428218315849,-0.06656079884826148,0.04643388526268472,0.008291795712323188,-0.02819151366814233,-0.05971420737652524,-0.08875892219038742
0.516,-0.04792471454598552,-0.03146040278032561,0.0164516045053978,0.04166979717474836,-0.03488616916736586,-0.008819471332088134,-0.06502721674461101,0.04932467022534195,0.010915379913740194,-0.01910478322774917,-0.05334236608150248,-0.08748694139407011
0.518,-0.043573719519646496,-0.013630418674889328,0.029911786899586235,0.029779867197989657,-0.03901592528940969,0.006702800048401851,-0.0650361182948996,0.051402431650576993,0.011831203311943797,-0.013950448396737146,-0.04872046612222789,-0.08055877245424298
0.52,-0.031147015395979718,0.009768074060912369,0.04078613502062632,0.011234569149889927,-0.03786449765143074,0.023986805079178174,-0.06837349526227474,0.050736267009588776,0.010503890257524148,-0.01760473443004297,-0.0499939784436711,-0.07206294184736688
0.522,-0.0165253890396935,0.02558086880126202,0.04178519068535412,-0.003937843011968095,-0.030850322301765678,0.03268350242079891,-0.07553749480081223,0.04653655651286106,0.004907690373696779,-0.030440447421108,-0.05834268768885735,-0.06781602635162164
0.524,-0.007924595501829921,0.02568843307057899,0.03317022880893464,-0.008035985508173943,-0.022007385531830848,0.02856749558462364,-0.0836663330605577,0.04157651672902337,-0.0031491522670881915,-0.04559075979460159,-0.06949254650900363,-0.06919513043172835
0.526,-0.007760013415051235,0.017269517655372456,0.02464004180617276,-0.0039220570750507595,-0.017420303397850792,0.019749180221001136,-0.08783524858692228,0.041310643908721974,-0.007429658066987128,-0.05330182017596646,-0.07523507381439654,-0.07216326732719933
0.528,-0.014289709482326749,0.011174399583858447,0.025160153601261972,0.0025137567994176608,-0.020841631448044257,0.016353052695985453,-0.08543640246606914,0.04742542165100891,-0.004598782431792441,-0.050618542903016595,-0.07118019218905562,-0.07373826464729528
0.53,-0.025189410581887905,0.0076365514109544355,0.03254953463991509,0.010447475747903433,-0.030001177475660393,0.01815710573335479,-0.07952983833997601,0.05433665921963391,0.0016086190173999794,-0.0439456636455486,-0.06248543256491855,-0.07517373533430535
0.532,-0.0355635489913312,0.003028722796125461,0.03840133490941355,0.018698086616861467,-0.038226853822438706,0.019249633478970345,-0.07617562447414325,0.05570265378784998,0.005134160134421765,-0.04087495161292504,-0.05782142731407598,-0.07698723114046405
0.534,-0.039808956171029704,-0.00012020327710181507,0.03966875139556035,0.02240079142695808,-0.041315992676378394,0.018651785796440102,-0.07732405309990333,0.05177668625605234,0.004261103717551209,-0.042295339112747424,-0.05921893297566736,-0.07613450331578592
0.536,-0.038008915399841886,0.0014675534649274016,0.039565306953582416,0.02005942596379112,-0.04088216114665649,0.01931227992948171,-0.0779107813951417,0.04757824065292746,0.002222275264257808,-0.043285640854711774,-0.06172369867112794,-0.07141811342017147
0.538,-0.03573880066745407,0.004642953354593484,0.040442302283892506,0.016634465800135435,-0.04041259676868713,0.021277093023648178,-0.07165804477837502,0.04709306221658168,0.0027548374210956024,-0.039660884177324676,-0.060413875771168524,-0.06706320637173835
0.54,-0.03783931444866716,0.004494003324856388,0.04229490699365427,0.017261580193374395,-0.04196136876233397,0.022325497688905273,-0.0588744397721372,0.05053890475088405,0.006251261014450076,-0.03275863835789071,-0.05503366562892548,-0.06728916839996964
0.542,-0.04370196380319838,0.0028027136520823006,0.04635450297906199,0.020869193895621245,-0.04626878625141623,0.023512266366603973,-0.04683429357002637,0.05400427232142647,0.009294674387431489,-0.028142001604673804,-0.04966162282951069,-0.07103313140306129
0.544,-0.047132934475472885,0.006574391640058047,0.05352229559118471,0.021036706958593172,-0.051429380883347815,0.02842036225934761,-0.04328465422200897,0.052104136216077346,0.007665534267052703,-0.02991730569651307,-0.04831261940830456,-0.0746506173195491
0.546,-0.04299569579434822,0.016942275413014848,0.059991030973322125,0.014445705478919652,-0.05307485781404781,0.03624391219224111,-0.04995168424077947,0.04424597545354452,0.0009645342643525282,-0.03687168324367856,-0.05052950671549541,-0.07673272016659305
0.548,-0.035060867609500064,0.025077812108696647,0.06064717798970006,0.006967624987360933,-0.04984091149955301,0.040743688503927,-0.06038434439287266,0.037000267009715565,-0.005671786061858714,-0.043680365620204324,-0.05264509356282437,-0.07849858447329083
0.55,-0.03251754133878878,0.02374122569975722,0.05696005926620443,0.006588197459862272,-0.046343085260473975,0.03887389875929691,-0.06533255604221455,0.03687180330090496,-0.006393923871840703,-0.04517676861790726,-0.05247640287903316,-0.081388833975626
0.552,-0.03845780422924958,0.01763004980968067,0.05643272957265674,0.012508171435572254,-0.04813111703989581,0.036127170731105274,-0.06222495411088208,0.04233203702266824,-0.001151414911686641,-0.040373837721248904,-0.050757093720363015,-0.08526511479213127
0.554,-0.047511538086942876,0.016040335302854224,0.0632875161080946,0.01765311986746855,-0.05554505555799665,0.03901789909467578,-0.056694231042342946,0.046548150182955265,0.005073950149144678,-0.03279261407890743,-0.049124844331065134,-0.08840686042541318
0.556,-0.05412036228389583,0.02010859932277143,0.07351855245663726,0.018884241959324987,-0.06397498000310282,0.04614906125669374,-0.05446189070593804,0.04627166162696151,0.008350652756467404,-0.0265866879485199,-0.048257325692437236,-0.08911019900832355
0.558,-0.05801143820334169,0.023895460794156876,0.08108658074373555,0.01873619870134398,-0.0696147015709719,0.051751723410895,-0.05544477405559214,0.04459382561301849,0.008754387126262754,-0.023079290730757946,-0.04716373839483648,-0.08695257156539633
0.56,-0.062496620752642035,0.023473629453095373,0.08539213224710285,0.020691390218773153,-0.07362533697547032,0.053703184492939766,-0.05533771922243709,0.04598553475963086,0.008982160666621015,-0.021182508678843248,-0.04429566430958853,-0.08276318504062279
0.562,-0.06967690026318239,0.019865102305832605,0.08939839725843263,0.025913706164252412,-0.07903543466260411,0.05366972958935455,-0.049845801364193656,0.050999835680138265,0.0110918759090378,-0.01993545817092683,-0.04027731395392755,-0.07872806644335656
0.564,-0.07698431164455538,0.01681373429649599,0.09395666705153416,0.03154227674625042,-0.08529607279039077,0.053886741311409275,-0.03764486391569977,0.05588008649497118,0.01390764956178691,-0.01969356711847576,-0.038218050660025454,-0.07784588316977722
0.566,-0.08010252288200599,0.01752913680955683,0.09778763137124616,0.033117319700257844,-0.08951743044878892,0.05609978640826245,-0.02061552242403798,0.05707513413238686,0.014817284052905104,-0.020893075096008618,-0.04009325412564107,-0.08118089008153725
0.568,-0.07868519726014156,0.021787788661104927,0.10047173898551164,0.030108946679423182,-0.09115270235829667,0.06042532348143009,-0.001223204398181421,0.055373415827021454,0.013985156398437452,-0.022899612291701465,-0.04434581564494693,-0.08640244352244715
0.57,-0.0755597136750601,0.027247174533156962,0.10272450304031916,0.02547182141634578,-0.09150289884675131,0.0652745095106751,0.0194245561245472,0.053986355086163174,0.014122610107422504,-0.024719653223691036,-0.04808375664509205,-0.09055407451165567
0.572,-0.07224939007487972,0.032674154926752734,0.10488459339325908,0.020912254393525818,-0.09081258475697507,0.06930339180088332,0.040188490364411106,0.054450008660562405,0.016534743242576172,-0.025276537554476754,-0.04995971744101834,-0.09254636559724885
0.574,-0.06902551444607419,0.036847153321178515,0.10592042458393038,0.017226166371986956,-0.08892743368376006,0.07151418142096136,0.05792657729915892,0.05686061591994294,0.020251586518131772,-0.023024565272360836,-0.04990840760320727,-0.09251992277535355
0.576,-0.06696085010103828,0.03687897970618738,0.1040265218791345,0.01650732268220012,-0.08664629255097821,0.07028707763166878,0.06786654660590072,0.06064501140169708,0.023914648162178358,-0.018124205271766006,-0.04825562916128651,-0.09205359488616796
0.578,-0.0672282629017208,0.03166378492923855,0.09935268160512829,0.019644472839244847,-0.08495997914336754,0.06538044213545151,0.0676262861861612,0.06330580609985671,0.026347374255549658,-0.014098197069424943,-0.04604695462730058,-0.09409310167215636
0.58,-0.07056420820658575,0.02416395975366144,0.09543893811095568,0.024879474171705555,-0.08506969826244998,0.05956897597190251,0.06257487140284217,0.06288691629132326,0.02744354458074583,-0.013794555691906648,-0.0439776112494478,-0.09878524542417237
0.582,-0.07794089200074389,0.017513411608589546,0.09596989421450097,0.031231742445771923,-0.08877322838176491,0.055950129804495534,0.06278612635970304,0.06171858547313358,0.02913638483859948,-0.015560023505267213,-0.041174162952787065,-0.10181606212839013
0.584,-0.08807113664577247,0.013089513751325242,0.10093678859251716,0.038338218646057035,-0.09586746027821903,0.05556353469720664,0.0711060674745101,0.06338692391778845,0.03283449910260756,-0.016230093189077963,-0.03712414415042631,-0.09995355839304197
0.586,-0.09440848630408366,0.012911599937037114,0.10640605689399096,0.042158316390731365,-0.1015393237668781,0.05776103130646924,0.07958886512506166,0.06728933213295109,0.03666958498166887,-0.015446067540574591,-0.03353592926745741,-0.09510222469590258
0.588,-0.08975937126380919,0.017773048381380805,0.10666803466561321,0.037837804105629085,-0.09931527339246966,0.059956091596770865,0.08046331926315177,0.06935430238844548,0.03740657226179629,-0.015437454487327272,-0.03262771435813155,-0.09138215703521267
0.59,-0.07555641135693776,0.023985701802030496,0.09944473995129809,0.027549086563766673,-0.0885336134797464,0.059179090128584494,0.07466228395530906,0.0663837776750702,0.03391767337877908,-0.018555360420905227,-0.035157469767079244,-0.09143749081779479
0.592,-0.06299723889669576,0.026949617234802554,0.09067739874289937,0.019633914389699154,-0.07768108254969379,0.056337238334773464,0.06814601807526072,0.05880584566441453,0.027868151593295684,-0.025117817665341345,-0.04063842161551388,-0.09578529428632922
0.594,-0.06195761612104779,0.025755809463192697,0.08873199164096772,0.019621288858516047,-0.0760995852288224,0.05511260796179128,0.06620510506183377,0.05154321407148897,0.022572383206077882,-0.03171052363703319,-0.04686865181870731,-0.10227769502428781
0.596,-0.07067813713317746,0.022563708721538615,0.0939112929703292,0.02529130803685123,-0.08312044782212206,0.05648311911236041,0.07113805862034003,0.05054334508173786,0.021113015833231757,-0.033012388607493316,-0.04980474697181261,-0.10690525231818816
0.598,-0.07991914287891187,0.019993321898184528,0.09997319444417589,0.030704516211689067,-0.09086261482018339,0.05849998632167884,0.07986532545606258,0.0560311137368304,0.02352746187893315,-0.02786963763251329,-0.04746932185689485,-0.10795877095414023
0.6,-0.08487689037717495,0.01864186153718139,0.10312817464812685,0.0335573788978407,-0.0950897016126749,0.0594253929503247,0.08650962602004704,0.06249930454787625,0.026924038969084022,-0.02097392250298473,-0.042709079473866055,-0.10717416082573916
0.602,-0.08805500712303903,0.016574183873724047,0.10398781592657548,0.03660026850862615,-0.0973113878377493,0.0585459939936633,0.09044505597057778,0.06605796038428222,0.029609418401966545,-0.01683773274803457,-0.03948020552675332,-0.10605144227870392
0.604,-0.09223853654752202,0.013117017591170852,0.10449404199025354,0.04146247618740378,-0.09966114739902926,0.056864827434491456,0.09668719167301441,0.06727980020459308,0.032067317163899,-0.015994153961836493,-0.03867897221347991,-0.10512654491974452
0.606,-0.09620470932016921,0.010771696896618159,0.10594383791031882,0.04528042499315163,-0.10230990196841869,0.0566303574566367,0.1072395708915257,0.06713717550266461,0.03358157326236853,-0.017420281566285403,-0.039048675833620435,-0.10570833574162662
0.608,-0.09771892674959415,0.010623422513529174,0.10736784955441613,0.04577525605495564,-0.103896969100778,0.05763855452007116,0.11704569001405143,0.06474733925654694,0.03194104214844626,-0.020644391803905694,-0.03999709029457798,-0.10827369186354416
0.61,-0.0965576546114035,0.010543261910377463,0.10639765923855049,0.04466562899809564,-0.10304125370706142,0.057331663001324834,0.11988466568083077,0.0601577384029011,0.026906539268097565,-0.024901916424754426,-0.04210308005873395,-0.11109043450838516
0.612,-0.09392297999996232,0.009844170882804986,0.10325210291321164,0.043839859854447105,-0.10040854868654348,0.055782799871098895,0.11655970541021779,0.05647366698140032,0.021560006962720226,-0.02789366333817621,-0.04498586271488137,-0.11234070849232088
0.614,-0.09242973057005258,0.009397891438523496,0.10127284309759,0.043818649050389825,-0.09888331235422909,0.05530321825881701,0.1149598970448123,0.05707771478174299,0.019981512686264916,-0.02678565729751188,-0.046420822582601245,-0.11163590442650458
0.616,-0.09523357258432111,0.007842896339571772,0.102527306791854,0.046026076498712626,-0.10056409610741109,0.055557257634998296,0.12047693919997633,0.062406157449703736,0.02408117179197968,-0.02164768364173913,-0.04604688120895593,-0.10976562314780917
0.618,-0.10156248032282711,0.004617604068279277,0.10591582275945646,0.050554705600455725,-0.10435911592154871,0.05493184058325355,0.1294915713981609,0.07137163884533909,0.032740714033029916,-0.016298788556351525,-0.048023497870654505,-0.10913708162237165
0.62,-0.10685513098222399,0.0036262476148409,0.1105688475886435,0.053925561777091506,-0.10834931484154704,0.055258315834534597,0.13594394932515183,0.08438352022140144,0.04486543016559553,-0.013125332573119148,-0.05563904927764623,-0.11336021265838667
0.622,-0.10940803364170729,0.008500344647457324,0.11809561242135534,0.0533535655965202,-0.11330165258950428,0.06027221011538012,0.1404020024832553,0.10321426106080625,0.062342558466097424,-0.008377008650518138,-0.06491746872543082,-0.12342700835228225
0.624,-0.11228657989754932,0.01845557598804295,0.13077222015993661,0.0498046186838672,-0.12189822269261111,0.07139865603877871,0.14717653754498733,0.12733313386940134,0.08653395008395481,0.004262805618528603,-0.0679035326112255,-0.134346321692043
0.626,-0.1185072495812849,0.030825857584353286,0.1491276793779286,0.04560432182598694,-0.1353506616256844,0.0873310005298836,0.15599955915874478,0.15067232998575206,0.11278315045981889,0.025924167793077723,-0.06077669704757564,-0.13818897312618278
0.628,-0.12690994746564677,0.042407103819743316,0.168925603052703,0.042512231616325065,-0.150105468253507,0.10371936753611254,0.16249333508864847,0.16530349421481988,0.1340614166364423,0.052274987136888273,-0.04529182144099837,-0.13126590237086544
0.63,-0.13113823200687239,0.04923341492142802,0.17993645006341963,0.04066283550499801,-0.1572110176600893,0.11303303966606915,0.1642272409231482,0.17026459374356884,0.15001510317076533,0.08200525501440625,-0.023075509112470645,-0.11597319060569102
0.632,-0.12341966720676174,0.050690460314557394,0.1737625309399329,0.03688733295010356,-0.1489851163727272,0.11069886611929299,0.16176921450602408,0.17368339833619523,0.1671202544831659,0.1203646532955689,0.00883092043862443,-0.09390199608794517
0.634,-0.10311673793904466,0.050335290262829416,0.15316394904475739,0.02816717065988977,-0.12762149675237427,0.10006567624376947,0.15663035853028148,0.18474340520526863,0.19013904183614577,0.170559537380162,0.055976016673823806,-0.06052732734242645
0.636,-0.07814655346451617,0.04832246660583463,0.12617733878501788,0.017348732343037535,-0.10162189376219533,0.08539290354584456,0.15095846517748382,0.20526077250012797,0.2165793674418318,0.22608347933892273,0.12103792883906295,-0.010824293582550128
0.638,-0.053195417777766194,0.039598929747707574,0.09258746703832223,0.009066527691843133,-0.07297608160268458,0.06407056629981991,0.14546556380709863,0.22772918403964154,0.23759786646452805,0.2760397048168352,0.2009765603133994,0.05349212567653407
0.64,-0.022886691678513156,0.023833804878973807,0.04670120305001264,0.0011652744239459968,-0.0358470237229302,0.03320252960900863,0.135898159887815,0.23921119780376315,0.24236346480073365,0.3154394750891778,0.2909536500614893,0.1290092804054718
0.642,0.018874958882350686,0.011576043639487991,-0.0072010393491008014,-0.014071591629460877,0.01107750989494209,0.00030259504878639394,0.11507815038596403,0.2286005797336743,0.2230528152427094,0.3474531894448624,0.39397976554411257,0.22047936724018388
0.644,0.07055388043629855,0.015539809119452404,-0.05497153238407095,-0.04189305645268203,0.06046422601091816,-0.021461534837806197,0.07898753245313272,0.19104428988702418,0.17474604933489113,0.37634908084823987,0.5239143624313879,0.3380289830781077
0.646,0.12661772102226274,0.03644065450776446,-0.09032790820701839,-0.08017516358614737,0.1062998383847617,-0.028793182662333973,0.028805754226099562,0.12417643940387471,0.08970064000369128,0.3991649227632868,0.6921305762151417,0.4857394812336223
0.648,0.18334535531925805,0.06409054033847722,-0.11962663629276782,-0.12240645300998991,0.1493513213927307,-0.02962956594515759,-0.03250905036896687,0.02337388042026989,-0.04092006399152241,0.4076299280710431,0.8943843352836262,0.6592645635823773
0.65,0.24115985271873802,0.0960094665606686,-0.1455839125839197,-0.16762784777097686,0.19121083251235702,-0.02624084648034616,-0.105528881082075,-0.11332574385799919,-0.21230575266954838,0.40155931274555384,1.118452971283036,0.8536928559595862
0.652,0.3048365476036441,0.14311110667409369,-0.16196211066805188,-0.2233628602454366,0.23151410667879746,-0.010255877246233197,-0.19502670978034184,-0.2765036600450717,-0.400128915958153,0.3937583332889552,1.358765101112329,1.0687687922647529
0.654,0.38008849202034684,0.20786834961603512,-0.17220143721513234,-0.29339053799344805,0.27452133835390835,0.017294268823737392,-0.3013078085923074,-0.44945962014819946,-0.5815034727982894,0.39102493385360293,1.609310864898676,1.3022876181244407
0.656,0.46764135392210826,0.26939340123271477,-0.1982366011313342,-0.3678113090301355,0.3309513952762879,0.03460268470458331,-0.41369426176627233,-0.6245674958715475,-0.7584150142663028,0.3740749924547538,1.8408117307520278,1.5347220769199923
0.658,0.558303324587912,0.3007591558277791,-0.25781803048353397,-0.428824789707273,0.40530638081338577,0.019757074160404137,-0.5179589138067525,-0.8065082453219065,-0.9466279743724805,0.313188676774322,2.0012374828700144,1.7242779153495105
0.66,0.6318154980221189,0.2942608796467297,-0.338026259198342,-0.4621466800154113,0.4818356673189688,-0.02357595307511834,-0.6057537698970937,-0.9912750586669646,-1.1410002891993314,0.20781689138579135,2.0540588788683407,1.8291975792140138
0.662,0.6656995014824969,0.26498088135547543,-0.4010266971051523,-0.4639591039711926,0.5308061491290645,-0.06872200567557195,-0.6724377549293162,-1.1510871002279413,-1.3069278052075317,0.09569735633738904,2.0124822783968406,1.8391245139461143
0.664,0.6518621108607159,0.23139827504222968,-0.4204368838307262,-0.4401686070567868,0.5345774103784899,-0.09443691067258018,-0.7099114984300388,-1.2514924181623608,-1.4109294938915624,0.015795627842109188,1.920048360815116,1.7732386318461133
0.666,0.6018540289574283,0.19402804630987708,-0.40765105576035354,-0.3972538854101294,0.5037432770456416,-0.10724822706772037,-0.7074652608296861,-1.2808558002700452,-1.4478261217639796,-0.027305165558499475,1.796427348625286,1.6454381660253017
0.668,0.5341939545332451,0.14064317278493943,-0.39345241222665384,-0.3376675648619644,0.46253192096455764,-0.12822302274430564,-0.6637781485970574,-1.2580712351591925,-1.4360318483156536,-0.05849934725732085,1.6234021838200763,1.454046274552861
0.67,0.4624395020527202,0.07332919947213935,-0.38903468317185863,-0.2683337935923451,0.4239488952131413,-0.16044506006496523,-0.5966137557038694,-1.2142273491445295,-1.4006232298835257,-0.10667626964753228,1.3855893589147037,1.210922992558283
0.672,0.3942202826306936,0.011273963132198923,-0.38266515301706056,-0.20259854841047092,0.38677281547700143,-0.18759721885853553,-0.5325731031785879,-1.1689152690169715,-1.363573138273284,-0.19159890865443255,1.0962247919184005,0.9487435323183185
0.674,0.3320219316404785,-0.03894662232890107,-0.370395257779116,-0.14556120749993937,0.3501871938343889,-0.20514490873608512,-0.4834384774052573,-1.1195656263945941,-1.3334172827817055,-0.3179150584075074,0.7803012104406346,0.6910036277865218
0.676,0.27160614612027595,-0.09153696560434348,-0.3623929986832092,-0.08847780205966041,0.31647928569981665,-0.2267903207597362,-0.43655959398421856,-1.049192054145614,-1.2964139577841,-0.46835289619585146,0.45774917921359604,0.4441386184677545
0.678,0.20510743468642156,-0.15191104559534374,-0.35627561469051544,-0.024703925229715793,0.2800983152664597,-0.25451904197552727,-0.3706032066434839,-0.9442656381833806,-1.228458245144566,-0.612689140871513,0.1445934971668114,0.2211049755432191
0.68,0.1307477623709426,-0.20170525714505227,-0.33193136513600624,0.03772059340450582,0.23006726353189866,-0.267957287842776,-0.28022148589603235,-0.8086223306364647,-1.1209771886503344,-0.7266772105609997,-0.1401184209649949,0.04501662968732845
0.682,0.05901348651178119,-0.22000170618827516,-0.27888568632037,0.08306421799326656,0.16678517509023422,-0.25029396460422687,-0.18654108524215932,-0.6668287909953562,-0.9897011519137108,-0.7923935154679218,-0.3632079679666107,-0.07144511281679528
0.684,0.005813306284684836,-0.2033048109694511,-0.2093981393468243,0.1012005010208454,0.10509219942946357,-0.2063680337571197,-0.12112564262737106,-0.5512359108682289,-0.8571076672867257,-0.7893235272762672,-0.47957498453385083,-0.1330593134683438
0.686,-0.023184184132616262,-0.16328613782328832,-0.1407056668313216,0.0948662332434659,0.056764726159984735,-0.15196985789685993,-0.0953005087224417,-0.4738846981146282,-0.7311686947842686,-0.7080013968212585,-0.46960055550490104,-0.15318354493230885
0.688,-0.03973717488751541,-0.11668123429311611,-0.07770459247558721,0.07886004638614262,0.01780892186624742,-0.09827927837762737,-0.08905186354405502,-0.4150739504014068,-0.6054422093829044,-0.5733763438811113,-0.37457064756128516,-0.14855580181456182
0.69,-0.058755356767923775,-0.07659977970460835,-0.018451673175548057,0.06808755509860942,-0.020867330401595392,-0.04975289908236933,-0.07498815433233598,-0.3498566721796947,-0.4775927807704591,-0.43621144557431596,-0.27191326518212516,-0.13568237651336004
0.692,-0.07975793414214272,-0.046627189891254146,0.032940750658452,0.06406199286619298,-0.05715041292016443,-0.009085377909192227,-0.04645181119878958,-0.27550885855867774,-0.3581653211235142,-0.3335718968541757,-0.21057029395333715,-0.12370882042459275
0.694,-0.09256966631154025,-0.02364575593414129,0.06907625561349111,0.059386915164902646,-0.08221794286880639,0.021385504308576553,-0.015010043674496255,-0.2045506536961212,-0.2586989249420171,-0.26508813423530825,-0.18372868291805214,-0.11343782934650452
0.696,-0.09625672406472945,-0.006183121070969175,0.09025186646695434,0.0527363353285207,-0.09544308153120366,0.041630719611919706,0.01126639718153956,-0.1447901297055552,-0.18059271446540834,-0.20967242364763933,-0.1620518524131835,-0.1048216795482848
0.698,-0.09963316820008386,0.0034006699408024553,0.10304665705838685,0.049978699497021634,-0.1037634675011101,0.053336400595094,0.03590331945603148,-0.09465298037562199,-0.11842460919937949,-0.15454838878819818,-0.13399158508582906,-0.1008932782469265
0.7,-0.1074643151783528,0.003152840564156767,0.11052932500913598,0.05423267383980673,-0.11063269515258854,0.056989849151283994,0.06410524440374954,-0.0492727459741973,-0.06697213960607842,-0.10254602186073095,-0.10850665364487573,-0.10276275646994301
0.702,-0.11607840619179442,-0.005317405587646802,0.11073371267751901,0.06263464383587708,-0.1138948750833064,0.05232761551674139,0.09278170012369867,-0.006893990169837502,-0.024057016053830704,-0.06175572367013353,-0.09542543298672092,-0.10555997354445816
0.704,-0.11960221110063639,-0.016338020462222966,0.10344132694372045,0.06981438319959805,-0.11156883263784596,0.042293508264992355,0.11145063221718914,0.02817620773367374,0.00901893251222452,-0.03705675938453506,-0.09438639336534911,-0.10362594319934255
0.706,-0.11595120861318416,-0.022325956086779033,0.09414404655180639,0.07121794912807146,-0.10543306317352902,0.03388463863081272,0.11331219291812637,0.051075128788451093,0.0313698129638224,-0.026359658236444917,-0.0962784481342882,-0.09720600885637384
0.708,-0.1087849749811891,-0.019423960958289386,0.09024754643301384,0.06626687713720758,-0.1003781534359492,0.03296621264686217,0.10494617352651932,0.06495893958240984,0.047859224386779205,-0.020848083348691378,-0.09093517402380534,-0.09084994427357805
0.71,-0.10401633671019729,-0.010520019049548624,0.094483585643483,0.05883791113747598,-0.10051788601965478,0.039455972111303646,0.10043945509897959,0.07815037091158346,0.06518905633766515,-0.012891051432611943,-0.0774410876780508,-0.0881785524469074
0.712,-0.10360394244576702,-0.0008421603898076702,0.1034026880175486,0.05299710178019323,-0.10514848072417876,0.04894692341524999,0.10598711800217106,0.09283849619503297,0.08303497280139939,-0.0030866199150665977,-0.06598890882781028,-0.0900508194111854
0.714,-0.10540866557344732,0.0062926164151496985,0.1117898119190098,0.05031664019819615,-0.11038412642224203,0.05703083313436484,0.11533382102497672,0.10322891716347762,0.09524116817105661,0.003970675155897087,-0.06645907907405657,-0.09459818555393944
0.716,-0.10814709452076342,0.009141932200093251,0.11706278182972231,0.051037601939653975,-0.11430075114341538,0.06144934531157781,0.11933782487245273,0.10518988245154504,0.0984916237618265,0.007029964492367855,-0.0783912827312308,-0.09795463907547101
0.718,-0.11179121949615611,0.007783231779642855,0.11941316685065573,0.0540784595265868,-0.11719111992999155,0.06242333986522573,0.11510738780995972,0.10158758657654719,0.09496154937514091,0.007014754113586913,-0.09361673571075645,-0.09745302683836753
0.72,-0.11570810911178508,0.003914921777700625,0.11965852036708659,0.05754805333423602,-0.11894119525871227,0.0612213945787452,0.10625369843142841,0.09732035265599345,0.08839299109318118,0.0028946874806678744,-0.10391786388096587,-0.0946602921966976
0.722,-0.12038177496947389,-0.0015573640792273344,0.11892641262557752,0.06169737022591393,-0.12015053810670101,0.05846817431437358,0.09783226290779712,0.09485609193725832,0.08216759729416469,-0.005030136868446278,-0.10487603483961136,-0.09331910656220958
0.724,-0.1265744664254765,-0.007563552810413722,0.11904069120880756,0.06753028408521226,-0.12257208416910893,0.055124944855418564,0.09157496823190157,0.09528836670928979,0.07985534693725893,-0.011286773298480919,-0.09771696340073428,-0.0946403995578608
0.726,-0.13123846649861567,-0.01023172223720009,0.12096584283070806,0.07202448859951834,-0.12571511388390497,0.05374777792318625,0.08533018996602729,0.09899417878180068,0.08315437842389418,-0.011509071973589486,-0.08949692849785564,-0.09637268898584962
0.728,-0.1294813756269001,-0.005222755418238981,0.1242229673705671,0.06969843583984502,-0.12675904752577494,0.0570530809013686,0.07781972701135005,0.1053263801804468,0.09012322928223099,-0.008239064017251583,-0.08644957508008798,-0.09504366905836929
0.73,-0.12029848198528519,0.008124489308150622,0.12842823908334755,0.058608457725424265,-0.1244507002721089,0.065807685092113,0.07165083660050393,0.11328605491948354,0.09777998090215832,-0.0050669250188055785,-0.08619445830144122,-0.08883585521724179
0.732,-0.10752386660038829,0.02509993871751976,0.1326457524669399,0.04296347982346733,-0.12003409264916613,0.0770569039728869,0.06800300453771635,0.12068425299637421,0.10416780998441108,-0.0013145245354600926,-0.08226328020559213,-0.08112005843744875
0.734,-0.09792517363965506,0.03570929091980568,0.13364206705823484,0.032188759778349486,-0.11570783441404844,0.08355283395908938,0.062433969761418344,0.12379753797955263,0.10738932488407478,0.0038021969206818752,-0.07533215709882164,-0.07942029389648013
0.736,-0.09793697097539032,0.031129803047219354,0.12905842959793073,0.03471932253426473,-0.11389609731870946,0.07932121654960526,0.05142078951979191,0.12086682803249242,0.10632215657493013,0.008572181589413313,-0.07258842283393059,-0.08697744928645126
0.738,-0.10722310742726969,0.015471234093946134,0.12268620812164911,0.047913881774825445,-0.11587333143792142,0.06828675170336193,0.03860253916714612,0.11490782825132989,0.10284141512532931,0.012385070055023213,-0.07642639847775619,-0.09761251971692363
0.74,-0.11737025011923079,0.004122003023818717,0.12149292219127807,0.059083032132201084,-0.12024426556192777,0.061488883424924104,0.029879728810754652,0.11126344411159933,0.1005233230650139,0.016383179086863174,-0.08074598110441789,-0.10228914828729545
0.742,-0.12065702237780956,0.004904366894351026,0.12556614736382202,0.06022528948701795,-0.12356340874196592,0.06297726419599778,0.025483621280057895,0.11262914488071325,0.10093049213429417,0.020119785672338256,-0.07983373550104042,-0.09813591880586682
0.744,-0.11727271099025595,0.009880396728380257,0.12715501527113832,0.05549794541893357,-0.12305500876015925,0.06569876323152189,0.019164269728730254,0.11722791377798061,0.10305745593261467,0.021566708168315355,-0.07523133739984297,-0.08889957322073426
0.746,-0.11285762128839982,0.0096802641155984,0.12253619994281115,0.05282400327931058,-0.11967327862833678,0.06370632664613281,0.005386432179232141,0.12195425373193362,0.10599115782814783,0.020089280285354255,-0.07104104938651606,-0.08005549727184119
0.748,-0.11141334753496028,0.005914992008049009,0.11730455386144582,0.05414135151617424,-0.11699684445264814,0.060079838352661584,-0.012539798496985213,0.12574083226470975,0.1098190156410767,0.017059933482350267,-0.06786243819680965,-0.07515005880386896
0.75,-0.11117355858018825,0.0052045733976846436,0.11624685423081381,0.05533818568537646,-0.11582044439633468,0.05962932150120825,-0.025615855133063643,0.12875666024610308,0.11367807307178712,0.014166745535574588,-0.06509881328795034,-0.07444917008979388
0.752,-0.1084184738066083,0.007549722767030018,0.115641803112297,0.053642857334032276,-0.11331264606607333,0.06056452921181805,-0.03119767129733015,0.1305775720519529,0.1153125312630112,0.012369890552416433,-0.06435363219912259,-0.07620842377584645
0.754,-0.10429623856520054,0.00665279945041403,0.11052690193359924,0.05210832719206546,-0.10880037094804144,0.05801137930525636,-0.03502356745410314,0.13108235860937212,0.11390282474220104,0.011988266702705731,-0.06703240624341106,-0.07936344992612691
0.756,-0.1030673488936879,0.0012136908693492672,0.10400322386204877,0.0538495327971583,-0.10583356605709208,0.0529047698712194,-0.04139864654809772,0.13115242381355446,0.11136239724990485,0.013310366878901594,-0.07182993075100966,-0.08422477096779798
0.758,-0.10481687211339889,-0.001451920582902719,0.10325889290239906,0.0558475874241864,-0.10687508960652611,0.051629564307610946,-0.048347625086796325,0.1313601913552992,0.1094904198667464,0.017320432359019027,-0.07581864503145072,-0.09037432890897504
0.76,-0.10620705137327718,0.0026874915724704146,0.10871290478354104,0.054501094386349154,-0.10975152143241933,0.05580839144005652,-0.051636680341185716,0.1321814424899783,0.10834005041684538,0.024830556231133755,-0.07572463842360047,-0.09479921845676893
0.762,-0.10681276298268215,0.006399464631887968,0.11285305780201721,0.052952296213920697,-0.11089856598311586,0.0585018500649211,-0.04944294783108678,0.13486403764604427,0.10811349549144093,0.033794671847480556,-0.06998210077087949,-0.09373044180610769
0.764,-0.10846734934540733,0.0017510212175268333,0.10993875310252854,0.05590944069924778,-0.10947015111724126,0.053951218666453735,-0.044561788297878824,0.13908932096851254,0.10921201503633472,0.03890552110671332,-0.062272063834663986,-0.0870579840700914
0.766,-0.11062638908819172,-0.008339500228309288,0.10240933371050946,0.06158332597282095,-0.10713989450413999,0.045339914851302086,-0.042568400365110386,0.14211988399069278,0.110688866123104,0.036146601250624355,-0.058986207204104635,-0.07942375765166548
0.768,-0.11113191827601665,-0.015443848619531585,0.09629034663581991,0.0647674577233318,-0.10518529938456293,0.03912783387885351,-0.045956091856852566,0.14314534901796103,0.11175170433364148,0.027394893300512254,-0.060676841242188286,-0.0758088095695613
0.77,-0.10857926145057607,-0.01576654722278251,0.0936555512867086,0.06332783606749812,-0.10257805755028968,0.03729824898897022,-0.05248252202886404,0.1444347697121989,0.1128943439840595,0.018462271987594245,-0.06166530182410085,-0.07705280138250398
0.772,-0.10260876900848313,-0.01151865289967443,0.09173749722022487,0.05859212193538335,-0.0975639180108997,0.03765733245006019,-0.06040793086736238,0.14631559948450776,0.11376018934789726,0.013249837502435826,-0.059484555895217645,-0.08012760760679459
0.774,-0.09567539976971483,-0.00825551145521151,0.08758454342695933,0.054073857624568435,-0.09113986183962004,0.037092138616442415,-0.07013802946234919,0.1460327417630551,0.11277212211036233,0.011711636053295818,-0.058401795142673324,-0.08187115742384476
0.776,-0.09265273930850823,-0.010161423110964837,0.08230510635608403,0.0534972082026182,-0.08734102859071452,0.03453646535952651,-0.0795048819102237,0.1425635971137722,0.10975952982220072,0.012236203795473518,-0.062489682490040624,-0.08183000319501454
0.778,-0.09539649385517802,-0.014497704580468068,0.08074011305570658,0.05657293864569318,-0.0892815558673761,0.032950555818709,-0.0834762441089695,0.13867738957301698,0.10698556840769961,0.014316340872402631,-0.06951273312495686,-0.08110046570128704
0.78,-0.10097436450200296,-0.01514210930171154,0.08599002908831284,0.05939039909336574,-0.09590099445734591,0.03568213278662616,-0.08078041115753536,0.1381641304335957,0.10715979079623439,0.01892087481637343,-0.0728354482402947,-0.0796705673350444
0.782,-0.10585710062191069,-0.011727846491692177,0.09470731808206384,0.059945841015650654,-0.1027072433837485,0.04097209985847041,-0.07730006096823681,0.14212985124021077,0.11063400355444299,0.025915578402360452,-0.06840019721065801,-0.07704185554900186
0.784,-0.10798023751913652,-0.009053163852914409,0.09987468560848871,0.059499380170782,-0.10516392831972934,0.04384748797910056,-0.08082855634747312,0.14750247277791925,0.11500445850886631,0.032232795168494394,-0.058872461330765236,-0.07374364867188643
0.786,-0.10658467290622375,-0.009728565232486785,0.09796155372234967,0.05945615008939561,-0.10226797693520091,0.042073733562883964,-0.09267957765045379,0.15088403744416495,0.11868252038124509,0.03484465676585928,-0.04996497227540344,-0.06972984475490988
0.788,-0.10345201340457352,-0.013104892551557444,0.09128795642266783,0.06033287294552856,-0.09716062653462446,0.03716384777763595,-0.10595361538339114,0.1532498332822423,0.12318154966552744,0.034028684688531284,-0.04464543383169824,-0.06415094346896738
0.79,-0.10160399314393584,-0.017650409919576383,0.08448068128114414,0.06193585050558385,-0.09367977784772735,0.0319742676159424,-0.11381885283338516,0.15643995523286336,0.1290667236505296,0.03129914934143476,-0.043172702686837525,-0.058931825165633805
0.792,-0.10189422946042262,-0.02076514168367221,0.08130182171113046,0.06300784777921145,-0.09336000696631246,0.029380597822642688,-0.11671622687358642,0.15759445818614276,0.13255547709589144,0.02691586153645561,-0.04545701179877316,-0.05844737122512518
0.794,-0.10415530581888138,-0.021264964744739327,0.08303984772007209,0.06349974827437185,-0.09590806950328278,0.03010175833020284,-0.11795633822317066,0.15370091218818277,0.13021427448317677,0.02230724864921282,-0.05016361588615256,-0.06352215845490569
0.796,-0.10933911714733315,-0.022504064557308766,0.08714505674335536,0.06618235347550673,-0.10013633556233177,0.030981389471169896,-0.11695634161370487,0.14821203955111775,0.1242407183709827,0.021539271809385106,-0.0545828541204111,-0.06952734738049282
0.798,-0.11594977339615446,-0.02728724042878121,0.08895082879738353,0.0719052928570163,-0.10345307140069501,0.028690754461675294,-0.11199863447751134,0.14682321082958585,0.11973368891870328,0.026964868872553026,-0.05687584686354667,-0.07138099121341464
0.8,-0.1179065770352634,-0.03170081323000901,0.08625436932724406,0.07559116313387278,-0.10259695897658629,0.02476922301919595,-0.10493251745797776,0.1508488653023742,0.1194452757741024,0.03632007218939405,-0.055611538219660334,-0.0676695579788149
0.802,-0.11096113298083947,-0.029195086085011982,0.08166022005838956,0.07144031385317087,-0.0971057807733106,0.0242440277700959,-0.09868654020289382,0.15833255114409167,0.12296796809829877,0.04623450254626288,-0.04906445435127846,-0.06075478934594369
0.804,-0.09949824697583885,-0.01973400924279106,0.07980093522990094,0.061159760119508674,-0.09128475732750468,0.0289842164514244,-0.09411290400287496,0.1663133830829072,0.12791984976163615,0.054617162882483854,-0.038697756409068876,-0.05516052082244396
0.806,-0.0929846136931909,-0.011845463291430686,0.0814660480789167,0.05360874409077554,-0.0898280428225464,0.0339249617207565,-0.09108548095729573,0.171169771806336,0.13111687269482997,0.05896676472682372,-0.02977754072006921,-0.05382265151344283
0.808,-0.09457411152502358,-0.013000405421806693,0.0819267240602824,0.054340962962946424,-0.0914142905539555,0.0326070831506924,-0.09010511168597954,0.17126917576298897,0.1307869048462876,0.05750195276730825,-0.025868542001042348,-0.054968332176708816
0.81,-0.0968963165640755,-0.019063993889803944,0.07777860289455028,0.058091324237736476,-0.09033430969015134,0.02647775038442351,-0.09323872636157299,0.16805701976185947,0.12733093450671906,0.05162942391981181,-0.02686367916397394,-0.055307380890957006
0.812,-0.09278367686492817,-0.020002768529109354,0.07228582201749649,0.05670727112548561,-0.08478598836597308,0.023229453216212174,-0.10192470159343248,0.1634552489229581,0.12211926646774911,0.04398331065855546,-0.0321354143679927,-0.054311499179979024
0.814,-0.08623097742298777,-0.016107683147586472,0.06956885693951687,0.05234671026947816,-0.07932488234074074,0.02466376426615733,-0.11161602235994877,0.15889515410813415,0.11718011722088567,0.03660600027496817,-0.04044226561664863,-0.052979911729523675
0.816,-0.08666450808492639,-0.018088319136479142,0.06819243607477339,0.0545419014911452,-0.07840805264188917,0.023915116467139653,-0.1140138085363316,0.15549205931231697,0.11448081008701168,0.03264178436285863,-0.04805131774486277,-0.052538511586571954
0.818,-0.09491283502073147,-0.02937071382780602,0.06521545161331126,0.06472503132706392,-0.0809269609652627,0.017111397903160505,-0.10736808235603426,0.15318545443522488,0.114120417216345,0.03535748873977777,-0.05131577032440676,-0.054636274986171726
0.82,-0.10265384475536196,-0.0407474842855754,0.061579026082896955,0.07387476086518899,-0.08279643310027086,0.009350048811240949,-0.09901711208199063,0.1514045743986893,0.11447769092074742,0.043008688583777835,-0.050305326899375995,-0.05870773467635453
0.822,-0.10476563840377409,-0.04478956394420008,0.05985752249069725,0.07613358818113444,-0.08281458717102504,0.006438980965809553,-0.09611055583335519,0.15048790100750278,0.11407965765472755,0.048641062701977586,-0.047548201867831846,-0.06130099921418566
0.824,-0.10375485679561254,-0.04376261234445044,0.0602360478989886,0.07451606297542113,-0.08268368309233187,0.007831846902238688,-0.09788634399484201,0.1515226416168792,0.11289623718568156,0.048036782354075,-0.04391115389428149,-0.060384740016753376
0.826,-0.10293467393604484,-0.04263614753549156,0.06075718408554597,0.07326000295505089,-0.08274956903765858,0.00945936698656548,-0.09816301241646162,0.1558170756883539,0.11248489778092013,0.04467553612500405,-0.037869244601682873,-0.05710660625162397
0.828,-0.10214994359346781,-0.04251159492591103,0.06008108863358186,0.07249285122442123,-0.08167255593484721,0.009258301387692148,-0.09268510018178265,0.16357565317923453,0.11467998149860173,0.04418583451236844,-0.02947374387727097,-0.05325756660767629
0.83,-0.09900462279148824,-0.04068365294322384,0.05863363225635238,0.06966413079526272,-0.07887017630323982,0.00868834776503127,-0.08279940050047159,0.17135929806243916,0.11946723877855897,0.046751752435776936,-0.023232815985334686,-0.05052522456908452
0.832,-0.0921229489749828,-0.03532766067212426,0.05693066651385942,0.06359230184089537,-0.07489432098627528,0.009421932178245548,-0.0733337688059062,0.17355535689805782,0.12409897399188634,0.047930698009706264,-0.024395328049230846,-0.05130154456693029
0.834,-0.0848690519233415,-0.030140770084120402,0.054701942373896806,0.05799537629256399,-0.07130643041411448,0.010237488330238876,-0.06788700637551087,0.16869637219364114,0.1249908519871902,0.04534509333033051,-0.03262556053617618,-0.05710468896479182
0.836,-0.08372489011506334,-0.03096692113585103,0.05269886627315412,0.05868824529358113,-0.07068082459103125,0.009159870265893476,-0.06581041712814813,0.16144016450935633,0.12142419738047584,0.04156027227896661,-0.04213767374249986,-0.06600926770235144
0.838,-0.09118318233170646,-0.03825561706455656,0.053027212966063456,0.0665331036153498,-0.07462541894656029,0.0065513748188100775,-0.0628287127947646,0.1574474781023629,0.11689730816744451,0.040513722263894804,-0.04748344857419904,-0.07276365273117923
0.84,-0.10338724181898754,-0.04726245072818797,0.05647822591114773,0.0770052027638191,-0.08187531030808486,0.003941346536662868,-0.054716149503511974,0.1590945751731185,0.1156841588427728,0.043054538307562916,-0.04701618109199375,-0.07287220913986502
0.842,-0.11446915726886005,-0.05404300380366067,0.06090031380886633,0.08574896577372403,-0.08890976277153632,0.0018753854713149266,-0.04186345877075515,0.16478053006125826,0.11845962778479749,0.04640294782567618,-0.04258727499297068,-0.06731859845125522
0.844,-0.1192827289485617,-0.0570318879611277,0.06265995965637125,0.0900188676324174,-0.09154051600413683,0.0002960059164389148,-0.030083887784866255,0.16974348829470332,0.12213030844316208,0.04732481712349286,-0.037585121545084775,-0.06158293752027851
0.846,-0.1150004818105385,-0.05561379665197891,0.05982582186267841,0.08779572465128607,-0.08755340306570807,-0.0006370193764738743,-0.024920425586382685,0.1703142278674252,0.12380646602455007,0.04547919040357136,-0.033888453559741266,-0.05908574948124935
0.848,-0.1049557209109473,-0.05136089435000881,0.05432261778352649,0.08067786987827948,-0.0798379088438867,-0.000994505096612439,-0.025232215299731336,0.1685606455850621,0.12413650781655097,0.043323538880271226,-0.030666244926325557,-0.058044949317912715
0.85,-0.09692238837445426,-0.047737503663606656,0.050132170416368964,0.07410208477829953,-0.07424061411087016,-0.0010674565173217708,-0.02450197709356874,0.16845851815852997,0.12546115026926277,0.04279005386912712,-0.027013020944996233,-0.05607677147626263
0.852,-0.09505686749929684,-0.04673731283355785,0.04904667859029307,0.07200303954720973,-0.07327884886975325,-0.0008896825826926497,-0.01826065303991009,0.1684820884232892,0.12726424249391222,0.04314705133734102,-0.02442261536640795,-0.05467354019149687
0.854,-0.0978010658322612,-0.04815769958637575,0.04991562097985364,0.07432261097196789,-0.0753837396557492,-0.00047626517778940377,-0.008337721098929314,0.1642996788356362,0.12663642202381387,0.042962251897601535,-0.024866679967519806,-0.05644455836622255
0.856,-0.1023706442765531,-0.05024634180380046,0.052215820812665334,0.07852337856146538,-0.07923854172202982,0.0007462884128831447,-0.000775164596690351,0.15691695588712515,0.12332977417404101,0.04299371994647806,-0.02708303527531173,-0.06022159380121893
0.858,-0.1063879933268475,-0.049682868987878215,0.05691144383012639,0.0807919159155072,-0.08422220480652474,0.004253816682065823,-0.0004409426833330241,0.15141265714892546,0.12057796610915636,0.0451328150234686,-0.027106425886111497,-0.06166402060400543
0.86,-0.1069637436711473,-0.04409275344483733,0.06299824461184503,0.07792937709700216,-0.08777161753872105,0.010278470032642237,-0.005644587903120097,0.14958455477638724,0.12043923967529087,0.04906734751534479,-0.022976097404011853,-0.057789783277978235
0.862,-0.102184080676931,-0.03494449189457296,0.06687018075038799,0.07007260285280505,-0.08667283105451358,0.016518238969292644,-0.0093179794532252,0.14911100023029422,0.12113676184580699,0.051665594044948,-0.017335764197843603,-0.05010650110068491
0.864,-0.0937107045475055,-0.02677199688459099,0.06608460749635099,0.0611664996170278,-0.08102148607878654,0.019888113239438808,-0.00803089295671141,0.1479746715195852,0.11961100425539209,0.04902098183389346,-0.015129387025610131,-0.0435921715479773
0.866,-0.08633333596446295,-0.02347058116241715,0.06205716330255857,0.055857490779490364,-0.07475112561009432,0.019083464871075186,-0.0056962896587999905,0.14659012267591925,0.11555915054363167,0.03979236780885215,-0.019002950098439452,-0.041198229281400156
0.868,-0.08393677905030292,-0.02462072391073471,0.058958169131494216,0.05542309979311132,-0.0721067044070335,0.0161093056141577,-0.005815485958180242,0.14694895357010365,0.11231925049869931,0.02859969192495,-0.025771631784361742,-0.040138772079449776
0.87,-0.08591420462206249,-0.02577828165846111,0.06003898870883345,0.05692922466046211,-0.0740249582024789,0.015077385227177498,-0.006372190711801296,0.15032814787653934,0.1135011830337635,0.02342740004492585,-0.0285064467829748,-0.036538567922174185
0.872,-0.08823429979818964,-0.023551598257890244,0.06447391965815513,0.05669936732803228,-0.07767086695966485,0.018118892680335338,-0.005538619676251445,0.1551980215104376,0.11906570533525421,0.02675659204228166,-0.024510659508279936,-0.03154168737047803
0.874,-0.08806427041612581,-0.01976487679293161,0.06793227920894203,0.054560283677831306,-0.07933597089291693,0.02263479365533575,-0.006638235618074506,0.15863082573194012,0.12532147557866535,0.03273298168517475,-0.018841265796180034,-0.029359118086886984
0.876,-0.0857070349366509,-0.018484368906866475,0.06692588231218365,0.05300549285421958,-0.07751295685852679,0.024242778038308765,-0.013645442591022983,0.15950810409914634,0.1285927762345421,0.03517965179604083,-0.01784520876434286,-0.031981312054012535
0.878,-0.08286122958023416,-0.01973687409633595,0.06313746102509483,0.052747046599325685,-0.07405405045848593,0.022554039870198377,-0.024910361204382198,0.158210285305793,0.1284737892609843,0.03449275562783397,-0.022368501536061774,-0.038110070121229155
0.88,-0.08259993855071143,-0.020137976164474707,0.0628855141733664,0.053222592068411484,-0.07377786159708036,0.021706451206768413,-0.03486559410544416,0.15525469735573952,0.12775037806367953,0.035398188802349746,-0.02785711805753965,-0.043899694301324094
0.882,-0.08832893714972785,-0.018863540487680325,0.07021061679368588,0.055573848337739776,-0.08030403842377075,0.02455619309363213,-0.04077767902489256,0.15263126941746577,0.12943007877286264,0.04067833655706042,-0.028292689889347262,-0.04406742565387032
0.884,-0.09777687495423719,-0.018261533887707883,0.08033180171250248,0.05978004153715661,-0.08983758021615,0.028835274818687896,-0.044311315291531615,0.15324194483214298,0.13384188264607763,0.04803953027836839,-0.020761392585653033,-0.03628029875977541
0.886,-0.10257341830075285,-0.019349574447608486,0.08379052763905204,0.06204908430123383,-0.09346206533242567,0.03035216613056432,-0.0463540315649115,0.1581312362095064,0.13917589835325062,0.05354427721332613,-0.00783136691408224,-0.024215199645279614
0.888,-0.09853202486093653,-0.020375346873480426,0.07829255855056076,0.059702962914252006,-0.08828773682950304,0.028417040688919953,-0.0448038602156937,0.16650308665286703,0.14459298226046394,0.057044063864178526,0.004547352577646431,-0.014025672819046013
0.89,-0.09047594128874094,-0.01881400320172242,0.07150327370416379,0.05468576872379037,-0.08085922895704267,0.02657940157763985,-0.0399133416851043,0.17575043649348512,0.15052392938834813,0.060667983669712156,0.010976077410674353,-0.009482278762947218
0.892,-0.08374312489941729,-0.013129525019580694,0.07046151155575936,0.04930323039131623,-0.07745704171762854,0.02833150329880228,-0.0376157092868378,0.18080439865275938,0.15597267906584575,0.06395359760952844,0.009628336966042848,-0.010476539201456461
0.894,-0.07890748867992065,-0.004929636976635617,0.07398121025757098,0.04382524062325349,-0.07772798467609553,0.03306366655268749,-0.04283856770989048,0.17892806441563833,0.15884851941480638,0.06569167282047421,0.0036049741600885504,-0.013438828034226049
0.896,-0.07633515536857531,0.0007324616794614336,0.07714901424881199,0.03971369560442463,-0.07905413930592302,0.03685869817118278,-0.05181912006587342,0.17450363113886697,0.1586737430015652,0.06755934805046379,-0.001409621150035663,-0.0140823370556796
0.898,-0.0766488105653513,0.0008856220867089272,0.0775717725556186,0.03890045870390876,-0.07998881072620379,0.03728783570265984,-0.05642677001873441,0.1731219868747061,0.15602302537628568,0.07082888344186342,-0.0022388914919457452,-0.011618727116366294
0.9,-0.0774844674610236,-0.0017043415714611597,0.07575406643281721,0.04030916015157244,-0.07935931234418382,0.03573741852332228,-0.05432961562808961,0.1733509816092998,0.15116982301432033,0.07288585295738798,-0.00016776979341183595,-0.008779501843477824
0.902,-0.07725088706767709,-0.003723556818442781,0.07349465171249932,0.04210715378491903,-0.07750486473889484,0.034203272263702025,-0.049103529090975984,0.17095516993623275,0.1462300381365134,0.07163579847288476,0.002604200260405271,-0.0068855744629270806
0.904,-0.07820506899662316,-0.0050948680949566855,0.07310879581948475,0.044123827095311534,-0.07716560366880111,0.033121157729756746,-0.043436516138421574,0.167869613001351,0.14566522055576073,0.07046335810397897,0.006339885940322629,-0.003503473530066337
0.906,-0.0812772130935404,-0.004994752100083186,0.0762995982309552,0.045057982554491574,-0.08016996615947246,0.03371286396553127,-0.03842984216917075,0.16952674576235716,0.15140847342912478,0.07382994456640544,0.011996598133791055,0.0030786627922658213
0.908,-0.08275664507555766,-0.0005408170255901165,0.08222477402171911,0.04202034723634194,-0.08436043011009128,0.03800570692087216,-0.03552618031401497,0.17607186271145517,0.15997029373898206,0.08024686100309732,0.018361796690451754,0.009566562775583588
0.91,-0.07899383936038555,0.00747456607832435,0.08646332733109557,0.0350926744150989,-0.0849733963956993,0.04435616590323899,-0.03426324645373507,0.18248503251490134,0.16679744468413915,0.08508447624795447,0.023903331436333004,0.01155497043229429
0.912,-0.07174250462916447,0.01251961814135588,0.0842548163576378,0.02907819014927678,-0.07971221935903364,0.04698386909973657,-0.03143370923605652,0.18569005420598386,0.17144946741998746,0.08817825197146295,0.029792974484032862,0.010042566723077078
0.914,-0.06685734013269307,0.010172412622196774,0.07702903434113714,0.028424340530644476,-0.07268947113649933,0.04321405477151691,-0.02409067306832258,0.18754511773459087,0.17654534024417542,0.09354370283163503,0.03744726688750685,0.009525970236518178
0.916,-0.06774132707142985,0.00574679474939045,0.07349176589164944,0.03133087235224995,-0.07124669947523313,0.03901133030601219,-0.011513059989881896,0.19085081649990984,0.18317462617554192,0.10315427424670448,0.04459018587989651,0.011159450973149557
0.918,-0.07155159721421757,0.009497299871375072,0.08105102969177953,0.03126909349795791,-0.07779181320899782,0.043616170873454,0.005135811702773987,0.19489704760324839,0.18971829354305267,0.11471036796734926,0.04785796137145005,0.012759154539121546
0.92,-0.07332137093044608,0.02380411523484018,0.09712451614776885,0.025205302003424496,-0.08725412866342423,0.05824805456503517,0.024641116607479106,0.19695296216495156,0.19463923456320711,0.12466427369760269,0.0479127193729393,0.014029986953196266
0.922,-0.07196000032174488,0.038999531287507064,0.11093596484513524,0.017676103756567505,-0.09311007688910887,0.07303910768929602,0.04683812564132977,0.19680353805089132,0.19799281634710658,0.13084540667090125,0.04851469361785132,0.017028552306915717
0.924,-0.06911696488110299,0.04469629140237771,0.11368169266907359,0.014162807887197797,-0.09271404415163596,0.07765195945358958,0.06985974427856113,0.19707754310078465,0.2003281452059073,0.1325639547060538,0.05189093494624754,0.02257680962240308
0.926,-0.0648400294843252,0.041756910066525044,0.10624835045463277,0.013777566952645263,-0.08711965053681059,0.07253572261628999,0.08866711584963426,0.19962996868569058,0.20236697763455283,0.13079747893435004,0.05744129741748046,0.029733286733995504
0.928,-0.05898501745687438,0.0390616447339438,0.09747130444077294,0.012170465275892777,-0.07998642407065544,0.06681319908843818,0.10014995428227899,0.2038313608993357,0.20544704090858862,0.12890478609954872,0.06416378153787239,0.03746295339528032
0.93,-0.05393080429388103,0.04235474941974889,0.09554915880577382,0.007850347780197503,-0.07606310029568455,0.06777625495684712,0.10679422439246022,0.20804441003865728,0.2104599906496184,0.13080174533594938,0.07210543517964647,0.04451982691700847
0.932,-0.052006509312108325,0.04947869238231262,0.10060723519601344,0.0030119475788090494,-0.0769828924839331,0.07427883933241772,0.1127102362700774,0.21125207662989487,0.2168051778777716,0.13743989168738438,0.08053495068950645,0.04952821365705561
0.934,-0.053104092608788594,0.05362797332774648,0.1057189682280642,0.0012855412988911727,-0.07990047221980341,0.07903547630422171,0.11939100710326528,0.21329785220942551,0.2228947909724323,0.14633476162065204,0.08650379712724814,0.05225748902723835
0.936,-0.05569678935061255,0.05100116111383227,0.10562818058541942,0.004227624465997901,-0.08175182923922944,0.07757248044008404,0.12651962991721674,0.21403745672587068,0.22676844076826289,0.1539458761398849,0.08765648455397271,0.05342125158341427
0.938,-0.05693499188643469,0.04615764189447784,0.10210315024673557,0.007839376874196563,-0.081665285465938,0.07351041506068352,0.13395757152998797,0.21315342486416905,0.22689097301314676,0.1579676866596275,0.08619707884511923,0.05435432944359578
0.94,-0.05302992543980726,0.04742434293552366,0.09975825471313045,0.0051739240159765195,-0.07922208348520278,0.07315543112801466,0.14193711268676942,0.21160458618713313,0.22415339951556817,0.15941045764968356,0.0875961590092063,0.057679441131958255
0.942,-0.04293260372717616,0.05769771926397705,0.10044397193326383,-0.006145855411992298,-0.07436042098145963,0.07824185077241512,0.15011919179662847,0.21158234508008938,0.22255689994021166,0.1627594977870742,0.09477034592873015,0.06562493001048499
0.944,-0.03018765791750905,0.07306213843630016,0.10342532838813519,-0.021662806283386852,-0.06875924589922972,0.08663405650674465,0.15739354796132277,0.2139624773196871,0.22618728520612974,0.17226359203976596,0.10630225061878741,0.07747627560740995
