time,I,II,III,aVR,aVL,aVF,V1,V2,V3,V4,V5,V6
0.0,0.0023475394136656664,-0.0030057280343195915,-0.0053532674479852575,0.0003290943103269626,0.003861373241169694,-0.004168527930808193,-0.008249297378862529,-0.020974277378171747,-0.02483565061934144,-0.018955832274833044,-0.005133871241100616,-0.002457237517107987
0.002,0.014577337799339037,-0.020995987900541815,-0.03557332569988085,0.003264174102322549,0.025151959442677615,-0.028262878158864826,-0.057624025186888486,-0.1472800358694829,-0.1743407423120569,-0.1353086835518125,-0.04035938259680512,-0.020916278384885648
0.004,0.03765886688847847,-0.06541360669944438,-0.10307247358792283,0.014260508370821306,0.07058406784055311,-0.08438584138598104,-0.17987794651992609,-0.4637039694518099,-0.5492447878170841,-0.4361686813845503,-0.14626465357525245,-0.0816438013005687
0.006,0.04906959201360763,-0.11971886272402674,-0.16878845473763435,0.0365372912807584,0.10918352857933873,-0.14497079558377246,-0.33258115161196333,-0.86962593455625,-1.0329343818290175,-0.8474714162393568,-0.3268741369581275,-0.1947696918702861
0.008,0.024286608531537784,-0.1413266184092615,-0.16563516656148772,0.06085483178807962,0.09475311249507476,-0.15492979839540716,-0.4087146810985142,-1.0939565249568,-1.3087524688790602,-1.1259590452330652,-0.5098884834338016,-0.32023423909489107
0.01,-0.020839110307331748,-0.10735353900180555,-0.08664574445992068,0.06715692403977272,0.03164914119989337,-0.09859813764912316,-0.36110624337513764,-1.001808811186227,-1.215961637709292,-1.1191719603640815,-0.5982529615732447,-0.39018774104351983
0.012,-0.04232456631588642,-0.04034159712240534,0.0016555501335345463,0.04413604393485199,-0.02418816140871534,-0.020250668358399917,-0.2578471905533108,-0.7451574461364856,-0.9238952402978573,-0.9225300681480856,-0.5599451738592893,-0.37457793699592656
0.014,-0.02697332102896836,0.018860481569294315,0.04541119738188446,0.005750134416614066,-0.03844951365541743,0.03205324975851903,-0.18769618140286,-0.5454628949488741,-0.6857342569245405,-0.7243397166089491,-0.445517104346206,-0.30558432098704713
0.016,-0.011266935444698188,0.046793419530611995,0.057826753924629576,-0.017218293572521005,-0.036240778615128075,0.05225310425053815,-0.16518950591546133,-0.45908140260531116,-0.5734016414008974,-0.6042464911517375,-0.3291902485740732,-0.23710155491297574
0.018,-0.032887538071953604,0.04522467388819183,0.07826920118572998,-0.006171962016609822,-0.05707776983902307,0.06069336719653777,-0.1485366215442348,-0.40370486374915593,-0.5023159984650369,-0.525093462315805,-0.25203961392138885,-0.1986619505865327
0.02,-0.07913926869358821,0.029277210975846076,0.10888969533605956,0.024862008169166158,-0.09603086761285216,0.06673671405241062,-0.11050471070627058,-0.3150632908503504,-0.4018954856534049,-0.4419109364587758,-0.21300844278500905,-0.18781211465119763
0.022,-0.10151186267692722,0.012597757315639162,0.11459544091916135,0.04442424636872686,-0.11064305504107264,0.06065275704661162,-0.0638660868678132,-0.20854535920816353,-0.286931043319017,-0.35722461565492597,-0.1914247411679925,-0.18760486680234315
0.024,-0.07959859492484479,-0.000982401213125741,0.07882560446292737,0.040392274313345265,-0.08169719621048079,0.036314057869838046,-0.031161524877467553,-0.12385339601007218,-0.19957571463731383,-0.2906556386981233,-0.16920431908871666,-0.18253547754305405
0.026,-0.045365590819904156,-0.014433111501251285,0.03085038753599277,0.030395374369763545,-0.03991693161951865,0.006191213397234775,-0.015265719863308982,-0.0702496952625193,-0.14663354616655194,-0.24352763091451957,-0.14081363330837937,-0.16674051909832635
0.028,-0.035207137527334544,-0.029111099995023367,0.005970019407956201,0.03309219817969223,-0.021950716939068433,-0.013443145457428885,-0.004858281027044527,-0.032707019542041235,-0.10680485809047639,-0.20521660065066158,-0.11271627238518571,-0.14627622420627545
0.03,-0.04439534813980768,-0.041725850168549496,0.002767203831562629,0.04418634417471302,-0.025019584822466218,-0.021635088926770244,0.005672102248688292,-0.0015318769174419685,-0.06908770181038744,-0.17271154760422874,-0.09477721213121375,-0.13243764808920455
0.032,-0.04567296152358081,-0.0475757830294882,-0.001513954134583099,0.04798119007823203,-0.023455703318363313,-0.026958724863013903,0.012651671736573463,0.019907396133304445,-0.04184478436174143,-0.15056576329572474,-0.08916212437942339,-0.12946026680748482
0.034,-0.03254970788312726,-0.044703540049293125,-0.011683629500765172,0.04061077777648405,-0.011235161839279584,-0.030602818279177657,0.01387068861722413,0.028684728726207524,-0.031701994733101986,-0.13902983046835973,-0.08788400756742192,-0.13085557138033854
0.036,-0.02258066767338657,-0.036388880475022936,-0.013563077057319439,0.03210074758802528,-0.004877231933811907,-0.027127500960270196,0.012352644935354404,0.03074373256267809,-0.031595711560059477,-0.13241325394037856,-0.08348997177093788,-0.1299057133608662
0.038,-0.026453503266812794,-0.029493493625930397,-0.0031183977807573153,0.030498353966791136,-0.012349631997050857,-0.017879733726187393,0.009996591082720385,0.033414370820254356,-0.032064173781300026,-0.12747550928576776,-0.07837761103270219,-0.12886547753207747
0.04,-0.03429863093338065,-0.02841070935402056,0.005601779787991151,0.033075181644337634,-0.02136902950212649,-0.012095161034571578,0.005566524895479369,0.03746203262521399,-0.031643225915463945,-0.1259465324383597,-0.07886410810880709,-0.13299005605962705
0.042,-0.03445261715025175,-0.03145103585779615,0.002623419652618225,0.034090656983627794,-0.020459381581661024,-0.014393695526883578,0.00032945169737903904,0.04108278828165584,-0.03159572028734875,-0.1278348919393901,-0.08445847491463042,-0.1400345696683453
0.044,-0.029859842031576204,-0.03405816936089203,-0.00456392407094392,0.03348387279722851,-0.014542839441040432,-0.01945339590408415,-0.0002570636580756607,0.04591055855324894,-0.029470480830324355,-0.12779812823541775,-0.08865402720309153,-0.1425686945397488
0.046,-0.02865999918571709,-0.03457893709772724,-0.006119670850264779,0.03407190374908067,-0.012642143263725227,-0.021612574174261365,0.006308711868135044,0.053587376731700144,-0.023477047410628393,-0.12218653151250303,-0.08859520962021113,-0.13891654977106216
0.048,-0.03109369703990363,-0.03596441980916268,-0.004849593230080476,0.036427039812158044,-0.013813231157696832,-0.022850422901719014,0.014534314533896366,0.06047865569353936,-0.017612621473281936,-0.11567214884718623,-0.08847574152509088,-0.13499191877283587
0.05,-0.03403198573233162,-0.04066077938388019,-0.006514926305840899,0.03972153396782066,-0.014164510373457947,-0.02627820580064917,0.01731869007373874,0.062178661852047394,-0.01542431972337966,-0.1140380776516614,-0.09053879422451724,-0.13470456114967033
0.052,-0.03800645971272092,-0.045200974647086625,-0.007144068329991304,0.04284508218179202,-0.016069616597658144,-0.028199364664128465,0.01481404601308819,0.061016887132943884,-0.012752722138048431,-0.11421593414704982,-0.08776418775826039,-0.13465546667328904
0.054,-0.04271583672801867,-0.04363319640678362,-0.0009521831278379463,0.043552172105142076,-0.021690177633111252,-0.023626824491461387,0.012405221547859254,0.06306388361474026,-0.004462928384049948,-0.10981081183537833,-0.0720590229026485,-0.13029481902521617
0.056,-0.04326169798093684,-0.035603542714595655,0.007592159427553723,0.03983326840544442,-0.02592752988054546,-0.015258343673014445,0.011938331088720512,0.06915129867022382,0.006081559290166698,-0.10225520469678875,-0.047041993907974325,-0.12303914893185022
0.058,-0.035074462742011786,-0.02717523320972937,0.007765487293631401,0.032069215464029396,-0.021587636551991713,-0.011292292322869546,0.010006811388267058,0.07389013534135412,0.011205908520613043,-0.09839980570046687,-0.02629165271440367,-0.11889865939549027
0.06,-0.019110714685724874,-0.024316373328326854,-0.005510344009243743,0.02304546653898014,-0.007140644245939765,-0.016795680493704963,0.004536798603072851,0.07302188101311079,0.008368305461598249,-0.10076737275351945,-0.019119247019782366,-0.12140899521825099
0.062,-0.002113210694417761,-0.028475951091697458,-0.026795104227756477,0.01685621161087176,0.011663105886181873,-0.029739856890454972,-0.001655209571502122,0.0681269568126371,0.0010220451201743842,-0.10596308274197173,-0.02255373231196868,-0.12831613603307584
0.064,0.008007582173498099,-0.03626814573295434,-0.04466915354185454,0.015848312882632918,0.025599853193968226,-0.04284355935583028,-0.004467246245273537,0.06422966887841683,-0.005733225382932764,-0.10930624656438996,-0.026873474136291896,-0.1352575548289548
0.066,0.006349178546877596,-0.04117290508929536,-0.047833607678449554,0.01878784618575284,0.026071586117857624,-0.04704825905923057,-0.0012689247862486142,0.06631544025216506,-0.006475259418515455,-0.10693384714173002,-0.023967408700859963,-0.13847419825039173
0.068,-0.009602571558876434,-0.03915023332141859,-0.0298255561922346,0.024919924406394386,0.008118998352899677,-0.036960842440781884,0.008979984483525053,0.07724790507757476,0.002852729751239742,-0.09689821391528851,-0.011547662918720324,-0.13426481747863395
0.07,-0.03444903973683715,-0.03325124566679301,0.001010285873515322,0.03397868901718023,-0.02061391299121485,-0.01847287748525362,0.022305359700032366,0.09346408172964858,0.018071573057145306,-0.08282088128411419,0.004771032308895045,-0.1233323926167344
0.072,-0.04992899475799758,-0.02949694598219516,0.02041448531349221,0.04032673695106078,-0.03786277807511489,-0.006905095543824737,0.029324258941999398,0.104477293450119,0.026010006412396508,-0.07343478596296654,0.015365698380066638,-0.1145539421993996
0.074,-0.04353689906806264,-0.02944788281699328,0.01417714777917282,0.03770653931891025,-0.030527311621530703,-0.009842894448710882,0.025651032457297794,0.10359454420952009,0.019001376433793165,-0.07346403319616279,0.016950500058847687,-0.11532526478145551
0.076,-0.02559861582429012,-0.02916983471245596,-0.0035123385674937302,0.02861286244622043,-0.011959875384670617,-0.01780923150890627,0.018232199132419743,0.0961734403198196,0.005557388285672564,-0.07784470966780442,0.01501624523013474,-0.12124359836195647
0.078,-0.013159012632407008,-0.02529590938744256,-0.012131839393009814,0.020406099723363432,-0.0015190627176921772,-0.019085236485262853,0.015209092156896281,0.0912213747559746,-0.0011168463225175857,-0.07886111172059988,0.014534667439325695,-0.12366140344658116
0.08,-0.012047203674718548,-0.019997289160071024,-0.007858854181483469,0.017585104143595688,-0.003569052451617931,-0.013568603131003044,0.016506317570690102,0.09073832590541121,0.0016293675412469989,-0.07464968537659666,0.015233095729191171,-0.12143087691467758
0.082,-0.02151798693563664,-0.017417503314859147,0.004417601157997464,0.021292498791636177,-0.014507283213254434,-0.006132562578037023,0.018985878729896127,0.0928787089185335,0.00914208264317442,-0.06780282659302185,0.016244296054409815,-0.11854168017489317
0.084,-0.03729778923696464,-0.01782332568887155,0.019935818997563994,0.029145328819306426,-0.02970483846134805,0.0008984903979992169,0.02212862559884764,0.09743139856303192,0.018323604057891244,-0.06109271741533794,0.017813981362147825,-0.1178229021312089
0.086,-0.048871764312366645,-0.018962290035793354,0.03028804014571998,0.03529609519287399,-0.04015864190597628,0.00465509276432323,0.025187755969271638,0.1031846887447494,0.0260716455392187,-0.0569570120363024,0.017909578312365677,-0.12083899033006186
0.088,-0.04940696790874784,-0.020049760258031964,0.029525000966148598,0.03621830443954901,-0.039846636191430876,0.002745499684653579,0.026798756576833806,0.10754844810201787,0.028493378756745697,-0.05582483492532568,0.013382113854606928,-0.12608308471344096
0.09,-0.04512038356997079,-0.02116386913416458,0.02391914221179491,0.03460473542922384,-0.03513459011064042,-0.0012812164182519222,0.028641899258512623,0.11070082918865111,0.026603830262773607,-0.053808411862045845,0.006258360989613502,-0.12701497657903946
0.092,-0.04366044023826541,-0.02132713687403985,0.02220968175997094,0.03357419028624665,-0.03405804489332549,-0.0021968480216377063,0.03251399844230631,0.11362374065614295,0.025230906530142056,-0.047497471936507996,0.0037414438661904827,-0.11976065439037985
0.094,-0.04022880745388482,-0.020152654584048257,0.020040621613956013,0.031038999786881117,-0.031757649657961635,-0.00209674410632353,0.03476432808372256,0.11363197892610623,0.025676636100906564,-0.04053487913662049,0.00843132738759351,-0.11086492334023346
0.096,-0.026152998318817015,-0.019378190212162465,0.006809419887625481,0.024061241690947005,-0.018449985576654865,-0.007475632283830659,0.030355694447678983,0.10810287434662275,0.02553164454778271,-0.03936191748869698,0.013584638812837788,-0.11029178968155812
0.098,-0.005451898861218718,-0.019820037491443128,-0.014472788038733397,0.014707415999206741,0.0025197124220434804,-0.017517734917247986,0.02118040833529814,0.10029364670545231,0.024244743074442507,-0.043637397955336374,0.012547190588256539,-0.11872413264888612
0.1,0.006530291963424668,-0.019804295649752314,-0.02664733136588621,0.008879981566069376,0.014993331145739523,-0.02317612051128864,0.014786661146108306,0.09613958707170712,0.02383832635749698,-0.04687151950287569,0.007530653801445495,-0.1273842277628621
0.102,0.0002444188831712465,-0.018950335851298072,-0.019516704149048367,0.011072149967541267,0.008776695910218438,-0.01953581215195887,0.0156438782730319,0.09734984243768388,0.025689011111681377,-0.04515694814370055,0.004929674524934223,-0.12872024133093657
0.104,-0.016411631224871017,-0.019113759226309195,-0.002781406982051869,0.01919970466477723,-0.007674493665194796,-0.012271261276773566,0.021221331115688923,0.10115069207950521,0.03015277459745269,-0.04015695043285268,0.007186997947677609,-0.12306925729548415
0.106,-0.026408999208949208,-0.020832316332924396,0.005681350377421072,0.025450304490287897,-0.016947286275884613,-0.009788848674235276,0.026137342683129977,0.1043660521619517,0.03668227906669828,-0.034808943549271,0.012702413226238789,-0.11607912521719958
0.108,-0.022557359939989967,-0.02278924509102105,-0.00038368385657073373,0.024820290799047497,-0.012408604464583478,-0.013833404224404199,0.027694892373801933,0.1057711657432314,0.04260812605433564,-0.029946465792951658,0.01942879670449189,-0.1125880749985149
0.11,-0.013091989827892116,-0.023794102291670775,-0.011368830142898237,0.02008754156149575,-0.0030046116718214447,-0.019323875167199717,0.026868501116132634,0.10627688391186936,0.045445484622847004,-0.024929005144166846,0.0258488811886446,-0.11317283198811481
0.112,-0.00786500725222146,-0.022856461521882802,-0.015762087997684117,0.016169808534271683,0.0011145205867001766,-0.020821839575990438,0.025277905218281545,0.10689839062477462,0.045834053739804384,-0.020097278044208258,0.030656201376000083,-0.11553010706508628
0.114,-0.005790991951329332,-0.019304970776548507,-0.013717137368738197,0.013307453987186807,0.0013566365993771617,-0.018159210462341726,0.022768672272049227,0.1066980470469968,0.04572587228344594,-0.017587805738709782,0.032446310943838624,-0.11741582106517454
0.116,-0.0020794894529006193,-0.014714806519284095,-0.012105154256163826,0.009893782275850114,0.0037015847134477496,-0.015040445359022986,0.018885152761676238,0.10520290879957181,0.04660755313328367,-0.018033204766964853,0.030665190984647168,-0.11687725271326564
0.118,-0.0010770472393993008,-0.012101712123831725,-0.010200676248361533,0.008410838490548626,0.0047061168930697395,-0.012292688858189254,0.015571033603304753,0.10522152897717675,0.05013780247252601,-0.01770920962341968,0.028715426978351596,-0.11202566666689481
0.12,-0.008028088169024289,-0.0113363651624795,-0.002683919195357035,0.010998386848325138,-0.002133600398973025,-0.007430230801000333,0.015417199029699923,0.10896847660160287,0.056214928424097685,-0.01284722809798114,0.03226869018352135,-0.10394269589803655
0.122,-0.013362451147722101,-0.00888565518266254,0.004749622226989582,0.012082428044095355,-0.009342594826140737,-0.0022289719823917406,0.017253671710689086,0.11330059939871844,0.0610746149857219,-0.005455857914867985,0.04067502457485163,-0.09811794112355496
0.124,-0.00395292766438987,-0.0038247625922541648,0.00015578555378727328,0.005139461624410263,-0.003182595532769242,-0.0025205068721126725,0.01734873585446045,0.113762235344708,0.06186767583637138,-9.40215307923626e-05,0.046278887208525014,-0.09891765794929144
0.126,0.011970575283711374,-0.0002902582568181292,-0.012321771950759872,-0.004505285457207219,0.01117266767848427,-0.007581063578073621,0.015787552684159618,0.11208519801377845,0.061615158449823355,0.003645969421325577,0.0462805005354028,-0.10281035828445459
0.128,0.010287055644594518,-0.0017225520342545356,-0.01205126680888895,-0.0037100326901136865,0.010810633442454318,-0.008041033846556852,0.017588459421160517,0.11516782774584275,0.06591657248705576,0.01057142704563409,0.0472537569491328,-0.10116964333841141
0.13,-0.01538788633920652,-0.005432893239423087,0.009960665538583319,0.010054748521504158,-0.013080816257075715,0.001611905121913346,0.025540858602916265,0.1262909106977578,0.07572031598552814,0.022407531023435772,0.05463760167288998,-0.09112069238827063
0.132,-0.04045074133121718,-0.006205164839561162,0.03426819403344267,0.022862632911777404,-0.038487554534901484,0.013436680084171993,0.03464972790108995,0.13930259286548657,0.08443897999558989,0.03418146881204448,0.06526436296449076,-0.07977855591872424
0.134,-0.03719134317453008,-0.0033644871522357754,0.03383460752957258,0.02063648515200853,-0.03709434339369208,0.013984711855198197,0.036443743405164604,0.14322223509494872,0.08353574206839691,0.038880042430550245,0.0723840318646539,-0.07526908153234482
0.136,-0.007914366291968117,-0.00038971537650599533,0.0075163987855507,0.005693985651625613,-0.00890647661317614,0.0013575538251311588,0.028334074105370862,0.1339609251496735,0.07307390434617536,0.03531841538711586,0.07365984879037635,-0.07678899482756868
0.138,0.017821760168502506,0.0007505460166369239,-0.01710119496722006,-0.0068127837897843475,0.017147972202510825,-0.010979814034042537,0.016841984399577088,0.1198854128329431,0.06366868934301827,0.030434849774220046,0.073341647621597,-0.07689352657256811
0.14,0.016121373626710907,0.001654439946870404,-0.014597591821693283,-0.006054908228553332,0.015610677520730877,-0.009222395430835341,0.01165048565027454,0.1137149778702612,0.06535656567084604,0.032671151301993384,0.07758483803221265,-0.07097261002917604
0.142,-0.009055383253249609,0.004453432176654879,0.013186080056266085,0.005000490279737098,-0.011029565529409723,0.006409237092796261,0.01701973545033884,0.12052479502602811,0.07749135658396013,0.0438981348769555,0.08793020148027313,-0.060512644843723894
0.144,-0.03548573165346506,0.008535274130810932,0.04360027297528643,0.015798949459894164,-0.04013215253919621,0.023763929993327524,0.0282574588117112,0.1346932584139492,0.09025978769195088,0.05869436631557067,0.10038883591694699,-0.04943040236960555
0.146,-0.04392770922462089,0.012391055381981235,0.05606156268001217,0.01762624948751216,-0.051433991932051004,0.031937249422928304,0.036572765920503375,0.14627620269703198,0.09424866352872904,0.06974024107561085,0.11020264226730712,-0.041588417179818156
0.148,-0.02961183633902294,0.017487152973659863,0.04712284835030123,0.007581662209012222,-0.04054638174845383,0.030550001165155962,0.03752904853654624,0.1493532886746326,0.08926168012214042,0.0732105857287343,0.11532015597791101,-0.04008729922244808
0.15,-0.004273517586467603,0.025514502434411487,0.02993385681101032,-0.009041670202375058,-0.019499066490238432,0.026846999604129354,0.03384047264053029,0.14573080953648138,0.08437369868072396,0.07144180262097294,0.11657896500836129,-0.04470497592158092
0.152,0.012506861075361652,0.03391662499635789,0.02147398897305344,-0.021252600148738834,-0.006209573866846849,0.026941260765184327,0.0305307853648683,0.141790665505887,0.08809501935281261,0.07082384833156911,0.11700428948788441,-0.0502271536611948
0.154,0.01323563572573987,0.039781776664624714,0.026500471163440183,-0.024239254741495846,-0.007182519524708561,0.031365794882946614,0.029029329229632018,0.14162856319967787,0.09824466459737335,0.07474009309408008,0.11897922431994121,-0.0504607420153615
0.156,0.012187475242260595,0.04434472830292326,0.03210050369521302,-0.026060736883700166,-0.010032703215583269,0.0353487214903337,0.025824954063174928,0.1426197402923893,0.10355155407599928,0.07935290086171352,0.12086807438281892,-0.04531087707365845
0.158,0.025791031957030114,0.04861175670222965,0.02281815437238148,-0.035389405397651306,0.0004798328238823335,0.03285180701361435,0.017019090471411223,0.13861045249506918,0.0966527655392292,0.07920356190726874,0.11968127195376532,-0.04117361594180571
0.16,0.04617931856287512,0.04979498382877826,0.0036452562580956724,-0.046411103011918815,0.018952460875724938,0.0248790811792244,0.005285605652472153,0.12918065713001642,0.08372989041263192,0.07588473718708584,0.11740235712853514,-0.04100440482544941
0.162,0.04778721160680964,0.04724308882004859,-0.0005505277623654278,-0.045624066893984364,0.021772871257525316,0.022455641248667113,0.00029196440719456076,0.1234701435809174,0.07889842535218447,0.07815876228444277,0.12086456070914788,-0.0375380872047655
0.164,0.02107497834786473,0.046626706839586904,0.025433642851806007,-0.03162675943407158,-0.003462589038579851,0.035359923917044574,0.00880339820942612,0.13054335732016756,0.08917639171019803,0.09275852010663499,0.13407637869221684,-0.022403962675144187
0.166,-0.013643698208784258,0.052707262455784,0.06614222649017286,-0.01787205319285508,-0.040386112094033956,0.05844937187000737,0.025592851952383703,0.14789550337485521,0.10697285959894955,0.11567287324160463,0.15253911767642156,0.001060116619929905
0.168,-0.0283992447506448,0.06250766486960299,0.09081044318735014,-0.016526245263320374,-0.060387424216460685,0.07511495011516071,0.03805931324759335,0.16458043284790852,0.11870817998316952,0.1348006304377438,0.16701137982726896,0.020571664792918155
0.17,-0.014636141882943982,0.0703603960489859,0.0851698829992937,-0.027567407601913653,-0.051206288355134515,0.07553195100405294,0.03967840011861212,0.17374600165078205,0.11993545042763315,0.1428042602583367,0.17355793472221184,0.028970099310913038
0.172,0.011534576623581153,0.07522103959866551,0.06397137539247438,-0.04193570357994568,-0.027418641597589253,0.06704040612686188,0.0354732234404161,0.1769673506192904,0.11899319945884185,0.14414536069274522,0.178178084692907,0.031151062266172487
0.174,0.025637116478480493,0.07906464435678845,0.053545990111175584,-0.04959276629771722,-0.014744169333911332,0.06414973565636677,0.03378628055313107,0.1781162741460398,0.1244774742312801,0.1475064992977901,0.18881880113720712,0.03680361731074036
0.176,0.01903340955246108,0.08243496307076759,0.06331616108182482,-0.04769062744105356,-0.02272124375594787,0.07132078501791951,0.03577977270852975,0.17788339374487602,0.13345989360223004,0.15512424439835218,0.20415986287821603,0.047820244998642
0.178,0.008941161549156874,0.08521238391633675,0.07616144020474186,-0.044752589424168536,-0.03401432156652829,0.07926895106155807,0.035089819201941784,0.17420624019638423,0.13583346206098248,0.16203104384707032,0.21430216510368472,0.05516413278843156
0.18,0.018324346135374224,0.0887495948615328,0.07041628613429791,-0.05221622539414588,-0.026109770414279008,0.07808391042303245,0.027146757479056337,0.16639155118998922,0.12760329918068536,0.16331580536477844,0.21300506329879063,0.05096531605126394
0.182,0.04599168525686553,0.0944308027848863,0.048494246215488514,-0.06945403977560952,-0.001015448028465574,0.070087955179067,0.016185511358856316,0.1586904832765173,0.11630282893116775,0.15967227876937984,0.20598802931686286,0.04102516749255323
0.184,0.06714233179619934,0.10081403919294542,0.03372510671225055,-0.08294032102235882,0.01695737198315958,0.06582389149528023,0.010419328976581243,0.1574405908664289,0.11261493418696197,0.15636148928993443,0.20473250018546713,0.038729509337565325
0.186,0.0652288733049571,0.10442196975570708,0.03930950244394734,-0.08304731662754666,0.012780452106091036,0.0697941034670043,0.011916112867721278,0.16317987124388209,0.11828912656843601,0.1579976964952205,0.2139192354395474,0.04822114135338502
0.188,0.052168966188914395,0.10480036893060475,0.052934552937302634,-0.07647448831351526,-0.001464912420209987,0.07630695452339942,0.015207792877518082,0.16922044826593813,0.1254732011472556,0.16421352896353753,0.2279939973184238,0.06101576631840906
0.19,0.05051248961941584,0.10592555485465342,0.05583220299133686,-0.07689231281558408,-0.004667113973966927,0.07874409579696455,0.015236562717688905,0.1698683422133794,0.12797138263821153,0.17062753297740957,0.23944885995186496,0.0687184907382105
0.192,0.06369046613987624,0.11050756459577693,0.04708422004231934,-0.08682918441496398,0.006122098071090166,0.07759838637198126,0.012606640592062401,0.16656463264699906,0.1284346930618848,0.1742666475485258,0.2475278570702648,0.07281434088039364
0.194,0.0740444087353512,0.11646410909327957,0.0424233896095506,-0.09567875797408634,0.014288465273474705,0.078733806795773,0.010698626592201811,0.16468928537335492,0.13237915680562118,0.17639924976882498,0.2570506048802457,0.08051698988972897
0.196,0.06623571582623913,0.12049831429628044,0.05424534392915229,-0.09374987785454443,0.005084638878793764,0.08649615303060845,0.011151516918107396,0.16723801596505927,0.1395773116911739,0.17972400220983795,0.27041596070600915,0.09477371549056161
0.198,0.04577636610274293,0.12251597532353853,0.0769764974473089,-0.08376860269673721,-0.016677878376630394,0.09867337503200567,0.01258336750008601,0.1715019352486615,0.144346508928438,0.18423113002586497,0.28355807462438587,0.11041767177552278
0.2,0.035080295596435905,0.12553929477448236,0.09081730424221471,-0.07887736222954737,-0.029673502366126644,0.10743576839556407,0.011682586301878083,0.17089663497750515,0.14156183951971052,0.1863647524070977,0.2896925371412333,0.11894349644635514
0.202,0.04904634929212354,0.13180161434756194,0.08287355084831287,-0.08843582521374617,-0.01924281518430683,0.10726816378064769,0.006905923581407332,0.162586762161466,0.13092674276392996,0.18338915257304705,0.28645461633603636,0.1174655959787818
0.204,0.07433377888315493,0.13959447662303656,0.06512179552465931,-0.10543760918450229,0.002365184119626507,0.1025121724727942,0.0019124797556832294,0.1521627215766571,0.11797169504091876,0.1785465601993993,0.2792340565767623,0.1134373258301782
0.206,0.0820357678526998,0.14468670882701296,0.06251079033526134,-0.11273764995449882,0.007787038450636942,0.10307021729829151,0.0019098584482758402,0.14722080370289178,0.11109887117686909,0.17834995261481038,0.27600331232909214,0.11744968533983528
0.208,0.06376192538761821,0.1449672175132657,0.08110130800806173,-0.10398732882583202,-0.010801781479421391,0.11143080320544717,0.006247583672912988,0.1488591020795678,0.11396538872681265,0.1838617272601518,0.27894440461589803,0.13056542477627908
0.21,0.042293809332925085,0.14315982692118778,0.10077144704552281,-0.09179863248236554,-0.03165554916677771,0.1197087265716015,0.009444897327197516,0.15239498156806586,0.1209449183730865,0.1890649089941614,0.28416369333931735,0.143419102720779
0.212,0.04090414655190358,0.14438365826803418,0.10366961514240781,-0.09123520099885953,-0.03339083152046147,0.12186976883892803,0.009200370301296579,0.15343935273860226,0.12413424504358515,0.18934070053941865,0.28911949043359114,0.1491321885933083
0.214,0.05634228986232953,0.1509288673101827,0.09525668161541764,-0.10241062004759886,-0.020315020867555343,0.12168496629758135,0.007904478566882143,0.15099292168290268,0.12352172407792732,0.1868615474002215,0.29537999768201073,0.15109806684295776
0.216,0.06664324032140864,0.15924381194209497,0.09337824712155957,-0.11218136825754135,-0.013206480674221713,0.1257103570183017,0.007838207801180766,0.14704818703719078,0.12518433677816543,0.18598434710064435,0.304299305169076,0.1553029375443991
0.218,0.05504335101597014,0.16303403817957465,0.10831879699476771,-0.10823452068194025,-0.026295542187562634,0.13504329307089027,0.00951145540687308,0.14427824875867967,0.1303210454557693,0.18747560521463721,0.3140628700918712,0.16098084321934006
0.22,0.028357967300839435,0.16049503104465854,0.13196166081215505,-0.093105820826693,-0.05209698275346326,0.14459837775842152,0.011555092243927716,0.14239450542736173,0.13226338168959464,0.18810146465385053,0.31990755393386605,0.16283749389655416
0.222,0.014818927295514695,0.15592331657394193,0.14084014071268622,-0.08402061931373755,-0.0643772759503576,0.1457566039943266,0.00986098399174475,0.13782702404669095,0.1259720770913888,0.18347592999745196,0.31652883996499315,0.15863330237092368
0.224,0.03355345423766939,0.15299124712323867,0.1193741642278809,-0.09271379202254075,-0.04529098427332162,0.13339912940542176,0.0017946700530107552,0.12890722089703122,0.11443086323150628,0.17248233939051433,0.3042160007375911,0.15149120837098878
0.226,0.06893070317007861,0.15050327090492707,0.08154009071321465,-0.10965745574234932,-0.009115181687525899,0.11379934013151631,-0.008617663493536667,0.11861713606141559,0.10258265922672907,0.15963891528656368,0.29105284383715235,0.1458295342887135
0.228,0.08872175388895373,0.1462626395720315,0.05716285563562933,-0.11656230715539988,0.013356295267521039,0.10019792199774258,-0.014627138391776168,0.11055395547945462,0.0916607177716349,0.15082601130123105,0.28351155115177146,0.14236796426390538
0.23,0.08144506660510067,0.1419013131632154,0.05965747558563169,-0.10908889795663419,0.009265341693269934,0.09977144545077618,-0.013532909009252784,0.10626974793502222,0.08343412922250623,0.1478522433975186,0.27890177122528026,0.13910619458114507
0.232,0.06127898362518172,0.14135407946400644,0.07920894766322023,-0.09784571769213045,-0.010198186026665973,0.10959244720321153,-0.007005234009898,0.10697490316345024,0.08237966521784337,0.14916391381500596,0.2732317174200726,0.13705461524024334
0.234,0.04504826555064918,0.14566380844282886,0.10004579308070767,-0.09238263451910346,-0.02898527227870458,0.12228325366598825,0.0007258916992497573,0.11273188619007851,0.08853536821223945,0.1524579914562614,0.2698868661458943,0.14029523295966825
0.236,0.040044592628955884,0.15194402339036908,0.11167325094912003,-0.0941776043893707,-0.03756650234137112,0.13086966284321627,0.0044958860596846645,0.11969502254841186,0.09418809154923169,0.1543537752170292,0.2729964807030435,0.1489349736696159
0.238,0.045674978019652555,0.15600360919866157,0.11030081734560408,-0.09989344706221955,-0.033792054126554054,0.13140569969733287,0.002136703733940948,0.12140995646366465,0.09151446146342841,0.1507900383777611,0.27779601633787543,0.15636801112499607
0.24,0.05584586942060105,0.15462103553886516,0.09881324669905801,-0.1044997523215958,-0.022337560016814275,0.12454842284435072,-0.003779572146690387,0.11347986895102997,0.0798762616602939,0.14005358578044227,0.2747240714657462,0.1554929024234165
0.242,0.06562288782780575,0.14804329370522845,0.0824512077704161,-0.10574323060797529,-0.008823326350580363,0.11369242817059949,-0.009383327578800327,0.09760753994468653,0.06427300294965888,0.12446266422167565,0.26021744760868704,0.1449714430918348
0.244,0.07533779537488945,0.13965882663832424,0.0643222759733967,-0.10572433552456621,0.005060029847475743,0.10139037605163014,-0.012690441085715291,0.08141685707178088,0.049645308829301044,0.10846197507455806,0.2388679961854162,0.1285408776752521
0.246,0.08265108312488173,0.13140351566537123,0.04876085919796428,-0.10473779204465959,0.016113871111064,0.0894401627436442,-0.013350467680302925,0.07247946603981906,0.037954825511808996,0.09539480508034441,0.2177681493302666,0.11141650272731086
0.248,0.07641480734489467,0.1218744855447329,0.04558382118991375,-0.09721305286450299,0.01407506233464386,0.08191952968366902,-0.010997745417179199,0.0726951577038919,0.029224694257769128,0.086430081011539,0.20259931843845072,0.09889366104799663
0.25,0.04767536991202347,0.10990524126893787,0.06253892863599143,-0.07805055335944613,-0.009319741274670551,0.08333531184206135,-0.0049187767768686845,0.07845716366883883,0.023066835139057544,0.0814743862131578,0.19584830706533504,0.09444474470116425
0.252,0.009076698499107045,0.09814896943326586,0.08936905867226995,-0.05373628432265098,-0.04222761004161513,0.09076676862241198,0.0025590308321573716,0.08244361699491011,0.017169292907718417,0.07851944631738869,0.19387975994433296,0.09504467755944354
0.254,-0.00901705458073504,0.09097518471563674,0.09992103915589444,-0.04081571495667498,-0.055923631149165834,0.09312976566706106,0.004403724391964302,0.07715710681486301,0.00688962126858678,0.07297725346056136,0.18795777918071047,0.09151731632380201
0.256,0.006493230662593187,0.08851616980363573,0.08157200172791015,-0.04654525259075305,-0.03802904816149194,0.08367732501420976,-0.0032594589190770725,0.06292744043812178,-0.008667704812984806,0.06143049949023877,0.17280975405987864,0.07835942092391059
0.258,0.034212015371387954,0.08605273398881956,0.05143774688988509,-0.0589606166586751,-0.008836686269158444,0.06830706349385887,-0.014315933733490884,0.04925264915970173,-0.023686195844609268,0.04545631238631629,0.15271977840065798,0.06009068951930453
0.26,0.04600659685922411,0.08003265221662495,0.033989182985781574,-0.06245097697139881,0.005320785292726603,0.057204897741757375,-0.019333226744974362,0.044450964141227504,-0.03295003901678813,0.029856162362760823,0.1365580026575281,0.044560627848737086
0.262,0.034276098511536034,0.07141014410282862,0.037327183186871,-0.05302891525348997,-0.002650642226688337,0.054550833875593015,-0.014726241787034385,0.048851902601827805,-0.0365550922092683,0.01918623718020002,0.12894820930376427,0.034707763556295915
0.264,0.007924218300360712,0.0629714960297887,0.05514518479192889,-0.035694193739936916,-0.02502999988076748,0.05856666660849728,-0.0036537579690666348,0.05741619320721796,-0.037029689884644064,0.015294473862594705,0.12676631280757625,0.02858637741883658
0.266,-0.018679191685466886,0.05581814576642955,0.07432149359293394,-0.018059311184310308,-0.04830032642392732,0.06397869441327955,0.006581352701092959,0.06304822357356007,-0.03835312842276836,0.014507346661210535,0.12207555787629976,0.021999107820821037
0.268,-0.0316714976481646,0.048703243627156174,0.07996091492277041,-0.007203998580742051,-0.05770897940253852,0.06346154138922508,0.009412857517384394,0.06069188401101094,-0.04466356636333543,0.009183492788831746,0.10921346041281531,0.010429796448261513
0.27,-0.026739367541041746,0.04025601748153907,0.06657736211752974,-0.005196936310291803,-0.04796945322313284,0.05315021576932518,0.005176752526366877,0.052228354116288456,-0.054942491731630606,-0.004476992199952728,0.08987153635183692,-0.007517709302849146
0.272,-0.010674823426929343,0.031497778133022424,0.04208707081235379,-0.008929920021321931,-0.02682959119015588,0.036552046410881424,-0.0006027464994807678,0.043091262149379556,-0.06392194941918422,-0.022485242124405527,0.07016542561703999,-0.02848201208580576
0.274,0.008632401645608584,0.02465772121631053,0.016406357610004935,-0.015117577955046766,-0.004038209106396563,0.019851440422476434,-0.0056234723705998,0.03441826827437302,-0.07076011870330053,-0.03870234302044574,0.05381322331269115,-0.04711700229286858
0.276,0.025263963482384636,0.02005451918890328,-0.0046487916117917884,-0.02077356443792216,0.014116097655606157,0.006918778572198183,-0.01149530207413286,0.02482739633202353,-0.07993630834912457,-0.05028575739347476,0.04116436151185914,-0.05857326483088184
0.278,0.03099391583009052,0.01680298631555784,-0.013913056906022299,-0.021534716359419396,0.020648862066913305,0.0008891583935231166,-0.01598655427004298,0.017346206609104242,-0.09096899016154146,-0.05599057457118617,0.03364215799077442,-0.05924306760843272
0.28,0.01961243025426632,0.014781973914082681,-0.00503839510215212,-0.014758611405107399,0.010574366494425176,0.004245146745588728,-0.012967106567296029,0.016884382881701226,-0.09529935020595853,-0.05485845479032448,0.033786542167525364,-0.049868666077618196
0.282,-0.0047007870062869194,0.01332652983922549,0.01750571808630042,-0.0024079389380627435,-0.011658305157711314,0.014287226993029107,-0.001996613103808567,0.022669648097644077,-0.08797852205089615,-0.04897846127744213,0.04004740724952754,-0.03783138336422224
0.284,-0.028289822600629237,0.010845059064634805,0.03865336748669876,0.009987502049909605,-0.033193015581730385,0.023014913675621054,0.008660555358754696,0.028192263348930543,-0.07635717805098015,-0.0438505941280946,0.04559812649487349,-0.032561925525171745
0.286,-0.03687075759357098,0.007261895816490402,0.04395155286418007,0.01577409645837351,-0.04090424572745153,0.023436870947405927,0.010735624155033043,0.027250603507269062,-0.07258574194951802,-0.04498723932225521,0.043986531146462705,-0.038574621114090615
0.288,-0.025371312020880093,0.004128141191124205,0.02959271490504583,0.011549546512355886,-0.029639540488302977,0.014733198735434274,0.0042794809878573415,0.018956348359785352,-0.08081902018252717,-0.05461391079653172,0.034045661935221155,-0.05348916654832556
0.29,-0.0041934025901256,0.001406471173713247,0.005737736148960714,0.002392003518596647,-0.007887704842486654,0.002203871920796739,-0.0039132224374863874,0.007920719830087691,-0.09479089100099156,-0.06987945567687646,0.019372061457175686,-0.07063095989245488
0.292,0.00681175392487093,-0.0032975080758108886,-0.010086563002944,-0.000532920820475107,0.006236603190975058,-0.006944973492198971,-0.00826145841021859,-0.0005929547592334373,-0.10566725844027756,-0.08361938583128503,0.006404852403802702,-0.08279059549876848
0.294,-0.001786731760304739,-0.010707720292968475,-0.008982139270882702,0.007843000718117707,0.002292004452022191,-0.009482566343466257,-0.009037302785645707,-0.0052214427701214134,-0.10986688935553623,-0.08933690044803462,0.0016860072843933535,-0.08596500356681866
0.296,-0.019215263598253783,-0.017704035166665952,0.0014916661631792438,0.02032908514145789,-0.01179511456525897,-0.008148504011256729,-0.009636949153849036,-0.007805093911289397,-0.11092489690568642,-0.08728614354246149,0.006310807911205543,-0.08138426070344038
0.298,-0.02995825690783219,-0.02079627736287289,0.00930644910584756,0.027079786552973394,-0.021871366653077238,-0.006822124089935969,-0.011411177321006619,-0.009864222003273903,-0.11498527991054558,-0.0838562412954278,0.014495479656115008,-0.07366819462609592
0.3,-0.0294135278806857,-0.01961990854241612,0.010149819269973128,0.025688138628814937,-0.022356227903602775,-0.006589808954058734,-0.012593766572327567,-0.011549858957814324,-0.12291453047120063,-0.08431464273742122,0.019483801880310448,-0.06730318863143567
0.302,-0.020887320939172945,-0.01683324195618911,0.004505191418808897,0.019737915067852954,-0.01479474043171859,-0.00816481216062422,-0.011677088053834904,-0.013189198740977725,-0.1288122129175444,-0.0885885505249797,0.018045124722651528,-0.0649146825848921
0.304,-0.0085035485499352,-0.015601873140780362,-0.0067020787528313756,0.013341599358578695,-0.0022008937984333995,-0.012986070217119382,-0.009810969835682248,-0.015807671240823055,-0.12938718187274523,-0.09362419005486151,0.010634890264639329,-0.06687208986357494
0.306,0.003404921965467826,-0.016733961444189347,-0.019693454328295546,0.008834149570560555,0.010836641949286704,-0.019865461840508324,-0.009131368439250121,-0.019765762002716646,-0.129796175050749,-0.0972407998721661,0.001416052837607108,-0.07155807211486688
0.308,0.011851730158805108,-0.01857634900668975,-0.029668319325467398,0.006162304293512872,0.020269697624141818,-0.025639666162085743,-0.010471604751492714,-0.023888612021954556,-0.13555781236262063,-0.09987540278324525,-0.0046285291194811074,-0.0770384493526258
0.31,0.020208974089222745,-0.019329391838910394,-0.03843645110406303,0.0022543273845999083,0.028675985348580194,-0.030263800786205775,-0.013691165520863548,-0.02735814934606552,-0.14509976684510864,-0.10382556324539421,-0.007983262907372302,-0.0827741747264018
0.312,0.034090939526147834,-0.018710363721462245,-0.05162025516208391,-0.005796091725232187,0.04174066670115308,-0.03616327745164577,-0.018257235367296742,-0.03150675658322123,-0.1540973715998426,-0.11031593490427503,-0.013553614108058958,-0.08860376381369091
0.314,0.04557104046728841,-0.018246325820825648,-0.06282007448541528,-0.012851456450823123,0.05284501007647873,-0.040858304470234544,-0.02118055220308843,-0.03583336206582449,-0.15917045266605823,-0.11575268134043247,-0.020350489257220918,-0.09117041428496374
0.316,0.03189997858426988,-0.02002659858270151,-0.05128705994372177,-0.005789488346975224,0.04079414491339391,-0.03560813235861262,-0.01600648507207162,-0.034021257132317184,-0.155276248767936,-0.11209196292955283,-0.01831406983498308,-0.08397755291283268
0.318,-0.017554119437405886,-0.02434388259173861,-0.006678774391062736,0.021349631527765072,-0.005340296312783996,-0.01593342241286713,0.001048213878874619,-0.020948818979040842,-0.13908446541888472,-0.09541572102470067,-0.0008730462558598591,-0.06509732688382777
0.32,-0.07938165602529348,-0.029065765587538414,0.049871432279836654,0.055354133019897236,-0.06421211308313576,0.009086552548385663,0.02303780491174249,-0.002635695409579697,-0.11734923021155952,-0.07431927473958405,0.022837244587816864,-0.04379296890360744
0.322,-0.11475614452399274,-0.03211127155322331,0.08191927812311899,0.07484752045236147,-0.09823934045220797,0.023206162857321515,0.036270326658053104,0.007651888731725651,-0.10446865305219363,-0.06398751937239242,0.03429237024588931,-0.03489813343798072
0.324,-0.1089429607575949,-0.03327300280601478,0.07501983543841774,0.07220593085731142,-0.09213291342138592,0.01947649097345327,0.03477473903369376,0.003438353543447896,-0.10893334289960463,-0.07024220886593857,0.02444898211711057,-0.044934620639892356
0.326,-0.07884091947091593,-0.03281627869857787,0.04558473034740467,0.056761169749354475,-0.06226277645173839,0.005201904411846615,0.024637553494111585,-0.009586904571462315,-0.12603606609821805,-0.08528430837332025,0.0016026490215129705,-0.06657515665980178
0.328,-0.04510202511655715,-0.03053114631765143,0.014299528972495866,0.03917733151166206,-0.02966425823530339,-0.009575648481594349,0.01337112244609369,-0.021935813064784607,-0.14448526589746602,-0.09944214541815696,-0.019669520871540894,-0.08728639465672201
0.33,-0.01748127814009156,-0.026584145339397493,-0.00922705200890928,0.023885933405843388,-0.0043705666063234665,-0.019435996343826936,0.004307591259934681,-0.02848175183279749,-0.1552608044618529,-0.10841146924546985,-0.030188771710023227,-0.0983540005777228
0.332,-0.0020059765553703673,-0.022104146530725708,-0.020084083085224014,0.013797386223200573,0.008279588794242232,-0.021873997480023142,0.0002245470126543206,-0.028999252596916568,-0.1554136037937636,-0.11054578085034135,-0.02798983399294384,-0.0974413273537477
0.334,-0.0002817184283096262,-0.019727372464604775,-0.019374094889850126,0.011118861660431929,0.008592179245027524,-0.01940875431551746,0.001916755356004597,-0.026812159033360476,-0.1501061270122176,-0.10712409872616668,-0.017836548179010408,-0.0900471150553122
0.336,-0.006525046816238371,-0.02200802434291862,-0.015448957265510528,0.014966987864906214,0.003943471779833129,-0.01866633477814939,0.005416281776806949,-0.02622410393274935,-0.1482393646208783,-0.10305494721906089,-0.008639565736362863,-0.08573602936256973
0.338,-0.01536751472626001,-0.027467877974388686,-0.012142278603171701,0.022481480793003737,-0.0015700794946241227,-0.0210279844620084,0.006739020152348455,-0.02837322114186433,-0.15208568176851683,-0.10216726357746674,-0.006808397607025317,-0.08856802170665713
0.34,-0.024535229112697527,-0.03125885381662391,-0.006883071037613359,0.029672623881297894,-0.008741661706426736,-0.021649186747019492,0.005530233564063146,-0.03144136172260758,-0.15693204614488696,-0.10498186495980574,-0.012594676215989132,-0.09476904526031737
0.342,-0.030897037102205642,-0.031079173496351573,-0.0005124720280755546,0.03286629580164588,-0.015505658217148926,-0.01863773290524566,0.002962321795236954,-0.03425818512641892,-0.16046479704868702,-0.10997495303936151,-0.021798448357654474,-0.09957086949596836
0.344,-0.03333182511424529,-0.029478236478247894,0.0034448110092127784,0.03264008252123176,-0.019121861599699634,-0.015286768649011495,0.0003242822431341521,-0.03678169506167272,-0.1642605036778929,-0.1134532297823306,-0.02949155002767596,-0.10205713649430873
0.346,-0.0339419157057268,-0.029507683137362996,0.004186892211090999,0.032302604972406536,-0.020063295298421283,-0.014535760648470567,-0.001007120514999484,-0.03823276677429911,-0.1678488368466057,-0.11171021827903777,-0.03340605476033006,-0.10361826745838276
0.348,-0.030660734557912996,-0.03077612424766613,-9.332697446968932e-05,0.031283442726547726,-0.01629786490566556,-0.017279233453347576,-0.0008121859220983802,-0.0376473700967795,-0.16888664407624704,-0.10590803939044997,-0.03472560488967979,-0.10513970375609294
0.35,-0.017078096100181465,-0.031441415820055045,-0.014223716993146516,0.025639146092635894,-0.0023046604778127104,-0.024477928215078406,-0.0008387931166208506,-0.03668293681411863,-0.16809158546972047,-0.10205075453882423,-0.03664133884266216,-0.1073483786718808
0.352,0.005271565004066206,-0.031707181876530814,-0.03693845918954892,0.015713472083619163,0.019998679488084495,-0.03541987244073226,-0.0032794779277344243,-0.0392473343475884,-0.16850842733025526,-0.10421305687692556,-0.04162482091197121,-0.11105660217816093
0.354,0.020003168362761274,-0.03277720202191332,-0.05297684854522458,0.009206489039101281,0.03458318990453872,-0.043499686807403584,-0.0073296981220922885,-0.045645200807340774,-0.170506129875437,-0.1087713980606541,-0.04715645195063094,-0.1140109940303521
0.356,0.008392927115035394,-0.03401816474134808,-0.04294625688724785,0.01479975095724544,0.022996125460857615,-0.039082488180352516,-0.0076741916040670086,-0.04905094916280775,-0.17124765752342005,-0.10754971016117855,-0.04564885554789128,-0.11039253364719648
0.358,-0.02767329963576989,-0.03316684800738508,-0.006377715233465525,0.03154652693214842,-0.01342283248914787,-0.020556616356688675,0.00014866418701047995,-0.042462772359249584,-0.16864849129971418,-0.09762076492536004,-0.03337333425487181,-0.09813367055584112
0.36,-0.06074190092960248,-0.02907557477664931,0.030688997075382612,0.04628215031825445,-0.047895899054755595,-3.426445005103067e-05,0.01205420412095028,-0.028665482783234976,-0.16399759963439434,-0.08600697089309005,-0.01774707604058453,-0.08517683345134187
0.362,-0.06460028725998723,-0.02437202647177229,0.03959081568582564,0.046804500028341106,-0.05331833975175022,0.006513878466457432,0.017663079389825066,-0.018390327122101337,-0.16124738514404405,-0.08270809832923601,-0.010859721866870687,-0.08275150911994773
0.364,-0.043388623479311855,-0.024583352755904998,0.0187129878203635,0.0367695083040623,-0.031411331313913014,-0.004744363164429308,0.012416568732690229,-0.01830202869294951,-0.16375783195777555,-0.08990509065603393,-0.016774732210290834,-0.09232098665968884
0.366,-0.024886079064567277,-0.03239767048331247,-0.007289022178905109,0.03092584496828108,-0.008812226665675259,-0.022109005511903382,0.003426870502790745,-0.024648816833865415,-0.1701525687022756,-0.09997129275706176,-0.028350227882441185,-0.10426739524050543
0.368,-0.02566456992235827,-0.04303904296113311,-0.017234836193269893,0.03555774600516612,-0.004577360576167578,-0.03185658373022373,0.0005003797750538052,-0.029487359201904758,-0.17464051823333576,-0.10443111923261686,-0.03622430509112604,-0.10993662847019012
0.37,-0.034421507991065414,-0.04754775884304778,-0.013290911570062866,0.04138515762603667,-0.011891427048338572,-0.03106444283709319,0.0050616956296972646,-0.029992130184012287,-0.17405836469357575,-0.10249977508405202,-0.03830547756822418,-0.11034231880861711
0.372,-0.0344731099979721,-0.04160801071700836,-0.007563456799421751,0.038627803012741116,-0.015868392823146678,-0.024617219810583037,0.011553771206745484,-0.028781875614527812,-0.17149416416997448,-0.09895448098693174,-0.038180271769948974,-0.11102727305827495
0.374,-0.02888257430187623,-0.030660560056474995,-0.002231125823684724,0.031245653913762945,-0.01601399691047606,-0.016610637767924034,0.01562176925931795,-0.02760249641960427,-0.17036648799349446,-0.09684246086022044,-0.03719401489994058,-0.11271600962828039
0.376,-0.03049295203095074,-0.02487915779742245,0.005376381809927005,0.029666139512662504,-0.01953896223636047,-0.01049325131840731,0.016171710445680332,-0.026140988552549357,-0.1702231309866978,-0.09585681952721174,-0.03409964523658431,-0.11205763081947143
0.378,-0.03596497837301428,-0.028264537191385077,0.007630466824670798,0.0337476551577082,-0.021703242582923783,-0.011615234666729644,0.012635940251082358,-0.026477243549812547,-0.17105058031282505,-0.09592537143423333,-0.031161926240761934,-0.10949924201431173
0.38,-0.02574236333768893,-0.03524767495612293,-0.009669800130477904,0.0314522910434699,-0.007067385200507511,-0.023752017217746283,0.004164619444837988,-0.03326968114641442,-0.1768944120994677,-0.099602631990065,-0.034008627153047685,-0.11094289310462958
0.382,0.00923563986217157,-0.03939333448788388,-0.04887878275852968,0.015741711260827285,0.02948394507157151,-0.04480968137947976,-0.008694261987089238,-0.04730544875032958,-0.19143149906941653,-0.10944539731233574,-0.04415980857675568,-0.12045585945546165
0.384,0.050784847021508414,-0.04036984083472471,-0.09113669257884816,-0.004170680277931726,0.07026024169925646,-0.06597341351292804,-0.021538652177113773,-0.0611839608273297,-0.2101503022869697,-0.1219276809594874,-0.05554598663416701,-0.1337798772757399
0.386,0.0660621250234006,-0.04031918654739469,-0.10598129472690361,-0.011165838667332725,0.08488868063483392,-0.073667229759848,-0.02610336028299671,-0.06367278938047896,-0.21980486932430407,-0.12650416313971602,-0.05949952898762329,-0.14078258130491605
0.388,0.03473668176331462,-0.03919458421500202,-0.07352396397063955,0.004230722739650795,0.053502053063738134,-0.05734486195177731,-0.015796325399749907,-0.04861488991677868,-0.20957053226569722,-0.11455162675434236,-0.051578902784908766,-0.13435360155394085
0.39,-0.029354883494997108,-0.03615633579023452,-0.00673487432539021,0.034501638517859035,-0.011450957223764146,-0.02227806380118644,0.005970598956847126,-0.022024856885063594,-0.1844453997677056,-0.09013046502076782,-0.036316118888448365,-0.11828529266191849
0.392,-0.08206414019460967,-0.03242126838479535,0.049461556962793043,0.05843149230275235,-0.06619345652349723,0.008027096400142254,0.024688555874221117,-0.001509578062847415,-0.16477708047279443,-0.06964263492258417,-0.026821896923178042,-0.10697363414866935
0.394,-0.08783542405275048,-0.030843148313983236,0.056861883815675064,0.05991034261421751,-0.0736159960682636,0.011955345356443454,0.02757351219508454,-0.0015152522340609847,-0.1664969949944437,-0.0667161316143858,-0.03282059705864593,-0.11231296439378961
0.396,-0.056563541931239754,-0.032644063762330956,0.023952524233278996,0.04487496841062714,-0.04210500135766801,-0.006778498914450034,0.01751346501327559,-0.016460605872828705,-0.1824171015383571,-0.07783579838769138,-0.04774430883128043,-0.1292086366169336
0.398,-0.029005924824995602,-0.035078746813550714,-0.005964204751319695,0.03258963743546917,-0.012977337768413581,-0.023701420968689282,0.008842152929976269,-0.02713812809890496,-0.19139769610031412,-0.08773285040417772,-0.05584092688479417,-0.14074258686612126
0.4,-0.02777558483948868,-0.033827736044107784,-0.005897083901754691,0.03173349422602087,-0.011293296710331753,-0.022162144051662336,0.01005422258512408,-0.024297863510663226,-0.1847436907682671,-0.08752754956546199,-0.051608836201008444,-0.13857339090818496
0.402,-0.03907634126770395,-0.029078658638497512,0.010289313928102952,0.034956138096654744,-0.024519938585909545,-0.009962586165699503,0.01624490931115405,-0.016095021261319644,-0.17355616434224957,-0.08196803847611643,-0.04443636334019045,-0.1311202000551743
0.404,-0.04243880115031682,-0.027217837549138337,0.015613522081652214,0.03546798131079637,-0.0295507422473423,-0.00536642146542567,0.018306777273438758,-0.013352253378126865,-0.17084185264206134,-0.0801223521807951,-0.044870262430104675,-0.13080874270554393
0.406,-0.03645596214346216,-0.03322464084553483,0.0034920214095076384,0.035454670328387096,-0.02133628549905211,-0.014621845755596483,0.014092734184883738,-0.017421619795647856,-0.17665980121732414,-0.08463817577900712,-0.05289943673390263,-0.13945024158631283
0.408,-0.027749150158600737,-0.043148481397994556,-0.015406150833092663,0.03616692191443431,-0.007520393799514807,-0.02957006648563057,0.008556213654281015,-0.022795166471781217,-0.18352873290385643,-0.09073636289658575,-0.060701808747265114,-0.14872154964055065
0.41,-0.016666511836351722,-0.04783720837441906,-0.03131030339446936,0.0330695765695268,0.00630486848781822,-0.040114099524286184,0.0065589844193868095,-0.02449558011873416,-0.18758127920217343,-0.09203054376715775,-0.06203625848723247,-0.1512439651758529
0.412,-0.00662151202199523,-0.04373116304140052,-0.037180198239451394,0.026007372238550125,0.014159334778714432,-0.04112411671491111,0.008524295705284072,-0.021516066825088966,-0.18899792667269694,-0.08673123303363393,-0.056422233578461656,-0.14722199444505318
0.414,-0.008936524104585834,-0.036838626142125186,-0.027862851583245418,0.023444560719342648,0.008261360024284282,-0.03310119781783329,0.01196504808258431,-0.01630127419424395,-0.18816047884389006,-0.07944988614202354,-0.04741770547523026,-0.1413142892689206
0.416,-0.024310109481113666,-0.03460251476348077,-0.01023527198941553,0.02948272336932749,-0.0076634432975463355,-0.022998976532289828,0.014444423642067897,-0.012524590114248996,-0.1870427969267393,-0.07643151806548894,-0.04026279985955629,-0.13745481748435634
0.418,-0.034917318029947964,-0.03689627689043524,-0.0019727019730364686,0.035595755251172166,-0.01650593490295923,-0.019805805748970368,0.014236214257340854,-0.013040888698206254,-0.18956402194393365,-0.07952275709030682,-0.039203978143687986,-0.13767530858798677
0.42,-0.026776699116378932,-0.03808331161135858,-0.011334652138218835,0.032515046506511915,-0.008230756218561574,-0.025269181312472477,0.010620647978951946,-0.017976487703727187,-0.19566316363940095,-0.08549250335406698,-0.04382441655553019,-0.141840641869293
0.422,-0.006754841977898928,-0.03533939080215358,-0.02860135427638845,0.02233486938156822,0.009202973866797007,-0.03308782554147407,0.0053354195297627745,-0.023749450664108288,-0.19935546723012912,-0.08992237715275003,-0.04933675319079648,-0.1470443762783459
0.424,0.0072375302874396405,-0.031220516758431273,-0.03847273078365606,0.014420952423835589,0.020558698385024932,-0.03658653863099027,0.0024319378860855182,-0.02541113235690004,-0.1964973755642371,-0.09025054483138419,-0.05090448213417042,-0.14935284682134486
0.426,0.001750262516621798,-0.028915719391972766,-0.0307846676093017,0.015942018922667573,0.014382795495655715,-0.03213896261611529,0.005456518387503721,-0.020359311421566065,-0.1892969129514908,-0.08544623369672924,-0.04561232658218475,-0.14621430244074948
0.428,-0.02180487015351564,-0.028502372858558105,-0.007044788228525212,0.026364824370880013,-0.008695043014939709,-0.020452191142190348,0.013922025596490516,-0.010712016371804516,-0.18146223995196986,-0.07642943512889899,-0.0340908464241838,-0.1386719837922148
0.43,-0.04374830754311112,-0.028847262209796755,0.014319283376439491,0.03659340352068283,-0.030139269480900725,-0.00999483220089658,0.02192408595322175,-0.004097590612613648,-0.17601776615551012,-0.06863427626931116,-0.023658949558802666,-0.1332310827841339
0.432,-0.04454223446033706,-0.029784306350825067,0.01401776312407401,0.03732589894927798,-0.030337803941854164,-0.010149852974591393,0.022776991690898894,-0.008238564921575386,-0.17684762150404343,-0.06876933603143498,-0.022991969049763413,-0.1366785946528793
0.434,-0.030839984862473396,-0.03064124352965479,-0.000655591425345948,0.03095571891224228,-0.015974701904913024,-0.016965779528906225,0.0170589457830556,-0.020330244451333312,-0.1838240838592132,-0.0757417488727886,-0.03000868364112326,-0.14614788550174784
0.436,-0.02632639877211414,-0.029651263473211956,-0.004159900823377283,0.02820212701245134,-0.011718456694671867,-0.01722915966495641,0.012230376238614858,-0.02754938358801669,-0.1895416792125642,-0.0806362293609339,-0.03320498702944856,-0.15093151203146066
0.438,-0.036142042546684634,-0.026185755767167695,0.009498951812659773,0.03163602089906638,-0.023436059571304155,-0.008190053480826758,0.012269362603755071,-0.023117119197878986,-0.18820972720422557,-0.07871807840679367,-0.027441197015011035,-0.14594952490108049
0.44,-0.04198066059350123,-0.021969492030720163,0.020207152564636833,0.03272873273299344,-0.031931972009353216,-0.0008892110778560291,0.01315071901616819,-0.01486913188798613,-0.18312512593590968,-0.07498170641627082,-0.019452001579515477,-0.13619547484248468
0.442,-0.032894871313641105,-0.019954905288334632,0.013539918317370551,0.02693258487446643,-0.024326932899535112,-0.0037966806978171324,0.010566909965365384,-0.013010917701005289,-0.18030661723218397,-0.0747244029250357,-0.015885334366737724,-0.12779495919069395
0.444,-0.01945632081664451,-0.02217304546472114,-0.002322168248080483,0.020753070772778017,-0.010107348472848643,-0.013617522463684544,0.005785261273892454,-0.01725037522051183,-0.18064159951104658,-0.07591561014503351,-0.01503730633387528,-0.12238853596961086
0.446,-0.014531500983339912,-0.027610642263527368,-0.013267182767066175,0.020844801612191505,-0.002714019818552897,-0.02226990579164323,0.0017875561882839284,-0.020975630693581857,-0.1821838610889762,-0.07484832052054877,-0.012829870077601158,-0.11999717935143502
0.448,-0.016654911921719258,-0.03254388674685743,-0.016582731674545593,0.024894205373176187,-0.002235262554119363,-0.025916545514948947,-0.0005652514238395275,-0.020776346007407763,-0.1836064268263955,-0.07227278159172365,-0.008863538465603426,-0.12035945132408764
0.45,-0.016881901271775548,-0.034327528821174194,-0.01829691810026568,0.02671295318263836,-0.0011198454710166824,-0.02666642402802109,-0.0015279206784788064,-0.018133325220656235,-0.18356256041745425,-0.07089207195173772,-0.004670620699182133,-0.1221094840454065
0.452,-0.011564635032496828,-0.03398992724118772,-0.02302732383688139,0.02442877015971317,0.004165325646754977,-0.028529370128969025,-0.0018854674037557472,-0.01677993397963108,-0.18331904031658935,-0.07226002582742024,-0.002067308316761092,-0.12503806614159974
0.454,-0.0058947599799856944,-0.03445347164654889,-0.028697207618713808,0.02180387566951721,0.009916156215560997,-0.03207920481874277,-0.002147847277274868,-0.019003025334704906,-0.18732125404741776,-0.07617375726688701,-0.0028373766888186037,-0.13029404254019186
0.456,-0.010328599459415822,-0.03774461674375539,-0.02724203138282721,0.025074223656616337,0.0074959962122864805,-0.0333057275366807,-0.0003487270419642526,-0.02243204163631001,-0.19498615050804285,-0.07986478915479689,-0.006353541751007686,-0.13619166981897649
0.458,-0.029264748877266728,-0.043444142237405996,-0.014018866749534314,0.036527278171720204,-0.007582916165393316,-0.029299425331005234,0.005351618127309533,-0.02341445402688187,-0.19900661955055507,-0.08056266081580607,-0.009909871910874637,-0.13837372923875935
0.46,-0.0486997585495579,-0.04817592565390192,0.0005163945694799708,0.04805622242496314,-0.02403136648285398,-0.024343039328358705,0.010789242652817393,-0.023755918947016487,-0.1971642514217044,-0.0804263349477399,-0.012613750932880785,-0.13606641469583414
0.462,-0.0464265356367236,-0.047955525207777766,-0.0016168121286891316,0.04704956592943458,-0.022351632047897654,-0.02598422336513444,0.008573583244276135,-0.028476328961006714,-0.1972382702949529,-0.08390972780744567,-0.015252150729963884,-0.13394375142904819
0.464,-0.021137208870931297,-0.04255837055611519,-0.02148127166256766,0.03269704656025107,-0.0007142863075878247,-0.033987058734663934,-0.0011838016290857678,-0.03667972461046139,-0.20500755703144555,-0.08902363549339064,-0.01621047660665559,-0.13489435580619102
0.466,0.0014009060814849429,-0.03638303877996203,-0.03788610381194942,0.019352790832968782,0.01834450140180881,-0.03884036670740745,-0.00868860017733722,-0.040863359498409635,-0.21437049067039737,-0.08783907090902654,-0.01154453032785373,-0.13441722200622355
0.468,-0.0030209735914078894,-0.03358130892772891,-0.030853149128998288,0.02039519148025072,0.012743156180960174,-0.03266866009979386,-0.0055639824487855195,-0.036182782542161604,-0.2144437300400992,-0.07726850075261711,-0.0003004488348838823,-0.12677800593862468
0.47,-0.0325331846211114,-0.03329133403036612,-0.0011801199836712563,0.034686823544181906,-0.016929266139102683,-0.01670685082883929,0.0059464243576926815,-0.025866978758730497,-0.20321473223753092,-0.06334087565486955,0.012050981364136883,-0.11491759007321746
0.472,-0.0651181746845749,-0.03208081545385882,0.032763262471339226,0.05036906315410987,-0.05078484936445773,0.0007822916816033058,0.01659566349151247,-0.017156982636511484,-0.19077496413215236,-0.054076210958464224,0.01681805968681952,-0.10882096973712854
0.474,-0.07857857322056322,-0.029836083954779654,0.04875895975457146,0.05623856543823057,-0.06589001917237491,0.009275310905473483,0.01901748110541361,-0.015562215939636467,-0.18938373016760437,-0.053628900667121296,0.008474779684825875,-0.11399941622995131
0.476,-0.0636130813091939,-0.029262111791379986,0.034502495790271946,0.04829748505030822,-0.05072927929752392,0.0020670498071293534,0.01175730787042885,-0.022674968264757966,-0.2018099906740887,-0.06281795213784602,-0.011344822921754259,-0.12590786118161124
0.478,-0.02907948136616667,-0.030744672725768953,-0.0015942177962642067,0.031340628303398954,-0.01436136353146678,-0.01681062096216587,-0.0005890543762227045,-0.035130299049834265,-0.21953051574730603,-0.07840678926243391,-0.033342279088390894,-0.13531489523722423
0.48,0.0027233136375830885,-0.03169937855179796,-0.034468243646282926,0.01589910555256714,0.01867235645962436,-0.03389522532839795,-0.00999286700064702,-0.04586780846149313,-0.23186134483502696,-0.09210019896959674,-0.045802096392920134,-0.13640929754250847
0.482,0.014558326319327417,-0.03055223507588369,-0.04517093699849902,0.009616789053998591,0.03009008795847472,-0.038839045353482586,-0.011703304383697875,-0.05063376537029684,-0.23639632367929458,-0.09695671219083477,-0.04539545357735611,-0.1312959034461328
0.484,0.008399114195980915,-0.028884108347791374,-0.037287589518813516,0.011742939393269952,0.022989452210947853,-0.03399558905074316,-0.008276194086369914,-0.051948168730959976,-0.237903900980701,-0.0941708469998132,-0.04023768927927518,-0.12690258393542747
0.486,-0.0015875598683424965,-0.029213379255975593,-0.027617047238080696,0.01659729594699952,0.013084498528552873,-0.029211494592633357,-0.005137405787124174,-0.05363996100787551,-0.2384556377531826,-0.08937019326873803,-0.03880166015858249,-0.1258579700160443
0.488,-0.0033232254574061372,-0.03109041799807735,-0.027859518251147054,0.018298498812563575,0.0121565245127577,-0.030205804919479478,-0.004259120879415676,-0.05503431870923139,-0.23602783266328387,-0.08546936144426565,-0.041553960509100214,-0.12404427486541701
0.49,0.00563325504452471,-0.03035786425015515,-0.03619581969778093,0.013521670924513398,0.02031910735633005,-0.03374770641968942,-0.003177258353531937,-0.05266567005373249,-0.23125324736003627,-0.0818990075908179,-0.04484443966121943,-0.11812096515082948
0.492,0.015082712437849631,-0.02382961207790557,-0.03902091507209247,0.005655080177444722,0.025939854214876344,-0.031614417420374866,0.0018827563049107435,-0.04448897600775745,-0.2269254391814838,-0.07663066528069143,-0.04500341056124232,-0.10892222359037211
0.494,0.01110502099483288,-0.013624560804290793,-0.024564228337887507,0.002785188784592083,0.016622388718042197,-0.01946510678254777,0.01176765561878403,-0.032215396919413754,-0.22237938455333253,-0.06776869607437426,-0.038622904698108564,-0.09764301570775637
0.496,-0.0049699210610866795,-0.004612106647221758,0.00064552541859007,0.006537817029606827,-0.003794331770742494,-0.002767644699072428,0.022310716515017853,-0.020561520020564796,-0.2148417801983154,-0.056256494863395984,-0.025780611788629105,-0.0853808960125906
0.498,-0.015703757380824898,0.0014446458707045094,0.017272563126588668,0.008566515430615484,-0.017203895528258784,0.008654533495656237,0.028208199456305445,-0.013214757190340347,-0.20540779023275263,-0.04626635053933422,-0.0123754812355618,-0.07544330660982099
0.5,-0.009382133846256514,0.00679749322595706,0.016095428853098157,0.0017961073245581815,-0.013108902829942646,0.011334212145773341,0.02888544378649858,-0.010503373415907093,-0.1998419313815754,-0.041157415371338546,-0.0057174270742002655,-0.0716899434930187
0.502,0.005499184190067852,0.012433977184784529,0.006822471949735484,-0.009229147831214514,-0.0006979641436486848,0.009950290696867807,0.028354854615974357,-0.010439769501965216,-0.20229612183118584,-0.04024606006449097,-0.008202359538014238,-0.07495963926895001
0.504,0.010262558185044042,0.015215314965269327,0.004941929781689076,-0.012726140874257174,0.002530216367851684,0.010316269610944529,0.030474644501284714,-0.009493426197958421,-0.2091412939135337,-0.03988840794150787,-0.01539560335995839,-0.08186592566533878
0.506,-0.0010179906017660034,0.013721743016038995,0.01479535729123431,-0.0050526757216951676,-0.008666409576602732,0.014040583492892177,0.0356570144089589,-0.004750441454581071,-0.21112467607109056,-0.037126871241588935,-0.020152849048270163,-0.08708738648910173
0.508,-0.01445676530377394,0.013386316790094078,0.02787579566979296,0.003087711321769761,-0.022602827216010608,0.0198311639863363,0.0411178774832809,0.0028441518452802126,-0.20120379658097318,-0.03213694238703401,-0.018616476852162764,-0.08740421004733226
0.51,-0.017354998748193448,0.02050353883262803,0.03784395660479708,0.0010207478784769067,-0.02935663308206814,0.027939572861075245,0.04507981401785725,0.010397604629187842,-0.17798419597356785,-0.02619510675860253,-0.011168003714753825,-0.08291944335221381
0.512,-0.014564085556675668,0.033163316842736885,0.04770260631396137,-0.008017804358717621,-0.03288607147156934,0.03913195252195938,0.049375306270111406,0.016779543545283,-0.14474696589402047,-0.01922604547804594,-0.00046768612019528616,-0.07552926397494977
0.514,-0.015421198941961534,0.04250371393060918,0.057921014150916314,-0.013864794531677152,-0.03819009828829075,0.04902747470484967,0.05470769956331018,0.021508237355587965,-0.10882551723009669,-0.012242542992783456,0.008251240408037123,-0.06819788881845028
0.516,-0.018824326115916255,0.04322361780031062,0.06205960655410983,-0.013208751590062122,-0.04169196427905488,0.051264718857864634,0.05816485606603429,0.024164260264246045,-0.07757149184735347,-0.008182303225448816,0.010062398685413108,-0.06306125351896119
0.518,-0.02051056813792411,0.03904274834457795,0.05956101395826417,-0.009709797130088023,-0.04127348483456238,0.04732049401516583,0.059743271966270384,0.026937453572597428,-0.05275946682208409,-0.007380462516182972,0.007118292237606357,-0.0586179921442228
0.52,-0.023941839891115358,0.03529705415729153,0.05923620681184772,-0.004997375060319833,-0.04304520105959406,0.044803336984891376,0.06427612091633406,0.03302494230320854,-0.03274782959282073,-0.006908638550380739,0.006800880553891498,-0.05202491418046441
0.522,-0.034108792715461196,0.03176933969478419,0.06587264846910426,0.002415280479844983,-0.05170586185419267,0.046493406982344214,0.07304273298285927,0.04161183974522174,-0.01745966785684143,-0.0054761422844095305,0.010961459243946634,-0.04454399705613902
0.524,-0.04567516666556219,0.02738915865138639,0.07306317240818662,0.009963063507674914,-0.06131376678662187,0.04861979353696692,0.08029441979898727,0.047913788278851135,-0.007052486748680304,-0.004806445881056989,0.013142206254468254,-0.04150962786171165
0.526,-0.047140623865222706,0.02511756193176727,0.0722386881684452,0.011291287976186778,-0.06169090121737089,0.048011746103922455,0.08040740531241909,0.04827328382805307,-0.00021784342918408986,-0.006280308319055312,0.008063577438174345,-0.046085286637694116
0.528,-0.03465544657955019,0.0263706717964524,0.060874658573311514,0.004886652690268438,-0.049487798263934485,0.04350968917591695,0.07232071990135526,0.04211287963741348,0.002888054425014857,-0.010156410018680414,-0.002698221492261697,-0.056058399318711205
0.53,-0.013224038405304952,0.026610370703595395,0.039353259678462475,-0.004718880284622627,-0.02751377488279878,0.03259229489178578,0.05591901247393715,0.028575446386955364,-0.0007057416290814745,-0.01835919428244038,-0.016645959657417518,-0.06858332367649835
0.532,0.01114848933884061,0.02223390008943845,0.010180924319333439,-0.014112381929993178,-0.0003350516632677002,0.015236153672011562,0.03172144316549209,0.00708071721293329,-0.012087758788082732,-0.03239955568943568,-0.03347496919787199,-0.08299615636032157
0.534,0.031018086315491515,0.016949477575814186,-0.015205806660968407,-0.02216734604648331,0.02252857422835893,-1.1625675265042638e-05,0.006316385176349909,-0.016011174641046608,-0.02538858525535359,-0.04681185097584494,-0.04837984626341925,-0.09555052181977496
0.536,0.03505306774978264,0.016371140676996857,-0.019639371893720364,-0.025256863767736483,0.027056033698857247,-0.00177001219244391,-0.009451367336776349,-0.028954869821522452,-0.03161161959113924,-0.05173984227018398,-0.052023739579149,-0.09819325354130132
0.538,0.017485340276481697,0.02047273126833394,0.00259050661639985,-0.019250880234789262,0.007551968998205543,0.011859031741482128,-0.010803639576776013,-0.027252540126426247,-0.02785384046006574,-0.04446180946620531,-0.04220071344237418,-0.0874844423446145
0.54,-0.010173249684463764,0.024709618355301603,0.03507997772416921,-0.007212922255640913,-0.02234528317837163,0.029739025839255768,-0.004310305378513083,-0.019215936665755648,-0.019481923196280206,-0.0328616199805207,-0.028410834647365685,-0.07061813138656375
0.542,-0.025300276038332712,0.025643489311603138,0.051358559071620964,0.0006990801817519253,-0.03842991811300002,0.037185866961084925,-0.0015618256389823388,-0.016157636261753632,-0.014169203904743854,-0.026565989054909967,-0.02128037165044269,-0.059082011266955003
0.544,-0.01718868033965777,0.023829555108036016,0.04128497065875554,-0.0019933317242602296,-0.03031162970532256,0.030447776882528192,-0.007523956965090523,-0.020801586468450393,-0.01553242095942426,-0.02791369419031611,-0.021545228675503226,-0.05743727893385108
0.546,0.0007089638670711698,0.021736846656979298,0.021105944859417247,-0.010048305967903024,-0.012228646744668132,0.019713754235990994,-0.016555583637596533,-0.02821850062712375,-0.02088235119357347,-0.0320844636363779,-0.02271246570830377,-0.060438537446816674
0.548,0.007454887678773996,0.01931503931405576,0.011789245128060186,-0.012479773959402278,-0.004220932937169814,0.01487730556702784,-0.020947149801634535,-0.03515041961387959,-0.024407876308674005,-0.0346440363267285,-0.021701605807804985,-0.061285501545827015
0.55,-0.0006886462652376565,0.013470880244353058,0.013897287861106673,-0.005414758134507262,-0.008497350388083937,0.013188829879501098,-0.020221408674808827,-0.04338321631275117,-0.02424310265552053,-0.037156078006923506,-0.02195399501060896,-0.06009302785577424
0.552,-0.008035280827011274,0.0031120991980704248,0.010853524333562717,0.003713843788871831,-0.01002108899073564,0.005351684844746418,-0.019999856960922435,-0.05462861003893413,-0.025881718635625814,-0.04410195871105047,-0.02738969204232734,-0.062070083657511634
0.554,0.0002755764232080663,-0.007677541756591476,-0.007932590692190869,0.004986020250705701,0.0033609535396107977,-0.010670085153345069,-0.024100344289459057,-0.06661816225137472,-0.035131082911840326,-0.05584129141951311,-0.03797202522872913,-0.06954241373101168
0.556,0.021248707573188152,-0.014840558684683262,-0.03578766648365142,-0.0023739303205836115,0.02729785671520926,-0.028143162264792777,-0.031090206777208824,-0.07611730204873214,-0.049274315235824,-0.06795898651511696,-0.05135844693884513,-0.07983387464520492
0.558,0.04008102877563801,-0.02014598437440423,-0.060144708338604996,-0.009796121065756537,0.048600623714735544,-0.04177862869242833,-0.038285066947317634,-0.08310070676996043,-0.060466292143378994,-0.0770427779567769,-0.06494771337470644,-0.08928569716365531
0.56,0.04840102183371149,-0.02652692014255627,-0.07530037096461552,-0.010934080344106516,0.060127749664149015,-0.051543741939722,-0.044226805498265714,-0.08892281038651416,-0.06538841992911801,-0.08303030224224181,-0.07504113829841454,-0.09537684759754272
0.562,0.04873427020539747,-0.03196502332695365,-0.0811451745142219,-0.007819108022289223,0.06295913265457831,-0.05731071937051943,-0.046962370086049504,-0.09317475561718189,-0.0668651566149055,-0.0864786226677787,-0.07866148134378338,-0.09764541009023843
0.564,0.044155426866364304,-0.03463438323659251,-0.07888989456123843,-0.003614444472893466,0.059585367714435886,-0.05828399532893741,-0.04537188962920048,-0.09533648843501771,-0.06857683174556131,-0.0875468314245803,-0.07757506963143908,-0.09864692276077104
0.566,0.03299761787063273,-0.03908071425664793,-0.07189236960221411,0.004160015233500074,0.0510102122873637,-0.057265414049590686,-0.041508593981811816,-0.09611252296467876,-0.0710462608318272,-0.08701033218517766,-0.07573813230067837,-0.100576303465586
0.568,0.015018526734183435,-0.050343618474213966,-0.06521138581983052,0.018515802787705923,0.03900986082937082,-0.0590673588897762,-0.0381925423958617,-0.09573648640429272,-0.07218137940849162,-0.08610073387187958,-0.07388016173048217,-0.10204920339542677
0.57,-0.002538344167350744,-0.06449890269309047,-0.061986408278948954,0.03447283949298817,0.02834383196903209,-0.0642905618457147,-0.036519380141610894,-0.09427045508521885,-0.07100879375132292,-0.08604317080041089,-0.07104558655037962,-0.10145195582762145
0.572,-0.009966217247105847,-0.07170292733739714,-0.0618529856270763,0.04229706817387964,0.024333002672489626,-0.06847413929886753,-0.036705414031351434,-0.09360670641368575,-0.06985751233528999,-0.0878795157957756,-0.06918473186263754,-0.10074692760956656
0.574,-0.006888313497438073,-0.06857431830479002,-0.061826711478801824,0.039832550794497344,0.026279081966580735,-0.06764996792407077,-0.03819698248480958,-0.09658654752573526,-0.07169384776877805,-0.09190051034731986,-0.07265730589490614,-0.10332534217922033
0.576,-0.00438436222455826,-0.06076846092620542,-0.05654385540910758,0.03509959739795294,0.025489339507662783,-0.06094991435326074,-0.03828658226194274,-0.10338291862733222,-0.07593787196101152,-0.09697721719384085,-0.08268610627341255,-0.10900996933557126
0.578,-0.011212946830205878,-0.053972173037085326,-0.042819963603059355,0.03490514935863039,0.015383978591919704,-0.049756570240765546,-0.03451006992656153,-0.11037087196337758,-0.07967510305178663,-0.10118257759359818,-0.0945532539421902,-0.1135781898991264
0.58,-0.021085724078574238,-0.04971431786896593,-0.028464891282699967,0.036693233888157234,0.0031270160239320545,-0.039569319250802266,-0.029922094410772135,-0.11480803943987929,-0.08268145919849991,-0.10458318254742396,-0.10402969343384222,-0.11501537220401584
0.582,-0.021186707777043054,-0.048343913611507416,-0.02687444967445181,0.034764569450247,0.0021014978475342783,-0.037894566125432926,-0.030814972489684768,-0.11858916678775847,-0.08682744400394479,-0.10941050071241191,-0.11339562264569103,-0.11651718556662857
0.584,-0.012337659629236167,-0.04969786260813922,-0.03709473240435385,0.030558847725472973,0.011426863806883885,-0.04433130553774501,-0.037014164594183184,-0.12370130429809811,-0.0906231264027319,-0.11441825265698582,-0.1246932739133787,-0.1197340060058651
0.586,-0.009179997986091934,-0.05213498692273203,-0.042571481748349314,0.031146178700416968,0.015469923642394759,-0.049208367990200265,-0.04046229029551058,-0.12738662335000117,-0.08980304936974068,-0.11364623303562482,-0.13212102609661075,-0.12067496834341197
0.588,-0.018136551003084162,-0.05442342634439493,-0.035638369176087314,0.038165460462159316,0.007143875186404967,-0.04722718723475415,-0.03600243149267058,-0.1267566348890163,-0.08463374281626551,-0.1055940238643438,-0.13001746353591243,-0.11707648303700981
0.59,-0.028034221294378846,-0.05688500589162878,-0.0282051407321145,0.04454546909711039,-0.001945012127956379,-0.04450993541620999,-0.027861476709770072,-0.12426140527436436,-0.08126869329201829,-0.09776400310016232,-0.12326418092130352,-0.11370652915199965
0.592,-0.027161749621871154,-0.060161180545912595,-0.032851024786756104,0.04444945338909146,0.0007712700585048145,-0.04829052054776388,-0.02297148816735694,-0.12353385372811397,-0.08317264920319564,-0.09700218283098438,-0.12059731404216233,-0.11511995873261492
0.594,-0.018181049026083574,-0.06513089353612414,-0.04741892002073071,0.04107005823242957,0.013125593317798194,-0.058034045832486884,-0.022947763460758712,-0.12366417981993102,-0.0864624363856771,-0.10090800429902079,-0.1223769025220126,-0.11844550532549723
0.596,-0.010232160071322112,-0.07137877694683277,-0.06179105229596817,0.040073533512746964,0.024939630151800205,-0.06811462201941458,-0.025295196955871544,-0.1224419331037982,-0.08678598029402462,-0.10311831007154407,-0.12322915099904681,-0.1185768142397622
0.598,-0.005882110382574347,-0.07461265573129981,-0.0690255431743038,0.040508714338589075,0.03079330391283863,-0.07282199790873778,-0.028681017660592945,-0.12230657283875805,-0.08580811756399549,-0.10252637379016927,-0.12269069632126,-0.11634778812067399
0.6,-0.003113785294716981,-0.07152108684101277,-0.06830472216564813,0.038819989462394844,0.03142133868112675,-0.07051814412087108,-0.03324538057742423,-0.12752543764301977,-0.08787659903545807,-0.10283192575217683,-0.12530967778612456,-0.11599094911476215
0.602,-0.0032857214934930773,-0.06656574625515674,-0.06319653141864509,0.037050911182552805,0.028552009828743303,-0.06572814932784561,-0.036748003504504925,-0.13592466940244577,-0.09306111844250269,-0.1053712081883445,-0.13158755455955015,-0.11739735583979233
0.604,-0.009443338222124764,-0.06716958215034448,-0.058010888764434484,0.04004535660689257,0.02310715455064402,-0.06405992933732255,-0.034914334211540624,-0.13942269289235146,-0.09566875336171098,-0.10688197896567599,-0.1357079680748146,-0.1168662176371405
0.606,-0.018507062333023468,-0.07395889751601718,-0.05596784236617964,0.047187869289546665,0.01806752918383697,-0.06665865182365639,-0.0278191345385445,-0.13514970744044455,-0.09091945470257307,-0.10500946972666274,-0.13416509593584436,-0.11442645590383012
0.608,-0.020779074081435932,-0.08137825397921994,-0.06092257934783155,0.05202523958117958,0.019924616419977576,-0.07270295572714323,-0.02229109916331801,-0.13074479429715566,-0.08322468459365934,-0.10318210133003067,-0.13196718020226159,-0.11529164313603323
0.61,-0.010705784905740168,-0.08556874423983628,-0.07481913978061479,0.05007347057460428,0.03214668553430822,-0.08191349134316096,-0.024023814670751386,-0.1342455270541217,-0.08285052205914771,-0.10636210308698851,-0.13617674990523043,-0.1228715431727692
0.612,0.004997446367912757,-0.08672773164196064,-0.09151189965685068,0.04376196605058451,0.048027414154342835,-0.09117456494173927,-0.03017430224747522,-0.14286967535735776,-0.09163873101708171,-0.11251842608912994,-0.14565008306152558,-0.13323723482170863
0.614,0.01464795799922613,-0.08579769891015901,-0.10023927616359542,0.03857793299717175,0.056367738376443405,-0.09478371835722851,-0.03403505762310606,-0.14756044085783254,-0.09934373058857685,-0.11432659183559067,-0.15225015892303612,-0.13919168978323296
0.616,0.011941283610258686,-0.0834166867163925,-0.0950958547001678,0.038273421491854566,0.051736176972740806,-0.09026236566338787,-0.03318519361829933,-0.14434919997395615,-0.09706003011517708,-0.10924183238186827,-0.1509203945100435,-0.1376593308240538
0.618,-0.004833638716081921,-0.08160305405439318,-0.07641884601351775,0.04535242873787062,0.03421675881229144,-0.0798906960630194,-0.02895423827479582,-0.1346834944493148,-0.08572022443541036,-0.10063582790591788,-0.14316879581458375,-0.12968327046110392
0.62,-0.03258023668318102,-0.08290050019236252,-0.05008582007433946,0.05955014108902648,0.008008936714975844,-0.06815858147865186,-0.022930104174613223,-0.12097452260818979,-0.0711973704081231,-0.09134395877644023,-0.13244654761511723,-0.11763919203923731
0.622,-0.05605608679336713,-0.0862386132113055,-0.030321892912081455,0.07229866519409123,-0.013163551316805433,-0.06048679904380917,-0.017574284311831792,-0.10850115430146376,-0.060257648384900914,-0.08386588597514445,-0.12192729507567232,-0.10713662675708306
0.624,-0.056570535640499534,-0.08661104217873629,-0.030626603204846756,0.07185734881815685,-0.013346429483898616,-0.060143063126382935,-0.015679678328074678,-0.10386722336522494,-0.05903248731417437,-0.08203916733568063,-0.1151946548482575,-0.1054537133755149
0.626,-0.03825263993190889,-0.0817705008609756,-0.04436580636581681,0.059950711617682687,0.002745296429941515,-0.06340598813280883,-0.016306284693458448,-0.10587385431979943,-0.06653809802652881,-0.08529193326844008,-0.11408301496566832,-0.11309164428447441
0.628,-0.02793945845191426,-0.07567908455097692,-0.0485191088557503,0.052426549212956336,0.010133633256280934,-0.06223919034211417,-0.01468875638271949,-0.10479116557240656,-0.07249644292501807,-0.08678692446489548,-0.11647500106621513,-0.12219013962213579
0.63,-0.03805961160030567,-0.07264266950907906,-0.03508467389638417,0.05695741778142983,-0.0021055408505864497,-0.054967514116258435,-0.00898932876741238,-0.09495924365403391,-0.06931159092024344,-0.082480386092278,-0.11891033624446218,-0.12585373470331992
0.632,-0.04999805295118945,-0.07217318474429167,-0.022415650032612373,0.06291556633299605,-0.01536123818421653,-0.04927370068469161,-0.003695676014365044,-0.08264916864964801,-0.06209902198119541,-0.07651124055574886,-0.12016823538030051,-0.1243906385632593
0.634,-0.044368709708615846,-0.07186914676368815,-0.027572124367192325,0.059472621681901025,-0.010415472181693313,-0.051573040260266885,-0.0033141515639675437,-0.07766775856600869,-0.059438057159484484,-0.07458025233674342,-0.1209952090419198,-0.12246726189859243
0.636,-0.02645124588166674,-0.07180535707045856,-0.0453291607744344,0.05042703728294499,0.007833955252226917,-0.05970240069445132,-0.006955888125810123,-0.08185982456015768,-0.06104451244793315,-0.07757482338897151,-0.1230904553552207,-0.1247687263088313
0.638,-0.01247243559875445,-0.07344250819738544,-0.06092161963799554,0.045066822713240216,0.023135491889524663,-0.06790805107284478,-0.01113131570992511,-0.08925046094299907,-0.06272166343715249,-0.08278925515275311,-0.12856289656199965,-0.13266870125094246
0.64,-0.010763097502652452,-0.0764443533811555,-0.06566442178772339,0.04652116518044093,0.0262318126927002,-0.07173182143624415,-0.01273401851959508,-0.0930996708624022,-0.06487318005288,-0.08588912434254713,-0.13552232221509336,-0.14074381241505773
0.642,-0.024318382466151204,-0.07912805033112306,-0.054825366980809455,0.05451715080622921,0.013492919596666984,-0.06736765891812009,-0.009113703711923878,-0.09008428687672718,-0.06786247122517168,-0.08209828059606068,-0.1361365661470322,-0.13957049776168673
0.644,-0.0512685612321694,-0.0808015876324126,-0.029549749919059783,0.06788325656490678,-0.012769230943579091,-0.05501051233359639,-0.00124067047783147,-0.08174877720619024,-0.06748465780833157,-0.07105861601130084,-0.12658956776183314,-0.1268529750375513
0.646,-0.07367315352754215,-0.08234989521277883,-0.008676532443454454,0.07895146436208478,-0.03391108180618504,-0.045108718488752336,0.003672694627552086,-0.07466187580694679,-0.06297737046245937,-0.06046556460448971,-0.11592417804065218,-0.11332245002727828
0.648,-0.06705054305928299,-0.08483218367644252,-0.017772539306351788,0.07663638515113493,-0.02533148245096682,-0.051291164264201564,-0.001133665199684091,-0.07582261514877056,-0.06225217011027835,-0.059796342504473673,-0.11656355775067084,-0.11245175338785049
0.65,-0.033002840455624766,-0.08757836556620412,-0.05457128758547684,0.06126428573509287,0.010592746985555549,-0.07179686507240342,-0.012640392650778475,-0.08519450149940004,-0.07097983731805999,-0.06928602749508882,-0.12850891813624363,-0.12512452547629876
0.652,-0.0031607083740921894,-0.0881995646373732,-0.08504178116296665,0.046864892313708155,0.04068893790866665,-0.08786769215768746,-0.020844514502325627,-0.0952924786653196,-0.08213025236749301,-0.0790127480177755,-0.13989482309766552,-0.13902008508968008
0.654,0.0008814882459872725,-0.08485879891656566,-0.08574399112558503,0.04303987958264559,0.04224171118591093,-0.08662265366729914,-0.021155823813865014,-0.0997589612483688,-0.08470257309464704,-0.08034732497366277,-0.14157364961411523,-0.14314999150720334
0.656,-0.0081041776979431,-0.07880275908702164,-0.07069875476998537,0.044358044637555764,0.02910285764852466,-0.07599145537429036,-0.01853572974282164,-0.09960289282397132,-0.07910003278029679,-0.0751532487974196,-0.13579575976626376,-0.13830831224242568
0.658,-0.009740225352234497,-0.07484500101666884,-0.06510283800010812,0.04339509403841203,0.025052302012107362,-0.07138614894175442,-0.018253825944082668,-0.09952982548504694,-0.07651052584586564,-0.07165064842352256,-0.1304490825354317,-0.1318203847796075
0.66,-0.0069575081520188336,-0.0772693121279111,-0.07031078407735741,0.04363536601599883,0.02962859264543354,-0.07549414651364132,-0.01843944140049196,-0.10053789900440864,-0.08354588969330845,-0.07323773803502065,-0.12802147193607374,-0.12660666928349568
0.662,-0.015312195177089236,-0.0845127344229035,-0.0692011094918943,0.051615573619325165,0.02560328341432067,-0.07848354917579657,-0.015068284871715796,-0.09951379358806307,-0.09341731903568089,-0.07506999642660904,-0.12349952607309372,-0.12023932258212879
0.664,-0.034617762003709675,-0.09069908574717055,-0.056082152665448234,0.06405823430121595,0.009414656181345847,-0.07462304129063035,-0.009908760406689282,-0.09567562497321841,-0.096272897719856,-0.07226529338810597,-0.11386044994521773,-0.11328143848882906
0.666,-0.04840686748536917,-0.09267257961993147,-0.044265796865152,0.07161365587175657,-0.003727241534255059,-0.06944851595652908,-0.008488643747029392,-0.09260681708167731,-0.0933596045087365,-0.06690627687853512,-0.10440874175056075,-0.11171762386679096
0.668,-0.04630976867687243,-0.09241532542019991,-0.04610514485463742,0.07075446315641132,-0.001923566345151239,-0.07007229842079499,-0.01245510019565335,-0.09338271712735371,-0.09402368896966669,-0.06452019301089156,-0.10250650725499634,-0.119694201079906
0.67,-0.03257472515845528,-0.09152310338998668,-0.05894813525344338,0.06427897391361424,0.011306164043145434,-0.07570372918063423,-0.018214018742893353,-0.09722609882800456,-0.10176883319193993,-0.06710586184107503,-0.10944009116054627,-0.134716380807219
0.672,-0.017996541900078815,-0.08786961644133917,-0.06987318325938448,0.0557317731089634,0.02408875245802945,-0.07910865816201877,-0.02121928482008555,-0.10047422949553714,-0.10985707889823636,-0.07133618186478782,-0.12064908131264539,-0.14985564719697167
0.674,-0.013237052084442057,-0.08159859730380457,-0.06836172974782137,0.049973640085336904,0.026214212518321452,-0.07544853504718156,-0.019765555660986013,-0.10009071079051196,-0.11045782568966836,-0.07251893188587888,-0.13096249320058923,-0.15814739768328823
0.676,-0.02102935646140227,-0.07811322956202563,-0.0570839019114135,0.05128973901729218,0.01763924407506672,-0.06849008640805385,-0.016494428944288098,-0.09723360015161789,-0.10393063195652787,-0.07000061928926637,-0.13759984688732346,-0.15746098384777185
0.678,-0.030551496249418306,-0.08037029760022925,-0.04981871441091764,0.05650149859528811,0.009928390089776473,-0.06611408714843402,-0.015713347421898824,-0.09573803534170537,-0.09764985964257228,-0.0677972434364529,-0.1393897365791716,-0.15273746741987887
0.68,-0.028988583989696125,-0.0847295901892416,-0.05574094894957497,0.05791062420324622,0.013433839997907829,-0.0710142098732696,-0.01828572651892066,-0.09682218903267108,-0.09756707326070956,-0.06963026040507311,-0.136628709226873,-0.15109975543718557
0.682,-0.017272741110345165,-0.08701381661879685,-0.0697410956078613,0.0537181977114024,0.025379689648862662,-0.07898461919011131,-0.021148891994080474,-0.09808090732921368,-0.10277193547022542,-0.07482899720168365,-0.13250259652619226,-0.1549345155608
0.684,-0.005424595862995347,-0.08763414994343466,-0.08220959492366295,0.04850362229603987,0.036758657462278764,-0.085917292758158,-0.022278299203559414,-0.09811051634249845,-0.10902922848662133,-0.0799120001096159,-0.13172227621872123,-0.16194356640180674
0.686,0.00363294044848924,-0.08927983484958339,-0.09291278383831666,0.04457610018196193,0.04632844521442613,-0.09276949777467532,-0.023730943993742155,-0.09944139625642141,-0.11530401694678982,-0.08330544999420551,-0.13621596479551193,-0.1696072148899654
0.688,0.014281936019344197,-0.09214668654460931,-0.1064286043541422,0.04000788190454504,0.05827120172242072,-0.10111364925923148,-0.028164791714682023,-0.10458320048683908,-0.12260796467630761,-0.08655055282510744,-0.14244022029565537,-0.17611160531503117
0.69,0.022450003479527556,-0.09329396803951996,-0.11574395816043388,0.03602163916979433,0.067030230346479,-0.10595800719052068,-0.0328236771281494,-0.11023370599325459,-0.12783571160144988,-0.08951732299014649,-0.14313831500035534,-0.17832978866898724
0.692,0.0131176652620985,-0.0900311607114877,-0.1031707691509877,0.03906801607478433,0.05661472218778888,-0.09788025120502053,-0.03003195484068845,-0.10899342959730476,-0.12472123478566394,-0.08701335992400609,-0.13263013269006632,-0.17179874481365748
0.694,-0.017509290637295043,-0.08237434200208844,-0.06499637611922816,0.050619926175613485,0.0229396809344599,-0.07521602268953037,-0.01748521159400645,-0.09882012192942845,-0.1128106647383949,-0.07543842873613582,-0.11239132541781893,-0.15539967092094262
0.696,-0.0462876202942712,-0.07178798368962067,-0.025827784807947722,0.059516787684405534,-0.01109752899888573,-0.050473260349448344,-0.005654435653432425,-0.08855891809923684,-0.10176638879756482,-0.061393796870071224,-0.09147314754000034,-0.13627804347589664
0.698,-0.0448013892849323,-0.05826501195975768,-0.013886224109458644,0.05191034520203634,-0.017230655256909172,-0.037513211457557386,-0.0075215026239105936,-0.08908326709324128,-0.10198779791961958,-0.05515347848096813,-0.07720168762043852,-0.12327308595148606
0.7,-0.015352061193371454,-0.040161787267322585,-0.025087203275743236,0.028400390609627957,0.002529110820460537,-0.03370728297566121,-0.021378155416624103,-0.09840877817103659,-0.11065159918243486,-0.0549456482809572,-0.06398885113841664,-0.1130085291884049
0.702,0.010431934394305698,-0.017628014028410806,-0.028165591315732073,0.004628563291094892,0.017350299348395125,-0.023599875636919097,-0.031541398360462124,-0.10107994799225486,-0.11121172111538385,-0.045614643377611605,-0.03636382079416024,-0.09087753614445011
0.704,0.011749505076733268,0.00463806504014489,-0.0072930644570067885,-0.006783455212826433,0.008041488287710404,-0.001561744253223937,-0.026643511019524016,-0.08423095066040294,-0.0888186696721292,-0.013483840043011912,0.015170070308180284,-0.047923038750041905
0.706,0.0027757264078548875,0.020115997721320528,0.016980881188410398,-0.009684925494859708,-0.008860222948700106,0.01851660142374307,-0.010899438224018796,-0.049720561841733686,-0.04336473318599098,0.04321009144368392,0.08617373454290915,0.011192337752841775
0.708,0.010522642967241038,0.027417993375403883,0.016593680594535407,-0.017191793196435188,-0.005199349476259918,0.021431783130953824,0.00421582599022327,-0.007619703570441234,0.016186320852398694,0.11897692936849233,0.16810098772884602,0.07884667471582152
0.71,0.0418288175061699,0.032094062291304286,-0.009787438988625292,-0.0355977656861381,0.024172557984122288,0.009661711848325618,0.013861099187826194,0.037321470731713914,0.08598984581860243,0.21072590359003388,0.26062147671089564,0.15565678675348374
0.712,0.08396714269846209,0.04012843759606107,-0.04380444586455783,-0.06102337903339953,0.06352682159314466,-0.0037411062262177022,0.020760308666920007,0.0863251075470351,0.16695341367916258,0.31774234359407266,0.3691578307226826,0.24651581234202224
0.714,0.12627602160719126,0.052938225540423364,-0.0734410782740063,-0.08827762080845741,0.1002319264583313,-0.011937028052151653,0.026698032458228663,0.13797413274272055,0.25481285472839,0.4352763206587961,0.4952253599904687,0.3522657231455562
0.716,0.16524393063545173,0.06930438999699957,-0.09606553848150282,-0.11517575346938842,0.13052225392992514,-0.01489664869677055,0.030466766606475286,0.18870407814655182,0.34349038089462575,0.5578581635659136,0.6374541784501591,0.473689886319388
0.718,0.19919538998006128,0.08986096523562725,-0.10923259923717576,-0.1420649952863084,0.1530365302530959,-0.011474307708128548,0.03244306787410526,0.24185497637610082,0.4361931060869721,0.688305965355861,0.7981258974758952,0.6175662908359866
0.72,0.23380985144109687,0.11886574606855944,-0.11467761828316599,-0.17432150180111033,0.17244587078975912,7.926117132802453e-05,0.035537208723580196,0.308059563367665,0.5422705714391266,0.8331300229518505,0.9791781058538941,0.7879534158773009
0.722,0.283064776928754,0.1612003490044392,-0.12171588751759993,-0.22078413284028328,0.2006376280586298,0.018256176508430595,0.04137448205489481,0.3905277196294942,0.6610553853007213,0.9882862713010743,1.1742861716197042,0.9761291899226334
0.724,0.35133611722260766,0.21820995606384594,-0.13318713478462305,-0.28364342712333007,0.24101579700294834,0.04202903751367651,0.04684995721138118,0.4709474620402978,0.771597521367281,1.1355275856158684,1.371445806100198,1.1674151712683054
0.726,0.4199269621937163,0.2841435518439916,-0.13589792463600275,-0.3506534620558587,0.27713545107131593,0.07407019643523403,0.04452904662651922,0.5158083167181914,0.8383332373779859,1.2497237502327565,1.5580520652298577,1.3501715528594909
0.728,0.4608110947561174,0.3415092306346533,-0.11932640606827832,-0.39953200314150306,0.2890385533956231,0.11055760777789095,0.026579231411664857,0.4965276168943147,0.8256161323050772,1.3034628547023668,1.7149455671957252,1.5075511233438628
0.73,0.4633124542164819,0.36483157687053547,-0.09843060778608276,-0.4127362762578612,0.27889127267620945,0.13192497149080382,-0.011018365150050663,0.4015981265506663,0.7120536971426346,1.270612256914355,1.8090344949701893,1.6067724132060788
0.732,0.44354131616356934,0.34058964157294,-0.10291403476243767,-0.3914287698019355,0.27055154381601154,0.11729467285828724,-0.06629312361335371,0.23745324603858042,0.5013984332445811,1.1375463605010132,1.803654790029929,1.6106145511497723
0.734,0.4279316192054457,0.2822621728541589,-0.14567875272729683,-0.3547994998142812,0.28444376977452723,0.0672042195911385,-0.13305728703727773,0.023175139506876007,0.22019285734926777,0.9124765182539664,1.6831759214780602,1.5055021292386483
0.736,0.427178265155882,0.21715431296479587,-0.21007085682235152,-0.32169291050846716,0.3173670454059065,0.0032207926852438613,-0.2038399250026441,-0.21549207725150812,-0.0963035697285326,0.6238228934894654,1.4661217996915947,1.3154496272763871
0.738,0.42382568773804635,0.16112839450961255,-0.2628354668322159,-0.2919649825776923,0.34311600526891084,-0.05077955661586452,-0.26587416860161645,-0.4425652815537733,-0.40628400002213805,0.3159315550098307,1.1918061692240747,1.0823195728012651
0.74,0.386911110864798,0.11162114617516034,-0.27558510272668024,-0.24900983928278528,0.3313499047984357,-0.0820679535632598,-0.29918024505220064,-0.6157264577540763,-0.6612419294138566,0.036550452279297825,0.8947598868745942,0.8324796456990294
0.742,0.30142613663700135,0.05990930197342674,-0.2417994428750132,-0.18031806172725093,0.2713175328387561,-0.09145141025666217,-0.2942399232341991,-0.7206863883757862,-0.8366463603478315,-0.1930202156397591,0.5899093664426057,0.5678074716385899
0.744,0.18291097569344356,0.0045210337212278125,-0.17831955989374093,-0.0925400671679852,0.17965215933046744,-0.08781092608736915,-0.26970709569033996,-0.7932865400185902,-0.9582367307540711,-0.39186053298901025,0.2782209278464349,0.2873262443958794
0.746,0.06576237794856821,-0.045534980212523134,-0.11085453143745351,-0.007876876897999647,0.08680747966280002,-0.07934706539642465,-0.2567856337498102,-0.8775776403128542,-1.0658856440727216,-0.5854781513995991,-0.030646470289915656,0.012105489583074351
0.748,-0.01810598893851084,-0.07881871492170965,-0.06031317625085093,0.05108154803184321,0.01938165827764275,-0.0708105259436763,-0.26625775949072716,-0.9670818564338033,-1.1573226602866276,-0.7620852157957032,-0.3016338730594779,-0.2147968948525803
0.75,-0.0545587240683745,-0.09081345914754728,-0.036215071430952914,0.07470258199884779,-0.010896734038919166,-0.06474902009367343,-0.28049793568775794,-1.0113514038171445,-1.1927677836520938,-0.877402817897811,-0.489986627098292,-0.35607571684151584
0.752,-0.05516811042528459,-0.08288661319249052,-0.02790844050765429,0.07018826872112903,-0.015291498691208178,-0.056344059497024895,-0.2753270161479711,-0.97485907239215,-1.1454409643717218,-0.8974512058102544,-0.5723030435512656,-0.4053221679043339
0.754,-0.051032731266546255,-0.05746995439848554,-0.006579004529794169,0.05520624369364164,-0.02374671900760294,-0.03236998762154952,-0.24211835359305256,-0.8699313363328689,-1.0269753567572264,-0.8247392019757595,-0.555727198187095,-0.38399483504500953
0.756,-0.0649502993252343,-0.022227375176586014,0.0426343926092631,0.04505315588757266,-0.055315436771066685,0.01033444036337739,-0.1919696660605676,-0.7377404061814524,-0.8732555641734306,-0.6925498047934469,-0.47075828360827016,-0.3250382316484923
0.758,-0.08815578926935844,0.005259977165923507,0.0931958586865879,0.043432320076502655,-0.09265798995179741,0.049198638076772265,-0.1463240843420378,-0.6158157905908944,-0.7228301946614262,-0.5482357803028355,-0.3651872427484615,-0.2635364415585663
0.76,-0.09535659788745263,0.00899863064362184,0.10408184894074683,0.0450568564481576,-0.10213576204453724,0.055683516485312834,-0.11990249000375908,-0.5210536027292851,-0.600502848930648,-0.4313742374543387,-0.28466914236847896,-0.2255433727629466
0.762,-0.07779853419746835,-0.00726487691594978,0.07054562182586406,0.04373394129350911,-0.07610317479107283,0.03001451391362823,-0.10684792288215685,-0.4474932000286444,-0.5065609535848506,-0.3519370594659981,-0.24282745218638052,-0.21305410716016912
0.764,-0.04933921139297701,-0.02411063526349121,0.025517635859522107,0.037123241577393294,-0.03808510807131035,-0.0007960065623757877,-0.08953163191624783,-0.3780641156316403,-0.4247236942793148,-0.2926717920235048,-0.21991759550937515,-0.20847418946347226
0.766,-0.026579170405333617,-0.031240982161734265,-0.004580517059598149,0.028642209797996924,-0.010814357341497816,-0.018679671887558695,-0.061954009455561315,-0.3044831405244341,-0.34456872927473586,-0.23569023570028116,-0.19432986038505903,-0.19842528829674175
0.768,-0.01544051020514344,-0.03636863382501827,-0.02129444354273977,0.02524561095493073,0.00286500362331104,-0.02930935651829989,-0.03443397132977047,-0.23474516955758173,-0.2712687496361133,-0.17971571233241476,-0.16406832460736726,-0.18458098462143652
0.77,-0.012643466919132963,-0.04758235372089031,-0.035359487452904396,0.029414846192868795,0.010776314075143905,-0.042182569405786186,-0.017141204419962405,-0.18150924016520503,-0.21622151585080843,-0.13345071758399635,-0.13839757217418902,-0.1730059160465361
0.772,-0.010321856687130445,-0.060254080162693555,-0.049902742505581334,0.034822432778305205,0.019400338387010746,-0.055748209468177976,-0.010478455770183952,-0.14936550518309696,-0.18513967249119687,-0.10295119725053409,-0.12214790036258884,-0.16553556839694328
0.774,-0.0021920733699655,-0.06604973662624279,-0.06334692835010923,0.034110710051543994,0.030773452664392856,-0.06505552944165958,-0.010359321324292129,-0.1343481024977075,-0.17324432195003026,-0.08786589792441556,-0.1131671695728477,-0.16264081369245145
0.776,0.008592721180791563,-0.06501795807216468,-0.07305955732285674,0.028829442108488326,0.040931114509662664,-0.0697477818290163,-0.013478015034046492,-0.12922371948847594,-0.16901627756081217,-0.0835206147240007,-0.10860559926504583,-0.16491675271845985
0.778,0.010719129483812574,-0.06294180909221726,-0.07356126337467524,0.027112996057614355,0.04115421247025623,-0.07022439793942332,-0.016473009836692924,-0.126466583420028,-0.16346673864178257,-0.08306064343410771,-0.10744601700290687,-0.16953930084099517
0.78,-0.0025625765307086415,-0.06274808383588953,-0.060632150000931986,0.03346548661297812,0.026757213715157237,-0.06482512709904463,-0.015570389839184103,-0.1207998784687934,-0.1550240934322862,-0.08017231049543963,-0.1077181609604874,-0.17113014730615186
0.782,-0.02410636305870241,-0.06343754822670797,-0.03995319156698731,0.04432260602351995,0.0051290332760824,-0.05481616793063289,-0.009397127835912442,-0.11141486850639595,-0.14541507054135747,-0.07268992723465127,-0.10584288142759285,-0.167118994677188
0.784,-0.03762179127360109,-0.06412218865810448,-0.026914711498092214,0.051711789255251106,-0.007595681161325912,-0.04743453622185851,-0.0012728453822842668,-0.10087826414782197,-0.13534016500261145,-0.063877635110035,-0.1012746505752381,-0.1602656538527042
0.786,-0.031365427351994,-0.06558604918024398,-0.03444188733722929,0.04968860976391349,0.0005242136200609543,-0.050476965558782914,0.0024639099629239465,-0.09286855772539332,-0.1267030538251948,-0.05897621919704199,-0.09933085657153719,-0.15633887216533032
0.788,-0.00811165614680125,-0.06882018294463535,-0.0609320050140789,0.03938300690402187,0.026537600786238656,-0.06462002532161316,-0.0017089523939497462,-0.09012611047457775,-0.12352215921248877,-0.05947347638878159,-0.10471655317296755,-0.15790811525574555
0.79,0.019641352277945865,-0.07339972124564606,-0.09325145020636909,0.02732379669029052,0.05692332242170659,-0.0833362840518951,-0.01070461861805735,-0.09246181008863623,-0.12655989287419078,-0.062043469406227555,-0.11378532190525342,-0.160765309965653
0.792,0.042937319895986016,-0.0771245953155343,-0.12011994678528237,0.017941532297336856,0.08143718491341191,-0.09934395040304743,-0.01842668919588804,-0.09718205218969596,-0.1312030747349923,-0.06320282904576338,-0.11797974060350537,-0.1592992696104392
0.794,0.05612759264177453,-0.07797802984211767,-0.13404627906990185,0.012708469675189734,0.09413155890878369,-0.10706667593117451,-0.020527490794027613,-0.10047723356800134,-0.1319987278324486,-0.06105403546479192,-0.11212577612025497,-0.1519790468639396
0.796,0.04841473346132514,-0.07650808033286274,-0.12497645526589779,0.015895232818893875,0.0854534788540773,-0.10140153645748033,-0.014646263400987526,-0.09816004677226557,-0.12576371783102333,-0.05302976064710648,-0.0964022662758368,-0.1394003052864026
0.798,0.015147346844206513,-0.07431747867727583,-0.08979641931715675,0.03052880486242615,0.0515978342337908,-0.08211889721829843,-0.0015958834480162968,-0.08948399707258493,-0.11289405589914092,-0.03856395058771122,-0.07596261417438521,-0.12416364932192923
0.8,-0.025972227769565585,-0.07180260367530555,-0.0463191916085611,0.049373727543665,0.00935654834039957,-0.05919116894793746,0.011975117406741249,-0.08021488488001828,-0.09985788901973633,-0.023757193870890703,-0.061049928524667285,-0.1147962520295954
0.802,-0.05010021647252961,-0.06974012825846787,-0.02004600326138667,0.060993091340967975,-0.016617114317493048,-0.045841691182236,0.018106276861495952,-0.07636993482485722,-0.09536782008429959,-0.017006296424649816,-0.0607965779362423,-0.12086144014591726
0.804,-0.051161880782587536,-0.06959339120493269,-0.018718427615023743,0.062072862018611195,-0.018508615598028202,-0.04573804020364007,0.015734802975709145,-0.07690530965097624,-0.09978554824581773,-0.02071105118979609,-0.07475636802205846,-0.1410425576145859
0.806,-0.03747616119978521,-0.07104176254690316,-0.033824832497802895,0.05564643944278133,-0.003805153454095791,-0.05385424043662241,0.009092100403589648,-0.07798592055945945,-0.10496654002142451,-0.03125236430843827,-0.09454743771749724,-0.16293639903280743
0.808,-0.014041722426480574,-0.07261830807515991,-0.058768589016254646,0.04371352087527841,0.021284000989683863,-0.06669533274068751,0.00026893509495897237,-0.07962191654108892,-0.10729135180263402,-0.04346584641881016,-0.11152418301140427,-0.17530868343473358
0.81,0.014774362634423508,-0.07345396676809887,-0.0882582181373247,0.02895153445387034,0.051072048126019,-0.08173465772935236,-0.009653493393181554,-0.08246658434675078,-0.11109328291826329,-0.051549649419763977,-0.11929998167095952,-0.17473124582915625
0.812,0.03493576281896795,-0.07252682674048137,-0.10737789218759579,0.018421123066263454,0.07091273620752352,-0.09079657762284073,-0.015375310319305347,-0.08291593147288025,-0.11649268729818354,-0.04988918778665226,-0.11410725409119359,-0.1624735775211351
0.814,0.03017873854846973,-0.06907391357226617,-0.0991667472428542,0.019634361066369604,0.06431300775632255,-0.08494685663623353,-0.010756438075452386,-0.07606027705695523,-0.11505979427843765,-0.036838984773479,-0.09715868578348723,-0.1414868930260118
0.816,0.001441773336269875,-0.06410573240207575,-0.06542876959980895,0.03212046904897799,0.03265221567228202,-0.0660566796282699,0.0029114304714024865,-0.06233752423837965,-0.10252816773067613,-0.017718463554098392,-0.07520577692214821,-0.11733016243307971
0.818,-0.027702344003754036,-0.05970443316713306,-0.031715474350962086,0.04487040194371488,0.0007603608387798085,-0.047962080840143605,0.01582942546049485,-0.04986149028525566,-0.08786835860146242,-0.003054496046917122,-0.05851541307050815,-0.09912188804772783
0.82,-0.032714410790475996,-0.05799712017671435,-0.02487309750419623,0.046615078597097744,-0.005215888169226681,-0.044334180919167174,0.01821442526548726,-0.04793670124969245,-0.08418749744822245,-0.0011215124882230456,-0.05649039634800892,-0.09501368481816755
0.822,-0.013562429903448006,-0.06048104611587375,-0.046669097487928454,0.03818459083087429,0.01574275455438226,-0.056135100873786856,0.009725167509114646,-0.05644155373665803,-0.09344064766063956,-0.010547787273092723,-0.07045541521967547,-0.10452151787473646
0.824,0.0063705735301328205,-0.06594910199413645,-0.0724619732296723,0.030940621717740206,0.039261069738019336,-0.07074878612648747,0.0005649556833300121,-0.06398230029927417,-0.10306230434206808,-0.02088331859379152,-0.09045729325917855,-0.1179339416274927
0.826,0.003600611021706089,-0.07055648818759482,-0.07465390578084373,0.03492069349921528,0.03917360988422627,-0.0733945448337237,0.002188272943238828,-0.05914292326237981,-0.0986615424125058,-0.021238947664796882,-0.10285450937052368,-0.12455624197315678
0.828,-0.02297884751228673,-0.07161704508914922,-0.04926413396057106,0.04919320881708217,0.012607742623885717,-0.06135104493566917,0.015144869527079835,-0.042250761164898586,-0.07988884329446763,-0.00962111760011736,-0.10190116171279782,-0.12051861457460604
0.83,-0.048765452295899195,-0.06935615576934277,-0.021108895775322906,0.0610486890606324,-0.015262499210689394,-0.04690093917561763,0.027930446711553765,-0.024257654987141337,-0.060514118167075755,0.005633415120748034,-0.09273776623812094,-0.11000136554220653
0.832,-0.04589659516216197,-0.06488248506653713,-0.01919186351389656,0.05671296630578138,-0.015205879001085998,-0.044251146559364525,0.029789564731156064,-0.015430410559394939,-0.05300298220986497,0.01418263204992081,-0.08461836112881793,-0.10101544408217795
0.834,-0.011853876671240505,-0.05879596422974879,-0.04669697007611882,0.03555210368697869,0.01573625341725382,-0.054681543544883596,0.02178620698116514,-0.01683794584697526,-0.05781475731505606,0.013259499353364885,-0.08281403089599478,-0.0991615706132866
0.836,0.026007145113266086,-0.052683654280172604,-0.07809969790960185,0.012945612787298291,0.050442236896112186,-0.0666379675484888,0.013720759189136102,-0.02149531004138517,-0.06608977184771647,0.009149015634741332,-0.0852097396484421,-0.1035550788436888
0.838,0.035393361605412094,-0.050157894674903454,-0.08499522598895605,0.007480738359902533,0.058204341950877786,-0.06859851303776339,0.013471391908652597,-0.02113848929834141,-0.06774210902914267,0.0104784481889975,-0.08533348475550097,-0.10767049137808177
0.84,0.010945955456930228,-0.052751169116669626,-0.06348149705566537,0.022255548977006892,0.03497859659870028,-0.05951590799558408,0.020689801234135476,-0.012308240146876427,-0.05926781945533356,0.019811971783041216,-0.07971427267139199,-0.10486863577914718
0.842,-0.018801255526983716,-0.05644763072235103,-0.0376888354565756,0.03980753742632596,0.007571518351873908,-0.04899393944924792,0.028033575889405984,0.000885856792691835,-0.04705965300523076,0.03073452574873799,-0.07287583144757749,-0.09626045933630609
0.844,-0.02149702483381136,-0.05733109523667575,-0.035890139320213184,0.041121634175913455,0.00576790240627253,-0.04888216538668299,0.027743355720919453,0.009963628221231188,-0.04108146025359202,0.03422316776642436,-0.07411363168387258,-0.0922461158953782
0.846,0.002673894747437484,-0.057307548310405604,-0.059989122378887136,0.027830449017316534,0.02994577516675374,-0.06084553546707339,0.019499140630773376,0.011024095419380858,-0.04395667484360574,0.028877964589705634,-0.08740425672290675,-0.10027322684557391
0.848,0.022091215818194496,-0.059553855619756846,-0.08161020769772592,0.018861018370904394,0.05056752959275812,-0.07223176175915437,0.011474717100379795,0.009630379960484983,-0.048219246882853374,0.023411213405798714,-0.1043210027106933,-0.11197605183328153
0.85,0.01241266641992487,-0.062517645609132,-0.07479329712577899,0.0261874257157012,0.042825467401656984,-0.06975300680606335,0.011429615646402087,0.013971711676560274,-0.04503890438353282,0.027637430896246838,-0.11064763609402119,-0.1107861092961117
0.852,-0.01443099729749417,-0.062285181692561024,-0.047640646450934104,0.040809349406188224,0.016208013699598876,-0.05599923745778077,0.018235731239874882,0.024223867032524105,-0.034345927004206446,0.04139930864418939,-0.10201447980158931,-0.09352785980495305
0.854,-0.02675833302615101,-0.05798796392479665,-0.03100732875605949,0.04514344183304523,0.0014637194417338436,-0.04584496134640211,0.02431262561705187,0.0319350810024034,-0.02456886045361764,0.054257442965586974,-0.08803130199991668,-0.07536386087447826
0.856,-0.012004280025465445,-0.05156241523753761,-0.03927867835444165,0.03378430595326456,0.012146087176540534,-0.047057367104750704,0.02544123650734649,0.03095446502570138,-0.021155357465603344,0.058008878105373154,-0.07854750589056952,-0.0690049916140469
0.858,0.011582769037249283,-0.04476573725175332,-0.05600257960948489,0.017620021734358407,0.03134983708518966,-0.052243371002335635,0.02513214987020228,0.02526124076410052,-0.019875789326279626,0.05638234893011545,-0.07361889568989777,-0.06930767262819876
0.86,0.020213213976777736,-0.039544036183760484,-0.059515157181027144,0.010363571947397928,0.03706584027553956,-0.0516661381924741,0.02795200257595568,0.02304353370987136,-0.015892072139110165,0.057683506369756825,-0.07000682522465144,-0.06563968993748895
0.862,0.011089027073925797,-0.03802314370608929,-0.04910290808491502,0.014578503733575233,0.02810257617803232,-0.04573411354527015,0.03253606567500957,0.02705922259996534,-0.012092621417923638,0.06239201421637401,-0.06871144772642378,-0.05866347094417682
0.864,0.00015044237464635477,-0.040088458258709096,-0.04036044650560373,0.021544764472470404,0.01977024911067706,-0.04176698343588532,0.03399867815242877,0.03400215567763248,-0.012793257840903951,0.06440294610290755,-0.0726876992035854,-0.056441649517828096
0.866,0.0006723200600192695,-0.04303820378720222,-0.043781079194331975,0.022730659262228697,0.022677001481105002,-0.04405578954348287,0.030269252185540683,0.04042727227660345,-0.015858061653800725,0.06109869175705498,-0.08141024016247352,-0.06149836529992851
0.868,0.010691709775554451,-0.043959358506384945,-0.054621657812649986,0.017942042369460086,0.032844948937538095,-0.049650569934124714,0.02418902835780555,0.04622824420055991,-0.015400896401865562,0.05686065443585016,-0.08926899374953538,-0.06833500849317921
0.87,0.019135094019551113,-0.04257349485511597,-0.06165616262372695,0.012893616601867854,0.03976127664653494,-0.05282238092322895,0.020381425207611867,0.05206658983370448,-0.009213327951840716,0.05748720893725843,-0.09059633911124042,-0.07081244628960294
0.872,0.019757980302998544,-0.04076504474199567,-0.06051365318726525,0.011436338676699577,0.038929553238005773,-0.05164795633304598,0.02058222169079302,0.05644885648283892,-0.0010051597077324597,0.06420723062940592,-0.08595768995132543,-0.0679279463095622
0.874,0.01770384565075849,-0.03862883775908914,-0.05637860687441065,0.010929110453460839,0.03565393693837162,-0.04860617531106156,0.022021529913728365,0.057673633079849934,0.004308681345599142,0.07335896231116143,-0.08003389141274365,-0.062423696838012806
0.876,0.02086947579100483,-0.03471867613197886,-0.05573603520837693,0.0070430395894786075,0.03689522749883037,-0.04650445217176458,0.020980897913782676,0.05704191021829628,0.006269649120213171,0.08045721004552882,-0.07428330645840679,-0.0561143007731954
0.878,0.02832194897829394,-0.02980115087362161,-0.05844536241659949,0.0010413817569482238,0.041846432447721855,-0.045555506242497275,0.017669852497895863,0.05993425151879839,0.008587101548429737,0.08417712935272362,-0.06606260094245348,-0.04846005571375071
0.88,0.03683861658237501,-0.025710426123066156,-0.0629601504520115,-0.004579234221661888,0.04812874943285689,-0.045526677051142314,0.014485617192398463,0.072775501240763,0.012145704212435448,0.08517371622889743,-0.05618809494134152,-0.041115961943898695
0.882,0.052924008168020564,-0.022630047348783787,-0.0758069183642086,-0.013522661476354834,0.06274931530824657,-0.049884426399632684,0.01019528278977122,0.09564197162584594,0.011570350356232606,0.08200824167978617,-0.05262931582067854,-0.04070404854678882
0.884,0.07816588846033161,-0.02057547738739998,-0.09869874723007055,-0.02689331471197419,0.08751877171634898,-0.060094380411897616,0.002985106991109632,0.12165623896906713,0.004304052259789997,0.07458915218696283,-0.059799369496104426,-0.0496299546676605
0.886,0.08934373241455097,-0.01992452254517419,-0.10899498925670813,-0.03257727716410284,0.0988094279503554,-0.06523544473939366,-0.0015170926149216698,0.1474020712604662,-0.0004977581101342428,0.07129068472016868,-0.06714451606662418,-0.056680628876843255
0.888,0.0626544873890318,-0.01886965748710942,-0.081132621899322,-0.01936687958074428,0.07138032699470495,-0.051174157385387734,0.004905230836740425,0.1762230697746538,0.008495474290669073,0.08242056386422153,-0.058933738691539624,-0.04771782161471586
0.89,0.012798602920622595,-0.014675815382270552,-0.027095419577001414,0.003725868163109176,0.018885556936111162,-0.022148023375255302,0.020622910903954968,0.2082640970324897,0.02854427265052264,0.10594341769745179,-0.034436842420432864,-0.024220752820358554
0.892,-0.022023696582281215,-0.00841950735199308,0.013804032178195534,0.017960171949307647,-0.019382263355885585,0.0016213251902334365,0.03512208652297198,0.23639076252931857,0.04605603363270667,0.129403008835865,-0.008119713314080335,-0.001015040068921861
0.894,-0.026139189568137558,-0.004247616374572414,0.021862705698982948,0.017802421063454026,-0.025723528992976065,0.008126919696258316,0.04051275396945086,0.25362228104573525,0.05306611023861719,0.14448350981120178,0.008898603764353336,0.01188946026901679
0.896,-0.01258362048718691,-0.003731977773100107,0.00873456529912797,0.010735620124220366,-0.012709573354096297,0.002277143660667737,0.036551558196844816,0.2583794947746636,0.05147654390998329,0.15144079402799157,0.01794136225557957,0.016436522359522587
0.898,0.003808701931684995,-0.004226874720165406,-0.00808333378984256,0.0027291559329808896,0.003721976088124599,-0.006339844992202541,0.028056742485228627,0.25378410072987606,0.04618614988934884,0.15314593241643212,0.02459459506314218,0.018863255798802787
0.9,0.018044444137033617,-0.002497894219992282,-0.020504478506709844,-0.005474997935925265,0.017358983278788338,-0.012336098868801701,0.02079152477289783,0.24588231564381588,0.041973150151261025,0.1521704928884194,0.030547681363093257,0.022678230842590675
0.902,0.027662975515778575,0.0019069521774866627,-0.02571198448733628,-0.01281173068721395,0.025142046451822032,-0.013445855194894885,0.01772332168910537,0.24138489743342076,0.04318199510567946,0.15170222802763203,0.035342831408248475,0.028277637993241102
0.904,0.028166624567855014,0.007214005790066577,-0.02097379725483375,-0.016115912580391484,0.022825061927373855,-0.00847533787882304,0.01877500677993299,0.2448201430832199,0.05206281655369277,0.15509816904056414,0.04028346946637144,0.034606261505665134
0.906,0.018146110611265736,0.012699842442668153,-0.005601103600148628,-0.01445439272993951,0.009728061568847637,0.00235302177362806,0.02319562118749162,0.2559103026207719,0.06680591531594099,0.16323895767122257,0.046861137871615395,0.03980373195972299
0.908,0.007665187143495358,0.020145273424300152,0.012119079979728185,-0.013696514396090797,-0.003983135309164499,0.015343368908238125,0.028730342693635894,0.2693826129303808,0.08025145489706136,0.17239749178289632,0.05330699130917247,0.041954494286184835
0.91,0.013644253674314837,0.031178766884208516,0.016987845124717852,-0.022690417423927516,-0.0021549278148067464,0.023720701164683066,0.03030306207207962,0.28048429486398685,0.08511197107841734,0.1776770474263374,0.05653837683042226,0.0416237122809617
0.912,0.03735382112618063,0.04372854196255946,0.005801575037813348,-0.040578429815044975,0.01642380790593832,0.02458849497146385,0.025386428118874052,0.2904923417879195,0.08383337330500933,0.180342598869896,0.05867241273869273,0.04408123697338773
0.914,0.05733817162241475,0.053160637517997406,-0.004573736198564473,-0.05431075446193971,0.031802424079134264,0.02343818449501377,0.01880429426515196,0.30210959320676734,0.08522576589372786,0.18686178086375715,0.06720972308160018,0.05537666055565339
0.916,0.058026002709029245,0.05752527328224693,-0.000615479744487852,-0.055892405775510995,0.02962910716366391,0.026357988291440915,0.01649078491339244,0.31144354090066256,0.08981825594960446,0.19816532692695096,0.08448309115465852,0.07400664631567443
0.918,0.05055954171040753,0.059198593903729814,0.008725152219603849,-0.053051996183028534,0.020406619076621522,0.03133158743759264,0.017972920517410854,0.3114531884955861,0.09023963968311612,0.20679135309460944,0.1013837388266609,0.09071073356495903
0.92,0.05244648668414943,0.06085701537652959,0.00851159514937248,-0.05566363425148242,0.020536074285551865,0.032700876299308373,0.01946619551789905,0.3021220729306714,0.08557896980925404,0.20785916335725962,0.1076910321353305,0.09877446261725874
0.922,0.062499028015793295,0.06249633518361928,6.295219416099784e-06,-0.06180293722854464,0.02916985193053691,0.03014317334247847,0.019627691427472758,0.2916162978191487,0.08341010208572934,0.20593854891662783,0.10517032442195699,0.10059097697888124
0.924,0.06848855508630547,0.0635319796940338,-0.0050045839711463855,-0.06462903872917418,0.03492905471273216,0.02831236494530829,0.018868869804379688,0.2879130006477955,0.08811257547025875,0.20789829038860047,0.10429952363262757,0.1029870880433442
0.926,0.06822963240642135,0.0658512849208234,-0.002406220570810576,-0.06505922160090558,0.034562865104983936,0.03032465437640225,0.017033652244996537,0.2927491830785743,0.09578290909315562,0.21443993852478851,0.11116853505086569,0.10976446709316509
0.928,0.06904450179109092,0.07176437404133332,0.002732368764232329,-0.06872967357176206,0.03314921859414671,0.035419323226391776,0.014868212315733983,0.30336477432138564,0.1019564091060912,0.222272341921783,0.12361871064551629,0.12055276089185356
0.93,0.07046178722758759,0.07953968210730848,0.009077003362723811,-0.07416520870314623,0.030330123242864323,0.04243794908314253,0.01543414553623135,0.31653540464082297,0.10882779269277235,0.2308547080453699,0.13732927459799518,0.13458994249438355
0.932,0.06293067529541664,0.08548891242437179,0.02245209959596125,-0.0740686563540707,0.01900804764695059,0.05247468734639607,0.020988049557044853,0.32945426393613647,0.12033964700038884,0.24208913224811307,0.1503218876501108,0.1518058442397414
0.934,0.04664267078909555,0.09020518766481948,0.043378432450223374,-0.06854646942497634,6.467370318809393e-05,0.0658095504143442,0.029326978420371127,0.3391102673556053,0.13304853823232105,0.2546909108506916,0.16258447497726053,0.16951053437446917
