time,I,II,III,aVR,aVL,aVF,V1,V2,V3,V4,V5,V6
0.0,-0.0007459471034077819,-0.0017112904137002052,-0.0009653433102924235,0.001294437620619386,0.00010969810344232086,-0.0013821961033732427,-0.00043879241376928345,-0.0017112904137002052,-0.0035322789308427317,-0.0030057280343195915,-0.00278633182743495,-0.0023475394136656664
0.002,-0.005100985025159298,-0.011844222015114333,-0.006743236989955035,0.008932369678542839,0.0007662769306767086,-0.009567330843772672,-0.0030651077227068346,-0.011844222015114333,-0.024674117167790017,-0.021522538797064956,-0.019244037832303756,-0.016617722523366206
0.004,-0.015576654236106244,-0.03672632986370771,-0.021149675627601464,0.027593515388152526,0.0024033722304092576,-0.029669468558615276,-0.00961348892163703,-0.03672632986370771,-0.07727888771573577,-0.06931113217357722,-0.05918400648071476,-0.052635625281784566
0.006,-0.028527532500116866,-0.06827183764835879,-0.03974430514824191,0.05108758444092949,0.0044067002088578975,-0.055071679433409196,-0.01815335173195473,-0.06816213954491646,-0.14477144682883264,-0.13344579191199848,-0.10804973429334619,-0.09874198475893224
0.008,-0.036306348795800664,-0.08729444348428157,-0.05098809468848091,0.06514554137608158,0.0051375228419111695,-0.07000558392593521,-0.0237894282211236,-0.0867475627604895,-0.1848232803433121,-0.17337507966347368,-0.1339923768031758,-0.1229046033165161
0.01,-0.03721215198027472,-0.08652212390548679,-0.04933191154590053,0.06486237083159897,0.00348014855151308,-0.06836851480193362,-0.024695333361598668,-0.0857610036398733,-0.17955734365175532,-0.16619519959687687,-0.128385743605259,-0.10982381510049315
0.012,-0.03759870682687267,-0.07753982823237504,-0.04007243717094922,0.059627168314531236,-0.0007882631933263482,-0.059445177260618404,-0.02401670281732862,-0.07837705510468543,-0.15539201550523293,-0.1338552842244909,-0.11399935631205521,-0.08099014312791616
0.014,-0.04305941944018343,-0.07400330957918784,-0.031271309198950895,0.059749005412756205,-0.007141337863558602,-0.05423473202340373,-0.024557611184771257,-0.0778934266968139,-0.14483481525288128,-0.11235485975703385,-0.10856980458900627,-0.06894674658098568
0.016,-0.05131470092228267,-0.07852476493466065,-0.027632669228756165,0.06584155806435266,-0.012905255518653206,-0.055433216742016456,-0.024781302744014463,-0.0827340319980651,-0.1514713997995363,-0.11112773589955106,-0.10645572882426661,-0.08531091049032057
0.018,-0.055583576269142156,-0.08426287441708187,-0.0289348388193088,0.07103407873270343,-0.01484159162101465,-0.058810299930146165,-0.022200967330418958,-0.0840146783333016,-0.15878511038119372,-0.11467352780079519,-0.10008101234835416,-0.11614546191361488
0.02,-0.052949835445890825,-0.08283335234330899,-0.029857843437280516,0.0691756091864812,-0.01357384439065884,-0.05808817718280998,-0.018309206848198905,-0.08008839316679864,-0.15741842614661367,-0.11248538435908802,-0.09639396837873056,-0.13755262650129246
0.022,-0.04626124867865201,-0.07236876401343283,-0.025961718728102077,0.06048829703200832,-0.01222717015354059,-0.05094885917124749,-0.01656727401042662,-0.07736185163585181,-0.15241482593079816,-0.11007345724420009,-0.1024770986721864,-0.13538343247547718
0.024,-0.039957261164600175,-0.06117524867436032,-0.021154771799543358,0.05158020391920183,-0.011107108559238398,-0.04344866930641755,-0.017318033880629153,-0.07910835873644065,-0.14990705272023322,-0.1136370240698311,-0.11051847233165392,-0.11687218967093391
0.026,-0.03688576889760536,-0.0600752646271065,-0.023235625649661886,0.04948784866585915,-0.008151753971032526,-0.04434482162133584,-0.01821081470944478,-0.08089240860824605,-0.14917766912784933,-0.11956013811510842,-0.10881625201976278,-0.10270094542729712
0.028,-0.03687757915564599,-0.06861769611300578,-0.03179653527988226,0.053799845701511,-0.0036693207401364766,-0.05285371621539458,-0.018089919420397886,-0.07837234565150537,-0.14799563337117752,-0.12004865258854464,-0.09708177153970529,-0.10433313503622825
0.03,-0.03726137235943221,-0.07514787872076265,-0.03788866749969516,0.057369889660310536,-0.0006267361479862857,-0.05869157272327942,-0.017980022692370187,-0.07398853074484579,-0.14691572796860147,-0.11309111478595679,-0.0824139657838493,-0.11298458664599793
0.032,-0.03566018102023034,-0.07220948169399863,-0.03649775524800548,0.055543702906478004,-0.00030334818113276834,-0.05594057196489081,-0.018889515185552694,-0.07313611991433763,-0.146394917587379,-0.10586989545062006,-0.07176287220250425,-0.11296742914562681
0.034,-0.03211113194150488,-0.0640574534855179,-0.03177774776666063,0.05022292810822587,-0.0008736314678969726,-0.04900264629140111,-0.020084280819099295,-0.07683917568870563,-0.14510348726331893,-0.10696555002462071,-0.07217600449722945,-0.09939237181647431
0.036,-0.028971701816520166,-0.05836332605997741,-0.028941710291563817,0.04555080566925241,-0.0008205552398891913,-0.04419073397642576,-0.01980835008982539,-0.08091181155800678,-0.14292523423513642,-0.11736017959198364,-0.08451954573139257,-0.0812461553009855
0.038,-0.02955077903159735,-0.05758831759575861,-0.027322019973941895,0.04428520135164595,-0.001779818003150235,-0.04239598184013636,-0.016870322332071766,-0.0810092740909058,-0.1426003077787301,-0.13086478192213133,-0.09761198985793128,-0.07276222705797432
0.04,-0.036158337337244426,-0.05942305452502011,-0.022719075601214556,0.04766242109660297,-0.007167231541949436,-0.040701038174371595,-0.010566499215197436,-0.07644323020949347,-0.14693200738851925,-0.13815793867047713,-0.1001087703577197,-0.08092203081963922
0.042,-0.047301944504341824,-0.0609000950474864,-0.013689413419885969,0.05449873151619673,-0.017377562547424206,-0.03724657394401418,0.0013279149813100121,-0.06764825319628262,-0.1548715114394651,-0.13227578645941096,-0.09284230456178053,-0.09731671502958587
0.044,-0.056548530223899635,-0.059932849192448574,-0.003974741994917602,0.05989084931802836,-0.02718179166830953,-0.03286535523322814,0.02311620173604019,-0.049935720836775756,-0.16110119823999577,-0.11818643429001331,-0.0852086038846794,-0.10661198746163972
0.046,-0.05726037014710984,-0.054345070097948006,0.0024490595500697423,0.05798655243148539,-0.030847617304465627,-0.028002376238812462,0.05779897997583557,-0.014220088946350568,-0.16042486428515834,-0.11190457792877587,-0.08596935464788423,-0.10547332061867914
0.048,-0.049133748059634996,-0.04092457993736131,0.008214956667208081,0.046726234207495734,-0.029562990906900986,-0.019092818327546675,0.10373016629774624,0.04265820388745159,-0.1512497971878219,-0.12058534780752361,-0.09220276729010139,-0.10227619995914318
0.05,-0.038036517624943755,-0.015995225019582216,0.022267281746684974,0.02814049072647174,-0.031038941855548004,0.0004948514068113387,0.1551341986396625,0.11222462361812377,-0.13230849387766527,-0.12859620041901773,-0.08577115794610062,-0.09663262213106957
0.052,-0.028903990909760844,0.023378351048142954,0.0522741501644901,0.0038703075431233878,-0.04153548327162046,0.03589298630006594,0.2056674568803835,0.18386419825058722,-0.09740678763394633,-0.1112463243793208,-0.053471855040048435,-0.07767071166168618
0.054,-0.019392338576014925,0.078101467671727,0.09709367437547214,-0.02793975836322063,-0.05908127247100478,0.086525518434624,0.25424360591742184,0.25951750378809163,-0.03635651690775948,-0.05750926815089018,-0.004500308150921378,-0.043097197029330694
0.056,-0.001957263876467267,0.1427538028160959,0.1441868054298116,-0.0686495025391349,-0.07372509100773571,0.14280056675507868,0.3072682214754643,0.3536152378578412,0.058445093737150663,0.02644025879393025,0.04469076902490438,-0.0002531490502144301
0.058,0.0281787912538575,0.20290124605135518,0.1744576354217033,-0.11339181505738787,-0.07364948814025013,0.1875043423453571,0.3685282297867989,0.4719623466623521,0.18508254281906591,0.12941688438056906,0.09110353890244824,0.047980796423358014
0.06,0.07004957151904947,0.24646177343902076,0.17648874305445064,-0.15576038297596087,-0.053512298719671024,0.2093145176933553,0.4229684753360621,0.588972097267686,0.33131754015838566,0.24323351389254755,0.1427711365745282,0.10412724984604604
0.062,0.12095618465757736,0.28035847745923914,0.15957744103546487,-0.19827891508652795,-0.01938180393360951,0.21756040834991758,0.43137886507431294,0.651266583695155,0.48527717590363534,0.36510106589724906,0.2075365130992103,0.17017926973503109
0.064,0.1796873678266281,0.32427028977445777,0.1446324176929513,-0.2502729826663341,0.01733424393009082,0.2331225789126122,0.3472470197141492,0.612654067223432,0.6471146929601641,0.4994758965018087,0.2897987945338071,0.2466454618084513
0.066,0.2447303689009838,0.3827844248883757,0.13798536288875754,-0.312825100512187,0.052628215238481026,0.2605549015787341,0.15625775158906385,0.47355644333686486,0.8231703318462064,0.6495451465838719,0.38963792611329656,0.3303802232565352
0.068,0.30918841117016654,0.4345587966137575,0.12531067726748327,-0.3714568574249607,0.09067993651442419,0.2807150033045214,-0.08995606479590057,0.2886896224057146,1.0109843713322055,0.8033068311742598,0.49718538345082613,0.4104135243991633
0.07,0.35691955954111154,0.45704297859337795,0.1001319987849975,-0.40683638154473745,0.1270621605619953,0.2788109590608933,-0.29795032447440184,0.12607718260608825,1.199689606232161,0.9392363560694915,0.5923467195687798,0.4706659660197555
0.072,0.366385632472445,0.453883222390191,0.08751218150967342,-0.40993687918651583,0.13820618877062527,0.2699713353375315,-0.4121688398603454,0.005187212256226771,1.3801571045037466,1.0461482136123317,0.6580030807803405,0.5029507430342255
0.074,0.32628329103127385,0.44488538770243474,0.11848354570370137,-0.3849715281535484,0.1026349525575871,0.2805799361086294,-0.4599437691289051,-0.11495008558659346,1.5409348475076912,1.1251802330283602,0.6893539501968464,0.5131711270770404
0.076,0.2516038206077008,0.4290627639643189,0.1771177043779157,-0.33945194189403377,0.03608813447772321,0.3024365554022326,-0.5005983720445035,-0.2665695529442446,1.6542964173927144,1.168017293711774,0.6851147971587984,0.504186376127397
0.078,0.17668183989793526,0.3737486135060396,0.1966306080807428,-0.2746483178539186,-0.010825435403805306,0.28495150764416227,-0.5485613097473344,-0.41109860536570686,1.672263217366688,1.139292256003929,0.6366563320889523,0.45978417665776994
0.08,0.12563681322572162,0.25275665185901997,0.12686536261536466,-0.1891264327392217,-0.0016164971982292778,0.18899191812370938,-0.574929716084194,-0.48581277773250914,1.5373745421618945,0.9930281257546079,0.5328409938813744,0.36169231800592
0.082,0.0934533376675903,0.08642707304718591,-0.006992683361026576,-0.0899399764498899,0.0485381528899041,0.03780834227552907,-0.5684522626788505,-0.4957629870171128,1.2163289359145095,0.7209551358834991,0.3757914851628283,0.219942605483594
0.084,0.0593769325067812,-0.07061596846719681,-0.1298439084885367,0.006019303296763973,0.092779196639194,-0.10237604004220983,-0.5524105513128648,-0.5056816029752976,0.750387300060324,0.3837212361769563,0.19084335445416017,0.07322867894786997
0.086,0.014127039913360104,-0.17863482681360296,-0.19267950032979897,0.08322499678666384,0.10255015554300732,-0.18697807824526258,-0.5415783828201624,-0.5467534568599712,0.25820382577800066,0.07419897175234802,0.015766716284455026,-0.04491888845023837
0.088,-0.03140235866638669,-0.24019405836708407,-0.2087095900242102,0.13725294414733058,0.08898140690354871,-0.22502553935545014,-0.519167623339913,-0.5808731664390655,-0.1409040272637174,-0.1543614911617183,-0.12240704775746586,-0.1315101497238081
0.09,-0.06100867431022915,-0.28049376480047217,-0.21923597671988124,0.17252401547424917,0.07969205934325457,-0.25063660078505634,-0.46476160717153314,-0.5587550766361502,-0.3938711452930696,-0.30201687951936723,-0.2131434710205783,-0.19891640674741318
0.092,-0.06898178062405443,-0.3120278851640687,-0.24275527234097596,0.1924930202371471,0.08677303257339526,-0.2788847999802864,-0.3843429475156946,-0.47784815588074475,-0.501217296593285,-0.37469642817218307,-0.251745259712773,-0.2470005686694007
0.094,-0.060730646515900294,-0.32768796773799247,-0.2669988086725335,0.19621685747909423,0.10223178529571036,-0.299028756325213,-0.3055202472974499,-0.3775186184395721,-0.488011069269644,-0.37063322883880334,-0.24470623934335237,-0.2649043817489157
0.096,-0.044131926961819605,-0.3221109915196938,-0.2784125796718312,0.18482740018689395,0.1161664617818231,-0.3014744304755715,-0.2512747925927417,-0.29812141044452967,-0.408200786606108,-0.3145442269248009,-0.21974064905468899,-0.2533348829001322
0.098,-0.02470567943843266,-0.3038385148097238,-0.2795436870047582,0.16562754805847413,0.12712389261809567,-0.2927843772680427,-0.22074670600426782,-0.25085079324524795,-0.3307622360675216,-0.25707208827942524,-0.20333402221394137,-0.23019687194004682
0.1,-0.007150256983029643,-0.28417192929835744,-0.27707180909273527,0.1468862204404845,0.1351353634139074,-0.28249294618898235,-0.19334979300291685,-0.218403894361173,-0.29116508736594615,-0.2290232055622679,-0.19498311987135208,-0.21235241064015756
0.102,0.003765673627505988,-0.26524821274099275,-0.2688227835230855,0.13179977953094626,0.13577434274396347,-0.26976885265232875,-0.1519823461421987,-0.1799579680312487,-0.27399834079649643,-0.221180504118495,-0.1814693262236475,-0.19879079495172053
0.104,0.005350319066221453,-0.24220272166403425,-0.24742692791881332,0.1191154206248033,0.12443986407137436,-0.24741857164816736,-0.10020544494905005,-0.1337301877583755,-0.25003074824446236,-0.21031657298714337,-0.16005020157549862,-0.17637648500559083
0.106,-0.0011026073807720587,-0.21092518387733325,-0.20986300146895134,0.10653059621462856,0.10176117757599236,-0.21179036823184635,-0.05475175126324256,-0.09432138828370643,-0.21285793573189477,-0.1871631711413365,-0.13791641010104122,-0.14299272907070346
0.108,-0.010687851525728749,-0.17332632453252403,-0.1627482796482949,0.09278026874111048,0.07413655011609663,-0.16805592247598575,-0.026834878948011023,-0.0733946544996943,-0.1766350881576758,-0.15749840792835657,-0.125051274856947,-0.11711155228556318
0.11,-0.017871776703475336,-0.1377994892140657,-0.12007932196761921,0.07886003408720908,0.050382233427845605,-0.12832119009486026,-0.014297737507984895,-0.06781101558434723,-0.15390130979116998,-0.12995283552202685,-0.12780862295780424,-0.11393736723647216
0.112,-0.01969780334812456,-0.11170547232668009,-0.09231893945459929,0.06646595508945514,0.036116110227756675,-0.10162185475968989,-0.007118655250750308,-0.06429245040088445,-0.1434990888085743,-0.1107105965054383,-0.14006631721186918,-0.12262479453653057
0.114,-0.016701227211478847,-0.09265272339148324,-0.07647615862590984,0.05480217998810547,0.029453421222087002,-0.08493741828312512,0.0018506035509635425,-0.05326225954581214,-0.13520782512040228,-0.10291854417643093,-0.14574224112993647,-0.12314977345186574
0.116,-0.011997887304379723,-0.07197246390841328,-0.06058626724725205,0.04173471637143762,0.02320120688956581,-0.0677452218197096,0.010754101420872285,-0.037976456396002556,-0.1213523437040344,-0.10159149046772695,-0.13383337302891588,-0.11275173308587717
0.118,-0.009199668593120136,-0.04724938136327625,-0.038619103087765436,0.02824339860843615,0.012887386981715534,-0.04550216480769484,0.014132158212360139,-0.028733150504079995,-0.10345352125598771,-0.09276639264507656,-0.10859193859090074,-0.09984015361223932
0.12,-0.010072133060175768,-0.026364444757944156,-0.01686625664877443,0.01894938416296083,0.001304989174738662,-0.024708617090321076,0.012344414338013768,-0.02908632214424668,-0.08858260125353083,-0.06888950653882878,-0.0855170792389288,-0.08622165869074194
0.122,-0.013509727148673364,-0.01689537717918919,-0.0040389173290601085,0.016734896671945474,-0.006264938178274974,-0.013246026281838824,0.012120576224088285,-0.03152269294691647,-0.0812174285007105,-0.0441115395876658,-0.07616901533072977,-0.0710874644240432
0.124,-0.017078737562468468,-0.01659698494148644,-8.998588403628166e-05,0.019054482655689323,-0.009209746589433966,-0.010284790311227423,0.01800656051969327,-0.027304926628404308,-0.08025337276911189,-0.040301860899549034,-0.07571187354772793,-0.062012951019897816
0.126,-0.020256200152078276,-0.019093180057555132,0.0009388763465179637,0.02224564708521073,-0.011407208849213098,-0.010164286894414235,0.026349157426603525,-0.01705117822299309,-0.08179630914634027,-0.05617086296621023,-0.07000406220635425,-0.06663100858306922
0.128,-0.02462132789167351,-0.022114885219837895,0.0026473698255531034,0.025679728007346653,-0.015529488165933823,-0.010430020319493744,0.02999678933470991,-0.008979215554813303,-0.08253227619334318,-0.06770893264462646,-0.05386280234190826,-0.07742657269842129
0.13,-0.029796478833709613,-0.024241008840571614,0.0058675695617478735,0.028419451556038304,-0.020422975194627106,-0.010178579740135767,0.02671413358715426,-0.009049074116369503,-0.08225302458911955,-0.06178509817873353,-0.0346636263421914,-0.07805712859173615
0.132,-0.031975048966379,-0.022660651442940986,0.009673670654504578,0.027649781805108284,-0.02282436715956429,-0.008070391061148565,0.02076056330421542,-0.01548805108158131,-0.08308816306778605,-0.04923218806668622,-0.022316583148867558,-0.06539054204178554
0.134,-0.028458802713960816,-0.01847155440620976,0.010329632468340313,0.023224987622562223,-0.020380485046518446,-0.005881921929020388,0.017761775775577374,-0.02127396280682547,-0.08450435959253787,-0.04245303938975609,-0.021727072346010106,-0.05442505792924096
0.136,-0.0214607072066911,-0.014970539396341288,0.006689738835851136,0.018023716694335123,-0.014875104219593437,-0.005760281340827275,0.01902508177286443,-0.02096469119119879,-0.08272018792468416,-0.039669013833762555,-0.02748267910313007,-0.058144881623222955
0.138,-0.01586988511917557,-0.0109700617953769,0.00491261502620513,0.013485305316655167,-0.011909698638884964,-0.00457473839472425,0.02129601312944964,-0.015637299102502052,-0.07676378499336176,-0.03516612317096788,-0.025907770633653793,-0.0717053591650335
0.14,-0.01497559637399587,-0.004389632511557844,0.010609773365610102,0.009940622361001567,-0.015079988510137617,0.0011477843706253898,0.021967052270815357,-0.010476469526556974,-0.07023132880798101,-0.032259768843972324,-0.009345851648170964,-0.08158472289409888
0.142,-0.01850126552813757,0.001604249237904072,0.020357065779567793,0.00903419377151408,-0.021676651094820365,0.008530800788911485,0.022070608720667326,-0.008463227982547766,-0.066454364018892,-0.03893432434120156,0.016123802051458348,-0.08290844123603702
0.144,-0.022938211763637528,0.003512113114617743,0.026771309200251545,0.01091645397610177,-0.026063666694646777,0.01289573041241486,0.023758106329823423,-0.00779150769105535,-0.06560330903523581,-0.05319717815972901,0.03795187181435994,-0.08071995758796525
0.146,-0.02462222663926827,0.002898638230925574,0.027514432408543905,0.012620530386091887,-0.026003137189310216,0.013842344582948573,0.027534998189624554,-0.0047231993990464426,-0.06546413997639398,-0.06185219791232767,0.046299824612528406,-0.07844116816264404
0.148,-0.023556674137509982,0.0019558250424593663,0.025200497970489982,0.01267867573422206,-0.023921803586337328,0.012753976204833536,0.03210520649352798,0.0015301018450963903,-0.06335913481604467,-0.057037797923893276,0.040495215934949605,-0.07317599217358992
0.15,-0.02242036095213921,0.00023343762307005342,0.022558657460642985,0.012851797148711902,-0.02272985358952937,0.010044398677547391,0.03467522779851019,0.006771986218052563,-0.05926600018490925,-0.04528832231268447,0.030043380363927508,-0.06208579582514446
0.152,-0.02200897321273787,-0.0018046943659436247,0.02057649893512791,0.013733779804188804,-0.022267953801823677,0.007081780078527113,0.0324061130572394,0.005664262908804732,-0.05618420393151168,-0.03740314556534291,0.023411862374166044,-0.047984731057583975
0.154,-0.02082299430469793,-0.0019713555906293884,0.019282594909736835,0.013410874593362994,-0.02088730013785081,0.006215096270953175,0.02596081990315583,-0.0018501666818844123,-0.055580383771935346,-0.03720767131973428,0.01754950881358395,-0.03781970107578372
0.156,-0.01887586098007192,0.0002689864819244563,0.01909514749783892,0.011216425504682128,-0.01930810518504457,0.008318344275543108,0.019824273127608903,-0.009992157858389663,-0.055540672231987775,-0.04179644842290914,0.006266287721416719,-0.036955367687176506
0.158,-0.01806763886088709,0.0032388362818637642,0.02065959549471687,0.009032621697536535,-0.019926758236727918,0.012024539684471999,0.01729814738452071,-0.014050353330296172,-0.054430675478950884,-0.04493304501750116,-0.0069704402708711385,-0.04403207159904448
0.16,-0.01865445504616156,0.005332803544156821,0.02306159370376173,0.008138887676707621,-0.022456311892506672,0.01479874776457379,0.017479192568833877,-0.01470585919573328,-0.05269288497150895,-0.040252447356234095,-0.014685213830350678,-0.05144620898146039
0.162,-0.018736474363223156,0.006769132848766297,0.02472178098805123,0.007266577433898474,-0.023994112018460315,0.015654192359279145,0.01810858275942472,-0.014490417138497353,-0.05087195488592259,-0.029048213514595977,-0.017698117005159608,-0.05249711767582267
0.164,-0.01714936719919873,0.009893825163375333,0.026581745525877675,0.004480047763449256,-0.023642416774479275,0.01728742887048377,0.019173289217692284,-0.013290245957418269,-0.04858368180889156,-0.02030428408893014,-0.021138450474518653,-0.047821392309838194
0.166,-0.014813026861199823,0.01690472378033326,0.031498781373506146,-0.0002858012767970338,-0.02389572660088774,0.02313507654871315,0.022194743081874094,-0.009030091919814123,-0.04525017741717571,-0.017861780912588714,-0.022901386363612528,-0.0441273092298874
0.168,-0.013904229446726384,0.026083726634974002,0.039882720029196565,-0.004724283812541713,-0.027133329609124925,0.032196961445911415,0.02632608994453748,-0.0019417123361090242,-0.04092872074910529,-0.01736699272361549,-0.01735570409696559,-0.04735713208530335
0.17,-0.015765295695408313,0.03167529397167114,0.04729498754260031,-0.005994595534400456,-0.031970422537780804,0.03874075461100766,0.02757840334391044,0.003739618428321448,-0.037131506128168595,-0.015624591766320856,-0.0066264744473929875,-0.05558817052618685
0.172,-0.01841696395826016,0.029504451920994566,0.047487267912821436,-0.003697346731260597,-0.03354042291031537,0.03746368119474026,0.023738917178259496,0.0037301165446633677,-0.0362153099714449,-0.013304458969967797,0.0026877129405037405,-0.05834105766267204
0.174,-0.017681966478304396,0.022308968616865786,0.03911300785351787,-0.0008646596327095882,-0.02863368433311606,0.029169868662207075,0.017814536792528406,-0.0016176850342870849,-0.03823413224458266,-0.01249961900284855,0.009091606001626626,-0.04858826685828697
0.176,-0.012536420225508854,0.01712600789187947,0.028493028458564402,-0.0009102809690245469,-0.02038115730146798,0.02086634267643525,0.014019621947867511,-0.007836081574607181,-0.03998163167401965,-0.015031643409627505,0.01398646866483343,-0.03512803472524471
0.178,-0.0072343606843703135,0.0174501149253649,0.023554341676943296,-0.0038320473274507756,-0.015488023558257574,0.018765237696278175,0.012301738850369549,-0.011504623318724056,-0.03909872941061722,-0.019708227820909033,0.017125696249163755,-0.03288637525371911
0.18,-0.005914825279198935,0.02099935488609927,0.026076448232204886,-0.006938742122720391,-0.01688507465829577,0.022450839396077275,0.010262772750916723,-0.013368319155616697,-0.03626906447579817,-0.02364257607419658,0.020412272947511773,-0.042108144044813764
0.182,-0.007791919477015299,0.024928400426737177,0.0322853262356801,-0.008667809226187243,-0.02184953203918563,0.027824486933825228,0.008834492006914215,-0.014866277270520716,-0.03228003945927062,-0.025871368355950004,0.028876415645309857,-0.04962143436954907
0.184,-0.010099919611943167,0.02903524237832102,0.039074210465094524,-0.009534897213508918,-0.026984995572400014,0.032926617001671946,0.011517587565211521,-0.013997256373259956,-0.026753151317709282,-0.025335432610395253,0.044629407625218775,-0.048322880332602694
0.186,-0.012213144237541163,0.03327483643025738,0.045618397517966695,-0.010129911562578309,-0.031272757753754,0.037685389094118275,0.018423033383348907,-0.0076765614099193104,-0.01993842243163231,-0.01925570361706236,0.06306436772057662,-0.0441768686861809
0.188,-0.014066585010254332,0.03653251235698607,0.05069929154819716,-0.010644227597027696,-0.0340689333097004,0.04135205406772098,0.024902451374068595,0.0033255881154161874,-0.01298155611075302,-0.008778634708236581,0.07497103955183118,-0.044327648203828604
0.19,-0.013296368841453967,0.03932662765315182,0.05261008472873249,-0.01239480107861022,-0.03365763648065207,0.0437205493867976,0.02694103961729852,0.014284217963077984,-0.007090381479280648,-0.0017715834081212464,0.07557796536117976,-0.044538311584569265
0.192,-0.007254688233984939,0.04386270746574923,0.05105936282920572,-0.01728213253120022,-0.02923566815961752,0.04600940701956906,0.025629597802241187,0.02108408669750853,-0.0031669314540962315,-0.0031791565513932373,0.07276783386649183,-0.03530598343083348
0.194,0.0020484069779520865,0.05015256234300631,0.04810501436101895,-0.024484412221945605,-0.023307897836231613,0.04885584945584654,0.024578806157049566,0.02332471686243749,-0.0012904722740829395,-0.005159660650145471,0.07838903179135139,-0.020804196665753026
0.196,0.008443860684630764,0.05546219074039517,0.04717073225822869,-0.030299500553393685,-0.020167261923170865,0.051660013355260416,0.024614671956724885,0.022650697858928478,-0.0008053142794307375,0.004317444916929119,0.09135558911550175,-0.017169519601651192
0.198,0.008790980897167571,0.0571441441485819,0.048702031142005005,-0.03203114092641195,-0.020885134579402,0.052752136818294895,0.024135418908644107,0.020459842256850123,-0.00044745385416934154,0.023155289842969023,0.10081984047906581,-0.02765432445893019
0.2,0.006055565861887149,0.05361342154798003,0.04797922105136713,-0.029543594727871277,-0.02188233289328215,0.04933662708401602,0.023391037228354467,0.018400918847507837,0.002091536295304267,0.03559961251038808,0.1039798121883575,-0.03686295009714069
0.202,0.00430766163065455,0.04595070805200071,0.04188631413922425,-0.024625588266058346,-0.02011352432507126,0.04131251751269491,0.02433717604682831,0.01827033118605572,0.008216938352061122,0.03235078097061313,0.10420441162835388,-0.033152991975457714
0.204,0.0044481497731371274,0.039643676000222984,0.03516467274947476,-0.020748260536899005,-0.017169437786980317,0.034439342179485195,0.027241375928752195,0.020409676081360326,0.01561505847350647,0.02095131544286796,0.0968255740827958,-0.02207878681912574
0.206,0.005155676067019303,0.04060692052219984,0.03533160962314056,-0.020958246018278295,-0.01672193812673379,0.03530049706236062,0.03068087359051396,0.024279234916408245,0.020496848054555233,0.014365293893254772,0.0784399892714347,-0.016473187096349175
0.208,0.005458378171699042,0.04912009372665843,0.04373465804130263,-0.025223815900486155,-0.020029355879131426,0.044193096702226854,0.0333300130758621,0.02978239442298674,0.02238468240148003,0.01613404395493087,0.0627448657753011,-0.02169917855770628
0.21,0.005833876585324114,0.05898245844858372,0.053544079101689325,-0.030524670876699033,-0.024527657713026174,0.05448311622571013,0.03414771098549478,0.03620343666653003,0.024000332841749582,0.020058597510903598,0.06543810322544215,-0.03152882067184826
0.212,0.007463508330000271,0.06359047003520883,0.056756602193761746,-0.03371787974961465,-0.026224513947095348,0.05914048415136623,0.03295144155620713,0.04191514389692625,0.027519263782832114,0.020976884092504918,0.080935335633426,-0.035916277370224244
0.214,0.010827692698214358,0.06361197172948074,0.05352139036624957,-0.03512593888608421,-0.024108160690907328,0.05839722183854567,0.030992100047701376,0.04630097188019326,0.03286442767344497,0.020794883760000334,0.09068580819932831,-0.03129745302985918
0.216,0.014759152623098893,0.06528953415123903,0.051357277976133556,-0.03772229148062712,-0.021406530530810774,0.05832003478022228,0.02910193332995293,0.049276401051788765,0.038113497514909084,0.023467872443858936,0.08753808355550165,-0.023016538871384447
0.218,0.016715883895112152,0.07068521314047534,0.054836808271663554,-0.041795766934890594,-0.02167847976091427,0.061917456460151225,0.02651815782492442,0.04938228549663976,0.040926849566874896,0.029530199220569812,0.08091307640286977,-0.01826129941160116
0.22,0.015499306571907484,0.0754890005386807,0.06071915165891876,-0.04429764536256161,-0.024696831003058424,0.06627433733576468,0.0232236579526396,0.04585601022713663,0.041266555270669254,0.038432703668824675,0.08182912182498119,-0.017833209803941968
0.222,0.01377774204458373,0.07709143990172095,0.06378331969562578,-0.04455600214111543,-0.02696766700385053,0.06846363343699483,0.021309578929340173,0.041578656340870525,0.0419804255460922,0.05070113067272641,0.08848406786489667,-0.017124047456950706
0.224,0.014939433628064682,0.07819427274364141,0.06352200061720371,-0.04554003584312504,-0.02618658303665135,0.06963282049649532,0.022260517982586034,0.04088677556857401,0.045330011623194694,0.06428051315197061,0.08974572653470482,-0.013218788655426767
0.226,0.017665844304123036,0.08031183012970604,0.06286599431123097,-0.047898047557534074,-0.02387221578680727,0.07125171960562154,0.024954132117752582,0.0447850595443234,0.05075277787883803,0.07421306007713611,0.08128465683685296,-0.005658259937341291
0.228,0.01783548948436819,0.08048291670935252,0.06295549093607486,-0.04825315168621807,-0.022787655288468347,0.07156180010415356,0.027574194255588946,0.05043194662339995,0.057052839596158436,0.07799485165055983,0.06994528800097008,0.00640774756968706
0.23,0.015732696072651688,0.07823318307505897,0.06284646230868841,-0.04591845777193984,-0.02336488244512144,0.0697803060136987,0.029501778902618462,0.05554932690641487,0.06402481293952964,0.07688693884727876,0.06455420570206083,0.020574102534471898
0.232,0.01659435155929139,0.07897679561391345,0.06246198761041165,-0.045919689482040844,-0.023659581847892765,0.06944982250292102,0.0303114476584459,0.060466688946420905,0.07087789662903175,0.07403005260507617,0.07079022410410725,0.02977464247152292
0.234,0.02310615001122062,0.08613144793286723,0.0625352266875457,-0.05194207131340178,-0.021900896226534326,0.07322546160882407,0.028968331380059106,0.06525014813841296,0.07622008342866414,0.07409839970732751,0.08885079403009705,0.03184949120082563
0.236,0.03117363238707845,0.09530036991115089,0.063119806363962,-0.060448336771175594,-0.018772462238410795,0.07842787584408902,0.025607017957716218,0.06887161379711317,0.08057220780641887,0.08125746086114696,0.11009899292869296,0.034855372257512764
0.238,0.03488556090692594,0.10021016259365413,0.06425695413725796,-0.06542285350617771,-0.017089074455536958,0.08137696346819712,0.022305002775359094,0.07156757664326764,0.08618702479959994,0.09619243046626291,0.12299764922755278,0.045613167690656604
0.24,0.033499764503241845,0.10107866099316888,0.06696219401376047,-0.06620577016805304,-0.018583041263508217,0.08299548134949668,0.02053096127028303,0.07403090848824435,0.09368855154446361,0.11273658943891104,0.12332261786259754,0.05759023128388744
0.242,0.031580387311976044,0.10330916747124595,0.07169555745548986,-0.06703148269705313,-0.02164992445273794,0.08679323045717634,0.019542001629118625,0.07508454030448128,0.10072594471520233,0.11796567770016131,0.1129654838636351,0.05904986209550746
0.244,0.03296577199197917,0.10967824958070531,0.07695229987228619,-0.07056211432281961,-0.023552663756982298,0.09329239742222527,0.018390694017461434,0.07408760739281252,0.10506225210774747,0.10647483194406647,0.09528621494471311,0.05091461776563329
0.246,0.03611072183115051,0.11727282039248603,0.0812998305920635,-0.07503475044975125,-0.02415718017414592,0.09953509078578272,0.017775412695444054,0.07408842408809777,0.10831502354364275,0.09333684596305804,0.07898542858767783,0.04518402753146838
0.248,0.03698556586591689,0.12189699941761513,0.0848572873719979,-0.07760784366268318,-0.02532579388962344,0.10298120658117013,0.018616777079474678,0.07862434260039915,0.11437930956655519,0.09895208837592755,0.07644586594529923,0.04646269277400652
0.25,0.03639545816422121,0.12358357950523323,0.08709004333693351,-0.07893348310358393,-0.026650621109951953,0.10383043763828469,0.02012891772711052,0.08698433521344656,0.12386874642151598,0.12321719726186403,0.08964942305409292,0.04925528118817645
0.252,0.03973122777654171,0.12606502662860408,0.08631607024312145,-0.08247935935768831,-0.025097430796974515,0.10400876133698983,0.020788330675175305,0.09553467208930368,0.13352044937775967,0.14557506642474966,0.10564144878334837,0.05229860726398439
0.254,0.047655552912034035,0.1311726057924701,0.08356156832144786,-0.08894866650222681,-0.020466682122074528,0.10527479533603722,0.02034596565181747,0.1019472478482111,0.1415237637063287,0.14835239138888295,0.11059834610529186,0.05989186810963503
0.256,0.05346100709038029,0.13706140542838025,0.08365314250382357,-0.09464751781144849,-0.017607762413328742,0.10866758752283247,0.019641991198732434,0.10628473520509985,0.14907253700016418,0.1340791223909287,0.10366064792153164,0.07098650691855882
0.258,0.05335496869886934,0.14211373813850062,0.08888052965549861,-0.0970790686026001,-0.01968517337427436,0.11408191614822398,0.019124260227386263,0.10937168305658146,0.1566147440573174,0.12142776080593619,0.09707466233961218,0.07878212054081034
0.26,0.0531331507544113,0.14680335733348118,0.09397627623917648,-0.09878778439298402,-0.0221468298367286,0.11922435959139845,0.01907251039602512,0.11231160357897242,0.16373547523967955,0.1263303502146501,0.10497748341374726,0.07982145492455128
0.262,0.059353917371103085,0.15153023781477742,0.0925939485673738,-0.10324607306168056,-0.018651048748976787,0.12117798038738731,0.020736404440141555,0.11732026616088279,0.17243132997895713,0.14712467494996231,0.12900532092429595,0.0781565285250768
0.264,0.06883207902431215,0.15582783020259477,0.08726056409281459,-0.10964465530248331,-0.011222862156858861,0.12048212133021446,0.02482257931869098,0.1258794084830027,0.18500588006477783,0.16920097531727865,0.1541050857910425,0.07978132828263976
0.266,0.07331121727051111,0.1594961570110936,0.08616641011235424,-0.11434342110108972,-0.007798532576706458,0.12096256702765557,0.02912290606542844,0.1355423296357824,0.19904285515784942,0.1820698841393943,0.1632031412916422,0.08529635434514089
0.268,0.07111867817994123,0.16215216449231626,0.09088604165560206,-0.11561828529772614,-0.010496314983866944,0.12411291863486303,0.030221042074688037,0.14164022484176242,0.20920490581560278,0.18704773723197493,0.15416811172049208,0.09119766588219952
0.27,0.06789332975897208,0.16345960590299313,0.09549837474798449,-0.11528161403043218,-0.013925993790938668,0.12772519386310316,0.02752108266778449,0.1428864857802036,0.214083172831478,0.1908270013194037,0.13757534217150402,0.09630554447041383
0.272,0.06858478148347558,0.16622564323309597,0.09768565296636861,-0.11727603996073681,-0.014580260485301897,0.13157302124911485,0.023832551824523995,0.1430985718949052,0.21849214124957744,0.1988177348292756,0.1265446874363932,0.10289807952380721
0.274,0.07380158153087195,0.1755847001092785,0.10184145456194553,-0.12485492440336371,-0.014540612881242723,0.13892618145681312,0.02192023439917249,0.14654362259720652,0.2285791384288052,0.21208915383791618,0.13272728786972438,0.11376173406406881
0.276,0.08159472989917892,0.19179795317206286,0.11020703094924181,-0.1370724313420675,-0.015947984016424468,0.15027634663079759,0.02207247740053016,0.15392227818752144,0.24555896373796932,0.22488603125537104,0.15972490775687698,0.13094370058116628
0.278,0.08937951249839643,0.2076201833202016,0.11818886535774002,-0.14869539619084707,-0.01727522357575046,0.160575454537452,0.023630402582489322,0.1637295972202808,0.26493121261405067,0.2302558267173519,0.19775146157532486,0.152700919385781
0.28,0.09522442791757892,0.2162948604556312,0.12094471523889302,-0.15545005964824535,-0.01628541526453716,0.16550266562499608,0.026632553550709523,0.17422036058869328,0.2815641693306529,0.23096447592482147,0.23161936299650177,0.16937488888417393
0.282,0.09858362048579743,0.21929595411362268,0.12054664420894884,-0.1580875049658918,-0.014134332171172916,0.16744927630488343,0.03029982457536146,0.1834002367624849,0.2936809503461781,0.23657409969848014,0.25284728502458514,0.17055968628182264
0.284,0.09980573145967025,0.2224995157074528,0.1227428725040453,-0.15971746913085466,-0.014102518950967237,0.1716474080952739,0.03218933684477962,0.1900633798134949,0.30178029961697184,0.2484876059927493,0.261185956912256,0.1604182059176913
0.286,0.09976766462544069,0.22694402735772778,0.1276504719287315,-0.16130728779411416,-0.01620038589525351,0.17740759693573205,0.03113908778742314,0.19534231246328004,0.30736129923949623,0.259345255728978,0.2600415420325936,0.15636283627306216
0.288,0.0998242818051904,0.2286646847062148,0.12942852281240794,-0.1620145664204282,-0.016692819190423317,0.17885453873543403,0.029364841913396066,0.2015700304498527,0.3136180704606525,0.2690593270216311,0.2568649637294424,0.1665774317193129
0.29,0.10073991224376627,0.2274504711817747,0.12688624525047082,-0.16234374881394023,-0.014604755412972518,0.17569297927860694,0.029324683617347382,0.20873513694380386,0.32289949282800645,0.2847693675503921,0.2611170565199772,0.1793401376832601
0.292,0.10246152673985447,0.22937390501941138,0.12671053798900464,-0.16463603047500053,-0.013515798638622928,0.1756918961896566,0.029802204094309434,0.21365554192316735,0.33302630037885667,0.30184024195037246,0.27378631684603494,0.18327519930183875
0.294,0.10525868844201361,0.23803358264702773,0.13268969506995787,-0.17017738959598494,-0.015091159737663546,0.18323333025055685,0.027680101970581066,0.21451733165633471,0.340549037674774,0.3071167393322197,0.28353596778749296,0.18558850608271543
0.296,0.10920830299381042,0.24904106766991005,0.14001903673797597,-0.17720129406141702,-0.016646637848586863,0.1931871270765601,0.022880636985669042,0.21369747282242232,0.3464278762479656,0.30339233998592285,0.2787946377160048,0.196583280197199
0.298,0.11315585529620294,0.2566953326711185,0.14362734058751178,-0.18298332805529147,-0.01622072763472406,0.1992869675570641,0.018939168848921856,0.21421235075395534,0.3544275909687505,0.3065851705085947,0.2636393808309785,0.20943936387379614
0.3,0.11616110677026015,0.26102379601346,0.14456190451721068,-0.18702105987362758,-0.015124088734206668,0.2016632335967139,0.018965771278876845,0.216788918943836,0.3659076056766501,0.31938034784823416,0.25757316442511535,0.2134915059624911
0.302,0.11892570167669674,0.26509560668930776,0.14575743566142085,-0.1906735059405809,-0.014849956005385431,0.2038141232247479,0.022994463516819684,0.22143097522400979,0.37907349200746876,0.32967795381169157,0.27608753663592145,0.21555931156233604
0.304,0.12203464100915648,0.27023391225554877,0.1482077520612499,-0.1945762614945175,-0.015350024764084499,0.2077846891653086,0.028338299748650504,0.2282931153718631,0.3916156856331115,0.3324276533762892,0.31368995974363945,0.22830351549555275
0.306,0.12459849391840949,0.27677454220370507,0.1526596649483846,-0.19860363036913836,-0.016518778162808043,0.21401329439033992,0.031171726178019544,0.23617991401671695,0.4023337214349814,0.33568870432261233,0.34829909548977295,0.24601823051201308
0.308,0.12608227092880345,0.28496613424526035,0.15933688788293834,-0.20319926661621826,-0.018269626541456578,0.22163634286861247,0.029698210935971497,0.2429496801194124,0.4111628208464144,0.3456175384910563,0.3635302729695303,0.25078742835211515
0.31,0.12685273805304795,0.29285658251725377,0.16604693126318176,-0.207914575621735,-0.019967442856634505,0.2281332555579779,0.02613872634381115,0.24770187098280633,0.41828936434695463,0.356235790505387,0.3645631733162428,0.2390036875432084
0.312,0.12706241851306324,0.29750769898965096,0.1702278171717551,-0.21078429920984457,-0.021271563569412434,0.2315137909096279,0.023515525886514878,0.25054153105080307,0.4232062518970887,0.35853807457525033,0.36561098331618697,0.22688280537077846
0.314,0.12706137609560178,0.29887668866005934,0.1716804442818113,-0.21126930974356622,-0.02235481495538032,0.23254847528387873,0.02192766393242034,0.2512955971218893,0.42577545744042505,0.35515526559351784,0.3674841344910005,0.22961354696585795
0.316,0.12701776246429983,0.29911436927921736,0.17214722832515628,-0.2109669973902712,-0.023613931439839884,0.23332509451565098,0.01998302155984397,0.2496776296328638,0.42782464407975557,0.3573324740254858,0.3597043137603313,0.2439417890522865
0.318,0.12654908747359672,0.29957598575290234,0.17312441289764322,-0.2113816124087589,-0.0250120723912547,0.23473970583037357,0.017969630419281457,0.24580019747015142,0.43162019166890075,0.3681876524102826,0.34047413305066987,0.2542750602856612
0.32,0.1269923146454776,0.3007557645402187,0.17380472752544668,-0.21341017390536776,-0.024819930797531056,0.23613257842146915,0.01808803598324342,0.24160995360690596,0.4372914018924718,0.3793568485174122,0.32377574639919865,0.25373820499158384
0.322,0.13105232859614013,0.3025796413417009,0.17161481922256028,-0.21719240115493615,-0.020995074608457284,0.2360433471142688,0.02241323532757743,0.24145786743312522,0.4430135958286885,0.384983119452034,0.32677468589270675,0.25210327874867305
0.324,0.13773583029257763,0.3031757768908465,0.16573589599274238,-0.22045924746401263,-0.014732391632167375,0.2330743382935766,0.03124556533185175,0.2482255491499454,0.44659045324648894,0.3889387593116559,0.3525455094728821,0.25879873071080445
0.326,0.1406999616252823,0.2997614059371191,0.15949290676236105,-0.21919331339921533,-0.010864290727713739,0.22755388921406927,0.04234634006922209,0.2590136543130534,0.446224830950165,0.39652371846745116,0.3831217623872423,0.2689746279998323
0.328,0.134896199118262,0.2925558776797387,0.15793661586562846,-0.21227526064034347,-0.013488321087187422,0.22252877981256314,0.05079376640144667,0.26670705800413674,0.44084507333350087,0.4054997419610562,0.3935834886185068,0.27336355522207767
0.33,0.12349045373094801,0.2853116925695064,0.16177901209951315,-0.2035850556671939,-0.020827973195699657,0.22075696882493098,0.05189789185079536,0.2663660216694131,0.42993069962407177,0.4054630345702867,0.37718780864438406,0.2701678412426697
0.332,0.1145126194288596,0.2796794346415378,0.16485866031474267,-0.19691297227549318,-0.026089219220892308,0.22003871348465903,0.04635986271693845,0.25953843631064505,0.4136295175968423,0.3860759451277544,0.35001990652347553,0.26235946869797444
0.334,0.11142531330424467,0.2725341477518625,0.16057959677077138,-0.19139196258367655,-0.025038074867369475,0.2148465680222998,0.04053097253260023,0.251460260848383,0.39446123730894794,0.3508322966362282,0.3316382888583509,0.25148481923836835
0.336,0.11056803004950903,0.26115381946837,0.14990532161743922,-0.1842522338279489,-0.020501567086964087,0.20368202196725713,0.04023218977181888,0.24450135483850868,0.3765492535997851,0.317275576422525,0.3281356333817707,0.23656404870707148
0.338,0.10695344946343294,0.2469124872858016,0.1394733129815713,-0.17476112849856323,-0.017862864075562396,0.19101865240723304,0.045750667548653104,0.2364162919530127,0.36070600361095073,0.29679963758097816,0.3282371901251103,0.21911189913739437
0.34,0.09940589528229661,0.23233465106489148,0.13302989604713,-0.16387431782522316,-0.01877245190377956,0.18101731975314786,0.053124170825247875,0.2256208098432064,0.34359260862527913,0.284370555819008,0.3153931410948253,0.20550779053638674
0.342,0.09024420352889881,0.21841051577990317,0.12872890569239853,-0.1528205066613783,-0.021012824663010053,0.17316867520070905,0.05899579059984054,0.2150661637918209,0.32325442659754133,0.27239956066869575,0.291614162981777,0.19725906812824248
0.344,0.08251412762993532,0.20601324572184482,0.12394667769466096,-0.1432550133674211,-0.02233404572122391,0.1652122429941017,0.06332026207840974,0.20835052656296885,0.30162497047452497,0.2604956153339102,0.27659176314263684,0.18631304453646563
0.346,0.07760984744179437,0.19640126576256806,0.11879187525289385,-0.13653638005298932,-0.022486541647774277,0.1569928171740565,0.0676055201126161,0.20462466410202274,0.2808280048672237,0.24808642648928889,0.27357134115041554,0.1674832728574488
0.348,0.07370271493905639,0.18830450952748956,0.11434509713229632,-0.1310181816312606,-0.022435911788136812,0.14942334201621563,0.07219908555721817,0.20026835451531533,0.26025951064734726,0.2305070226109357,0.2609679759689046,0.14609036682128743
0.35,0.06807819776267852,0.17827312608133658,0.10994337148469444,-0.12308411883622881,-0.022487236367563158,0.14195094362941732,0.0759348940661842,0.19356384861131923,0.23807311109485157,0.20661381548991584,0.2281548151274689,0.1299228309482775
0.352,0.061604390893880125,0.16568589338473447,0.10382098650512225,-0.11253317606345381,-0.021559050576540652,0.13321767440792445,0.07704167621232098,0.18512275218288002,0.21384072198413187,0.18280692572574567,0.19246976557108364,0.12121543265882015
0.354,0.05625094122610832,0.1520772160340489,0.09550097763281731,-0.10178889727404285,-0.019432011385369322,0.12235159178085706,0.07474421807506156,0.1751888737429443,0.18895169145750862,0.16469728896265673,0.17255965174473012,0.11607371080285545
0.356,0.04905827911648003,0.13570981175432556,0.08640636432520281,-0.08964728912460504,-0.01881576505228612,0.10881901584297322,0.07084784488430738,0.16293858423879667,0.16450375636047498,0.14761415564356162,0.16440398086182714,0.10807889788762623
0.358,0.03580868161943644,0.11429661998781378,0.07846563930708467,-0.07304317037272907,-0.022240691099350333,0.09345567289482634,0.06810341437307219,0.1481262343049034,0.13990754862404203,0.12261234733288615,0.15018405380250469,0.09398869773632117
0.36,0.019899295044720565,0.09211142786625516,0.07232936383793984,-0.054688791263906994,-0.02736231926475563,0.0794091010934395,0.0671281632689611,0.13195497970378753,0.11497641773577563,0.09189421240146735,0.12178826327191694,0.07657615261082378
0.362,0.009955271587495908,0.07717907815905278,0.06729953774949102,-0.04194007770048394,-0.029280727427496038,0.06993920125511398,0.0667467115416398,0.11610348705651838,0.09187909258506294,0.06962329880181681,0.08859037590536224,0.061442510710984
0.364,0.008089471185635393,0.07112339618867311,0.06300935397091503,-0.037151952549633195,-0.027638836743312675,0.06517028793750985,0.06598740655400535,0.10122900914868271,0.07264403927947535,0.06526349216220004,0.06209104454555017,0.05154729253001745
0.366,0.007033608905098328,0.06632432338048123,0.05923776362526328,-0.03411383643383482,-0.026840886540323124,0.0612147312938768,0.06472723389851945,0.08709053831020228,0.05619836532271054,0.07034723936329407,0.04116691060337819,0.04579908626491611
0.368,0.0005415096916138154,0.05495354533842499,0.0543997665424781,-0.026129103692661783,-0.02885130955850413,0.05343830040068012,0.06362857608791805,0.07461702560418661,0.039813024841971634,0.06403857719560033,0.020203308955486627,0.04212548543425652
0.37,-0.009009636838559678,0.0381912071272833,0.04720179012201052,-0.014108561868958295,-0.030709689937577726,0.041571661623066004,0.06296282502319134,0.06589501898016727,0.022362440691376252,0.03587497717717223,0.003491000232036229,0.03810286888545392
0.372,-0.015482377404679457,0.02361054037616564,0.0389572870884575,-0.00409940940298624,-0.02960119868285843,0.02987525798899609,0.061456171845143515,0.06087541667512033,0.005503656652013821,0.0012402041401914617,0.00021570593041823379,0.030435975839717303
0.374,-0.016616132807101877,0.015847873867740583,0.032001219821340486,0.0003462205269986378,-0.026142005929255124,0.022044770254845778,0.05756263700493284,0.055962207805300306,-0.008485995898232065,-0.017813236606280817,0.0100659433343065,0.018447762015949328
0.376,-0.014739224995643948,0.012963692910389719,0.026941346806099536,0.0009639890024253507,-0.02232403698937092,0.018005746936237892,0.05153387249847853,0.04708764292986916,-0.02037046166304934,-0.022612151187619056,0.021868082653801454,0.006199749019047794
0.378,-0.013605075586027204,0.009614931043900913,0.022560496202963774,0.0023652231383476507,-0.019431807860751805,0.014853940214500006,0.04570551695442339,0.033922035227263884,-0.033087725574136896,-0.030954512949871348,0.025401490763779924,-0.0007870660589583488
0.38,-0.016225737524278784,0.0018745903872880163,0.018028438298729174,0.008272541193568062,-0.018559331714099948,0.00978609227738696,0.04273432370114657,0.020145664559713304,-0.04621890330771965,-0.04765388005193436,0.017948519458624843,-0.0006873052318763648
0.382,-0.022556730894064868,-0.00904969083747363,0.014141303381571994,0.017763554144169788,-0.02009333689799718,0.002981390191219648,0.043130477108241784,0.009323286845634693,-0.0555497961341154,-0.06067357328349336,0.0006093365773510472,0.0027512360382469193
0.384,-0.028197939307584564,-0.017833991882960875,0.011344285156860354,0.025154230382673972,-0.021634758489523277,-0.002936003946307207,0.044350021557297725,0.001777312353113223,-0.059764649594494935,-0.06211837307292594,-0.01969391031665289,0.003033497014014405
0.386,-0.028927772638807716,-0.02122205056307953,0.008529749807820591,0.026314439275873257,-0.02006531739199238,-0.006425684581677964,0.04317185772982231,-0.004321141226159807,-0.06290247094901988,-0.05918379746928305,-0.02990194999879434,-0.004932400095408537
0.388,-0.026711985048612205,-0.022146197700947085,0.005019670272532044,0.02436127643551512,-0.0163365623223071,-0.008813499778368691,0.03915676462726761,-0.010145597081521294,-0.06900491040508215,-0.062211940963166665,-0.026523304522687353,-0.021361297136406217
0.39,-0.027407488064541727,-0.02674101365582602,0.0008599967173725639,0.026355068074407573,-0.014167317879347585,-0.01308445570598121,0.03424050434300677,-0.015652589106258736,-0.07849317423406535,-0.07031431276080424,-0.021557556481893198,-0.041340549917817104
0.392,-0.03274120693525413,-0.03718645954172567,-0.00437035122677533,0.034584528093130444,-0.014483863500637836,-0.020670884387596088,0.029626699732385273,-0.020885294536829267,-0.08922040876757728,-0.07615370036620682,-0.024404163148928796,-0.0590674756387502
0.394,-0.037740101908164014,-0.04780034378620874,-0.010058161004768622,0.043220228006394364,-0.014781894259000054,-0.028537120593937634,0.025828991927014096,-0.02551685913990029,-0.09763063673786711,-0.07914937972230303,-0.02906555937117493,-0.07056609532341458
0.396,-0.037007365901062475,-0.05043309729832342,-0.013463029028154858,0.04482514863880093,-0.013338724311446813,-0.03144278300645392,0.02425815340716902,-0.02828864322135285,-0.10101661806493738,-0.0833656128294486,-0.0237321559838882,-0.07212899461301046
0.398,-0.03194958167567494,-0.04414192601805326,-0.012218582824305354,0.03917734604189353,-0.011838239520367796,-0.02809730027257579,0.02510553480648739,-0.029278859071352095,-0.10096660806176205,-0.08522424912615847,-0.00809181174845278,-0.0623476116099991
0.4,-0.02935496099625617,-0.03694443725366547,-0.0075843500480267745,0.033725684002480105,-0.013115166093720737,-0.023227892734327744,0.025517082002709857,-0.030689887225683752,-0.10162656175261806,-0.07540956808992907,0.0034389459303835377,-0.0487947581818149
0.402,-0.033248878398228036,-0.03757964827457176,-0.004313964414324063,0.035581485115763235,-0.016914868356055466,-0.022789455972367083,0.02297385702817318,-0.033705426790207424,-0.10415795904279838,-0.05684385957512344,-0.0008679234021878224,-0.04451359567160311
0.404,-0.04064822455535046,-0.04697703920682946,-0.006345155405608558,0.04429537744368301,-0.01954783037077842,-0.028205324585376862,0.01844214061905779,-0.036745584359163586,-0.10656416675576033,-0.04883055690363156,-0.014980337049050564,-0.05274191783145614
0.406,-0.045343910591092905,-0.0582831521188017,-0.013076929363875148,0.052904691002394325,-0.01809842730356618,-0.036133962139298814,0.014767526600110487,-0.03803863768680398,-0.1081946145151267,-0.06307192197068764,-0.025864128326829224,-0.06341046098772682
0.408,-0.04450074035772848,-0.0643398519173343,-0.0201726341202343,0.05580653280165208,-0.013879603231369905,-0.04227523952507162,0.013532026783058327,-0.03857811097530025,-0.11099470222327687,-0.08753512681858601,-0.03283259848789283,-0.06817471546171824
0.41,-0.04072586457514001,-0.06343447133107058,-0.02313066773052763,0.05370967743031513,-0.010953618581628374,-0.043788425826110554,0.01357402459645053,-0.04111904576882716,-0.11633191584659838,-0.1037141892521454,-0.04425503547881403,-0.06894367477632417
0.412,-0.03820484488697495,-0.05865838221118788,-0.020705492844651206,0.050647643555571636,-0.011610528330879655,-0.0404386443872734,0.012228531349213076,-0.046364463757027,-0.12243615191291621,-0.10706238408776336,-0.06007450562040394,-0.06868136459482685
0.414,-0.038742266705599396,-0.05499198555039888,-0.01622262957522034,0.049605721473421335,-0.01421656406194341,-0.036010072282452024,0.008767415194196297,-0.05146101013464231,-0.12593602527630243,-0.10470921248578753,-0.07012861337418981,-0.06445040643474108
0.416,-0.041073255890021795,-0.0564731612487097,-0.015233448507321983,0.0512931931216945,-0.015137713368666914,-0.03632599195382063,0.006011691040872825,-0.05307870705694852,-0.1255381904846288,-0.10354581416627164,-0.06803944640377729,-0.055685674017995436
0.418,-0.04162460200655203,-0.06234976730621811,-0.0205320173108323,0.05349211162176071,-0.011845043109153207,-0.042847731392812054,0.006677077805796511,-0.05156931241931867,-0.12364418788850977,-0.10569035371938744,-0.05880677469756734,-0.05051016334288495
0.42,-0.03738134051273393,-0.06711826510065408,-0.029455598114970994,0.05261325719938521,-0.004874773365495215,-0.0504966688791218,0.00926797103136256,-0.05046976839827743,-0.12399613598335346,-0.11025062721183211,-0.05158533999847142,-0.05261256846007721
0.422,-0.03073342278227185,-0.06822657372640684,-0.03712619125797817,0.04935190205472085,0.0021136915652999735,-0.05475990961698779,0.010477760946422884,-0.05130291516997474,-0.1272491556283766,-0.11336098003389264,-0.0477653437802487,-0.05011376775852165
0.424,-0.028275306759827395,-0.07022773509601771,-0.041698700060176605,0.04939969301631297,0.005311969696916269,-0.057456731651980494,0.009780785047020157,-0.05150175408438467,-0.1301217675776135,-0.11021747630353684,-0.041691221401441214,-0.034175782949230946
0.426,-0.032078962052218996,-0.07673582558487965,-0.044653186338346494,0.055019715440597895,0.004632398761981862,-0.06194769338899246,0.008702188407151173,-0.04922143532386476,-0.13034571087324373,-0.10088446164126515,-0.03463336727416594,-0.018815324037775638
0.428,-0.03700765980846693,-0.08333591319201179,-0.04645904378814637,0.06090891606133333,0.002920141788658817,-0.066371926101584,0.007956570130517681,-0.04720806072210441,-0.13017192421659615,-0.08886480266114746,-0.037885307376486405,-0.020708430353467595
0.43,-0.038340140144098,-0.0834370278055506,-0.045168934121653605,0.06150005101297521,0.0016642456046979822,-0.06602460180952324,0.007349210178443595,-0.04906221255982006,-0.13272876135915132,-0.07790998773207733,-0.05561277537673893,-0.03156654211748451
0.432,-0.036959991929188606,-0.07743907192729715,-0.040445350492101684,0.05792811217612171,0.00012880945505353556,-0.06064127914988247,0.006712472650669793,-0.05423786357796194,-0.13730541532485685,-0.07623612397605385,-0.07451012960479268,-0.034585210102578624
0.434,-0.03630467124450927,-0.07218274609022463,-0.03582276054508155,0.055484040611615375,-0.0018079960623966342,-0.055379898003220525,0.0063908341105998155,-0.059642501243516055,-0.14047193067274438,-0.09238572950815721,-0.07851898566024976,-0.03216280847896258
0.436,-0.03778067243916754,-0.07277183058455997,-0.03498275806638863,0.05682763836135759,-0.0027430291829248984,-0.05475315172296433,0.006968873872494113,-0.06347477111904573,-0.14014469873874888,-0.12044180521896528,-0.06757793614412315,-0.03494803787976336
0.438,-0.04012494361015407,-0.07775266354558909,-0.03765374350256356,0.06002983967952849,-0.0021413876650066437,-0.05825523852522731,0.007664768980681947,-0.06509667184064337,-0.13712361395651365,-0.13882796534568573,-0.057382928881428825,-0.04310357160041334
0.44,-0.04157084254653883,-0.08225957663692259,-0.04070574613401035,0.06223555775351243,-0.0013394501536224152,-0.06210665786332226,0.0066302213475230645,-0.06394788380918029,-0.13378290663399783,-0.1301978708335766,-0.06279609444711069,-0.05394749870896396
0.442,-0.04123042363469201,-0.08314261349779045,-0.04190613283736532,0.06237010774573666,-0.0011887388132127003,-0.06332163684617816,0.004088089560258612,-0.06059493267439304,-0.13234823515575841,-0.10237135479203852,-0.08116745776198078,-0.06849072846301311
0.444,-0.03923389501280845,-0.08032634456262164,-0.04108027936973297,0.06053736451373464,-0.001067838235451434,-0.0615830577334491,0.0022432496923243776,-0.05748668958234105,-0.13353158166959658,-0.08434304669840911,-0.09529118435431906,-0.08253370205954831
0.446,-0.03692555807792197,-0.07591111505270452,-0.03898304924021516,0.05777352634567337,-0.0008630607047320766,-0.05854982296185493,0.001552999044837604,-0.057525207545079365,-0.13588210924195337,-0.09519786014175707,-0.09569070028312707,-0.08637772238245808
0.448,-0.03611016726214682,-0.07310258155417608,-0.03699785710065507,0.056239126413604,-0.001132263034583322,-0.05643541217546065,0.0003840716108478438,-0.061766257844105395,-0.13781606819878486,-0.12244411949262457,-0.09081749213512227,-0.07770392864038923
0.45,-0.03672777263647129,-0.0737189450566364,-0.036995140421223906,0.05696193588534625,-0.0010094571160204912,-0.05669612819866417,-0.0016343084853734271,-0.06813800538152116,-0.1400081417272513,-0.13902856186496074,-0.09041864042815685,-0.06704131833684543
0.452,-0.036359667928828235,-0.07556881442824406,-0.03920807157634098,0.057757345411151885,0.0009768575208845903,-0.05848597013624108,-0.0026846449523731603,-0.07234197498306871,-0.1431293633892838,-0.13491783665960186,-0.09125898608873928,-0.06682521661814207
0.454,-0.0339982173317494,-0.07462951622801127,-0.04062862006748686,0.05610486988857029,0.003456905550778412,-0.05883814687009903,-0.0016011506023366432,-0.07190033593451182,-0.1452055142222002,-0.12350463910444547,-0.08763574956552186,-0.07655698710508506
0.456,-0.03288164737779298,-0.07097704506702959,-0.03809470475857498,0.05366000442303825,0.002619791893764356,-0.05642735236979738,5.1062828979903135e-05,-0.06966904839478695,-0.14473837156039893,-0.12129890051294173,-0.08350780090051287,-0.08280554426179801
0.458,-0.03649385517143586,-0.06945595636647094,-0.03296323211190337,0.0546057310824155,-0.0025022429739289414,-0.05399665397881957,-0.0003386162776796795,-0.07029036212624094,-0.14359126825363763,-0.1284536749124296,-0.08330497648672758,-0.07621100812855393
0.46,-0.042798996375574015,-0.07281741345070751,-0.030019335409269144,0.05941568755854531,-0.007640602497144914,-0.05467923912850807,-0.0026965281757586152,-0.07338688964279858,-0.14363711876135224,-0.13079222459011375,-0.08222671759875337,-0.06292596511404151
0.462,-0.046088719359878995,-0.07764132624634788,-0.031552428364813916,0.0636668681391854,-0.008401908829642915,-0.057514472933727606,-0.003146998987898961,-0.07408000064732484,-0.14343599866934523,-0.11958803592305699,-0.07601065248156204,-0.05429693442302534
0.464,-0.04424424063241141,-0.079477147386835,-0.03523232032640845,0.0638119860360216,-0.005567203715453564,-0.059327242857414614,0.0012355248503168007,-0.07014623791584014,-0.1408287962347496,-0.10443479224986381,-0.0697617402177672,-0.05294462687262095
0.466,-0.04058685530460655,-0.07834402974731866,-0.03775699175610294,0.06097022470771858,-0.002909491715213562,-0.059188187583705136,0.0077761146080001994,-0.06474475424071939,-0.13651141996015048,-0.10038872978634056,-0.06724293339157861,-0.05504998204900983
0.468,-0.03829319306022051,-0.07581569117856683,-0.03752273088468468,0.05761149960030629,-0.0022834941862011743,-0.05772947180427864,0.011681959450160413,-0.06140688324419002,-0.13327462575592905,-0.10820854556767652,-0.06162962970491573,-0.05749732453893974
0.47,-0.03694215380803699,-0.07134789680509311,-0.03440595387534738,0.05409636218462065,-0.0031329334048047193,-0.054626507523366334,0.011535861133003368,-0.060609540699498136,-0.1335467045193158,-0.11821105767075002,-0.04926895718634565,-0.05847467549514297
0.472,-0.035686377612898,-0.06574881001597502,-0.03006240610407662,0.05084101352381017,-0.004424892327168507,-0.0503310452989843,0.00841627093145477,-0.062310267626401725,-0.13775847759047344,-0.1251635528522146,-0.04111068641209934,-0.058601021739624136
0.474,-0.035812851062125374,-0.06320415584832037,-0.027391177143150394,0.05009846033648198,-0.0054408112489259565,-0.047517687899184334,0.003793015645596514,-0.06710060852656868,-0.1432787912751012,-0.12735052558631377,-0.04677048524054251,-0.0603129251674775
0.476,-0.03816857701643296,-0.06578862711664821,-0.02762000348288361,0.05272696636875801,-0.006099978518079599,-0.04810988466644093,0.0004325762712518654,-0.07347943562185048,-0.1459103531818049,-0.1214939372044295,-0.06060977554625332,-0.06169877358263754
0.478,-0.04066393044226364,-0.06966670747074981,-0.02900282441928093,0.05579342307735519,-0.006815988269099545,-0.050540896886095726,0.0012466515831890054,-0.07721184690564957,-0.14345926815281196,-0.1095515125848237,-0.07117124519746147,-0.058073940178208404
0.48,-0.04045329579376807,-0.0694848999985173,-0.029009712660664932,0.05574201487844021,-0.007576809049501358,-0.05116662435765382,0.00552572877135517,-0.07523322781816932,-0.13742857153038468,-0.1018076557260583,-0.07107666433291418,-0.05113442744753298
0.482,-0.03760061930513486,-0.06475092463471815,-0.027018986665894227,0.05266953218030889,-0.007785471493420558,-0.048373117080550275,0.009226679339744803,-0.06951571944361443,-0.13177886674598424,-0.10416985258992262,-0.05940033848848519,-0.048414680789443686
0.484,-0.03482099589860205,-0.06012945535449559,-0.024981012775063968,0.04969880352178883,-0.007026156957062936,-0.04486567500531471,0.010000340093565693,-0.06486266370346128,-0.12961327310000517,-0.10933248765758641,-0.044406308031573076,-0.053063836838402774
0.486,-0.03419890618281895,-0.05984538690801969,-0.025201924276525792,0.04910357571874981,-0.005638369020990519,-0.04443743678228854,0.009341571391075557,-0.06298319886217545,-0.1302953450937381,-0.10819468652827767,-0.0388515960241663,-0.058250220973679295
0.488,-0.03535194911520928,-0.06304693776503202,-0.027308141740026562,0.050482701031753945,-0.004466021106045489,-0.04696792520417826,0.009450908689079498,-0.06163142007401912,-0.13098786632539883,-0.1022369121537068,-0.046823697015761945,-0.053817642395015096
0.49,-0.03633470932725411,-0.06578724075888755,-0.029150796719176433,0.052162950165039426,-0.003805890597785277,-0.049389270975472584,0.0106843679330103,-0.05897078341981226,-0.13072941436527735,-0.09890002136968738,-0.05778610188303163,-0.038587315663323546
0.492,-0.03632636979680301,-0.06668551298577949,-0.03010427420124426,0.05352842520499553,-0.003518620891090744,-0.05049103593059983,0.012042901913572567,-0.05585655514483869,-0.13078945747915774,-0.10200683730638327,-0.05801922694338142,-0.02384665081058209
0.494,-0.03694140456399233,-0.06732510451509396,-0.0303226848145253,0.05500977294679803,-0.004448794262723652,-0.05086256469420323,0.01208508864435268,-0.054574544416873594,-0.13192584755051295,-0.10846027779712458,-0.04767929064207265,-0.024023820427112066
0.496,-0.039335820995011546,-0.06791180384472358,-0.02888294261125225,0.05606756977401542,-0.007259890208281582,-0.05003718211403131,0.009724856102779561,-0.05698105458706452,-0.13369551784740608,-0.11130726611725075,-0.04022158952470758,-0.0422375835801772
0.498,-0.041545157139575205,-0.06695823625674802,-0.025925064504011767,0.0554750547458339,-0.010060357559954453,-0.04751133554839907,0.005662905892815541,-0.06253022406915426,-0.13494076524651474,-0.10733546621531397,-0.044668500879632415,-0.06385777371634108
0.5,-0.04142049385871816,-0.0642871088612984,-0.023205152316464087,0.05353267574948541,-0.010795116323837301,-0.04422922090828494,0.0026315679248152626,-0.06766925277282268,-0.13399622793150362,-0.10023673583113377,-0.0546313917149115,-0.0708236320033818
0.502,-0.040441526800306306,-0.06154282502535141,-0.0211904165561095,0.05223581934037437,-0.010868288499080796,-0.04135211205616381,0.00269916251711231,-0.0693533024734494,-0.13120426352760733,-0.09557504309616467,-0.054877839647686874,-0.06258421615499342
0.504,-0.04107026036459265,-0.060377406732073056,-0.019447667619708356,0.05284884714049244,-0.012430881630058222,-0.03973658823252226,0.0047404125202006805,-0.06861594774947191,-0.12977999156658962,-0.09552415897942539,-0.03850269408409902,-0.05313481644365332
0.506,-0.04193754818837828,-0.06032402397506207,-0.018734882597625315,0.05360435912731303,-0.014122912589073113,-0.03973066574133641,0.006049358994348771,-0.0680839314780437,-0.13094124546890976,-0.09853458085239676,-0.019255645478939577,-0.0509369709210479
0.508,-0.04008515994485909,-0.05889905658980346,-0.019132607342647483,0.05159511921385041,-0.013588329544067189,-0.03986473102625295,0.005668565998462161,-0.0676737203389327,-0.1320740226280382,-0.1023585568788269,-0.018040150887338156,-0.05281147025363963
0.51,-0.03644930707436422,-0.05493640097875787,-0.01853196917024716,0.047264176550130904,-0.011798271920681858,-0.037906120999913605,0.00476563713850478,-0.06539886302634085,-0.13191843818462498,-0.10580727732904778,-0.03329352669491512,-0.052738244014311
0.512,-0.03448612740783588,-0.0501939570742583,-0.015561662358316426,0.04373655436445682,-0.011255330093129179,-0.03379662493814502,0.004416663662500474,-0.06092920368703945,-0.13222480383392515,-0.10835282746322059,-0.0418093839698199,-0.04768008371484349
0.514,-0.03473902766044974,-0.04643098029703402,-0.011590217043138491,0.04186985136822058,-0.012196268292740021,-0.02938542453722555,0.004133999694719232,-0.0566582859448129,-0.1332998078934914,-0.11059730942028809,-0.034176609014362286,-0.03856152228192974
0.516,-0.034833424737157774,-0.04344539933701328,-0.008639909919784229,0.040049924879160335,-0.013148724101870382,-0.026075333622250015,0.002806571564809032,-0.0556124859596748,-0.1329004444799896,-0.11271914263758713,-0.026697309127076775,-0.03202533445136268
0.518,-0.03419527534471892,-0.041224609607411256,-0.007098063375054273,0.038402599270543715,-0.013790319074325416,-0.02433703224091302,0.0006381699887548884,-0.058600959347370654,-0.13007269698755677,-0.11149013031114326,-0.03220315494324362,-0.03780567768740496
0.52,-0.03495623303836503,-0.04086292145471373,-0.0059246519114611665,0.03894181814850515,-0.015346696113317937,-0.023898111931163833,-0.0006153761224315134,-0.06316228302910801,-0.12673851422451826,-0.10521581207331257,-0.04333817633799131,-0.056997127163271155
0.522,-0.03773980583183823,-0.042955688586460726,-0.005187106795658834,0.04207778043246161,-0.017829067910371532,-0.024543075800887847,0.0006533852901813074,-0.0654029724374745,-0.12505912747361467,-0.09964465205110766,-0.05073239568318081,-0.0754446094843401
0.524,-0.040145462640152084,-0.047894948776874856,-0.007725941366114694,0.04638139667762639,-0.01847314639101713,-0.027885444381665438,0.004076366576290831,-0.06375525514652391,-0.12528626696966194,-0.09958006074080726,-0.05588288807313323,-0.07699912705479668
0.526,-0.04028073798459689,-0.05538257015395042,-0.015106271132917336,0.050352216911698916,-0.01514677540611992,-0.035034662377808355,0.006942597490331419,-0.060665863727486814,-0.1262769026750892,-0.0998480737118642,-0.06054398204327646,-0.062196268528335534
0.528,-0.03905495374218506,-0.06208684702514221,-0.02304685562454703,0.052632871131067425,-0.01014846973097704,-0.04241528533456971,0.006819022381307698,-0.05942129168241085,-0.1266120513949817,-0.09451576841240357,-0.06026610711380423,-0.04687756400050151
0.53,-0.03834399948638314,-0.06414756823468981,-0.025808293141032647,0.05266236922339215,-0.007707374288045397,-0.04501508523794086,0.0051830132967314035,-0.060171815121084694,-0.12577564885999945,-0.08807637960562685,-0.0524682567965504,-0.04342970643854139
0.532,-0.0385437046496321,-0.06190679160265844,-0.02335717918150007,0.05145179062785395,-0.008731196616849377,-0.04278698025735743,0.005968295315779323,-0.06034832209595053,-0.1250734071883007,-0.08874943647455656,-0.039894838870748434,-0.049924539976086
0.534,-0.03811566494458369,-0.057882055937353454,-0.01978293084011702,0.04962147717499713,-0.010453454240702093,-0.03918887984194214,0.009652940916736264,-0.05845062356537004,-0.12609550804744676,-0.09580882057005664,-0.026305015134184862,-0.05720343641332647
0.536,-0.03492723070357799,-0.051933632382064554,-0.017138362217408977,0.04539889896634412,-0.010179929937534717,-0.03531354368509022,0.012371499340862555,-0.0559028813215079,-0.127985729934715,-0.0992297491845198,-0.015669926190213138,-0.05893470719169712
0.538,-0.029382966529035468,-0.04405820889716101,-0.015005916145916412,0.03818750555378224,-0.00796623881233435,-0.03053172866178553,0.011616651625465836,-0.054684793441729634,-0.12812978750634,-0.09212194478294762,-0.011469383265957325,-0.05306889513686806
0.54,-0.026281043360170543,-0.03947022808446809,-0.013612992690079028,0.03319576844762661,-0.006575502732175586,-0.027054821703279875,0.008885091014471864,-0.05511164375181731,-0.12590719523605107,-0.08258995701179603,-0.013308024862502583,-0.041862529469579864
0.542,-0.029964933950956285,-0.04317830219167316,-0.01346770723637729,0.03638155944516574,-0.008720849701165583,-0.027931212443540708,0.00637162276211174,-0.056605259444002735,-0.12352750924365064,-0.08658800797668183,-0.019629825917441477,-0.031507569787028594
0.544,-0.03758751687935319,-0.051835007472449235,-0.014198647159837582,0.04544505388485912,-0.013248479974854241,-0.0321715252486096,0.00446705037336745,-0.05843977754523514,-0.12254607165933691,-0.10536352278162824,-0.031285062003679524,-0.02523379430562533
0.546,-0.04174829141297337,-0.058071158434510856,-0.01604582274879189,0.05218282199883278,-0.015326105202352698,-0.03670305350438821,0.0030003614028000195,-0.059612935622891695,-0.12183637635656952,-0.12040687175694838,-0.044054739443200375,-0.02253825988595623
0.548,-0.03980133506901392,-0.060162476487356405,-0.019971210608131916,0.052906442406334304,-0.012057678799798624,-0.04078144937990327,0.0027340158775322667,-0.05960792971373331,-0.11988638174645556,-0.11626598275507811,-0.045700237742242245,-0.026330265640167286
0.55,-0.03633156327568027,-0.06135632761709995,-0.02464858813151347,0.05113652707802752,-0.006773278454602569,-0.04441171390449179,0.004509689800863706,-0.05878867172560843,-0.11730977599015373,-0.09745880309135457,-0.033309730998269456,-0.0369091716504001
0.552,-0.036158922689293334,-0.062182318322997504,-0.025824031977473592,0.050538815037289624,-0.005511732207503564,-0.045086853304283706,0.007451807984526297,-0.057265176821580874,-0.11603929115464878,-0.07815179489046457,-0.02296646223866063,-0.044056923661689854
0.554,-0.03867775294647212,-0.06031259151585698,-0.02166239468789322,0.05064798260941073,-0.009507944286567264,-0.041142526171190894,0.008879594894443047,-0.054914415531005956,-0.11704991340214793,-0.06727437683446447,-0.02884016634265833,-0.0413726504215709
0.556,-0.04003107667620022,-0.056297515064302805,-0.01638262785947909,0.04988137503705835,-0.013896723164233344,-0.03595337277470047,0.007133097803090885,-0.05301116352990122,-0.11948353544421776,-0.06795429345847245,-0.04393304840711234,-0.03739877482301327
0.558,-0.03756319075802352,-0.05228789657228171,-0.014772754470895145,0.047348204054338316,-0.013953810494591802,-0.03348779572232139,0.0044096062307174754,-0.05292753184066388,-0.12132904093940777,-0.07818977103307011,-0.05208565621567857,-0.03965627957192814
0.56,-0.03138816164199417,-0.04817743975235295,-0.016752042076778963,0.042286811925200514,-0.009605561212643048,-0.033347096637091005,0.004329672897237409,-0.053292317275042,-0.1212801537597509,-0.08907448906261838,-0.05003833115997859,-0.043840652992110374
0.562,-0.024525435940158432,-0.04481115826166285,-0.020241822350968063,0.036489720903391476,-0.003979660390262861,-0.03416046849084823,0.006761021337444803,-0.05225473716028607,-0.1204677269662992,-0.09369687941077623,-0.047337389442708364,-0.045815401395694705
0.564,-0.021714130445777833,-0.04549229165442788,-0.023755186349847496,0.03481447557724442,-0.0006045803560813793,-0.03632422294711893,0.007953731319163656,-0.0513370752448531,-0.12126568765896137,-0.09590542796232299,-0.04851521352663339,-0.046286317515243196
0.566,-0.025396028641309628,-0.05075519609238325,-0.025251164638918917,0.03954012584568011,-0.001450015270944127,-0.03947086964589317,0.005587295492162335,-0.053349232537918095,-0.12407256487515096,-0.10150393646421713,-0.04990120499056503,-0.04397614061128671
0.568,-0.032621018331946326,-0.05704342831750238,-0.02410668938843816,0.04697438280567931,-0.005196647721015135,-0.042302063817141695,0.0016952665159263992,-0.058064878080066384,-0.12665107812068557,-0.10762301020394315,-0.05321321713275819,-0.040072602855893535
0.57,-0.038196834938838194,-0.06109659587496902,-0.022470039916214612,0.05194130846930262,-0.008653786125737705,-0.04419740487149955,-0.00019395347110920272,-0.0628203502452253,-0.1276242227122343,-0.1087719270516384,-0.0639767861258719,-0.043444018749744455
0.572,-0.04037484336864796,-0.06253168905889228,-0.02189152882342792,0.053407084345134234,-0.010476070467337223,-0.044840623973041525,-5.257521418981988e-05,-0.06641419740999457,-0.12925256557456644,-0.1052563134164875,-0.0789931493086309,-0.058771641523674596
0.574,-0.041196517458569594,-0.06349614667471633,-0.02234645584537484,0.054097566082497765,-0.011317401303003459,-0.04494554646616115,-0.000946142301600128,-0.0698520068637098,-0.13389344988082416,-0.10022418555595702,-0.09067672067374906,-0.07526873646420369
0.576,-0.042594025684966626,-0.06583997694026537,-0.0235280221605356,0.05581265872119451,-0.011739268446384725,-0.0459725051129778,-0.0037142669950975572,-0.07329116586563202,-0.13897599423042428,-0.097331572132115,-0.09619789034133923,-0.07732014254079252
0.578,-0.043912668877492574,-0.06749459332986692,-0.023997296185015837,0.056708666836717804,-0.012026652594431702,-0.04684222430265609,-0.005350772960634645,-0.07444238878438487,-0.13957562453370756,-0.10090477451345513,-0.09435396510568116,-0.06467623127235891
0.58,-0.043330956895175396,-0.06521433066138618,-0.022389795014943606,0.05454528688027238,-0.012389499805292898,-0.04526338521983599,-0.0031139846689975264,-0.0710377503345168,-0.13475554329100145,-0.10826900062548815,-0.08354440884923094,-0.05372128420083677
0.582,-0.04139825913439694,-0.061293103981704754,-0.020419205427883225,0.05159497705791319,-0.012447446249373167,-0.04292399898841472,0.0017993951306854578,-0.06445553082882849,-0.1282556082154092,-0.10857351975300901,-0.06671936718309043,-0.0570263936303797
0.584,-0.04075288638704193,-0.061575411990141535,-0.02121700209085366,0.05225250564898136,-0.011456909824224775,-0.04380561226243287,0.005224734363686503,-0.05941213704870424,-0.12461856808654476,-0.09915686066307537,-0.052979411409948274,-0.06876663685262724
0.586,-0.042411434647472684,-0.06695933278250177,-0.024688297640096328,0.05661259029856953,-0.009879282937506596,-0.04779316224064021,0.004391062822379001,-0.05933850408401373,-0.1259319705882351,-0.09309423924818021,-0.051807266299847034,-0.07433399194956423
0.588,-0.045323324605470644,-0.07258937640036589,-0.027193142890611307,0.061024539795007875,-0.009932918658451957,-0.050803294695174854,0.0007681135820155645,-0.06345188849624232,-0.13044478001246113,-0.1014442561113814,-0.06312323016259606,-0.06722840995775094
0.59,-0.04807203059993552,-0.07472933645143567,-0.026548561628076166,0.06321909391103303,-0.012453460559223693,-0.0507979645595985,-0.002394072207235415,-0.06864702553030518,-0.13460861131743249,-0.11848085354980978,-0.07374149572429145,-0.05090831307949765
0.592,-0.04885481825469572,-0.07423722759425043,-0.025362562089459296,0.06334322068837786,-0.014166622811788335,-0.05026484295749436,-0.004164946845449805,-0.07293867700732702,-0.13737098156141211,-0.13152603481118408,-0.07130451596178075,-0.035171125730180844
0.594,-0.04612751156166677,-0.07335792649870351,-0.0272774264391911,0.06187554058500882,-0.01128129725692787,-0.05201015209272647,-0.005305515661175033,-0.07628143531940901,-0.14011751153385588,-0.1346542124266048,-0.06179132366148463,-0.0346518526687951
0.596,-0.04113121483159956,-0.07213535997237389,-0.031037467173079453,0.059179285101934355,-0.005416386998798251,-0.05450575646894048,-0.00564286026004755,-0.07826118106238193,-0.1423524412860041,-0.12952115749668183,-0.061790822293469445,-0.05270115428363541
0.598,-0.037906616968569576,-0.06957951136775124,-0.03166354441859374,0.05637951664492951,-0.002500623429650733,-0.053777215226786544,-0.005237987676504582,-0.0774252704080313,-0.14176720334314138,-0.12235368332308721,-0.07368955141872166,-0.06831269690152905
0.6,-0.038924001527453775,-0.0661040418773719,-0.027179461216670406,0.054703169934176864,-0.0054884462817224484,-0.048949179663003155,-0.005448148645296533,-0.07423021086014524,-0.13891550788172483,-0.11936295881995598,-0.08355525190016673,-0.06052794380922206
0.602,-0.04221625822414269,-0.06303327288769808,-0.020942672261589135,0.05415486381888966,-0.011320597364190114,-0.04336199662573503,-0.006402096314293589,-0.07156983532475975,-0.13706741630179262,-0.11914984295930249,-0.08206029789224527,-0.03750933519880768
0.604,-0.04374826651557402,-0.06134594312230248,-0.017912723667530658,0.053790410443676884,-0.01474739744152602,-0.040812664889660094,-0.006407810505045866,-0.07089643364499444,-0.13681206170148258,-0.11332652329387329,-0.0722883869660349,-0.021821718769941063
0.606,-0.041211113548720146,-0.06114068593336995,-0.020228513691724744,0.05261118610849581,-0.012869423623669435,-0.04198557196252317,-0.004627160555462981,-0.07060752759485213,-0.13526441236541445,-0.0991303665121175,-0.059167169054741085,-0.021257351644022007
0.608,-0.03625755177259567,-0.06155533618750725,-0.025224340058931517,0.05065018049761193,-0.007595566013870742,-0.044322878454423065,-0.0020010386698118146,-0.06908988007348571,-0.13160997673986596,-0.08832826757296228,-0.04300345167348195,-0.03163681400699452
0.61,-0.033536377410954735,-0.06201154926993547,-0.028021970296955467,0.049767600315436394,-0.004279071681451682,-0.04528480801981385,5.0911397162700135e-05,-0.06699784661600475,-0.1296787677630962,-0.09673114227136842,-0.026045265941774937,-0.05078080184470324
0.612,-0.03555297414862384,-0.06311822354370798,-0.02716241553041429,0.05148341395268757,-0.005545167980442783,-0.045178550192018226,0.0007416492580572617,-0.06623804716682319,-0.13317969212863323,-0.1226695203899816,-0.01890491656929143,-0.07343962363755423
0.614,-0.03934333275121733,-0.06537640456008616,-0.02599750121651363,0.05428046808517248,-0.007903127209068488,-0.04608769075384685,0.00024057166978846744,-0.06806188197622068,-0.14022904791366675,-0.14341656729840632,-0.03004759525840271,-0.08595520044617352
0.616,-0.04058494349839236,-0.0681654020207009,-0.027774143499772194,0.055755803115066296,-0.007070578125573278,-0.04896717354887131,-0.001063105005083579,-0.07171123487020357,-0.14472463435384933,-0.13946391319751367,-0.05143650137225287,-0.0779375014390698
0.618,-0.03925262087973028,-0.07085104007593838,-0.03171781716968192,0.05634343835720727,-0.003984499452636552,-0.052771941643413575,-0.0032174039975958356,-0.07476918224601874,-0.14326687211596095,-0.11684905203313986,-0.0658701051877809,-0.05548740595059558
0.62,-0.03794031526632786,-0.07274246230517223,-0.034757105876158184,0.05735296191313308,-0.00237770102167339,-0.05529727157113315,-0.005305054961027253,-0.07521328042567446,-0.13831709982105714,-0.09850847065857708,-0.06384101999849558,-0.03863900076075732
0.622,-0.03638034496263552,-0.07195212113851182,-0.03548536864554497,0.05706652000713714,-0.002572149095040893,-0.05476142437995934,-0.004717026770739999,-0.07299394566739863,-0.1336802811320586,-0.09804161752822778,-0.04825802340188824,-0.04317743942663468
0.624,-0.032659023055378676,-0.06832926136784107,-0.0356531608725239,0.05370173313420817,-0.001500135133712619,-0.05238580209524171,-0.0004939598179603195,-0.0702934343000151,-0.13053491866502653,-0.10979161344654796,-0.030854304126730136,-0.0635898476280711
0.626,-0.028411390156142278,-0.06566377655463151,-0.03729121436882914,0.04977798591477926,0.001787794242237616,-0.0517005246821747,0.004706664375818033,-0.06914005066730904,-0.1288255106298873,-0.12049819884761107,-0.02157812923540638,-0.07822839997211589
0.628,-0.02748796475116424,-0.06629956133237429,-0.038839453286979214,0.04866518711744619,0.004093604184188114,-0.05333269574220098,0.00823759856242421,-0.06809369371127123,-0.1287272515420632,-0.1217571474376195,-0.018379014350305582,-0.07472097167323755
0.63,-0.03064219798553487,-0.06768275199161781,-0.03703268941869278,0.050133062270841675,0.002410843366904619,-0.05412025707890998,0.009291801633084946,-0.06487120889622477,-0.13008809410607905,-0.11401611685429518,-0.015867110880814383,-0.06308253426335042
0.632,-0.035049897228147976,-0.06746139321642956,-0.03239254516004549,0.052176134510339756,-0.0018795545361586317,-0.052422473970049406,0.006683233160157211,-0.06177670495246427,-0.13236831801698082,-0.10445550527979501,-0.015977196497899852,-0.05805143982642645
0.634,-0.03771104042175824,-0.06652904027457834,-0.028791300428654364,0.05338626691459556,-0.00491807873033041,-0.049894772828215785,0.00040961532884974377,-0.06309513068400105,-0.13472283529715237,-0.09983033252311459,-0.020346933040054173,-0.058626172503787426
0.636,-0.036985069649114945,-0.06494326802705001,-0.027834950055412665,0.05213864635083731,-0.0050420393252684735,-0.04763689904737113,-0.004913392291722648,-0.06751664557413592,-0.13512024922944257,-0.10067395007659198,-0.026349047524081185,-0.05453365026738932
0.638,-0.03293584165439625,-0.059778388832240945,-0.026521578749774576,0.04705355028060064,-0.004307894387359335,-0.0437699435029477,-0.00315941773305776,-0.0684018671507072,-0.13065653925887227,-0.1034097032362438,-0.03331752240666132,-0.04466657216342649
0.64,-0.028581250807597883,-0.0494413841471276,-0.02043620670232652,0.039565899771485606,-0.006373736416983646,-0.03578496908647117,0.006545099241221688,-0.0627137449682963,-0.12094824120956738,-0.10594234534530567,-0.03846550452229108,-0.03725442915666613
0.642,-0.027597542121377817,-0.03719247762679458,-0.009335243435844786,0.033146067762007514,-0.012173596289638823,-0.024710035954178047,0.018495441874111035,-0.05536052892667325,-0.11016197553746962,-0.10758105463874933,-0.03196037072698173,-0.03667363538247756
0.644,-0.02888866334032303,-0.027809575963150066,0.001054675705787423,0.029030945630651648,-0.01758789439571786,-0.015256173548604668,0.02640632542720651,-0.0522035650066819,-0.10309958544431587,-0.10535868460602119,-0.011729603867484126,-0.04051736930773543
0.646,-0.027245593249038892,-0.02178996348669342,0.005308170340476877,0.024937352656973492,-0.01782661322038156,-0.010316011829463824,0.02945839614619222,-0.05238407522111941,-0.10032329975296735,-0.09718890715049253,0.003088458773053243,-0.04492220680264625
0.648,-0.020588245871319338,-0.015540701505671477,0.004982845818459921,0.018598756516430923,-0.013475638985483816,-0.007293003154039775,0.03084278396521125,-0.050366117765973904,-0.09900144962828739,-0.08784624122462893,-0.0059165483492755805,-0.04594179862690289
0.65,-0.013642838182372989,-0.008258080106186925,0.005453026770635398,0.011846853121114576,-0.009768232990770795,-0.002884225577271733,0.03170813090377238,-0.04389617976625429,-0.09755709461491256,-0.08472889778459748,-0.02639720727477679,-0.03982274279205754
0.652,-0.013041679587701353,-0.005506190123005214,0.007724127898015024,0.010280124441171861,-0.010456599366626521,0.00037596296728883207,0.02991375007084102,-0.037739967611206925,-0.09767036163024223,-0.08711876018762346,-0.03116491414358059,-0.027025947432366165
0.654,-0.019602598414558647,-0.012665154874859459,0.0072673470200147194,0.017242545680298278,-0.01386662538615374,-0.003248903979088951,0.02440643055571741,-0.038236546419949315,-0.10134221833633934,-0.08451741768303986,-0.017152170210660903,-0.015935617561448963
0.656,-0.027213877351465226,-0.02679407740055487,0.000812460257030691,0.028724537785447268,-0.015281129841313778,-0.014079399647964973,0.017212466329832043,-0.045607020626117524,-0.10758876659212968,-0.06925485836731893,-0.0068949490508806496,-0.01734598125513565
0.658,-0.030215023032303397,-0.03868538207433463,-0.008230475159613846,0.03695157930069543,-0.012995819390939864,-0.02500271857977058,0.010544970283606748,-0.05454317649118071,-0.11340685315215054,-0.049467478801289794,-0.017648535115020902,-0.03210675668347167
0.66,-0.029599717384241664,-0.043340334580039504,-0.013779385982807035,0.03905566980457355,-0.010017246642986598,-0.029783868016309573,0.004126168841827993,-0.0607035309821631,-0.1169692064317344,-0.04243110219521442,-0.04392867763522838,-0.0485770889735807
0.662,-0.0287141293422166,-0.04503745540864717,-0.016587676514777945,0.038736076866622365,-0.007727947045392947,-0.031221983528771587,-0.0035750949169735,-0.06342685767934902,-0.11791681733318962,-0.05315828402098969,-0.06788131150005189,-0.055684599264589324
0.664,-0.025756517500505286,-0.04835228925322348,-0.02300707683616271,0.03826495869062941,-0.0024347312388767585,-0.035735119834941945,-0.011906563736237098,-0.06384674956792033,-0.11533067896921025,-0.06931979670774621,-0.0768187247089673,-0.05470216581354411
0.666,-0.017076026917511825,-0.04831974779633301,-0.03175786921596106,0.03397116869524899,0.006807397018873751,-0.0405676210684024,-0.017836331758854317,-0.06296840503888355,-0.1088421031049474,-0.07956963059053565,-0.06874987153726331,-0.05352551311826398
0.668,-0.005129843515749192,-0.03721404472113912,-0.03261447157548517,0.022804100213369035,0.013422485495713687,-0.03590351060929379,-0.019767348837958165,-0.06051658598803563,-0.10127316204488171,-0.0846674002767909,-0.049620286120762004,-0.053636368957044905
0.67,0.0036047049336983593,-0.018627758583477816,-0.02262554598767015,0.009168033028291212,0.012544792995500237,-0.021306462524925254,-0.01887893240867534,-0.055155266270585666,-0.09610795288568773,-0.08852037853330122,-0.0312688842487012,-0.049738798567979386
0.672,0.006552162232798325,-0.006752605956193957,-0.013441276770135435,0.0014866123764242416,0.00910165436107633,-0.010324276316832005,-0.01614854821638432,-0.04677109700015851,-0.09256076737399131,-0.0902948847456473,-0.02459623646726025,-0.0392942740518708
0.674,0.007815319864335646,-0.00977973840038735,-0.01752105160603333,0.0021701877267399795,0.011771833179718309,-0.014282351980939387,-0.01099380312375497,-0.03707217478757788,-0.08659811847485636,-0.08798693421446499,-0.028315059712329615,-0.02657680259431147
0.676,0.013292355181018732,-0.01960892913524015,-0.03277219949223282,0.004274339351993799,0.022051072918872813,-0.027671957878842583,-0.004352835213205128,-0.028167477542430666,-0.07759682278088936,-0.08304756964852911,-0.030373306505652523,-0.018846488302559545
0.678,0.022149174730225537,-0.02356726083741193,-0.04556663539966198,0.0016908453168728193,0.03237004474685342,-0.035983066714948025,-0.0006881958209918832,-0.02342538093833855,-0.07145883176338824,-0.07964600316919755,-0.023067945966312828,-0.019904024472221196
0.68,0.025581579438823433,-0.021360386838327125,-0.04666133706672214,-0.0014129022911862528,0.03439239712824989,-0.034244940613217395,-0.003492051577913781,-0.02685275405799706,-0.07449097250213023,-0.0798395998575103,-0.012304936311408414,-0.02579679823320719
0.682,0.017059827828487903,-0.022629459557023578,-0.039299154590332674,0.0030831990741856437,0.027097700365978587,-0.030254701620229613,-0.010213412359091076,-0.03778841166015074,-0.08575707416981526,-0.08157952300184328,-0.011117358232696816,-0.02965052609179261
0.684,0.001346473071004061,-0.032291904535016826,-0.033373202094381056,0.01534494347042312,0.017172806252581635,-0.032503397565446325,-0.015234790980431024,-0.04964954943887338,-0.0986100991944186,-0.08483730115061529,-0.022377722050577063,-0.0316639127577081
0.686,-0.009471015409948585,-0.04621793947426446,-0.036750406358553096,0.027425471368654065,0.013589337444792255,-0.04233811929137271,-0.016369129433118926,-0.05614578049239192,-0.10808884317002011,-0.09324427086657353,-0.03279817470086288,-0.03841713315600724
0.688,-0.008291856719246642,-0.05776031995578548,-0.04958697398367335,0.032643836981596015,0.020087811261008885,-0.055165688037267346,-0.015718218087724684,-0.056322143671652135,-0.11368482808675108,-0.10379439797212085,-0.03483942077739531,-0.0514376882986027
0.69,0.0009523704134879238,-0.06221022268092062,-0.06310403088245282,0.030728263954429208,0.031170285149128237,-0.06390819355041448,-0.015196635516055651,-0.053136359014125015,-0.11610686337356642,-0.10423979957142576,-0.03876486992761967,-0.06293313057368945
0.692,0.009345830999951288,-0.05879729445905068,-0.06775510426392914,0.02557809666931947,0.037701880935681116,-0.06441266191944375,-0.01362689457024516,-0.04894611751155893,-0.11496519644060375,-0.0868667097319564,-0.04551194014592586,-0.06466675138917193
0.694,0.011630510284070129,-0.05234404201376381,-0.06336257517315617,0.021754253237982107,0.03625195639623123,-0.05949409593173105,-0.00930526031752531,-0.04399879100473942,-0.11056268540075626,-0.058780802634,-0.03624691003977773,-0.05663049303237503
0.696,0.008368152899195576,-0.048498041475865346,-0.056276216957872785,0.021598495967371397,0.030226378024683847,-0.05426634234520716,-0.003278108777674621,-0.03884620059246798,-0.1052120577309916,-0.03702757910734477,-0.009163494517807045,-0.04590340140325137
0.698,0.002634206279540934,-0.04689634964836814,-0.0491618042886019,0.02369212626762042,0.023555642458586216,-0.049323652922721326,0.0018599559515416453,-0.03556920740937149,-0.1014957649051175,-0.03608273631756359,0.0061966384525353494,-0.0400875926911877
0.7,-0.0038216677139350196,-0.0442573940698917,-0.04032133038232258,0.025616535463492768,0.016972347818382288,-0.04296959462395062,0.004419019226007661,-0.0356572420099719,-0.10073007993502818,-0.0561970711045993,-0.010126597956700763,-0.042074394995876084
0.702,-0.011832669747562571,-0.04230027217977309,-0.03041807360691519,0.028413464733662706,0.009513471924367379,-0.03720273659832347,0.004351219335960776,-0.038105500844242156,-0.10255252177381914,-0.08275722671970664,-0.041222924104493866,-0.048329016435333494
0.704,-0.02217700237873639,-0.046056543056832155,-0.023638968441287662,0.03512451035097055,0.0012981356414094177,-0.03643419572774946,0.003375469015208863,-0.04056065411298574,-0.10488340422876331,-0.10064174123293745,-0.06094635937610085,-0.051411979072728015
0.706,-0.03172714172548969,-0.05560550289831991,-0.02346030567833006,0.044678113895961755,-0.004693587998779354,-0.04185167359836625,0.00329458955297816,-0.04192308592286087,-0.10598887178269469,-0.10612874934413366,-0.06537541708017601,-0.04745797599602264
0.708,-0.036247794036180815,-0.06581187569313098,-0.029266171506029646,0.052373434289317816,-0.005370472514558877,-0.050287892452929986,0.003254144576765032,-0.04372640538292317,-0.10753012473399588,-0.10465653216094635,-0.06428826753659045,-0.04170251993933699
0.71,-0.03741070392403874,-0.07358352848282303,-0.03617574026379164,0.056904803689319286,-0.002950524943644973,-0.05765590070270541,0.0007584688635181183,-0.049241780683318144,-0.11370765187428725,-0.1042182513142636,-0.06105722320822323,-0.0419141743719155
0.712,-0.04062362302611982,-0.08036536198245543,-0.039899398058551264,0.06145948907976892,-0.0025992916634179075,-0.0623240753940886,-0.004546588708180193,-0.06000237632581984,-0.12591963042908083,-0.11014873299000227,-0.05533477000543389,-0.048779900568820804
0.714,-0.04652990820947832,-0.08753723488641658,-0.04108849613744164,0.06768970460962387,-0.004956054896353319,-0.06524907088600118,-0.01054225438947566,-0.07304691787577638,-0.1398947305676651,-0.12191387867158136,-0.05447821932536778,-0.058635476067433294
0.716,-0.050810727301417065,-0.09313428788519841,-0.0423014768762182,0.07291886232277402,-0.006458165437000771,-0.0673101092730597,-0.015096394677497758,-0.08296122157012459,-0.1497042716557521,-0.1346980861757287,-0.06626904812262073,-0.07045493685396657
0.718,-0.05098836229698165,-0.09540098828107228,-0.04450069024141502,0.07453141616864634,-0.0050161473228250595,-0.06897607850421829,-0.01661448050548537,-0.08609236202801128,-0.15309998153489104,-0.14232915630054196,-0.08289041917310623,-0.08384321591827446
0.72,-0.04904208587352602,-0.09703073323821174,-0.04846182663817876,0.0742960791157753,-0.0014093278444264495,-0.07215675848674916,-0.014442803639388019,-0.08309919895245617,-0.15210124799723604,-0.14040211502991715,-0.08893177265656026,-0.09392484836227423
0.722,-0.048094624914935144,-0.1014907672908097,-0.05433126717753523,0.0756280271959517,0.0025101107231210655,-0.07803151535916068,-0.010551307725024224,-0.07883439108446322,-0.1498332314127567,-0.13235668350250793,-0.08398605407155377,-0.09406148871519668
0.724,-0.04904482569531839,-0.10695817030324442,-0.05906952334457818,0.07859789094013231,0.0047637809670432,-0.08369310580301441,-0.008321414972781733,-0.07824040245929854,-0.14796272772221528,-0.12912845376022128,-0.08144638494501054,-0.08330178129418556
0.726,-0.050509374848098296,-0.10831103158632627,-0.058773405917741606,0.08034486719742284,0.004164339351125493,-0.08472707937608434,-0.008957473823574652,-0.0814028657978425,-0.14712703162790688,-0.136326817583542,-0.08810933235853695,-0.06795452748506663
0.728,-0.05162532540144688,-0.1041100296150451,-0.05297696633507698,0.07940384373042207,0.0007533845614780543,-0.08008301850889328,-0.011168972800516881,-0.0845855255447687,-0.147946686054007,-0.14583938520735185,-0.09650775150193604,-0.0571281938335629
0.73,-0.054074767020298696,-0.09875234898854761,-0.04471793515066398,0.07810114335704858,-0.005058442884005393,-0.07299878444661148,-0.013810965752568375,-0.08594958623793088,-0.14987617149294302,-0.14572144087227526,-0.09564911252435405,-0.05800611712103238
0.732,-0.05859348701907342,-0.09763927707139815,-0.03901718845812917,0.07941016880463689,-0.011192148407241899,-0.06895133878297266,-0.016136393672321083,-0.08686010573617355,-0.15029014163627485,-0.1365386467009668,-0.08282133981396314,-0.0709572236883272
0.734,-0.061158957511295554,-0.10171563233036947,-0.04093541691964866,0.08221218514809339,-0.012582427067314347,-0.07199139643231565,-0.01606490687019994,-0.08730027348251912,-0.14699161668090646,-0.13154113279985216,-0.06493704442421315,-0.08695693773356518
0.736,-0.05782136816674493,-0.10711520220744052,-0.05021517662985962,0.08277077653576606,-0.006451372123462924,-0.08011994294810272,-0.011769476949855974,-0.08475245045491586,-0.14189902882393052,-0.13741176124010185,-0.05271546357166116,-0.09387067624525915
0.738,-0.05108519481964985,-0.1085620589041655,-0.0585543473395654,0.07969662005061866,0.0021433301633787035,-0.08521767675631609,-0.0053842076121705315,-0.07908750914417811,-0.14026751926198944,-0.1436482055695574,-0.051897716450223286,-0.08865723680323824
0.74,-0.046700805927541764,-0.10318638444461,-0.05715099850555836,0.07452292396116399,0.005049519193941485,-0.08079775850847705,-0.0022514906350570756,-0.07431593455563416,-0.1449753666195102,-0.1393032946727644,-0.05804903680567825,-0.0815610915401442
0.742,-0.046429701448402215,-0.09327433857296404,-0.04689616578126192,0.06937614384250865,0.0004615770040552095,-0.06962794081586576,-0.005293380968159626,-0.07366934535256336,-0.15267830357782824,-0.1301332818356004,-0.06336648062103309,-0.08419497784566003
0.744,-0.04779086784776369,-0.08545658320751275,-0.03740854736333847,0.06647956528045604,-0.006020989569884923,-0.061064707333911214,-0.011545089299369917,-0.07533974340041998,-0.1568765196245316,-0.12685420835608002,-0.06549703364463061,-0.09471823496774852
0.746,-0.04929094771609592,-0.08459319467148306,-0.035146361443639654,0.06764500564189393,-0.009459168957917465,-0.060247023250078316,-0.015729569570296583,-0.07527583824455578,-0.15479635137037923,-0.12542092078983216,-0.06729277715174993,-0.10120572078223002
0.748,-0.05161508058311758,-0.0877012929558822,-0.03614113136409737,0.07137286355268768,-0.010836349085363552,-0.06247808539236529,-0.01598388690819626,-0.07314477167859386,-0.1496885047648745,-0.11519515243789777,-0.07295606545176887,-0.09883439429887171
0.75,-0.05448667798915148,-0.08787029238700408,-0.03349194476844973,0.07319610434907774,-0.013000847735236897,-0.06083308656111982,-0.014091675688426564,-0.07188041199196638,-0.14583272102379752,-0.10139207771899252,-0.0819155104190849,-0.0952113585700411
0.752,-0.056684658910911706,-0.08466593706569418,-0.028003476766057297,0.07185712088342303,-0.015548810476052008,-0.05632108349121587,-0.011728886166679504,-0.0722728871217452,-0.14428840520118377,-0.10041923408484418,-0.08541604375763372,-0.09794990304530515
0.754,-0.058314236452610885,-0.0840885547148393,-0.02572634418491193,0.0712470058645465,-0.01659123752112453,-0.05512353065177047,-0.008314254633647102,-0.07254497503881983,-0.14438798796424088,-0.1138133430547979,-0.07785231680086133,-0.10432513959103805
0.756,-0.06040256486123008,-0.08755694484722094,-0.027119485138802545,0.07378873072835992,-0.01706561611771374,-0.05768611909754883,-0.0010755602854512654,-0.07121319926768838,-0.14581259753778725,-0.1265761942558042,-0.06797793974260033,-0.10501191762035049
0.758,-0.0631846186532187,-0.08781380162572845,-0.024616732841061032,0.07588020746203956,-0.02045843145918147,-0.05655114710568293,0.013501526469901196,-0.06553819295840656,-0.14790298013966394,-0.1313197977389317,-0.0670438960200649,-0.09529765031975859
0.76,-0.06562611273084992,-0.07824234998615492,-0.012486531824221839,0.07256918484681162,-0.028200390275399,-0.04593693762149723,0.037448412853956635,-0.04891672166283439,-0.14937829765902796,-0.13417717681208668,-0.07145415982484998,-0.0811635423966271
0.762,-0.06632395743636209,-0.061921382774849335,0.004833305669933389,0.06435558889579603,-0.03711836708457156,-0.02953849760622184,0.07088033176225657,-0.014093886695385985,-0.14966922430705407,-0.13821754076218998,-0.0694743671631801,-0.07112876203019647
0.764,-0.0647051606065278,-0.04578524605095253,0.01952663733308373,0.055310519651871164,-0.04354106988300299,-0.014248512856786747,0.1130764596391948,0.04025451775139775,-0.1480725532697219,-0.13747965935274734,-0.05927298030705897,-0.06457837832112122
0.766,-0.06111350314930129,-0.027217523412064556,0.03412345347651936,0.04490592487262987,-0.04917930371734511,0.0026811029254218783,0.1619065074020312,0.10734053729413584,-0.13970256274959925,-0.1254206452860882,-0.047273198532761136,-0.05476938092356536
0.768,-0.0552533712317439,0.005876819697970484,0.060608452713641674,0.026354224060846504,-0.05954991492785062,0.032984407959134265,0.2135280464678661,0.1784997120682127,-0.11393867061037727,-0.09916509654527363,-0.031788369276219974,-0.03616769978923993
0.77,-0.04473229135429341,0.06056109997624282,0.10443862020925228,-0.005868537039499033,-0.0761445301985823,0.08246035830442773,0.265610157783649,0.25349343173626676,-0.05960770992126618,-0.05478379185260059,-0.001091684828888646,-0.0036799234780753583
0.772,-0.026630334455029728,0.1291120808858885,0.15530193635135217,-0.04942512536876524,-0.09275884261294964,0.14180673973740288,0.3198656733184899,0.34220239162004684,0.027725174219549294,0.016000472518537416,0.050486602374180546,0.04287734949257058
0.774,0.00015346597466531133,0.19430267798999432,0.19430564560758018,-0.09596973308318074,-0.09938286589179127,0.1930989285425722,0.37836014923135114,0.45076602173176084,0.14399799101894395,0.11719982040913618,0.11354084591058614,0.09340656158803344
0.776,0.03634955544604244,0.2445614982811565,0.20852535511982703,-0.1397340889509073,-0.08871140358519851,0.22475217878532336,0.43227527879448746,0.5631762873624488,0.28098722344019184,0.23803674226717736,0.1761048166337574,0.14030534455362198
0.778,0.08466495377856662,0.2859527701906772,0.2013851874071322,-0.18468336063096352,-0.060771989529623496,0.2421676518117485,0.4480276106673981,0.6368552169272403,0.4324821136975813,0.3617760000214819,0.24044652520298643,0.19226272377603063
0.78,0.14766600646343922,0.33564131224643234,0.18797550639670818,-0.24070853579646212,-0.02182670643211326,0.2611034297408188,0.3736567713506013,0.6243754858522546,0.5983252906754394,0.48590612457677673,0.31897657907277427,0.2649995384424878
0.782,0.22256379213912988,0.39889827656451077,0.17657993103653266,-0.3095585240961188,0.02215902339354748,0.2871321794881016,0.18417869143943355,0.5125734226212875,0.780593463483666,0.6208961681469755,0.41392273424211884,0.360594085045662
0.784,0.29850627263261165,0.4567766405046889,0.1588237137360573,-0.3765178808367606,0.06931348376871439,0.3062436441011642,-0.07214638474794613,0.3436710172447249,0.9745358739169652,0.7659697193404014,0.5092013486931294,0.45780607789145594
0.786,0.3583865290451639,0.4834470150420345,0.12557886332914384,-0.41977020054056874,0.11551961362937811,0.30212826755672345,-0.2959538712846086,0.18622625859748848,1.168896070870226,0.9000969464602794,0.5853235040108661,0.5262874689605991
0.788,0.38247394959423314,0.4744548775610345,0.09207066670297806,-0.42705368004573435,0.14368303445163103,0.2812247302908701,-0.42411379733534216,0.0699999993339154,1.3539661899184607,1.0032577396948255,0.6359084247328347,0.5559955817940229
0.79,0.35643239633287743,0.4487318942577692,0.09195990651988398,-0.4009741039495744,0.13011060266268126,0.26936131103321226,-0.4825275036680884,-0.04275862071145646,1.5186754203023491,1.0729584577966773,0.662455766671809,0.5623442074413433
0.792,0.2865420901334051,0.41750705744175914,0.13059673985667047,-0.35051733765047044,0.0754741645287396,0.2738177226913717,-0.5340078100702734,-0.19474013429358406,1.638881896487641,1.1073699667159274,0.6586033769335454,0.5527110928941253
0.794,0.20474817199359127,0.36113718454731153,0.156318238946151,-0.28178154021761975,0.02191369530392148,0.25875141319158024,-0.5920966803649769,-0.3536756659647377,1.6726988888956908,1.0800142315169732,0.6114250587042267,0.5056649435842764
0.796,0.14480794603222732,0.2517386993322951,0.10710621563712122,-0.1976589437376312,0.017476551591740358,0.1794931574412094,-0.6203971767410649,-0.44420774122208784,1.5651871465489546,0.9494422790069096,0.515449282050338,0.40138909587394184
0.798,0.11091624082182326,0.09611673093952562,-0.014529567891333688,-0.1034140055905164,0.06247978029765653,0.04079230290535339,-0.6039634803445242,-0.45712619186941944,1.27395632389439,0.7028619839835166,0.3777213376196908,0.25848773104333245
0.8,0.07967131097710699,-0.060572170722193494,-0.13980951587358595,-0.009341847914744787,0.10988579764878918,-0.10032461356832144,-0.573880940085442,-0.46483463481610277,0.8229174839261207,0.3856012638662096,0.2149735547341179,0.11970517386792492
0.802,0.03296509286123289,-0.17696710755231124,-0.20925718238999214,0.07309776548194494,0.12062839531152765,-0.19344006021531424,-0.5565903182921145,-0.5169800774218122,0.3243978056456409,0.0783502834216117,0.05130906897204614,0.008172108542349957
0.804,-0.021661064585857474,-0.24856631653090927,-0.22622773141588495,0.13701857157831476,0.10087627813100249,-0.23825612999190057,-0.5370155979471384,-0.5769874077255732,-0.0888962698721526,-0.1561434980165034,-0.08723120969038183,-0.08182632653242589
0.806,-0.06265291659824826,-0.29536395288540296,-0.23231985415651335,0.1806061053841544,0.08287694628394802,-0.2655606671539023,-0.48553246538846856,-0.579118344158866,-0.351921328937394,-0.29909656428843695,-0.18224466612257603,-0.15448250574875985
0.808,-0.0762956242433578,-0.32994714087953236,-0.2534908848897319,0.20346173965612063,0.08652926118600493,-0.29388345976793673,-0.4011137994177058,-0.507243496472147,-0.4714395741333361,-0.36009467083728186,-0.22978495566957374,-0.19944768872912205
0.81,-0.06608330000048011,-0.34884748466269466,-0.28270748923842426,0.20679542852834393,0.10649540309039446,-0.31744382418680717,-0.3143944713054427,-0.4011639618899436,-0.4787748270314121,-0.35931896145626074,-0.23953999998880202,-0.21290511151371452
0.812,-0.0459833726944635,-0.3478128776469083,-0.3020879853953274,0.19626955733512447,0.12675015116571173,-0.32572587649235035,-0.2543941238280346,-0.3101912532344863,-0.4159619744752414,-0.32525995341661923,-0.2269719950420538,-0.20661308522012609
0.814,-0.028238451742593894,-0.3321094918278187,-0.30468128400487915,0.1804456989249597,0.1373421850575098,-0.31867422410325547,-0.22064667685301773,-0.2531321528921054,-0.3384411595463795,-0.2868450429021881,-0.20425244764553566,-0.19213253747409925
0.816,-0.018329033044774595,-0.31188788674797063,-0.294645522706047,0.16646656185772543,0.13724328329781715,-0.30347210934820085,-0.18904987948478164,-0.2145559713366474,-0.2872391331862722,-0.2573191886058987,-0.17786346992941796,-0.17448018087537567
0.818,-0.016604687149490583,-0.29272670152128344,-0.2768590740160442,0.15657295598322482,0.12887986961799613,-0.28498314268372305,-0.1413395455890819,-0.17280032299738862,-0.26239267307997527,-0.23177242806925596,-0.15245687030432326,-0.15778573419161618
0.82,-0.020170452207306233,-0.2708629005699134,-0.2507538088381366,0.14699759108588437,0.11402524923551724,-0.26098965942410285,-0.08333116192501493,-0.1265011590050501,-0.24014045921406377,-0.20149456801427157,-0.1324899033821998,-0.14327430095002658
0.822,-0.02470684783472543,-0.23886469699299903,-0.21374544892678052,0.13226990821930595,0.09362336218799526,-0.22681626664436988,-0.034039854871187714,-0.09048032149275331,-0.2073271606115108,-0.16681604532308317,-0.1192594859499116,-0.12766624691886977
0.824,-0.026619769820224036,-0.19690273007449385,-0.16977055555287404,0.11180191799913738,0.07084471092193548,-0.18475971669790625,-0.004218185802009874,-0.07249505404938164,-0.17029617057189092,-0.13523456114606416,-0.10837158655347698,-0.11093020724773141
0.826,-0.024557298119569262,-0.15540318414054594,-0.13049917219088078,0.09073604259741921,0.0521592055204146,-0.14545349878984185,0.010950775216602458,-0.06283252453257895,-0.14081285538500082,-0.11173811842611486,-0.09162832870596321,-0.09794537570364885
0.828,-0.020309703980549286,-0.12517638026808758,-0.10484426303547272,0.07455612677805322,0.041751187917005016,-0.11787114552080198,0.02236223992380413,-0.046799017461868486,-0.12310214189006778,-0.0974158105675722,-0.06555252030759819,-0.08892410593884774
0.83,-0.017859438273660995,-0.10684614911925959,-0.08921665660748895,0.06441297145927878,0.03586235131177991,-0.10027961765517153,0.03395454049616706,-0.022903286336675537,-0.1127469491085683,-0.09223241439835947,-0.04001830108374819,-0.07868107091498108
0.832,-0.019610527800350604,-0.09157293989688846,-0.07201947312366115,0.057256899668692796,0.02674435840116738,-0.08335614657892111,0.04043595600966379,-0.0043860941296123505,-0.10394170655177921,-0.09068316223719736,-0.030852140296405546,-0.06693313651376341
0.834,-0.023779857736003704,-0.07215942432949259,-0.047906874484052016,0.049471564002944564,0.012079747816606671,-0.061693889145901945,0.03780182879977367,-0.0014775602075020884,-0.09522471181558871,-0.08201972467343677,-0.038263263831588,-0.05698112929216415
0.836,-0.02722075181085685,-0.05208729501753038,-0.024125491588935868,0.04125607239519188,-0.0026073370157579222,-0.04028331716806917,0.031397924675549076,-0.008230258134665899,-0.08823920472377783,-0.06334717998689718,-0.04292701274941684,-0.04730958574500426
0.838,-0.029404561698063516,-0.04111009495567146,-0.011300281361963142,0.03675137679603022,-0.010807345815833763,-0.028258711988527085,0.030423340595181005,-0.01161176928918815,-0.08410397961839639,-0.04694906441131779,-0.03435002063389121,-0.03604967472143232
0.84,-0.031787965901359516,-0.04209880910506272,-0.010424890462089236,0.03820616711838373,-0.01237406694813554,-0.027196315054718208,0.03771189212629134,-0.007607033047847378,-0.082593359980396,-0.04716856941924989,-0.029317766399841808,-0.0274409500773855
0.842,-0.03497961306800573,-0.04700692228714421,-0.01230121597417197,0.042405126508191886,-0.01293135216716773,-0.0292819329787531,0.04735425421900919,-0.002652894869279509,-0.08308353849665732,-0.06259234279805999,-0.04591690202126806,-0.026634778394974832
0.844,-0.03762791179865288,-0.04711589538972188,-0.009567288226280191,0.04443027348183281,-0.015958998651388143,-0.027667900661413208,0.0522568040865492,-0.002413916271538131,-0.08466681067978601,-0.07782594307410275,-0.07428447684727728,-0.032372502173827235
0.846,-0.03773630551994392,-0.04228391438233626,-0.004439771229950321,0.042648651245260884,-0.018697492400483108,-0.02374427235511335,0.052414257827617536,-0.0049365337935003695,-0.08609534757260279,-0.08168495122540798,-0.09103420228178041,-0.038580464399584805
0.848,-0.0352695445296895,-0.038092165852697604,-0.002727718596247935,0.039124143448976106,-0.017812950141775193,-0.02226043926679994,0.05201562251622283,-0.005894973120705891,-0.08692997389712916,-0.07716995923452995,-0.09007931138164849,-0.0427218173428338
0.85,-0.03244137791265027,-0.037187902929963976,-0.004759508483471672,0.03618265754994604,-0.0149611635016886,-0.023422905976958713,0.050618676190938586,-0.005454169494062392,-0.08810805430187464,-0.0734657333622705,-0.08177512031347892,-0.046366878140462156
0.852,-0.03118221161035897,-0.036800172870883496,-0.0056757807222265946,0.03409533763996871,-0.014179176648252904,-0.023274262168003587,0.0447572720884157,-0.006348230904294123,-0.0901538667244826,-0.07374524909833159,-0.07177480151354095,-0.047128483414719216
0.854,-0.03176046183877327,-0.03426498170912988,-0.002503121887972159,0.03255567912506902,-0.01675854704423097,-0.02008525986013883,0.03693505623267045,-0.008403820844861363,-0.09142327564422734,-0.07420015046539487,-0.0587725534921314,-0.04212249216308808
0.856,-0.03306831375398537,-0.030122498440706764,0.003120786580506728,0.03156067085598698,-0.020536985837823457,-0.01568312759640231,0.03411302762097986,-0.00887133433924483,-0.08985353325952579,-0.0727225012026537,-0.045546270700959485,-0.03829982734128169
0.858,-0.0331551705534236,-0.02521002019776838,0.008425460149280762,0.030002785237139066,-0.022828026976344874,-0.011307927217771368,0.03738476977263127,-0.007077186981215692,-0.08598429771425514,-0.07098529005093988,-0.03601607992771773,-0.04476312517255117
0.86,-0.031530744752703226,-0.02060506392419929,0.011674160266578006,0.027285625569252278,-0.023115370357720214,-0.00755841436008898,0.04151889835604891,-0.005105126546680207,-0.08178286619749857,-0.06664701136332658,-0.025847351664664613,-0.05693540073240112
0.862,-0.031259688520446076,-0.0196603144646972,0.01228694893793393,0.026217795577871187,-0.023318935063951086,-0.006447651182096382,0.044093959840765376,-0.004103538013080664,-0.07750534753079334,-0.055218500300461534,-0.009264705601780256,-0.060845339897507615
0.864,-0.03510199541777903,-0.02341534474397262,0.01206464091380375,0.02916797527295983,-0.025357401050713504,-0.007987096186277139,0.04727612050695662,-0.0032181582220302046,-0.07234631825082402,-0.04208612846060075,0.006660379898484642,-0.05197989826862646
0.866,-0.040174824971872886,-0.026514254632481443,0.013952210904108385,0.0327973782504182,-0.028514621209688496,-0.00814772255884368,0.051628680514759405,-0.0017766762328165118,-0.06681720162806754,-0.038008581291988475,0.007378158304038018,-0.040196915084705305
0.868,-0.04150821533169366,-0.02455440278116849,0.01749971542255289,0.03280199946424409,-0.03023941361155578,-0.005209410327584526,0.05404878891925688,-0.0003724286557763727,-0.06275080109918582,-0.043178069041341985,-0.010595919858027388,-0.03385266414957812
0.87,-0.03915880601004994,-0.021219072638192213,0.01860074164231595,0.030829076104175523,-0.02930332620979841,-0.0033823004469582304,0.05142923523003078,-0.00013963015961001776,-0.061378818764938683,-0.049377690246453415,-0.03699915984999251,-0.027565035739916043
0.872,-0.03674600041921367,-0.021641669630695096,0.01545599202483806,0.030601055999601206,-0.02695084249629678,-0.005638270949705539,0.04411846953670187,-0.0012467806963870202,-0.06171794991343569,-0.051853235475922486,-0.058664486206698195,-0.013165032420883254
0.874,-0.03524696391364377,-0.023807988219653367,0.011456142414945835,0.031073623372653413,-0.024895582503531216,-0.008285316666291752,0.03622332244773779,-0.0019527264433990864,-0.061276675972358224,-0.05033818416278752,-0.06608033770250071,0.004807759047943746
0.876,-0.03246614380440644,-0.021950117395917502,0.010629797097381065,0.02838473328965877,-0.023414992227234564,-0.006454201898948762,0.03257636420418757,-0.00019396162786656352,-0.058396734169427644,-0.04634436673734696,-0.05653438070673703,0.014386993651215083
0.878,-0.028226291849387623,-0.015121167677123784,0.013598137004989554,0.022466456158553007,-0.022733439195479103,-0.000700398159423721,0.03460429662682613,0.0034341331943758785,-0.05348407498589593,-0.04201612328913968,-0.035759422119721426,0.009964464049172915
0.88,-0.026419350061945134,-0.007992294986469431,0.019106117600323675,0.01779383563499096,-0.024606135508761458,0.005045213402794827,0.039422676480429145,0.00591705184198142,-0.04839428468975146,-0.03714226469668687,-0.014721033708519134,-0.004999514548231645
0.882,-0.028951896263136555,-0.0032858463858822075,0.02612043198510315,0.016542946657536937,-0.029399712120287892,0.009721457413355915,0.04322720241483061,0.006234020712933577,-0.044909602752764205,-0.029284552917850155,-0.0045574215087140196,-0.021579714186624945
0.884,-0.03142232220983773,0.0012044935388564552,0.032591250234010195,0.015377390724337825,-0.0333840153975065,0.015001595744842555,0.04480958497445311,0.007498647673418894,-0.043314110121249014,-0.01857102505041147,-0.011001481344272089,-0.030324907627579688
0.886,-0.0300131287800943,0.0055847039469245985,0.03513166934726821,0.012470382027209584,-0.033182908678217535,0.019445118846279176,0.046013983406909494,0.013070655259112118,-0.042037312525558625,-0.00937139935355892,-0.027926212753524502,-0.028503612074954852
0.888,-0.028118255791685497,0.005094760209442951,0.03269649168937525,0.012070842030770289,-0.030982154862894892,0.01881719542458391,0.04913987734084775,0.021736218028775536,-0.039412894214811714,-0.0069906259138385815,-0.04001530454164743,-0.022414341431645887
0.89,-0.029702192229378022,-0.0013235259681584012,0.028267091515193823,0.01677701147227069,-0.030453979475311827,0.013108527810499176,0.05293517851944353,0.027523609771317365,-0.0364676325273986,-0.015022152056090598,-0.037971773017315545,-0.020221382277853847
0.892,-0.03157171067471876,-0.005814625116719639,0.02617658784531601,0.020685849052618235,-0.03106165020610307,0.008751080206520802,0.05286592964426569,0.025267118031992664,-0.035656493970414725,-0.03190739042751828,-0.026251455404941275,-0.023291395280726965
0.894,-0.029327153880356272,-0.0004464838116704523,0.02947392682253142,0.016928641510363097,-0.03128202603352647,0.012213961033241339,0.04788963254392715,0.017144799542143666,-0.03587015813999978,-0.046431752935224446,-0.013192596963466951,-0.02565435543391863
0.896,-0.025026597839523705,0.010789720555194931,0.03608915626250724,0.008595187822216716,-0.031494193733599074,0.021184434439888416,0.043747425854070786,0.011687334070086642,-0.03282880660415518,-0.04348259496602427,-0.0007134248991585612,-0.022037645767916253
0.898,-0.02273200616963713,0.015825468937779957,0.03830753100733096,0.0047183738804825555,-0.030791995119768625,0.025682698931683522,0.04607328805738632,0.015018217319956378,-0.02554963736909648,-0.019552621715300006,0.015842885345847296,-0.014682003439836668
0.9,-0.021846829653891564,0.011994886856150334,0.03318196142312492,0.006632353868929601,-0.027820861288210954,0.0221278380646277,0.05346663454942231,0.024522620902644395,-0.018078010993958074,0.010624541559998568,0.040443031477634485,-0.009090045713062326
0.902,-0.01907579973595298,0.010301253051593785,0.02857578399946075,0.0063544426984232915,-0.02441286409299739,0.019141153756261253,0.06042227010181074,0.03248428262222737,-0.013964154449387959,0.025542194659267502,0.065553440463913,-0.005410204001719145
0.904,-0.014228720769192573,0.01838539059466917,0.03203973327167995,-0.00045592128216490925,-0.02365591292738398,0.024081920154487638,0.06357281503084651,0.03471827549634951,-0.012872118131412468,0.016074712594909658,0.0748737208902073,-0.0003192270530474602
0.906,-0.01173076459522586,0.029268279989214607,0.04096742796042132,-0.007574294559079699,-0.02669725088450627,0.03282876596325311,0.06256434387089067,0.03328395559651831,-0.013032407265324229,-0.0057698464602781805,0.06672786925569653,0.005787917685169563
0.908,-0.015076002785163698,0.031968869163973325,0.04750954418761148,-0.00733246078026998,-0.03206954016084626,0.037112344537906385,0.05874872416055472,0.03208121750396848,-0.013412993245692386,-0.0187083641807894,0.06169288889940215,0.009376026439134683
0.91,-0.020985320393391734,0.025610667070482974,0.047054054893175275,-0.0009855601199220236,-0.03579243190866318,0.03457702884299357,0.054501984824410356,0.032487760757572086,-0.01336374048762311,-0.013163424072783321,0.07356179883379578,0.007268516573850583
0.912,-0.022873272629210555,0.018576663415296252,0.04138167227512785,0.0036945860061052974,-0.03455016678710732,0.029277808943273496,0.05109017229232562,0.03290800950798306,-0.012423375713541226,0.0016301221035600975,0.08933094453924137,-0.001184311031800941
0.914,-0.01926565783727661,0.018201267696969416,0.03693269255070438,0.0019458753684487573,-0.030113225186719456,0.02682488299693107,0.04812415531094111,0.03187821397341347,-0.01001622715065704,0.00999431486645918,0.0905104896007627,-0.010008843096289684
0.916,-0.015207010718334898,0.024241241265308112,0.039025545375484555,-0.003635296448888737,-0.027936287287899028,0.029966569879563802,0.045870224347350365,0.030290095221266047,-0.005538796624229193,0.006286068051291113,0.07687191892017517,-0.007447899125095475
0.918,-0.015621222294365973,0.030903345167172937,0.04664402404037508,-0.007313484954358235,-0.031034080325007613,0.03658577944870743,0.045648753362623355,0.029392980907368218,0.0002829241050066186,-0.0009108049964877894,0.06103362269543692,0.012306115439522057
0.92,-0.0191029168354147,0.03377446657009618,0.0534324792363736,-0.007175367442880961,-0.03631768137224006,0.0416357109406956,0.048346791891862174,0.02961561429808153,0.005885548789896453,0.00013280716406120823,0.05603228058139111,0.03808167062312169
0.922,-0.019119487272575782,0.03438622162612196,0.05405102535841831,-0.00720941755408688,-0.037486935503419985,0.042360109976104864,0.05358128972941342,0.03229852814549591,0.010829403450449266,0.010778677528181218,0.06821656865578522,0.04921022618035208
0.924,-0.011818120145155379,0.0378209877839459,0.04983266558255261,-0.012278607465320581,-0.03235941726906115,0.041543189845962065,0.05922685904396268,0.038821821795544886,0.015314183585120053,0.021619852364472097,0.08831328595238082,0.037451383354004546
0.926,-0.0017804078252124554,0.0456536355084474,0.047290129006622626,-0.02111909401498676,-0.026085768507826495,0.04380650251050718,0.06215968136985026,0.04763120511384975,0.018790118810964943,0.02397351720759252,0.09745992767741572,0.01700503075279203
0.928,0.0021214900357064575,0.05287077635002166,0.05045961530763176,-0.026498933258928367,-0.025345400413007226,0.04936767340076214,0.06039391020215371,0.054580353011217476,0.02060453552533776,0.017873890268546314,0.08944122707310306,0.01018624122979879
0.93,-0.003000099818367433,0.05353586882286103,0.05619171827729805,-0.02393701753167405,-0.030429138179151695,0.053729915794725434,0.05479487499819515,0.05660886712818186,0.021460219629973885,0.010943065312892148,0.07376483192369993,0.02372524599676044
0.932,-0.010644958614139144,0.0478394911075493,0.0581369741813748,-0.017248888040641525,-0.03519616429448098,0.05303732720132527,0.049017094173395725,0.05432942172314586,0.023520732392136062,0.013366582974842897,0.05788919224704299,0.04118809677875483
0.934,-0.012825739965222764,0.04199960309099112,0.054614778434832506,-0.013648527170753127,-0.03485725135764274,0.04856845492332237,0.04653762784649079,0.050790017665816097,0.02826407309414018,0.029134833964752076,0.0440588023383578,0.042631434846645236
0.936,-0.008293254678195609,0.04219137374276606,0.050491179561961155,-0.01622293060003605,-0.03108883423398991,0.04580067418691955,0.047019448178513557,0.04831647302258882,0.034390173408214895,0.049333591882341626,0.03835040883274685,0.027540486116052868
