time,I,II,III,aVR,aVL,aVF,V1,V2,V3,V4,V5,V6
0.0,-0.0023475394136656664,-0.0030057280343195915,-0.000636248999965461,0.0026766337239926287,-0.0008556452068501026,-0.0018209885171425262,0.0007459471034077819,-0.0013821961033732427,-0.002566935620550308,-0.0022378413102233452,-0.0009653433102924235,-0.0014918942068155637
0.002,-0.016091171626843065,-0.020776591693657174,-0.0045541043013672304,0.018477760901627047,-0.005757563852393685,-0.012720197049233361,0.00543007933548626,-0.009567330843772672,-0.01782118207439266,-0.015434592799608675,-0.006633538886512714,-0.01022390967100706
0.004,-0.04970344311794415,-0.06506579235526802,-0.015034930177377366,0.057658219077844075,-0.017323447639281116,-0.04042252992131681,0.017875485028136368,-0.029669468558615276,-0.055582331364342236,-0.04753979692168845,-0.020493096800367077,-0.031306563858347826
0.006,-0.09305273018153488,-0.12448234673513604,-0.031007011337222973,0.10953191370232886,-0.0311874393057999,-0.07886973745831646,0.03518915867413304,-0.05518137753685152,-0.1042660214149772,-0.08734933331514957,-0.038326606055394015,-0.057096947032546294
0.008,-0.12126728167877515,-0.1678188605515893,-0.046296038201445115,0.1458694716605268,-0.038147715832063354,-0.10903143206824947,0.04602415907931779,-0.07088155896005424,-0.13522090304435316,-0.10992205836735684,-0.05051732057138569,-0.07086772232443536
0.01,-0.12167190762689269,-0.17807225322924977,-0.05642601906249479,0.15163244096422984,-0.03387997640107708,-0.11944288542866552,0.042248501525338156,-0.07162592244577344,-0.1374203829803413,-0.10802122087214569,-0.05415378047707355,-0.06800390288177446
0.012,-0.10405269151889983,-0.16705687566745783,-0.06314998075523673,0.137678103556549,-0.02197644049191049,-0.1167238257501148,0.029715087578713162,-0.06667081465823073,-0.12806503386868243,-0.09891255579434645,-0.054898249800814626,-0.061377264411819774
0.014,-0.08744919629814764,-0.15575813141950237,-0.068350211210883,0.12406851441428687,-0.010943009651190216,-0.11302281092254604,0.02190844461530305,-0.06451981096947829,-0.12532356050782398,-0.09763078381876582,-0.05683892635577122,-0.06296048945526778
0.016,-0.08468093103645988,-0.15143602739795525,-0.06657765067588771,0.12069388359738785,-0.010165186036642333,-0.10994551113403055,0.024941104459830412,-0.0649585710733354,-0.12925129500191004,-0.1022016764793278,-0.05827679443662035,-0.07104040938055378
0.018,-0.09336521688403676,-0.14721773993238627,-0.05346868566588053,0.12282774648157237,-0.02074868193305483,-0.1018262017076504,0.03375420123567556,-0.0646780175443883,-0.1306353589513354,-0.10500980334199168,-0.05683705067161819,-0.0767772867199927
0.02,-0.10016624415513668,-0.14018626005881982,-0.03961718916962873,0.12249038842922852,-0.030811552987608605,-0.09186335512226294,0.04089074861226384,-0.062166679965887504,-0.1252178058813726,-0.10406261975538711,-0.05319038884131827,-0.07576772932904553
0.022,-0.09712313084544008,-0.13739843876369923,-0.040180688817411346,0.11947364005633827,-0.029105745491029615,-0.09059356785539856,0.04387102911058285,-0.058431424909591675,-0.11640933533235652,-0.10176173646985813,-0.050140837310345,-0.07096024520818665
0.024,-0.08952943178358311,-0.140463900990533,-0.05132481973893956,0.1172397257237434,-0.02022842882060372,-0.09699800183591005,0.04437337166519241,-0.05668615812895023,-0.11000170203591697,-0.10073807936463344,-0.05030025654496203,-0.06755530155690619
0.026,-0.08611521393925435,-0.13896646214001238,-0.053564084536450306,0.11458710443722583,-0.01771004505166248,-0.09662732039981897,0.043229220375821595,-0.05955674338395681,-0.10951500692811048,-0.1024405104157641,-0.05427873520279754,-0.06913005519649044
0.028,-0.0886413724573009,-0.12679102748619175,-0.03891458017045321,0.10898607217444992,-0.025966992037757954,-0.08274008561531952,0.038779101496023746,-0.0657698506877447,-0.11512289290061839,-0.10644707104100119,-0.06087456386436679,-0.07727539672409828
0.03,-0.09292368908223342,-0.11415727213397286,-0.021910615412026505,0.10365408547359843,-0.03606120900311672,-0.06797183167878006,0.031502552795457085,-0.07080541362680602,-0.12351411550766817,-0.11036364405407846,-0.06782975118666755,-0.08791157411363226
0.032,-0.09439322530776646,-0.11448010624427671,-0.0205910404877185,0.10370258823130395,-0.037500170554771194,-0.06829081539379808,0.027105225713332355,-0.07051672636050678,-0.12817208322974602,-0.11106657893744831,-0.07139004202276075,-0.09062421986950993
0.034,-0.09228268039206637,-0.12698643108003263,-0.03502514869357747,0.10882575848237017,-0.029847043448309525,-0.0828689621222211,0.030795260600421873,-0.0640991644444943,-0.12366693693005737,-0.10654977604833275,-0.0684555469567399,-0.08148469865006394
0.036,-0.09043632220323349,-0.14073775280962794,-0.05066274357937904,0.11529912862207059,-0.021533019755914835,-0.09793405785091028,0.04011367749494559,-0.05418828852457259,-0.1119296646024663,-0.09789436750753328,-0.061133855495536,-0.07106271068169323
0.038,-0.09221866659398417,-0.1476685367108847,-0.05605981966492196,0.1203082307558821,-0.019772347106566113,-0.10348061979156087,0.047284696192745966,-0.0449154525364468,-0.10162313816496626,-0.08989431550385057,-0.05556722536353407,-0.06989295066057084
0.04,-0.09571996678878919,-0.14510142160241882,-0.05003543908883552,0.12118275441562529,-0.024666791767210688,-0.09849853545004951,0.0476567718078024,-0.04042892080260911,-0.09952763745127263,-0.08824475038750244,-0.05525670007936175,-0.0748478469270665
0.042,-0.09642347665203085,-0.1343515908192802,-0.03821968655160196,0.1160487906485088,-0.031184422480362805,-0.08734546224554718,0.043631908702722114,-0.04257777888385423,-0.10406688440916446,-0.09420894084017624,-0.05865526542291461,-0.07821823039508871
0.044,-0.09227336021234782,-0.12162576620382387,-0.029223870233137664,0.10713368592332068,-0.03354621766316578,-0.07710135698115704,0.04075093145109665,-0.04868315710724278,-0.10872982821390131,-0.10258400383623884,-0.0631304751021712,-0.08027934130839356
0.046,-0.08501281728241708,-0.11465707630977393,-0.029422598361665882,0.09999989059633585,-0.029325280502642586,-0.07374207254836251,0.040625207455894256,-0.05455644039236828,-0.11075317307305782,-0.10695955707731598,-0.0678498727231126,-0.08468469923608088
0.048,-0.07906061974977016,-0.11760053292719859,-0.03849350146498037,0.0995187167875401,-0.021310125362686807,-0.07901919846744429,0.04047496620622664,-0.05814539333439884,-0.1119413129322974,-0.10538078030126186,-0.07135739836366131,-0.08797578316422193
0.05,-0.07862425154721212,-0.12873631106136266,-0.05020748619437904,0.10622148457523496,-0.015111552272664015,-0.08991583625610418,0.03967819349863494,-0.05855798064077838,-0.11197614776847059,-0.10003395643471145,-0.07049015970060812,-0.0832373569027661
0.052,-0.08362950488976621,-0.13761538514405214,-0.054078976812408724,0.11346800932725323,-0.01588909812132242,-0.09643539181263866,0.03992396631119659,-0.05666724902576829,-0.10952244033173517,-0.0951552180336715,-0.06549975060203289,-0.07292519458427818
0.054,-0.08975061878540744,-0.13178129866849864,-0.04216637820413623,0.11248120358132799,-0.0251149930085789,-0.08794066375593752,0.04009766165817009,-0.05584120135684528,-0.10748909827419095,-0.09444333525910976,-0.06121108907207363,-0.06796450852490184
0.056,-0.09340310434620297,-0.11645591215197171,-0.023464478426135728,0.1051278441384194,-0.03621898634867969,-0.07119051063243652,0.03885932448986321,-0.05682679900248539,-0.10797676340634126,-0.09689339767305571,-0.05987901519687552,-0.07305642390650427
0.058,-0.09361441466948735,-0.11310212315373118,-0.02020287872121013,0.10286717671248949,-0.03753881455303748,-0.06792384494940651,0.0385294273612656,-0.05567248000662281,-0.10721722471464269,-0.09759544986210253,-0.05884463112004425,-0.0817878769056814
0.06,-0.08910741892497695,-0.12845168770697252,-0.0399105889201524,0.10868594001712625,-0.02493976268665909,-0.08520702432676698,0.04119630770055285,-0.050048375165200595,-0.10219053747015505,-0.09422147528094596,-0.0560361321514385,-0.08570579521396533
0.062,-0.08009205894155427,-0.14320534512241684,-0.0630320846582239,0.11256702789032778,-0.008897014823577323,-0.10382539878923663,0.04551521000225137,-0.043361745000934544,-0.09617013920704484,-0.08956056955851714,-0.052558528617598584,-0.08138142802323514
0.064,-0.07336812819044834,-0.13784904251749555,-0.06388401360709574,0.10756396554532793,-0.005945425545991132,-0.10143370977907269,0.04883122217717865,-0.04102723592311536,-0.09410457018394762,-0.08778393818900478,-0.05090895628997758,-0.07166867613571247
0.066,-0.07676066298711366,-0.11555826200123057,-0.038322774901151845,0.09872632829475633,-0.021362104654172504,-0.0775737027134603,0.049384496275787906,-0.04474103900549765,-0.09651889860685232,-0.09055671152802174,-0.05267243612980914,-0.06375087771601488
0.068,-0.08740149572843757,-0.09739169831497257,-0.009995426416895862,0.09494990807632382,-0.04089694686626633,-0.05458563440418785,0.047300928013503045,-0.050677140872223046,-0.09937489660976846,-0.09535633605988181,-0.05585101486156216,-0.06197402104202798
0.07,-0.09381352656964181,-0.09911097543040541,-0.005549792096847505,0.09843609462972841,-0.04563269530695604,-0.053622455374803916,0.044772339006886666,-0.05356504346283607,-0.0987747928752843,-0.09695957577381033,-0.05619338581645427,-0.06336792254560351
0.072,-0.09040915871162108,-0.11305929267200958,-0.022797614268708837,0.10297551755547603,-0.034833706132336224,-0.0696303158636886,0.043764932023029064,-0.05268754058230571,-0.09539980011389881,-0.09343598379534308,-0.05373425965556518,-0.06389517493484152
0.074,-0.08337170939650208,-0.11855286592584234,-0.03523850474543655,0.10209425866930028,-0.02516227976786368,-0.07885647756663397,0.0437474301967562,-0.05152303796210206,-0.09311949323115011,-0.0890293844875815,-0.05352702587515472,-0.06445789016444552
0.076,-0.08053705000603502,-0.1091948719622387,-0.02885972716336545,0.09680497646836524,-0.027100053660401115,-0.07095968452780657,0.04342366961951358,-0.05150849421854465,-0.093549481367041,-0.08759975831349347,-0.05749101465318481,-0.06747136606763472
0.078,-0.08029775255008587,-0.09698482028048011,-0.01699078660895838,0.09136193049728107,-0.032940007395540365,-0.05871293597607695,0.04331919967612318,-0.05006045015859446,-0.09454997026650333,-0.08735147927718301,-0.06086568669995642,-0.07191786789213166
0.08,-0.07537644729399602,-0.0902925344793811,-0.01502732846410703,0.08521001948828422,-0.03158188807560786,-0.05415780996689526,0.044814980454051544,-0.04503703740265537,-0.09350745889901398,-0.08501235768544471,-0.05853115901417854,-0.0731659708657946
0.082,-0.0662406482586784,-0.08480658111236469,-0.018474998386343793,0.07674063860110103,-0.025490727066724714,-0.052763313965804456,0.04693618883954787,-0.039176168619033606,-0.09109769647957235,-0.08150885268701055,-0.052167659240963296,-0.06810164980708734
0.084,-0.06382038736021835,-0.07909994016487444,-0.015308803422841959,0.07196214817225735,-0.02559566647830842,-0.047863026312781116,0.04493228009511805,-0.03980665683259112,-0.09257466417545987,-0.08221294525968656,-0.050457936157681446,-0.06185939059446044
0.086,-0.07575366274769896,-0.08351923436351447,-0.008091896447082388,0.08036192900718551,-0.034340228396613263,-0.04629664403021298,0.035422576865791186,-0.05104705810171064,-0.10157184850878671,-0.09060410399716969,-0.059442241081656126,-0.06318554197370486
0.088,-0.09524248510265444,-0.10617871645738114,-0.011426539385507927,0.10205093892267772,-0.04190240244812517,-0.059381447764775254,0.024158398544119938,-0.06573187255139364,-0.1118367654164645,-0.10092950513833628,-0.07262537856515469,-0.07107095401457554
0.09,-0.10756617549082206,-0.13672654679947757,-0.02954581231405066,0.12405261334361077,-0.03945581734552891,-0.08376974470234859,0.02220494509570195,-0.0712999414025757,-0.11258984209040158,-0.10268922146031208,-0.07734696271370375,-0.07536343356957133
0.092,-0.10408041022048829,-0.15063727565547497,-0.04658096592393254,0.12982647487864893,-0.030017113867381737,-0.09945705026845303,0.03190305832534428,-0.06414720872821308,-0.10242971090698184,-0.09395969823940609,-0.07009570416910373,-0.07130778785962627
0.094,-0.08847965466782134,-0.13368903812601196,-0.04483573951378664,0.11399999653568946,-0.02329515515845702,-0.09063365068352774,0.04333474141294862,-0.052488092862705636,-0.09082825263177295,-0.08396655110740445,-0.05869841332604772,-0.06486329921379626
0.096,-0.0722768837540341,-0.09904157169951269,-0.026361447488494633,0.08854564555972393,-0.023956918424601382,-0.06438917556495875,0.047058327135950144,-0.04575905092593959,-0.08601963198921665,-0.0813922267844517,-0.051589288720790175,-0.06347915803300325
0.098,-0.06450986332200755,-0.0731982314443277,-0.008736603001707399,0.07111814418720683,-0.028414079431707748,-0.042282615257785684,0.0446384211583414,-0.04553267772189401,-0.08640439934671836,-0.08502577651838227,-0.04987302611622617,-0.06689674539328948
0.1,-0.06680563024166196,-0.07146541021764685,-0.005132821963304563,0.07058092616853294,-0.031244176126400767,-0.039008463996031244,0.043589910282239915,-0.04722868191838735,-0.08537956174618055,-0.08780352636584834,-0.0492792862525698,-0.06872192008730514
0.102,-0.07702490039657953,-0.09156599824651102,-0.01484623711097197,0.08526605479021224,-0.03157602386184469,-0.05401099291939474,0.04606807148794501,-0.04848189587412055,-0.08208382097037155,-0.08732708254287345,-0.04801444928913859,-0.06612135774340432
0.104,-0.09074509222757446,-0.1192625499073884,-0.02821924396239365,0.10583039739650633,-0.03192636955005943,-0.07527611705532744,0.04743325932890886,-0.052324044954647646,-0.08301976525782412,-0.08836273468096027,-0.04997795591087101,-0.0644995762775167
0.106,-0.09862226301583159,-0.13464870174279922,-0.03538890434809236,0.11733761444827973,-0.03257574898715442,-0.08670630072580755,0.04495452813198767,-0.06045235833081883,-0.09205578952438861,-0.09423913510253823,-0.05787438268518943,-0.06969294747731275
0.108,-0.08930019710008551,-0.12236473217241615,-0.032682924168832284,0.10661734549590389,-0.02966667854542396,-0.07821266313648612,0.042887626766137395,-0.06753587605108068,-0.10284180295315576,-0.09977547474485007,-0.06615291556579549,-0.0784454585269124
0.11,-0.060903775909327454,-0.08658915764351748,-0.02576448452413499,0.07498526022211556,-0.01927756738016447,-0.05565801929935872,0.04677412832940144,-0.06664754543665906,-0.10461835344227077,-0.09637218543110457,-0.06553799735669619,-0.08090520162313966
0.112,-0.03069128911898253,-0.055291957444755645,-0.024862453378652227,0.04451578721436112,-0.004608183589978489,-0.039210059036616896,0.05539629938849963,-0.05848598045152108,-0.09513407451985928,-0.08339274063588528,-0.05440092945507072,-0.07288193710690379
0.114,-0.02576707266092325,-0.05718653024299714,-0.03163013886696701,0.042719740469730365,0.0016885680945255821,-0.043946560874799485,0.061135209839124995,-0.051540278194551446,-0.08459943802081289,-0.07124695215358604,-0.04220038944491244,-0.06273424642907106
0.116,-0.05663894649315898,-0.09265037935317554,-0.03624928179444312,0.0754315489664075,-0.010849248922177002,-0.06444965664448875,0.05812206260861877,-0.05283416578755777,-0.08394432255929384,-0.07073541707842733,-0.03986804740078686,-0.06201086755288018
0.118,-0.10409667075428775,-0.13699981035691775,-0.033261712882945736,0.12122036492279109,-0.03564979064318338,-0.08553008745052829,0.048600778193447394,-0.06053114924647717,-0.09187998067640751,-0.08077648747647596,-0.0484694478342387,-0.07077982484529183
0.12,-0.13825267765213553,-0.16828970055767273,-0.030431289429357463,0.15412812965086914,-0.05419741629799786,-0.10046706885026624,0.03981415843350495,-0.06759193369065457,-0.09878937679371713,-0.09114927604312781,-0.0599018568964019,-0.07920780118440279
0.122,-0.14614054352517677,-0.1808947772133341,-0.03510627689742403,0.1643512258346509,-0.05652989021791357,-0.1100050054248735,0.03545478060946588,-0.07106369669003246,-0.1001942138520649,-0.09643713376712068,-0.06739795679624887,-0.08190268219113869
0.124,-0.13613440435057933,-0.17757080796361713,-0.041733190637396306,0.15726695034014115,-0.04910211551581807,-0.11198199432355001,0.032839104228461584,-0.07441891553543148,-0.10017354634481196,-0.10083025876930349,-0.07214178069141304,-0.08255664712299775
0.126,-0.12269352215693738,-0.16343552662246752,-0.04091644335944196,0.14336504518830723,-0.04296517563841285,-0.10389015041988019,0.02796837727168881,-0.08160605819461308,-0.10440446948939874,-0.1091477601616608,-0.07942265748238057,-0.08603111738527469
0.128,-0.11309969177488122,-0.1469790748060717,-0.03388040066783081,0.13125235960010606,-0.0410984873738195,-0.09131738024386113,0.021479058014744527,-0.09078040162990667,-0.11359137951534136,-0.11869723954829954,-0.0894911581228042,-0.09154386168832383
0.13,-0.10316333566038868,-0.13342087151225096,-0.03016863331873934,0.12090619393587558,-0.037488785741819096,-0.08251261315249266,0.01975186592999279,-0.09394246294976079,-0.12111349784093808,-0.12099158172661459,-0.09402014036796752,-0.09278447097197444
0.132,-0.08400244596566545,-0.11972935742656574,-0.0356766913947737,0.10511692096823388,-0.02534530719815589,-0.07869577346144377,0.02907001899788396,-0.08431382659291892,-0.11747965533709352,-0.11004564097086689,-0.08446567728684608,-0.08412433371870419
0.134,-0.058871483200055016,-0.10617149078866996,-0.047321446899965154,0.08534122969776352,-0.007448333745606429,-0.07781850794029545,0.04708707303926261,-0.06551334169015495,-0.10109614111617601,-0.09007723508495107,-0.06401183927639305,-0.06865272013217583
0.136,-0.04611551454248798,-0.10202941262921914,-0.05595143315266421,0.07612105412882822,0.0032363720139641306,-0.08000193353011203,0.06212694815182835,-0.051053767561415705,-0.08296501771054125,-0.07450793139037254,-0.04729343476643056,-0.05768862226702427
0.138,-0.05527799250134092,-0.11106676893857596,-0.05577343376259328,0.08460876632539155,-0.0010206147879309405,-0.08456410150614334,0.06419430039926054,-0.051146965527701975,-0.07573712400853477,-0.07349085191885972,-0.04512207002041243,-0.05844296313038901
0.14,-0.07166972685210792,-0.12373447964802628,-0.05191624818822266,0.0987135714334084,-0.011221748750060621,-0.08922283804663529,0.05551588762061887,-0.061707519905981445,-0.07990452862390723,-0.08291179446482212,-0.05302291570491886,-0.06552091057600619
0.142,-0.07597709651331712,-0.12795770859800817,-0.05164138498151614,0.10280386286602375,-0.014391399659526918,-0.09138737514314042,0.04610001126235876,-0.07170821354283378,-0.08689994452897183,-0.09135040541478466,-0.060274717169549394,-0.07046304303453775
0.144,-0.06816521329316663,-0.11886488461474343,-0.050280788397955405,0.09432751418810692,-0.011966223777666093,-0.08632473723160272,0.0404569689455228,-0.07826011454550534,-0.09294125336839826,-0.0956623068728492,-0.06523206432372207,-0.0745805644767032
0.146,-0.063089550898194,-0.10094758869463301,-0.037610712461965144,0.08266459651718967,-0.01554188042355108,-0.0710898611433212,0.03527780006523503,-0.08625532531369742,-0.10109207314908945,-0.10097483830792,-0.07340018924693766,-0.08348240834513065
0.148,-0.06959031567220376,-0.08720802960536006,-0.017645280187329214,0.07894311417762737,-0.027730421301217754,-0.053809416719623845,0.029290497477688648,-0.09636727297988715,-0.11154109945825534,-0.10816098762922792,-0.08499196329459612,-0.09400414424011251
0.15,-0.0812462835564357,-0.09065768388935576,-0.009575558230592751,0.08703452386481975,-0.03692644298355932,-0.05054994611506526,0.02709381833119224,-0.10238696308811106,-0.11846436881044418,-0.11134084506404954,-0.09336506048767046,-0.09669195128999403
0.152,-0.08798909154896849,-0.1118186754580853,-0.024021373534901837,0.10202462744413505,-0.03347888472959155,-0.06757795439823447,0.031913100583140945,-0.09951803743822091,-0.11720587205960716,-0.10705980040769283,-0.09411003574958872,-0.08894971697960197
0.154,-0.08956059100293866,-0.13631198037039186,-0.04703332161841293,0.11569882169500721,-0.023326438016103294,-0.09148568969903165,0.04040047894998036,-0.09005940453971514,-0.11000928371169011,-0.09912714800954871,-0.08965814988457971,-0.07820549786473303
0.156,-0.09133763679048462,-0.1462043573181134,-0.055234710855976775,0.12127368921799042,-0.01957685968022432,-0.10167042768785982,0.04591285075619427,-0.08122709632219026,-0.10335757462747132,-0.09366589427507506,-0.08526814014834454,-0.07271444036863865
0.158,-0.09370871526813651,-0.136445289640831,-0.042990464350531825,0.11674256458400338,-0.025680436115457162,-0.09198850948601558,0.04533701281962566,-0.07831680972345836,-0.101028246038657,-0.09243796625497994,-0.08344924611662971,-0.07371809035049418
0.16,-0.09265784215967789,-0.12037434504776102,-0.027719694873943462,0.10737550194996946,-0.03265627443424866,-0.07674408276465598,0.04288797434164121,-0.0795762079944476,-0.10111251934322626,-0.09226014749869543,-0.08192007266669046,-0.07613611718821554
0.162,-0.0869392954605803,-0.11507350653237797,-0.028003100660668263,0.10149631555725469,-0.031142595366581993,-0.07352067820568951,0.045128338467607734,-0.08016104809434199,-0.10014409147394525,-0.0902491987249267,-0.07693300909591942,-0.07457428778587122
0.164,-0.08021214754093887,-0.12310082350423354,-0.04281674144011758,0.10228008424749936,-0.022007996486438676,-0.0839874302075408,0.05172361536535612,-0.08033677061291657,-0.09829579470084902,-0.08780412694517291,-0.0692943071402319,-0.06890304608005367
0.166,-0.07630918559021367,-0.13280519462555057,-0.056529966643648975,0.10563749829960163,-0.013384424577858366,-0.09548335897834193,0.05522022999233181,-0.08492920694313243,-0.09930171029410695,-0.0888953574290768,-0.06530870713177239,-0.06493862873517592
0.168,-0.0750839871599395,-0.13362984145160703,-0.058601216459808696,0.10589192799310791,-0.010648663296743726,-0.09750623194183373,0.050302517678781467,-0.09547939411492143,-0.10629038421417746,-0.09552983059514165,-0.0705535958946246,-0.06920474696336532
0.17,-0.07471516355188138,-0.1265268784319288,-0.05182001334244335,0.10229779430182197,-0.013068735031433217,-0.09110856035548516,0.03993536789047017,-0.10679468955543339,-0.11729569396141144,-0.10444965071481259,-0.08311248333636014,-0.08109273859360035
0.172,-0.07515917315756811,-0.11965749416139691,-0.044472222776626394,0.0990161903876948,-0.017407658203882716,-0.08366313757926315,0.03208093555279699,-0.11153721786102788,-0.12509803094914745,-0.10889636959155022,-0.0939106796173168,-0.09126516601752034
0.174,-0.0769375601637314,-0.11674496192734402,-0.03979040951279775,0.09857800103457261,-0.021538244141631347,-0.07880015224953327,0.032004009284439396,-0.10742004133373981,-0.12428480328441302,-0.10577708106347049,-0.0954712506942126,-0.09160462958647378
0.176,-0.07908477541829449,-0.11213397235811699,-0.03305530416342991,0.09757152689826362,-0.02614479130872142,-0.07254898810082308,0.038351847278345085,-0.09903359281773366,-0.11739705892694804,-0.09911957585521469,-0.08940100198822264,-0.0847904349022744
0.178,-0.07925049284624726,-0.09850157903333913,-0.01926326954302751,0.0905464839438623,-0.03253532505932626,-0.05954872288588712,0.04634199468084255,-0.09207236921206345,-0.11055164740789189,-0.09398531172790432,-0.08265074332680589,-0.07952478641925466
0.18,-0.07411686007047129,-0.07705120244566516,-0.002936829009121079,0.07653234401509158,-0.037571066453337756,-0.04185279105276583,0.053805800926584865,-0.08744085961321398,-0.10473972231371159,-0.08966420696235679,-0.07785697803557831,-0.07868058208087655
0.182,-0.06240370107158694,-0.056993755289577855,0.005393466239139419,0.060521931992964094,-0.03557275836739173,-0.0279660742795556,0.06222367776064293,-0.08245175594003659,-0.09562747414960343,-0.08175899192671719,-0.07149616165138331,-0.07712990377356373
0.184,-0.050858522759852386,-0.04830871353625072,0.002422458192814725,0.05128928406004489,-0.027960737055608666,-0.02441319156779273,0.07144393036622133,-0.07629350853426743,-0.08186417202681441,-0.07009788968848157,-0.062145517713103525,-0.07067532428651176
0.186,-0.052422309259647665,-0.05651888361085599,-0.004425079318641947,0.0570881232462339,-0.025119628015799415,-0.031167788498987492,0.07714056080254603,-0.07167056841578238,-0.06958131082814423,-0.061622330864977926,-0.05523596575241699,-0.062278289784246064
0.188,-0.07062171487961036,-0.07658724858905108,-0.006390821218800849,0.07612520886575881,-0.03362911236930811,-0.04201695681821897,0.07604571556534288,-0.07074396477119671,-0.06586815160443286,-0.06254408505636219,-0.055533246774672314,-0.05753172617079397
0.19,-0.08798338571108609,-0.09050851921250891,-0.002781362763698608,0.09091060792308431,-0.044663435595060315,-0.04768031205274776,0.07039665736429117,-0.07190767702597062,-0.07023987845671616,-0.06936930680054712,-0.059595443359533616,-0.057911538869193084
0.192,-0.0817726804634612,-0.08177031100839113,2.9177795479171177e-05,0.08298358611520873,-0.042894100111963075,-0.04253759725674728,0.06409595184807762,-0.07246986647815945,-0.07649076206338605,-0.0733268416140507,-0.061277684586442296,-0.06146099715254939
0.194,-0.054042505863646804,-0.05645139121073408,-0.002284110502128354,0.056937370621789725,-0.027472498006833462,-0.030967934181945392,0.05739051894826077,-0.0729643493504925,-0.08080105013722601,-0.07229500990997507,-0.060722242917067015,-0.06629200075152974
0.196,-0.0332793818435654,-0.04114768817564856,-0.00795852691954399,0.039473372644200255,-0.014411415409726524,-0.02541500601345669,0.0492184437329652,-0.07581798839657183,-0.08333749143880334,-0.07106999548000267,-0.06199179177745817,-0.07001821035404664
0.198,-0.04120826101601128,-0.05407965156137202,-0.013376842601161369,0.04963303777838218,-0.016391424098767208,-0.03420129739761265,0.0411826145898884,-0.08096805779049258,-0.0846233896616442,-0.07208728273223175,-0.0654114261416302,-0.07004134495918182
0.2,-0.06810125444484791,-0.08371210295511433,-0.016417472912907582,0.07709149906723502,-0.02875945978546724,-0.05103565126158128,0.03466185336693578,-0.08581855399547038,-0.08446192242778183,-0.07299435637979784,-0.06729837865813422,-0.06659519263214904
0.202,-0.08224170870676745,-0.09883065113409377,-0.017269015783964867,0.09123327605225895,-0.03500773940955409,-0.05968500739694439,0.03026668561404797,-0.08676800218938822,-0.08055023612700442,-0.06942411480688751,-0.0632393180810893,-0.05997308580855924
0.204,-0.057821473176157476,-0.07546371603543604,-0.017842293437530413,0.06741401489661525,-0.02164113639620731,-0.04812575398075132,0.03299826051575953,-0.0798093200236401,-0.06823105490476317,-0.056742715574567684,-0.04988794002021929,-0.046470795051335216
0.206,-0.001137347127846657,-0.01920925892505285,-0.01788515015510215,0.011240646681036203,0.007288181666935808,-0.018968515840250406,0.046040455226186786,-0.0669993068920525,-0.04961112260056139,-0.03719744640420742,-0.030846676419106996,-0.026563899719709315
0.208,0.04679956841607978,0.0326887319484392,-0.013910772886706406,-0.03868035458199985,0.029393291418949936,0.009988621356742519,0.05817310380308815,-0.06134677392594912,-0.039369228864699075,-0.024761179913562394,-0.019617845421442903,-0.012877071089049352
0.21,0.04830651995604368,0.0432560393997002,-0.005046007271741199,-0.045253415214879876,0.02595637467867257,0.019861559916531657,0.052841739681615534,-0.0736304297348105,-0.04979758795444117,-0.03132734284842216,-0.026162873800088592,-0.01746121918847015
0.212,0.010923243516056797,0.014458894661198594,0.003453901582629111,-0.01277372632173058,0.0035332420523425017,0.009166220221178422,0.030454553390884116,-0.09589328416959429,-0.07328337252970787,-0.050461718924800905,-0.04280654960587224,-0.035426653289479394
0.214,-0.024669482667067453,-0.018482818613998257,0.006265737407098203,0.021555934475984,-0.015464923466011861,-0.006420514754960917,0.008431499771097114,-0.10917533272061423,-0.0899472428005562,-0.0648409850153387,-0.05296121277314101,-0.05089999264194317
0.216,-0.032685953338124754,-0.027986738837778326,0.0050577274744517805,0.031262519337493196,-0.01929526090108835,-0.012084439362724728,-0.00021314795214890704,-0.10537295457436884,-0.09018605651388899,-0.06613675868210449,-0.05043060733867794,-0.05446146558890064
0.218,-0.020542176637532866,-0.01663600646698981,0.004350044777243213,0.020770075450824994,-0.01336820729073175,-0.007279987017504999,0.0013076737211608063,-0.09342859750791978,-0.08221193373156661,-0.060591162886965054,-0.04362437273147585,-0.05036402312065231
0.22,-0.007386764605743503,-0.004835591064950749,0.002679085262737045,0.009021967934484768,-0.006051341803692907,-0.002936867465848197,0.0027312483479886834,-0.08607333975407372,-0.07872533485025991,-0.058003739152465816,-0.04339417995885744,-0.049436120690218
0.222,-0.0018412014605934978,-0.006812480306930685,-0.005324225198998568,0.007064617268737648,0.0006142192264746839,-0.008212540705327691,0.0004119926778846551,-0.08668818205775337,-0.08254715790114579,-0.060674624358559456,-0.05105777611982445,-0.0557710443158762
0.224,-0.00018884301707557496,-0.01899879705505072,-0.019259455005630335,0.011611307501961453,0.007911472607596387,-0.02090270852784113,-0.001081496111225184,-0.08997563091895577,-0.08711770453890832,-0.06370141639670543,-0.059231894015260016,-0.06264771843157328
0.226,0.0023139162264913813,-0.029949590722959656,-0.032248882082771435,0.015304623128197341,0.015320670983386618,-0.03245433361619401,0.0031484205725597555,-0.09073017957517038,-0.08667346659959076,-0.06301207991043511,-0.061975871698681774,-0.06273313018576668
0.228,0.004097438161105336,-0.03606333154134614,-0.03965673935829017,0.01744861345548319,0.020217477921332726,-0.03932031078223666,0.012472475500896148,-0.08906118945166126,-0.08268149262150029,-0.060313204646856904,-0.060726011593794336,-0.057374422565709245
0.23,0.0013058659411903832,-0.04049554070255205,-0.04132036955641003,0.021206954743328853,0.01998776844720881,-0.042701633483710505,0.0209669687641952,-0.08999476988260162,-0.08199629534605699,-0.06048499346874519,-0.06088105820739327,-0.05386559830094786
0.232,-0.007272299466166354,-0.044352341744085526,-0.036913632933067785,0.02745141776491985,0.013170025321065459,-0.04215153505287338,0.02288638295413641,-0.0981773012047046,-0.08972787862202808,-0.06624212218237735,-0.06556035832045547,-0.056941320267427056
0.234,-0.020694200835055614,-0.048804109810694454,-0.02800695637417948,0.03629299825558813,0.0014640145963994518,-0.03890667442564482,0.019620647672645857,-0.11003606026217382,-0.10271491374113217,-0.07553248187033736,-0.07305388083206982,-0.06478720309353365
0.236,-0.03591885647250844,-0.05815990583628599,-0.02195228237733342,0.04823083063338972,-0.009158153145840904,-0.03979249433579408,0.01921808385197028,-0.11485545786720233,-0.11144694214131076,-0.08270756001185939,-0.07894046482643603,-0.07282248880002237
0.238,-0.047085796003125055,-0.07255607158280565,-0.025159811834591143,0.06051049448099309,-0.01273056777537347,-0.04890884374495805,0.02708183153831335,-0.10756200401558924,-0.11075086237062834,-0.08323383825132125,-0.08053604485616005,-0.07854436483229112
0.24,-0.050005020506042164,-0.08465335830877757,-0.034575010076787115,0.06798283015154374,-0.009234769547442505,-0.06056940004700627,0.03943739052519126,-0.09638104742961312,-0.10656739856468801,-0.07947495440664609,-0.08004675082906083,-0.081398412277668
0.242,-0.049893866421632974,-0.09153066198264885,-0.041764892046328266,0.07191341558050984,-0.005388185107116891,-0.06815587318980032,0.04734195243887403,-0.09441917582323762,-0.1095281995720468,-0.08035389060088251,-0.08334423309689236,-0.0829895463725454
0.244,-0.056976640001851604,-0.10009352214060453,-0.04322550013091254,0.08005615330298074,-0.00787870079986455,-0.0733448951630208,0.046999886525416854,-0.10489357418505121,-0.1226663486265415,-0.09143349726726564,-0.09372014099883726,-0.08759360582848387
0.246,-0.06796114127141446,-0.11038738597521242,-0.042411451240145275,0.09020815918309663,-0.01376693471437309,-0.07832306425303064,0.04549269506549017,-0.11685129138728499,-0.13677265310876682,-0.10596636394177658,-0.1058076319520785,-0.09574501705778286
0.248,-0.06583121545783766,-0.1092777919594192,-0.04338036796599553,0.08782020460510592,-0.012685423121763762,-0.07826691631871688,0.05172634620625041,-0.11861643610265898,-0.13991730017200607,-0.1119049307470603,-0.11003457984406076,-0.10105921041690318
0.25,-0.04853305556804451,-0.09421411073837048,-0.0456571244824826,0.07150689316884674,-0.003286851270645926,-0.07112413677147073,0.06175554663056061,-0.11326652047077689,-0.1322229709901117,-0.10805131723926574,-0.10538470316475815,-0.09999125147017518
0.252,-0.038883170434916244,-0.08660435408184074,-0.04774573414582771,0.06345262638243558,0.002548940201981438,-0.06741575057245094,0.06291771705781193,-0.11278114601801488,-0.125382670766625,-0.10420241876951165,-0.10048178462848292,-0.09729679375896275
0.254,-0.05327366736371432,-0.10713065177927956,-0.05388176734251874,0.08144481194433083,-0.0014767554199316513,-0.08084185227287226,0.053335728179266614,-0.11939695234385134,-0.12560159907500607,-0.10465935646166645,-0.09972973563068908,-0.09679303835475346
0.256,-0.0782066258980823,-0.14610127471439707,-0.06789310716332353,0.11340178260290411,-0.0065849228154918095,-0.1083901003707035,0.04537899777398846,-0.12382105310595326,-0.1265728448266076,-0.10334022535273828,-0.09845193520413069,-0.09592486175199369
0.258,-0.08901443040935944,-0.16948524301907372,-0.08045655847602957,0.1301894375837233,-0.004939838050301992,-0.126865824161568,0.048051893763345045,-0.12029963621414445,-0.1226027418988567,-0.09687395262541305,-0.09394080820089937,-0.09292045151364307
0.26,-0.0799336237106964,-0.15677490239142663,-0.07685725105649469,0.11916975109122287,-0.0015395121081943771,-0.11803538523848786,0.05614200602484822,-0.11353547166493819,-0.11806457310037495,-0.09114152070068962,-0.09103011872931355,-0.09081071309259121
0.262,-0.06728853898956035,-0.12668627149900627,-0.05953397590818994,0.09805058677097268,-0.003884234997342133,-0.09351821933588564,0.059185431368804,-0.11115857588039418,-0.11970771323644236,-0.09206416902505343,-0.09452528883904919,-0.09231334539443409
0.264,-0.06679617873718852,-0.11492119454724287,-0.0484799843504659,0.09211829423389381,-0.009554544601961897,-0.08198997050168967,0.05457913606080201,-0.11538120192775686,-0.12750749773224732,-0.09774507567938252,-0.10303384576637524,-0.09664342422674264
0.266,-0.07375762505212717,-0.12779717259331033,-0.05459345898264433,0.10186600646182098,-0.010139437017737299,-0.09178697911773753,0.048828234182324105,-0.1224269587085938,-0.13624070330521745,-0.1024690643716694,-0.11154481822595826,-0.10202726140830626
0.268,-0.07183523349035205,-0.13690299508273815,-0.06564765537883924,0.10543433107485338,-0.003606931292630325,-0.10216845391526251,0.04828328292107578,-0.12790320754024054,-0.1417232387797917,-0.10426742960241941,-0.11666861711002305,-0.10740682525839047
0.27,-0.06085223968488895,-0.12593668392348548,-0.06547991675219683,0.09508890959301933,0.001639132996226536,-0.09686019084485939,0.05164906677849894,-0.13132861097424256,-0.14381357562890779,-0.106099428600087,-0.11879595304043467,-0.11157930645051636
0.272,-0.062293008796673294,-0.11571760695639662,-0.05353531836708475,0.09153166474423352,-0.005318611024956427,-0.08620064841231888,0.05272361242805783,-0.1348876480889671,-0.14503422441850922,-0.1106262350285183,-0.1205877169341551,-0.11434905090059402
0.274,-0.08848535105263744,-0.12765048030679038,-0.03905556306295409,0.11074756275838887,-0.025727910648478132,-0.08565551533952678,0.04901661903924142,-0.1389617995897787,-0.14688455213721233,-0.1155107469566687,-0.12349508356777611,-0.11772474064724583
0.276,-0.1192725553367538,-0.14954341575736976,-0.030039948351039705,0.13621156888515545,-0.04579773051232641,-0.09273368641702327,0.04517498310327119,-0.14041392227938332,-0.14770582284952222,-0.11548896984222648,-0.12562125831284163,-0.12173193275818205
0.278,-0.12451816238452963,-0.15625336090119463,-0.03140032665738479,0.1408466580794137,-0.04823702288033102,-0.0965642237074582,0.04711890548947106,-0.1361906312404793,-0.14490788601204144,-0.10911699346302907,-0.12430140273651234,-0.12229189303981317
0.28,-0.10302434043992752,-0.14650904656736674,-0.04308810087919029,0.1245889870229771,-0.03198323324790363,-0.0963565323383114,0.054640416173708725,-0.1279927546486076,-0.13844361376102715,-0.10108306771566529,-0.12023293240467767,-0.11746149953632042
0.282,-0.08332357105459154,-0.14221684113918295,-0.05853341595748157,0.11336349211743316,-0.014197805612887106,-0.1008010570044996,0.06208219692569105,-0.12110470825018169,-0.13141399535151221,-0.09709486647420587,-0.11671157820284589,-0.11094746304792664
0.284,-0.08758235209722569,-0.15634864308691,-0.06845167059741211,0.12398145434763296,-0.011004603381914472,-0.11287087826009577,0.06465237291825064,-0.11954478590334149,-0.12875372162996643,-0.09935249379983294,-0.11660013280054415,-0.10794502452370305
0.286,-0.10946620704531615,-0.17633202773010812,-0.06656825848800606,0.14546966905623382,-0.022934494227196837,-0.12277333751584406,0.0609388082198257,-0.12477665687801713,-0.13442107920988594,-0.1073432523085337,-0.12211647727660564,-0.11175062983232519
0.288,-0.12733495177578275,-0.18228693723497205,-0.054756768998859826,0.15667683357935988,-0.038049255288181406,-0.12010245999879972,0.0521207127546472,-0.135906169082426,-0.14681990691207686,-0.11857333450127472,-0.13345082796510443,-0.12182605010540948
0.29,-0.1256655116085372,-0.16949677814955807,-0.043820735907991466,0.1485596808944562,-0.042433092191110605,-0.10762813396152873,0.04266967931721875,-0.1479033181923054,-0.15846395612632755,-0.1279086423103671,-0.14536332519831344,-0.13227425455835687
0.292,-0.10494471663316635,-0.14874979401357014,-0.04387882916401318,0.12764765204202558,-0.031180388290152294,-0.09683013427839622,0.0385749537551987,-0.1533067951857591,-0.16312086114126495,-0.1309145691924456,-0.1500319290488685,-0.13646247090897673
0.294,-0.0809096285431151,-0.13461698745047046,-0.05363469681377853,0.10886863124540534,-0.013828978295674935,-0.09469647731571665,0.04207347183550543,-0.14865185127901254,-0.1612462238872226,-0.12859025717260714,-0.14547929496457482,-0.13417918456983094
0.296,-0.07214722327575679,-0.1371630352742808,-0.06464533808784764,0.10606388866060555,-0.0046572709911823496,-0.10135335393478892,0.05170972760865099,-0.13624849619913074,-0.15642472854795475,-0.12549202202000048,-0.13741628995688152,-0.13059089139614316
0.298,-0.08404014792519497,-0.15642988307255357,-0.07179383176151548,0.12186514156984689,-0.00818227483488407,-0.11406417631686495,0.0672590360253213,-0.11816278337086451,-0.14964646241051227,-0.12374620436388452,-0.13275718899861397,-0.12938826735120088
0.3,-0.10799682962989782,-0.18244921581259518,-0.07386052837665201,0.1469472634375052,-0.01946207728609323,-0.1279103347390322,0.08773098791088448,-0.09328589547332676,-0.1408479693908524,-0.1234554731487896,-0.13626628651567926,-0.13231061918771164
0.302,-0.1369319183037244,-0.20950362087283886,-0.07219328749764493,0.17479079920112914,-0.034265690588364456,-0.14125252591063786,0.10592066541900585,-0.06255901439969164,-0.13388668763432615,-0.12835230911458315,-0.15201625124512866,-0.1444685942049919
0.304,-0.17373799037778337,-0.24728866930744384,-0.07345463292524264,0.2118460946908391,-0.05157156992899632,-0.16204299105436837,0.1143455623390523,-0.031014806307356268,-0.13305320851719918,-0.14275757038632392,-0.1799245886843625,-0.17172063757492545
0.306,-0.21710705332015606,-0.3022465126802451,-0.08522480437794668,0.2610010562020793,-0.06708705186350622,-0.19649547047757807,0.11600514805949899,-0.0009006644733099358,-0.13330530769880167,-0.16047880371485487,-0.20979631858063635,-0.20925844089214793
0.308,-0.24344051096636565,-0.34890093683460766,-0.10555093088244502,0.2976651913791824,-0.0696977053244004,-0.2302116657750304,0.1230071103097474,0.03502794553013304,-0.11858010279437053,-0.16311743422705235,-0.22429753762078578,-0.23678988946325175
0.31,-0.21683757983864343,-0.3389075859095099,-0.12207436142819335,0.27934739014048454,-0.04800139771854769,-0.23276938563900249,0.14662526815922974,0.09223466206671714,-0.0704789435077139,-0.13083578510512356,-0.20805757963721053,-0.2294631132744017
0.312,-0.12230973085292188,-0.24532534692636412,-0.12297115743658234,0.18500828773871114,-0.0007843320194949478,-0.1852372211338239,0.1885471646255344,0.18042459578528733,0.020977535766648632,-0.05386456706476049,-0.15370646522107995,-0.17777539518640745
0.314,0.017568304078595505,-0.08670744297914601,-0.10423015786872983,0.0353332018526245,0.05913850442608685,-0.09567122166889759,0.2323520264771127,0.27881759599685707,0.14878234048029648,0.06122754016651495,-0.06485635196087411,-0.09617111192151234
0.316,0.15771410517260187,0.09207652476562007,-0.06549690163864975,-0.12466451577043751,0.10952630347051577,0.012968053762110496,0.2416716134336537,0.3298531812122438,0.2892527592680022,0.19571852955516647,0.045673933632662186,-0.006616613497575419
0.318,0.25902062851678676,0.2509860250768251,-0.007594650149992381,-0.2550420889300247,0.1310784424254777,0.12056293010895017,0.17928241930643948,0.28108627927726276,0.41817131670217855,0.33518788031703955,0.1657394092317327,0.08332919522464313
0.32,0.3148779863419438,0.37295201546702406,0.05880000150706441,-0.34355988776248636,0.12582311498578466,0.21448706240046567,0.03556685981150336,0.13967920081063526,0.5278829423089745,0.4797321502126782,0.29162123248032784,0.17930050468315709
0.322,0.35719060621776805,0.46779043141197413,0.11115587715048185,-0.4115476532008608,0.12139748082821762,0.28888522231315106,-0.1655618528225682,-0.029685380769675605,0.6257755173047663,0.6345078852988597,0.42418422146903534,0.2841230596086642
0.324,0.42572207025186354,0.560933768451553,0.1350977583452901,-0.4922501972111601,0.1446206698797757,0.3483300739834143,-0.3859244298019846,-0.16113479841676742,0.7229837347184171,0.7973615306851878,0.5609960084682297,0.39282949002481476
0.326,0.5263138447826858,0.6670759256763836,0.1400343093945228,-0.595628222068578,0.1926143935490772,0.40392431365380166,-0.5935158683433148,-0.2344937391541819,0.8241780511600716,0.9545928841595495,0.6909077491344692,0.4958919367834259
0.328,0.6247967578027032,0.7707234088336584,0.14510857358593407,-0.696446959263956,0.23849821408406127,0.45780041021037293,-0.772311243429648,-0.2761555822588181,0.9149872414975656,1.0785847664263162,0.7925524702167687,0.5788284949414462
0.33,0.6775622216443816,0.840509458831307,0.1624012134077549,-0.7576863263611668,0.2557215316639902,0.5011969374118117,-0.9182232255678413,-0.3267069407322237,0.9571702236690582,1.1326060834842155,0.842677230449702,0.6262732233412782
0.332,0.6578212761857738,0.8563802220191984,0.1982262744835013,-0.7562971332232773,0.2285836411909531,0.5273829470666281,-1.0232286490698121,-0.41062155717433835,0.904129249509464,1.0857118761229714,0.8271652137046326,0.6300548444442371
0.334,0.5652595224943189,0.8120265122817542,0.24649315830048577,-0.688380575550777,0.15897962934598775,0.5294310607873692,-1.066846093906744,-0.5245378787044758,0.7329959492678892,0.9287449695398018,0.7419820661636578,0.5881281436919911
0.336,0.4299597153442923,0.7080949315232933,0.2779295206503856,-0.5685495882774236,0.0752816485773242,0.4926036442962123,-1.0292658373692525,-0.6382744233106951,0.47385216842347794,0.687317303651128,0.5948830408835815,0.5022207238047767
0.338,0.29474044791117343,0.5615868565806451,0.26670171847692087,-0.4268846963993631,0.01224938737572608,0.41316146680297344,-0.9146267474808614,-0.7202079901753343,0.19856923897076528,0.41886040900077715,0.4144910432088286,0.3859986791477443
0.34,0.18001700871846613,0.4093662200825496,0.22913453862071692,-0.293035700037679,-0.026518970851930907,0.3185697152234705,-0.7586040429257696,-0.7726883193157709,-0.03161298726339188,0.18340363686985886,0.2447244402137501,0.2683908893517644
0.342,0.08005974231859014,0.28497857551968775,0.20466380074738294,-0.1814749599286082,-0.06318978550709306,0.2449974561080724,-0.6050614763929363,-0.8124182850824428,-0.1944298834423904,0.014651678864677331,0.11795879572215248,0.17553188481342524
0.344,-0.005659236057536298,0.1944601758693032,0.20004106051677245,-0.09418918932881132,-0.10254345446954863,0.19763412475800998,-0.47267309899928683,-0.8132711567109294,-0.2842403422504482,-0.08190977914730356,0.036591226111031105,0.1089901683722067
0.346,-0.061702724114837335,0.12193651167304063,0.1837192849709505,-0.02990704439030546,-0.12215699188900034,0.15233827087403767,-0.35090250181948274,-0.7202078642187678,-0.2962661424734933,-0.11747952417660656,-0.01581244235820578,0.05170706514949423
0.348,-0.08084444290174486,0.05410802508012308,0.13494358711359453,0.01425020303493072,-0.10802219455523059,0.09294693850882359,-0.2283785833433703,-0.5328083831633991,-0.24542875020418278,-0.11319805573656079,-0.05145440645166585,-0.004261161151508904
0.35,-0.07792584866131658,-0.006927975287668569,0.07095070706466844,0.04372302404773215,-0.07545749101305711,0.029945449305559126,-0.11567444050639145,-0.33103558215983164,-0.174494185359155,-0.0938506007424976,-0.07186638715451005,-0.047692604122502105
0.352,-0.07262057108406457,-0.04959579751901155,0.02335280715766602,0.06225388674807125,-0.04945308100313583,-0.015286378383452686,-0.03545234420899023,-0.19972019792652834,-0.12465041890161213,-0.07750328173912158,-0.0783009946202454,-0.06786635128402262
0.354,-0.0711378154841792,-0.06559995205479646,0.006464233955488102,0.06929034903526776,-0.040139848874945434,-0.03195162938855326,0.004911769546993232,-0.1513570273469981,-0.10396200121435625,-0.0681475710185706,-0.07704716099662134,-0.07075614599185502
0.356,-0.06980576323941043,-0.05948394590998139,0.011556992768966903,0.06568681057989337,-0.04154914067531928,-0.026477649502620958,0.02301937971338593,-0.13587386437861998,-0.0925296485809123,-0.058948148242280604,-0.07291898300220731,-0.06897842626385182
0.358,-0.06722087630039163,-0.04625177527676761,0.02198631646740229,0.05799686199154612,-0.04500441923402171,-0.014108828823511917,0.0412318742924487,-0.109152324277694,-0.07476820384529131,-0.0452376615447636,-0.06674173067927032,-0.06724133511798878
0.36,-0.06650363972179484,-0.03800657980839597,0.02896841971465565,0.0533838806014588,-0.048156245427084195,-0.005555058686355195,0.06328963049951986,-0.07324296447159453,-0.05779976639603425,-0.03373548029351097,-0.06173097365214912,-0.06561483451077903
0.362,-0.06933071980737292,-0.03689116662799562,0.032422953069333585,0.05403262230812538,-0.051926233980904596,-0.0030594746477163137,0.07857633918598955,-0.0530664926238725,-0.056159463489362724,-0.03439398714982826,-0.06340093579365354,-0.06689758622238333
0.364,-0.07284700496517461,-0.04165376974899522,0.030983980479845245,0.05853783687072428,-0.053425506353713674,-0.007032302903398686,0.08362555132242089,-0.05519130413719156,-0.06855640514216055,-0.045484388060217755,-0.07107776014066927,-0.07239799774014341
0.366,-0.0724567917091541,-0.051923924554977345,0.020316098872882247,0.06414155412046332,-0.04736385824331123,-0.01829663839630207,0.08699714587357663,-0.06267479072474826,-0.07952349515692629,-0.05483156687359517,-0.07723372170605858,-0.07696879952227338
0.368,-0.06658766496663843,-0.06256860565886758,0.0037644437397330783,0.06658871347817566,-0.03504281155310201,-0.031539138045420634,0.09467786603853119,-0.06100065407477886,-0.07994562003977508,-0.05569485681988972,-0.07739470642418719,-0.0754564184025795
0.37,-0.059807509047349494,-0.06523383661172005,-0.005649497608243311,0.06406234822535727,-0.026588014902757532,-0.03651828256736896,0.10198541954053739,-0.053867014802102854,-0.07654637890228447,-0.05404788274676992,-0.07592773453106497,-0.07136946509753961
0.372,-0.06008786274388156,-0.06188493261102101,-0.0017199849023484233,0.06248494727279165,-0.029764540253280798,-0.03216913007988211,0.10229030782112618,-0.051795775259373004,-0.07957570644264847,-0.05761224970182578,-0.07937967503652633,-0.07327522196810886
0.374,-0.06954325803349481,-0.06493795332568948,0.004997476889491609,0.06935888656801613,-0.03949385277859253,-0.03023469469986714,0.09700491426423762,-0.055247246556757515,-0.08791635680742997,-0.06401246908997596,-0.08718425322743173,-0.08325842762801361
0.376,-0.07869962115466397,-0.07733463687111465,0.0016159715528850597,0.08067357498543255,-0.04303446323259764,-0.038408088911209455,0.09359540469598515,-0.05512980179181368,-0.09172838913978525,-0.06512362558198093,-0.09231367624535473,-0.09349983365438326
0.378,-0.07619397799408442,-0.08672949996417076,-0.010837807847579916,0.0840371803936416,-0.03466672862197343,-0.05001239690205698,0.09764916792048019,-0.04511070923738233,-0.08573372689743511,-0.058462064417390484,-0.0891816463233562,-0.09504239970459011
0.38,-0.06550165617070679,-0.08615403379156643,-0.021383310065092993,0.07803832863964617,-0.022774066319700737,-0.055780046070505025,0.10856476473206636,-0.02906978793122889,-0.0750129839185407,-0.049692903366242734,-0.07987595514315392,-0.08810367086649976
0.382,-0.06101496184250387,-0.0833733217439796,-0.023059036038271027,0.0743282746114957,-0.019548947528156668,-0.05524127543219318,0.12013102071306436,-0.017742249552597154,-0.06944113358656097,-0.046749270949395155,-0.07348395297058768,-0.08186518099429242
0.384,-0.06449114294713375,-0.08337022698168002,-0.01926120889641698,0.0761950415887335,-0.024128732359283922,-0.052317521597540696,0.1257449268774073,-0.017944577352469602,-0.07372011086431869,-0.052308503945096785,-0.07663997730275474,-0.08336184559743648
0.386,-0.06239320347001651,-0.07979228734839663,-0.0175586146549991,0.07326928448025778,-0.024647011559882557,-0.04857844706942884,0.12492567664770436,-0.025450431017853894,-0.08234309336102949,-0.06054088473062581,-0.08530822013180932,-0.08938162857981989
0.388,-0.05029041261122404,-0.07038501690906934,-0.020313860148633508,0.062333005295726114,-0.017147123944302185,-0.04502642646622798,0.12326866599932083,-0.030250107472704603,-0.08498578496033841,-0.06300109131301489,-0.08996354175551095,-0.09146608911960029
0.39,-0.041910278505278155,-0.06689811269498706,-0.025345889242946167,0.05643789668509134,-0.010149581845192712,-0.04624733444345595,0.12475634310675432,-0.027290712024950033,-0.07750462232493911,-0.05835832113923896,-0.08738559008577057,-0.08665722321610948
0.392,-0.04958904808647947,-0.08024942871840603,-0.030914467000916983,0.06696445274677539,-0.01109088030467282,-0.05605852158441276,0.12691586011696185,-0.020037081399906485,-0.06653528620224862,-0.05345657291486078,-0.08334778577779572,-0.08066173886703276
0.394,-0.06738468605682721,-0.09893888580149637,-0.031439388250178814,0.08492468425802636,-0.0196370528162187,-0.06576302486388262,0.12590234060903094,-0.014819621365270153,-0.06123629401123542,-0.05401399240209775,-0.08406671583163995,-0.08077510768578698
0.396,-0.08000093806451254,-0.09663845666529622,-0.01615137474188189,0.08971751163175565,-0.03339479674106355,-0.05735836547227278,0.12212432055512816,-0.014294634406079724,-0.06317170857531118,-0.05856895006702148,-0.08926599754312033,-0.08812624247903666
0.398,-0.08369048694345088,-0.07050964968372915,0.013816297535675802,0.07823570920114947,-0.05012829953356259,-0.030165191933314704,0.11817419347812227,-0.0165486207902552,-0.06763035392775538,-0.06291938803359196,-0.09507864445352508,-0.09734018624962903
0.4,-0.08658357706642619,-0.051517144519226926,0.03561680146678297,0.07004165291381202,-0.06269917699411655,-0.010279312877627065,0.11592029688697172,-0.01814769511350691,-0.07054297376400398,-0.06525521709450446,-0.09942404793938617,-0.10178100478400139
0.402,-0.08838498482303501,-0.060062136011642404,0.02865983453788081,0.07522936962641266,-0.06031349019848754,-0.017361695272590585,0.11721091487579563,-0.016507342409909427,-0.0702182471212687,-0.06507245739437445,-0.10179328682195461,-0.09840791535114943
0.404,-0.07725435351597874,-0.07748040551046567,-0.00010558432572611756,0.0784202993560112,-0.039870615129903336,-0.039091991667149155,0.12339938858992923,-0.010803597884942838,-0.06585493227358545,-0.061253390234007936,-0.10091368060017265,-0.08920343554283038
0.406,-0.05241616922503514,-0.07896629057200723,-0.026502422609203845,0.06673472374902926,-0.013223641995568787,-0.05244951741618538,0.13204415629146682,-0.0038514055995219148,-0.058991073121936764,-0.054715922862255593,-0.09694417446383724,-0.08037569775229732
0.408,-0.03404216231692219,-0.06834465586512516,-0.03420888061647733,0.05246371420487503,0.000278860836563814,-0.05172236945856056,0.13600800804848928,-0.001989086608905841,-0.05531024571800898,-0.051383224026019796,-0.09458477045960552,-0.07914564570053037
0.41,-0.04204281090437126,-0.06621011637451524,-0.02421593383960343,0.05598445708549695,-0.009482795137525634,-0.046588706694887065,0.12954856261140188,-0.00843150381989279,-0.05971275589878647,-0.05689841748538237,-0.098445510533405,-0.08734843628911952
0.412,-0.071657274218051,-0.07996416171854838,-0.008766228747230997,0.07819369724963729,-0.03321819306367991,-0.045831315459325894,0.11595688300198252,-0.017703792131856202,-0.0687995422213153,-0.06733628683723843,-0.10557341870699784,-0.09839376390658622
0.414,-0.0959323188950123,-0.0941989992917186,0.0010750831999545905,0.09751571818974246,-0.05064743401404991,-0.047576117098918264,0.10609472195084785,-0.02011634476246544,-0.07220886489826087,-0.07065883637437637,-0.1073694513415998,-0.10289781277391312
0.416,-0.09421949926924889,-0.08989397261490172,0.004073682251084431,0.09409882407386477,-0.05064387829022681,-0.043563741631281745,0.10776190114452755,-0.011254752001814753,-0.06313525532624926,-0.060030354706701615,-0.09927755112705176,-0.09693363811088887
0.418,-0.07438832610284338,-0.06932288298660749,0.005506704381196447,0.07325231517525384,-0.04061273504445097,-0.032498575501981306,0.11781128603213159,0.0034531805658291215,-0.04661443787297895,-0.042464217291469486,-0.08614919525360515,-0.08450560286666474
0.42,-0.060060325071796164,-0.051620180815878276,0.009245483390877603,0.056818958459607584,-0.03504729136424812,-0.022254592483352317,0.1260211140861879,0.013839117195792429,-0.03536053998991082,-0.03141366808657797,-0.07730907979541841,-0.07351706273056806
0.422,-0.0617896629350911,-0.04670978404957612,0.015743468737439578,0.05538462083659239,-0.03952567795490881,-0.017542067757144005,0.12613062558889362,0.015421080916816194,-0.03670992228747967,-0.03296673564586299,-0.07717266087872003,-0.07015960818597448
0.424,-0.0712361423980461,-0.04984970679333323,0.021688410404395828,0.062079436276999564,-0.04765392652196056,-0.016761718204670425,0.12139083520355276,0.012742415099187974,-0.046186292094938006,-0.04221377266841809,-0.08182380866502506,-0.07500045844526922
0.426,-0.077154853900668,-0.05749023956596611,0.019684878403230906,0.06874504483929256,-0.04960824726755382,-0.021100075150889405,0.11835842908203802,0.011369055183053825,-0.054645410215462785,-0.050776852138664674,-0.08460207019883582,-0.08263185765085007
0.428,-0.07626358241081115,-0.06941291970266403,0.006792258542881341,0.07347289706723127,-0.04245350239967189,-0.03248044000459141,0.11747406068170149,0.010711016900648584,-0.05843160969127286,-0.054582105146904814,-0.08348246958439177,-0.08697654917409156
0.43,-0.07247875030089124,-0.07854850681087218,-0.006007305579666072,0.07551738300676798,-0.033974215209335565,-0.04299846149062003,0.11440418432394137,0.008200082079840833,-0.05939310172122976,-0.054584285447050414,-0.08096943346222642,-0.08671328932574109
0.432,-0.07197050936516243,-0.07563460235171252,-0.003432309097389357,0.07408438675991262,-0.03492424060809193,-0.04078600793095408,0.11006136258815921,0.0073584865432305005,-0.056491882488977484,-0.05144541937984011,-0.07717657261923197,-0.08286208467850575
0.434,-0.07537860887157792,-0.06186713473958179,0.01376732078765864,0.06975820336463788,-0.04528672282759031,-0.02634517651977685,0.11134664793552704,0.015095564684206133,-0.04476964966633254,-0.042829832117140705,-0.06817699202804109,-0.07514050798416136
0.436,-0.07420535784535316,-0.045202329891241996,0.02916994464159909,0.06130674303269429,-0.052661780232733,-0.010975250140515046,0.11955984707280727,0.03052451882347617,-0.025757096531304598,-0.028734689483424225,-0.053850921364386836,-0.0662863860066575
0.438,-0.061936722425620566,-0.02912488558295928,0.032940736801623016,0.04670155727631171,-0.04865280688898715,-0.0006484581176068574,0.12637064293342548,0.04373346903061467,-0.010584449656664285,-0.01548468404013957,-0.04170606607842747,-0.06400120605415444
0.44,-0.045629720820595826,-0.014725282261173511,0.03105237880414089,0.030495572185495104,-0.03943616010485002,0.006772432395372636,0.12504055614759882,0.04793695368473447,-0.007321444345492406,-0.00977528760493868,-0.038764216221521576,-0.07110495211561288
0.442,-0.03661311790364771,-0.006448288262975943,0.030377306264447776,0.02149641089936197,-0.034233840485041925,0.011237727873702816,0.11854295629276376,0.0460619105109294,-0.012477886468616065,-0.011981329937139245,-0.044080875469316376,-0.07983021089142744
0.444,-0.03478185018197328,-0.006616889339322789,0.028615409821867933,0.02102670288279797,-0.0324527724844472,0.009647886070383518,0.11385249576576312,0.04392528615874601,-0.019071659547210556,-0.018281594628190102,-0.051857452496225746,-0.0819406948864175
0.446,-0.03178439214675142,-0.010111819619572023,0.02250269031206155,0.021852349121638272,-0.028453700672909695,0.003650547150935184,0.11470915170442095,0.04408519435050167,-0.024488626450790172,-0.024630594510496075,-0.05713684154073506,-0.07787350983619946
0.448,-0.02483416591868671,-0.010625743454415425,0.015203277546734123,0.019067531214158242,-0.02179467776553127,-0.0007909194564351519,0.12046797347504241,0.046706649919599746,-0.027212347224007095,-0.027163712950136205,-0.05775584934622572,-0.07272088687978777
0.45,-0.020138544073345265,-0.008420004799127004,0.0123715602832821,0.015826800737526146,-0.017926955616169225,-0.0006828383247990733,0.12606802637682596,0.04977087307802925,-0.025373633593856918,-0.02463595446790504,-0.05562675920211471,-0.06924846151443582
0.452,-0.025063660706431866,-0.009704982280629175,0.015306318595706206,0.019016107691723596,-0.02149886288975129,0.0010226436361341828,0.12576959062754997,0.05060316259854529,-0.019892082296682746,-0.019898165378730865,-0.05424898776319974,-0.06562681620875242
0.454,-0.03935672240831315,-0.020631914014423897,0.018027281511382956,0.03184239716832464,-0.029971488179562317,-0.0021991019266851177,0.12207688529054296,0.05278882302867075,-0.011255303043730867,-0.013581685942060096,-0.05156735418191416,-0.05767229060687393
0.456,-0.05307522773780887,-0.03895252774880499,0.01319866439839195,0.04822991807010259,-0.034678408355056874,-0.013280038304727378,0.12478165621461099,0.06511838311157656,0.002960918246900754,-0.0012413618656955646,-0.041734073103463436,-0.045306738051836146
0.458,-0.05458088679393726,-0.04921675572393056,0.004722230934224866,0.054324762288815,-0.031132760616515015,-0.022899284812460844,0.13574511953002838,0.08745708960492461,0.020444821384492384,0.016643021329681627,-0.02732532091004937,-0.036068146037083935
0.46,-0.04170282988518837,-0.03411230313131672,0.007469961811554713,0.04018176463613749,-0.02555904231425528,-0.014682265910014456,0.14302200030477857,0.10581645387291087,0.031402647762744804,0.029104028024902327,-0.020722217110843984,-0.03719703884910032
0.462,-0.02297725144176959,0.004019573092073141,0.027201146051564207,0.011276843121701715,-0.02588499077686244,0.013840847181880318,0.13712803940931015,0.10839316938338447,0.030293708473122332,0.0275140128415589,-0.028680527204449555,-0.044798388272568865
0.464,-0.008496897743426025,0.03852059775569344,0.04718309115087352,-0.013920471353924817,-0.02930987490979764,0.0410757374454168,0.12569222800396182,0.10053499689861742,0.02432829296341241,0.01852175992961485,-0.04230983723081893,-0.04695180775723411
0.466,-0.0027595353411584964,0.04158055668325194,0.04431864636785454,-0.01907922429169266,-0.02592183857820024,0.04104976422996112,0.12356436869696562,0.09766444156295169,0.02516177813926781,0.016698248116216896,-0.04648997550037138,-0.037619723157048014
0.468,-0.005312135258358283,0.013820466744795014,0.01903531921195661,-0.004411694543783753,-0.014666342970306116,0.014363697655325918,0.13249403384464375,0.10632419272247488,0.03505983660437656,0.02703826069158411,-0.03646279343530459,-0.023089121480027612
0.47,-0.012740366777651089,-0.013525980450821637,-0.000820676207589897,0.013034374951160797,-0.007463420103960379,-0.00884919524131763,0.13946433427712657,0.11804698866904804,0.04503636112245193,0.04056227127458809,-0.022430731731392334,-0.014787958206077898
0.472,-0.017084945713862966,-0.011250648622408254,0.005892034952495852,0.014755393607612457,-0.011747516863664247,-0.003600879695810081,0.13472800529259324,0.12236210785329961,0.04703364090526469,0.04681589733040642,-0.017264690023462835,-0.01746068470816985
0.474,-0.009559296317418423,0.01736708553071389,0.027093779474847545,-0.0021732423109887063,-0.01826004961117694,0.0215253622053896,0.1235399835853591,0.120748575546956,0.04481518196847608,0.045988024114442416,-0.02143494257269704,-0.02485454282765282
0.476,0.006476295482376932,0.04542573114885097,0.0392965107583846,-0.023244294385076948,-0.017070226412563005,0.04109329120240922,0.11759833334383393,0.1238439083212592,0.04904240953681438,0.046625725403723506,-0.023814191207983306,-0.027401229078304837
0.478,0.015821332765060665,0.056159383855958034,0.04087121652363287,-0.03334644882018106,-0.01396901892058693,0.04655301863041856,0.12046423943385468,0.1371540757378563,0.06293073391708875,0.05402592035830469,-0.017028747902400658,-0.022614981140401804
0.48,0.01282955770970129,0.05701476420397282,0.044759505197140045,-0.03357191352490637,-0.017650859726839337,0.04862825891363828,0.12557621038337727,0.1546205435879586,0.07767489076658714,0.06424365453158563,-0.00599445099126387,-0.016020068563073094
0.482,0.009140575954313775,0.06276851152667455,0.054032056112458475,-0.036119493095094136,-0.024282299728003557,0.056215671949464245,0.1259490771483602,0.16632586521106815,0.08242279925927705,0.06957594277024952,0.0003735683318918323,-0.013409779354586015
0.484,0.014719895120138212,0.07522979043910724,0.0606277984290674,-0.0455586360324269,-0.025229091628986875,0.06599064431944049,0.12199264161095132,0.1691402526628029,0.07640670961825881,0.06809713954239173,0.001132929724961537,-0.014443343105036557
0.486,0.025525481985556035,0.08089751469866953,0.055283117363946914,-0.0529838884073807,-0.017508678337412792,0.06643253454078384,0.11986917481038672,0.16906472327320118,0.07049418520734703,0.06653205557755444,0.0039884512069467285,-0.013383768080810304
0.488,0.0321650143364777,0.06836810984127543,0.03609896378930812,-0.04921902144031155,-0.004427765198199903,0.05067680373905567,0.12310278260552288,0.1732803859439748,0.07504751828459669,0.07226446108119175,0.014503080866511394,-0.005738401224949142
0.49,0.03082578772996118,0.04753526794855014,0.01670056443365477,-0.038243900301517496,0.005243647308484694,0.030416488779553053,0.12717350364333524,0.18141781344453597,0.08743257634830247,0.08367533407547857,0.027716036460828902,0.005522900313741103
0.492,0.026202315796037556,0.041505297141679866,0.015352697225158893,-0.033361300680956454,0.004367555416582297,0.026699991678726994,0.1250262835839462,0.1884111526145878,0.09701823503140866,0.09286127773858738,0.034438142903464,0.01246963182976498
0.494,0.02733962500071804,0.05866095717807228,0.03134998132304211,-0.042110896475335904,-0.00260676188179651,0.04358733750187603,0.11665738392901696,0.19409219557678276,0.10102897869966557,0.09734055345503731,0.034448811296334675,0.012576156108779412
0.496,0.038279271964522715,0.0853539735058303,0.04703970438119236,-0.05964711533099643,-0.0050494240194035415,0.06499304820894304,0.10872988771641609,0.2027720156273865,0.10687884360833183,0.10248587042639958,0.03648855324953583,0.012303061536894908
0.498,0.053650178188502734,0.10587277142765714,0.05206953787930235,-0.07656001971490636,-6.569685344518791e-05,0.07740813803268227,0.1055194250231103,0.21443808184702015,0.11868417025010497,0.11168177536758414,0.04486860299640972,0.017265909402607235
0.5,0.06618867463027171,0.11755873050284643,0.05103937407179201,-0.08872255836659687,0.007039090956076537,0.08208646311914626,0.10548195501490926,0.22489103012859585,0.1309471686379178,0.12181351773826853,0.055152287449294006,0.025327993749131816
0.502,0.07431390935191949,0.1255247175323351,0.050798489552995096,-0.09764052093552213,0.011969752613774634,0.08584935708231893,0.10630513734720483,0.23354132203215128,0.13771213960094036,0.13013891416780826,0.06369105309744943,0.032897216170078444
0.504,0.07967138572496592,0.13383853341258456,0.053918295051318656,-0.1055194955729764,0.013563314650266571,0.09243508546600059,0.10757691904753054,0.24306061297304019,0.14009926633005326,0.137737576503363,0.07157300506847737,0.03991605906199623
0.506,0.08378474791563076,0.1444642581819676,0.06072470465086186,-0.11375768263734588,0.012034496110296704,0.10242230181736055,0.10808404463249317,0.25308646754383846,0.1426456976299548,0.14511332864190368,0.07913451789773872,0.046189221778169885
0.508,0.08859774324097744,0.1558680965424873,0.06754266145836023,-0.12238777758651219,0.010498589466665051,0.11227631411734043,0.1054372885594169,0.26070142681977543,0.14783355464979697,0.15145298348867292,0.08475755451445585,0.050690684334275815
0.51,0.09382345033855044,0.16327375369033406,0.0698399635727144,-0.12878794196907484,0.011608940454091872,0.11707126763937785,0.09900520461691874,0.265443472278133,0.15581993979715208,0.157994430568838,0.08810802125443576,0.05393998201614539
0.512,0.0954802227501139,0.16578556924555626,0.07068397804181925,-0.13063301482466433,0.012060384643299907,0.11830835732669975,0.09059186023457015,0.2703299111987668,0.16643034015404756,0.1671660441867583,0.09024678120855563,0.055780980407696294
0.514,0.0925867257831473,0.16818441838187026,0.07579837668164836,-0.12991020558802374,0.008275927684844557,0.12157798584765005,0.08289389910640427,0.27913104729861543,0.17971928527668002,0.17942404445091906,0.09347386310289524,0.055770909965124106
0.516,0.0911883030059479,0.17442246814951315,0.08320589978680804,-0.1315304187246902,0.0037903524574649343,0.1279748767222049,0.07771899349672552,0.292458028378266,0.19434219773546305,0.1928131150400825,0.10135871972709856,0.057623988770005345
0.518,0.09691016621664272,0.18454191648894328,0.0875145014437146,-0.13853667758578897,0.003879607037982801,0.1350768843622889,0.07415069408476245,0.305924464652013,0.2067360537592762,0.20430577926144294,0.11407155388603803,0.06580609806028373
0.52,0.10705460478087479,0.19607992600866286,0.08895521399335758,-0.14904460192678107,0.0076038854065486865,0.14185151118841655,0.06985519513275788,0.31526849979528726,0.2146759499704165,0.21206330237102666,0.12599935308829058,0.07792496825956456
0.522,0.11402041955850253,0.2062157865017229,0.09210180850738711,-0.15812911325690507,0.009659942369557814,0.14866880150259976,0.06445868878316377,0.32194926041335703,0.22007476747933977,0.21712355457291485,0.13255913346324955,0.08689194641402072
0.524,0.11570787947443754,0.21487955662821748,0.09886653236080217,-0.16392928113863495,0.007781546047666461,0.15612372464533775,0.05848533235348138,0.3289351611272465,0.22547230690551642,0.22181337184685446,0.13573458194966603,0.09014948894854417
0.526,0.11903222766642846,0.2248467817412652,0.10528347341232662,-0.17045908978999538,0.0062941621331936886,0.16419318703041794,0.05093919838774769,0.33506414794928924,0.23122702522645144,0.22765507918528477,0.1401471050550001,0.09236939633381143
0.528,0.12983973140125055,0.23632773365311316,0.10601280975735766,-0.18112473087197298,0.0106373493435326,0.17079419662846415,0.04163989256474534,0.33873654742105763,0.23745942443831725,0.23544124584732867,0.14725175466204152,0.09842051799648532
0.53,0.14360558983153937,0.2455277209157111,0.10184088082270143,-0.19276732009360145,0.01920462281845203,0.17370095015326642,0.032847888158011256,0.34228741541512514,0.24481435802469564,0.24518932000184815,0.15519432678726877,0.10722657615606979
0.532,0.1525368344839352,0.2527545038210834,0.10053775617391363,-0.20164671811334972,0.024719342835801145,0.17601275675312028,0.026211747901733865,0.34881286968786596,0.25414830161790164,0.25635420328773106,0.16288045110287516,0.11521440158483445
0.534,0.15590274089764986,0.26432369191113714,0.10877523087516386,-0.20951661639657257,0.022864220215274053,0.1847663468453254,0.021135581461581846,0.3584147732271535,0.26711662422339005,0.2691373695876039,0.1725563260040257,0.12262655866167113
0.536,0.1570017365009166,0.28018072449081116,0.1232537429655822,-0.21760453891411294,0.016392014464614146,0.19973792863976866,0.016967164313909048,0.3694207601499869,0.28407598163163805,0.2842478420174286,0.1871136519323172,0.1321456968339944
0.538,0.15704628519016717,0.2895086846175386,0.13231838958835448,-0.22189941926444082,0.011907733201656712,0.20979077950170982,0.013918070734786197,0.3802125942759091,0.30121802221046595,0.30086549826884157,0.2053026373745777,0.1433931906140808
0.54,0.15746986741504596,0.2862157315384662,0.1286534882346262,-0.2206589068209786,0.013897249144147339,0.20671608708481565,0.01093007895246772,0.38885654828161037,0.31275672752999756,0.315524198369218,0.2212141426382952,0.15232650181741533
0.542,0.1623608687385396,0.2812222244134826,0.11899144201562993,-0.22111435855403447,0.02064703636339693,0.198602240412904,0.005446413445910138,0.39385211968804457,0.31659735547823664,0.3244705459776429,0.22949646449892128,0.15531310517181252
0.544,0.17350182796972563,0.29209911200596134,0.11886516093164347,-0.23259341707762524,0.02542331290818197,0.2031601069852825,-0.003501124045922963,0.3957143128976553,0.31655146041001814,0.3278220205671767,0.23086125139778538,0.1531244842319827
0.546,0.18646916424362256,0.32191568447853086,0.13554300264421534,-0.25435450139001964,0.023324400309526115,0.22668941413926993,-0.014311714967758214,0.395803842863289,0.31823006019093103,0.32966732133994575,0.2312600113948069,0.15168420404068025
0.548,0.19453984309963027,0.35207878295070527,0.15721264497449422,-0.273623826405086,0.017054261220730286,0.2533956622096461,-0.024323738538035145,0.39538869020217654,0.3244695546994524,0.334404375258146,0.2362600057309619,0.1571815877954942
0.55,0.19395840041973847,0.35954508440582467,0.16497399763119547,-0.2767760514561124,0.01315999716321347,0.26117946824968336,-0.03060079089769061,0.39701881380853454,0.33568875700181244,0.3446513119165287,0.2470124221520271,0.16948389135528408
0.552,0.18656616668930667,0.3416388798907686,0.1546641058118882,-0.26342649391840534,0.014163199680591654,0.2465948706639831,-0.032253957822596394,0.402423500813916,0.3506882302968665,0.3599001877978055,0.259656666947977,0.1832125863398628
0.554,0.1803344196836323,0.31943790951248724,0.1392734666696912,-0.24858450983678984,0.01834449181494278,0.2272420969214463,-0.033674572296464866,0.4080962698993889,0.3645538956767936,0.37450739160880336,0.2681323328601322,0.19392961221308172
0.556,0.18423478385618047,0.3162064432285712,0.13251322437344165,-0.24882671890146169,0.023947196643882812,0.22191221244880846,-0.041173106186130154,0.408550918442562,0.3711082054582532,0.381518247842509,0.2700766306997644,0.1998527509644429
0.558,0.19969549276267284,0.3363393208296894,0.13691847909538488,-0.26689431778857103,0.029875341517226248,0.2343540147437779,-0.0537040257204972,0.4051573259308165,0.37129233209997337,0.3820783229050322,0.2705561462444876,0.20221256926665315
0.56,0.2183362639956868,0.3633518612108084,0.14466555153834995,-0.28978983416765297,0.03534042604579119,0.25250781091641505,-0.062343713162263135,0.40517400316079577,0.37252694326586944,0.3844958031936171,0.2768076898972654,0.20555942921532086
0.562,0.22898512874989022,0.37675457687561625,0.14710147429469594,-0.3016128622888183,0.03960323386354664,0.261256189933582,-0.06316636455122741,0.4094175861055017,0.37615008725603494,0.3907483375064719,0.2875199933858214,0.21143083580750882
0.564,0.22769352126619094,0.3734947233370159,0.14531235145445895,-0.2994852745745017,0.04052506689239291,0.25902407999835675,-0.06362391832307623,0.4089939293761455,0.3749449027024454,0.3937176267879917,0.29235878359352235,0.21444044547236138
0.566,0.22098535247344397,0.3691222436763725,0.1478827709911134,-0.294689723885881,0.036274565353058105,0.2578249808744247,-0.07102933469327072,0.3989309304011031,0.36670053420901305,0.39029835309552424,0.28633586325722166,0.21103032496731072
0.568,0.21795937454674155,0.37532712623976433,0.157026323436074,-0.29678580855942416,0.0294427774450413,0.2649485632798178,-0.08220576455711473,0.3862009232258949,0.3595893979154475,0.38638835228867835,0.27826071453585144,0.20644293107906386
0.57,0.22071784689264687,0.3855576431472293,0.16417156229042235,-0.3027398418134532,0.025916849842051528,0.27345755872570027,-0.08923867351855898,0.3790926074812756,0.3609635802327232,0.3876832820510825,0.2786737451652878,0.20743706295074532
0.572,0.2249101097654596,0.3881780764004392,0.16232024615624674,-0.30516987606323465,0.028496108048679608,0.27443674438067533,-0.08931043030022813,0.3768532672355088,0.36908443920259115,0.39379706464512565,0.2858459292938847,0.2132507133586936
0.574,0.2271451858423002,0.38443354101777777,0.15632570108693525,-0.3043135013768596,0.03363099482761504,0.2704142714538439,-0.085812770286427,0.37403502978053405,0.3774136861960618,0.4013023858454981,0.2909923646208797,0.2185163940898138
0.576,0.2273592927068145,0.38381902614919206,0.15575032660815402,-0.3048717324393807,0.03533056985448814,0.27006362737552947,-0.08374506583462922,0.36894474937726646,0.3821220204261046,0.4078305749916348,0.2917135244705581,0.2219703613041066
0.578,0.22436895282431799,0.3866954911116508,0.1619182676882685,-0.30502057380509306,0.030793060636943363,0.2741792324055113,-0.08514389132861389,0.3639322691970574,0.38374848279608115,0.4123970262653884,0.2922403627049736,0.22671754713171718
0.58,0.21549947219169094,0.38334958699748656,0.16762325288983124,-0.297946569630401,0.022353399539885185,0.2750122932760699,-0.08791390522465807,0.3595421369788167,0.38246041152829313,0.4126859188129551,0.29369168477518726,0.23241457388882641
0.582,0.20341067732458867,0.37041727186989526,0.16689321140140156,-0.2844561466314917,0.01585080553453541,0.2684181234216796,-0.08996875596861156,0.35142049041837464,0.3746682696413379,0.4042468917500792,0.29101725769949033,0.23266183304330687
0.584,0.1963501023744595,0.3577046336572573,0.16135208121224742,-0.2747695080605201,0.015449308677983411,0.2598410577350253,-0.09233043969494234,0.33477256081767987,0.3581320556575534,0.38536488091833315,0.2796905845858236,0.2222849920008082
0.586,0.1969988103096665,0.3545297523961712,0.15756675137433113,-0.2745442705585924,0.01845162565100027,0.25646530978957294,-0.09541264361941162,0.31158904468834087,0.33816073658882223,0.3619527811742422,0.262759355563735,0.2053045497437015
0.588,0.1977460261504984,0.35644706128352976,0.158605820783847,-0.2766988469249124,0.0186398653450655,0.2572743870452248,-0.09610293766989465,0.2903168769838703,0.3225445332237404,0.34339061241154006,0.24878800166863327,0.19227077035210335
0.59,0.19153985235692925,0.3514661496674064,0.1595873133940669,-0.27123372037153665,0.015145591681628403,0.25431198940236194,-0.0917542739845038,0.27628518737205976,0.31209606625967495,0.33301236415730096,0.2418530489678304,0.18852571249175504
0.592,0.1809891075888544,0.33463982243876583,0.15320286408482311,-0.2571289218660581,0.013308821906100277,0.2420624289257711,-0.08360203589320889,0.2657973777698689,0.3022673210465229,0.3260331299830809,0.23763099859875564,0.18916251029340286
0.594,0.17337348147253395,0.31243104050570925,0.13881784616600087,-0.2417325160103371,0.016742562236213673,0.2236837314806035,-0.07416044075626521,0.25298761711282136,0.2914086800442148,0.3170439186301578,0.23144727173102242,0.18699088568060274
0.596,0.17191572633294552,0.297213941540403,0.1254878764127482,-0.233249383062581,0.022222977458577355,0.20989090825651743,-0.06416331583840382,0.23859556555619107,0.28174382409117277,0.3064328291729539,0.22463863098437756,0.1808604369105701
0.598,0.17418871044513956,0.296628050701688,0.12303039735984929,-0.2341892439323928,0.023937992623127898,0.20903641343617538,-0.052863084159644906,0.22794876126992647,0.27419161624800964,0.2979336174437417,0.22008210560720773,0.1747078734870768
0.6,0.17646931585778736,0.30357723647227475,0.127788048991567,-0.23882479248791247,0.02222100674659471,0.21510825358823685,-0.03945916407194008,0.22281555167250594,0.2663600700123952,0.29172536672627764,0.21638570674679236,0.1713820175393568
0.602,0.17603119141609902,0.30160301810359014,0.12587095176255825,-0.23750510871570069,0.022658312943663557,0.21281690419138033,-0.02568580256393387,0.21720179835485923,0.2542774609980816,0.2818425660685865,0.20852056486277618,0.16804948503014255
0.604,0.16733424456861162,0.2820385991222322,0.11445356430299125,-0.22327945156483736,0.02377830524173352,0.19695414736714198,-0.017419090976930722,0.2011987899399228,0.23357492845074287,0.2604120356792546,0.1911647480794346,0.15742107335012923
0.606,0.14301981447544393,0.24865767159526755,0.10518895043113323,-0.19449921682487067,0.016094534733753857,0.17557338785620477,-0.019200242797653307,0.17084828717029363,0.20184898386840597,0.22520996323501588,0.16286593939029723,0.13526318811323296
0.608,0.10583114569069904,0.2081786218947087,0.10206437193860904,-0.15594378240487977,-0.0008761318680590572,0.1537068432175452,-0.026846159475768145,0.13401072587389817,0.1636110846220744,0.18392741678450616,0.12967893137425948,0.10644878839418188
0.61,0.07325799419821916,0.16773948494820096,0.09429782652800238,-0.1198418502111139,-0.012821705677608377,0.12927451808030835,-0.029734545913142438,0.10454102083056417,0.13099951660544384,0.15033793874463489,0.10231984457964934,0.08171125921721964
0.612,0.06205777691802869,0.13991778509752203,0.07759315384189228,-0.10067985151672956,-0.009266553512003511,0.10683057822419263,-0.020224067790698182,0.0910779385018197,0.11517404919978304,0.13461843074287375,0.08807963289703513,0.0690074411669597
0.614,0.07012445792545302,0.1344057023925071,0.06402516755216456,-0.10215992954099345,0.0022639248252292452,0.0976738346478315,-6.252259250193626e-05,0.09121638479238355,0.11496716650097193,0.1348676466225934,0.08568644865719918,0.06786429282357229
0.616,0.0801457069774908,0.14186997299702483,0.06166533808437403,-0.11097639550813158,0.008773816379228614,0.10097711694482346,0.02045724800226601,0.09430809446820979,0.11611530614012038,0.13740240317889207,0.0863104368425706,0.06967535063787755
0.618,0.08040271986943563,0.14217868117883012,0.06188140560838294,-0.11101900331249168,0.008773211284261754,0.10192337347376829,0.03129153878261285,0.09051311880522198,0.10520399185788101,0.1284061239967776,0.07983972252151639,0.0638374579422637
0.62,0.07313639099445111,0.1299951941805817,0.056970685519437195,-0.10049217498904855,0.007125970694792913,0.09369157750851043,0.03241320014142572,0.07853089079780312,0.08293089447942326,0.10671332809605043,0.06258773227346329,0.046614068152830666
0.622,0.06320009312400474,0.11562953646147674,0.05254938864958512,-0.08742190689426613,0.0033762615744491915,0.08408960099646429,0.03148178206001676,0.06280349357558318,0.059744414543238866,0.08203977030388987,0.03918306004026418,0.024932848152636876
0.624,0.05036937374505451,0.10350593769137158,0.05340959418758032,-0.07476504408514388,-0.004354394715617707,0.07784523113957015,0.03237152248502667,0.045429739147665654,0.04121107728899254,0.06138680523875737,0.017491683344267074,0.01008450802268952
0.626,0.03447838563002942,0.08750965399231946,0.053433720639415094,-0.05929021163377943,-0.012283625655819842,0.06923853094898197,0.03262808866862993,0.02650995468115291,0.02410901151010784,0.04360552639655578,0.002682482896095319,0.006656105076482656
0.628,0.020169815844279668,0.06554028372270174,0.04564591411142158,-0.04143167598602519,-0.0147112053309536,0.0539848711662978,0.031015652186602682,0.009052224603218065,0.005120782076466642,0.026250413720874416,-0.0056398250953694695,0.00824839187775656
0.63,0.013794635117019666,0.04483835706683638,0.031038551445691995,-0.02789020446333161,-0.009775833941636147,0.03622343209834113,0.029285917993135045,-0.003906409035379897,-0.014251460026057152,0.009708366516412608,-0.012280286549856414,0.0050720372904129556
0.632,0.016183414300173293,0.03296438787700745,0.016656065431459713,-0.02331468666111091,-0.0009557333122101123,0.023290915855642046,0.028044584417133703,-0.013983182992878977,-0.031262223446363355,-0.004941007138070964,-0.022081145886772954,-0.005889036631008737
0.634,0.019764337318541454,0.030015426414351416,0.010307504940433537,-0.023929132596536548,0.004320857860880754,0.019020721573111684,0.027645096705806935,-0.023698897240697226,-0.044784086509356925,-0.016564250274919916,-0.03597036915584746,-0.02011668113000627
0.636,0.01607548085799498,0.028878067483336545,0.01317112820866635,-0.021730079123989107,0.0013724568589113895,0.02016941306443954,0.030168145641547663,-0.03189367498507151,-0.05454554790323594,-0.02409515122095293,-0.050145818568648796,-0.031705212252030775
0.638,0.0055752671469730605,0.022500907422011912,0.017408647457084363,-0.01334549844022996,-0.005814121900206417,0.01910652577653412,0.03627001403863108,-0.03642488956569329,-0.06023542656344415,-0.0283812619868357,-0.05897299070387572,-0.03730048257676631
0.64,-0.00340131122522456,0.011897168832007256,0.01556081701592555,-0.0032116886975249743,-0.009458672543193077,0.012447568631814345,0.04349722918086753,-0.037992307757200854,-0.06173002127423152,-0.03171971059102744,-0.06038938296918252,-0.03735623978746818
0.642,-0.005550141384382347,0.002938397212339696,0.008433299373942849,0.002934312784448389,-0.007348355935764463,0.0036354224678273052,0.04941104504197085,-0.039517536126345995,-0.06056025439489915,-0.03577697956298149,-0.05865792022817166,-0.036297771340417846
0.644,-0.005625514854197099,-0.0044930495149849165,0.0009688400022807411,0.0067167013525620545,-0.004218855922997961,-0.00426096203315922,0.05323423265674705,-0.043821789135215346,-0.06097281723236062,-0.04161987312832259,-0.06030604610286827,-0.03853799372668887
0.646,-0.010556931092232259,-0.01572825309625831,-0.005226937754196821,0.014070101397950565,-0.0038328286923774903,-0.012614929090532634,0.05426212834904254,-0.05214691976595105,-0.06726846737681874,-0.05013804981037429,-0.06783942763564563,-0.04369762682077412
0.648,-0.0172458168012527,-0.029243663721615628,-0.011938364160123224,0.023559970801582255,-0.003386031164064067,-0.02195393614211833,0.05134672658217258,-0.06375464305348645,-0.07975602717050256,-0.061325915491533815,-0.07905139786051604,-0.049319329340824565
0.65,-0.017740705410889228,-0.035829977183801355,-0.018030622829130306,0.027102486749952803,-8.460095615221838e-05,-0.027821315543134117,0.044425075335672734,-0.07649394709602629,-0.09487979739996245,-0.074015862212006,-0.09071608747722393,-0.05608315449709287
0.652,-0.01251655369289493,-0.03165433747762858,-0.019119903602442395,0.022502792344851145,0.002777690775145617,-0.026276751790457607,0.03664347046966078,-0.08675009418273073,-0.10756312526723744,-0.0853322041424563,-0.09983462696584273,-0.0647098365630741
0.654,-0.006532648219696101,-0.023405311395760717,-0.016775141493532653,0.015218402571553342,0.003732583023574876,-0.02112925097928554,0.03419002301909292,-0.09011964391611194,-0.11244529209920376,-0.09017660374294192,-0.10294721203633475,-0.07068192520268152
0.656,-7.146722944047945e-05,-0.02086360397349814,-0.02047864192225812,0.010722925783675027,0.008184283452792547,-0.0217583868341707,0.0409393217428276,-0.0850051066586551,-0.10679732329683476,-0.08463499625147976,-0.09817559290918841,-0.06843461078839433
0.658,0.005449322193214931,-0.02867497196724938,-0.03368991654997827,0.012420265672890887,0.017321047751571467,-0.03225883382296597,0.05385208367075398,-0.0743152009624471,-0.09400152738440884,-0.071598852378324,-0.08827584740404186,-0.05920932955412556
0.66,0.004764775666132639,-0.040608113679208746,-0.045104133636621364,0.01941064829545403,0.02260292887004369,-0.04399319711124435,0.06556796031826512,-0.06334193901485854,-0.08238464301113758,-0.06073880452031623,-0.07986848014364964,-0.05066099079268826
0.662,-0.0003834572898158149,-0.04355001857371937,-0.04319234693655894,0.023666590495664205,0.019041667638789214,-0.044679382686890055,0.06963320714206486,-0.05818192133836868,-0.08002759320741681,-0.06083945718092377,-0.07861195216252075,-0.049326420556827094
0.664,-0.002100673540477589,-0.03417390260082498,-0.03224822971573815,0.01947126926134979,0.012754718560136736,-0.034807389995366846,0.0642463545854059,-0.06300277148103464,-0.08960598437923042,-0.07250194222813718,-0.08502254392706307,-0.05530496938634414
0.666,-0.0012299739840165506,-0.024577204978740066,-0.023567110440766075,0.013522691664193207,0.009150687969606329,-0.02589868217332687,0.05373684552451161,-0.07572442347320155,-0.10654683657183175,-0.08900634477721357,-0.09507825623186353,-0.06414208479122424
0.668,-0.005816024068655036,-0.02535701384000908,-0.019951258333296737,0.015529400143487639,0.005803098231922651,-0.02416801676500096,0.044982409913862494,-0.08892321585604605,-0.12193633153887132,-0.1023601185033246,-0.10360063622032933,-0.07132912033729591
0.67,-0.014243424751701383,-0.032116700537248015,-0.018563905802191732,0.023039588136435436,0.0017151885612756575,-0.025866435789778097,0.04223730334364497,-0.09545002159996106,-0.12783463900515976,-0.10710843687125758,-0.10648213143095822,-0.07368042593583594
0.672,-0.015527463918377324,-0.03352058052865273,-0.018668954900238555,0.025055895563794003,0.001332564909955123,-0.025681858920830667,0.045629459179732434,-0.09312908622527344,-0.12244581960210299,-0.10221831087637843,-0.10295152005422036,-0.07094295767688094
0.674,-0.007511775522084535,-0.026599636163468342,-0.019370827358808226,0.018244049953994146,0.005399101117208279,-0.022410993821280215,0.05134499089527506,-0.08690925938284377,-0.11249097860363672,-0.09291890275003845,-0.09757531209155546,-0.06781757381516182
0.676,-0.0013190224078447727,-0.019842674696958374,-0.018499638617084,0.011609691858188453,0.007982235324683914,-0.018997196691376953,0.05401590314401511,-0.08478717513173344,-0.10759204756459345,-0.08751841841140823,-0.09634648287931405,-0.06860025960481386
0.678,-0.005574058184796394,-0.022686424756511513,-0.017199557467978986,0.01465694593328784,0.0054100867057164485,-0.020074990820439124,0.05226959189182025,-0.0887058928836318,-0.11033397037265653,-0.08933767804945189,-0.09966048679902081,-0.07108928645825062
0.68,-0.016294707470039724,-0.03504107174971889,-0.019007335659335926,0.02639510963184383,0.0009404399270287381,-0.027318190334398494,0.04974806978240033,-0.09300093508755546,-0.11561311918025019,-0.09446874057455061,-0.10312854050250755,-0.07210030488284694
0.682,-0.02364053503603869,-0.047029471914198866,-0.02341834847200137,0.036852143136634465,-0.0007461755770206429,-0.03587064939517713,0.049398966050659805,-0.09293301038679291,-0.1192723310956276,-0.09840015624024484,-0.10447650887260101,-0.07348550373839038
0.684,-0.021583372556038774,-0.04647605400018763,-0.024509601465766268,0.03591714976603563,0.0007096080000877601,-0.036445167290512864,0.050383941040764026,-0.09003412841713727,-0.12208071747592074,-0.10121792756996731,-0.10488074892096924,-0.07657010596450528
0.686,-0.010868032828876491,-0.028654404056121928,-0.01738337696308191,0.0214525373431913,0.0022649873153402556,-0.02375347315036532,0.05061534579841457,-0.08866322736539949,-0.12592587109737408,-0.10517604071213439,-0.10507758304916237,-0.07772501839651515
0.688,0.0035835175440690438,-0.0027471763810368154,-0.006377769026165892,0.0012269061176228761,0.003490522280094855,-0.004972431480446083,0.04976855564989251,-0.09000505452386176,-0.12937322000596005,-0.10907812490435254,-0.10371214449667666,-0.07358935913954442
0.69,0.01688646644488543,0.013216033182185056,-0.004180333936212423,-0.013269051987337594,0.008819380628309264,0.003597485885097228,0.05052587198373206,-0.08973329997482277,-0.12745944764243697,-0.10712307395896799,-0.09816162473568514,-0.06505091474941016
0.692,0.024466103406494813,0.006981629062679567,-0.01804766094056532,-0.014165749107039681,0.01990048196742004,-0.007761638579920621,0.05571467694502785,-0.08323360659885712,-0.11761718640053308,-0.0959653767638477,-0.08759639498159615,-0.05562838209716947
0.694,0.021310642972691148,-0.017093829757259243,-0.03863119770946218,-0.0009184507375770327,0.029237397526966295,-0.031004763837341496,0.06238078742080844,-0.07356358147917236,-0.10545367107116316,-0.08194128023700954,-0.07700059083333897,-0.050203408890352824
0.696,0.006356288198277906,-0.04242360546314839,-0.048664003525385184,0.019233714189883837,0.02739213411463937,-0.04825784470122891,0.06285921773907384,-0.06943739712119308,-0.10032875128814461,-0.07619889321407074,-0.07441995182220963,-0.05329229710637054
0.698,-0.015101863941889601,-0.058577645645536656,-0.04330223480701737,0.03799880192456232,0.014457643170455113,-0.05216209915694668,0.054559377227367443,-0.07407820448935526,-0.10532858876858016,-0.08256192230943903,-0.08255502513218316,-0.06449763298800515
0.7,-0.034563521231354644,-0.06856773503254793,-0.03397680716567012,0.052097913636996965,0.0001315542883044956,-0.051084327369428084,0.04430259648726416,-0.08162714920207398,-0.11512938768395832,-0.09461172943778379,-0.09602576409122764,-0.07719971906784093
0.702,-0.0437568064990858,-0.07356764270190679,-0.029911144828758056,0.058648216639142915,-0.007029052781358446,-0.0511980922739817,0.03919250886415247,-0.08656425202928988,-0.12343479852045941,-0.10476827454264859,-0.10703291262625453,-0.08466196640726617
0.704,-0.041184305051785074,-0.06851284277913547,-0.02751214791583051,0.05519270191024337,-0.007913646463576405,-0.048262958132833565,0.03731919443975224,-0.0907397015670223,-0.12972569841301046,-0.11223265328736318,-0.112348856489956,-0.08639977815880405
0.706,-0.034779490419047224,-0.05717292412500049,-0.02270345825356396,0.04713228929319696,-0.008036024978477009,-0.04151053416202842,0.03390474300728558,-0.09656863002449151,-0.13627464823293833,-0.11928435458969676,-0.11388105378374398,-0.08596775652274757
0.708,-0.028676849275196807,-0.04975316879243984,-0.02146222885106473,0.04079020475901753,-0.0058723863100524154,-0.03827435143738524,0.032402449056989066,-0.09892755335841788,-0.14009315359810584,-0.1223874953670591,-0.11229280579499651,-0.08338467051315299
0.71,-0.015388672848002051,-0.044858575977251305,-0.02971740985430691,0.031820253970056424,0.005557096023716274,-0.040305251540312996,0.04011921822378087,-0.09113017133308189,-0.13437857494412864,-0.11432530417775279,-0.10451341498389348,-0.07475103992958916
0.712,0.007602616257377796,-0.03217766518673108,-0.039770777172044566,0.014215696691013182,0.023172828076200355,-0.03867899970140942,0.0554986558493076,-0.07584115661805252,-0.11925285782523683,-0.09670238238175838,-0.09095074286865536,-0.061572616771434975
0.714,0.025462807104951798,-0.011158423676823882,-0.03648753490223202,-0.005202978794400598,0.030984983269173417,-0.02611931308698809,0.06815904506881601,-0.06387565253580087,-0.10450154912180669,-0.08220362679238735,-0.07983165515736797,-0.05356392926367548
0.716,0.022543880086066722,0.005505482948186069,-0.0169721375906049,-0.012764393887337282,0.019316957110181197,-0.00772985302683574,0.07117971575409986,-0.06225195984511327,-0.09886929788445764,-0.08005382547217078,-0.0784162863755379,-0.056221072519490316
0.718,0.004242215692811885,0.00611349646230964,0.0018332074721938416,-0.004985956943115501,0.00015553006494721446,0.0025813091241368687,0.06818838464915596,-0.06661090995471841,-0.10085218381863006,-0.08532197519069831,-0.08367627052146509,-0.06280665481503395
0.72,-0.0073535320593008215,-0.007817205811186442,-0.0005179051950434226,0.007247587437983593,-0.004308159302951652,-0.004599313573398257,0.06657720001876566,-0.06804985891675332,-0.10311175615835422,-0.08755655517460433,-0.08758094080011432,-0.06506920674528244
0.722,0.0008409569042434307,-0.02291530345263949,-0.02376177359673833,0.011204337357306542,0.01205991930611678,-0.02322913273783028,0.06748463593332944,-0.06531453764183379,-0.10281022199634289,-0.08532030876786752,-0.0881586963276891,-0.06397001444248002
0.724,0.018050308588612864,-0.02736136803985364,-0.04538486535683073,0.006048590750857928,0.03167248394352367,-0.03668023877389545,0.0670631237762525,-0.06448364178988931,-0.10296475722251457,-0.08579424455660276,-0.08981995117789511,-0.06450977772212692
0.726,0.024548432288594758,-0.02265206251143325,-0.04716274227631129,0.0016597730407640482,0.035331255671130705,-0.03607512538727369,0.06443310940321721,-0.06837833666546779,-0.1056672211410945,-0.09240029097961876,-0.09542215099834961,-0.06760044695902884
0.728,0.016685593669372164,-0.017937938578978026,-0.03447733648865748,0.0038193607324754414,0.024532196235624533,-0.02785116262413053,0.06198029886361021,-0.07359060391156276,-0.10956741487587046,-0.10024694880126417,-0.10257337654771342,-0.07092223164998139
0.73,0.009051058667544583,-0.015705980627933144,-0.024310299136223623,0.006303760901290975,0.015487655171567704,-0.02159138739639756,0.06021931289478784,-0.07646856420465237,-0.11298152159968942,-0.10408629602607894,-0.10741830698985556,-0.07263862061153899
0.732,0.014066080139065126,-0.009788934072413692,-0.02310686669351908,8.573587818059072e-05,0.01732200786683804,-0.01785431475444819,0.05833413871283609,-0.07537777250891621,-0.11436069200281876,-0.10382117677794298,-0.10877191881361471,-0.07212886309616491
0.734,0.02783437054638093,0.004790813111758677,-0.02235976313357166,-0.01489710253683021,0.023469659852703557,-0.010069477331911507,0.057860613682311796,-0.06901294397439596,-0.1111676897327205,-0.10069751942011212,-0.10642738618910487,-0.06881672021142571
0.736,0.03615981319469523,0.0227589338148772,-0.0131672902984303,-0.028528892409935322,0.022745518566332685,0.00389770174472512,0.06078909077984531,-0.058566156191085184,-0.10322839656046215,-0.09481171169975998,-0.09933173810821981,-0.06231946699949087
0.738,0.030142209728783904,0.02991368698164208,-0.0004012975058164523,-0.02925595079583544,0.013776248635267751,0.014583186319962261,0.0653306861583981,-0.04972957549910192,-0.09498263442194166,-0.08810306290495976,-0.08898408076467317,-0.054733924146635124
0.74,0.014506443449433054,0.015887170841617754,0.0011690608158287821,-0.014416772657773986,0.006045792603352427,0.008885290073587987,0.06761870668100371,-0.047684166965910366,-0.09049860322072233,-0.08389666047487844,-0.07986992109668042,-0.049640921478162806
0.742,0.0018542513290701812,-0.014234639287009103,-0.016106532210940713,0.007136239980713752,0.00865628250358604,-0.014848219128083241,0.06681061952284119,-0.05172316652269071,-0.08968035672933972,-0.08295129457512748,-0.07468349823191098,-0.04779970137121447
0.744,0.0021993864507173673,-0.03961328812127255,-0.0417089433216711,0.0199020175885945,0.021035773023282845,-0.040683761570286345,0.06534164216227274,-0.057432682625364766,-0.09140629349089618,-0.0840336809622778,-0.07356801817128872,-0.04749286786213772
0.746,0.01574755184098475,-0.03855515629767548,-0.05424326029501534,0.012763643935964741,0.03343252143440502,-0.046807741641677704,0.06432540559678605,-0.06196381185354649,-0.09556545835941467,-0.08683029032244956,-0.07660452344976872,-0.04833443974924607
0.748,0.029930810747446558,-0.012791034907375267,-0.04274952112984781,-0.007162917981466213,0.03491970113659858,-0.028616358192344014,0.06235243669558699,-0.06464084186875747,-0.09993710486167744,-0.09064283139910749,-0.08209864016597235,-0.05032880282855978
0.75,0.029223609058236694,0.009886218684891732,-0.019360959092304574,-0.018151216998498473,0.023540374377016123,-0.005882904706264087,0.05965169650250936,-0.06435849391580778,-0.09969479990036363,-0.09237124311546722,-0.085036738007293,-0.05117400543741009
0.752,0.014677984062540318,0.00932897560302123,-0.0052243432730700295,-0.010501356032621647,0.009495847633517518,0.0008828178892166112,0.05801534045418491,-0.06109892509108936,-0.09416927032159805,-0.09032368529228477,-0.08349094120117939,-0.05016177692424794
0.754,0.0055606274806019,-0.00035301856963713886,-0.005564594381149183,-0.0008891164110263446,0.004736801872433443,-0.004319426176975065,0.05619524256342777,-0.05853765740002493,-0.08998750455311967,-0.0875778759737829,-0.0829634021541166,-0.051230731185824364
0.756,0.015429445115223551,0.006234496987660857,-0.00875838743536585,-0.009096097152776593,0.010640996612523549,-0.003089313809476538,0.05283424634542018,-0.05874490664796933,-0.09106643409549095,-0.08615455677561826,-0.08659184973974837,-0.05502955597958008
0.758,0.03556192329724035,0.0263777999552797,-0.008933721226060136,-0.029501863667015148,0.02034930896130598,0.006991030345158073,0.0522352958790235,-0.057064342242517746,-0.09063295214653232,-0.08198822510037346,-0.08696668766192756,-0.05397811687220642
0.76,0.0487891272040706,0.03671602031814196,-0.012130789025376659,-0.04150897515780675,0.02847676029522224,0.011574065916389887,0.05888607769504341,-0.049398463082083004,-0.08134969146696189,-0.07189540614914576,-0.07702423271826181,-0.04374426935468871
0.762,0.05157387142460391,0.0323052643420179,-0.01956966407736825,-0.040780238459046485,0.03363160891908252,0.006503354881149803,0.069515223758,-0.040299434342691294,-0.06771804130023838,-0.06047483056297373,-0.06257951094948744,-0.03238003790327871
0.764,0.05339021942977637,0.030317421756997885,-0.0236121506618438,-0.04104639242432121,0.03633794869556826,0.003068736502805905,0.07681448732942127,-0.03735221129458572,-0.06060099297646125,-0.05480394657881716,-0.055351383822402886,-0.029805766330453683
0.766,0.0595323320494097,0.03966114341465315,-0.020681197818063428,-0.04952751547839833,0.03753798585281999,0.007919354830411125,0.07691193596989442,-0.04185308799572447,-0.06421483527352102,-0.056885888423555214,-0.058783272649786354,-0.03498086920764697
0.768,0.06419623168817129,0.04894501765369338,-0.016069963161537713,-0.056918646235763745,0.037392024239670855,0.014127354502215597,0.07051768659559812,-0.04888919496011676,-0.07386762219484545,-0.06408432834862467,-0.06670712243961463,-0.03987061739799169
0.77,0.058414962668081605,0.041723584291187846,-0.017016488995084615,-0.049920509269547095,0.035129838368284025,0.01044281078440195,0.06133820158583671,-0.05330959623607531,-0.0826890129678063,-0.07307288072258449,-0.07208956013834118,-0.04089925609740489
0.772,0.03918988956513294,0.013222711560727698,-0.025658807699038444,-0.025134504086845682,0.030082605957426005,-0.0073461816346761565,0.05413668055431871,-0.054093479198994425,-0.08697629047838432,-0.08105218221561279,-0.0734860449912493,-0.04202903441788713
0.774,0.014269711006826686,-0.02364304089521387,-0.0374368999885843,0.006265594343533205,0.02373057677243588,-0.03120302931722825,0.05138723579291231,-0.053733252218400106,-0.08684475662306826,-0.0848187698464798,-0.07399597797592043,-0.048054660999324865
0.776,-0.0007833587004991235,-0.04558251062569771,-0.04465236649057838,0.024614604272751462,0.020138602221375573,-0.04550033811401095,0.05211074051034077,-0.0535913136156056,-0.08392857359835408,-0.08202940084496352,-0.0747926644223872,-0.05653351256242043
0.778,0.002468928419261053,-0.039515695917884834,-0.04213540194702984,0.019382412819943337,0.0209753581956946,-0.04110277257900405,0.05421571364815686,-0.052047514000213464,-0.079225348825923,-0.07470606260199669,-0.07280786063371224,-0.059068017852277034
0.78,0.013676376465750597,-0.01758038918892763,-0.03131461206114289,0.0023684610621978524,0.021536390298996306,-0.02527891723258562,0.0559879884232056,-0.0487109605600637,-0.07404116749230105,-0.06901122868271863,-0.06743628070368705,-0.052121600684685916
0.782,0.014669911538599494,-0.0041830619619439915,-0.018646150924842002,-0.0045230421530779155,0.01570908206070015,-0.01331231066786796,0.05553019539563141,-0.04757902166791867,-0.07212042594541677,-0.07022224978431439,-0.06445297361999924,-0.04318980632431981
0.784,0.0015258329653733442,-0.008217765429563581,-0.009552688593935392,0.004860931568847485,0.004214086398860184,-0.0113886456268705,0.05164170769914248,-0.05285799347601694,-0.07718269438973194,-0.07843362358847679,-0.06942717326054067,-0.04369369628101323
0.786,-0.009010781766407981,-0.015712349188550693,-0.006828506308160749,0.014177691264796287,-0.0028678533704972926,-0.013620795266345836,0.04663072238693425,-0.06212352168005635,-0.08669675566430952,-0.08776701485404752,-0.08063150542962375,-0.055964013426086985
0.788,0.002016242834190421,-0.010986485434115564,-0.013316840819627836,0.0058198099659563666,0.005845448460789878,-0.014318948092201942,0.04598554361898643,-0.06690592560772099,-0.09180012603404628,-0.09020465519398459,-0.08965008624999002,-0.06831407542304134
0.79,0.031134087105390243,0.00257742265061732,-0.028714371242746284,-0.016108260245376742,0.028510375519843756,-0.01521644526677776,0.052637720359077475,-0.06217773919589153,-0.08682215829111789,-0.08320001632948258,-0.08828216438078931,-0.06613245644965848
0.792,0.05287184980226536,0.008166252048157891,-0.04462302832366321,-0.02983886661814609,0.04765651709360046,-0.019762979053736265,0.062063335875296124,-0.05329681812157533,-0.07674782857990783,-0.07312078457044548,-0.07794475937420689,-0.04971663034054831
0.794,0.04507473439651278,-0.004908607806208982,-0.049875439544853434,-0.01895432043841316,0.046148092662152945,-0.027646926927114044,0.06491699195296874,-0.051124925839517416,-0.07264024775344886,-0.06945918711185106,-0.07116670511824258,-0.03664416027883629
0.796,0.008686120080191173,-0.032666827509683465,-0.041442239917135776,0.013544425487999162,0.023084002393603247,-0.03665703434558814,0.05630831675348407,-0.06011850885386004,-0.07985983858247006,-0.07575668576710759,-0.07742857264798526,-0.04144612538183963
0.798,-0.031007396545861397,-0.05759375343132698,-0.026843223381302954,0.04576105381610799,-0.004385996880203996,-0.04270306579265499,0.042983486342814035,-0.07188545399425304,-0.09098316012055187,-0.08562080102892773,-0.08975001560396145,-0.05722572520328653
0.8,-0.03936549044262435,-0.05441176304347525,-0.015181678536893622,0.047940063269935176,-0.013773392996849829,-0.03664454000636298,0.038126079390223507,-0.07262222163221049,-0.09199787820441122,-0.08764947546676834,-0.09246459300556821,-0.06385972877303496
0.802,-0.00157671685570958,-0.010408572272880251,-0.00865099046304022,0.0069555918942351275,0.0029017884909306848,-0.0114269889594104,0.046662567820411754,-0.05879155709356272,-0.07803573023715468,-0.07704256612829667,-0.07992172676869044,-0.0517904940133413
0.804,0.05714441692350856,0.05172324927171331,-0.00511143399889393,-0.052963874676545154,0.030609787047241765,0.02279333391120276,0.05860699659987682,-0.04301001136613159,-0.06125413074881049,-0.06329753230438305,-0.06243517895643231,-0.03257862599643857
0.806,0.09181135405823793,0.08681065858207536,-0.004852529514377669,-0.08705807913518307,0.04665306838062335,0.04166603469973715,0.060473493525666076,-0.04068706323697247,-0.05853995841332038,-0.06159709548269452,-0.054646674059618164,-0.024861224892211604
0.808,0.08349302165540262,0.07338119676118217,-0.010075731653784668,-0.0756658613875934,0.04408027392422567,0.03207634901096881,0.05173578349863328,-0.0522257939734553,-0.07121440976540432,-0.07392146107486222,-0.05956315789137634,-0.0320821008928178
0.81,0.05486074131514385,0.03477277146052313,-0.01985732493030596,-0.041997442870899966,0.035193801400034995,0.006375433766327824,0.04423963034568316,-0.06328042862472487,-0.08309330691796717,-0.08549921700458753,-0.06613461931630611,-0.03980682718491671
0.812,0.038530862078369366,0.00949478624547209,-0.02849001975205857,-0.021405769388246957,0.03301725716573953,-0.012090642179200932,0.04509352594186594,-0.06284709672078831,-0.08111797857341833,-0.0842084867483368,-0.06426764734324729,-0.036990845947895375
0.814,0.04350114826518471,0.013380496521602012,-0.02945522552782255,-0.026190186981771023,0.03706137913345374,-0.010871929156438215,0.04783356600170069,-0.05584207785613628,-0.07074806935924512,-0.07568963025510664,-0.05782892863668651,-0.031221785691290797
0.816,0.054466480149283306,0.030925736838585873,-0.022979056698727202,-0.04093830757729869,0.038795003472150535,0.0024253494957631955,0.04305902568534593,-0.054452175580785495,-0.06626217491160892,-0.07328219952643594,-0.05775250806949999,-0.03498192011893051
0.818,0.05172570801901213,0.03301163128160001,-0.018293823798061905,-0.04087476409820259,0.03361122848845402,0.007432103870122007,0.03247273042225903,-0.0606127389617581,-0.07153568644920306,-0.0789853610473472,-0.06476700367572484,-0.04412907110757862
0.82,0.030877617786270677,0.007640022046514879,-0.02293018425231207,-0.017570800173581907,0.024438798978825796,-0.007147813391750464,0.02757074652572451,-0.06451541989236738,-0.07744729653109225,-0.08250580215162093,-0.06724324149417861,-0.04321951063788971
0.822,0.008847719768367906,-0.021972773064296958,-0.030667966993845695,0.008271381394677776,0.01737590646985772,-0.026751387997561143,0.034201447263321534,-0.06068944848301434,-0.07687571589961453,-0.07833862162044739,-0.05952426674096656,-0.030102489455705695
0.824,0.004673632645231079,-0.022936292999497315,-0.027629647662163845,0.010126847875064912,0.014566519300151468,-0.02679137899330356,0.0443057716967002,-0.05634266562099267,-0.07429120621339572,-0.07493450476249217,-0.052921039272861264,-0.021553615601461972
0.826,0.015923760676916688,0.004352564896224233,-0.01163884586999867,-0.009865750669177756,0.012766650308113539,-0.0055304003604338525,0.0467922997920808,-0.0605640011093194,-0.07767823112496416,-0.08204189390568811,-0.059943861783461685,-0.03105049007628108
0.828,0.028139958303216486,0.029834882884593853,0.0018086010794035054,-0.028365377612571224,0.012071272018148694,0.014058329560425289,0.04096367294601137,-0.07226967539141893,-0.08688241027467938,-0.095578765951122,-0.07560054311463855,-0.05080252753953798
0.83,0.037172148827126446,0.03330551444958738,-0.003358823685334478,-0.033536670105027595,0.018637056742737617,0.013447467362249983,0.03481365934468587,-0.08210252387650403,-0.09408831084681475,-0.10249952816146657,-0.08449762301986236,-0.06264956353013305
0.832,0.04281826194386157,0.015995218420568995,-0.02590712479973328,-0.027268401466524945,0.032144263964637675,-0.00624090469157942,0.0341228397818788,-0.08287941923027162,-0.09359505193639531,-0.09756784851835536,-0.081355363027004,-0.06043658510263333
0.834,0.036974317058906594,-0.012142140845018693,-0.04813074251012348,-0.010867932010217204,0.040187562663321484,-0.031161979326093214,0.03701681442873374,-0.07664746968274237,-0.08825475672114103,-0.08883461930348312,-0.07522759410258203,-0.05286908904336426
0.836,0.01720367598225478,-0.0324427109289804,-0.0491429703666007,0.008586529802304276,0.03138757180228398,-0.04157008164244615,0.038073029630711075,-0.07185688592621195,-0.0853819118647675,-0.08672017882767778,-0.07501320944190756,-0.04906890468582242
0.838,-0.001764884429398012,-0.024722124111829332,-0.023188266378977345,0.014484433993739939,0.009689272765165463,-0.024672340026760775,0.035659272571670494,-0.07311496130279677,-0.08741242075257588,-0.0917163451746233,-0.07841368308298782,-0.05030581226186306
0.84,-5.802391267784382e-05,0.007371683195554604,0.006908800621241451,-0.0017566393712674,-0.004534208249254608,0.00620692920724298,0.03533059807877767,-0.07477164891543611,-0.08844066053853766,-0.09421714654173854,-0.07678604480842947,-0.05171572288587427
0.842,0.03017422832504127,0.03810569751745084,0.007826189397106194,-0.03219743649447631,0.009190405510792417,0.02177606861923242,0.045882725749241196,-0.06711851321441548,-0.08048236277072776,-0.08541995158406264,-0.06574212296633293,-0.046728899795361864
0.844,0.07445118477485929,0.049955091371939396,-0.024116963482999493,-0.060927498797827426,0.04640748114033644,0.011707385430130756,0.06767142641609544,-0.05066343566572575,-0.064960460419679,-0.069340815500144,-0.050671331154214565,-0.036079559995245834
0.846,0.0984221915877959,0.04213546120642668,-0.055980541028299614,-0.0694838026945793,0.07423111828357146,-0.007960341568221568,0.08472173566391158,-0.041361811434979516,-0.05722661662002246,-0.0633293560940918,-0.04598439514916867,-0.03289160040487166
0.848,0.07784737385739789,0.021258229353602137,-0.056620095950529914,-0.0483724613132087,0.06486770226504675,-0.01860059371804453,0.079540501014551,-0.053146460800613894,-0.0705732705041781,-0.07900986569619758,-0.06276761726502057,-0.04836340656731157
0.85,0.03393222532252098,0.002804897835980154,-0.03119399352084284,-0.016255384735732667,0.03101497258567738,-0.01518237838171083,0.0582491357809,-0.07598536636356154,-0.0947333235021207,-0.10269945015780793,-0.09024732165639207,-0.0730852612204455
0.852,0.014719985484340028,0.001751252601252782,-0.012841553174327938,-0.005536036147942073,0.012886630418509964,-0.006659459687375376,0.045942006697184755,-0.08518384806267817,-0.10473750867001153,-0.10879838941170726,-0.10137773221984535,-0.08400631378411857
0.854,0.032368399927651545,0.009470421562978958,-0.022727527838359313,-0.018498291781397204,0.027009759161761758,-0.007665329587257796,0.054430577979119606,-0.0727781702321885,-0.09247628986897687,-0.09266661638893756,-0.08561800819279607,-0.0699928310071925
0.856,0.0490118101145339,0.0026745384554802036,-0.04631204373813612,-0.024174739380369653,0.04718404361653344,-0.02248504870819088,0.0710515601732357,-0.054179056060235584,-0.07369903341309282,-0.07334721931739534,-0.061454568962369255,-0.04180493018359723
0.858,0.03410855871691219,-0.021779753319810632,-0.055973248515660136,-0.004795341091758647,0.04434566348646166,-0.03923836687400269,0.08042337084578745,-0.04482562391302091,-0.06443080670890407,-0.06577421545090775,-0.04995223218896767,-0.01859473723945911
0.86,0.003689461360819709,-0.042486542686142534,-0.0462332962971348,0.02122984334843242,0.023968528246190775,-0.04489294478906939,0.08073137809073191,-0.04539948659669989,-0.06548457239999249,-0.06730151064266308,-0.052369192465056,-0.011780031738978075
0.862,-0.009931052028586665,-0.04237280680559897,-0.032423259416052945,0.02844408064865309,0.0101518178789827,-0.038263081017996595,0.07628217232661293,-0.05013842861428007,-0.07095444048326738,-0.07088630214302742,-0.0593713879774494,-0.02032365067929306
0.864,-0.0016639520877560247,-0.026071861610115512,-0.02436759188350527,0.01587655491202912,0.01037171121645706,-0.02590465821203723,0.06699493627293507,-0.057938236669273446,-0.08004872792498009,-0.07756577379669463,-0.06737880709195397,-0.03577104407873118
0.866,0.008740725117444031,-0.010103999829401807,-0.018835419871015495,0.0017815936731409437,0.013071713490816083,-0.014530229079552945,0.05145872162508788,-0.07039761244909411,-0.0939038990785258,-0.09042695150247192,-0.07730090352994479,-0.04897093101988771
0.868,0.008980830954542312,-0.004137889364411734,-0.013136257151057167,-0.002256279062750752,0.010745593539779736,-0.008297754196758454,0.0353198484872477,-0.08354137047139208,-0.10642700824582717,-0.10377985989085621,-0.08553561640719591,-0.05349507499540773
0.87,0.00959345012461162,-0.0007368404574423317,-0.010343756150352294,-0.004674184141427288,0.009979963343442682,-0.005310521700791696,0.030119300325738414,-0.08819018078623542,-0.10711590835725325,-0.10715981994478604,-0.08534212833510549,-0.04782392821287961
0.872,0.025087239704771495,0.014633626802430666,-0.010450481098194025,-0.01970697791099979,0.017751100346311853,0.0018550290653835738,0.04229549833100039,-0.07956094925833027,-0.09241165902539647,-0.09745315530686717,-0.07521789625474083,-0.03670175169441259
0.874,0.04811066082332754,0.040782594720015136,-0.0073192225627916096,-0.043269067201022,0.02748048505711778,0.015735798253497833,0.06538537883354908,-0.06263323986788827,-0.06990251692754344,-0.08107404863672865,-0.06112722363128192,-0.02801241154122014
0.876,0.057131774708780766,0.05824590863136009,0.0011166495397009289,-0.05567102411605797,0.027824951313952,0.02787278686838988,0.08521277824814143,-0.04649578012635868,-0.05098129103246229,-0.06612714374237814,-0.04964251865890806,-0.02532322238779672
0.878,0.04826933481232951,0.05304846857074293,0.004775509534461747,-0.04886236467965005,0.021948204258543564,0.026955607378108638,0.09328753467375535,-0.0355011534740171,-0.04010712038891024,-0.055608175227856195,-0.04070400878934763,-0.02400952359836462
0.88,0.040695936418224575,0.03299066595698677,-0.007708374385714493,-0.03621910474140168,0.024632454886297537,0.01148253889594183,0.09326118770643953,-0.027965772732545163,-0.03321750486069632,-0.04800664225288235,-0.030642627404088185,-0.017993480489223387
0.882,0.04715533364959912,0.01760702311408517,-0.029525875723519016,-0.03275557679756739,0.03832641533088183,-0.006247222391290391,0.09279642606110022,-0.02238795828135559,-0.027547415832157637,-0.0433842662181554,-0.021731785580032047,-0.009285372603237292
0.884,0.05604760264183162,0.015585131763033068,-0.04032922471310703,-0.03602487065745084,0.047093898070506054,-0.01271862901270496,0.0918066310174051,-0.021585712842243327,-0.02785427191887705,-0.04586136854885437,-0.022718159472616968,-0.006498621466415818
0.886,0.05174324552517675,0.017672071444487694,-0.03374310319462328,-0.033606729576957255,0.04077822265353763,-0.00930164231502912,0.08335941987038138,-0.02907330616161192,-0.03859417054677188,-0.05701078377012525,-0.037023743443142666,-0.01386399227746698
0.888,0.0379114920066654,0.012242631201416831,-0.025268937324737225,-0.022567936120384793,0.029846207028925528,-0.008787869152405911,0.06560277428385063,-0.04272400571609462,-0.05391223702508407,-0.06968072017232545,-0.054557059467054386,-0.024986062007253975
0.89,0.02575347599064669,-0.0033659112132548978,-0.028995872488889955,-0.008399447724815866,0.026484218716672614,-0.018938674282580618,0.04582198427767686,-0.055119276472985174,-0.0622673421802246,-0.0746667094310064,-0.06133194625866533,-0.029561085253502675
0.892,0.013519832688656025,-0.02343832768147016,-0.03731118712668395,0.006854238175545392,0.024567698863020668,-0.03275680504094085,0.03037270369604306,-0.06143384326663576,-0.060730784250503676,-0.07229618410159842,-0.056337403299962764,-0.025834380316053708
0.894,-0.006071338068607811,-0.03473426783262189,-0.029252852227827402,0.02150136011460495,0.009673927278158873,-0.03323070043560736,0.01711640260686692,-0.06462459107502551,-0.058001926784987036,-0.07109210561176672,-0.05176856276332641,-0.023018781381926763
0.896,-0.030798624015459172,-0.029087577948545405,0.0012611381589254294,0.03136441379444619,-0.01875713086007647,-0.014089094469110199,0.0011597303509785226,-0.07100834102401228,-0.06196603343005941,-0.07625838483883872,-0.05636092472020927,-0.029204946446442566
0.898,-0.05286653600152568,-0.01867018577836354,0.03394058434595821,0.03812841447689464,-0.04567897847878555,0.007544646994843149,-0.01659297643467112,-0.08229566746279326,-0.07058019540604354,-0.08534060776031185,-0.06636028633691315,-0.04117751395659529
0.9,-0.06916232385245129,-0.022181009014692537,0.046782702799618325,0.04832815119914191,-0.059202256464489754,0.011634045434912428,-0.030268550595633853,-0.094540618286734,-0.07746771681659394,-0.09404926114539267,-0.07466579101087813,-0.05036486494543887
0.902,-0.07968842065236284,-0.04003350334999768,0.03959607413139423,0.061714496048440225,-0.06035480276983134,-0.0010519565582719085,-0.036585843105404685,-0.10415904415892352,-0.08130290886581783,-0.10071529236453988,-0.08080043123923544,-0.05360024433567657
0.904,-0.07858678293420246,-0.05479648888864436,0.024067741238677956,0.06746503780364972,-0.05215332529692326,-0.015718970462611028,-0.03779841123846893,-0.11057656470243059,-0.08476342733406614,-0.10415899358611769,-0.08602916141559944,-0.05176927788709341
0.906,-0.05371043125421268,-0.047387378190833836,0.006797819064567244,0.0509989385719537,-0.031131649288110727,-0.020290684802915068,-0.0355631242907056,-0.11141018432034575,-0.08552818119232623,-0.10064345922050424,-0.08395534962272887,-0.04263057494490813
0.908,-0.002257837235236234,-0.012441985933740173,-0.009990078328656447,0.008255453582805628,0.003323583804306608,-0.01145556210048797,-0.026718350653534582,-0.1014213355357525,-0.07626535182906692,-0.08737400470685515,-0.0670805851023353,-0.023705836345371427
0.91,0.054761898585030125,0.030411089584594486,-0.024707895999609188,-0.041198055617297086,0.03942812910756591,0.002208675369702923,-0.010885828117993403,-0.08158692744048728,-0.057838199249129765,-0.0703147219691769,-0.043154372989036446,-0.001696047603512135
0.912,0.09186233326334657,0.05435882846298633,-0.03811181905810602,-0.07164898734223392,0.06442040334305839,0.007425804918402494,0.0041365727444770016,-0.0613082496891221,-0.0416573027897636,-0.060045229200446665,-0.030004292720509227,0.010665727017939525
0.914,0.11542188174383224,0.06676854246989293,-0.04898934725532167,-0.08976621729481153,0.08136390337756097,0.008149851882851663,0.013344772111907807,-0.04526687873468613,-0.03193861704852402,-0.055611605293336815,-0.030299969216412936,0.010448817135060667
0.916,0.15112778821521888,0.10085677214654949,-0.050185815379585844,-0.12457931095566195,0.10009180488649067,0.02397830777928905,0.022710376618200048,-0.029173055740220555,-0.02019176497353642,-0.045689122710446076,-0.029094979351120882,0.0072224542812116274
0.918,0.19184050484894824,0.15043201396934472,-0.04121240408969544,-0.1692903671532759,0.11643395431201158,0.05230026794038324,0.03753608645179087,-0.013629168819631339,-0.004230601343832404,-0.029759863321141142,-0.01972132023000764,0.006819133779061907
0.92,0.19736297479020626,0.16075593651791584,-0.03669465775943057,-0.1768788160613528,0.11680538023329856,0.059270563290554676,0.052088314109145994,-0.008415369486153724,0.003975543485216529,-0.021998510863306057,-0.013733139404672676,0.003724383883482868
0.922,0.15728653631192352,0.11158561693693834,-0.04622194871860496,-0.13247471257171864,0.10061547658553628,0.03043407815019381,0.0585924662321692,-0.017504017636173153,-0.0032427840012743065,-0.02980796609279651,-0.020944084972006522,-0.006487542910540411
0.924,0.11371746446473589,0.056980973874062306,-0.057431136533223875,-0.08377347210412157,0.08337105004559353,-0.0012586392723368917,0.057814066699937196,-0.03194441031075531,-0.01765461735352849,-0.043448316284522844,-0.03520128144221476,-0.017701390323833822
0.926,0.09988406292965454,0.045645591826843565,-0.05457990777281161,-0.07108685806025626,0.0745409030952225,-0.004395741324490766,0.05380549822141649,-0.04343606558033776,-0.02943998645144584,-0.053209120028065666,-0.0471945409328031,-0.023064528462561823
0.928,0.09569000916405161,0.0534549305948208,-0.0419966201274834,-0.07259014871065637,0.06631959149569432,0.005944180215850241,0.04652021741193134,-0.05349782919574801,-0.03942429615309068,-0.06278737197460428,-0.05790756281611083,-0.02531255547067358
0.93,0.07481047705862628,0.038222785636103346,-0.036143914241788366,-0.05483875676318946,0.05340312445056969,0.00046369462064123183,0.037098282406880026,-0.06265458130910104,-0.04893036209788132,-0.07602924727674731,-0.06866313776384345,-0.028718153974905423
0.932,0.054341334374577305,0.011919064997631644,-0.04225585290013367,-0.032297900072295785,0.046808082003754546,-0.016442228546059118,0.03156780440833787,-0.06446428154684448,-0.052132849987682535,-0.08527307069497236,-0.07193607872257807,-0.03082506794954006
0.934,0.05878137910342443,0.008819498408892644,-0.050107817209380845,-0.033380999264926874,0.05370270022645677,-0.021867489602639227,0.03225796567184636,-0.058457277760387005,-0.04764360964057107,-0.08478141298062059,-0.06543719448155727,-0.030400036686543355
0.936,0.07274472318640746,0.021582477021413436,-0.05132700317919056,-0.04629131918970831,0.061974924877025196,-0.015784726037812544,0.03457074930915604,-0.054728889024561994,-0.044420620425015274,-0.08184756865510569,-0.06050371400881166,-0.03116191325080668
0.938,0.06684733327488902,0.017781592575346918,-0.049090249386049375,-0.04088334428613023,0.05814781276734123,-0.016610528488813493,0.035225460704042685,-0.05968353916243572,-0.04996863114255608,-0.08581138511016735,-0.06446478287170367,-0.03289698527733054
