time,I,II,III,aVR,aVL,aVF,V1,V2,V3,V4,V5,V6
0.0,-0.049,-0.029,0.02,0.039,-0.034,-0.005,-0.059,-0.078,-0.068,-0.049,-0.029,-0.098
0.002,-0.049,-0.029,0.02,0.039,-0.034,-0.005,-0.059,-0.078,-0.068,-0.049,-0.029,-0.098
0.004,-0.049,-0.029,0.02,0.039,-0.034,-0.005,-0.059,-0.078,-0.068,-0.049,-0.029,-0.098
0.006,-0.049,-0.029,0.02,0.039,-0.034,-0.005,-0.059,-0.078,-0.068,-0.049,-0.029,-0.098
0.008,-0.059,-0.034,0.024,0.049,-0.044,-0.005,-0.068,-0.088,-0.073,-0.054,-0.034,-0.112
0.01,-0.059,-0.039,0.02,0.049,-0.039,-0.01,-0.068,-0.088,-0.078,-0.059,-0.039,-0.117
0.012,-0.059,-0.044,0.015,0.054,-0.039,-0.015,-0.068,-0.088,-0.083,-0.063,-0.044,-0.122
0.014,-0.059,-0.049,0.01,0.054,-0.034,-0.02,-0.068,-0.088,-0.088,-0.068,-0.049,-0.127
0.016,-0.049,-0.039,0.01,0.044,-0.029,-0.015,-0.068,-0.078,-0.078,-0.054,-0.044,-0.112
0.018,-0.039,-0.029,0.01,0.034,-0.024,-0.01,-0.068,-0.078,-0.078,-0.049,-0.039,-0.107
0.02,-0.029,-0.02,0.01,0.024,-0.02,-0.005,-0.068,-0.078,-0.078,-0.044,-0.034,-0.102
0.022,-0.02,-0.01,0.01,0.015,-0.015,0.0,-0.068,-0.078,-0.078,-0.039,-0.029,-0.098
0.024,-0.024,-0.02,0.005,0.024,-0.015,-0.01,-0.068,-0.078,-0.078,-0.039,-0.039,-0.098
0.026,-0.029,-0.02,0.01,0.024,-0.02,-0.005,-0.068,-0.078,-0.078,-0.039,-0.039,-0.098
0.028,-0.034,-0.02,0.015,0.029,-0.024,-0.005,-0.068,-0.078,-0.078,-0.039,-0.039,-0.098
0.03,-0.039,-0.02,0.02,0.029,-0.029,0.0,-0.068,-0.078,-0.078,-0.039,-0.039,-0.098
0.032,-0.034,-0.02,0.015,0.029,-0.024,-0.005,-0.073,-0.083,-0.088,-0.044,-0.044,-0.102
0.034,-0.029,-0.02,0.01,0.024,-0.02,-0.005,-0.078,-0.088,-0.088,-0.049,-0.049,-0.107
0.036,-0.024,-0.02,0.005,0.024,-0.015,-0.01,-0.083,-0.093,-0.088,-0.054,-0.054,-0.112
0.038,-0.02,-0.02,0.0,0.02,-0.01,-0.01,-0.088,-0.098,-0.088,-0.059,-0.059,-0.117
0.04,-0.02,-0.029,-0.01,0.024,-0.005,-0.02,-0.078,-0.088,-0.078,-0.049,-0.049,-0.112
0.042,-0.02,-0.029,-0.01,0.024,-0.005,-0.02,-0.078,-0.088,-0.078,-0.049,-0.049,-0.107
0.044,-0.02,-0.029,-0.01,0.024,-0.005,-0.02,-0.078,-0.088,-0.078,-0.049,-0.049,-0.102
0.046,-0.02,-0.029,-0.01,0.024,-0.005,-0.02,-0.078,-0.088,-0.078,-0.049,-0.049,-0.098
0.048,-0.02,-0.034,-0.015,0.029,-0.005,-0.024,-0.083,-0.093,-0.083,-0.063,-0.054,-0.112
0.05,-0.02,-0.039,-0.02,0.029,0.0,-0.029,-0.088,-0.098,-0.088,-0.068,-0.059,-0.117
0.052,-0.02,-0.044,-0.024,0.034,0.0,-0.034,-0.093,-0.102,-0.093,-0.073,-0.063,-0.122
0.054,-0.02,-0.049,-0.029,0.034,0.005,-0.039,-0.098,-0.107,-0.098,-0.078,-0.068,-0.127
0.056,-0.029,-0.039,-0.01,0.034,-0.01,-0.024,-0.107,-0.107,-0.107,-0.078,-0.078,-0.117
0.058,-0.029,-0.039,-0.01,0.034,-0.01,-0.024,-0.107,-0.107,-0.107,-0.078,-0.078,-0.117
0.06,-0.029,-0.039,-0.01,0.034,-0.01,-0.024,-0.107,-0.107,-0.107,-0.078,-0.078,-0.117
0.062,-0.029,-0.039,-0.01,0.034,-0.01,-0.024,-0.107,-0.107,-0.107,-0.078,-0.078,-0.117
0.064,-0.015,-0.049,-0.034,0.034,0.01,-0.044,-0.098,-0.098,-0.102,-0.068,-0.068,-0.107
0.066,-0.01,-0.049,-0.039,0.029,0.015,-0.044,-0.098,-0.098,-0.098,-0.068,-0.068,-0.107
0.068,-0.005,-0.049,-0.044,0.029,0.02,-0.049,-0.098,-0.098,-0.093,-0.068,-0.068,-0.107
0.07,0.0,-0.049,-0.049,0.024,0.024,-0.049,-0.098,-0.098,-0.088,-0.068,-0.068,-0.107
0.072,0.01,-0.049,-0.059,0.02,0.034,-0.054,-0.098,-0.107,-0.098,-0.068,-0.078,-0.112
0.074,0.01,-0.049,-0.059,0.02,0.034,-0.054,-0.102,-0.107,-0.098,-0.068,-0.083,-0.117
0.076,0.02,-0.049,-0.068,0.015,0.044,-0.059,-0.102,-0.107,-0.093,-0.068,-0.083,-0.122
0.078,0.02,-0.029,-0.049,0.005,0.034,-0.039,-0.098,-0.107,-0.093,-0.068,-0.083,-0.127
0.08,0.02,-0.029,-0.049,0.005,0.034,-0.039,-0.107,-0.117,-0.098,-0.073,-0.088,-0.137
0.082,0.005,-0.034,-0.039,0.015,0.02,-0.039,-0.107,-0.117,-0.102,-0.078,-0.088,-0.137
0.084,0.02,-0.029,-0.049,0.005,0.034,-0.039,-0.107,-0.117,-0.107,-0.083,-0.093,-0.137
0.086,0.029,-0.01,-0.039,-0.01,0.034,-0.024,-0.107,-0.117,-0.112,-0.088,-0.093,-0.137
0.088,0.02,-0.015,-0.034,0.0,0.024,-0.024,-0.098,-0.107,-0.107,-0.078,-0.093,-0.127
0.09,0.015,-0.029,-0.044,0.01,0.029,-0.039,-0.102,-0.107,-0.112,-0.083,-0.098,-0.132
0.092,0.015,-0.034,-0.049,0.01,0.029,-0.044,-0.102,-0.112,-0.112,-0.083,-0.098,-0.132
0.094,0.02,-0.039,-0.059,0.01,0.039,-0.049,-0.102,-0.112,-0.107,-0.083,-0.098,-0.127
0.096,0.02,-0.039,-0.059,0.01,0.039,-0.049,-0.112,-0.122,-0.117,-0.093,-0.107,-0.127
0.098,0.02,-0.029,-0.049,0.005,0.034,-0.039,-0.112,-0.122,-0.117,-0.093,-0.107,-0.137
0.1,0.02,-0.029,-0.049,0.005,0.034,-0.039,-0.122,-0.122,-0.117,-0.098,-0.112,-0.142
0.102,0.01,-0.029,-0.039,0.01,0.024,-0.034,-0.112,-0.122,-0.117,-0.098,-0.112,-0.146
0.104,0.02,-0.029,-0.049,0.005,0.034,-0.039,-0.112,-0.122,-0.117,-0.083,-0.102,-0.137
0.106,0.039,-0.02,-0.059,-0.01,0.049,-0.039,-0.112,-0.112,-0.107,-0.078,-0.102,-0.132
0.108,0.054,-0.005,-0.059,-0.024,0.054,-0.034,-0.102,-0.107,-0.102,-0.073,-0.093,-0.122
0.11,0.063,0.01,-0.054,-0.034,0.059,-0.024,-0.098,-0.107,-0.102,-0.068,-0.093,-0.117
0.112,0.054,0.0,-0.054,-0.024,0.054,-0.029,-0.098,-0.107,-0.102,-0.073,-0.098,-0.122
0.114,0.054,-0.015,-0.068,-0.02,0.059,-0.044,-0.093,-0.102,-0.102,-0.078,-0.102,-0.132
0.116,0.054,-0.029,-0.083,-0.01,0.068,-0.059,-0.083,-0.102,-0.102,-0.083,-0.107,-0.137
0.118,0.054,-0.024,-0.078,-0.015,0.063,-0.054,-0.083,-0.102,-0.093,-0.083,-0.112,-0.137
0.12,0.063,0.01,-0.054,-0.034,0.059,-0.024,-0.093,-0.117,-0.102,-0.088,-0.112,-0.137
0.122,0.063,0.015,-0.049,-0.039,0.054,-0.02,-0.088,-0.107,-0.107,-0.088,-0.112,-0.142
0.124,0.063,0.01,-0.054,-0.034,0.059,-0.024,-0.088,-0.112,-0.107,-0.088,-0.117,-0.137
0.126,0.073,0.039,-0.034,-0.054,0.054,0.0,-0.088,-0.112,-0.107,-0.088,-0.112,-0.142
0.128,0.088,0.039,-0.049,-0.063,0.068,-0.005,-0.073,-0.102,-0.098,-0.078,-0.098,-0.137
0.13,0.093,0.044,-0.049,-0.068,0.068,-0.005,-0.063,-0.093,-0.088,-0.068,-0.093,-0.132
0.132,0.098,0.049,-0.049,-0.073,0.073,0.0,-0.054,-0.088,-0.083,-0.063,-0.093,-0.127
0.134,0.112,0.068,-0.044,-0.088,0.078,0.01,-0.049,-0.083,-0.078,-0.059,-0.083,-0.122
0.136,0.112,0.073,-0.039,-0.093,0.073,0.015,-0.029,-0.068,-0.068,-0.044,-0.083,-0.117
0.138,0.107,0.073,-0.034,-0.088,0.068,0.02,-0.024,-0.063,-0.068,-0.044,-0.083,-0.107
0.14,0.102,0.068,-0.034,-0.083,0.068,0.015,-0.01,-0.054,-0.063,-0.044,-0.083,-0.098
0.142,0.102,0.059,-0.044,-0.078,0.073,0.005,-0.01,-0.054,-0.054,-0.034,-0.078,-0.093
0.144,0.102,0.068,-0.034,-0.083,0.068,0.015,-0.01,-0.049,-0.059,-0.034,-0.078,-0.098
0.146,0.098,0.088,-0.01,-0.093,0.054,0.039,-0.015,-0.054,-0.059,-0.039,-0.083,-0.098
0.148,0.083,0.083,0.0,-0.083,0.039,0.039,-0.02,-0.059,-0.059,-0.044,-0.088,-0.102
0.15,0.068,0.078,0.01,-0.073,0.029,0.044,-0.034,-0.068,-0.059,-0.049,-0.093,-0.107
0.152,0.093,0.098,0.005,-0.093,0.044,0.049,-0.029,-0.063,-0.059,-0.039,-0.093,-0.102
0.154,0.098,0.102,0.005,-0.098,0.044,0.054,-0.039,-0.068,-0.059,-0.039,-0.088,-0.098
0.156,0.098,0.112,0.015,-0.102,0.039,0.063,-0.054,-0.073,-0.059,-0.039,-0.088,-0.098
0.158,0.098,0.112,0.015,-0.102,0.039,0.063,-0.068,-0.088,-0.068,-0.039,-0.088,-0.098
0.16,0.088,0.093,0.005,-0.088,0.039,0.049,-0.073,-0.098,-0.078,-0.049,-0.083,-0.093
0.162,0.078,0.088,0.01,-0.083,0.034,0.049,-0.078,-0.098,-0.068,-0.039,-0.078,-0.083
0.164,0.073,0.107,0.034,-0.088,0.02,0.068,-0.093,-0.098,-0.059,-0.039,-0.068,-0.078
0.166,0.073,0.122,0.049,-0.098,0.01,0.083,-0.112,-0.102,-0.073,-0.039,-0.068,-0.078
0.168,0.078,0.117,0.039,-0.098,0.02,0.078,-0.112,-0.102,-0.073,-0.024,-0.059,-0.068
0.17,0.083,0.117,0.034,-0.098,0.024,0.073,-0.122,-0.102,-0.068,-0.024,-0.059,-0.063
0.172,0.098,0.122,0.024,-0.107,0.034,0.073,-0.127,-0.098,-0.063,-0.029,-0.059,-0.059
0.174,0.107,0.127,0.02,-0.117,0.044,0.073,-0.132,-0.098,-0.059,-0.029,-0.059,-0.054
0.176,0.107,0.127,0.02,-0.117,0.044,0.073,-0.122,-0.093,-0.059,-0.029,-0.059,-0.063
0.178,0.112,0.127,0.015,-0.117,0.049,0.068,-0.137,-0.098,-0.073,-0.039,-0.068,-0.068
0.18,0.112,0.117,0.005,-0.112,0.054,0.059,-0.137,-0.107,-0.073,-0.044,-0.073,-0.068
0.182,0.098,0.107,0.01,-0.102,0.044,0.059,-0.146,-0.107,-0.073,-0.044,-0.073,-0.068
0.184,0.093,0.098,0.005,-0.093,0.044,0.049,-0.142,-0.117,-0.078,-0.044,-0.068,-0.068
0.186,0.093,0.098,0.005,-0.093,0.044,0.049,-0.151,-0.127,-0.093,-0.054,-0.078,-0.068
0.188,0.098,0.098,0.0,-0.098,0.049,0.049,-0.151,-0.127,-0.093,-0.054,-0.078,-0.073
0.19,0.078,0.098,0.02,-0.088,0.029,0.059,-0.142,-0.117,-0.088,-0.049,-0.073,-0.054
0.192,0.078,0.107,0.029,-0.093,0.024,0.068,-0.146,-0.107,-0.078,-0.039,-0.078,-0.059
0.194,0.059,0.107,0.049,-0.083,0.005,0.078,-0.146,-0.107,-0.078,-0.039,-0.078,-0.059
0.196,0.059,0.098,0.039,-0.078,0.01,0.068,-0.146,-0.112,-0.088,-0.049,-0.083,-0.059
0.198,0.059,0.098,0.039,-0.078,0.01,0.068,-0.146,-0.117,-0.088,-0.059,-0.088,-0.068
0.2,0.059,0.083,0.024,-0.068,0.015,0.054,-0.137,-0.117,-0.093,-0.059,-0.093,-0.073
0.202,0.049,0.059,0.01,-0.054,0.02,0.034,-0.132,-0.117,-0.093,-0.063,-0.098,-0.073
0.204,0.044,0.024,-0.02,-0.034,0.029,0.0,-0.132,-0.117,-0.098,-0.073,-0.102,-0.078
0.206,0.044,-0.005,-0.049,-0.02,0.044,-0.029,-0.132,-0.127,-0.102,-0.078,-0.117,-0.088
0.208,0.02,-0.024,-0.044,0.005,0.029,-0.034,-0.132,-0.122,-0.112,-0.083,-0.137,-0.093
0.21,0.015,-0.029,-0.044,0.01,0.029,-0.039,-0.132,-0.137,-0.122,-0.098,-0.146,-0.107
0.212,0.015,-0.039,-0.054,0.015,0.034,-0.049,-0.132,-0.137,-0.127,-0.098,-0.146,-0.117
0.214,0.02,-0.059,-0.078,0.02,0.049,-0.068,-0.127,-0.132,-0.127,-0.098,-0.146,-0.117
0.216,0.015,-0.068,-0.083,0.029,0.049,-0.078,-0.122,-0.127,-0.122,-0.107,-0.142,-0.122
0.218,0.015,-0.054,-0.068,0.02,0.039,-0.063,-0.112,-0.122,-0.117,-0.102,-0.142,-0.117
0.22,0.01,-0.049,-0.059,0.02,0.034,-0.054,-0.107,-0.122,-0.117,-0.102,-0.142,-0.117
0.222,0.0,-0.044,-0.044,0.024,0.02,-0.044,-0.107,-0.122,-0.117,-0.102,-0.142,-0.127
0.224,0.0,-0.049,-0.049,0.024,0.024,-0.049,-0.117,-0.122,-0.112,-0.093,-0.142,-0.107
0.226,0.005,-0.049,-0.054,0.024,0.029,-0.054,-0.112,-0.122,-0.112,-0.093,-0.142,-0.107
0.228,0.005,-0.059,-0.063,0.029,0.034,-0.063,-0.112,-0.127,-0.122,-0.102,-0.142,-0.117
0.23,0.005,-0.068,-0.073,0.034,0.039,-0.073,-0.117,-0.127,-0.127,-0.107,-0.151,-0.117
0.232,-0.005,-0.068,-0.063,0.039,0.029,-0.068,-0.107,-0.137,-0.132,-0.107,-0.156,-0.122
0.234,-0.005,-0.068,-0.063,0.039,0.029,-0.068,-0.107,-0.137,-0.132,-0.107,-0.156,-0.122
0.236,-0.015,-0.073,-0.059,0.044,0.02,-0.068,-0.098,-0.132,-0.132,-0.107,-0.151,-0.122
0.238,-0.005,-0.073,-0.068,0.039,0.029,-0.073,-0.093,-0.122,-0.117,-0.107,-0.151,-0.122
0.24,-0.015,-0.044,-0.029,0.029,0.005,-0.039,-0.088,-0.107,-0.117,-0.098,-0.156,-0.117
0.242,0.01,-0.073,-0.083,0.034,0.044,-0.078,-0.073,-0.083,-0.098,-0.107,-0.156,-0.127
0.244,0.005,-0.088,-0.093,0.044,0.049,-0.093,-0.044,-0.029,-0.073,-0.107,-0.171,-0.137
0.246,-0.034,-0.117,-0.083,0.078,0.024,-0.102,0.005,0.034,-0.039,-0.107,-0.181,-0.156
0.248,-0.054,-0.137,-0.083,0.098,0.015,-0.112,0.029,0.083,-0.01,-0.107,-0.205,-0.19
0.25,-0.044,-0.117,-0.073,0.083,0.015,-0.098,0.044,0.107,0.01,-0.107,-0.22,-0.21
0.252,-0.034,-0.107,-0.073,0.073,0.02,-0.093,0.073,0.151,0.034,-0.098,-0.22,-0.22
0.254,-0.024,-0.127,-0.102,0.078,0.039,-0.117,0.117,0.205,0.078,-0.088,-0.22,-0.229
0.256,0.0,-0.088,-0.088,0.044,0.044,-0.088,0.127,0.244,0.117,-0.078,-0.21,-0.215
0.258,0.02,-0.059,-0.078,0.02,0.049,-0.068,0.142,0.288,0.142,-0.049,-0.176,-0.185
0.26,0.005,-0.049,-0.054,0.024,0.029,-0.054,0.156,0.332,0.185,-0.005,-0.127,-0.127
0.262,0.0,0.005,0.005,0.0,-0.005,0.005,0.156,0.361,0.234,0.054,-0.059,-0.063
0.264,0.049,0.039,-0.01,-0.044,0.029,0.015,0.151,0.4,0.288,0.132,0.039,0.029
0.266,0.083,0.039,-0.044,-0.059,0.063,-0.005,0.161,0.449,0.376,0.254,0.185,0.156
0.268,0.102,0.098,-0.005,-0.098,0.054,0.044,0.166,0.454,0.444,0.39,0.346,0.307
0.27,0.151,0.176,0.024,-0.161,0.063,0.098,0.156,0.41,0.483,0.512,0.517,0.464
0.272,0.215,0.215,0.0,-0.215,0.107,0.107,0.146,0.39,0.527,0.644,0.717,0.625
0.274,0.249,0.288,0.039,-0.268,0.102,0.161,0.166,0.376,0.59,0.805,0.917,0.791
0.276,0.254,0.39,0.137,-0.322,0.059,0.264,0.19,0.307,0.59,0.937,1.093,0.937
0.278,0.268,0.488,0.22,-0.376,0.024,0.351,0.19,0.215,0.547,1.039,1.254,1.088
0.28,0.307,0.586,0.278,-0.444,0.015,0.429,0.181,0.107,0.488,1.147,1.425,1.254
0.282,0.371,0.727,0.356,-0.547,0.005,0.542,0.117,-0.107,0.356,1.196,1.547,1.405
0.284,0.4,0.883,0.483,-0.639,-0.044,0.683,-0.02,-0.4,0.142,1.196,1.596,1.498
0.286,0.351,0.942,0.59,-0.644,-0.122,0.766,-0.146,-0.659,-0.044,1.161,1.586,1.488
0.288,0.293,0.854,0.561,-0.571,-0.137,0.708,-0.181,-0.776,-0.166,1.083,1.488,1.391
0.29,0.249,0.698,0.449,-0.473,-0.102,0.571,-0.171,-0.805,-0.264,0.952,1.342,1.244
0.292,0.19,0.537,0.346,-0.361,-0.078,0.439,-0.171,-0.82,-0.395,0.795,1.157,1.059
0.294,0.107,0.376,0.268,-0.239,-0.083,0.322,-0.195,-0.888,-0.556,0.595,0.903,0.81
0.296,0.024,0.268,0.244,-0.146,-0.112,0.254,-0.298,-0.961,-0.717,0.332,0.586,0.551
0.298,-0.034,0.181,0.215,-0.073,-0.127,0.195,-0.464,-0.961,-0.81,0.083,0.293,0.322
0.3,-0.059,0.073,0.132,-0.005,-0.098,0.102,-0.566,-0.888,-0.854,-0.185,-0.029,0.083
0.302,-0.054,-0.02,0.034,0.039,-0.044,0.005,-0.6,-0.82,-0.908,-0.464,-0.4,-0.19
0.304,-0.068,-0.102,-0.034,0.088,-0.02,-0.068,-0.615,-0.795,-0.952,-0.669,-0.63,-0.356
0.306,-0.078,-0.185,-0.107,0.132,0.015,-0.146,-0.625,-0.747,-0.908,-0.669,-0.61,-0.346
0.308,-0.044,-0.21,-0.166,0.127,0.059,-0.19,-0.595,-0.664,-0.81,-0.571,-0.508,-0.298
0.31,0.0,-0.185,-0.185,0.093,0.093,-0.185,-0.542,-0.6,-0.742,-0.527,-0.473,-0.293
0.312,0.005,-0.2,-0.205,0.098,0.102,-0.205,-0.483,-0.512,-0.659,-0.483,-0.434,-0.268
0.314,0.005,-0.185,-0.19,0.093,0.098,-0.19,-0.39,-0.376,-0.517,-0.381,-0.342,-0.205
0.316,0.005,-0.122,-0.127,0.059,0.063,-0.127,-0.298,-0.264,-0.386,-0.288,-0.268,-0.166
0.318,-0.005,-0.117,-0.112,0.063,0.054,-0.117,-0.234,-0.19,-0.303,-0.249,-0.249,-0.161
0.32,-0.024,-0.146,-0.122,0.088,0.049,-0.137,-0.176,-0.151,-0.239,-0.215,-0.224,-0.142
0.322,-0.054,-0.142,-0.088,0.098,0.015,-0.117,-0.132,-0.117,-0.19,-0.185,-0.215,-0.137
0.324,-0.054,-0.102,-0.049,0.078,-0.005,-0.078,-0.107,-0.093,-0.161,-0.171,-0.215,-0.137
0.326,-0.054,-0.083,-0.029,0.068,-0.015,-0.059,-0.063,-0.063,-0.132,-0.151,-0.195,-0.127
0.328,-0.034,-0.073,-0.039,0.054,0.0,-0.059,-0.024,-0.044,-0.102,-0.117,-0.171,-0.107
0.33,-0.02,-0.034,-0.015,0.029,-0.005,-0.024,-0.02,-0.044,-0.112,-0.107,-0.161,-0.102
0.332,-0.02,-0.039,-0.02,0.029,0.0,-0.029,-0.02,-0.034,-0.102,-0.098,-0.146,-0.093
0.334,-0.02,-0.029,-0.01,0.024,-0.005,-0.02,-0.024,-0.029,-0.102,-0.098,-0.146,-0.098
0.336,-0.044,-0.059,-0.015,0.054,-0.015,-0.039,-0.024,-0.02,-0.098,-0.098,-0.142,-0.098
0.338,-0.063,-0.068,-0.005,0.068,-0.029,-0.039,-0.015,-0.005,-0.078,-0.098,-0.142,-0.107
0.34,-0.039,-0.078,-0.039,0.059,0.0,-0.059,-0.01,0.005,-0.054,-0.088,-0.132,-0.093
0.342,-0.034,-0.083,-0.049,0.059,0.005,-0.068,0.005,0.005,-0.029,-0.083,-0.132,-0.088
0.344,-0.039,-0.088,-0.049,0.063,0.005,-0.068,0.015,0.005,-0.02,-0.073,-0.127,-0.083
0.346,-0.034,-0.088,-0.054,0.063,0.01,-0.073,0.034,0.01,-0.015,-0.068,-0.127,-0.078
0.348,-0.054,-0.083,-0.029,0.068,-0.015,-0.059,0.039,0.0,-0.02,-0.073,-0.122,-0.073
0.35,-0.063,-0.063,0.0,0.063,-0.034,-0.034,0.024,0.0,-0.034,-0.073,-0.127,-0.068
0.352,-0.073,-0.059,0.015,0.068,-0.044,-0.024,0.02,0.0,-0.044,-0.073,-0.132,-0.073
0.354,-0.078,-0.054,0.024,0.068,-0.054,-0.015,0.015,0.0,-0.049,-0.073,-0.137,-0.078
0.356,-0.068,-0.073,-0.005,0.073,-0.034,-0.039,0.02,0.005,-0.039,-0.078,-0.127,-0.078
0.358,-0.068,-0.083,-0.015,0.078,-0.029,-0.049,0.02,0.005,-0.039,-0.078,-0.127,-0.083
0.36,-0.073,-0.083,-0.01,0.078,-0.034,-0.049,0.024,0.01,-0.024,-0.078,-0.127,-0.083
0.362,-0.073,-0.112,-0.039,0.093,-0.02,-0.078,0.029,0.015,-0.01,-0.068,-0.122,-0.078
0.364,-0.073,-0.088,-0.015,0.083,-0.029,-0.054,0.02,0.005,-0.02,-0.078,-0.132,-0.088
0.366,-0.073,-0.059,0.015,0.068,-0.044,-0.024,0.02,-0.005,-0.02,-0.078,-0.137,-0.088
0.368,-0.073,-0.044,0.029,0.059,-0.054,-0.01,0.02,-0.005,-0.02,-0.078,-0.137,-0.093
0.37,-0.073,-0.029,0.044,0.054,-0.059,0.005,0.02,-0.005,-0.029,-0.078,-0.137,-0.093
0.372,-0.078,-0.049,0.029,0.063,-0.054,-0.01,0.029,0.01,-0.02,-0.073,-0.132,-0.088
0.374,-0.078,-0.059,0.02,0.068,-0.049,-0.02,0.034,0.015,-0.02,-0.068,-0.127,-0.078
0.376,-0.083,-0.068,0.015,0.078,-0.049,-0.029,0.044,0.029,-0.02,-0.059,-0.117,-0.073
0.378,-0.098,-0.078,0.02,0.088,-0.059,-0.029,0.049,0.039,-0.01,-0.049,-0.107,-0.068
0.38,-0.093,-0.088,0.005,0.093,-0.049,-0.044,0.039,0.039,-0.005,-0.059,-0.117,-0.059
0.382,-0.088,-0.093,-0.005,0.093,-0.044,-0.049,0.044,0.039,0.005,-0.059,-0.112,-0.059
0.384,-0.083,-0.088,-0.005,0.088,-0.039,-0.049,0.049,0.039,0.015,-0.059,-0.112,-0.059
0.386,-0.073,-0.093,-0.02,0.083,-0.029,-0.059,0.049,0.039,0.02,-0.054,-0.112,-0.054
0.388,-0.083,-0.078,0.005,0.083,-0.044,-0.039,0.049,0.049,0.015,-0.049,-0.107,-0.059
0.39,-0.083,-0.068,0.015,0.078,-0.049,-0.029,0.044,0.044,0.015,-0.049,-0.107,-0.059
0.392,-0.083,-0.059,0.024,0.073,-0.054,-0.02,0.044,0.044,0.005,-0.049,-0.112,-0.059
0.394,-0.078,-0.054,0.024,0.068,-0.054,-0.015,0.044,0.049,0.015,-0.049,-0.112,-0.059
0.396,-0.083,-0.068,0.015,0.078,-0.049,-0.029,0.044,0.049,0.005,-0.049,-0.117,-0.068
0.398,-0.088,-0.073,0.015,0.083,-0.054,-0.029,0.049,0.049,0.01,-0.049,-0.117,-0.068
0.4,-0.093,-0.073,0.02,0.083,-0.059,-0.029,0.049,0.049,0.01,-0.049,-0.117,-0.068
0.402,-0.102,-0.063,0.039,0.083,-0.073,-0.015,0.049,0.049,0.01,-0.049,-0.117,-0.068
0.404,-0.093,-0.044,0.049,0.068,-0.073,0.0,0.059,0.049,0.02,-0.034,-0.107,-0.063
0.406,-0.083,-0.039,0.044,0.063,-0.063,0.0,0.059,0.054,0.024,-0.034,-0.102,-0.059
0.408,-0.083,-0.054,0.029,0.068,-0.059,-0.015,0.063,0.059,0.029,-0.029,-0.093,-0.049
0.41,-0.063,-0.049,0.015,0.059,-0.039,-0.02,0.063,0.059,0.039,-0.029,-0.093,-0.044
0.412,-0.073,-0.039,0.034,0.059,-0.054,-0.005,0.073,0.068,0.029,-0.02,-0.093,-0.044
0.414,-0.083,-0.059,0.024,0.073,-0.054,-0.02,0.068,0.078,0.034,-0.02,-0.093,-0.039
0.416,-0.088,-0.063,0.024,0.078,-0.059,-0.02,0.068,0.078,0.039,-0.02,-0.083,-0.039
0.418,-0.098,-0.068,0.029,0.083,-0.063,-0.02,0.078,0.078,0.039,-0.02,-0.083,-0.039
0.42,-0.093,-0.049,0.044,0.073,-0.068,-0.005,0.068,0.073,0.044,-0.02,-0.083,-0.034
0.422,-0.088,-0.063,0.024,0.078,-0.059,-0.02,0.068,0.083,0.049,-0.01,-0.078,-0.034
0.424,-0.083,-0.054,0.029,0.068,-0.059,-0.015,0.068,0.083,0.049,-0.01,-0.078,-0.034
0.426,-0.083,-0.054,0.029,0.068,-0.059,-0.015,0.063,0.078,0.049,-0.015,-0.078,-0.039
0.428,-0.093,-0.063,0.029,0.078,-0.063,-0.02,0.073,0.088,0.049,-0.005,-0.078,-0.029
0.43,-0.093,-0.063,0.029,0.078,-0.063,-0.02,0.073,0.098,0.059,0.0,-0.073,-0.024
0.432,-0.098,-0.044,0.054,0.073,-0.078,0.005,0.068,0.098,0.059,0.005,-0.073,-0.024
0.434,-0.107,-0.044,0.063,0.078,-0.088,0.01,0.059,0.098,0.063,0.005,-0.068,-0.02
0.436,-0.093,-0.044,0.049,0.068,-0.073,0.0,0.078,0.107,0.073,0.0,-0.068,-0.029
0.438,-0.088,-0.039,0.049,0.063,-0.068,0.005,0.078,0.107,0.078,0.005,-0.063,-0.024
0.44,-0.083,-0.034,0.049,0.059,-0.068,0.005,0.078,0.112,0.078,0.005,-0.063,-0.024
0.442,-0.078,-0.029,0.049,0.054,-0.063,0.01,0.083,0.112,0.078,0.005,-0.059,-0.024
0.444,-0.068,0.0,0.068,0.034,-0.068,0.034,0.073,0.102,0.083,0.005,-0.059,-0.024
0.446,-0.068,0.0,0.068,0.034,-0.068,0.034,0.073,0.107,0.088,0.01,-0.059,-0.024
0.448,-0.073,0.0,0.073,0.039,-0.073,0.034,0.073,0.117,0.093,0.015,-0.054,-0.02
0.45,-0.078,-0.005,0.073,0.044,-0.078,0.034,0.073,0.117,0.093,0.015,-0.054,-0.02
0.452,-0.088,-0.015,0.073,0.054,-0.083,0.029,0.068,0.122,0.093,0.015,-0.059,-0.01
0.454,-0.088,-0.034,0.054,0.063,-0.073,0.01,0.073,0.132,0.093,0.015,-0.049,-0.01
0.456,-0.068,-0.034,0.034,0.054,-0.054,0.0,0.078,0.146,0.107,0.024,-0.044,0.0
0.458,-0.068,-0.034,0.034,0.054,-0.054,0.0,0.083,0.156,0.107,0.024,-0.044,0.0
0.46,-0.073,-0.044,0.029,0.059,-0.054,-0.01,0.078,0.146,0.107,0.024,-0.044,-0.01
0.462,-0.078,-0.049,0.029,0.063,-0.054,-0.01,0.083,0.156,0.122,0.029,-0.034,-0.005
0.464,-0.083,-0.049,0.034,0.068,-0.059,-0.01,0.083,0.161,0.127,0.034,-0.034,-0.005
0.466,-0.088,-0.049,0.039,0.068,-0.063,-0.005,0.083,0.161,0.127,0.034,-0.029,-0.005
0.468,-0.073,-0.034,0.039,0.054,-0.059,0.0,0.073,0.166,0.127,0.039,-0.015,0.01
0.47,-0.073,-0.015,0.059,0.044,-0.068,0.02,0.073,0.171,0.137,0.044,-0.015,0.015
0.472,-0.059,-0.01,0.049,0.034,-0.054,0.02,0.073,0.181,0.137,0.049,-0.015,0.015
0.474,-0.068,0.005,0.073,0.034,-0.073,0.039,0.073,0.185,0.137,0.063,-0.015,0.015
0.476,-0.059,-0.01,0.049,0.034,-0.054,0.02,0.068,0.19,0.142,0.063,-0.01,0.02
0.478,-0.059,-0.015,0.044,0.039,-0.054,0.015,0.068,0.195,0.146,0.059,-0.015,0.02
0.48,-0.054,-0.02,0.034,0.039,-0.044,0.005,0.073,0.2,0.146,0.059,-0.015,0.02
0.482,-0.054,-0.024,0.029,0.039,-0.044,0.0,0.073,0.215,0.156,0.059,-0.015,0.029
0.484,-0.039,-0.01,0.029,0.024,-0.034,0.01,0.068,0.205,0.156,0.054,-0.015,0.029
0.486,-0.02,-0.005,0.015,0.015,-0.02,0.005,0.068,0.21,0.161,0.059,-0.01,0.024
0.488,-0.029,0.0,0.029,0.015,-0.029,0.015,0.068,0.215,0.166,0.063,-0.01,0.02
0.49,-0.034,0.0,0.034,0.02,-0.034,0.015,0.068,0.22,0.166,0.068,-0.01,0.015
0.492,-0.034,-0.01,0.024,0.024,-0.029,0.005,0.059,0.22,0.176,0.059,-0.015,0.02
0.494,-0.034,-0.01,0.024,0.024,-0.029,0.005,0.059,0.224,0.181,0.059,-0.015,0.024
0.496,-0.029,-0.01,0.02,0.02,-0.024,0.005,0.059,0.239,0.185,0.068,-0.005,0.029
0.498,-0.02,0.005,0.024,0.01,-0.024,0.015,0.059,0.254,0.195,0.073,-0.005,0.039
0.5,-0.005,0.029,0.034,-0.01,-0.02,0.029,0.063,0.264,0.2,0.078,0.0,0.049
0.502,0.0,0.02,0.02,-0.01,-0.01,0.02,0.063,0.278,0.205,0.083,0.015,0.054
0.504,0.0,0.024,0.024,-0.01,-0.015,0.024,0.063,0.288,0.21,0.083,0.024,0.054
0.506,0.005,0.034,0.029,-0.02,-0.015,0.029,0.063,0.298,0.229,0.088,0.034,0.063
0.508,0.015,0.034,0.02,-0.024,-0.005,0.024,0.073,0.307,0.234,0.098,0.029,0.059
0.51,0.015,0.034,0.02,-0.024,-0.005,0.024,0.078,0.317,0.244,0.102,0.044,0.063
0.512,0.02,0.044,0.024,-0.029,-0.005,0.034,0.078,0.327,0.249,0.107,0.044,0.068
0.514,0.024,0.054,0.029,-0.039,-0.005,0.039,0.068,0.327,0.249,0.107,0.044,0.068
0.516,0.02,0.039,0.02,-0.029,0.0,0.029,0.068,0.351,0.264,0.112,0.063,0.078
0.518,0.015,0.039,0.024,-0.024,-0.005,0.029,0.073,0.356,0.268,0.122,0.063,0.088
0.52,0.01,0.039,0.029,-0.024,-0.01,0.034,0.073,0.366,0.273,0.132,0.068,0.088
0.522,0.005,0.034,0.029,-0.02,-0.015,0.029,0.068,0.366,0.283,0.137,0.078,0.088
0.524,0.024,0.039,0.015,-0.029,0.005,0.024,0.059,0.371,0.273,0.127,0.078,0.088
0.526,0.034,0.059,0.024,-0.044,0.005,0.039,0.059,0.376,0.273,0.127,0.073,0.093
0.528,0.049,0.063,0.015,-0.054,0.015,0.039,0.054,0.376,0.278,0.127,0.068,0.093
0.53,0.059,0.083,0.024,-0.068,0.015,0.054,0.054,0.376,0.273,0.127,0.063,0.093
0.532,0.054,0.083,0.029,-0.068,0.01,0.054,0.054,0.39,0.283,0.137,0.088,0.107
0.534,0.054,0.078,0.024,-0.063,0.015,0.049,0.059,0.405,0.288,0.146,0.102,0.117
0.536,0.054,0.078,0.024,-0.063,0.015,0.049,0.059,0.405,0.298,0.151,0.102,0.132
0.538,0.054,0.088,0.034,-0.068,0.01,0.059,0.049,0.41,0.303,0.156,0.107,0.132
0.54,0.054,0.098,0.044,-0.073,0.005,0.068,0.049,0.4,0.293,0.156,0.102,0.122
0.542,0.073,0.098,0.024,-0.083,0.024,0.059,0.049,0.405,0.298,0.156,0.107,0.122
0.544,0.073,0.107,0.034,-0.088,0.02,0.068,0.044,0.405,0.298,0.156,0.107,0.127
0.546,0.073,0.107,0.034,-0.088,0.02,0.068,0.044,0.395,0.298,0.156,0.107,0.127
0.548,0.054,0.093,0.039,-0.073,0.005,0.063,0.054,0.415,0.307,0.156,0.122,0.132
0.55,0.044,0.093,0.049,-0.068,-0.005,0.068,0.054,0.415,0.312,0.161,0.127,0.137
0.552,0.059,0.112,0.054,-0.083,0.0,0.083,0.054,0.415,0.312,0.171,0.127,0.146
0.554,0.049,0.112,0.063,-0.078,-0.01,0.088,0.049,0.405,0.303,0.161,0.127,0.146
0.556,0.054,0.107,0.054,-0.078,0.0,0.078,0.024,0.395,0.293,0.171,0.132,0.156
0.558,0.059,0.112,0.054,-0.083,0.0,0.083,0.024,0.395,0.293,0.171,0.132,0.161
0.56,0.063,0.112,0.049,-0.088,0.005,0.078,0.029,0.39,0.293,0.171,0.146,0.171
0.562,0.063,0.102,0.039,-0.083,0.01,0.068,0.029,0.39,0.293,0.171,0.146,0.176
0.564,0.073,0.112,0.039,-0.093,0.015,0.073,0.024,0.395,0.298,0.171,0.146,0.181
0.566,0.073,0.127,0.054,-0.098,0.01,0.088,0.024,0.386,0.293,0.166,0.146,0.181
0.568,0.073,0.137,0.063,-0.102,0.005,0.098,0.024,0.376,0.283,0.161,0.142,0.181
0.57,0.073,0.137,0.063,-0.102,0.005,0.098,0.024,0.366,0.278,0.161,0.142,0.181
0.572,0.073,0.142,0.068,-0.107,0.0,0.102,0.024,0.371,0.278,0.166,0.142,0.171
0.574,0.068,0.137,0.068,-0.102,0.0,0.102,0.02,0.361,0.268,0.166,0.142,0.176
0.576,0.068,0.142,0.073,-0.102,-0.005,0.107,0.024,0.351,0.268,0.166,0.142,0.176
0.578,0.068,0.137,0.068,-0.102,0.0,0.102,0.024,0.342,0.259,0.171,0.142,0.176
0.58,0.078,0.146,0.068,-0.112,0.005,0.107,0.015,0.327,0.249,0.166,0.142,0.181
0.582,0.068,0.137,0.068,-0.102,0.0,0.102,0.015,0.322,0.239,0.161,0.146,0.181
0.584,0.068,0.127,0.059,-0.098,0.005,0.093,0.01,0.307,0.234,0.151,0.146,0.185
0.586,0.068,0.127,0.059,-0.098,0.005,0.093,0.01,0.298,0.224,0.146,0.137,0.195
0.588,0.068,0.102,0.034,-0.083,0.015,0.068,0.01,0.288,0.224,0.146,0.137,0.185
0.59,0.063,0.093,0.029,-0.078,0.015,0.059,0.01,0.268,0.21,0.146,0.137,0.185
0.592,0.059,0.088,0.029,-0.073,0.015,0.059,0.01,0.249,0.19,0.137,0.122,0.185
0.594,0.049,0.088,0.039,-0.068,0.005,0.063,0.005,0.234,0.176,0.127,0.117,0.176
0.596,0.044,0.073,0.029,-0.059,0.005,0.049,-0.005,0.215,0.166,0.117,0.112,0.161
0.598,0.039,0.083,0.044,-0.059,-0.005,0.063,-0.005,0.2,0.151,0.112,0.107,0.156
0.6,0.054,0.088,0.034,-0.068,0.01,0.059,-0.005,0.185,0.142,0.107,0.102,0.151
0.602,0.059,0.093,0.034,-0.073,0.01,0.063,-0.01,0.166,0.132,0.102,0.083,0.146
0.604,0.044,0.088,0.044,-0.063,0.0,0.063,0.0,0.151,0.117,0.093,0.073,0.142
0.606,0.044,0.088,0.044,-0.063,0.0,0.063,0.0,0.142,0.107,0.093,0.059,0.142
0.608,0.054,0.088,0.034,-0.068,0.01,0.059,0.005,0.127,0.098,0.088,0.059,0.137
0.61,0.039,0.083,0.044,-0.059,-0.005,0.063,0.005,0.117,0.093,0.083,0.054,0.132
0.612,0.039,0.083,0.044,-0.059,-0.005,0.063,0.0,0.098,0.073,0.068,0.039,0.117
0.614,0.029,0.078,0.049,-0.054,-0.01,0.063,0.0,0.073,0.054,0.068,0.029,0.112
0.616,0.029,0.078,0.049,-0.054,-0.01,0.063,0.0,0.063,0.049,0.054,0.024,0.102
0.618,0.039,0.078,0.039,-0.059,0.0,0.059,0.0,0.054,0.039,0.054,0.01,0.098
0.62,0.034,0.083,0.049,-0.059,-0.01,0.063,0.0,0.044,0.029,0.049,0.015,0.098
0.622,0.029,0.068,0.039,-0.049,-0.005,0.054,0.0,0.034,0.029,0.049,0.01,0.088
0.624,0.02,0.054,0.034,-0.034,-0.01,0.044,0.005,0.029,0.029,0.044,0.0,0.078
0.626,0.02,0.059,0.039,-0.039,-0.01,0.049,0.005,0.024,0.029,0.034,-0.01,0.073
0.628,0.02,0.039,0.02,-0.029,0.0,0.029,-0.005,0.01,0.01,0.02,-0.015,0.054
0.63,0.02,0.029,0.01,-0.024,0.005,0.02,-0.005,0.005,0.005,0.015,-0.02,0.044
0.632,0.02,0.02,0.0,-0.02,0.01,0.01,-0.005,-0.01,-0.015,0.01,-0.029,0.034
0.634,0.02,0.01,-0.01,-0.015,0.015,0.0,-0.005,-0.02,-0.024,0.005,-0.044,0.02
0.636,0.0,0.005,0.005,0.0,-0.005,0.005,-0.005,-0.024,-0.029,-0.01,-0.049,0.024
0.638,-0.01,-0.005,0.005,0.01,-0.01,0.0,-0.005,-0.029,-0.029,-0.01,-0.054,0.015
0.64,-0.015,0.015,0.029,0.0,-0.024,0.02,-0.005,-0.034,-0.039,-0.015,-0.059,0.015
0.642,-0.024,0.005,0.029,0.01,-0.029,0.015,0.0,-0.039,-0.044,-0.015,-0.063,0.01
0.644,-0.02,0.015,0.034,0.005,-0.029,0.024,0.0,-0.049,-0.034,-0.02,-0.068,0.02
0.646,-0.015,0.02,0.034,0.0,-0.024,0.024,0.0,-0.054,-0.039,-0.024,-0.073,0.015
0.648,-0.015,0.015,0.029,0.0,-0.024,0.02,0.0,-0.054,-0.044,-0.024,-0.073,0.005
0.65,-0.02,0.005,0.024,0.01,-0.024,0.015,0.0,-0.054,-0.044,-0.024,-0.083,0.005
0.652,0.0,-0.005,-0.005,0.005,0.0,-0.005,-0.005,-0.063,-0.054,-0.034,-0.083,-0.005
0.654,0.005,-0.005,-0.01,0.0,0.005,-0.01,-0.005,-0.063,-0.059,-0.034,-0.083,-0.005
0.656,0.0,-0.01,-0.01,0.005,0.005,-0.01,-0.01,-0.073,-0.059,-0.049,-0.088,-0.015
0.658,-0.005,-0.01,-0.005,0.01,0.0,-0.01,-0.02,-0.078,-0.063,-0.054,-0.093,-0.024
0.66,0.0,-0.01,-0.01,0.005,0.005,-0.01,-0.01,-0.078,-0.068,-0.044,-0.102,-0.024
0.662,-0.005,-0.015,-0.01,0.01,0.0,-0.015,0.0,-0.078,-0.068,-0.034,-0.098,-0.024
0.664,-0.01,-0.029,-0.02,0.02,0.005,-0.024,0.0,-0.073,-0.063,-0.034,-0.093,-0.024
0.666,-0.005,-0.02,-0.015,0.015,0.005,-0.02,0.005,-0.063,-0.063,-0.029,-0.093,-0.015
0.668,0.01,-0.015,-0.024,0.005,0.015,-0.02,-0.005,-0.054,-0.063,-0.029,-0.093,-0.005
0.67,0.005,-0.02,-0.024,0.01,0.015,-0.024,-0.01,-0.063,-0.068,-0.039,-0.102,-0.015
0.672,-0.005,-0.015,-0.01,0.01,0.0,-0.015,-0.01,-0.068,-0.073,-0.044,-0.107,-0.029
0.674,0.01,-0.01,-0.02,0.0,0.015,-0.015,-0.01,-0.068,-0.073,-0.044,-0.107,-0.029
0.676,0.01,-0.029,-0.039,0.01,0.024,-0.034,0.0,-0.059,-0.063,-0.034,-0.102,-0.01
0.678,0.01,-0.029,-0.039,0.01,0.024,-0.034,0.0,-0.059,-0.063,-0.034,-0.098,-0.01
0.68,0.01,-0.024,-0.034,0.01,0.02,-0.029,-0.005,-0.059,-0.063,-0.034,-0.093,-0.015
0.682,0.0,-0.02,-0.02,0.01,0.01,-0.02,-0.005,-0.059,-0.063,-0.034,-0.093,-0.015
0.684,0.01,-0.02,-0.029,0.005,0.02,-0.024,0.0,-0.068,-0.063,-0.034,-0.102,-0.024
0.686,0.01,-0.02,-0.029,0.005,0.02,-0.024,0.0,-0.068,-0.063,-0.029,-0.102,-0.024
0.688,0.01,-0.02,-0.029,0.005,0.02,-0.024,0.01,-0.063,-0.063,-0.029,-0.102,-0.02
0.69,0.01,-0.024,-0.034,0.01,0.02,-0.029,0.015,-0.059,-0.063,-0.029,-0.102,-0.02
0.692,0.0,-0.034,-0.034,0.02,0.015,-0.034,0.0,-0.068,-0.068,-0.049,-0.122,-0.034
0.694,0.0,-0.034,-0.034,0.02,0.015,-0.034,-0.005,-0.068,-0.068,-0.054,-0.112,-0.039
0.696,0.0,-0.034,-0.034,0.02,0.015,-0.034,-0.01,-0.068,-0.073,-0.059,-0.112,-0.039
0.698,0.01,-0.024,-0.034,0.01,0.02,-0.029,-0.015,-0.068,-0.078,-0.063,-0.112,-0.039
0.7,0.01,-0.01,-0.02,0.0,0.015,-0.015,-0.01,-0.059,-0.068,-0.059,-0.117,-0.039
0.702,0.005,-0.034,-0.039,0.015,0.02,-0.039,-0.005,-0.059,-0.068,-0.054,-0.117,-0.034
0.704,-0.015,-0.029,-0.015,0.024,0.0,-0.024,0.0,-0.054,-0.068,-0.054,-0.112,-0.029
0.706,-0.005,-0.01,-0.005,0.01,0.0,-0.01,0.005,-0.054,-0.068,-0.049,-0.112,-0.024
0.708,0.005,-0.02,-0.024,0.01,0.015,-0.024,-0.005,-0.054,-0.059,-0.054,-0.117,-0.034
0.71,0.015,-0.024,-0.039,0.005,0.024,-0.034,-0.005,-0.049,-0.059,-0.054,-0.117,-0.034
0.712,0.02,-0.024,-0.044,0.005,0.029,-0.034,0.0,-0.039,-0.054,-0.049,-0.117,-0.034
0.714,0.024,-0.02,-0.044,0.0,0.034,-0.034,0.01,-0.039,-0.054,-0.049,-0.107,-0.024
0.716,0.015,-0.029,-0.044,0.01,0.029,-0.039,-0.005,-0.049,-0.059,-0.059,-0.117,-0.039
0.718,0.005,-0.029,-0.034,0.015,0.02,-0.034,-0.01,-0.049,-0.063,-0.059,-0.127,-0.039
0.72,0.015,-0.029,-0.044,0.01,0.029,-0.039,-0.015,-0.049,-0.063,-0.054,-0.132,-0.039
0.722,0.015,-0.034,-0.049,0.01,0.029,-0.044,-0.015,-0.044,-0.063,-0.054,-0.132,-0.039
0.724,0.015,-0.034,-0.049,0.01,0.029,-0.044,-0.005,-0.034,-0.063,-0.054,-0.127,-0.034
0.726,0.005,-0.039,-0.044,0.02,0.024,-0.044,-0.005,-0.024,-0.059,-0.054,-0.127,-0.034
0.728,0.005,-0.034,-0.039,0.015,0.02,-0.039,0.0,-0.024,-0.059,-0.054,-0.122,-0.044
0.73,0.01,-0.02,-0.029,0.005,0.02,-0.024,0.0,-0.024,-0.059,-0.054,-0.117,-0.044
0.732,0.024,0.02,-0.005,-0.02,0.015,0.005,-0.005,-0.024,-0.059,-0.063,-0.122,-0.054
0.734,0.024,0.0,-0.024,-0.01,0.024,-0.015,-0.005,-0.02,-0.049,-0.063,-0.122,-0.049
0.736,0.024,-0.01,-0.034,-0.005,0.029,-0.024,0.0,-0.024,-0.044,-0.059,-0.127,-0.044
0.738,0.02,0.015,-0.005,-0.015,0.01,0.005,0.0,-0.034,-0.044,-0.059,-0.142,-0.044
0.74,0.015,-0.005,-0.02,-0.005,0.015,-0.015,0.0,-0.029,-0.034,-0.049,-0.137,-0.034
0.742,0.01,-0.029,-0.039,0.01,0.024,-0.034,0.0,-0.02,-0.034,-0.049,-0.122,-0.034
0.744,-0.005,-0.039,-0.034,0.024,0.015,-0.039,0.0,-0.015,-0.034,-0.049,-0.117,-0.029
0.746,0.0,-0.039,-0.039,0.02,0.02,-0.039,-0.01,-0.01,-0.034,-0.049,-0.122,-0.029
0.748,0.0,-0.049,-0.049,0.024,0.024,-0.049,0.0,-0.01,-0.034,-0.059,-0.132,-0.034
0.75,0.01,-0.049,-0.059,0.02,0.034,-0.054,0.005,-0.01,-0.039,-0.059,-0.127,-0.034
0.752,0.01,-0.034,-0.044,0.015,0.024,-0.039,0.005,-0.01,-0.039,-0.059,-0.122,-0.044
0.754,0.01,-0.024,-0.034,0.01,0.02,-0.029,0.005,-0.005,-0.039,-0.059,-0.117,-0.044
0.756,0.02,-0.029,-0.049,0.005,0.034,-0.039,0.01,0.0,-0.034,-0.049,-0.127,-0.054
0.758,0.015,-0.024,-0.039,0.005,0.024,-0.034,0.01,0.0,-0.029,-0.054,-0.127,-0.054
0.76,0.015,-0.02,-0.034,0.005,0.024,-0.029,0.005,0.0,-0.029,-0.054,-0.127,-0.049
0.762,0.005,-0.015,-0.02,0.005,0.01,-0.02,0.005,0.0,-0.029,-0.054,-0.127,-0.044
0.764,0.005,-0.01,-0.015,0.005,0.01,-0.015,0.0,-0.015,-0.039,-0.063,-0.132,-0.054
0.766,0.01,-0.01,-0.02,0.0,0.015,-0.015,0.0,-0.024,-0.039,-0.063,-0.137,-0.059
0.768,0.01,-0.01,-0.02,0.0,0.015,-0.015,-0.005,-0.015,-0.039,-0.063,-0.137,-0.059
0.77,0.005,-0.015,-0.02,0.005,0.01,-0.02,-0.01,-0.01,-0.039,-0.063,-0.137,-0.059
0.772,0.005,-0.024,-0.029,0.01,0.015,-0.029,-0.005,0.005,-0.024,-0.059,-0.127,-0.049
0.774,0.005,-0.034,-0.039,0.015,0.02,-0.039,0.0,0.01,-0.024,-0.054,-0.122,-0.044
0.776,0.005,-0.049,-0.054,0.024,0.029,-0.054,0.005,0.01,-0.02,-0.049,-0.117,-0.034
0.778,0.01,-0.059,-0.068,0.024,0.039,-0.063,0.01,0.015,-0.01,-0.049,-0.117,-0.029
0.78,0.01,-0.034,-0.044,0.015,0.024,-0.039,0.01,0.005,-0.015,-0.049,-0.127,-0.034
0.782,0.01,-0.024,-0.034,0.01,0.02,-0.029,0.015,0.01,-0.02,-0.044,-0.117,-0.034
0.784,0.005,-0.02,-0.024,0.01,0.015,-0.024,0.02,0.015,-0.02,-0.039,-0.112,-0.024
0.786,0.005,-0.024,-0.029,0.01,0.015,-0.029,0.02,0.015,-0.024,-0.039,-0.112,-0.024
0.788,0.01,-0.024,-0.034,0.01,0.02,-0.029,0.02,0.015,-0.02,-0.054,-0.112,-0.029
0.79,0.01,-0.02,-0.029,0.005,0.02,-0.024,0.01,0.01,-0.029,-0.059,-0.127,-0.024
0.792,0.01,-0.02,-0.029,0.005,0.02,-0.024,0.01,0.0,-0.029,-0.063,-0.137,-0.044
0.794,0.005,-0.02,-0.024,0.01,0.015,-0.024,0.01,0.0,-0.029,-0.063,-0.122,-0.049
0.796,-0.005,-0.039,-0.034,0.024,0.015,-0.039,0.01,0.005,-0.029,-0.054,-0.117,-0.039
0.798,-0.005,-0.039,-0.034,0.024,0.015,-0.039,0.01,0.005,-0.029,-0.054,-0.122,-0.034
0.8,0.0,-0.039,-0.039,0.02,0.02,-0.039,0.01,0.005,-0.029,-0.054,-0.117,-0.034
0.802,0.0,-0.039,-0.039,0.02,0.02,-0.039,0.015,0.0,-0.029,-0.054,-0.122,-0.034
0.804,0.0,-0.044,-0.044,0.024,0.02,-0.044,0.015,0.0,-0.049,-0.063,-0.122,-0.034
0.806,0.0,-0.044,-0.044,0.024,0.02,-0.044,0.015,0.0,-0.049,-0.059,-0.127,-0.034
0.808,-0.01,-0.059,-0.049,0.034,0.02,-0.054,0.015,0.0,-0.044,-0.059,-0.127,-0.034
0.81,-0.01,-0.059,-0.049,0.034,0.02,-0.054,0.015,0.0,-0.044,-0.063,-0.132,-0.034
0.812,-0.005,-0.044,-0.039,0.024,0.015,-0.044,0.005,0.0,-0.034,-0.068,-0.132,-0.039
0.814,0.0,-0.02,-0.02,0.01,0.01,-0.02,0.005,-0.015,-0.044,-0.068,-0.137,-0.039
0.816,0.0,-0.02,-0.02,0.01,0.01,-0.02,0.005,-0.015,-0.044,-0.063,-0.137,-0.039
0.818,0.005,-0.039,-0.044,0.02,0.024,-0.044,0.005,-0.015,-0.044,-0.059,-0.132,-0.029
0.82,0.015,-0.029,-0.044,0.01,0.029,-0.039,0.005,-0.01,-0.044,-0.054,-0.122,-0.029
0.822,0.005,-0.024,-0.029,0.01,0.015,-0.029,0.005,-0.01,-0.044,-0.054,-0.122,-0.029
0.824,-0.005,-0.02,-0.015,0.015,0.005,-0.02,0.005,-0.015,-0.049,-0.063,-0.137,-0.029
0.826,0.005,-0.01,-0.015,0.005,0.01,-0.015,0.01,-0.02,-0.049,-0.063,-0.137,-0.029
0.828,-0.005,-0.02,-0.015,0.015,0.005,-0.02,0.01,-0.02,-0.049,-0.059,-0.142,-0.029
0.83,-0.01,-0.029,-0.02,0.02,0.005,-0.024,0.005,-0.029,-0.054,-0.059,-0.137,-0.034
0.832,-0.01,-0.039,-0.029,0.024,0.01,-0.034,0.005,-0.029,-0.054,-0.063,-0.132,-0.034
0.834,-0.01,-0.054,-0.044,0.034,0.015,-0.049,0.005,-0.029,-0.054,-0.063,-0.132,-0.039
0.836,-0.029,-0.059,-0.029,0.044,0.0,-0.044,0.0,-0.034,-0.054,-0.068,-0.151,-0.049
0.838,-0.02,-0.039,-0.02,0.029,0.0,-0.029,0.0,-0.034,-0.054,-0.068,-0.151,-0.049
0.84,0.005,-0.029,-0.034,0.015,0.02,-0.034,0.0,-0.039,-0.059,-0.073,-0.146,-0.049
0.842,-0.01,-0.039,-0.029,0.024,0.01,-0.034,0.0,-0.044,-0.059,-0.073,-0.137,-0.049
0.844,0.0,-0.049,-0.049,0.024,0.024,-0.049,0.005,-0.049,-0.059,-0.063,-0.127,-0.044
0.846,0.005,-0.02,-0.024,0.01,0.015,-0.024,0.0,-0.044,-0.063,-0.063,-0.132,-0.039
0.848,0.01,-0.015,-0.024,0.005,0.015,-0.02,0.005,-0.039,-0.063,-0.063,-0.132,-0.039
0.85,0.005,-0.034,-0.039,0.015,0.02,-0.039,0.015,-0.034,-0.063,-0.063,-0.127,-0.034
0.852,-0.005,-0.039,-0.034,0.024,0.015,-0.039,0.01,-0.039,-0.073,-0.059,-0.132,-0.044
0.854,0.0,-0.039,-0.039,0.02,0.02,-0.039,0.005,-0.049,-0.073,-0.063,-0.137,-0.044
0.856,0.0,-0.039,-0.039,0.02,0.02,-0.039,0.0,-0.054,-0.073,-0.068,-0.142,-0.044
0.858,0.0,-0.029,-0.029,0.015,0.015,-0.029,0.0,-0.054,-0.068,-0.073,-0.146,-0.044
0.86,-0.005,-0.044,-0.039,0.024,0.015,-0.044,-0.01,-0.054,-0.068,-0.083,-0.151,-0.054
0.862,-0.01,-0.054,-0.044,0.034,0.015,-0.049,-0.01,-0.063,-0.078,-0.088,-0.161,-0.059
0.864,-0.015,-0.059,-0.044,0.039,0.015,-0.054,-0.015,-0.068,-0.083,-0.093,-0.161,-0.059
0.866,-0.015,-0.049,-0.034,0.034,0.01,-0.044,-0.02,-0.068,-0.088,-0.098,-0.166,-0.059
0.868,-0.02,-0.034,-0.015,0.029,-0.005,-0.024,-0.01,-0.059,-0.088,-0.088,-0.156,-0.054
0.87,-0.02,-0.034,-0.015,0.029,-0.005,-0.024,-0.005,-0.059,-0.083,-0.088,-0.156,-0.054
0.872,-0.015,-0.024,-0.01,0.02,-0.005,-0.02,0.0,-0.059,-0.078,-0.088,-0.151,-0.049
0.874,-0.015,-0.024,-0.01,0.02,-0.005,-0.02,0.005,-0.059,-0.073,-0.083,-0.146,-0.044
0.876,-0.015,-0.034,-0.02,0.024,0.0,-0.029,0.01,-0.044,-0.073,-0.068,-0.142,-0.024
0.878,-0.02,-0.039,-0.02,0.029,0.0,-0.029,0.01,-0.044,-0.068,-0.068,-0.142,-0.024
0.88,-0.024,-0.039,-0.015,0.034,-0.005,-0.029,0.01,-0.044,-0.068,-0.068,-0.142,-0.029
0.882,-0.034,-0.034,0.0,0.034,-0.02,-0.02,0.01,-0.054,-0.078,-0.068,-0.142,-0.039
0.884,-0.02,-0.049,-0.029,0.034,0.005,-0.039,0.0,-0.063,-0.088,-0.073,-0.156,-0.044
0.886,-0.015,-0.054,-0.039,0.034,0.01,-0.049,0.0,-0.059,-0.083,-0.073,-0.156,-0.034
0.888,-0.02,-0.063,-0.044,0.044,0.01,-0.054,0.005,-0.059,-0.083,-0.078,-0.151,-0.039
0.89,-0.024,-0.068,-0.044,0.049,0.01,-0.059,0.005,-0.059,-0.088,-0.093,-0.156,-0.054
0.892,-0.015,-0.049,-0.034,0.034,0.01,-0.044,-0.01,-0.068,-0.098,-0.093,-0.161,-0.059
0.894,-0.02,-0.034,-0.015,0.029,-0.005,-0.024,-0.01,-0.073,-0.098,-0.093,-0.166,-0.059
0.896,-0.02,-0.029,-0.01,0.024,-0.005,-0.02,-0.01,-0.078,-0.098,-0.093,-0.166,-0.054
0.898,-0.02,-0.024,-0.005,0.024,-0.01,-0.015,-0.005,-0.078,-0.093,-0.088,-0.166,-0.044
0.9,-0.024,-0.029,-0.005,0.029,-0.01,-0.02,0.01,-0.068,-0.078,-0.083,-0.156,-0.044
0.902,-0.034,-0.044,-0.01,0.039,-0.015,-0.029,0.01,-0.068,-0.078,-0.083,-0.156,-0.044
0.904,-0.039,-0.054,-0.015,0.049,-0.015,-0.034,0.005,-0.073,-0.078,-0.083,-0.161,-0.044
0.906,-0.039,-0.063,-0.024,0.054,-0.01,-0.044,0.0,-0.073,-0.088,-0.088,-0.171,-0.049
0.908,-0.034,-0.063,-0.029,0.049,-0.005,-0.049,0.01,-0.068,-0.078,-0.078,-0.151,-0.044
0.91,-0.039,-0.063,-0.024,0.054,-0.01,-0.044,0.015,-0.068,-0.083,-0.078,-0.151,-0.049
0.912,-0.034,-0.054,-0.02,0.044,-0.01,-0.039,0.015,-0.063,-0.083,-0.078,-0.151,-0.059
0.914,-0.024,-0.049,-0.024,0.039,0.0,-0.039,0.015,-0.059,-0.083,-0.083,-0.156,-0.059
0.916,-0.024,-0.034,-0.01,0.029,-0.01,-0.024,0.005,-0.063,-0.093,-0.088,-0.166,-0.068
0.918,-0.024,-0.029,-0.005,0.029,-0.01,-0.02,0.0,-0.068,-0.093,-0.088,-0.171,-0.068
0.92,-0.034,-0.029,0.005,0.034,-0.02,-0.015,-0.005,-0.073,-0.093,-0.088,-0.171,-0.059
0.922,-0.034,-0.029,0.005,0.034,-0.02,-0.015,-0.01,-0.078,-0.093,-0.078,-0.171,-0.059
0.924,-0.024,-0.039,-0.015,0.034,-0.005,-0.029,-0.005,-0.073,-0.083,-0.068,-0.161,-0.044
0.926,-0.01,-0.039,-0.029,0.024,0.01,-0.034,0.005,-0.068,-0.083,-0.068,-0.151,-0.044
0.928,-0.005,-0.039,-0.034,0.024,0.015,-0.039,0.015,-0.059,-0.078,-0.063,-0.142,-0.044
0.93,-0.005,-0.034,-0.029,0.02,0.01,-0.034,0.02,-0.054,-0.078,-0.063,-0.142,-0.044
0.932,-0.01,-0.039,-0.029,0.024,0.01,-0.034,0.01,-0.059,-0.083,-0.078,-0.161,-0.034
0.934,-0.02,-0.039,-0.02,0.029,0.0,-0.029,0.01,-0.063,-0.083,-0.078,-0.161,-0.044
0.936,-0.029,-0.049,-0.02,0.039,-0.005,-0.034,0.015,-0.068,-0.078,-0.078,-0.156,-0.049
0.938,-0.039,-0.049,-0.01,0.044,-0.015,-0.029,0.015,-0.073,-0.078,-0.083,-0.156,-0.049
0.94,-0.029,-0.049,-0.02,0.039,-0.005,-0.034,0.005,-0.068,-0.078,-0.083,-0.156,-0.059
0.942,-0.034,-0.059,-0.024,0.049,-0.005,-0.044,0.005,-0.068,-0.078,-0.083,-0.156,-0.049
0.944,-0.034,-0.059,-0.024,0.049,-0.005,-0.044,0.005,-0.068,-0.078,-0.078,-0.156,-0.039
0.946,-0.034,-0.044,-0.01,0.039,-0.015,-0.029,0.0,-0.073,-0.078,-0.078,-0.161,-0.039
0.948,-0.024,-0.034,-0.01,0.029,-0.01,-0.024,0.01,-0.063,-0.083,-0.073,-0.156,-0.039
0.95,-0.029,-0.044,-0.015,0.039,-0.01,-0.029,0.01,-0.059,-0.083,-0.073,-0.156,-0.039
0.952,-0.029,-0.063,-0.034,0.049,0.0,-0.049,0.01,-0.059,-0.083,-0.073,-0.151,-0.044
0.954,-0.029,-0.044,-0.015,0.039,-0.01,-0.029,0.01,-0.059,-0.083,-0.068,-0.142,-0.044
0.956,-0.034,-0.049,-0.015,0.044,-0.01,-0.034,0.005,-0.063,-0.083,-0.078,-0.146,-0.054
0.958,-0.034,-0.049,-0.015,0.044,-0.01,-0.034,0.005,-0.068,-0.083,-0.078,-0.151,-0.059
0.96,-0.039,-0.049,-0.01,0.044,-0.015,-0.029,0.005,-0.073,-0.083,-0.083,-0.156,-0.059
0.962,-0.044,-0.049,-0.005,0.049,-0.02,-0.029,0.005,-0.078,-0.083,-0.083,-0.161,-0.054
0.964,-0.044,-0.049,-0.005,0.049,-0.02,-0.029,0.015,-0.068,-0.083,-0.078,-0.166,-0.054
0.966,-0.039,-0.054,-0.015,0.049,-0.015,-0.034,0.005,-0.068,-0.083,-0.078,-0.166,-0.054
0.968,-0.039,-0.059,-0.02,0.049,-0.01,-0.039,0.015,-0.068,-0.083,-0.073,-0.166,-0.054
0.97,-0.039,-0.068,-0.029,0.054,-0.005,-0.049,0.015,-0.068,-0.083,-0.073,-0.161,-0.054
0.972,-0.039,-0.068,-0.029,0.054,-0.005,-0.049,0.015,-0.068,-0.083,-0.073,-0.151,-0.054
0.974,-0.054,-0.059,-0.005,0.059,-0.024,-0.034,0.015,-0.068,-0.083,-0.068,-0.151,-0.044
0.976,-0.054,-0.049,0.005,0.054,-0.029,-0.024,0.015,-0.068,-0.083,-0.068,-0.151,-0.044
0.978,-0.049,-0.029,0.02,0.039,-0.034,-0.005,0.015,-0.068,-0.083,-0.068,-0.151,-0.044
0.98,-0.054,-0.029,0.024,0.044,-0.039,-0.005,0.015,-0.073,-0.093,-0.083,-0.156,-0.049
0.982,-0.054,-0.029,0.024,0.044,-0.039,-0.005,0.015,-0.073,-0.088,-0.083,-0.161,-0.049
0.984,-0.039,-0.024,0.015,0.034,-0.029,-0.005,0.015,-0.068,-0.088,-0.083,-0.166,-0.049
0.986,-0.039,-0.02,0.02,0.029,-0.029,0.0,0.015,-0.068,-0.098,-0.083,-0.171,-0.054
0.988,-0.059,-0.049,0.01,0.054,-0.034,-0.02,0.029,-0.054,-0.068,-0.068,-0.156,-0.039
0.99,-0.049,-0.068,-0.02,0.059,-0.015,-0.044,0.024,-0.054,-0.068,-0.059,-0.156,-0.039
0.992,-0.044,-0.049,-0.005,0.049,-0.02,-0.029,0.015,-0.063,-0.083,-0.073,-0.156,-0.039
0.994,-0.088,-0.083,0.005,0.088,-0.049,-0.039,0.015,-0.063,-0.078,-0.073,-0.151,-0.039
0.996,-0.078,-0.098,-0.02,0.088,-0.029,-0.059,0.01,-0.068,-0.088,-0.078,-0.156,-0.049
0.998,-0.059,-0.083,-0.024,0.073,-0.02,-0.054,0.02,-0.068,-0.088,-0.078,-0.166,-0.049
1.0,-0.049,-0.068,-0.02,0.059,-0.015,-0.044,0.02,-0.068,-0.088,-0.078,-0.166,-0.049
1.002,-0.039,-0.054,-0.015,0.049,-0.015,-0.034,0.02,-0.068,-0.088,-0.078,-0.166,-0.049
1.004,-0.029,-0.039,-0.01,0.034,-0.01,-0.024,0.02,-0.068,-0.088,-0.078,-0.166,-0.049
1.006,-0.034,-0.049,-0.015,0.044,-0.01,-0.034,0.02,-0.068,-0.088,-0.078,-0.166,-0.039
1.008,-0.039,-0.049,-0.01,0.044,-0.015,-0.029,0.02,-0.068,-0.088,-0.078,-0.166,-0.039
1.01,-0.044,-0.049,-0.005,0.049,-0.02,-0.029,0.02,-0.068,-0.088,-0.078,-0.166,-0.039
1.012,-0.049,-0.049,0.0,0.049,-0.024,-0.024,0.02,-0.068,-0.088,-0.078,-0.166,-0.039
1.014,-0.049,-0.059,-0.01,0.054,-0.02,-0.034,0.029,-0.059,-0.078,-0.068,-0.156,-0.039
1.016,-0.049,-0.059,-0.01,0.054,-0.02,-0.034,0.029,-0.059,-0.078,-0.068,-0.156,-0.039
1.018,-0.049,-0.059,-0.01,0.054,-0.02,-0.034,0.029,-0.059,-0.078,-0.068,-0.156,-0.039
1.02,-0.049,-0.059,-0.01,0.054,-0.02,-0.034,0.029,-0.059,-0.078,-0.068,-0.156,-0.039
1.022,-0.049,-0.049,0.0,0.049,-0.024,-0.024,0.029,-0.068,-0.078,-0.068,-0.156,-0.049
1.024,-0.049,-0.049,0.0,0.049,-0.024,-0.024,0.029,-0.068,-0.078,-0.068,-0.156,-0.049
1.026,-0.049,-0.049,0.0,0.049,-0.024,-0.024,0.029,-0.068,-0.078,-0.068,-0.156,-0.049
1.028,-0.049,-0.049,0.0,0.049,-0.024,-0.024,0.029,-0.068,-0.078,-0.068,-0.156,-0.049
1.03,-0.059,-0.049,0.01,0.054,-0.034,-0.02,0.029,-0.059,-0.078,-0.068,-0.156,-0.039
1.032,-0.059,-0.049,0.01,0.054,-0.034,-0.02,0.029,-0.059,-0.078,-0.068,-0.156,-0.039
1.034,-0.059,-0.049,0.01,0.054,-0.034,-0.02,0.029,-0.059,-0.078,-0.068,-0.156,-0.039
1.036,-0.059,-0.049,0.01,0.054,-0.034,-0.02,0.029,-0.059,-0.078,-0.068,-0.156,-0.039
1.038,-0.049,-0.054,-0.005,0.054,-0.024,-0.029,0.02,-0.068,-0.078,-0.068,-0.156,-0.039
1.04,-0.049,-0.059,-0.01,0.054,-0.02,-0.034,0.02,-0.068,-0.078,-0.068,-0.156,-0.039
1.042,-0.049,-0.063,-0.015,0.059,-0.02,-0.039,0.02,-0.068,-0.078,-0.068,-0.156,-0.039
1.044,-0.049,-0.068,-0.02,0.059,-0.015,-0.044,0.02,-0.068,-0.078,-0.068,-0.156,-0.039
1.046,-0.049,-0.059,-0.01,0.054,-0.02,-0.034,0.01,-0.068,-0.083,-0.078,-0.166,-0.049
1.048,-0.049,-0.059,-0.01,0.054,-0.02,-0.034,0.01,-0.068,-0.088,-0.078,-0.166,-0.049
1.05,-0.049,-0.059,-0.01,0.054,-0.02,-0.034,0.01,-0.068,-0.093,-0.078,-0.166,-0.049
1.052,-0.049,-0.059,-0.01,0.054,-0.02,-0.034,0.01,-0.068,-0.098,-0.078,-0.166,-0.049
1.054,-0.059,-0.059,0.0,0.059,-0.029,-0.029,0.02,-0.068,-0.088,-0.068,-0.156,-0.039
1.056,-0.059,-0.059,0.0,0.059,-0.029,-0.029,0.02,-0.068,-0.088,-0.068,-0.156,-0.039
1.058,-0.059,-0.059,0.0,0.059,-0.029,-0.029,0.02,-0.068,-0.088,-0.068,-0.156,-0.039
1.06,-0.059,-0.059,0.0,0.059,-0.029,-0.029,0.02,-0.068,-0.088,-0.068,-0.156,-0.039
1.062,-0.049,-0.063,-0.015,0.059,-0.02,-0.039,0.029,-0.068,-0.078,-0.068,-0.156,-0.039
1.064,-0.049,-0.068,-0.02,0.059,-0.015,-0.044,0.029,-0.068,-0.078,-0.068,-0.156,-0.039
1.066,-0.049,-0.073,-0.024,0.063,-0.015,-0.049,0.029,-0.068,-0.078,-0.068,-0.156,-0.039
1.068,-0.049,-0.078,-0.029,0.063,-0.01,-0.054,0.029,-0.068,-0.078,-0.068,-0.156,-0.039
1.07,-0.049,-0.078,-0.029,0.063,-0.01,-0.054,0.02,-0.059,-0.068,-0.059,-0.146,-0.029
1.072,-0.049,-0.078,-0.029,0.063,-0.01,-0.054,0.02,-0.059,-0.068,-0.059,-0.146,-0.029
1.074,-0.049,-0.078,-0.029,0.063,-0.01,-0.054,0.02,-0.059,-0.068,-0.059,-0.146,-0.029
1.076,-0.049,-0.078,-0.029,0.063,-0.01,-0.054,0.02,-0.059,-0.068,-0.059,-0.146,-0.029
1.078,-0.039,-0.068,-0.029,0.054,-0.005,-0.049,0.015,-0.073,-0.083,-0.063,-0.161,-0.044
1.08,-0.039,-0.059,-0.02,0.049,-0.01,-0.039,0.01,-0.078,-0.088,-0.068,-0.166,-0.049
1.082,-0.039,-0.049,-0.01,0.044,-0.015,-0.029,0.005,-0.083,-0.093,-0.073,-0.171,-0.054
1.084,-0.039,-0.039,0.0,0.039,-0.02,-0.02,0.0,-0.088,-0.098,-0.078,-0.176,-0.059
1.086,-0.039,-0.054,-0.015,0.049,-0.015,-0.034,0.005,-0.083,-0.088,-0.068,-0.171,-0.054
1.088,-0.039,-0.059,-0.02,0.049,-0.01,-0.039,0.01,-0.078,-0.088,-0.068,-0.166,-0.049
1.09,-0.039,-0.063,-0.024,0.054,-0.01,-0.044,0.015,-0.073,-0.088,-0.068,-0.161,-0.044
1.092,-0.039,-0.068,-0.029,0.054,-0.005,-0.049,0.02,-0.068,-0.088,-0.068,-0.156,-0.039
1.094,-0.039,-0.059,-0.02,0.049,-0.01,-0.039,0.02,-0.068,-0.083,-0.059,-0.146,-0.029
1.096,-0.039,-0.059,-0.02,0.049,-0.01,-0.039,0.02,-0.068,-0.078,-0.059,-0.146,-0.029
1.098,-0.039,-0.059,-0.02,0.049,-0.01,-0.039,0.015,-0.068,-0.073,-0.059,-0.151,-0.029
1.1,-0.029,-0.059,-0.029,0.044,0.0,-0.044,0.015,-0.068,-0.063,-0.059,-0.151,-0.029
1.102,-0.029,-0.044,-0.015,0.039,-0.01,-0.029,0.029,-0.078,-0.078,-0.063,-0.156,-0.044
1.104,-0.034,-0.063,-0.029,0.049,-0.005,-0.049,0.029,-0.078,-0.083,-0.068,-0.161,-0.049
1.106,-0.054,-0.078,-0.024,0.068,-0.015,-0.054,0.029,-0.078,-0.088,-0.073,-0.161,-0.054
1.108,-0.044,-0.083,-0.039,0.063,-0.005,-0.063,0.029,-0.078,-0.093,-0.078,-0.166,-0.059
1.11,-0.029,-0.059,-0.029,0.044,0.0,-0.044,0.029,-0.068,-0.083,-0.068,-0.151,-0.054
1.112,-0.029,-0.059,-0.029,0.044,0.0,-0.044,0.029,-0.068,-0.088,-0.068,-0.151,-0.049
1.114,-0.034,-0.068,-0.034,0.054,0.0,-0.054,0.024,-0.068,-0.093,-0.073,-0.156,-0.049
1.116,-0.034,-0.068,-0.034,0.054,0.0,-0.054,0.024,-0.073,-0.093,-0.073,-0.156,-0.044
1.118,-0.029,-0.054,-0.024,0.044,-0.005,-0.039,0.024,-0.073,-0.078,-0.063,-0.146,-0.039
1.12,-0.029,-0.049,-0.02,0.039,-0.005,-0.034,0.024,-0.073,-0.078,-0.063,-0.146,-0.029
1.122,-0.029,-0.034,-0.005,0.034,-0.015,-0.02,0.024,-0.073,-0.078,-0.063,-0.146,-0.039
1.124,-0.029,-0.029,0.0,0.029,-0.015,-0.015,0.015,-0.073,-0.078,-0.068,-0.151,-0.044
1.126,-0.039,-0.049,-0.01,0.044,-0.015,-0.029,0.02,-0.083,-0.083,-0.073,-0.161,-0.049
1.128,-0.039,-0.068,-0.029,0.054,-0.005,-0.049,0.015,-0.083,-0.088,-0.073,-0.161,-0.049
1.13,-0.029,-0.078,-0.049,0.054,0.01,-0.063,0.01,-0.073,-0.083,-0.073,-0.161,-0.044
1.132,-0.024,-0.083,-0.059,0.054,0.015,-0.073,0.015,-0.068,-0.083,-0.073,-0.151,-0.034
1.134,-0.024,-0.063,-0.039,0.044,0.005,-0.054,0.02,-0.068,-0.083,-0.059,-0.142,-0.039
1.136,-0.024,-0.054,-0.029,0.039,0.0,-0.044,0.02,-0.068,-0.083,-0.059,-0.142,-0.039
1.138,-0.024,-0.049,-0.024,0.039,0.0,-0.039,0.024,-0.063,-0.083,-0.059,-0.142,-0.044
1.14,-0.024,-0.044,-0.02,0.034,-0.005,-0.034,0.034,-0.063,-0.083,-0.059,-0.142,-0.044
1.142,-0.015,-0.034,-0.02,0.024,0.0,-0.029,0.039,-0.059,-0.068,-0.044,-0.132,-0.029
1.144,-0.015,-0.015,0.0,0.015,-0.01,-0.01,0.049,-0.054,-0.059,-0.044,-0.127,-0.024
1.146,-0.015,-0.015,0.0,0.015,-0.01,-0.01,0.063,-0.034,-0.054,-0.039,-0.122,-0.024
1.148,-0.015,-0.024,-0.01,0.02,-0.005,-0.02,0.073,-0.029,-0.044,-0.034,-0.122,-0.015
1.15,-0.01,0.01,0.02,0.0,-0.015,0.015,0.073,-0.029,-0.044,-0.039,-0.117,-0.015
1.152,-0.015,0.01,0.024,0.005,-0.02,0.015,0.078,-0.029,-0.044,-0.034,-0.117,-0.015
1.154,-0.02,0.015,0.034,0.005,-0.029,0.024,0.078,-0.029,-0.044,-0.029,-0.117,-0.015
1.156,-0.024,0.02,0.044,0.005,-0.034,0.029,0.078,-0.034,-0.049,-0.029,-0.122,-0.015
1.158,-0.01,0.029,0.039,-0.01,-0.024,0.034,0.083,-0.024,-0.044,-0.024,-0.107,-0.005
1.16,-0.005,0.029,0.034,-0.01,-0.02,0.029,0.098,-0.02,-0.029,-0.015,-0.102,-0.005
1.162,-0.005,0.024,0.029,-0.01,-0.02,0.024,0.107,-0.015,-0.024,-0.01,-0.098,0.0
1.164,-0.005,0.015,0.02,-0.005,-0.015,0.015,0.127,-0.005,-0.015,-0.005,-0.093,0.005
1.166,-0.015,0.005,0.02,0.005,-0.02,0.01,0.117,-0.005,-0.015,-0.005,-0.098,0.005
1.168,-0.01,0.034,0.044,-0.01,-0.029,0.039,0.122,0.005,-0.01,0.0,-0.093,0.005
1.17,-0.01,0.063,0.073,-0.024,-0.044,0.068,0.122,0.005,-0.01,0.0,-0.093,0.01
1.172,-0.02,0.068,0.088,-0.024,-0.054,0.078,0.122,0.005,-0.01,0.0,-0.093,0.01
1.174,-0.02,0.063,0.083,-0.02,-0.054,0.073,0.102,-0.01,-0.02,-0.01,-0.093,0.01
1.176,-0.005,0.068,0.073,-0.029,-0.039,0.068,0.098,-0.015,-0.02,0.0,-0.093,0.015
1.178,0.0,0.068,0.068,-0.034,-0.034,0.068,0.088,-0.02,-0.02,0.0,-0.088,0.02
1.18,0.0,0.073,0.073,-0.034,-0.039,0.073,0.073,-0.024,-0.02,0.0,-0.088,0.02
1.182,-0.01,0.073,0.083,-0.029,-0.049,0.078,0.068,-0.039,-0.02,0.01,-0.078,0.02
1.184,-0.01,0.068,0.078,-0.029,-0.044,0.073,0.068,-0.039,-0.02,0.01,-0.073,0.024
1.186,-0.01,0.068,0.078,-0.029,-0.044,0.073,0.068,-0.039,-0.01,0.02,-0.068,0.034
1.188,-0.005,0.093,0.098,-0.044,-0.054,0.093,0.059,-0.039,0.0,0.02,-0.059,0.039
1.19,0.015,0.122,0.107,-0.068,-0.049,0.112,0.034,-0.044,-0.015,0.02,-0.059,0.039
1.192,0.015,0.112,0.098,-0.063,-0.044,0.102,0.029,-0.049,-0.02,0.024,-0.059,0.044
1.194,0.015,0.107,0.093,-0.059,-0.039,0.098,0.015,-0.054,-0.02,0.024,-0.059,0.044
1.196,0.024,0.107,0.083,-0.063,-0.029,0.093,0.005,-0.054,-0.02,0.02,-0.059,0.044
1.198,0.044,0.122,0.078,-0.083,-0.02,0.098,-0.005,-0.059,-0.02,0.02,-0.059,0.034
1.2,0.049,0.127,0.078,-0.088,-0.015,0.102,-0.005,-0.063,-0.02,0.02,-0.059,0.034
1.202,0.059,0.132,0.073,-0.093,-0.01,0.102,-0.02,-0.068,-0.034,0.01,-0.068,0.029
1.204,0.063,0.127,0.063,-0.093,0.0,0.093,-0.02,-0.078,-0.034,0.005,-0.073,0.029
1.206,0.034,0.102,0.068,-0.068,-0.02,0.083,-0.024,-0.078,-0.034,-0.005,-0.073,0.029
1.208,0.029,0.088,0.059,-0.059,-0.015,0.073,-0.024,-0.088,-0.049,-0.015,-0.078,0.024
1.21,0.029,0.083,0.054,-0.054,-0.015,0.068,-0.029,-0.098,-0.063,-0.024,-0.088,0.02
1.212,0.034,0.078,0.044,-0.054,-0.005,0.059,-0.024,-0.098,-0.063,-0.024,-0.088,0.01
1.214,0.01,0.088,0.078,-0.049,-0.034,0.083,-0.005,-0.078,-0.059,-0.01,-0.073,0.034
1.216,0.01,0.088,0.078,-0.049,-0.034,0.083,0.0,-0.068,-0.049,0.0,-0.068,0.039
1.218,-0.01,0.078,0.088,-0.034,-0.049,0.083,0.0,-0.068,-0.049,0.0,-0.068,0.039
1.22,-0.01,0.059,0.068,-0.024,-0.039,0.063,0.0,-0.073,-0.059,-0.01,-0.073,0.039
1.222,-0.005,0.049,0.054,-0.02,-0.029,0.049,-0.005,-0.088,-0.059,-0.02,-0.088,0.029
1.224,0.0,0.049,0.049,-0.024,-0.024,0.049,-0.01,-0.088,-0.063,-0.02,-0.093,0.015
1.226,-0.005,0.039,0.044,-0.015,-0.024,0.039,-0.01,-0.088,-0.063,-0.024,-0.098,0.015
1.228,-0.005,0.02,0.024,-0.005,-0.015,0.02,-0.015,-0.088,-0.068,-0.034,-0.102,0.01
1.23,-0.01,0.0,0.01,0.005,-0.01,0.005,-0.015,-0.107,-0.083,-0.049,-0.117,-0.005
1.232,-0.029,-0.034,-0.005,0.034,-0.015,-0.02,-0.024,-0.112,-0.102,-0.063,-0.137,-0.024
1.234,-0.039,-0.044,-0.005,0.044,-0.02,-0.024,-0.024,-0.127,-0.112,-0.078,-0.146,-0.044
1.236,-0.044,-0.059,-0.015,0.054,-0.015,-0.039,-0.024,-0.127,-0.117,-0.078,-0.146,-0.059
1.238,-0.029,-0.073,-0.044,0.054,0.005,-0.059,-0.01,-0.112,-0.112,-0.068,-0.137,-0.054
1.24,-0.029,-0.083,-0.054,0.059,0.01,-0.068,-0.01,-0.107,-0.102,-0.068,-0.132,-0.044
1.242,-0.024,-0.068,-0.044,0.049,0.01,-0.059,-0.005,-0.102,-0.093,-0.063,-0.132,-0.034
1.244,-0.024,-0.063,-0.039,0.044,0.005,-0.054,-0.005,-0.102,-0.088,-0.063,-0.132,-0.029
1.246,-0.029,-0.068,-0.039,0.049,0.005,-0.054,-0.02,-0.093,-0.098,-0.063,-0.132,-0.039
1.248,-0.029,-0.068,-0.039,0.049,0.005,-0.054,-0.02,-0.093,-0.093,-0.063,-0.132,-0.029
1.25,-0.024,-0.073,-0.049,0.049,0.01,-0.063,-0.015,-0.093,-0.093,-0.063,-0.132,-0.029
1.252,-0.024,-0.088,-0.063,0.059,0.02,-0.078,-0.015,-0.098,-0.102,-0.073,-0.132,-0.039
1.254,-0.034,-0.098,-0.063,0.068,0.015,-0.083,-0.02,-0.098,-0.107,-0.078,-0.142,-0.039
1.256,-0.034,-0.098,-0.063,0.068,0.015,-0.083,-0.02,-0.107,-0.112,-0.078,-0.146,-0.044
1.258,-0.034,-0.098,-0.063,0.068,0.015,-0.083,-0.02,-0.107,-0.112,-0.078,-0.146,-0.044
1.26,-0.044,-0.102,-0.059,0.073,0.005,-0.083,-0.01,-0.102,-0.112,-0.078,-0.142,-0.044
1.262,-0.063,-0.102,-0.039,0.083,-0.015,-0.073,-0.005,-0.102,-0.098,-0.078,-0.142,-0.044
1.264,-0.024,-0.073,-0.049,0.049,0.01,-0.063,-0.01,-0.098,-0.107,-0.088,-0.166,-0.059
1.266,-0.02,-0.083,-0.063,0.054,0.02,-0.073,0.015,-0.073,-0.098,-0.098,-0.176,-0.078
1.268,-0.063,-0.117,-0.054,0.093,-0.005,-0.088,0.054,-0.01,-0.054,-0.088,-0.181,-0.088
1.27,-0.073,-0.117,-0.044,0.098,-0.015,-0.083,0.083,0.044,-0.029,-0.088,-0.19,-0.107
1.272,-0.024,-0.088,-0.063,0.059,0.02,-0.078,0.107,0.093,-0.01,-0.078,-0.205,-0.132
1.274,-0.015,-0.117,-0.102,0.068,0.044,-0.112,0.142,0.146,0.039,-0.068,-0.2,-0.142
1.276,-0.044,-0.127,-0.083,0.088,0.02,-0.107,0.171,0.181,0.073,-0.068,-0.22,-0.161
1.278,-0.054,-0.088,-0.034,0.073,-0.01,-0.063,0.176,0.215,0.078,-0.078,-0.239,-0.19
1.28,-0.039,-0.078,-0.039,0.059,0.0,-0.059,0.195,0.254,0.117,-0.068,-0.229,-0.176
1.282,-0.02,-0.088,-0.068,0.054,0.024,-0.078,0.22,0.298,0.161,-0.02,-0.166,-0.117
1.284,-0.005,-0.059,-0.054,0.034,0.024,-0.059,0.224,0.332,0.205,0.044,-0.098,-0.059
1.286,0.029,0.015,-0.015,-0.02,0.02,0.0,0.224,0.381,0.254,0.102,-0.01,0.024
1.288,0.049,0.059,0.01,-0.054,0.02,0.034,0.229,0.42,0.327,0.2,0.107,0.137
1.29,0.093,0.107,0.015,-0.098,0.039,0.059,0.239,0.449,0.395,0.312,0.244,0.254
1.292,0.161,0.176,0.015,-0.166,0.073,0.093,0.234,0.444,0.434,0.429,0.395,0.395
1.294,0.22,0.234,0.015,-0.224,0.102,0.122,0.254,0.41,0.493,0.561,0.576,0.571
1.296,0.283,0.312,0.029,-0.298,0.127,0.171,0.254,0.39,0.556,0.722,0.786,0.752
1.298,0.317,0.386,0.068,-0.351,0.122,0.224,0.273,0.356,0.6,0.874,0.976,0.908
1.3,0.303,0.459,0.156,-0.381,0.073,0.307,0.288,0.268,0.581,0.986,1.142,1.054
1.302,0.337,0.576,0.239,-0.454,0.049,0.405,0.259,0.156,0.537,1.078,1.293,1.205
1.304,0.395,0.712,0.317,-0.551,0.039,0.512,0.2,-0.01,0.439,1.147,1.444,1.352
1.306,0.41,0.825,0.415,-0.615,-0.005,0.62,0.098,-0.264,0.268,1.176,1.547,1.503
1.308,0.371,0.903,0.532,-0.634,-0.083,0.717,-0.039,-0.566,0.073,1.176,1.586,1.576
1.31,0.312,0.913,0.6,-0.61,-0.146,0.756,-0.156,-0.805,-0.112,1.113,1.527,1.518
1.312,0.273,0.776,0.503,-0.522,-0.117,0.639,-0.19,-0.903,-0.244,0.986,1.381,1.371
1.314,0.239,0.6,0.361,-0.42,-0.063,0.478,-0.171,-0.913,-0.351,0.844,1.215,1.205
1.316,0.19,0.478,0.288,-0.332,-0.049,0.381,-0.171,-0.937,-0.473,0.688,1.02,1.02
1.318,0.117,0.356,0.239,-0.234,-0.063,0.298,-0.224,-1.005,-0.625,0.488,0.756,0.771
1.32,0.024,0.229,0.205,-0.127,-0.093,0.215,-0.376,-1.059,-0.756,0.234,0.459,0.532
1.322,-0.034,0.132,0.166,-0.049,-0.102,0.146,-0.522,-1.01,-0.82,0.005,0.185,0.322
1.324,-0.039,0.044,0.083,0.0,-0.063,0.063,-0.586,-0.937,-0.874,-0.254,-0.146,0.063
1.326,-0.054,-0.078,-0.024,0.068,-0.015,-0.054,-0.6,-0.888,-0.947,-0.542,-0.488,-0.2
1.328,-0.078,-0.19,-0.112,0.137,0.015,-0.151,-0.586,-0.834,-0.952,-0.659,-0.61,-0.298
1.33,-0.068,-0.224,-0.156,0.146,0.044,-0.19,-0.576,-0.756,-0.869,-0.6,-0.522,-0.259
1.332,-0.024,-0.21,-0.185,0.117,0.078,-0.2,-0.537,-0.683,-0.791,-0.522,-0.449,-0.22
1.334,0.0,-0.215,-0.215,0.107,0.107,-0.215,-0.464,-0.6,-0.703,-0.468,-0.415,-0.205
1.336,0.015,-0.181,-0.195,0.083,0.102,-0.19,-0.395,-0.473,-0.581,-0.395,-0.346,-0.151
1.338,0.034,-0.117,-0.151,0.044,0.093,-0.137,-0.312,-0.356,-0.449,-0.293,-0.273,-0.107
1.34,0.044,-0.093,-0.137,0.024,0.088,-0.117,-0.229,-0.264,-0.346,-0.239,-0.239,-0.098
1.342,0.005,-0.107,-0.112,0.054,0.059,-0.112,-0.166,-0.2,-0.273,-0.22,-0.21,-0.093
1.344,-0.024,-0.078,-0.054,0.054,0.015,-0.068,-0.117,-0.161,-0.22,-0.185,-0.195,-0.083
1.346,-0.024,-0.054,-0.029,0.039,0.0,-0.044,-0.083,-0.117,-0.171,-0.166,-0.176,-0.068
1.348,-0.015,-0.102,-0.088,0.059,0.034,-0.098,-0.049,-0.073,-0.132,-0.132,-0.156,-0.059
1.35,-0.005,-0.112,-0.107,0.059,0.049,-0.112,-0.015,-0.054,-0.112,-0.112,-0.137,-0.049
1.352,0.005,-0.063,-0.068,0.029,0.034,-0.068,0.005,-0.044,-0.112,-0.098,-0.132,-0.049
1.354,0.0,-0.073,-0.073,0.039,0.034,-0.073,0.02,-0.024,-0.102,-0.078,-0.122,-0.044
1.356,-0.005,-0.059,-0.054,0.034,0.024,-0.059,0.01,-0.029,-0.093,-0.088,-0.127,-0.044
1.358,0.0,-0.039,-0.039,0.02,0.02,-0.039,0.005,-0.029,-0.093,-0.088,-0.127,-0.049
1.36,-0.02,-0.059,-0.039,0.039,0.01,-0.049,0.005,-0.024,-0.088,-0.088,-0.122,-0.049
1.362,-0.034,-0.059,-0.024,0.049,-0.005,-0.044,0.015,-0.015,-0.068,-0.088,-0.122,-0.059
1.364,-0.015,-0.059,-0.044,0.039,0.015,-0.054,0.015,-0.015,-0.059,-0.088,-0.122,-0.049
1.366,-0.015,-0.063,-0.049,0.039,0.015,-0.059,0.024,-0.015,-0.039,-0.083,-0.122,-0.049
1.368,-0.024,-0.068,-0.044,0.049,0.01,-0.059,0.029,-0.015,-0.034,-0.073,-0.117,-0.049
1.37,-0.024,-0.068,-0.044,0.049,0.01,-0.059,0.044,-0.01,-0.034,-0.068,-0.117,-0.049
1.372,-0.029,-0.078,-0.049,0.054,0.01,-0.063,0.044,-0.01,-0.034,-0.063,-0.107,-0.039
1.374,-0.034,-0.063,-0.029,0.049,-0.005,-0.049,0.034,-0.01,-0.044,-0.063,-0.107,-0.029
1.376,-0.039,-0.063,-0.024,0.054,-0.01,-0.044,0.034,-0.01,-0.049,-0.063,-0.107,-0.029
1.378,-0.039,-0.063,-0.024,0.054,-0.01,-0.044,0.034,-0.01,-0.049,-0.063,-0.107,-0.029
1.38,-0.024,-0.068,-0.044,0.049,0.01,-0.059,0.039,0.015,-0.044,-0.059,-0.102,-0.029
1.382,-0.02,-0.063,-0.044,0.044,0.01,-0.054,0.039,0.015,-0.039,-0.059,-0.098,-0.034
1.384,-0.02,-0.049,-0.029,0.034,0.005,-0.039,0.044,0.02,-0.02,-0.059,-0.093,-0.034
1.386,-0.015,-0.063,-0.049,0.039,0.015,-0.059,0.049,0.024,0.0,-0.049,-0.083,-0.029
1.388,-0.01,-0.063,-0.054,0.039,0.02,-0.059,0.049,0.024,-0.01,-0.049,-0.093,-0.02
1.39,-0.015,-0.049,-0.034,0.034,0.01,-0.044,0.049,0.015,-0.01,-0.049,-0.098,-0.02
1.392,-0.02,-0.049,-0.029,0.034,0.005,-0.039,0.049,0.015,-0.01,-0.049,-0.098,-0.024
1.394,-0.024,-0.049,-0.024,0.039,0.0,-0.039,0.049,0.015,-0.02,-0.049,-0.098,-0.024
1.396,-0.024,-0.039,-0.015,0.034,-0.005,-0.029,0.044,0.015,-0.02,-0.049,-0.098,-0.024
1.398,-0.02,-0.039,-0.02,0.029,0.0,-0.029,0.044,0.015,-0.02,-0.049,-0.098,-0.02
1.4,-0.02,-0.039,-0.02,0.029,0.0,-0.029,0.049,0.024,-0.02,-0.044,-0.093,-0.02
1.402,-0.029,-0.039,-0.01,0.034,-0.01,-0.024,0.049,0.029,-0.01,-0.039,-0.088,-0.02
1.404,-0.02,-0.049,-0.029,0.034,0.005,-0.039,0.049,0.029,-0.01,-0.039,-0.088,-0.029
1.406,-0.02,-0.054,-0.034,0.039,0.005,-0.044,0.054,0.029,-0.005,-0.039,-0.083,-0.029
1.408,-0.02,-0.049,-0.029,0.034,0.005,-0.039,0.059,0.029,0.0,-0.039,-0.083,-0.029
1.41,-0.015,-0.054,-0.039,0.034,0.01,-0.049,0.059,0.029,0.0,-0.034,-0.083,-0.024
1.412,-0.005,-0.039,-0.034,0.024,0.015,-0.039,0.054,0.029,0.015,-0.029,-0.078,-0.01
1.414,-0.005,-0.029,-0.024,0.02,0.01,-0.029,0.044,0.024,0.015,-0.029,-0.078,-0.01
1.416,-0.005,-0.02,-0.015,0.015,0.005,-0.02,0.039,0.024,0.005,-0.029,-0.083,-0.01
1.418,0.0,-0.015,-0.015,0.01,0.005,-0.015,0.034,0.029,0.015,-0.029,-0.083,-0.01
1.42,-0.005,-0.034,-0.029,0.02,0.01,-0.034,0.029,0.029,0.005,-0.039,-0.078,-0.015
1.422,-0.01,-0.044,-0.034,0.029,0.01,-0.039,0.029,0.029,0.01,-0.039,-0.078,-0.02
1.424,-0.015,-0.049,-0.034,0.034,0.01,-0.044,0.024,0.029,0.01,-0.039,-0.078,-0.024
1.426,-0.024,-0.044,-0.02,0.034,-0.005,-0.034,0.02,0.029,0.01,-0.039,-0.078,-0.029
1.428,-0.015,-0.034,-0.02,0.024,0.0,-0.029,0.02,0.029,0.015,-0.034,-0.078,-0.02
1.43,-0.015,-0.029,-0.015,0.024,0.0,-0.024,0.02,0.034,0.015,-0.034,-0.073,-0.02
1.432,-0.024,-0.044,-0.02,0.034,-0.005,-0.034,0.024,0.039,0.015,-0.029,-0.063,-0.015
1.434,-0.015,-0.039,-0.024,0.029,0.005,-0.034,0.024,0.039,0.02,-0.029,-0.063,-0.015
1.436,-0.015,-0.024,-0.01,0.02,-0.005,-0.02,0.024,0.039,0.02,-0.02,-0.063,-0.015
1.438,-0.015,-0.039,-0.024,0.029,0.005,-0.034,0.02,0.049,0.024,-0.02,-0.063,-0.01
1.44,-0.01,-0.039,-0.029,0.024,0.01,-0.034,0.02,0.049,0.029,-0.02,-0.054,-0.01
1.442,-0.01,-0.039,-0.029,0.024,0.01,-0.034,0.029,0.049,0.029,-0.02,-0.054,-0.01
1.444,-0.02,-0.024,-0.005,0.024,-0.01,-0.015,0.029,0.063,0.034,-0.02,-0.054,-0.015
1.446,-0.02,-0.044,-0.024,0.034,0.0,-0.034,0.029,0.073,0.039,-0.01,-0.049,-0.015
1.448,-0.02,-0.039,-0.02,0.029,0.0,-0.029,0.029,0.073,0.039,-0.01,-0.049,-0.015
1.45,-0.024,-0.044,-0.02,0.034,-0.005,-0.034,0.024,0.068,0.039,-0.015,-0.049,-0.02
1.452,-0.02,-0.034,-0.015,0.029,-0.005,-0.024,0.024,0.068,0.039,-0.005,-0.039,-0.02
1.454,-0.005,-0.024,-0.02,0.015,0.005,-0.024,0.024,0.078,0.049,0.0,-0.034,-0.015
1.456,0.005,0.005,0.0,-0.005,0.0,0.0,0.02,0.078,0.049,0.005,-0.034,-0.015
1.458,0.01,0.015,0.005,-0.01,0.0,0.01,0.01,0.078,0.054,0.005,-0.029,-0.01
1.46,0.01,-0.01,-0.02,0.0,0.015,-0.015,0.029,0.088,0.054,0.0,-0.029,0.0
1.462,0.01,-0.01,-0.02,0.0,0.015,-0.015,0.029,0.088,0.059,0.005,-0.024,0.005
1.464,0.01,-0.01,-0.02,0.0,0.015,-0.015,0.029,0.093,0.059,0.005,-0.024,0.005
1.466,0.01,-0.01,-0.02,0.0,0.015,-0.015,0.034,0.093,0.059,0.005,-0.02,0.005
1.468,0.005,-0.005,-0.01,0.0,0.005,-0.01,0.024,0.083,0.063,0.005,-0.029,-0.005
1.47,0.0,-0.01,-0.01,0.005,0.005,-0.01,0.024,0.088,0.068,0.01,-0.029,-0.005
1.472,-0.01,-0.015,-0.005,0.015,-0.005,-0.01,0.024,0.098,0.073,0.015,-0.024,0.0
1.474,-0.02,-0.024,-0.005,0.024,-0.01,-0.015,0.024,0.098,0.073,0.015,-0.024,0.0
1.476,-0.015,-0.015,0.0,0.015,-0.01,-0.01,0.024,0.107,0.073,0.015,-0.034,0.0
1.478,-0.01,-0.024,-0.015,0.02,0.0,-0.02,0.024,0.112,0.073,0.015,-0.02,0.0
1.48,0.015,-0.015,-0.029,0.0,0.02,-0.024,0.024,0.122,0.088,0.024,-0.01,0.01
1.482,0.02,-0.005,-0.024,-0.005,0.02,-0.015,0.024,0.127,0.088,0.024,-0.005,0.01
1.484,0.01,-0.005,-0.015,0.0,0.01,-0.01,0.02,0.127,0.098,0.034,-0.005,0.01
1.486,0.01,-0.01,-0.02,0.0,0.015,-0.015,0.024,0.137,0.112,0.039,0.005,0.015
1.488,0.01,-0.01,-0.02,0.0,0.015,-0.015,0.024,0.142,0.117,0.044,0.005,0.015
1.49,0.01,-0.01,-0.02,0.0,0.015,-0.015,0.024,0.142,0.117,0.044,0.01,0.015
1.492,0.015,-0.005,-0.02,-0.005,0.015,-0.015,0.015,0.146,0.117,0.044,0.024,0.029
1.494,0.015,0.015,0.0,-0.015,0.005,0.005,0.015,0.151,0.127,0.044,0.024,0.034
1.496,0.029,0.02,-0.01,-0.024,0.02,0.005,0.015,0.161,0.127,0.044,0.024,0.034
1.498,0.02,0.034,0.015,-0.024,0.0,0.024,0.015,0.166,0.127,0.054,0.024,0.034
1.5,0.02,0.01,-0.01,-0.015,0.015,0.0,0.0,0.161,0.122,0.049,0.034,0.029
1.502,0.02,0.005,-0.015,-0.01,0.015,-0.005,0.0,0.166,0.127,0.049,0.034,0.029
1.504,0.024,0.0,-0.024,-0.01,0.024,-0.015,0.005,0.171,0.127,0.054,0.039,0.029
1.506,0.024,-0.005,-0.029,-0.01,0.024,-0.02,0.005,0.185,0.137,0.059,0.044,0.039
1.508,0.015,-0.01,-0.024,0.0,0.02,-0.02,0.01,0.185,0.146,0.054,0.044,0.034
1.51,0.02,-0.005,-0.024,-0.005,0.02,-0.015,0.01,0.19,0.151,0.059,0.049,0.034
1.512,-0.005,0.0,0.005,0.005,-0.005,0.0,0.01,0.195,0.156,0.063,0.049,0.034
1.514,-0.024,0.0,0.024,0.015,-0.024,0.01,0.01,0.2,0.156,0.068,0.049,0.034
1.516,-0.005,0.01,0.015,0.0,-0.01,0.01,0.01,0.21,0.166,0.068,0.054,0.039
1.518,0.005,0.02,0.015,-0.01,-0.005,0.015,0.01,0.215,0.171,0.068,0.054,0.044
1.52,0.02,0.029,0.01,-0.024,0.005,0.02,0.01,0.229,0.176,0.078,0.063,0.049
1.522,0.039,0.054,0.015,-0.044,0.01,0.034,0.01,0.244,0.185,0.083,0.063,0.059
1.524,0.049,0.083,0.034,-0.063,0.005,0.059,0.015,0.249,0.195,0.102,0.078,0.063
1.526,0.049,0.068,0.02,-0.059,0.015,0.044,0.024,0.268,0.205,0.112,0.093,0.073
1.528,0.044,0.068,0.024,-0.054,0.01,0.044,0.034,0.283,0.215,0.117,0.102,0.078
1.53,0.044,0.073,0.029,-0.059,0.005,0.049,0.044,0.298,0.239,0.127,0.112,0.093
1.532,0.044,0.063,0.02,-0.054,0.01,0.039,0.029,0.298,0.239,0.132,0.107,0.098
1.534,0.044,0.063,0.02,-0.054,0.01,0.039,0.029,0.307,0.244,0.132,0.122,0.102
1.536,0.049,0.073,0.024,-0.059,0.01,0.049,0.024,0.317,0.244,0.132,0.122,0.107
1.538,0.054,0.083,0.029,-0.068,0.01,0.054,0.01,0.317,0.239,0.127,0.122,0.107
1.54,0.054,0.073,0.02,-0.063,0.015,0.044,0.005,0.327,0.234,0.117,0.127,0.102
1.542,0.054,0.078,0.024,-0.063,0.015,0.049,0.005,0.327,0.239,0.122,0.122,0.107
1.544,0.054,0.083,0.029,-0.068,0.01,0.054,0.0,0.332,0.244,0.127,0.122,0.102
1.546,0.054,0.083,0.029,-0.068,0.01,0.054,-0.01,0.327,0.254,0.127,0.127,0.098
1.548,0.044,0.073,0.029,-0.059,0.005,0.049,0.005,0.342,0.264,0.137,0.146,0.112
1.55,0.044,0.088,0.044,-0.063,0.0,0.063,0.01,0.356,0.273,0.146,0.151,0.122
1.552,0.049,0.088,0.039,-0.068,0.005,0.063,0.01,0.366,0.288,0.156,0.156,0.127
1.554,0.049,0.102,0.054,-0.073,-0.005,0.078,0.015,0.376,0.293,0.166,0.161,0.132
1.556,0.044,0.098,0.054,-0.068,-0.005,0.073,0.005,0.371,0.288,0.161,0.166,0.127
1.558,0.044,0.088,0.044,-0.063,0.0,0.063,0.01,0.386,0.288,0.166,0.181,0.137
1.56,0.044,0.083,0.039,-0.063,0.0,0.059,0.01,0.386,0.293,0.166,0.181,0.151
1.562,0.044,0.088,0.044,-0.063,0.0,0.063,0.0,0.39,0.293,0.166,0.185,0.151
1.564,0.059,0.102,0.044,-0.078,0.005,0.073,-0.01,0.39,0.283,0.176,0.19,0.151
1.566,0.083,0.107,0.024,-0.093,0.029,0.063,-0.01,0.395,0.288,0.176,0.195,0.151
1.568,0.088,0.122,0.034,-0.102,0.024,0.078,-0.015,0.395,0.288,0.176,0.195,0.156
1.57,0.093,0.127,0.034,-0.107,0.029,0.078,-0.015,0.386,0.288,0.176,0.195,0.156
1.572,0.093,0.122,0.029,-0.107,0.029,0.073,-0.01,0.405,0.293,0.195,0.215,0.176
1.574,0.093,0.122,0.029,-0.107,0.029,0.073,-0.005,0.405,0.303,0.2,0.224,0.185
1.576,0.117,0.142,0.024,-0.127,0.044,0.083,0.0,0.405,0.307,0.21,0.229,0.2
1.578,0.117,0.142,0.024,-0.127,0.044,0.083,0.0,0.395,0.303,0.2,0.234,0.205
1.58,0.098,0.142,0.044,-0.117,0.024,0.093,-0.015,0.386,0.293,0.2,0.229,0.2
1.582,0.088,0.142,0.054,-0.112,0.015,0.098,-0.015,0.386,0.293,0.2,0.229,0.2
1.584,0.078,0.137,0.059,-0.107,0.01,0.098,-0.01,0.381,0.293,0.2,0.244,0.205
1.586,0.063,0.122,0.059,-0.093,0.0,0.088,-0.01,0.381,0.293,0.2,0.244,0.205
1.588,0.068,0.112,0.044,-0.088,0.01,0.078,-0.024,0.376,0.288,0.2,0.244,0.21
1.59,0.073,0.117,0.044,-0.093,0.015,0.078,-0.024,0.366,0.283,0.195,0.244,0.21
1.592,0.078,0.117,0.039,-0.098,0.02,0.078,-0.024,0.356,0.273,0.19,0.239,0.21
1.594,0.083,0.107,0.024,-0.093,0.029,0.063,-0.024,0.346,0.268,0.19,0.239,0.21
1.596,0.073,0.127,0.054,-0.098,0.01,0.088,-0.029,0.332,0.259,0.181,0.239,0.21
1.598,0.068,0.127,0.059,-0.098,0.005,0.093,-0.039,0.322,0.249,0.176,0.239,0.215
1.6,0.068,0.137,0.068,-0.102,0.0,0.102,-0.039,0.312,0.249,0.171,0.239,0.215
1.602,0.068,0.137,0.068,-0.102,0.0,0.102,-0.044,0.303,0.239,0.171,0.239,0.215
1.604,0.078,0.146,0.068,-0.112,0.005,0.107,-0.054,0.288,0.22,0.161,0.229,0.205
1.606,0.068,0.137,0.068,-0.102,0.0,0.102,-0.054,0.283,0.21,0.161,0.234,0.2
1.608,0.068,0.127,0.059,-0.098,0.005,0.093,-0.059,0.268,0.205,0.156,0.234,0.2
1.61,0.068,0.127,0.059,-0.098,0.005,0.093,-0.059,0.259,0.195,0.156,0.224,0.205
1.612,0.083,0.146,0.063,-0.112,0.01,0.102,-0.049,0.259,0.205,0.161,0.229,0.215
1.614,0.093,0.161,0.068,-0.127,0.01,0.112,-0.049,0.239,0.19,0.166,0.234,0.215
1.616,0.102,0.181,0.078,-0.142,0.01,0.127,-0.049,0.22,0.171,0.161,0.224,0.215
1.618,0.107,0.205,0.098,-0.156,0.005,0.151,-0.054,0.205,0.156,0.156,0.224,0.205
1.62,0.078,0.156,0.078,-0.117,0.0,0.117,-0.063,0.185,0.142,0.151,0.22,0.195
1.622,0.059,0.142,0.083,-0.098,-0.015,0.112,-0.063,0.171,0.132,0.142,0.215,0.185
1.624,0.059,0.122,0.063,-0.088,-0.005,0.093,-0.063,0.156,0.127,0.132,0.21,0.176
1.626,0.049,0.102,0.054,-0.073,-0.005,0.078,-0.068,0.137,0.122,0.122,0.19,0.166
1.628,0.044,0.093,0.049,-0.068,-0.005,0.068,-0.059,0.132,0.107,0.122,0.185,0.151
1.63,0.044,0.088,0.044,-0.063,0.0,0.063,-0.059,0.122,0.098,0.122,0.176,0.151
1.632,0.054,0.083,0.029,-0.068,0.01,0.054,-0.054,0.107,0.088,0.117,0.181,0.146
1.634,0.039,0.073,0.034,-0.054,0.0,0.054,-0.054,0.098,0.083,0.112,0.181,0.142
1.636,0.044,0.068,0.024,-0.054,0.01,0.044,-0.049,0.083,0.078,0.102,0.171,0.142
1.638,0.039,0.068,0.029,-0.054,0.005,0.049,-0.049,0.063,0.063,0.107,0.166,0.142
1.64,0.044,0.073,0.029,-0.059,0.005,0.049,-0.049,0.059,0.063,0.098,0.166,0.137
1.642,0.059,0.078,0.02,-0.068,0.02,0.049,-0.049,0.054,0.059,0.102,0.156,0.137
1.644,0.044,0.068,0.024,-0.054,0.01,0.044,-0.059,0.039,0.034,0.083,0.142,0.122
1.646,0.029,0.049,0.02,-0.039,0.005,0.034,-0.059,0.024,0.029,0.078,0.137,0.107
1.648,0.01,0.029,0.02,-0.02,-0.005,0.024,-0.054,0.015,0.024,0.068,0.127,0.093
1.65,0.0,0.029,0.029,-0.015,-0.015,0.029,-0.054,0.005,0.02,0.054,0.117,0.083
1.652,0.01,0.034,0.024,-0.02,-0.01,0.029,-0.063,0.0,0.005,0.049,0.117,0.078
1.654,0.01,0.039,0.029,-0.024,-0.01,0.034,-0.063,-0.005,0.005,0.044,0.117,0.073
1.656,0.01,0.044,0.034,-0.024,-0.015,0.039,-0.063,-0.02,-0.01,0.039,0.112,0.068
1.658,0.01,0.049,0.039,-0.029,-0.015,0.044,-0.063,-0.029,-0.015,0.034,0.102,0.059
1.66,0.02,0.034,0.015,-0.024,0.0,0.024,-0.063,-0.024,-0.015,0.024,0.098,0.059
1.662,0.02,0.024,0.005,-0.02,0.005,0.015,-0.063,-0.029,-0.01,0.029,0.093,0.054
1.664,0.024,0.044,0.02,-0.034,0.0,0.029,-0.063,-0.034,-0.015,0.029,0.088,0.059
1.666,0.024,0.034,0.01,-0.029,0.005,0.02,-0.059,-0.039,-0.015,0.034,0.083,0.059
1.668,0.015,0.024,0.01,-0.02,0.0,0.015,-0.049,-0.049,-0.024,0.02,0.088,0.054
1.67,0.005,0.02,0.015,-0.01,-0.005,0.015,-0.049,-0.054,-0.029,0.015,0.083,0.044
1.672,-0.01,0.005,0.015,0.005,-0.015,0.01,-0.049,-0.054,-0.034,0.015,0.083,0.029
1.674,-0.029,-0.015,0.015,0.024,-0.024,0.0,-0.049,-0.054,-0.034,0.015,0.073,0.024
1.676,-0.015,-0.005,0.01,0.01,-0.015,0.0,-0.054,-0.054,-0.034,0.015,0.073,0.034
1.678,-0.015,-0.005,0.01,0.01,-0.015,0.0,-0.054,-0.054,-0.039,0.015,0.073,0.034
1.68,-0.024,-0.01,0.015,0.02,-0.02,0.0,-0.059,-0.063,-0.039,0.0,0.068,0.024
1.682,-0.034,-0.01,0.024,0.024,-0.029,0.005,-0.068,-0.068,-0.044,-0.005,0.063,0.015
1.684,-0.02,0.01,0.029,0.005,-0.024,0.02,-0.063,-0.073,-0.039,0.005,0.063,0.034
1.686,-0.015,0.015,0.029,0.0,-0.024,0.02,-0.049,-0.068,-0.039,0.015,0.068,0.034
1.688,-0.01,0.01,0.02,0.0,-0.015,0.015,-0.044,-0.059,-0.034,0.015,0.073,0.034
1.69,0.005,0.029,0.024,-0.015,-0.01,0.024,-0.034,-0.044,-0.034,0.02,0.073,0.044
1.692,0.005,0.02,0.015,-0.01,-0.005,0.015,-0.044,-0.054,-0.034,0.01,0.073,0.034
1.694,-0.005,0.0,0.005,0.005,-0.005,0.0,-0.049,-0.063,-0.039,0.0,0.063,0.024
1.696,-0.02,-0.01,0.01,0.015,-0.015,0.0,-0.049,-0.068,-0.044,-0.005,0.059,0.01
1.698,-0.01,-0.02,-0.01,0.015,0.0,-0.015,-0.049,-0.068,-0.044,-0.005,0.059,0.01
1.7,0.0,-0.02,-0.02,0.01,0.01,-0.02,-0.039,-0.068,-0.044,-0.015,0.059,0.029
1.702,0.0,-0.01,-0.01,0.005,0.005,-0.01,-0.039,-0.068,-0.044,-0.015,0.059,0.029
1.704,0.0,0.005,0.005,0.0,-0.005,0.005,-0.044,-0.068,-0.044,-0.015,0.059,0.024
1.706,-0.01,0.02,0.029,-0.005,-0.02,0.024,-0.044,-0.068,-0.044,-0.015,0.054,0.024
1.708,-0.02,0.005,0.024,0.01,-0.024,0.015,-0.039,-0.059,-0.044,-0.005,0.063,0.024
1.71,-0.02,0.0,0.02,0.01,-0.02,0.01,-0.039,-0.059,-0.044,0.0,0.063,0.024
1.712,-0.02,-0.005,0.015,0.015,-0.02,0.005,-0.029,-0.054,-0.044,0.0,0.063,0.029
1.714,-0.02,-0.015,0.005,0.02,-0.015,-0.005,-0.024,-0.049,-0.044,0.0,0.063,0.029
1.716,-0.02,-0.005,0.015,0.015,-0.02,0.005,-0.029,-0.059,-0.044,-0.005,0.044,0.015
1.718,-0.02,-0.005,0.015,0.015,-0.02,0.005,-0.034,-0.059,-0.039,-0.005,0.054,0.01
1.72,-0.02,-0.005,0.015,0.015,-0.02,0.005,-0.039,-0.059,-0.039,-0.005,0.054,0.01
1.722,-0.01,0.005,0.015,0.005,-0.015,0.01,-0.044,-0.059,-0.039,-0.005,0.054,0.01
1.724,-0.01,0.024,0.034,-0.005,-0.024,0.029,-0.044,-0.049,-0.039,-0.005,0.059,0.015
1.726,-0.015,-0.005,0.01,0.01,-0.015,0.0,-0.044,-0.049,-0.039,-0.005,0.059,0.015
1.728,-0.034,-0.005,0.029,0.02,-0.034,0.01,-0.044,-0.044,-0.039,-0.01,0.063,0.015
1.73,-0.024,0.01,0.034,0.01,-0.029,0.02,-0.044,-0.044,-0.039,-0.01,0.063,0.015
1.732,-0.034,-0.005,0.029,0.02,-0.034,0.01,-0.049,-0.054,-0.039,-0.015,0.049,0.005
1.734,-0.034,-0.015,0.02,0.024,-0.029,0.0,-0.044,-0.049,-0.039,-0.015,0.049,0.005
1.736,-0.039,-0.02,0.02,0.029,-0.029,0.0,-0.034,-0.039,-0.034,-0.01,0.049,0.005
1.738,-0.044,-0.02,0.024,0.034,-0.034,0.0,-0.02,-0.039,-0.034,-0.01,0.059,0.015
1.74,-0.034,-0.005,0.029,0.02,-0.034,0.01,-0.034,-0.049,-0.044,-0.02,0.049,0.0
1.742,-0.034,0.0,0.034,0.02,-0.034,0.015,-0.039,-0.049,-0.044,-0.02,0.039,0.0
1.744,-0.015,0.005,0.02,0.005,-0.02,0.01,-0.044,-0.049,-0.039,-0.015,0.034,0.0
1.746,-0.005,0.005,0.01,0.0,-0.01,0.005,-0.044,-0.044,-0.034,-0.015,0.034,0.0
1.748,-0.015,0.015,0.029,0.0,-0.024,0.02,-0.039,-0.044,-0.034,-0.015,0.034,0.015
1.75,-0.024,0.01,0.034,0.01,-0.029,0.02,-0.034,-0.034,-0.029,-0.015,0.039,0.015
1.752,-0.024,0.015,0.039,0.005,-0.034,0.024,-0.024,-0.034,-0.029,-0.015,0.049,0.005
1.754,-0.02,0.029,0.049,-0.005,-0.034,0.039,-0.02,-0.034,-0.029,-0.015,0.059,0.005
1.756,-0.024,0.039,0.063,-0.005,-0.044,0.049,-0.015,-0.02,-0.02,-0.015,0.059,0.005
1.758,-0.024,0.0,0.024,0.015,-0.024,0.01,-0.015,-0.01,-0.01,-0.015,0.063,0.01
1.76,-0.024,-0.029,-0.005,0.029,-0.01,-0.02,-0.01,-0.01,-0.005,-0.01,0.063,0.015
1.762,-0.029,-0.024,0.005,0.029,-0.02,-0.01,-0.01,-0.015,-0.005,-0.01,0.054,0.015
1.764,-0.034,-0.024,0.01,0.029,-0.024,-0.01,-0.015,-0.024,-0.015,-0.01,0.054,0.005
1.766,-0.039,-0.039,0.0,0.039,-0.02,-0.02,-0.02,-0.02,-0.015,-0.01,0.063,0.005
1.768,-0.054,-0.039,0.015,0.049,-0.034,-0.015,-0.024,-0.02,-0.015,-0.01,0.063,0.01
1.77,-0.049,-0.029,0.02,0.039,-0.034,-0.005,-0.039,-0.02,-0.015,-0.01,0.054,0.01
1.772,-0.039,-0.029,0.01,0.034,-0.024,-0.01,-0.029,-0.01,-0.01,-0.01,0.054,0.005
1.774,-0.02,-0.02,0.0,0.02,-0.01,-0.01,-0.024,-0.01,-0.01,-0.01,0.059,0.005
1.776,-0.01,0.005,0.015,0.005,-0.015,0.01,-0.024,-0.01,-0.005,-0.01,0.063,-0.005
1.778,0.0,0.024,0.024,-0.01,-0.015,0.024,-0.024,-0.005,0.0,-0.01,0.068,-0.005
1.78,-0.01,0.005,0.015,0.005,-0.015,0.01,-0.015,0.0,-0.005,0.0,0.059,0.005
1.782,-0.015,0.005,0.02,0.005,-0.02,0.01,-0.01,0.0,0.0,-0.005,0.059,0.005
1.784,-0.015,0.005,0.02,0.005,-0.02,0.01,-0.01,0.0,0.0,-0.005,0.059,0.01
1.786,-0.024,0.005,0.029,0.01,-0.029,0.015,-0.005,0.0,0.0,-0.005,0.059,0.015
1.788,-0.029,-0.005,0.024,0.02,-0.029,0.01,-0.02,-0.005,-0.01,-0.01,0.063,0.01
1.79,-0.029,-0.01,0.02,0.02,-0.024,0.005,-0.02,-0.015,-0.01,-0.015,0.059,0.0
1.792,-0.034,-0.015,0.02,0.024,-0.029,0.0,-0.024,-0.005,-0.01,-0.02,0.059,-0.005
1.794,-0.044,-0.024,0.02,0.034,-0.034,-0.005,-0.029,0.0,-0.01,-0.024,0.059,-0.01
1.796,-0.039,-0.015,0.024,0.029,-0.034,0.005,-0.02,0.0,-0.01,-0.024,0.054,-0.015
1.798,-0.034,-0.015,0.02,0.024,-0.029,0.0,-0.02,0.0,-0.015,-0.024,0.054,-0.015
1.8,-0.029,-0.02,0.01,0.024,-0.02,-0.005,-0.02,-0.005,-0.015,-0.024,0.054,-0.01
1.802,-0.02,-0.02,0.0,0.02,-0.01,-0.01,-0.02,-0.005,-0.01,-0.029,0.049,-0.01
1.804,-0.024,-0.01,0.015,0.02,-0.02,0.0,-0.02,-0.005,-0.01,-0.02,0.049,-0.01
1.806,-0.029,-0.005,0.024,0.02,-0.029,0.01,-0.015,0.0,-0.01,-0.015,0.059,-0.005
1.808,-0.039,-0.005,0.034,0.024,-0.039,0.015,-0.01,0.005,-0.005,-0.01,0.063,0.01
1.81,-0.044,-0.015,0.029,0.029,-0.039,0.005,-0.01,0.005,-0.005,-0.01,0.063,0.015
1.812,-0.024,-0.015,0.01,0.02,-0.02,-0.005,-0.01,0.005,0.0,-0.015,0.059,0.015
1.814,-0.01,-0.01,0.0,0.01,-0.005,-0.005,-0.02,0.0,-0.01,-0.02,0.049,0.024
1.816,0.005,-0.01,-0.015,0.005,0.01,-0.015,-0.02,-0.01,-0.01,-0.024,0.044,0.01
1.818,0.015,-0.01,-0.024,0.0,0.02,-0.02,-0.02,-0.01,-0.01,-0.024,0.063,0.01
1.82,0.005,-0.02,-0.024,0.01,0.015,-0.024,-0.01,-0.005,-0.01,-0.024,0.059,0.0
1.822,-0.005,-0.02,-0.015,0.015,0.005,-0.02,-0.01,-0.005,-0.01,-0.024,0.054,0.005
1.824,-0.01,-0.02,-0.01,0.015,0.0,-0.015,-0.01,-0.005,-0.01,-0.024,0.059,0.005
1.826,-0.02,-0.02,0.0,0.02,-0.01,-0.01,-0.005,-0.01,-0.01,-0.024,0.054,0.005
1.828,-0.02,-0.01,0.01,0.015,-0.015,0.0,0.005,-0.01,-0.02,-0.024,0.063,0.015
1.83,-0.02,-0.005,0.015,0.015,-0.02,0.005,0.005,-0.01,-0.02,-0.02,0.059,0.015
1.832,-0.029,-0.015,0.015,0.024,-0.024,0.0,0.005,-0.01,-0.015,-0.02,0.059,0.015
1.834,-0.029,-0.01,0.02,0.02,-0.024,0.005,0.005,-0.01,-0.015,-0.024,0.054,0.015
1.836,-0.024,-0.01,0.015,0.02,-0.02,0.0,-0.015,0.0,-0.015,-0.039,0.049,0.01
1.838,-0.02,0.01,0.029,0.005,-0.024,0.02,-0.015,-0.015,-0.024,-0.039,0.049,0.01
1.84,-0.02,0.005,0.024,0.01,-0.024,0.015,-0.015,-0.015,-0.024,-0.034,0.054,0.01
1.842,-0.015,-0.02,-0.005,0.02,-0.005,-0.015,-0.015,-0.015,-0.024,-0.029,0.063,0.02
1.844,-0.024,-0.015,0.01,0.02,-0.02,-0.005,-0.01,-0.01,-0.015,-0.015,0.073,0.029
1.846,-0.034,-0.015,0.02,0.024,-0.029,0.0,-0.005,-0.01,-0.015,-0.015,0.073,0.029
1.848,-0.044,-0.015,0.029,0.029,-0.039,0.005,0.0,-0.015,-0.02,-0.024,0.059,0.029
1.85,-0.034,-0.01,0.024,0.024,-0.029,0.005,0.01,-0.02,-0.02,-0.024,0.059,0.029
1.852,-0.029,0.0,0.029,0.015,-0.029,0.015,0.0,-0.024,-0.034,-0.029,0.049,0.02
1.854,-0.029,0.0,0.029,0.015,-0.029,0.015,-0.015,-0.039,-0.044,-0.039,0.049,0.005
1.856,-0.024,0.0,0.024,0.015,-0.024,0.01,-0.024,-0.044,-0.049,-0.054,0.049,-0.005
1.858,-0.02,-0.005,0.015,0.015,-0.02,0.005,-0.034,-0.049,-0.054,-0.063,0.044,-0.02
1.86,-0.049,-0.029,0.02,0.039,-0.034,-0.005,-0.029,-0.039,-0.044,-0.054,0.044,-0.015
1.862,-0.049,-0.02,0.029,0.034,-0.039,0.005,-0.029,-0.034,-0.044,-0.049,0.044,-0.01
1.864,-0.034,-0.02,0.015,0.029,-0.024,-0.005,-0.029,-0.034,-0.049,-0.049,0.049,-0.005
1.866,-0.059,-0.039,0.02,0.049,-0.039,-0.01,-0.029,-0.034,-0.049,-0.044,0.059,0.0
1.868,-0.044,-0.039,0.005,0.044,-0.024,-0.02,-0.015,-0.034,-0.044,-0.034,0.059,0.01
1.87,-0.034,-0.01,0.024,0.024,-0.029,0.005,-0.02,-0.034,-0.044,-0.034,0.054,0.01
1.872,-0.024,-0.005,0.02,0.015,-0.024,0.005,-0.015,-0.034,-0.039,-0.034,0.054,0.005
1.874,-0.024,-0.024,0.0,0.024,-0.015,-0.015,-0.005,-0.034,-0.034,-0.034,0.059,0.005
1.876,-0.024,-0.029,-0.005,0.029,-0.01,-0.02,-0.015,-0.024,-0.034,-0.029,0.059,0.005
1.878,-0.02,-0.029,-0.01,0.024,-0.005,-0.02,-0.015,-0.029,-0.034,-0.034,0.059,0.005
1.88,-0.02,-0.029,-0.01,0.024,-0.005,-0.02,-0.015,-0.029,-0.034,-0.039,0.059,0.005
1.882,-0.02,-0.02,0.0,0.02,-0.01,-0.01,-0.01,-0.024,-0.029,-0.044,0.059,0.005
1.884,-0.029,-0.029,0.0,0.029,-0.015,-0.015,-0.01,-0.034,-0.039,-0.034,0.054,0.005
1.886,-0.029,-0.034,-0.005,0.034,-0.015,-0.02,-0.01,-0.044,-0.049,-0.039,0.044,0.0
1.888,-0.029,-0.034,-0.005,0.034,-0.015,-0.02,-0.015,-0.049,-0.054,-0.044,0.044,0.0
1.89,-0.024,-0.02,0.005,0.024,-0.015,-0.01,-0.02,-0.049,-0.059,-0.049,0.039,0.0
1.892,-0.024,-0.02,0.005,0.024,-0.015,-0.01,-0.034,-0.059,-0.063,-0.054,0.034,-0.01
1.894,-0.029,-0.024,0.005,0.029,-0.02,-0.01,-0.034,-0.059,-0.063,-0.059,0.029,-0.015
1.896,-0.029,-0.02,0.01,0.024,-0.02,-0.005,-0.034,-0.059,-0.063,-0.063,0.029,-0.015
1.898,-0.034,-0.024,0.01,0.029,-0.024,-0.01,-0.034,-0.059,-0.063,-0.063,0.029,-0.015
1.9,-0.029,-0.02,0.01,0.024,-0.02,-0.005,-0.029,-0.063,-0.073,-0.068,0.034,-0.005
1.902,-0.029,-0.02,0.01,0.024,-0.02,-0.005,-0.029,-0.063,-0.068,-0.068,0.034,-0.005
1.904,-0.029,-0.015,0.015,0.024,-0.024,0.0,-0.029,-0.063,-0.068,-0.068,0.034,-0.01
1.906,-0.034,-0.005,0.029,0.02,-0.034,0.01,-0.029,-0.073,-0.078,-0.068,0.034,-0.02
1.908,-0.029,-0.029,0.0,0.029,-0.015,-0.015,-0.024,-0.068,-0.063,-0.054,0.034,-0.01
1.91,-0.024,-0.044,-0.02,0.034,-0.005,-0.034,-0.02,-0.059,-0.054,-0.044,0.039,0.005
1.912,-0.029,-0.063,-0.034,0.049,0.0,-0.049,-0.01,-0.054,-0.049,-0.039,0.049,0.005
1.914,-0.034,-0.078,-0.044,0.059,0.005,-0.063,-0.005,-0.049,-0.049,-0.044,0.049,-0.005
1.916,-0.024,-0.044,-0.02,0.034,-0.005,-0.034,-0.02,-0.063,-0.059,-0.054,0.034,-0.02
1.918,-0.029,-0.024,0.005,0.029,-0.02,-0.01,-0.02,-0.063,-0.059,-0.054,0.029,-0.02
1.92,-0.029,-0.015,0.015,0.024,-0.024,0.0,-0.02,-0.063,-0.059,-0.054,0.029,-0.015
1.922,-0.029,-0.005,0.024,0.02,-0.029,0.01,-0.015,-0.059,-0.054,-0.049,0.029,-0.005
1.924,-0.029,-0.024,0.005,0.029,-0.02,-0.01,-0.01,-0.049,-0.049,-0.034,0.034,-0.005
1.926,-0.034,-0.044,-0.01,0.039,-0.015,-0.029,-0.01,-0.049,-0.049,-0.034,0.039,-0.005
1.928,-0.034,-0.059,-0.024,0.049,-0.005,-0.044,-0.015,-0.054,-0.049,-0.034,0.039,-0.005
1.93,-0.029,-0.073,-0.044,0.054,0.005,-0.059,-0.02,-0.054,-0.059,-0.039,0.034,-0.01
1.932,-0.039,-0.068,-0.029,0.054,-0.005,-0.049,-0.024,-0.063,-0.068,-0.049,0.034,-0.024
1.934,-0.049,-0.063,-0.015,0.059,-0.02,-0.039,-0.024,-0.068,-0.073,-0.049,0.034,-0.029
1.936,-0.049,-0.049,0.0,0.049,-0.024,-0.024,-0.029,-0.068,-0.073,-0.049,0.034,-0.039
1.938,-0.044,-0.039,0.005,0.044,-0.024,-0.02,-0.034,-0.068,-0.073,-0.054,0.029,-0.039
1.94,-0.054,-0.029,0.024,0.044,-0.039,-0.005,-0.034,-0.059,-0.063,-0.049,0.039,-0.029
1.942,-0.054,-0.029,0.024,0.044,-0.039,-0.005,-0.029,-0.059,-0.063,-0.049,0.034,-0.029
1.944,-0.063,-0.034,0.029,0.049,-0.049,-0.005,-0.024,-0.059,-0.063,-0.049,0.034,-0.02
1.946,-0.063,-0.039,0.024,0.054,-0.044,-0.01,-0.02,-0.059,-0.063,-0.039,0.034,-0.02
1.948,-0.049,-0.044,0.005,0.049,-0.029,-0.02,-0.01,-0.059,-0.063,-0.039,0.024,-0.005
1.95,-0.029,-0.049,-0.02,0.039,-0.005,-0.034,-0.005,-0.059,-0.063,-0.039,0.034,-0.005
1.952,-0.02,-0.054,-0.034,0.039,0.005,-0.044,0.0,-0.054,-0.059,-0.034,0.044,-0.005
1.954,-0.015,-0.054,-0.039,0.034,0.01,-0.049,0.0,-0.054,-0.059,-0.034,0.044,-0.005
1.956,-0.02,-0.039,-0.02,0.029,0.0,-0.029,-0.02,-0.059,-0.073,-0.044,0.024,-0.01
1.958,-0.029,-0.039,-0.01,0.034,-0.01,-0.024,-0.02,-0.063,-0.073,-0.049,0.024,-0.024
1.96,-0.039,-0.049,-0.01,0.044,-0.015,-0.029,-0.015,-0.068,-0.068,-0.054,0.029,-0.034
1.962,-0.049,-0.049,0.0,0.049,-0.024,-0.024,-0.015,-0.073,-0.068,-0.063,0.029,-0.039
1.964,-0.044,-0.039,0.005,0.044,-0.024,-0.02,-0.005,-0.073,-0.059,-0.059,0.024,-0.029
1.966,-0.044,-0.049,-0.005,0.049,-0.02,-0.029,-0.005,-0.068,-0.059,-0.054,0.029,-0.02
1.968,-0.039,-0.049,-0.01,0.044,-0.015,-0.029,-0.005,-0.063,-0.059,-0.044,0.034,-0.01
1.97,-0.034,-0.034,0.0,0.034,-0.02,-0.02,-0.01,-0.063,-0.059,-0.039,0.034,-0.01
1.972,-0.039,-0.044,-0.005,0.044,-0.02,-0.024,-0.015,-0.073,-0.073,-0.054,0.02,-0.029
1.974,-0.049,-0.054,-0.005,0.054,-0.024,-0.029,-0.02,-0.068,-0.073,-0.054,0.02,-0.029
1.976,-0.054,-0.073,-0.02,0.063,-0.02,-0.049,-0.024,-0.068,-0.073,-0.054,0.024,-0.034
1.978,-0.059,-0.054,0.005,0.059,-0.034,-0.024,-0.029,-0.068,-0.073,-0.049,0.034,-0.034
1.98,-0.039,-0.049,-0.01,0.044,-0.015,-0.029,-0.024,-0.068,-0.073,-0.049,0.024,-0.034
1.982,-0.034,-0.049,-0.015,0.044,-0.01,-0.034,-0.024,-0.068,-0.073,-0.049,0.024,-0.039
1.984,-0.034,-0.049,-0.015,0.044,-0.01,-0.034,-0.024,-0.068,-0.073,-0.054,0.024,-0.039
1.986,-0.034,-0.049,-0.015,0.044,-0.01,-0.034,-0.024,-0.068,-0.073,-0.054,0.024,-0.034
1.988,-0.034,-0.034,0.0,0.034,-0.02,-0.02,-0.015,-0.068,-0.063,-0.049,0.029,-0.029
1.99,-0.029,-0.034,-0.005,0.034,-0.015,-0.02,-0.024,-0.068,-0.063,-0.049,0.029,-0.024
1.992,-0.029,-0.034,-0.005,0.034,-0.015,-0.02,-0.015,-0.068,-0.063,-0.044,0.029,-0.02
1.994,-0.029,-0.039,-0.01,0.034,-0.01,-0.024,-0.015,-0.068,-0.063,-0.044,0.034,-0.015
1.996,-0.044,-0.054,-0.01,0.049,-0.02,-0.034,-0.015,-0.068,-0.063,-0.044,0.044,-0.024
1.998,-0.063,-0.059,0.005,0.063,-0.034,-0.029,-0.015,-0.068,-0.063,-0.039,0.044,-0.015
2.0,-0.068,-0.063,0.005,0.068,-0.039,-0.029,-0.015,-0.068,-0.063,-0.039,0.044,-0.015
2.002,-0.068,-0.059,0.01,0.063,-0.039,-0.024,-0.015,-0.068,-0.063,-0.039,0.044,-0.015
2.004,-0.054,-0.078,-0.024,0.068,-0.015,-0.054,-0.024,-0.083,-0.073,-0.054,0.039,-0.02
2.006,-0.054,-0.078,-0.024,0.068,-0.015,-0.054,-0.024,-0.083,-0.068,-0.054,0.034,-0.02
2.008,-0.039,-0.073,-0.034,0.059,-0.005,-0.054,-0.024,-0.078,-0.068,-0.054,0.029,-0.02
2.01,-0.039,-0.068,-0.029,0.054,-0.005,-0.049,-0.024,-0.078,-0.078,-0.054,0.024,-0.024
2.012,-0.01,-0.039,-0.029,0.024,0.01,-0.034,-0.029,-0.083,-0.088,-0.049,0.02,-0.029
2.014,-0.01,0.01,0.02,0.0,-0.015,0.015,-0.015,-0.073,-0.078,-0.039,0.029,-0.02
2.016,-0.034,0.0,0.034,0.02,-0.034,0.015,-0.005,-0.063,-0.073,-0.044,0.029,-0.02
2.018,-0.049,-0.024,0.024,0.039,-0.039,0.0,-0.024,-0.073,-0.078,-0.044,0.024,-0.029
2.02,-0.039,-0.039,0.0,0.039,-0.02,-0.02,-0.029,-0.078,-0.078,-0.049,0.029,-0.029
2.022,-0.029,-0.049,-0.02,0.039,-0.005,-0.034,-0.029,-0.068,-0.068,-0.049,0.029,-0.02
2.024,-0.029,-0.049,-0.02,0.039,-0.005,-0.034,-0.029,-0.068,-0.068,-0.049,0.029,-0.02
2.026,-0.029,-0.049,-0.02,0.039,-0.005,-0.034,-0.029,-0.068,-0.068,-0.049,0.029,-0.02
2.028,-0.029,-0.049,-0.02,0.039,-0.005,-0.034,-0.029,-0.068,-0.068,-0.049,0.029,-0.02
2.03,-0.034,-0.063,-0.029,0.049,-0.005,-0.049,-0.029,-0.078,-0.078,-0.049,0.02,-0.02
2.032,-0.039,-0.068,-0.029,0.054,-0.005,-0.049,-0.029,-0.078,-0.078,-0.049,0.02,-0.02
2.034,-0.044,-0.073,-0.029,0.059,-0.01,-0.054,-0.029,-0.078,-0.078,-0.049,0.02,-0.02
2.036,-0.049,-0.078,-0.029,0.063,-0.01,-0.054,-0.029,-0.078,-0.078,-0.049,0.02,-0.02
2.038,-0.059,-0.063,-0.005,0.063,-0.029,-0.034,-0.029,-0.078,-0.078,-0.049,0.02,-0.024
2.04,-0.059,-0.059,0.0,0.059,-0.029,-0.029,-0.029,-0.078,-0.078,-0.049,0.02,-0.029
2.042,-0.059,-0.054,0.005,0.059,-0.034,-0.024,-0.029,-0.078,-0.078,-0.049,0.02,-0.034
2.044,-0.059,-0.049,0.01,0.054,-0.034,-0.02,-0.029,-0.078,-0.078,-0.049,0.02,-0.039
2.046,-0.068,-0.054,0.015,0.063,-0.044,-0.02,-0.039,-0.088,-0.088,-0.049,0.01,-0.029
2.048,-0.068,-0.059,0.01,0.063,-0.039,-0.024,-0.039,-0.088,-0.088,-0.049,0.01,-0.029
2.05,-0.068,-0.063,0.005,0.068,-0.039,-0.029,-0.039,-0.088,-0.088,-0.049,0.01,-0.029
2.052,-0.068,-0.068,0.0,0.068,-0.034,-0.034,-0.039,-0.088,-0.088,-0.049,0.01,-0.029
2.054,-0.059,-0.063,-0.005,0.063,-0.029,-0.034,-0.029,-0.088,-0.088,-0.039,0.02,-0.029
2.056,-0.049,-0.059,-0.01,0.054,-0.02,-0.034,-0.029,-0.088,-0.088,-0.039,0.02,-0.029
2.058,-0.039,-0.054,-0.015,0.049,-0.015,-0.034,-0.029,-0.088,-0.088,-0.039,0.02,-0.029
2.06,-0.029,-0.049,-0.02,0.039,-0.005,-0.034,-0.029,-0.088,-0.088,-0.039,0.02,-0.029
2.062,-0.039,-0.039,0.0,0.039,-0.02,-0.02,-0.02,-0.078,-0.078,-0.039,0.029,-0.029
2.064,-0.039,-0.039,0.0,0.039,-0.02,-0.02,-0.02,-0.078,-0.078,-0.039,0.029,-0.029
2.066,-0.039,-0.039,0.0,0.039,-0.02,-0.02,-0.02,-0.078,-0.078,-0.039,0.029,-0.029
2.068,-0.039,-0.039,0.0,0.039,-0.02,-0.02,-0.02,-0.078,-0.078,-0.039,0.029,-0.029
2.07,-0.034,-0.039,-0.005,0.039,-0.015,-0.024,-0.029,-0.088,-0.088,-0.039,0.029,-0.02
2.072,-0.029,-0.039,-0.01,0.034,-0.01,-0.024,-0.029,-0.088,-0.088,-0.039,0.029,-0.02
2.074,-0.024,-0.039,-0.015,0.034,-0.005,-0.029,-0.029,-0.088,-0.088,-0.039,0.029,-0.02
2.076,-0.02,-0.039,-0.02,0.029,0.0,-0.029,-0.029,-0.088,-0.088,-0.039,0.029,-0.02
2.078,-0.034,-0.029,0.005,0.034,-0.02,-0.015,-0.029,-0.088,-0.098,-0.049,0.02,-0.034
2.08,-0.039,-0.02,0.02,0.029,-0.029,0.0,-0.029,-0.088,-0.098,-0.049,0.02,-0.039
2.082,-0.044,-0.01,0.034,0.029,-0.039,0.01,-0.029,-0.088,-0.098,-0.049,0.02,-0.044
2.084,-0.049,0.0,0.049,0.024,-0.049,0.024,-0.029,-0.088,-0.098,-0.049,0.02,-0.049
2.086,-0.039,-0.02,0.02,0.029,-0.029,0.0,-0.02,-0.078,-0.093,-0.044,0.024,-0.034
2.088,-0.039,-0.029,0.01,0.034,-0.024,-0.01,-0.02,-0.078,-0.088,-0.039,0.029,-0.029
2.09,-0.039,-0.039,0.0,0.039,-0.02,-0.02,-0.02,-0.078,-0.083,-0.034,0.034,-0.024
2.092,-0.039,-0.049,-0.01,0.044,-0.015,-0.029,-0.02,-0.078,-0.078,-0.029,0.039,-0.02
2.094,-0.039,-0.039,0.0,0.039,-0.02,-0.02,-0.029,-0.088,-0.083,-0.039,0.034,-0.029
2.096,-0.039,-0.029,0.01,0.034,-0.024,-0.01,-0.029,-0.088,-0.088,-0.039,0.029,-0.029
2.098,-0.039,-0.02,0.02,0.029,-0.029,0.0,-0.029,-0.088,-0.093,-0.039,0.024,-0.029
2.1,-0.039,-0.01,0.029,0.024,-0.034,0.01,-0.029,-0.088,-0.098,-0.039,0.02,-0.029
2.102,-0.044,-0.039,0.005,0.044,-0.024,-0.02,-0.024,-0.083,-0.093,-0.029,0.024,-0.02
2.104,-0.049,-0.059,-0.01,0.054,-0.02,-0.034,-0.02,-0.078,-0.088,-0.029,0.029,-0.02
2.106,-0.054,-0.078,-0.024,0.068,-0.015,-0.054,-0.015,-0.073,-0.083,-0.029,0.034,-0.02
2.108,-0.059,-0.098,-0.039,0.078,-0.01,-0.068,-0.01,-0.068,-0.078,-0.029,0.039,-0.02
2.11,-0.059,-0.083,-0.024,0.073,-0.02,-0.054,-0.029,-0.083,-0.093,-0.039,0.024,-0.024
2.112,-0.049,-0.078,-0.029,0.063,-0.01,-0.054,-0.034,-0.088,-0.093,-0.039,0.024,-0.029
2.114,-0.049,-0.054,-0.005,0.054,-0.024,-0.029,-0.034,-0.093,-0.098,-0.039,0.024,-0.034
2.116,-0.054,-0.063,-0.01,0.059,-0.024,-0.039,-0.039,-0.098,-0.102,-0.039,0.024,-0.039
2.118,-0.054,-0.063,-0.01,0.059,-0.024,-0.039,-0.024,-0.093,-0.098,-0.039,0.029,-0.039
2.12,-0.034,-0.054,-0.02,0.044,-0.01,-0.039,-0.02,-0.088,-0.093,-0.039,0.029,-0.039
2.122,-0.02,-0.029,-0.01,0.024,-0.005,-0.02,-0.015,-0.083,-0.088,-0.039,0.034,-0.039
2.124,-0.01,-0.02,-0.01,0.015,0.0,-0.015,-0.01,-0.078,-0.088,-0.039,0.034,-0.039
2.126,-0.024,-0.029,-0.005,0.029,-0.01,-0.02,-0.024,-0.078,-0.093,-0.034,0.029,-0.044
2.128,-0.034,-0.029,0.005,0.034,-0.02,-0.015,-0.024,-0.083,-0.093,-0.034,0.029,-0.044
2.13,-0.039,-0.029,0.01,0.034,-0.024,-0.01,-0.024,-0.083,-0.088,-0.034,0.029,-0.039
2.132,-0.049,-0.029,0.02,0.039,-0.034,-0.005,-0.024,-0.083,-0.088,-0.034,0.029,-0.029
2.134,-0.049,-0.034,0.015,0.044,-0.034,-0.01,-0.034,-0.093,-0.098,-0.034,0.029,-0.029
2.136,-0.049,-0.039,0.01,0.044,-0.029,-0.015,-0.044,-0.093,-0.098,-0.039,0.024,-0.034
2.138,-0.059,-0.044,0.015,0.054,-0.039,-0.015,-0.034,-0.093,-0.098,-0.039,0.024,-0.039
2.14,-0.059,-0.059,0.0,0.059,-0.029,-0.029,-0.034,-0.093,-0.098,-0.034,0.024,-0.039
2.142,-0.054,-0.063,-0.01,0.059,-0.024,-0.039,-0.034,-0.083,-0.088,-0.039,0.024,-0.039
2.144,-0.054,-0.063,-0.01,0.059,-0.024,-0.039,-0.024,-0.078,-0.083,-0.034,0.034,-0.034
2.146,-0.059,-0.063,-0.005,0.063,-0.029,-0.034,-0.02,-0.078,-0.083,-0.029,0.034,-0.034
2.148,-0.063,-0.063,0.0,0.063,-0.034,-0.034,-0.02,-0.078,-0.083,-0.029,0.034,-0.039
2.15,-0.049,-0.054,-0.005,0.054,-0.024,-0.029,-0.015,-0.083,-0.083,-0.039,0.034,-0.034
2.152,-0.044,-0.044,0.0,0.044,-0.024,-0.024,-0.005,-0.083,-0.083,-0.039,0.034,-0.034
2.154,-0.039,-0.015,0.024,0.029,-0.034,0.005,-0.005,-0.083,-0.073,-0.034,0.034,-0.029
2.156,-0.034,0.015,0.049,0.01,-0.044,0.029,0.0,-0.083,-0.068,-0.034,0.039,-0.024
2.158,-0.024,0.005,0.029,0.01,-0.029,0.015,0.02,-0.063,-0.063,-0.024,0.049,-0.015
2.16,-0.024,-0.005,0.02,0.015,-0.024,0.005,0.024,-0.059,-0.054,-0.015,0.054,-0.005
2.162,-0.015,0.02,0.034,0.0,-0.024,0.024,0.029,-0.049,-0.044,-0.005,0.068,-0.005
2.164,-0.015,0.02,0.034,0.0,-0.024,0.024,0.039,-0.039,-0.034,0.005,0.078,-0.005
2.166,-0.024,0.02,0.044,0.005,-0.034,0.029,0.044,-0.034,-0.039,0.01,0.078,0.005
2.168,-0.024,0.02,0.044,0.005,-0.034,0.029,0.049,-0.034,-0.039,0.01,0.073,0.005
2.17,-0.015,0.034,0.049,-0.01,-0.034,0.039,0.049,-0.034,-0.039,0.01,0.078,0.005
2.172,-0.015,0.029,0.044,-0.005,-0.029,0.034,0.059,-0.029,-0.029,0.015,0.073,0.005
2.174,-0.029,0.029,0.059,0.0,-0.044,0.044,0.054,-0.024,-0.039,0.005,0.083,0.0
2.176,-0.034,0.024,0.059,0.005,-0.049,0.039,0.068,-0.015,-0.034,0.005,0.083,0.005
2.178,-0.034,0.015,0.049,0.01,-0.044,0.029,0.068,-0.015,-0.024,0.015,0.088,0.005
2.18,-0.029,0.044,0.073,-0.005,-0.054,0.059,0.073,-0.005,-0.02,0.02,0.093,0.005
2.182,-0.024,0.068,0.093,-0.02,-0.059,0.078,0.083,-0.005,-0.01,0.029,0.093,0.0
2.184,-0.029,0.068,0.098,-0.02,-0.063,0.083,0.083,-0.005,-0.01,0.029,0.093,0.0
2.186,-0.034,0.068,0.102,-0.015,-0.068,0.083,0.073,-0.01,-0.01,0.029,0.093,0.0
2.188,-0.015,0.078,0.093,-0.029,-0.054,0.083,0.068,-0.015,-0.01,0.039,0.093,0.005
2.19,-0.01,0.093,0.102,-0.039,-0.059,0.098,0.059,-0.02,-0.01,0.039,0.098,0.01
2.192,-0.01,0.102,0.112,-0.044,-0.063,0.107,0.044,-0.024,-0.01,0.039,0.098,0.01
2.194,-0.01,0.102,0.112,-0.044,-0.063,0.107,0.029,-0.039,-0.02,0.039,0.098,0.01
2.196,-0.01,0.098,0.107,-0.044,-0.059,0.102,0.029,-0.039,-0.02,0.039,0.102,0.015
2.198,-0.024,0.098,0.122,-0.034,-0.073,0.107,0.02,-0.039,-0.02,0.039,0.098,0.015
2.2,-0.024,0.122,0.146,-0.049,-0.088,0.132,0.01,-0.039,-0.01,0.039,0.107,0.02
2.202,-0.02,0.142,0.161,-0.059,-0.093,0.151,-0.005,-0.044,-0.024,0.039,0.107,0.02
2.204,-0.024,0.132,0.156,-0.054,-0.093,0.142,-0.01,-0.049,-0.029,0.044,0.107,0.024
2.206,-0.01,0.127,0.137,-0.059,-0.073,0.132,-0.015,-0.054,-0.02,0.054,0.107,0.034
2.208,0.005,0.127,0.122,-0.063,-0.059,0.122,-0.024,-0.054,-0.02,0.049,0.107,0.034
2.21,0.015,0.127,0.112,-0.068,-0.049,0.117,-0.034,-0.059,-0.02,0.049,0.107,0.034
2.212,0.02,0.127,0.107,-0.073,-0.044,0.117,-0.034,-0.063,-0.02,0.049,0.107,0.034
2.214,0.015,0.137,0.122,-0.073,-0.054,0.127,-0.059,-0.078,-0.044,0.029,0.098,0.029
2.216,0.015,0.127,0.112,-0.068,-0.049,0.117,-0.059,-0.088,-0.044,0.024,0.093,0.029
2.218,0.0,0.117,0.117,-0.059,-0.059,0.117,-0.068,-0.088,-0.044,0.024,0.093,0.029
2.22,0.0,0.107,0.107,-0.054,-0.054,0.107,-0.073,-0.098,-0.059,0.015,0.088,0.024
2.222,0.0,0.093,0.093,-0.044,-0.049,0.093,-0.083,-0.107,-0.063,0.015,0.078,0.02
2.224,0.005,0.088,0.083,-0.044,-0.039,0.083,-0.083,-0.107,-0.063,0.015,0.078,0.01
2.226,-0.015,0.083,0.098,-0.034,-0.059,0.088,-0.073,-0.098,-0.059,0.02,0.083,0.024
2.228,-0.02,0.078,0.098,-0.029,-0.059,0.088,-0.068,-0.088,-0.049,0.029,0.088,0.029
2.23,-0.039,0.068,0.107,-0.015,-0.073,0.088,-0.068,-0.078,-0.049,0.029,0.078,0.029
2.232,-0.039,0.049,0.088,-0.005,-0.063,0.068,-0.068,-0.083,-0.059,0.02,0.073,0.029
2.234,-0.039,0.039,0.078,0.0,-0.059,0.059,-0.068,-0.088,-0.059,0.01,0.068,0.02
2.236,-0.039,0.039,0.078,0.0,-0.059,0.059,-0.068,-0.088,-0.063,0.01,0.063,0.005
2.238,-0.049,0.024,0.073,0.015,-0.063,0.049,-0.054,-0.098,-0.063,0.005,0.068,0.005
2.24,-0.054,0.0,0.054,0.029,-0.054,0.024,-0.054,-0.098,-0.068,-0.005,0.063,0.0
2.242,-0.054,-0.02,0.034,0.039,-0.044,0.005,-0.054,-0.107,-0.073,-0.01,0.049,-0.01
2.244,-0.068,-0.054,0.015,0.063,-0.044,-0.02,-0.063,-0.112,-0.093,-0.024,0.029,-0.024
2.246,-0.063,-0.054,0.01,0.059,-0.039,-0.024,-0.073,-0.127,-0.112,-0.039,0.01,-0.049
2.248,-0.063,-0.059,0.005,0.063,-0.034,-0.029,-0.073,-0.127,-0.117,-0.039,0.01,-0.059
2.25,-0.059,-0.073,-0.015,0.068,-0.024,-0.044,-0.068,-0.122,-0.117,-0.039,0.01,-0.059
2.252,-0.059,-0.083,-0.024,0.073,-0.02,-0.054,-0.068,-0.117,-0.112,-0.039,0.015,-0.054
2.254,-0.049,-0.054,-0.005,0.054,-0.024,-0.029,-0.073,-0.112,-0.098,-0.044,0.015,-0.039
2.256,-0.044,-0.044,0.0,0.044,-0.024,-0.024,-0.073,-0.112,-0.098,-0.044,0.015,-0.039
2.258,-0.044,-0.034,0.01,0.039,-0.029,-0.015,-0.078,-0.112,-0.098,-0.044,0.015,-0.049
2.26,-0.039,-0.02,0.02,0.029,-0.029,0.0,-0.078,-0.112,-0.093,-0.044,0.015,-0.039
2.262,-0.044,-0.039,0.005,0.044,-0.024,-0.02,-0.059,-0.107,-0.083,-0.039,0.024,-0.034
2.264,-0.044,-0.059,-0.015,0.054,-0.015,-0.039,-0.054,-0.107,-0.093,-0.044,0.024,-0.039
2.266,-0.044,-0.078,-0.034,0.063,-0.005,-0.059,-0.054,-0.102,-0.098,-0.044,0.015,-0.034
2.268,-0.044,-0.088,-0.044,0.068,0.0,-0.068,-0.049,-0.107,-0.102,-0.039,0.01,-0.034
2.27,-0.034,-0.078,-0.044,0.059,0.005,-0.063,-0.059,-0.107,-0.102,-0.049,0.01,-0.054
2.272,-0.054,-0.083,-0.029,0.068,-0.015,-0.059,-0.068,-0.122,-0.112,-0.049,0.005,-0.063
2.274,-0.054,-0.112,-0.059,0.083,0.0,-0.088,-0.063,-0.112,-0.107,-0.049,0.005,-0.063
2.276,-0.054,-0.142,-0.088,0.098,0.015,-0.117,-0.059,-0.098,-0.098,-0.039,0.01,-0.059
2.278,-0.068,-0.112,-0.044,0.093,-0.015,-0.078,-0.054,-0.102,-0.098,-0.049,0.0,-0.068
2.28,-0.073,-0.098,-0.024,0.088,-0.024,-0.063,-0.015,-0.068,-0.083,-0.049,-0.015,-0.078
2.282,-0.063,-0.127,-0.063,0.098,0.0,-0.098,0.034,-0.005,-0.039,-0.039,-0.015,-0.088
2.284,-0.054,-0.137,-0.083,0.098,0.015,-0.112,0.068,0.073,0.01,-0.039,-0.02,-0.102
2.286,-0.063,-0.117,-0.054,0.093,-0.005,-0.088,0.083,0.117,0.029,-0.039,-0.034,-0.122
2.288,-0.083,-0.127,-0.044,0.107,-0.02,-0.088,0.093,0.142,0.054,-0.039,-0.054,-0.151
2.29,-0.083,-0.137,-0.054,0.112,-0.015,-0.098,0.117,0.185,0.078,-0.029,-0.063,-0.181
2.292,-0.068,-0.088,-0.02,0.078,-0.024,-0.054,0.146,0.224,0.117,-0.02,-0.063,-0.176
2.294,-0.068,-0.059,0.01,0.063,-0.039,-0.024,0.161,0.268,0.151,0.0,-0.049,-0.156
2.296,-0.054,-0.049,0.005,0.054,-0.029,-0.024,0.166,0.293,0.176,0.044,-0.01,-0.117
2.298,0.0,-0.005,-0.005,0.005,0.0,-0.005,0.166,0.332,0.224,0.093,0.068,-0.034
2.3,0.049,0.02,-0.029,-0.034,0.039,-0.005,0.181,0.39,0.278,0.161,0.156,0.059
2.302,0.044,0.039,-0.005,-0.039,0.024,0.015,0.171,0.41,0.327,0.234,0.254,0.146
2.304,0.073,0.107,0.034,-0.088,0.02,0.068,0.166,0.434,0.405,0.342,0.405,0.278
2.306,0.132,0.146,0.015,-0.137,0.059,0.078,0.195,0.449,0.483,0.493,0.605,0.454
2.308,0.185,0.156,-0.029,-0.171,0.107,0.063,0.215,0.429,0.547,0.644,0.795,0.634
2.31,0.22,0.268,0.049,-0.244,0.083,0.156,0.195,0.386,0.59,0.776,0.966,0.771
2.312,0.254,0.439,0.185,-0.346,0.034,0.312,0.181,0.317,0.581,0.888,1.122,0.898
2.314,0.268,0.488,0.22,-0.376,0.024,0.351,0.2,0.254,0.576,1.02,1.303,1.069
2.316,0.307,0.537,0.229,-0.42,0.039,0.381,0.2,0.166,0.547,1.147,1.493,1.274
2.318,0.381,0.698,0.317,-0.537,0.029,0.508,0.137,-0.01,0.444,1.215,1.635,1.435
2.32,0.4,0.825,0.425,-0.61,-0.015,0.625,0.039,-0.283,0.259,1.215,1.723,1.557
2.322,0.342,0.854,0.512,-0.595,-0.088,0.683,-0.078,-0.571,0.083,1.2,1.732,1.596
2.324,0.293,0.834,0.542,-0.561,-0.127,0.688,-0.132,-0.737,-0.049,1.161,1.684,1.527
2.326,0.268,0.727,0.459,-0.498,-0.098,0.59,-0.132,-0.795,-0.156,1.039,1.537,1.381
2.328,0.181,0.547,0.366,-0.361,-0.093,0.454,-0.122,-0.82,-0.278,0.883,1.352,1.176
2.33,0.068,0.415,0.346,-0.239,-0.142,0.381,-0.127,-0.869,-0.42,0.712,1.127,0.956
2.332,0.005,0.327,0.322,-0.166,-0.161,0.322,-0.171,-0.932,-0.571,0.498,0.839,0.698
2.334,-0.044,0.239,0.283,-0.098,-0.166,0.259,-0.298,-0.991,-0.712,0.249,0.537,0.449
2.336,-0.078,0.132,0.21,-0.024,-0.146,0.171,-0.459,-0.966,-0.795,0.0,0.224,0.21
2.338,-0.083,0.02,0.102,0.034,-0.093,0.059,-0.542,-0.908,-0.869,-0.288,-0.137,-0.063
2.34,-0.088,-0.112,-0.024,0.102,-0.034,-0.068,-0.556,-0.854,-0.922,-0.522,-0.425,-0.278
2.342,-0.078,-0.205,-0.127,0.142,0.024,-0.166,-0.566,-0.805,-0.898,-0.59,-0.454,-0.307
2.344,-0.063,-0.21,-0.146,0.137,0.039,-0.181,-0.556,-0.742,-0.82,-0.532,-0.361,-0.249
2.346,-0.049,-0.205,-0.156,0.127,0.054,-0.181,-0.522,-0.659,-0.742,-0.478,-0.307,-0.234
2.348,-0.054,-0.239,-0.185,0.146,0.063,-0.215,-0.473,-0.581,-0.659,-0.444,-0.288,-0.22
2.35,-0.044,-0.234,-0.19,0.142,0.073,-0.215,-0.41,-0.464,-0.556,-0.371,-0.215,-0.176
2.352,-0.034,-0.161,-0.127,0.098,0.044,-0.146,-0.337,-0.342,-0.434,-0.268,-0.151,-0.137
2.354,-0.015,-0.127,-0.112,0.073,0.049,-0.122,-0.264,-0.239,-0.322,-0.2,-0.112,-0.112
2.356,0.015,-0.107,-0.122,0.049,0.068,-0.117,-0.195,-0.171,-0.249,-0.156,-0.088,-0.093
2.358,0.005,-0.073,-0.078,0.034,0.039,-0.078,-0.142,-0.117,-0.2,-0.127,-0.059,-0.088
2.36,-0.034,-0.083,-0.049,0.059,0.005,-0.068,-0.117,-0.112,-0.161,-0.122,-0.059,-0.098
2.362,-0.063,-0.132,-0.068,0.098,0.0,-0.102,-0.073,-0.083,-0.132,-0.112,-0.049,-0.098
2.364,-0.044,-0.122,-0.078,0.083,0.015,-0.102,-0.034,-0.063,-0.093,-0.088,-0.015,-0.068
2.366,-0.029,-0.093,-0.063,0.063,0.015,-0.078,-0.01,-0.054,-0.083,-0.059,0.015,-0.044
2.368,-0.024,-0.078,-0.054,0.054,0.015,-0.068,-0.02,-0.063,-0.093,-0.059,0.015,-0.044
2.37,-0.02,-0.059,-0.039,0.039,0.01,-0.049,-0.024,-0.059,-0.093,-0.059,0.01,-0.049
2.372,-0.039,-0.078,-0.039,0.059,0.0,-0.059,-0.024,-0.049,-0.088,-0.059,0.01,-0.049
2.374,-0.054,-0.078,-0.024,0.068,-0.015,-0.054,-0.015,-0.034,-0.068,-0.059,0.005,-0.059
2.376,-0.044,-0.088,-0.044,0.068,0.0,-0.068,-0.015,-0.029,-0.049,-0.049,-0.005,-0.068
2.378,-0.044,-0.093,-0.049,0.068,0.0,-0.073,-0.005,-0.024,-0.029,-0.044,-0.005,-0.068
2.38,-0.054,-0.098,-0.044,0.078,-0.005,-0.073,0.0,-0.02,-0.024,-0.034,0.0,-0.068
2.382,-0.054,-0.098,-0.044,0.078,-0.005,-0.073,0.015,-0.01,-0.024,-0.029,0.0,-0.068
2.384,-0.054,-0.088,-0.034,0.073,-0.01,-0.063,0.015,-0.01,-0.005,-0.024,0.015,-0.049
2.386,-0.054,-0.073,-0.02,0.063,-0.02,-0.049,0.005,-0.01,-0.015,-0.024,0.02,-0.039
2.388,-0.054,-0.073,-0.02,0.063,-0.02,-0.049,0.005,-0.01,-0.02,-0.024,0.024,-0.039
2.39,-0.049,-0.073,-0.024,0.063,-0.015,-0.049,0.005,-0.01,-0.02,-0.024,0.029,-0.039
2.392,-0.059,-0.073,-0.015,0.068,-0.024,-0.044,0.0,0.0,-0.024,-0.039,0.015,-0.054
2.394,-0.059,-0.073,-0.015,0.068,-0.024,-0.044,0.0,-0.005,-0.029,-0.039,0.01,-0.063
2.396,-0.063,-0.063,0.0,0.063,-0.034,-0.034,0.005,-0.005,-0.02,-0.039,0.005,-0.068
2.398,-0.063,-0.083,-0.02,0.073,-0.024,-0.054,0.01,-0.005,-0.01,-0.029,0.005,-0.068
2.4,-0.054,-0.083,-0.029,0.068,-0.015,-0.059,0.01,0.005,-0.01,-0.02,0.015,-0.063
2.402,-0.054,-0.078,-0.024,0.068,-0.015,-0.054,0.01,-0.005,-0.01,-0.02,0.01,-0.059
2.404,-0.054,-0.088,-0.034,0.073,-0.01,-0.063,0.01,-0.005,-0.01,-0.02,0.01,-0.059
2.406,-0.054,-0.098,-0.044,0.078,-0.005,-0.073,0.01,-0.005,-0.02,-0.02,0.01,-0.054
2.408,-0.049,-0.083,-0.034,0.068,-0.01,-0.059,0.015,-0.015,-0.01,-0.02,0.02,-0.054
2.41,-0.039,-0.068,-0.029,0.054,-0.005,-0.049,0.015,-0.015,-0.01,-0.02,0.02,-0.049
2.412,-0.034,-0.054,-0.02,0.044,-0.01,-0.039,0.02,-0.005,-0.01,-0.015,0.024,-0.049
2.414,-0.039,-0.039,0.0,0.039,-0.02,-0.02,0.02,0.0,0.0,-0.01,0.029,-0.049
2.416,-0.049,-0.049,0.0,0.049,-0.024,-0.024,0.02,0.01,0.0,-0.01,0.02,-0.049
2.418,-0.049,-0.054,-0.005,0.054,-0.024,-0.029,0.024,0.01,0.005,-0.01,0.024,-0.049
2.42,-0.049,-0.049,0.0,0.049,-0.024,-0.024,0.029,0.01,0.01,-0.01,0.024,-0.049
2.422,-0.044,-0.054,-0.01,0.049,-0.02,-0.034,0.029,0.01,0.01,-0.005,0.024,-0.044
2.424,-0.044,-0.068,-0.024,0.059,-0.01,-0.049,0.029,0.015,0.015,0.0,0.034,-0.029
2.426,-0.044,-0.068,-0.024,0.059,-0.01,-0.049,0.024,0.015,0.015,0.0,0.039,-0.029
2.428,-0.044,-0.068,-0.024,0.059,-0.01,-0.049,0.024,0.02,0.005,0.0,0.039,-0.029
2.43,-0.039,-0.073,-0.034,0.059,-0.005,-0.054,0.024,0.029,0.015,0.0,0.044,-0.029
2.432,-0.039,-0.068,-0.029,0.054,-0.005,-0.049,0.024,0.034,0.015,0.0,0.044,-0.029
2.434,-0.039,-0.073,-0.034,0.059,-0.005,-0.054,0.029,0.029,0.02,0.0,0.039,-0.029
2.436,-0.039,-0.073,-0.034,0.059,-0.005,-0.054,0.029,0.024,0.02,0.0,0.034,-0.029
2.438,-0.044,-0.063,-0.02,0.054,-0.015,-0.044,0.029,0.02,0.02,0.0,0.029,-0.029
2.44,-0.044,-0.059,-0.015,0.054,-0.015,-0.039,0.029,0.029,0.034,0.005,0.039,-0.039
2.442,-0.044,-0.059,-0.015,0.054,-0.015,-0.039,0.029,0.034,0.034,0.005,0.044,-0.039
2.444,-0.054,-0.078,-0.024,0.068,-0.015,-0.054,0.034,0.039,0.034,0.01,0.054,-0.034
2.446,-0.044,-0.078,-0.034,0.063,-0.005,-0.059,0.034,0.039,0.039,0.01,0.054,-0.034
2.448,-0.034,-0.049,-0.015,0.044,-0.01,-0.034,0.024,0.034,0.034,0.0,0.049,-0.044
2.45,-0.034,-0.059,-0.024,0.049,-0.005,-0.044,0.02,0.039,0.034,0.0,0.044,-0.039
2.452,-0.029,-0.054,-0.024,0.044,-0.005,-0.039,0.02,0.034,0.034,0.0,0.049,-0.039
2.454,-0.029,-0.049,-0.02,0.039,-0.005,-0.034,0.029,0.029,0.029,0.0,0.044,-0.039
2.456,-0.039,-0.044,-0.005,0.044,-0.02,-0.024,0.034,0.049,0.039,0.02,0.049,-0.024
2.458,-0.039,-0.063,-0.024,0.054,-0.01,-0.044,0.039,0.063,0.049,0.029,0.059,-0.024
2.46,-0.039,-0.059,-0.02,0.049,-0.01,-0.039,0.044,0.068,0.054,0.029,0.063,-0.024
2.462,-0.044,-0.063,-0.02,0.054,-0.015,-0.044,0.044,0.068,0.059,0.024,0.068,-0.029
2.464,-0.044,-0.054,-0.01,0.049,-0.02,-0.034,0.054,0.059,0.049,0.024,0.068,-0.029
2.466,-0.034,-0.054,-0.02,0.044,-0.01,-0.039,0.054,0.068,0.059,0.029,0.073,-0.024
2.468,-0.029,-0.034,-0.005,0.034,-0.015,-0.02,0.049,0.068,0.059,0.034,0.073,-0.024
2.47,-0.029,-0.034,-0.005,0.034,-0.015,-0.02,0.039,0.068,0.063,0.034,0.078,-0.02
2.472,-0.02,-0.049,-0.029,0.034,0.005,-0.039,0.039,0.068,0.063,0.029,0.068,-0.01
2.474,-0.02,-0.049,-0.029,0.034,0.005,-0.039,0.039,0.068,0.068,0.034,0.073,-0.005
2.476,-0.02,-0.049,-0.029,0.034,0.005,-0.039,0.039,0.073,0.068,0.034,0.073,-0.005
2.478,-0.02,-0.049,-0.029,0.034,0.005,-0.039,0.044,0.073,0.068,0.034,0.078,-0.005
2.48,-0.02,-0.029,-0.01,0.024,-0.005,-0.02,0.034,0.083,0.073,0.034,0.078,-0.015
2.482,-0.02,-0.029,-0.01,0.024,-0.005,-0.02,0.034,0.088,0.078,0.039,0.078,-0.015
2.484,-0.024,-0.029,-0.005,0.029,-0.01,-0.02,0.034,0.098,0.083,0.044,0.083,-0.01
2.486,-0.029,-0.034,-0.005,0.034,-0.015,-0.02,0.034,0.098,0.083,0.044,0.083,-0.01
2.488,-0.039,-0.044,-0.005,0.044,-0.02,-0.024,0.034,0.098,0.093,0.054,0.073,-0.005
2.49,-0.039,-0.063,-0.024,0.054,-0.01,-0.044,0.034,0.102,0.093,0.054,0.088,0.0
2.492,-0.02,-0.063,-0.044,0.044,0.01,-0.054,0.034,0.112,0.107,0.063,0.098,0.015
2.494,-0.02,-0.063,-0.044,0.044,0.01,-0.054,0.034,0.117,0.107,0.063,0.102,0.02
2.496,-0.029,-0.049,-0.02,0.039,-0.005,-0.034,0.034,0.107,0.102,0.059,0.098,0.01
2.498,-0.029,-0.049,-0.02,0.039,-0.005,-0.034,0.034,0.117,0.112,0.059,0.102,0.005
2.5,-0.029,-0.044,-0.015,0.039,-0.01,-0.029,0.029,0.122,0.112,0.059,0.098,-0.005
2.502,-0.029,-0.039,-0.01,0.034,-0.01,-0.024,0.024,0.122,0.107,0.054,0.098,-0.015
2.504,-0.015,-0.039,-0.024,0.029,0.005,-0.034,0.024,0.127,0.117,0.063,0.112,-0.005
2.506,-0.015,-0.024,-0.01,0.02,-0.005,-0.02,0.024,0.132,0.127,0.063,0.112,0.005
2.508,0.0,-0.024,-0.024,0.015,0.01,-0.024,0.024,0.142,0.127,0.063,0.112,0.01
2.51,-0.01,-0.015,-0.005,0.015,-0.005,-0.01,0.024,0.146,0.127,0.073,0.112,0.015
2.512,0.0,-0.02,-0.02,0.01,0.01,-0.02,0.024,0.151,0.142,0.088,0.122,0.029
2.514,0.0,-0.015,-0.015,0.01,0.005,-0.015,0.029,0.156,0.146,0.088,0.122,0.029
2.516,0.005,-0.01,-0.015,0.005,0.01,-0.015,0.039,0.161,0.146,0.093,0.127,0.029
2.518,0.005,-0.005,-0.01,0.0,0.005,-0.01,0.044,0.176,0.156,0.098,0.132,0.039
2.52,0.005,-0.005,-0.01,0.0,0.005,-0.01,0.039,0.185,0.176,0.102,0.142,0.034
2.522,0.02,-0.005,-0.024,-0.005,0.02,-0.015,0.039,0.19,0.181,0.107,0.146,0.034
2.524,0.005,-0.005,-0.01,0.0,0.005,-0.01,0.039,0.195,0.185,0.112,0.146,0.034
2.526,-0.005,-0.01,-0.005,0.01,0.0,-0.01,0.039,0.2,0.185,0.117,0.146,0.034
2.528,-0.005,0.0,0.005,0.005,-0.005,0.0,0.039,0.21,0.185,0.127,0.161,0.049
2.53,-0.005,0.0,0.005,0.005,-0.005,0.0,0.039,0.215,0.19,0.127,0.161,0.054
2.532,0.0,0.0,0.0,0.0,0.0,0.0,0.039,0.229,0.195,0.137,0.171,0.059
2.534,0.01,0.015,0.005,-0.01,0.0,0.01,0.039,0.244,0.205,0.142,0.171,0.068
2.536,0.02,0.029,0.01,-0.024,0.005,0.02,0.024,0.234,0.21,0.142,0.161,0.063
2.538,0.02,0.01,-0.01,-0.015,0.015,0.0,0.024,0.249,0.215,0.142,0.171,0.063
2.54,0.015,0.005,-0.01,-0.01,0.01,-0.005,0.024,0.259,0.22,0.137,0.176,0.059
2.542,0.015,0.005,-0.01,-0.01,0.01,-0.005,0.024,0.268,0.239,0.137,0.181,0.063
2.544,0.024,0.015,-0.01,-0.02,0.015,0.0,0.034,0.268,0.234,0.156,0.176,0.068
2.546,0.024,0.015,-0.01,-0.02,0.015,0.0,0.039,0.278,0.244,0.161,0.19,0.073
2.548,0.029,0.024,-0.005,-0.024,0.015,0.01,0.039,0.288,0.249,0.166,0.19,0.078
2.55,0.034,0.034,0.0,-0.034,0.015,0.015,0.029,0.288,0.249,0.166,0.19,0.078
2.552,0.024,0.024,0.0,-0.024,0.01,0.01,0.02,0.303,0.254,0.156,0.2,0.078
2.554,0.024,0.029,0.005,-0.024,0.01,0.015,0.024,0.307,0.259,0.161,0.2,0.088
2.556,0.024,0.034,0.01,-0.029,0.005,0.02,0.024,0.317,0.264,0.166,0.205,0.088
2.558,0.024,0.034,0.01,-0.029,0.005,0.02,0.02,0.317,0.273,0.166,0.215,0.088
2.56,0.024,0.015,-0.01,-0.02,0.015,0.0,0.02,0.337,0.278,0.181,0.22,0.093
2.562,0.024,0.029,0.005,-0.024,0.01,0.015,0.02,0.346,0.283,0.185,0.22,0.102
2.564,0.029,0.029,0.0,-0.029,0.015,0.015,0.015,0.351,0.293,0.19,0.22,0.107
2.566,0.029,0.044,0.015,-0.034,0.005,0.029,0.015,0.356,0.293,0.195,0.22,0.112
2.568,0.044,0.054,0.01,-0.049,0.015,0.029,0.024,0.361,0.307,0.205,0.244,0.127
2.57,0.044,0.049,0.005,-0.044,0.02,0.024,0.029,0.376,0.307,0.215,0.259,0.137
2.572,0.044,0.049,0.005,-0.044,0.02,0.024,0.029,0.376,0.312,0.22,0.259,0.151
2.574,0.044,0.059,0.015,-0.049,0.015,0.034,0.02,0.381,0.312,0.224,0.264,0.151
2.576,0.034,0.083,0.049,-0.059,-0.01,0.063,0.02,0.381,0.312,0.22,0.259,0.142
2.578,0.054,0.088,0.034,-0.068,0.01,0.059,0.02,0.386,0.317,0.215,0.264,0.142
2.58,0.054,0.102,0.049,-0.078,0.0,0.073,0.015,0.386,0.317,0.21,0.264,0.146
2.582,0.054,0.107,0.054,-0.078,0.0,0.078,0.015,0.376,0.317,0.205,0.264,0.146
2.584,0.049,0.088,0.039,-0.068,0.005,0.063,0.015,0.386,0.317,0.224,0.273,0.171
2.586,0.054,0.083,0.029,-0.068,0.01,0.054,0.015,0.386,0.322,0.229,0.283,0.176
2.588,0.083,0.098,0.015,-0.088,0.034,0.054,0.015,0.386,0.322,0.239,0.288,0.185
2.59,0.088,0.093,0.005,-0.088,0.039,0.049,0.01,0.376,0.312,0.229,0.293,0.185
2.592,0.083,0.107,0.024,-0.093,0.029,0.063,-0.015,0.371,0.307,0.229,0.288,0.181
2.594,0.078,0.112,0.034,-0.093,0.02,0.073,-0.015,0.366,0.303,0.229,0.288,0.181
2.596,0.073,0.112,0.039,-0.093,0.015,0.073,-0.01,0.356,0.298,0.229,0.303,0.185
2.598,0.063,0.102,0.039,-0.083,0.01,0.068,-0.01,0.351,0.293,0.229,0.303,0.185
2.6,0.063,0.093,0.029,-0.078,0.015,0.059,-0.015,0.351,0.298,0.22,0.303,0.19
2.602,0.063,0.098,0.034,-0.078,0.015,0.063,-0.015,0.346,0.293,0.215,0.303,0.19
2.604,0.063,0.098,0.034,-0.078,0.015,0.063,-0.015,0.342,0.283,0.21,0.298,0.19
2.606,0.063,0.088,0.024,-0.073,0.02,0.054,-0.015,0.337,0.278,0.21,0.298,0.19
2.608,0.059,0.083,0.024,-0.068,0.015,0.054,-0.02,0.322,0.268,0.21,0.288,0.19
2.61,0.049,0.078,0.029,-0.063,0.01,0.054,-0.029,0.312,0.259,0.205,0.288,0.195
2.612,0.044,0.083,0.039,-0.063,0.0,0.059,-0.029,0.303,0.259,0.2,0.288,0.195
2.614,0.039,0.078,0.039,-0.059,0.0,0.059,-0.034,0.293,0.249,0.2,0.288,0.195
2.616,0.049,0.093,0.044,-0.068,0.0,0.068,-0.034,0.278,0.239,0.2,0.288,0.195
2.618,0.049,0.098,0.049,-0.073,0.0,0.073,-0.034,0.273,0.229,0.2,0.293,0.19
2.62,0.059,0.102,0.044,-0.078,0.005,0.073,-0.039,0.259,0.224,0.195,0.293,0.19
2.622,0.068,0.117,0.049,-0.093,0.01,0.083,-0.039,0.249,0.215,0.195,0.283,0.195
2.624,0.059,0.093,0.034,-0.073,0.01,0.063,-0.029,0.244,0.224,0.195,0.293,0.195
2.626,0.054,0.083,0.029,-0.068,0.01,0.054,-0.029,0.229,0.21,0.195,0.293,0.195
2.628,0.049,0.078,0.029,-0.063,0.01,0.054,-0.029,0.215,0.19,0.185,0.278,0.195
2.63,0.039,0.078,0.039,-0.059,0.0,0.059,-0.034,0.205,0.176,0.176,0.273,0.185
2.632,0.044,0.068,0.024,-0.054,0.01,0.044,-0.044,0.19,0.171,0.176,0.264,0.19
2.634,0.039,0.083,0.044,-0.059,-0.005,0.063,-0.044,0.181,0.161,0.171,0.264,0.185
2.636,0.054,0.093,0.039,-0.073,0.005,0.063,-0.044,0.171,0.156,0.166,0.264,0.181
2.638,0.059,0.102,0.044,-0.078,0.005,0.073,-0.049,0.156,0.151,0.161,0.249,0.176
2.64,0.044,0.093,0.049,-0.068,-0.005,0.068,-0.039,0.132,0.137,0.151,0.249,0.151
2.642,0.044,0.088,0.044,-0.063,0.0,0.063,-0.039,0.122,0.127,0.151,0.234,0.151
2.644,0.054,0.083,0.029,-0.068,0.01,0.054,-0.034,0.107,0.117,0.146,0.234,0.146
2.646,0.039,0.073,0.034,-0.054,0.0,0.054,-0.034,0.098,0.112,0.142,0.229,0.142
2.648,0.039,0.073,0.034,-0.054,0.0,0.054,-0.044,0.068,0.083,0.112,0.2,0.112
2.65,0.029,0.068,0.039,-0.049,-0.005,0.054,-0.049,0.044,0.063,0.107,0.185,0.102
2.652,0.029,0.068,0.039,-0.049,-0.005,0.054,-0.054,0.034,0.059,0.088,0.176,0.088
2.654,0.039,0.068,0.029,-0.054,0.005,0.049,-0.059,0.024,0.049,0.083,0.156,0.078
2.656,0.039,0.063,0.024,-0.049,0.005,0.044,-0.049,0.034,0.044,0.088,0.161,0.088
2.658,0.029,0.039,0.01,-0.034,0.01,0.024,-0.039,0.034,0.049,0.098,0.166,0.088
2.66,0.015,0.015,0.0,-0.015,0.005,0.005,-0.024,0.039,0.054,0.102,0.166,0.088
2.662,0.01,0.01,0.0,-0.01,0.005,0.005,-0.015,0.044,0.059,0.102,0.166,0.093
2.664,0.01,0.024,0.015,-0.015,-0.005,0.02,-0.024,0.029,0.044,0.083,0.156,0.078
2.666,0.01,0.029,0.02,-0.02,-0.005,0.024,-0.024,0.015,0.034,0.073,0.146,0.063
2.668,0.01,0.034,0.024,-0.02,-0.01,0.029,-0.024,-0.01,0.01,0.063,0.132,0.049
2.67,0.01,0.039,0.029,-0.024,-0.01,0.034,-0.024,-0.029,-0.005,0.054,0.112,0.029
2.672,0.005,0.015,0.01,-0.01,-0.005,0.01,-0.024,-0.024,-0.005,0.044,0.107,0.024
2.674,0.0,-0.005,-0.005,0.005,0.0,-0.005,-0.024,-0.029,0.0,0.049,0.102,0.015
2.676,0.0,0.005,0.005,0.0,-0.005,0.005,-0.024,-0.034,-0.005,0.049,0.098,0.015
2.678,-0.005,-0.015,-0.01,0.01,0.0,-0.015,-0.02,-0.039,-0.005,0.054,0.093,0.01
2.68,0.0,-0.02,-0.02,0.01,0.01,-0.02,-0.02,-0.039,-0.005,0.039,0.088,0.01
2.682,-0.005,-0.02,-0.015,0.015,0.005,-0.02,-0.02,-0.044,-0.01,0.034,0.083,0.005
2.684,-0.015,-0.029,-0.015,0.024,0.0,-0.024,-0.02,-0.044,-0.015,0.034,0.083,-0.005
2.686,-0.029,-0.044,-0.015,0.039,-0.01,-0.029,-0.02,-0.044,-0.015,0.034,0.073,-0.005
2.688,-0.005,-0.024,-0.02,0.015,0.005,-0.024,0.0,-0.034,-0.015,0.044,0.073,0.005
2.69,-0.005,-0.015,-0.01,0.01,0.0,-0.015,0.005,-0.034,-0.02,0.044,0.073,0.005
2.692,-0.015,-0.01,0.005,0.015,-0.01,-0.005,0.005,-0.044,-0.02,0.029,0.068,-0.005
2.694,-0.024,0.0,0.024,0.015,-0.024,0.01,0.0,-0.049,-0.024,0.024,0.063,-0.015
2.696,-0.024,-0.01,0.015,0.02,-0.02,0.0,-0.005,-0.059,-0.029,0.024,0.063,-0.015
2.698,-0.024,-0.015,0.01,0.02,-0.02,-0.005,0.0,-0.059,-0.029,0.034,0.068,-0.015
2.7,-0.024,-0.029,-0.005,0.029,-0.01,-0.02,-0.005,-0.054,-0.024,0.034,0.073,-0.015
2.702,-0.015,-0.02,-0.005,0.02,-0.005,-0.015,-0.005,-0.044,-0.024,0.039,0.073,-0.005
2.704,-0.015,-0.034,-0.02,0.024,0.0,-0.029,-0.015,-0.054,-0.029,0.034,0.063,-0.005
2.706,-0.024,-0.049,-0.024,0.039,0.0,-0.039,-0.02,-0.063,-0.039,0.02,0.054,-0.015
2.708,-0.039,-0.054,-0.015,0.049,-0.015,-0.034,-0.02,-0.068,-0.049,0.01,0.049,-0.029
2.71,-0.029,-0.059,-0.029,0.044,0.0,-0.044,-0.02,-0.068,-0.054,0.005,0.049,-0.029
2.712,-0.034,-0.063,-0.029,0.049,-0.005,-0.049,-0.015,-0.059,-0.049,0.015,0.049,-0.029
2.714,-0.039,-0.059,-0.02,0.049,-0.01,-0.039,-0.01,-0.059,-0.044,0.015,0.049,-0.029
2.716,-0.044,-0.049,-0.005,0.049,-0.02,-0.029,-0.01,-0.059,-0.039,0.015,0.049,-0.034
2.718,-0.059,-0.039,0.02,0.049,-0.039,-0.01,-0.005,-0.059,-0.034,0.015,0.044,-0.034
2.72,-0.044,-0.039,0.005,0.044,-0.024,-0.02,-0.01,-0.059,-0.024,0.024,0.054,-0.024
2.722,-0.039,-0.039,0.0,0.039,-0.02,-0.02,-0.01,-0.059,-0.024,0.029,0.054,-0.024
2.724,-0.034,-0.039,-0.005,0.039,-0.015,-0.024,0.0,-0.054,-0.024,0.029,0.054,-0.02
2.726,-0.029,-0.044,-0.015,0.039,-0.01,-0.029,0.005,-0.049,-0.024,0.029,0.054,-0.02
2.728,-0.02,-0.039,-0.02,0.029,0.0,-0.029,0.005,-0.059,-0.034,0.02,0.034,-0.024
2.73,-0.02,-0.034,-0.015,0.029,-0.005,-0.024,0.005,-0.059,-0.029,0.015,0.044,-0.029
2.732,-0.02,-0.029,-0.01,0.024,-0.005,-0.02,0.005,-0.059,-0.029,0.01,0.044,-0.029
2.734,-0.01,-0.015,-0.005,0.015,-0.005,-0.01,0.005,-0.059,-0.029,0.005,0.044,-0.029
2.736,0.0,-0.01,-0.01,0.005,0.005,-0.01,0.005,-0.054,-0.02,0.01,0.049,-0.034
2.738,-0.005,-0.044,-0.039,0.024,0.015,-0.044,0.005,-0.049,-0.02,0.015,0.049,-0.034
2.74,-0.024,-0.049,-0.024,0.039,0.0,-0.039,0.005,-0.039,-0.02,0.015,0.054,-0.034
2.742,-0.015,-0.039,-0.024,0.029,0.005,-0.034,0.005,-0.034,-0.02,0.02,0.054,-0.034
2.744,-0.024,-0.044,-0.02,0.034,-0.005,-0.034,-0.005,-0.039,-0.029,0.005,0.044,-0.044
2.746,-0.024,-0.054,-0.029,0.039,0.0,-0.044,-0.005,-0.039,-0.029,0.005,0.039,-0.044
2.748,-0.029,-0.059,-0.029,0.044,0.0,-0.044,0.0,-0.034,-0.024,0.01,0.034,-0.044
2.75,-0.034,-0.059,-0.024,0.049,-0.005,-0.044,0.01,-0.039,-0.024,0.01,0.039,-0.034
2.752,-0.024,-0.049,-0.024,0.039,0.0,-0.039,0.01,-0.034,-0.015,0.01,0.044,-0.039
2.754,-0.034,-0.039,-0.005,0.039,-0.015,-0.024,0.01,-0.029,-0.015,0.01,0.039,-0.039
2.756,-0.024,-0.029,-0.005,0.029,-0.01,-0.02,0.01,-0.024,-0.01,0.015,0.039,-0.039
2.758,-0.024,-0.024,0.0,0.024,-0.015,-0.015,0.015,-0.015,-0.005,0.015,0.044,-0.039
2.76,-0.034,-0.034,0.0,0.034,-0.02,-0.02,0.015,-0.005,0.005,0.024,0.049,-0.024
2.762,-0.044,-0.049,-0.005,0.049,-0.02,-0.029,0.015,0.005,0.01,0.024,0.049,-0.024
2.764,-0.044,-0.054,-0.01,0.049,-0.02,-0.034,0.02,0.005,0.01,0.024,0.054,-0.034
2.766,-0.039,-0.049,-0.01,0.044,-0.015,-0.029,0.02,0.005,0.01,0.024,0.059,-0.034
2.768,-0.024,-0.015,0.01,0.02,-0.02,-0.005,0.005,-0.005,-0.005,0.02,0.044,-0.049
2.77,-0.024,-0.039,-0.015,0.034,-0.005,-0.029,0.005,0.0,0.0,0.015,0.044,-0.049
2.772,-0.024,-0.054,-0.029,0.039,0.0,-0.044,0.01,-0.005,0.0,0.015,0.039,-0.049
2.774,-0.029,-0.034,-0.005,0.034,-0.015,-0.02,0.01,-0.015,-0.005,0.01,0.024,-0.054
2.776,-0.02,-0.044,-0.024,0.034,0.0,-0.034,0.02,-0.005,0.005,0.01,0.034,-0.054
2.778,-0.02,-0.059,-0.039,0.039,0.01,-0.049,0.02,0.0,0.005,0.01,0.044,-0.054
2.78,-0.029,-0.059,-0.029,0.044,0.0,-0.044,0.02,0.0,0.005,0.01,0.044,-0.049
2.782,-0.02,-0.049,-0.029,0.034,0.005,-0.039,0.01,0.0,0.005,0.01,0.034,-0.049
2.784,-0.029,-0.049,-0.02,0.039,-0.005,-0.034,0.015,0.005,0.01,0.015,0.039,-0.039
2.786,-0.02,-0.049,-0.029,0.034,0.005,-0.039,0.024,0.01,0.01,0.02,0.049,-0.034
2.788,-0.02,-0.034,-0.015,0.029,-0.005,-0.024,0.029,0.015,0.015,0.024,0.059,-0.039
2.79,-0.02,-0.024,-0.005,0.024,-0.01,-0.015,0.034,0.024,0.02,0.029,0.068,-0.034
2.792,-0.029,-0.044,-0.015,0.039,-0.01,-0.029,0.034,0.024,0.02,0.02,0.054,-0.039
2.794,-0.034,-0.044,-0.01,0.039,-0.015,-0.029,0.029,0.02,0.02,0.015,0.049,-0.044
2.796,-0.034,-0.044,-0.01,0.039,-0.015,-0.029,0.02,0.015,0.015,0.015,0.044,-0.044
2.798,-0.044,-0.044,0.0,0.044,-0.024,-0.024,0.015,0.01,0.01,0.015,0.039,-0.044
2.8,-0.029,-0.034,-0.005,0.034,-0.015,-0.02,0.015,0.015,0.01,0.015,0.034,-0.044
2.802,-0.02,-0.029,-0.01,0.024,-0.005,-0.02,0.02,0.005,0.01,0.015,0.029,-0.049
2.804,-0.015,-0.024,-0.01,0.02,-0.005,-0.02,0.02,0.015,0.01,0.015,0.029,-0.049
2.806,-0.015,-0.024,-0.01,0.02,-0.005,-0.02,0.02,0.02,0.01,0.015,0.029,-0.049
2.808,-0.029,-0.039,-0.01,0.034,-0.01,-0.024,0.029,0.02,0.02,0.015,0.029,-0.044
2.81,-0.034,-0.044,-0.01,0.039,-0.015,-0.029,0.029,0.02,0.015,0.015,0.034,-0.044
2.812,-0.039,-0.054,-0.015,0.049,-0.015,-0.034,0.029,0.015,0.015,0.015,0.039,-0.039
2.814,-0.039,-0.059,-0.02,0.049,-0.01,-0.039,0.029,0.015,0.02,0.01,0.039,-0.039
2.816,-0.039,-0.044,-0.005,0.044,-0.02,-0.024,0.024,0.005,0.01,0.0,0.034,-0.054
2.818,-0.039,-0.044,-0.005,0.044,-0.02,-0.024,0.024,0.01,0.01,0.005,0.039,-0.054
2.82,-0.044,-0.049,-0.005,0.049,-0.02,-0.029,0.024,0.015,0.015,0.01,0.039,-0.044
2.822,-0.044,-0.063,-0.02,0.054,-0.015,-0.044,0.02,0.015,0.015,0.01,0.034,-0.044
2.824,-0.029,-0.059,-0.029,0.044,0.0,-0.044,0.02,0.015,0.01,0.015,0.034,-0.054
2.826,-0.029,-0.049,-0.02,0.039,-0.005,-0.034,0.01,0.01,0.0,0.01,0.02,-0.044
2.828,-0.029,-0.044,-0.015,0.039,-0.01,-0.029,0.01,0.0,0.0,0.005,0.01,-0.059
2.83,-0.034,-0.039,-0.005,0.039,-0.015,-0.024,0.01,0.0,0.0,0.005,0.024,-0.059
2.832,-0.034,-0.049,-0.015,0.044,-0.01,-0.034,0.0,0.005,-0.01,0.005,0.029,-0.049
2.834,-0.034,-0.049,-0.015,0.044,-0.01,-0.034,0.0,0.005,-0.01,0.005,0.024,-0.044
2.836,-0.029,-0.049,-0.02,0.039,-0.005,-0.034,0.0,0.005,-0.01,0.005,0.029,-0.044
2.838,-0.029,-0.049,-0.02,0.039,-0.005,-0.034,0.005,0.0,-0.01,0.005,0.024,-0.044
2.84,-0.029,-0.049,-0.02,0.039,-0.005,-0.034,0.005,0.0,-0.01,-0.005,0.024,-0.054
2.842,-0.029,-0.054,-0.024,0.044,-0.005,-0.039,0.005,0.0,-0.01,0.0,0.02,-0.054
2.844,-0.039,-0.073,-0.034,0.059,-0.005,-0.054,0.005,0.0,-0.005,0.0,0.02,-0.054
2.846,-0.039,-0.078,-0.039,0.059,0.0,-0.059,0.005,0.0,-0.005,-0.005,0.015,-0.054
2.848,-0.034,-0.063,-0.029,0.049,-0.005,-0.049,0.005,0.0,-0.015,-0.02,0.005,-0.068
2.85,-0.029,-0.039,-0.01,0.034,-0.01,-0.024,0.005,-0.015,-0.024,-0.02,0.0,-0.068
2.852,-0.029,-0.039,-0.01,0.034,-0.01,-0.024,0.005,-0.015,-0.024,-0.015,0.0,-0.068
2.854,-0.024,-0.059,-0.034,0.044,0.005,-0.049,0.005,-0.015,-0.024,-0.01,0.005,-0.059
2.856,-0.02,-0.049,-0.029,0.034,0.005,-0.039,-0.005,-0.02,-0.024,-0.005,0.005,-0.059
2.858,-0.024,-0.044,-0.02,0.034,-0.005,-0.034,-0.005,-0.02,-0.024,-0.005,0.005,-0.059
2.86,-0.029,-0.039,-0.01,0.034,-0.01,-0.024,-0.005,-0.024,-0.029,-0.015,-0.01,-0.059
2.862,-0.015,-0.029,-0.015,0.024,0.0,-0.024,0.0,-0.029,-0.029,-0.015,-0.01,-0.059
2.864,-0.005,-0.029,-0.024,0.02,0.01,-0.029,0.01,-0.015,-0.024,-0.005,0.005,-0.054
2.866,-0.01,-0.029,-0.02,0.02,0.005,-0.024,0.005,-0.02,-0.024,0.0,0.01,-0.054
2.868,-0.01,-0.029,-0.02,0.02,0.005,-0.024,0.005,-0.015,-0.02,0.0,0.015,-0.049
2.87,-0.01,-0.034,-0.024,0.024,0.005,-0.029,0.005,-0.01,-0.015,0.005,0.015,-0.049
2.872,-0.034,-0.054,-0.02,0.044,-0.01,-0.039,0.0,-0.024,-0.02,-0.005,-0.005,-0.054
2.874,-0.029,-0.039,-0.01,0.034,-0.01,-0.024,0.0,-0.024,-0.024,-0.01,-0.005,-0.059
2.876,-0.01,-0.034,-0.024,0.024,0.005,-0.029,0.0,-0.029,-0.034,-0.02,0.0,-0.063
2.878,-0.029,-0.049,-0.02,0.039,-0.005,-0.034,0.0,-0.034,-0.039,-0.024,0.01,-0.068
2.88,-0.034,-0.054,-0.02,0.044,-0.01,-0.039,0.01,-0.044,-0.039,-0.015,0.005,-0.068
2.882,-0.034,-0.029,0.005,0.034,-0.02,-0.015,0.0,-0.044,-0.044,-0.015,-0.005,-0.068
2.884,-0.034,-0.029,0.005,0.034,-0.02,-0.015,0.0,-0.044,-0.044,-0.015,-0.01,-0.073
2.886,-0.044,-0.054,-0.01,0.049,-0.02,-0.034,0.005,-0.044,-0.044,-0.015,-0.01,-0.073
2.888,-0.034,-0.054,-0.02,0.044,-0.01,-0.039,-0.005,-0.034,-0.044,-0.01,-0.02,-0.063
2.89,-0.029,-0.049,-0.02,0.039,-0.005,-0.034,-0.005,-0.039,-0.044,-0.015,-0.02,-0.063
2.892,-0.029,-0.044,-0.015,0.039,-0.01,-0.029,-0.005,-0.039,-0.044,-0.02,-0.02,-0.063
2.894,-0.029,-0.029,0.0,0.029,-0.015,-0.015,0.0,-0.034,-0.039,-0.024,-0.02,-0.063
2.896,-0.034,-0.039,-0.005,0.039,-0.015,-0.024,0.0,-0.024,-0.039,-0.015,-0.02,-0.063
2.898,-0.039,-0.054,-0.015,0.049,-0.015,-0.034,0.0,-0.034,-0.049,-0.02,-0.024,-0.068
2.9,-0.044,-0.063,-0.02,0.054,-0.015,-0.044,-0.005,-0.039,-0.054,-0.024,-0.02,-0.068
2.902,-0.044,-0.059,-0.015,0.054,-0.015,-0.039,-0.01,-0.039,-0.059,-0.029,-0.02,-0.068
2.904,-0.024,-0.034,-0.01,0.029,-0.01,-0.024,-0.005,-0.049,-0.063,-0.024,-0.024,-0.078
2.906,-0.02,-0.034,-0.015,0.029,-0.005,-0.024,-0.005,-0.049,-0.063,-0.029,-0.029,-0.083
2.908,-0.01,-0.024,-0.015,0.02,0.0,-0.02,-0.005,-0.049,-0.063,-0.034,-0.029,-0.083
2.91,-0.005,-0.024,-0.02,0.015,0.005,-0.024,-0.005,-0.049,-0.063,-0.034,-0.029,-0.083
2.912,-0.024,-0.049,-0.024,0.039,0.0,-0.039,-0.01,-0.054,-0.054,-0.029,-0.034,-0.083
2.914,-0.029,-0.059,-0.029,0.044,0.0,-0.044,-0.01,-0.054,-0.049,-0.029,-0.034,-0.083
2.916,-0.034,-0.063,-0.029,0.049,-0.005,-0.049,-0.01,-0.054,-0.049,-0.029,-0.034,-0.088
2.918,-0.044,-0.063,-0.02,0.054,-0.015,-0.044,-0.01,-0.063,-0.059,-0.029,-0.034,-0.098
