time,I,II,III,aVR,aVL,aVF,V1,V2,V3,V4,V5,V6
0.0,0.0,0.098,0.098,-0.049,-0.049,0.098,-0.098,-0.146,-0.166,-0.107,-0.088,-0.029
0.002,0.0,0.098,0.098,-0.049,-0.049,0.098,-0.098,-0.146,-0.166,-0.107,-0.088,-0.029
0.004,0.0,0.098,0.098,-0.049,-0.049,0.098,-0.098,-0.146,-0.166,-0.107,-0.088,-0.029
0.006,0.0,0.098,0.098,-0.049,-0.049,0.098,-0.098,-0.146,-0.166,-0.107,-0.088,-0.029
0.008,-0.01,0.098,0.107,-0.044,-0.059,0.102,-0.088,-0.146,-0.166,-0.098,-0.088,-0.029
0.01,-0.01,0.098,0.107,-0.044,-0.059,0.102,-0.088,-0.146,-0.166,-0.098,-0.088,-0.029
0.012,-0.01,0.098,0.107,-0.044,-0.059,0.102,-0.088,-0.146,-0.166,-0.098,-0.088,-0.029
0.014,-0.01,0.098,0.107,-0.044,-0.059,0.102,-0.088,-0.146,-0.166,-0.098,-0.088,-0.029
0.016,0.0,0.098,0.098,-0.049,-0.049,0.098,-0.093,-0.151,-0.171,-0.102,-0.098,-0.029
0.018,0.0,0.098,0.098,-0.049,-0.049,0.098,-0.098,-0.156,-0.176,-0.107,-0.098,-0.029
0.02,0.0,0.098,0.098,-0.049,-0.049,0.098,-0.102,-0.161,-0.181,-0.112,-0.098,-0.029
0.022,0.0,0.098,0.098,-0.049,-0.049,0.098,-0.107,-0.166,-0.185,-0.117,-0.098,-0.029
0.024,-0.01,0.107,0.117,-0.049,-0.063,0.112,-0.107,-0.156,-0.181,-0.107,-0.088,-0.029
0.026,-0.01,0.107,0.117,-0.049,-0.063,0.112,-0.107,-0.156,-0.176,-0.107,-0.088,-0.029
0.028,-0.01,0.107,0.117,-0.049,-0.063,0.112,-0.107,-0.156,-0.171,-0.107,-0.088,-0.029
0.03,-0.01,0.107,0.117,-0.049,-0.063,0.112,-0.107,-0.156,-0.166,-0.107,-0.088,-0.029
0.032,-0.02,0.102,0.122,-0.039,-0.073,0.112,-0.098,-0.156,-0.166,-0.107,-0.088,-0.029
0.034,-0.02,0.098,0.117,-0.039,-0.068,0.107,-0.098,-0.156,-0.166,-0.107,-0.088,-0.029
0.036,-0.02,0.093,0.112,-0.034,-0.068,0.102,-0.098,-0.156,-0.166,-0.107,-0.088,-0.029
0.038,-0.02,0.088,0.107,-0.034,-0.063,0.098,-0.098,-0.156,-0.166,-0.107,-0.088,-0.029
0.04,-0.02,0.088,0.107,-0.034,-0.063,0.098,-0.107,-0.166,-0.176,-0.117,-0.098,-0.029
0.042,-0.02,0.088,0.107,-0.034,-0.063,0.098,-0.107,-0.166,-0.176,-0.117,-0.098,-0.029
0.044,-0.02,0.088,0.107,-0.034,-0.063,0.098,-0.107,-0.166,-0.176,-0.117,-0.098,-0.029
0.046,-0.02,0.088,0.107,-0.034,-0.063,0.098,-0.107,-0.166,-0.176,-0.117,-0.098,-0.029
0.048,-0.015,0.088,0.102,-0.034,-0.059,0.093,-0.098,-0.161,-0.166,-0.107,-0.093,-0.02
0.05,-0.01,0.088,0.098,-0.039,-0.054,0.093,-0.098,-0.156,-0.166,-0.107,-0.088,-0.02
0.052,-0.005,0.088,0.093,-0.039,-0.049,0.088,-0.098,-0.151,-0.166,-0.107,-0.083,-0.02
0.054,0.0,0.088,0.088,-0.044,-0.044,0.088,-0.098,-0.146,-0.166,-0.107,-0.078,-0.02
0.056,0.0,0.088,0.088,-0.044,-0.044,0.088,-0.107,-0.151,-0.171,-0.112,-0.083,-0.029
0.058,0.0,0.088,0.088,-0.044,-0.044,0.088,-0.107,-0.156,-0.176,-0.117,-0.088,-0.029
0.06,0.0,0.088,0.088,-0.044,-0.044,0.088,-0.107,-0.161,-0.181,-0.122,-0.093,-0.029
0.062,0.0,0.088,0.088,-0.044,-0.044,0.088,-0.107,-0.166,-0.185,-0.127,-0.098,-0.029
0.064,0.01,0.098,0.088,-0.054,-0.039,0.093,-0.107,-0.166,-0.176,-0.117,-0.093,-0.02
0.066,0.01,0.098,0.088,-0.054,-0.039,0.093,-0.107,-0.166,-0.176,-0.117,-0.088,-0.02
0.068,0.01,0.098,0.088,-0.054,-0.039,0.093,-0.107,-0.166,-0.176,-0.117,-0.083,-0.02
0.07,0.01,0.098,0.088,-0.054,-0.039,0.093,-0.107,-0.166,-0.176,-0.117,-0.078,-0.02
0.072,0.01,0.088,0.078,-0.049,-0.034,0.083,-0.098,-0.156,-0.166,-0.117,-0.078,-0.02
0.074,0.01,0.088,0.078,-0.049,-0.034,0.083,-0.098,-0.156,-0.166,-0.117,-0.078,-0.02
0.076,0.01,0.088,0.078,-0.049,-0.034,0.083,-0.098,-0.156,-0.166,-0.117,-0.078,-0.02
0.078,0.01,0.088,0.078,-0.049,-0.034,0.083,-0.098,-0.156,-0.166,-0.117,-0.078,-0.02
0.08,0.01,0.078,0.068,-0.044,-0.029,0.073,-0.107,-0.166,-0.176,-0.127,-0.088,-0.02
0.082,0.01,0.078,0.068,-0.044,-0.029,0.073,-0.107,-0.166,-0.176,-0.127,-0.088,-0.02
0.084,0.01,0.078,0.068,-0.044,-0.029,0.073,-0.107,-0.166,-0.176,-0.127,-0.088,-0.02
0.086,0.01,0.078,0.068,-0.044,-0.029,0.073,-0.107,-0.166,-0.176,-0.127,-0.088,-0.02
0.088,0.01,0.068,0.059,-0.039,-0.024,0.063,-0.107,-0.156,-0.176,-0.117,-0.088,-0.02
0.09,0.01,0.068,0.059,-0.039,-0.024,0.063,-0.107,-0.156,-0.176,-0.117,-0.088,-0.02
0.092,0.01,0.068,0.059,-0.039,-0.024,0.063,-0.107,-0.156,-0.176,-0.117,-0.088,-0.02
0.094,0.01,0.068,0.059,-0.039,-0.024,0.063,-0.107,-0.156,-0.176,-0.117,-0.088,-0.02
0.096,0.01,0.068,0.059,-0.039,-0.024,0.063,-0.107,-0.161,-0.176,-0.127,-0.088,-0.02
0.098,0.01,0.068,0.059,-0.039,-0.024,0.063,-0.107,-0.166,-0.176,-0.127,-0.088,-0.02
0.1,0.01,0.068,0.059,-0.039,-0.024,0.063,-0.107,-0.171,-0.176,-0.127,-0.088,-0.02
0.102,0.01,0.068,0.059,-0.039,-0.024,0.063,-0.107,-0.176,-0.176,-0.127,-0.088,-0.02
0.104,0.02,0.078,0.059,-0.049,-0.02,0.068,-0.107,-0.166,-0.176,-0.127,-0.088,-0.02
0.106,0.02,0.078,0.059,-0.049,-0.02,0.068,-0.107,-0.166,-0.176,-0.127,-0.088,-0.02
0.108,0.02,0.078,0.059,-0.049,-0.02,0.068,-0.107,-0.166,-0.176,-0.127,-0.088,-0.02
0.11,0.02,0.078,0.059,-0.049,-0.02,0.068,-0.107,-0.166,-0.176,-0.127,-0.088,-0.02
0.112,0.02,0.078,0.059,-0.049,-0.02,0.068,-0.117,-0.176,-0.185,-0.127,-0.098,-0.01
0.114,0.02,0.078,0.059,-0.049,-0.02,0.068,-0.117,-0.176,-0.185,-0.127,-0.098,-0.01
0.116,0.02,0.078,0.059,-0.049,-0.02,0.068,-0.117,-0.176,-0.185,-0.127,-0.098,-0.01
0.118,0.02,0.078,0.059,-0.049,-0.02,0.068,-0.117,-0.176,-0.185,-0.127,-0.098,-0.01
0.12,0.02,0.088,0.068,-0.054,-0.024,0.078,-0.117,-0.176,-0.176,-0.137,-0.088,-0.02
0.122,0.02,0.088,0.068,-0.054,-0.024,0.078,-0.117,-0.176,-0.176,-0.137,-0.088,-0.02
0.124,0.02,0.088,0.068,-0.054,-0.024,0.078,-0.117,-0.176,-0.176,-0.137,-0.088,-0.02
0.126,0.02,0.088,0.068,-0.054,-0.024,0.078,-0.117,-0.176,-0.176,-0.137,-0.088,-0.02
0.128,0.02,0.083,0.063,-0.049,-0.024,0.073,-0.107,-0.166,-0.176,-0.127,-0.088,-0.01
0.13,0.02,0.078,0.059,-0.049,-0.02,0.068,-0.107,-0.166,-0.176,-0.127,-0.088,-0.01
0.132,0.02,0.073,0.054,-0.044,-0.02,0.063,-0.107,-0.166,-0.176,-0.127,-0.088,-0.01
0.134,0.02,0.068,0.049,-0.044,-0.015,0.059,-0.107,-0.166,-0.176,-0.127,-0.088,-0.01
0.136,0.02,0.068,0.049,-0.044,-0.015,0.059,-0.117,-0.166,-0.166,-0.127,-0.088,-0.01
0.138,0.02,0.068,0.049,-0.044,-0.015,0.059,-0.117,-0.166,-0.166,-0.127,-0.088,-0.01
0.14,0.02,0.068,0.049,-0.044,-0.015,0.059,-0.117,-0.166,-0.166,-0.127,-0.088,-0.01
0.142,0.02,0.068,0.049,-0.044,-0.015,0.059,-0.117,-0.166,-0.166,-0.127,-0.088,-0.01
0.144,0.01,0.073,0.063,-0.039,-0.029,0.068,-0.117,-0.176,-0.171,-0.137,-0.088,-0.02
0.146,0.01,0.078,0.068,-0.044,-0.029,0.073,-0.117,-0.176,-0.176,-0.137,-0.088,-0.02
0.148,0.01,0.083,0.073,-0.044,-0.034,0.078,-0.117,-0.176,-0.181,-0.137,-0.088,-0.02
0.15,0.01,0.088,0.078,-0.049,-0.034,0.083,-0.117,-0.176,-0.185,-0.137,-0.088,-0.02
0.152,0.015,0.078,0.063,-0.044,-0.024,0.068,-0.117,-0.176,-0.185,-0.137,-0.098,-0.02
0.154,0.02,0.078,0.059,-0.049,-0.02,0.068,-0.117,-0.176,-0.185,-0.137,-0.098,-0.02
0.156,0.024,0.078,0.054,-0.049,-0.015,0.063,-0.117,-0.176,-0.185,-0.137,-0.098,-0.02
0.158,0.029,0.078,0.049,-0.054,-0.01,0.063,-0.117,-0.176,-0.185,-0.137,-0.098,-0.02
0.16,0.02,0.068,0.049,-0.044,-0.015,0.059,-0.117,-0.176,-0.176,-0.127,-0.088,-0.01
0.162,0.02,0.068,0.049,-0.044,-0.015,0.059,-0.117,-0.176,-0.176,-0.127,-0.088,-0.01
0.164,0.02,0.068,0.049,-0.044,-0.015,0.059,-0.117,-0.176,-0.176,-0.127,-0.088,-0.01
0.166,0.02,0.068,0.049,-0.044,-0.015,0.059,-0.117,-0.176,-0.176,-0.127,-0.088,-0.01
0.168,0.029,0.068,0.039,-0.049,-0.005,0.054,-0.117,-0.176,-0.176,-0.137,-0.088,-0.02
0.17,0.029,0.068,0.039,-0.049,-0.005,0.054,-0.117,-0.176,-0.176,-0.137,-0.088,-0.02
0.172,0.029,0.068,0.039,-0.049,-0.005,0.054,-0.117,-0.176,-0.176,-0.137,-0.088,-0.02
0.174,0.029,0.068,0.039,-0.049,-0.005,0.054,-0.117,-0.176,-0.176,-0.137,-0.088,-0.02
0.176,0.024,0.068,0.044,-0.044,-0.01,0.054,-0.117,-0.185,-0.185,-0.137,-0.098,-0.02
0.178,0.02,0.068,0.049,-0.044,-0.015,0.059,-0.117,-0.185,-0.185,-0.137,-0.098,-0.02
0.18,0.015,0.068,0.054,-0.039,-0.02,0.059,-0.117,-0.185,-0.185,-0.137,-0.098,-0.02
0.182,0.01,0.068,0.059,-0.039,-0.024,0.063,-0.117,-0.185,-0.185,-0.137,-0.098,-0.02
0.184,0.015,0.078,0.063,-0.044,-0.024,0.068,-0.117,-0.176,-0.176,-0.137,-0.088,-0.01
0.186,0.02,0.078,0.059,-0.049,-0.02,0.068,-0.117,-0.176,-0.176,-0.137,-0.088,-0.01
0.188,0.024,0.078,0.054,-0.049,-0.015,0.063,-0.117,-0.176,-0.176,-0.137,-0.088,-0.01
0.19,0.029,0.078,0.049,-0.054,-0.01,0.063,-0.117,-0.176,-0.176,-0.137,-0.088,-0.01
0.192,0.015,0.073,0.059,-0.044,-0.024,0.063,-0.107,-0.176,-0.166,-0.127,-0.088,0.0
0.194,0.01,0.068,0.059,-0.039,-0.024,0.063,-0.107,-0.176,-0.166,-0.127,-0.088,0.0
0.196,0.005,0.063,0.059,-0.034,-0.029,0.059,-0.107,-0.176,-0.166,-0.127,-0.088,0.0
0.198,0.0,0.059,0.059,-0.029,-0.029,0.059,-0.107,-0.176,-0.166,-0.127,-0.088,0.0
0.2,-0.005,0.068,0.073,-0.029,-0.039,0.068,-0.098,-0.166,-0.166,-0.127,-0.078,0.0
0.202,-0.01,0.068,0.078,-0.029,-0.044,0.073,-0.098,-0.166,-0.166,-0.127,-0.078,0.0
0.204,-0.015,0.068,0.083,-0.024,-0.049,0.073,-0.098,-0.166,-0.166,-0.127,-0.078,0.0
0.206,-0.02,0.068,0.088,-0.024,-0.054,0.078,-0.098,-0.166,-0.166,-0.127,-0.078,0.0
0.208,-0.034,0.059,0.093,-0.01,-0.063,0.073,-0.088,-0.156,-0.156,-0.127,-0.078,0.0
0.21,-0.039,0.059,0.098,-0.01,-0.068,0.078,-0.088,-0.156,-0.156,-0.127,-0.078,0.0
0.212,-0.044,0.059,0.102,-0.005,-0.073,0.078,-0.088,-0.156,-0.156,-0.127,-0.078,0.0
0.214,-0.049,0.059,0.107,-0.005,-0.078,0.083,-0.088,-0.156,-0.156,-0.127,-0.078,0.0
0.216,-0.059,0.068,0.127,-0.005,-0.093,0.098,-0.088,-0.156,-0.156,-0.127,-0.068,0.01
0.218,-0.059,0.068,0.127,-0.005,-0.093,0.098,-0.088,-0.156,-0.156,-0.127,-0.068,0.01
0.22,-0.059,0.068,0.127,-0.005,-0.093,0.098,-0.088,-0.156,-0.156,-0.127,-0.068,0.01
0.222,-0.059,0.068,0.127,-0.005,-0.093,0.098,-0.088,-0.156,-0.156,-0.127,-0.068,0.01
0.224,-0.049,0.078,0.127,-0.015,-0.088,0.102,-0.098,-0.166,-0.156,-0.127,-0.078,0.01
0.226,-0.049,0.078,0.127,-0.015,-0.088,0.102,-0.098,-0.166,-0.156,-0.127,-0.078,0.01
0.228,-0.049,0.078,0.127,-0.015,-0.088,0.102,-0.098,-0.166,-0.156,-0.127,-0.078,0.01
0.23,-0.049,0.078,0.127,-0.015,-0.088,0.102,-0.098,-0.166,-0.156,-0.127,-0.078,0.01
0.232,-0.039,0.063,0.102,-0.01,-0.073,0.083,-0.088,-0.156,-0.156,-0.127,-0.068,0.01
0.234,-0.039,0.059,0.098,-0.01,-0.068,0.078,-0.088,-0.156,-0.156,-0.127,-0.068,0.01
0.236,-0.039,0.054,0.093,-0.005,-0.068,0.073,-0.088,-0.156,-0.156,-0.127,-0.068,0.01
0.238,-0.039,0.049,0.088,-0.005,-0.063,0.068,-0.088,-0.156,-0.156,-0.127,-0.068,0.01
0.24,-0.034,0.059,0.093,-0.01,-0.063,0.073,-0.088,-0.156,-0.166,-0.127,-0.078,0.01
0.242,-0.029,0.059,0.088,-0.015,-0.059,0.073,-0.088,-0.156,-0.166,-0.127,-0.078,0.01
0.244,-0.024,0.059,0.083,-0.015,-0.054,0.068,-0.088,-0.156,-0.166,-0.127,-0.078,0.01
0.246,-0.02,0.059,0.078,-0.02,-0.049,0.068,-0.088,-0.156,-0.166,-0.127,-0.078,0.01
0.248,-0.029,0.059,0.088,-0.015,-0.059,0.073,-0.098,-0.166,-0.156,-0.127,-0.078,0.01
0.25,-0.029,0.059,0.088,-0.015,-0.059,0.073,-0.098,-0.166,-0.156,-0.127,-0.078,0.01
0.252,-0.029,0.059,0.088,-0.015,-0.059,0.073,-0.098,-0.166,-0.156,-0.127,-0.078,0.01
0.254,-0.029,0.059,0.088,-0.015,-0.059,0.073,-0.098,-0.166,-0.156,-0.127,-0.078,0.01
0.256,-0.02,0.059,0.078,-0.02,-0.049,0.068,-0.088,-0.166,-0.166,-0.137,-0.078,0.01
0.258,-0.02,0.059,0.078,-0.02,-0.049,0.068,-0.088,-0.166,-0.166,-0.137,-0.078,0.01
0.26,-0.02,0.059,0.078,-0.02,-0.049,0.068,-0.088,-0.166,-0.166,-0.137,-0.078,0.01
0.262,-0.02,0.059,0.078,-0.02,-0.049,0.068,-0.088,-0.166,-0.166,-0.137,-0.078,0.01
0.264,-0.01,0.049,0.059,-0.02,-0.034,0.054,-0.088,-0.156,-0.166,-0.127,-0.068,0.01
0.266,-0.01,0.049,0.059,-0.02,-0.034,0.054,-0.088,-0.156,-0.166,-0.127,-0.068,0.01
0.268,-0.01,0.049,0.059,-0.02,-0.034,0.054,-0.088,-0.156,-0.166,-0.127,-0.068,0.01
0.27,-0.01,0.049,0.059,-0.02,-0.034,0.054,-0.088,-0.156,-0.166,-0.127,-0.068,0.01
0.272,-0.01,0.049,0.059,-0.02,-0.034,0.054,-0.088,-0.166,-0.176,-0.137,-0.078,0.01
0.274,-0.01,0.049,0.059,-0.02,-0.034,0.054,-0.088,-0.166,-0.176,-0.137,-0.078,0.01
0.276,-0.01,0.049,0.059,-0.02,-0.034,0.054,-0.088,-0.166,-0.176,-0.137,-0.078,0.01
0.278,-0.01,0.049,0.059,-0.02,-0.034,0.054,-0.088,-0.166,-0.176,-0.137,-0.078,0.01
0.28,-0.01,0.049,0.059,-0.02,-0.034,0.054,-0.088,-0.166,-0.176,-0.137,-0.088,0.0
0.282,-0.01,0.049,0.059,-0.02,-0.034,0.054,-0.088,-0.166,-0.176,-0.137,-0.088,0.0
0.284,-0.01,0.049,0.059,-0.02,-0.034,0.054,-0.088,-0.166,-0.176,-0.137,-0.088,0.0
0.286,-0.01,0.049,0.059,-0.02,-0.034,0.054,-0.088,-0.166,-0.176,-0.137,-0.088,0.0
0.288,-0.01,0.059,0.068,-0.024,-0.039,0.063,-0.088,-0.176,-0.176,-0.146,-0.088,0.0
0.29,-0.01,0.059,0.068,-0.024,-0.039,0.063,-0.088,-0.176,-0.176,-0.146,-0.088,0.0
0.292,-0.01,0.059,0.068,-0.024,-0.039,0.063,-0.088,-0.176,-0.176,-0.146,-0.088,0.0
0.294,-0.01,0.059,0.068,-0.024,-0.039,0.063,-0.088,-0.176,-0.176,-0.146,-0.088,0.0
0.296,-0.01,0.068,0.078,-0.029,-0.044,0.073,-0.098,-0.176,-0.185,-0.156,-0.088,0.0
0.298,-0.01,0.068,0.078,-0.029,-0.044,0.073,-0.098,-0.176,-0.185,-0.156,-0.088,0.0
0.3,-0.01,0.068,0.078,-0.029,-0.044,0.073,-0.098,-0.176,-0.185,-0.156,-0.088,0.0
0.302,-0.01,0.068,0.078,-0.029,-0.044,0.073,-0.098,-0.176,-0.185,-0.156,-0.088,0.0
0.304,-0.01,0.054,0.063,-0.02,-0.039,0.059,-0.098,-0.185,-0.195,-0.156,-0.098,0.0
0.306,-0.01,0.049,0.059,-0.02,-0.034,0.054,-0.098,-0.185,-0.195,-0.156,-0.098,0.0
0.308,-0.01,0.044,0.054,-0.015,-0.034,0.049,-0.098,-0.185,-0.195,-0.156,-0.098,0.0
0.31,-0.01,0.039,0.049,-0.015,-0.029,0.044,-0.098,-0.185,-0.195,-0.156,-0.098,0.0
0.312,0.0,0.044,0.044,-0.02,-0.024,0.044,-0.107,-0.176,-0.185,-0.156,-0.088,0.0
0.314,0.0,0.049,0.049,-0.024,-0.024,0.049,-0.107,-0.176,-0.185,-0.156,-0.088,0.0
0.316,0.0,0.054,0.054,-0.024,-0.029,0.054,-0.107,-0.176,-0.185,-0.156,-0.088,0.0
0.318,0.0,0.059,0.059,-0.029,-0.029,0.059,-0.107,-0.176,-0.185,-0.156,-0.088,0.0
0.32,-0.01,0.049,0.059,-0.02,-0.034,0.054,-0.098,-0.176,-0.195,-0.156,-0.098,0.0
0.322,-0.01,0.049,0.059,-0.02,-0.034,0.054,-0.098,-0.176,-0.195,-0.156,-0.098,0.0
0.324,-0.01,0.049,0.059,-0.02,-0.034,0.054,-0.098,-0.176,-0.195,-0.156,-0.098,0.0
0.326,-0.01,0.049,0.059,-0.02,-0.034,0.054,-0.098,-0.176,-0.195,-0.156,-0.098,0.0
0.328,0.0,0.059,0.059,-0.029,-0.029,0.059,-0.107,-0.176,-0.185,-0.156,-0.088,0.0
0.33,0.0,0.059,0.059,-0.029,-0.029,0.059,-0.107,-0.176,-0.185,-0.156,-0.088,0.0
0.332,0.0,0.059,0.059,-0.029,-0.029,0.059,-0.107,-0.176,-0.185,-0.156,-0.088,0.0
0.334,0.0,0.059,0.059,-0.029,-0.029,0.059,-0.107,-0.176,-0.185,-0.156,-0.088,0.0
0.336,-0.01,0.059,0.068,-0.024,-0.039,0.063,-0.107,-0.185,-0.19,-0.161,-0.098,0.0
0.338,-0.01,0.059,0.068,-0.024,-0.039,0.063,-0.107,-0.185,-0.195,-0.166,-0.098,0.0
0.34,-0.01,0.059,0.068,-0.024,-0.039,0.063,-0.107,-0.185,-0.2,-0.171,-0.098,0.0
0.342,-0.01,0.059,0.068,-0.024,-0.039,0.063,-0.107,-0.185,-0.205,-0.176,-0.098,0.0
0.344,0.0,0.049,0.049,-0.024,-0.024,0.049,-0.107,-0.176,-0.195,-0.171,-0.098,0.01
0.346,0.0,0.049,0.049,-0.024,-0.024,0.049,-0.107,-0.176,-0.195,-0.166,-0.098,0.01
0.348,0.0,0.049,0.049,-0.024,-0.024,0.049,-0.107,-0.176,-0.195,-0.161,-0.098,0.01
0.35,0.0,0.049,0.049,-0.024,-0.024,0.049,-0.107,-0.176,-0.195,-0.156,-0.098,0.01
0.352,0.0,0.049,0.049,-0.024,-0.024,0.049,-0.098,-0.176,-0.195,-0.156,-0.088,0.01
0.354,0.0,0.049,0.049,-0.024,-0.024,0.049,-0.098,-0.176,-0.195,-0.156,-0.088,0.01
0.356,0.0,0.049,0.049,-0.024,-0.024,0.049,-0.098,-0.176,-0.195,-0.156,-0.088,0.01
0.358,0.0,0.049,0.049,-0.024,-0.024,0.049,-0.098,-0.176,-0.195,-0.156,-0.088,0.01
0.36,0.0,0.049,0.049,-0.024,-0.024,0.049,-0.098,-0.176,-0.185,-0.166,-0.078,0.01
0.362,0.0,0.049,0.049,-0.024,-0.024,0.049,-0.098,-0.176,-0.185,-0.166,-0.078,0.01
0.364,0.0,0.049,0.049,-0.024,-0.024,0.049,-0.098,-0.176,-0.185,-0.166,-0.078,0.01
0.366,0.0,0.049,0.049,-0.024,-0.024,0.049,-0.098,-0.176,-0.185,-0.166,-0.078,0.01
0.368,0.01,0.049,0.039,-0.029,-0.015,0.044,-0.107,-0.185,-0.195,-0.166,-0.088,0.0
0.37,0.01,0.049,0.039,-0.029,-0.015,0.044,-0.107,-0.185,-0.195,-0.166,-0.088,0.0
0.372,0.01,0.049,0.039,-0.029,-0.015,0.044,-0.107,-0.185,-0.195,-0.166,-0.088,0.0
0.374,0.01,0.049,0.039,-0.029,-0.015,0.044,-0.107,-0.185,-0.195,-0.166,-0.088,0.0
0.376,0.0,0.049,0.049,-0.024,-0.024,0.049,-0.107,-0.185,-0.2,-0.176,-0.088,0.0
0.378,0.0,0.049,0.049,-0.024,-0.024,0.049,-0.107,-0.185,-0.205,-0.176,-0.088,0.0
0.38,0.0,0.049,0.049,-0.024,-0.024,0.049,-0.107,-0.185,-0.21,-0.176,-0.088,0.0
0.382,0.0,0.049,0.049,-0.024,-0.024,0.049,-0.107,-0.185,-0.215,-0.176,-0.088,0.0
0.384,0.0,0.059,0.059,-0.029,-0.029,0.059,-0.117,-0.185,-0.215,-0.176,-0.088,0.0
0.386,0.0,0.059,0.059,-0.029,-0.029,0.059,-0.117,-0.185,-0.215,-0.176,-0.088,0.0
0.388,0.0,0.059,0.059,-0.029,-0.029,0.059,-0.117,-0.185,-0.215,-0.176,-0.088,0.0
0.39,0.0,0.059,0.059,-0.029,-0.029,0.059,-0.117,-0.185,-0.215,-0.176,-0.088,0.0
0.392,0.01,0.059,0.049,-0.034,-0.02,0.054,-0.117,-0.185,-0.205,-0.176,-0.088,0.01
0.394,0.01,0.059,0.049,-0.034,-0.02,0.054,-0.117,-0.185,-0.205,-0.176,-0.088,0.01
0.396,0.01,0.059,0.049,-0.034,-0.02,0.054,-0.117,-0.185,-0.205,-0.176,-0.088,0.01
0.398,0.01,0.059,0.049,-0.034,-0.02,0.054,-0.117,-0.185,-0.205,-0.176,-0.088,0.01
0.4,0.01,0.059,0.049,-0.034,-0.02,0.054,-0.107,-0.185,-0.215,-0.176,-0.088,0.01
0.402,0.01,0.059,0.049,-0.034,-0.02,0.054,-0.107,-0.185,-0.215,-0.176,-0.088,0.01
0.404,0.01,0.059,0.049,-0.034,-0.02,0.054,-0.107,-0.185,-0.215,-0.176,-0.088,0.01
0.406,0.01,0.059,0.049,-0.034,-0.02,0.054,-0.107,-0.185,-0.215,-0.176,-0.088,0.01
0.408,0.02,0.049,0.029,-0.034,-0.005,0.039,-0.098,-0.176,-0.205,-0.176,-0.078,0.02
0.41,0.02,0.049,0.029,-0.034,-0.005,0.039,-0.098,-0.176,-0.205,-0.176,-0.078,0.02
0.412,0.02,0.049,0.029,-0.034,-0.005,0.039,-0.098,-0.176,-0.205,-0.176,-0.078,0.02
0.414,0.02,0.049,0.029,-0.034,-0.005,0.039,-0.098,-0.176,-0.205,-0.176,-0.078,0.02
0.416,0.015,0.044,0.029,-0.029,-0.01,0.034,-0.098,-0.185,-0.205,-0.185,-0.088,0.01
0.418,0.01,0.039,0.029,-0.024,-0.01,0.034,-0.098,-0.185,-0.205,-0.185,-0.088,0.01
0.42,0.005,0.034,0.029,-0.02,-0.015,0.029,-0.098,-0.185,-0.205,-0.185,-0.088,0.01
0.422,0.0,0.029,0.029,-0.015,-0.015,0.029,-0.098,-0.185,-0.205,-0.185,-0.088,0.01
0.424,0.0,0.039,0.039,-0.02,-0.02,0.039,-0.098,-0.185,-0.215,-0.185,-0.088,0.0
0.426,0.0,0.039,0.039,-0.02,-0.02,0.039,-0.098,-0.185,-0.215,-0.185,-0.088,0.0
0.428,0.0,0.039,0.039,-0.02,-0.02,0.039,-0.098,-0.185,-0.215,-0.185,-0.088,0.0
0.43,0.0,0.039,0.039,-0.02,-0.02,0.039,-0.098,-0.185,-0.215,-0.185,-0.088,0.0
0.432,0.005,0.039,0.034,-0.02,-0.015,0.034,-0.107,-0.185,-0.215,-0.185,-0.088,0.01
0.434,0.01,0.039,0.029,-0.024,-0.01,0.034,-0.107,-0.185,-0.215,-0.185,-0.088,0.01
0.436,0.015,0.039,0.024,-0.024,-0.005,0.029,-0.107,-0.185,-0.215,-0.185,-0.088,0.01
0.438,0.02,0.039,0.02,-0.029,0.0,0.029,-0.107,-0.185,-0.215,-0.185,-0.088,0.01
0.44,0.01,0.054,0.044,-0.029,-0.02,0.049,-0.107,-0.176,-0.224,-0.185,-0.088,0.0
0.442,0.01,0.054,0.044,-0.029,-0.02,0.049,-0.107,-0.176,-0.22,-0.185,-0.088,0.0
0.444,0.01,0.044,0.034,-0.024,-0.015,0.039,-0.102,-0.176,-0.22,-0.185,-0.088,0.0
0.446,0.0,0.044,0.044,-0.02,-0.024,0.044,-0.102,-0.176,-0.22,-0.185,-0.088,0.0
0.448,0.01,0.039,0.029,-0.024,-0.01,0.034,-0.112,-0.181,-0.229,-0.19,-0.098,0.0
0.45,0.015,0.039,0.024,-0.024,-0.005,0.029,-0.112,-0.185,-0.229,-0.19,-0.093,0.0
0.452,0.015,0.034,0.02,-0.024,-0.005,0.024,-0.112,-0.19,-0.224,-0.195,-0.093,0.005
0.454,0.01,0.034,0.024,-0.02,-0.01,0.029,-0.112,-0.195,-0.224,-0.195,-0.093,0.005
0.456,0.0,0.034,0.034,-0.015,-0.02,0.034,-0.102,-0.185,-0.215,-0.185,-0.093,0.01
0.458,0.005,0.029,0.024,-0.015,-0.01,0.024,-0.098,-0.185,-0.22,-0.185,-0.093,0.01
0.46,0.005,0.029,0.024,-0.015,-0.01,0.024,-0.098,-0.185,-0.224,-0.185,-0.093,0.01
0.462,0.0,0.029,0.029,-0.015,-0.015,0.029,-0.098,-0.185,-0.224,-0.185,-0.093,0.01
0.464,0.0,0.029,0.029,-0.015,-0.015,0.029,-0.098,-0.185,-0.215,-0.181,-0.083,0.01
0.466,0.005,0.029,0.024,-0.015,-0.01,0.024,-0.102,-0.185,-0.215,-0.181,-0.083,0.01
0.468,0.01,0.034,0.024,-0.02,-0.01,0.029,-0.102,-0.185,-0.21,-0.181,-0.083,0.01
0.47,0.01,0.044,0.034,-0.024,-0.015,0.039,-0.102,-0.181,-0.21,-0.181,-0.083,0.01
0.472,0.02,0.044,0.024,-0.029,-0.005,0.034,-0.102,-0.176,-0.22,-0.19,-0.073,0.015
0.474,0.02,0.044,0.024,-0.029,-0.005,0.034,-0.102,-0.171,-0.215,-0.185,-0.073,0.015
0.476,0.024,0.049,0.024,-0.034,0.0,0.034,-0.102,-0.171,-0.21,-0.185,-0.073,0.02
0.478,0.024,0.049,0.024,-0.034,0.0,0.034,-0.102,-0.171,-0.21,-0.181,-0.068,0.02
0.48,0.029,0.054,0.024,-0.039,0.0,0.039,-0.093,-0.171,-0.215,-0.181,-0.068,0.02
0.482,0.029,0.063,0.034,-0.044,-0.005,0.049,-0.083,-0.166,-0.205,-0.181,-0.068,0.024
0.484,0.029,0.078,0.049,-0.054,-0.01,0.063,-0.083,-0.156,-0.2,-0.166,-0.059,0.034
0.486,0.039,0.088,0.049,-0.063,-0.005,0.068,-0.078,-0.151,-0.195,-0.161,-0.054,0.034
0.488,0.039,0.083,0.044,-0.059,-0.005,0.063,-0.088,-0.156,-0.19,-0.156,-0.044,0.024
0.49,0.039,0.102,0.063,-0.068,-0.015,0.083,-0.088,-0.151,-0.19,-0.156,-0.044,0.029
0.492,0.039,0.107,0.068,-0.073,-0.015,0.088,-0.078,-0.146,-0.181,-0.151,-0.044,0.034
0.494,0.039,0.107,0.068,-0.073,-0.015,0.088,-0.073,-0.132,-0.176,-0.151,-0.034,0.039
0.496,0.029,0.107,0.078,-0.068,-0.024,0.093,-0.059,-0.127,-0.161,-0.132,-0.034,0.049
0.498,0.034,0.122,0.088,-0.078,-0.029,0.102,-0.044,-0.122,-0.161,-0.132,-0.034,0.049
0.5,0.034,0.122,0.088,-0.078,-0.029,0.102,-0.029,-0.117,-0.166,-0.132,-0.034,0.049
0.502,0.034,0.122,0.088,-0.078,-0.029,0.102,-0.029,-0.112,-0.166,-0.132,-0.034,0.049
0.504,0.039,0.127,0.088,-0.083,-0.024,0.107,-0.029,-0.102,-0.161,-0.132,-0.039,0.049
0.506,0.044,0.137,0.093,-0.088,-0.024,0.112,-0.024,-0.098,-0.161,-0.132,-0.039,0.049
0.508,0.054,0.142,0.088,-0.098,-0.02,0.112,-0.024,-0.093,-0.161,-0.127,-0.039,0.054
0.51,0.059,0.146,0.088,-0.102,-0.015,0.117,-0.024,-0.088,-0.151,-0.117,-0.024,0.059
0.512,0.059,0.142,0.083,-0.098,-0.015,0.112,-0.01,-0.068,-0.142,-0.107,-0.015,0.059
0.514,0.059,0.151,0.093,-0.102,-0.02,0.122,-0.01,-0.054,-0.127,-0.102,-0.005,0.063
0.516,0.073,0.156,0.083,-0.112,-0.005,0.117,-0.01,-0.054,-0.122,-0.102,0.005,0.078
0.518,0.078,0.161,0.083,-0.117,-0.005,0.122,-0.024,-0.059,-0.122,-0.102,0.005,0.078
0.52,0.068,0.156,0.088,-0.112,-0.01,0.122,-0.039,-0.068,-0.117,-0.098,0.015,0.088
0.522,0.068,0.156,0.088,-0.112,-0.01,0.122,-0.068,-0.083,-0.122,-0.098,0.02,0.098
0.524,0.063,0.161,0.098,-0.112,-0.02,0.127,-0.093,-0.102,-0.122,-0.093,0.024,0.107
0.526,0.063,0.161,0.098,-0.112,-0.02,0.127,-0.107,-0.117,-0.127,-0.093,0.029,0.112
0.528,0.054,0.156,0.102,-0.102,-0.024,0.127,-0.127,-0.142,-0.151,-0.107,0.024,0.102
0.53,0.054,0.151,0.098,-0.102,-0.024,0.122,-0.142,-0.166,-0.166,-0.112,0.01,0.102
0.532,0.073,0.151,0.078,-0.112,-0.005,0.112,-0.161,-0.176,-0.176,-0.127,0.005,0.102
0.534,0.073,0.151,0.078,-0.112,-0.005,0.112,-0.166,-0.19,-0.185,-0.127,0.0,0.102
0.536,0.078,0.151,0.073,-0.112,0.0,0.112,-0.171,-0.195,-0.2,-0.132,0.01,0.102
0.538,0.078,0.142,0.063,-0.107,0.005,0.102,-0.171,-0.205,-0.2,-0.137,0.005,0.102
0.54,0.078,0.127,0.049,-0.102,0.015,0.088,-0.166,-0.205,-0.205,-0.137,0.005,0.102
0.542,0.078,0.127,0.049,-0.102,0.015,0.088,-0.161,-0.2,-0.205,-0.137,0.005,0.102
0.544,0.083,0.122,0.039,-0.102,0.02,0.078,-0.156,-0.19,-0.195,-0.142,0.005,0.107
0.546,0.088,0.107,0.02,-0.098,0.034,0.063,-0.156,-0.19,-0.205,-0.142,-0.005,0.098
0.548,0.088,0.088,0.0,-0.088,0.044,0.044,-0.156,-0.2,-0.21,-0.151,-0.015,0.083
0.55,0.088,0.083,-0.005,-0.083,0.044,0.039,-0.156,-0.205,-0.215,-0.166,-0.029,0.073
0.552,0.049,0.054,0.005,-0.049,0.02,0.029,-0.151,-0.215,-0.229,-0.185,-0.049,0.059
0.554,0.029,0.044,0.015,-0.034,0.005,0.029,-0.142,-0.22,-0.239,-0.19,-0.059,0.044
0.556,0.01,0.029,0.02,-0.02,-0.005,0.024,-0.137,-0.224,-0.249,-0.2,-0.068,0.029
0.558,0.0,0.02,0.02,-0.01,-0.01,0.02,-0.137,-0.229,-0.259,-0.205,-0.068,0.02
0.56,0.0,0.02,0.02,-0.01,-0.01,0.02,-0.137,-0.229,-0.254,-0.21,-0.073,0.029
0.562,0.0,0.015,0.015,-0.005,-0.01,0.015,-0.137,-0.229,-0.254,-0.21,-0.068,0.02
0.564,0.0,0.005,0.005,0.0,-0.005,0.005,-0.132,-0.22,-0.254,-0.21,-0.063,0.02
0.566,-0.015,0.005,0.02,0.005,-0.02,0.01,-0.127,-0.22,-0.254,-0.21,-0.059,0.015
0.568,-0.015,0.0,0.015,0.01,-0.015,0.005,-0.117,-0.215,-0.254,-0.21,-0.068,0.024
0.57,-0.015,-0.01,0.005,0.015,-0.01,-0.005,-0.117,-0.215,-0.259,-0.21,-0.073,0.02
0.572,-0.015,-0.01,0.005,0.015,-0.01,-0.005,-0.117,-0.22,-0.264,-0.215,-0.078,0.015
0.574,-0.01,-0.01,0.0,0.01,-0.005,-0.005,-0.117,-0.224,-0.264,-0.22,-0.083,0.01
0.576,0.0,-0.01,-0.01,0.005,0.005,-0.01,-0.127,-0.234,-0.278,-0.224,-0.073,0.01
0.578,-0.005,-0.005,0.0,0.005,-0.005,-0.005,-0.132,-0.234,-0.278,-0.224,-0.073,0.01
0.58,-0.005,-0.01,-0.005,0.01,0.0,-0.01,-0.132,-0.234,-0.278,-0.224,-0.078,0.01
0.582,-0.005,-0.005,0.0,0.005,-0.005,-0.005,-0.132,-0.234,-0.278,-0.224,-0.078,0.01
0.584,-0.029,-0.005,0.024,0.02,-0.029,0.01,-0.142,-0.224,-0.278,-0.239,-0.078,-0.005
0.586,-0.02,0.0,0.02,0.01,-0.02,0.01,-0.132,-0.229,-0.278,-0.249,-0.088,0.005
0.588,-0.015,0.0,0.015,0.01,-0.015,0.005,-0.127,-0.224,-0.273,-0.229,-0.098,-0.01
0.59,-0.015,0.01,0.024,0.005,-0.02,0.015,-0.132,-0.22,-0.268,-0.224,-0.098,-0.015
0.592,-0.015,0.01,0.024,0.005,-0.02,0.015,-0.107,-0.21,-0.268,-0.224,-0.093,-0.015
0.594,-0.02,0.005,0.024,0.01,-0.024,0.015,-0.083,-0.181,-0.259,-0.229,-0.107,-0.01
0.596,-0.034,-0.015,0.02,0.024,-0.029,0.0,-0.039,-0.122,-0.249,-0.244,-0.132,-0.034
0.598,-0.063,-0.029,0.034,0.049,-0.049,0.0,0.02,-0.029,-0.234,-0.268,-0.171,-0.078
0.6,-0.098,-0.029,0.068,0.063,-0.083,0.02,0.117,0.102,-0.22,-0.307,-0.224,-0.132
0.602,-0.117,-0.024,0.093,0.073,-0.107,0.034,0.234,0.254,-0.2,-0.351,-0.298,-0.195
0.604,-0.161,-0.059,0.102,0.112,-0.132,0.02,0.366,0.439,-0.161,-0.376,-0.361,-0.259
0.606,-0.171,-0.127,0.044,0.151,-0.107,-0.044,0.493,0.625,-0.107,-0.405,-0.429,-0.322
0.608,-0.161,-0.166,-0.005,0.166,-0.078,-0.088,0.625,0.81,-0.063,-0.439,-0.512,-0.405
0.61,-0.171,-0.185,-0.015,0.181,-0.078,-0.102,0.737,1.015,0.005,-0.449,-0.571,-0.468
0.612,-0.19,-0.19,0.0,0.19,-0.098,-0.098,0.844,1.186,0.107,-0.42,-0.59,-0.488
0.614,-0.181,-0.142,0.039,0.161,-0.112,-0.054,0.913,1.308,0.205,-0.386,-0.581,-0.488
0.616,-0.146,-0.083,0.063,0.117,-0.107,-0.01,0.932,1.44,0.332,-0.303,-0.532,-0.449
0.618,-0.098,-0.02,0.078,0.059,-0.088,0.029,0.966,1.669,0.503,-0.171,-0.449,-0.376
0.62,-0.029,0.088,0.117,-0.029,-0.073,0.102,0.986,1.908,0.678,-0.02,-0.317,-0.268
0.622,0.063,0.244,0.181,-0.151,-0.059,0.21,0.952,1.986,0.82,0.181,-0.102,-0.098
0.624,0.185,0.4,0.215,-0.293,-0.015,0.307,0.795,1.767,0.942,0.473,0.215,0.166
0.626,0.312,0.547,0.234,-0.429,0.039,0.39,0.522,1.283,1.005,0.781,0.586,0.444
0.628,0.42,0.683,0.264,-0.551,0.078,0.473,0.205,0.664,1.01,1.049,0.917,0.708
0.63,0.561,0.786,0.224,-0.673,0.166,0.503,-0.088,0.146,1.044,1.337,1.254,0.942
0.632,0.693,0.874,0.181,-0.781,0.254,0.527,-0.439,-0.371,1.132,1.728,1.664,1.2
0.634,0.747,0.952,0.205,-0.849,0.268,0.576,-0.805,-0.947,1.22,2.118,2.089,1.474
0.636,0.742,1.005,0.264,-0.874,0.239,0.634,-1.049,-1.425,1.166,2.381,2.425,1.688
0.638,0.703,1.015,0.312,-0.859,0.195,0.664,-1.181,-1.82,0.839,2.323,2.572,1.791
0.64,0.639,1.044,0.405,-0.839,0.117,0.722,-1.235,-2.167,0.239,1.879,2.45,1.806
0.642,0.542,1.083,0.542,-0.81,0.0,0.81,-1.171,-2.289,-0.356,1.235,2.137,1.742
0.644,0.468,1.049,0.581,-0.756,-0.059,0.815,-0.971,-2.201,-0.771,0.683,1.781,1.615
0.646,0.386,0.947,0.561,-0.664,-0.088,0.752,-0.698,-2.04,-1.01,0.307,1.454,1.435
0.648,0.273,0.771,0.498,-0.522,-0.112,0.634,-0.415,-1.796,-1.108,-0.029,1.054,1.157
0.65,0.142,0.512,0.371,-0.327,-0.117,0.439,-0.171,-1.532,-1.279,-0.571,0.42,0.722
0.652,0.034,0.249,0.215,-0.142,-0.093,0.229,0.034,-1.371,-1.488,-1.083,-0.215,0.303
0.654,-0.005,0.083,0.088,-0.039,-0.049,0.083,0.156,-1.259,-1.488,-1.22,-0.488,0.083
0.656,-0.01,-0.029,-0.02,0.02,0.005,-0.024,0.142,-1.152,-1.337,-1.078,-0.498,-0.044
0.658,-0.049,-0.132,-0.083,0.093,0.015,-0.107,-0.005,-1.088,-1.22,-0.986,-0.522,-0.161
0.66,-0.102,-0.205,-0.102,0.156,0.0,-0.156,-0.127,-1.049,-1.152,-0.961,-0.556,-0.239
0.662,-0.107,-0.22,-0.112,0.166,0.0,-0.166,-0.156,-0.981,-1.069,-0.878,-0.522,-0.239
0.664,-0.088,-0.229,-0.142,0.161,0.024,-0.185,-0.156,-0.878,-0.956,-0.766,-0.454,-0.22
0.666,-0.098,-0.215,-0.117,0.156,0.01,-0.166,-0.107,-0.708,-0.81,-0.654,-0.386,-0.19
0.668,-0.093,-0.181,-0.088,0.137,-0.005,-0.137,-0.059,-0.532,-0.673,-0.537,-0.312,-0.166
0.67,-0.049,-0.142,-0.093,0.098,0.02,-0.117,-0.059,-0.4,-0.576,-0.444,-0.249,-0.122
0.672,-0.02,-0.102,-0.083,0.063,0.029,-0.093,-0.059,-0.268,-0.464,-0.376,-0.185,-0.078
0.674,-0.005,-0.093,-0.088,0.049,0.039,-0.093,-0.005,-0.151,-0.381,-0.337,-0.166,-0.049
0.676,0.0,-0.098,-0.098,0.049,0.049,-0.098,0.034,-0.083,-0.327,-0.322,-0.161,-0.054
0.678,0.005,-0.088,-0.093,0.044,0.049,-0.093,0.034,-0.049,-0.303,-0.303,-0.156,-0.044
0.68,0.0,-0.068,-0.068,0.034,0.034,-0.068,0.024,-0.029,-0.288,-0.293,-0.142,-0.029
0.682,0.02,-0.054,-0.073,0.02,0.044,-0.063,0.044,0.01,-0.264,-0.259,-0.122,-0.02
0.684,0.034,-0.034,-0.068,0.0,0.049,-0.054,0.063,0.034,-0.234,-0.229,-0.107,-0.01
0.686,0.034,-0.02,-0.054,-0.005,0.044,-0.039,0.063,0.054,-0.21,-0.19,-0.088,0.0
0.688,0.02,-0.024,-0.044,0.005,0.029,-0.034,0.054,0.049,-0.21,-0.181,-0.088,0.01
0.69,0.005,-0.029,-0.034,0.015,0.02,-0.034,0.049,0.049,-0.2,-0.19,-0.088,0.01
0.692,-0.01,-0.034,-0.024,0.024,0.005,-0.029,0.049,0.059,-0.2,-0.19,-0.088,0.005
0.694,-0.015,-0.039,-0.024,0.029,0.005,-0.034,0.049,0.059,-0.19,-0.19,-0.088,0.005
0.696,-0.01,-0.029,-0.02,0.02,0.005,-0.024,0.034,0.063,-0.19,-0.205,-0.093,-0.005
0.698,0.0,-0.02,-0.02,0.01,0.01,-0.02,0.034,0.063,-0.19,-0.21,-0.098,-0.005
0.7,0.0,-0.015,-0.015,0.01,0.005,-0.015,0.034,0.063,-0.195,-0.21,-0.102,-0.005
0.702,0.0,-0.01,-0.01,0.005,0.005,-0.01,0.034,0.073,-0.195,-0.205,-0.107,-0.005
0.704,0.005,-0.01,-0.015,0.005,0.01,-0.015,0.029,0.078,-0.2,-0.19,-0.098,-0.01
0.706,0.015,-0.005,-0.02,-0.005,0.015,-0.015,0.029,0.088,-0.195,-0.181,-0.093,-0.01
0.708,0.02,-0.005,-0.024,-0.005,0.02,-0.015,0.024,0.098,-0.185,-0.176,-0.088,0.0
0.71,0.015,-0.005,-0.02,-0.005,0.015,-0.015,0.024,0.102,-0.176,-0.176,-0.083,0.0
0.712,0.0,-0.01,-0.01,0.005,0.005,-0.01,0.034,0.107,-0.171,-0.171,-0.083,0.01
0.714,-0.005,-0.005,0.0,0.005,-0.005,-0.005,0.034,0.112,-0.161,-0.166,-0.083,0.01
0.716,-0.005,0.0,0.005,0.005,-0.005,0.0,0.034,0.117,-0.151,-0.161,-0.083,0.01
0.718,-0.005,0.0,0.005,0.005,-0.005,0.0,0.034,0.117,-0.142,-0.161,-0.083,0.015
0.72,0.0,-0.01,-0.01,0.005,0.005,-0.01,0.024,0.122,-0.142,-0.166,-0.073,0.005
0.722,-0.005,-0.015,-0.01,0.01,0.0,-0.015,0.029,0.127,-0.142,-0.166,-0.078,0.005
0.724,0.01,-0.015,-0.024,0.005,0.015,-0.02,0.029,0.132,-0.137,-0.156,-0.078,0.005
0.726,0.015,-0.01,-0.024,0.0,0.02,-0.02,0.029,0.142,-0.132,-0.146,-0.063,0.005
0.728,0.02,0.0,-0.02,-0.01,0.02,-0.01,0.039,0.146,-0.127,-0.142,-0.063,0.015
0.73,0.02,0.0,-0.02,-0.01,0.02,-0.01,0.039,0.151,-0.117,-0.132,-0.059,0.015
0.732,0.024,0.0,-0.024,-0.01,0.024,-0.015,0.044,0.161,-0.112,-0.132,-0.059,0.015
0.734,0.029,0.0,-0.029,-0.015,0.029,-0.015,0.044,0.161,-0.112,-0.132,-0.059,0.02
0.736,0.02,0.0,-0.02,-0.01,0.02,-0.01,0.044,0.166,-0.117,-0.132,-0.059,0.029
0.738,0.02,0.0,-0.02,-0.01,0.02,-0.01,0.049,0.176,-0.107,-0.132,-0.059,0.029
0.74,0.02,0.0,-0.02,-0.01,0.02,-0.01,0.054,0.181,-0.107,-0.132,-0.059,0.024
0.742,0.029,0.0,-0.029,-0.015,0.029,-0.015,0.054,0.185,-0.107,-0.132,-0.059,0.024
0.744,0.029,-0.01,-0.039,-0.01,0.034,-0.024,0.054,0.19,-0.117,-0.117,-0.049,0.024
0.746,0.029,-0.01,-0.039,-0.01,0.034,-0.024,0.054,0.195,-0.117,-0.107,-0.044,0.024
0.748,0.029,-0.005,-0.034,-0.01,0.029,-0.02,0.059,0.205,-0.112,-0.107,-0.039,0.024
0.75,0.029,0.005,-0.024,-0.015,0.024,-0.01,0.059,0.205,-0.112,-0.107,-0.039,0.024
0.752,0.02,-0.005,-0.024,-0.005,0.02,-0.015,0.063,0.205,-0.107,-0.112,-0.039,0.024
0.754,0.02,-0.01,-0.029,-0.005,0.024,-0.02,0.068,0.215,-0.107,-0.112,-0.039,0.024
0.756,0.02,-0.01,-0.029,-0.005,0.024,-0.02,0.068,0.22,-0.098,-0.112,-0.034,0.024
0.758,0.029,-0.005,-0.034,-0.01,0.029,-0.02,0.068,0.229,-0.093,-0.107,-0.034,0.024
0.76,0.029,-0.005,-0.034,-0.01,0.029,-0.02,0.083,0.234,-0.093,-0.117,-0.044,0.02
0.762,0.029,-0.005,-0.034,-0.01,0.029,-0.02,0.083,0.239,-0.093,-0.117,-0.044,0.02
0.764,0.029,-0.005,-0.034,-0.01,0.029,-0.02,0.083,0.244,-0.083,-0.107,-0.044,0.015
0.766,0.029,-0.005,-0.034,-0.01,0.029,-0.02,0.093,0.254,-0.078,-0.107,-0.039,0.015
0.768,0.02,-0.01,-0.029,-0.005,0.024,-0.02,0.088,0.259,-0.078,-0.102,-0.044,0.02
0.77,0.02,-0.005,-0.024,-0.005,0.02,-0.015,0.088,0.268,-0.078,-0.102,-0.039,0.02
0.772,0.024,-0.005,-0.029,-0.01,0.024,-0.02,0.088,0.273,-0.078,-0.102,-0.039,0.02
0.774,0.024,-0.01,-0.034,-0.005,0.029,-0.024,0.093,0.278,-0.068,-0.102,-0.039,0.02
0.776,0.015,-0.01,-0.024,0.0,0.02,-0.02,0.098,0.283,-0.059,-0.102,-0.034,0.029
0.778,0.015,-0.01,-0.024,0.0,0.02,-0.02,0.098,0.288,-0.054,-0.098,-0.034,0.029
0.78,0.015,-0.01,-0.024,0.0,0.02,-0.02,0.098,0.298,-0.049,-0.098,-0.034,0.029
0.782,0.015,-0.01,-0.024,0.0,0.02,-0.02,0.107,0.307,-0.049,-0.088,-0.034,0.029
0.784,0.01,0.0,-0.01,-0.005,0.01,-0.005,0.098,0.317,-0.049,-0.098,-0.034,0.02
0.786,0.029,0.0,-0.029,-0.015,0.029,-0.015,0.098,0.322,-0.044,-0.093,-0.034,0.02
0.788,0.034,0.0,-0.034,-0.015,0.034,-0.02,0.098,0.327,-0.039,-0.083,-0.029,0.02
0.79,0.039,0.0,-0.039,-0.02,0.039,-0.02,0.098,0.332,-0.039,-0.083,-0.029,0.02
0.792,0.029,0.005,-0.024,-0.015,0.024,-0.01,0.098,0.342,-0.029,-0.078,-0.039,0.02
0.794,0.029,0.0,-0.029,-0.015,0.029,-0.015,0.098,0.356,-0.024,-0.078,-0.039,0.02
0.796,0.029,-0.005,-0.034,-0.01,0.029,-0.02,0.107,0.366,-0.02,-0.073,-0.034,0.02
0.798,0.029,-0.015,-0.044,-0.005,0.034,-0.029,0.117,0.376,-0.015,-0.068,-0.034,0.02
0.8,0.02,-0.005,-0.024,-0.005,0.02,-0.015,0.127,0.376,0.0,-0.063,-0.024,0.029
0.802,0.024,0.005,-0.02,-0.015,0.02,-0.01,0.127,0.386,0.005,-0.063,-0.024,0.029
0.804,0.029,0.005,-0.024,-0.015,0.024,-0.01,0.127,0.395,0.015,-0.063,-0.024,0.029
0.806,0.029,0.0,-0.029,-0.015,0.029,-0.015,0.127,0.405,0.015,-0.068,-0.024,0.029
0.808,0.034,0.005,-0.029,-0.02,0.029,-0.015,0.132,0.415,0.029,-0.063,-0.015,0.02
0.81,0.039,0.01,-0.029,-0.024,0.034,-0.01,0.142,0.425,0.034,-0.044,-0.015,0.024
0.812,0.039,0.015,-0.024,-0.024,0.029,-0.005,0.142,0.439,0.044,-0.034,-0.015,0.024
0.814,0.044,0.02,-0.024,-0.029,0.034,-0.005,0.146,0.449,0.049,-0.029,-0.015,0.024
0.816,0.029,0.015,-0.015,-0.02,0.02,0.0,0.156,0.468,0.059,-0.034,-0.024,0.034
0.818,0.029,0.015,-0.015,-0.02,0.02,0.0,0.156,0.488,0.063,-0.029,-0.024,0.034
0.82,0.034,0.015,-0.02,-0.024,0.024,-0.005,0.166,0.503,0.068,-0.034,-0.02,0.034
0.822,0.034,0.02,-0.015,-0.024,0.024,0.0,0.171,0.508,0.073,-0.039,-0.015,0.034
0.824,0.049,0.02,-0.029,-0.034,0.039,-0.005,0.176,0.517,0.073,-0.024,-0.01,0.024
0.826,0.049,0.02,-0.029,-0.034,0.039,-0.005,0.176,0.532,0.083,-0.02,-0.01,0.024
0.828,0.049,0.024,-0.024,-0.034,0.034,0.0,0.185,0.547,0.088,-0.015,0.0,0.029
0.83,0.049,0.024,-0.024,-0.034,0.034,0.0,0.195,0.551,0.093,-0.005,0.0,0.029
0.832,0.054,0.034,-0.02,-0.044,0.034,0.005,0.185,0.566,0.088,-0.01,-0.01,0.02
0.834,0.044,0.034,-0.01,-0.039,0.024,0.01,0.19,0.581,0.093,-0.005,-0.01,0.02
0.836,0.059,0.039,-0.02,-0.049,0.039,0.01,0.205,0.595,0.098,-0.005,-0.01,0.02
0.838,0.063,0.044,-0.02,-0.054,0.039,0.01,0.21,0.61,0.098,-0.005,-0.01,0.02
0.84,0.063,0.034,-0.029,-0.049,0.044,0.0,0.215,0.634,0.107,0.005,0.0,0.029
0.842,0.063,0.034,-0.029,-0.049,0.044,0.0,0.22,0.654,0.132,0.015,0.005,0.029
0.844,0.063,0.039,-0.024,-0.049,0.044,0.005,0.224,0.664,0.142,0.015,0.005,0.029
0.846,0.059,0.039,-0.02,-0.049,0.039,0.01,0.229,0.678,0.151,0.015,0.005,0.029
0.848,0.049,0.029,-0.02,-0.039,0.034,0.005,0.249,0.708,0.151,0.015,0.005,0.02
0.85,0.054,0.029,-0.024,-0.039,0.039,0.0,0.264,0.727,0.161,0.029,0.01,0.02
0.852,0.054,0.029,-0.024,-0.039,0.039,0.0,0.278,0.747,0.171,0.044,0.01,0.02
0.854,0.059,0.034,-0.024,-0.044,0.039,0.005,0.288,0.761,0.176,0.044,0.01,0.02
0.856,0.059,0.044,-0.015,-0.049,0.034,0.015,0.288,0.771,0.185,0.049,0.01,0.02
0.858,0.054,0.044,-0.01,-0.049,0.029,0.015,0.298,0.786,0.2,0.054,0.015,0.015
0.86,0.054,0.039,-0.015,-0.044,0.034,0.01,0.307,0.8,0.195,0.054,0.015,0.015
0.862,0.054,0.039,-0.015,-0.044,0.034,0.01,0.317,0.82,0.2,0.059,0.015,0.015
0.864,0.059,0.044,-0.015,-0.049,0.034,0.015,0.317,0.825,0.205,0.063,0.015,0.015
0.866,0.059,0.054,-0.005,-0.054,0.029,0.024,0.322,0.844,0.21,0.063,0.015,0.01
0.868,0.059,0.044,-0.015,-0.049,0.034,0.015,0.327,0.854,0.22,0.059,0.015,0.005
0.87,0.059,0.044,-0.015,-0.049,0.034,0.015,0.332,0.864,0.224,0.059,0.015,0.0
0.872,0.059,0.044,-0.015,-0.049,0.034,0.015,0.346,0.883,0.22,0.078,0.015,0.0
0.874,0.063,0.044,-0.02,-0.054,0.039,0.01,0.351,0.898,0.234,0.083,0.024,-0.005
0.876,0.063,0.039,-0.024,-0.049,0.044,0.005,0.361,0.913,0.249,0.088,0.024,-0.005
0.878,0.059,0.034,-0.024,-0.044,0.039,0.005,0.371,0.917,0.259,0.093,0.024,-0.005
0.88,0.054,0.039,-0.015,-0.044,0.034,0.01,0.371,0.917,0.249,0.098,0.015,-0.005
0.882,0.054,0.039,-0.015,-0.044,0.034,0.01,0.371,0.927,0.254,0.093,0.015,-0.005
0.884,0.054,0.044,-0.01,-0.049,0.029,0.015,0.366,0.932,0.249,0.088,0.015,-0.005
0.886,0.054,0.049,-0.005,-0.049,0.029,0.02,0.371,0.937,0.244,0.083,0.015,0.0
0.888,0.049,0.049,0.0,-0.049,0.024,0.024,0.386,0.956,0.259,0.098,0.02,0.0
0.89,0.054,0.049,-0.005,-0.049,0.029,0.02,0.386,0.956,0.259,0.088,0.02,-0.01
0.892,0.049,0.049,0.0,-0.049,0.024,0.024,0.386,0.956,0.259,0.088,0.02,-0.015
0.894,0.044,0.049,0.005,-0.044,0.02,0.024,0.39,0.966,0.259,0.088,0.02,-0.015
0.896,0.049,0.044,-0.005,-0.044,0.024,0.02,0.395,0.966,0.249,0.098,0.02,-0.015
0.898,0.049,0.044,-0.005,-0.044,0.024,0.02,0.4,0.966,0.249,0.102,0.02,-0.02
0.9,0.049,0.044,-0.005,-0.044,0.024,0.02,0.405,0.966,0.249,0.107,0.02,-0.029
0.902,0.054,0.039,-0.015,-0.044,0.034,0.01,0.405,0.961,0.249,0.107,0.01,-0.034
0.904,0.054,0.034,-0.02,-0.044,0.034,0.005,0.395,0.952,0.249,0.098,0.02,-0.029
0.906,0.049,0.034,-0.015,-0.039,0.029,0.01,0.39,0.947,0.244,0.093,0.015,-0.029
0.908,0.044,0.024,-0.02,-0.034,0.029,0.0,0.39,0.942,0.239,0.093,0.01,-0.034
0.91,0.039,0.024,-0.015,-0.029,0.024,0.005,0.39,0.927,0.234,0.088,0.005,-0.034
0.912,0.044,0.024,-0.02,-0.034,0.029,0.0,0.4,0.927,0.224,0.073,-0.01,-0.049
0.914,0.049,0.029,-0.02,-0.039,0.034,0.005,0.395,0.917,0.215,0.068,-0.01,-0.054
0.916,0.054,0.029,-0.024,-0.039,0.039,0.0,0.395,0.903,0.215,0.063,0.0,-0.054
0.918,0.049,0.034,-0.015,-0.039,0.029,0.01,0.39,0.888,0.205,0.059,0.0,-0.049
0.92,0.039,0.024,-0.015,-0.029,0.024,0.005,0.4,0.874,0.195,0.068,0.0,-0.049
0.922,0.044,0.02,-0.024,-0.029,0.034,-0.005,0.386,0.844,0.176,0.059,-0.01,-0.059
0.924,0.044,0.02,-0.024,-0.029,0.034,-0.005,0.376,0.82,0.166,0.049,-0.015,-0.063
0.926,0.039,0.02,-0.02,-0.029,0.029,0.0,0.366,0.791,0.151,0.044,-0.024,-0.063
0.928,0.029,0.0,-0.029,-0.015,0.029,-0.015,0.356,0.776,0.146,0.024,-0.02,-0.054
0.93,0.029,0.0,-0.029,-0.015,0.029,-0.015,0.346,0.737,0.122,0.015,-0.029,-0.054
0.932,0.029,0.0,-0.029,-0.015,0.029,-0.015,0.327,0.703,0.093,0.005,-0.034,-0.054
0.934,0.029,0.0,-0.029,-0.015,0.029,-0.015,0.317,0.669,0.073,-0.005,-0.039,-0.063
0.936,0.029,0.005,-0.024,-0.015,0.024,-0.01,0.303,0.63,0.063,-0.015,-0.049,-0.073
0.938,0.024,-0.005,-0.029,-0.01,0.024,-0.02,0.288,0.595,0.039,-0.024,-0.054,-0.073
0.94,0.024,-0.01,-0.034,-0.005,0.029,-0.024,0.273,0.556,0.029,-0.034,-0.059,-0.073
0.942,0.034,-0.01,-0.044,-0.01,0.039,-0.029,0.254,0.517,0.01,-0.044,-0.063,-0.073
0.944,0.034,-0.015,-0.049,-0.01,0.039,-0.034,0.234,0.488,-0.02,-0.054,-0.068,-0.083
0.946,0.029,-0.02,-0.049,-0.005,0.039,-0.034,0.22,0.449,-0.039,-0.063,-0.073,-0.083
0.948,0.024,-0.029,-0.054,0.005,0.039,-0.044,0.2,0.405,-0.049,-0.078,-0.073,-0.083
0.95,0.024,-0.029,-0.054,0.005,0.039,-0.044,0.171,0.371,-0.063,-0.093,-0.078,-0.083
0.952,0.029,-0.034,-0.063,0.005,0.044,-0.049,0.171,0.327,-0.083,-0.098,-0.083,-0.083
0.954,0.029,-0.034,-0.063,0.005,0.044,-0.049,0.161,0.293,-0.102,-0.107,-0.083,-0.073
0.956,0.039,-0.034,-0.073,0.0,0.054,-0.054,0.137,0.259,-0.122,-0.117,-0.093,-0.073
0.958,0.039,-0.034,-0.073,0.0,0.054,-0.054,0.122,0.224,-0.146,-0.132,-0.093,-0.073
0.96,0.034,-0.034,-0.068,0.0,0.049,-0.054,0.102,0.19,-0.151,-0.146,-0.093,-0.073
0.962,0.024,-0.034,-0.059,0.005,0.039,-0.049,0.093,0.156,-0.161,-0.146,-0.093,-0.068
0.964,0.02,-0.034,-0.054,0.01,0.034,-0.044,0.078,0.132,-0.176,-0.156,-0.098,-0.063
0.966,0.02,-0.034,-0.054,0.01,0.034,-0.044,0.059,0.098,-0.19,-0.171,-0.102,-0.063
0.968,0.029,-0.049,-0.078,0.01,0.054,-0.063,0.049,0.083,-0.205,-0.185,-0.093,-0.059
0.97,0.024,-0.049,-0.073,0.015,0.049,-0.063,0.034,0.063,-0.215,-0.19,-0.093,-0.059
0.972,0.02,-0.044,-0.063,0.015,0.039,-0.054,0.02,0.039,-0.224,-0.2,-0.107,-0.059
0.974,0.02,-0.044,-0.063,0.015,0.039,-0.054,0.01,0.015,-0.239,-0.21,-0.112,-0.059
0.976,0.015,-0.039,-0.054,0.015,0.034,-0.049,0.0,-0.01,-0.254,-0.215,-0.107,-0.054
0.978,0.015,-0.039,-0.054,0.015,0.034,-0.049,-0.005,-0.029,-0.268,-0.22,-0.107,-0.049
0.98,0.015,-0.034,-0.049,0.01,0.029,-0.044,-0.015,-0.044,-0.278,-0.224,-0.107,-0.039
0.982,0.02,-0.02,-0.039,0.0,0.029,-0.029,-0.015,-0.054,-0.288,-0.229,-0.102,-0.039
0.984,0.01,-0.02,-0.029,0.005,0.02,-0.024,-0.029,-0.059,-0.288,-0.234,-0.102,-0.039
0.986,0.005,-0.024,-0.029,0.01,0.015,-0.029,-0.034,-0.078,-0.293,-0.239,-0.107,-0.034
0.988,0.005,-0.029,-0.034,0.015,0.02,-0.034,-0.049,-0.093,-0.303,-0.244,-0.107,-0.034
0.99,0.005,-0.024,-0.029,0.01,0.015,-0.029,-0.054,-0.098,-0.303,-0.249,-0.102,-0.034
0.992,0.015,-0.015,-0.029,0.0,0.02,-0.024,-0.044,-0.102,-0.303,-0.259,-0.098,-0.024
0.994,0.015,-0.015,-0.029,0.0,0.02,-0.024,-0.049,-0.107,-0.303,-0.259,-0.098,-0.02
0.996,0.015,-0.015,-0.029,0.0,0.02,-0.024,-0.049,-0.117,-0.307,-0.254,-0.098,-0.02
0.998,0.015,-0.015,-0.029,0.0,0.02,-0.024,-0.049,-0.127,-0.312,-0.249,-0.098,-0.01
1.0,0.005,-0.005,-0.01,0.0,0.005,-0.01,-0.049,-0.127,-0.303,-0.244,-0.088,-0.01
1.002,0.005,-0.005,-0.01,0.0,0.005,-0.01,-0.049,-0.132,-0.307,-0.249,-0.088,-0.01
1.004,0.0,-0.005,-0.005,0.005,0.0,-0.005,-0.049,-0.132,-0.307,-0.249,-0.088,-0.005
1.006,0.0,-0.005,-0.005,0.005,0.0,-0.005,-0.049,-0.137,-0.307,-0.249,-0.088,-0.005
1.008,-0.005,-0.015,-0.01,0.01,0.0,-0.015,-0.059,-0.127,-0.312,-0.264,-0.088,0.005
1.01,-0.005,-0.005,0.0,0.005,-0.005,-0.005,-0.059,-0.132,-0.312,-0.264,-0.083,0.005
1.012,-0.01,0.0,0.01,0.005,-0.01,0.005,-0.054,-0.137,-0.312,-0.264,-0.083,0.005
1.014,-0.015,0.0,0.015,0.01,-0.015,0.005,-0.054,-0.137,-0.307,-0.264,-0.078,0.005
1.016,-0.024,0.0,0.024,0.015,-0.024,0.01,-0.054,-0.146,-0.307,-0.259,-0.078,0.01
1.018,-0.024,0.0,0.024,0.015,-0.024,0.01,-0.054,-0.146,-0.307,-0.259,-0.078,0.01
1.02,-0.024,-0.005,0.02,0.015,-0.024,0.005,-0.054,-0.142,-0.307,-0.259,-0.078,0.01
1.022,-0.024,-0.015,0.01,0.02,-0.02,-0.005,-0.054,-0.142,-0.307,-0.259,-0.078,0.015
1.024,-0.024,-0.015,0.01,0.02,-0.02,-0.005,-0.049,-0.132,-0.307,-0.259,-0.078,0.005
1.026,-0.024,-0.005,0.02,0.015,-0.024,0.005,-0.049,-0.132,-0.307,-0.259,-0.078,0.005
1.028,-0.024,-0.005,0.02,0.015,-0.024,0.005,-0.049,-0.132,-0.307,-0.264,-0.078,0.01
1.03,-0.024,-0.005,0.02,0.015,-0.024,0.005,-0.044,-0.132,-0.307,-0.268,-0.078,0.01
1.032,-0.024,-0.01,0.015,0.02,-0.02,0.0,-0.044,-0.132,-0.307,-0.268,-0.088,0.01
1.034,-0.029,-0.015,0.015,0.024,-0.024,0.0,-0.044,-0.132,-0.307,-0.268,-0.088,0.01
1.036,-0.029,-0.02,0.01,0.024,-0.02,-0.005,-0.044,-0.132,-0.307,-0.264,-0.088,0.01
1.038,-0.024,-0.024,0.0,0.024,-0.015,-0.015,-0.049,-0.132,-0.307,-0.259,-0.083,0.01
1.04,-0.034,-0.024,0.01,0.029,-0.024,-0.01,-0.049,-0.137,-0.312,-0.259,-0.073,0.01
1.042,-0.034,-0.02,0.015,0.029,-0.024,-0.005,-0.049,-0.137,-0.312,-0.268,-0.083,0.0
1.044,-0.034,-0.02,0.015,0.029,-0.024,-0.005,-0.049,-0.137,-0.307,-0.268,-0.083,0.0
1.046,-0.034,-0.015,0.02,0.024,-0.029,0.0,-0.049,-0.137,-0.303,-0.268,-0.083,0.0
1.048,-0.044,-0.015,0.029,0.029,-0.039,0.005,-0.044,-0.127,-0.298,-0.268,-0.083,-0.005
1.05,-0.044,-0.015,0.029,0.029,-0.039,0.005,-0.044,-0.127,-0.293,-0.268,-0.083,-0.005
1.052,-0.044,-0.01,0.034,0.029,-0.039,0.01,-0.044,-0.127,-0.293,-0.268,-0.083,-0.005
1.054,-0.044,-0.01,0.034,0.029,-0.039,0.01,-0.039,-0.127,-0.288,-0.268,-0.083,-0.005
1.056,-0.049,-0.01,0.039,0.029,-0.044,0.015,-0.034,-0.112,-0.283,-0.259,-0.083,0.0
1.058,-0.054,-0.005,0.049,0.029,-0.054,0.02,-0.029,-0.107,-0.283,-0.259,-0.083,0.0
1.06,-0.059,-0.005,0.054,0.034,-0.059,0.024,-0.024,-0.107,-0.283,-0.264,-0.083,0.005
1.062,-0.059,0.0,0.059,0.029,-0.059,0.029,-0.02,-0.102,-0.278,-0.264,-0.083,0.005
1.064,-0.059,-0.01,0.049,0.034,-0.054,0.02,-0.029,-0.102,-0.268,-0.259,-0.073,0.015
1.066,-0.063,-0.005,0.059,0.034,-0.063,0.024,-0.029,-0.102,-0.278,-0.259,-0.073,0.005
1.068,-0.068,-0.005,0.063,0.039,-0.068,0.029,-0.029,-0.102,-0.264,-0.249,-0.073,0.015
1.07,-0.073,-0.005,0.068,0.039,-0.073,0.029,-0.029,-0.098,-0.259,-0.239,-0.073,0.015
1.072,-0.068,-0.015,0.054,0.044,-0.063,0.02,-0.02,-0.107,-0.254,-0.249,-0.078,0.01
1.074,-0.068,-0.015,0.054,0.044,-0.063,0.02,-0.015,-0.102,-0.254,-0.249,-0.078,0.01
1.076,-0.068,-0.015,0.054,0.044,-0.063,0.02,-0.015,-0.093,-0.244,-0.249,-0.078,0.01
1.078,-0.068,-0.015,0.054,0.044,-0.063,0.02,-0.015,-0.093,-0.244,-0.249,-0.078,0.01
1.08,-0.078,-0.02,0.059,0.049,-0.068,0.02,-0.015,-0.083,-0.244,-0.239,-0.073,0.024
1.082,-0.078,-0.02,0.059,0.049,-0.068,0.02,-0.015,-0.083,-0.239,-0.234,-0.068,0.024
1.084,-0.059,-0.015,0.044,0.039,-0.054,0.015,-0.015,-0.083,-0.239,-0.234,-0.068,0.024
1.086,-0.059,-0.015,0.044,0.039,-0.054,0.015,-0.015,-0.078,-0.239,-0.234,-0.068,0.024
1.088,-0.059,-0.024,0.034,0.044,-0.049,0.005,-0.02,-0.078,-0.239,-0.244,-0.068,0.015
1.09,-0.059,-0.024,0.034,0.044,-0.049,0.005,-0.02,-0.078,-0.239,-0.244,-0.068,0.015
1.092,-0.054,-0.024,0.029,0.039,-0.044,0.0,-0.02,-0.078,-0.234,-0.244,-0.073,0.01
1.094,-0.054,-0.024,0.029,0.039,-0.044,0.0,-0.02,-0.078,-0.224,-0.244,-0.073,0.01
1.096,-0.059,-0.015,0.044,0.039,-0.054,0.015,-0.015,-0.063,-0.22,-0.244,-0.068,0.005
1.098,-0.059,-0.02,0.039,0.039,-0.049,0.01,-0.015,-0.063,-0.22,-0.244,-0.068,0.005
1.1,-0.059,-0.02,0.039,0.039,-0.049,0.01,-0.02,-0.063,-0.215,-0.239,-0.068,0.005
1.102,-0.059,-0.015,0.044,0.039,-0.054,0.015,-0.02,-0.059,-0.21,-0.239,-0.068,0.005
1.104,-0.059,-0.01,0.049,0.034,-0.054,0.02,-0.02,-0.059,-0.22,-0.239,-0.068,0.015
1.106,-0.054,-0.005,0.049,0.029,-0.054,0.02,-0.02,-0.059,-0.22,-0.239,-0.068,0.015
1.108,-0.049,-0.005,0.044,0.029,-0.049,0.02,-0.02,-0.059,-0.21,-0.234,-0.068,0.015
1.11,-0.054,-0.005,0.049,0.029,-0.054,0.02,-0.015,-0.049,-0.205,-0.234,-0.063,0.015
1.112,-0.063,-0.015,0.049,0.039,-0.059,0.015,-0.005,-0.039,-0.2,-0.224,-0.054,0.015
1.114,-0.063,-0.02,0.044,0.044,-0.054,0.01,-0.005,-0.039,-0.19,-0.22,-0.054,0.02
1.116,-0.063,-0.02,0.044,0.044,-0.054,0.01,-0.005,-0.044,-0.181,-0.215,-0.049,0.02
1.118,-0.059,-0.024,0.034,0.044,-0.049,0.005,-0.005,-0.044,-0.176,-0.21,-0.049,0.02
1.12,-0.068,-0.015,0.054,0.044,-0.063,0.02,-0.005,-0.034,-0.171,-0.21,-0.044,0.02
1.122,-0.068,-0.015,0.054,0.044,-0.063,0.02,-0.005,-0.029,-0.166,-0.21,-0.044,0.02
1.124,-0.068,-0.015,0.054,0.044,-0.063,0.02,-0.005,-0.024,-0.166,-0.21,-0.039,0.024
1.126,-0.068,-0.01,0.059,0.039,-0.063,0.024,-0.005,-0.024,-0.161,-0.21,-0.039,0.024
1.128,-0.073,-0.01,0.063,0.044,-0.068,0.024,-0.01,-0.029,-0.166,-0.205,-0.049,0.024
1.13,-0.078,-0.005,0.073,0.044,-0.078,0.034,-0.01,-0.029,-0.166,-0.205,-0.049,0.024
1.132,-0.078,-0.005,0.073,0.044,-0.078,0.034,-0.015,-0.034,-0.156,-0.205,-0.049,0.024
1.134,-0.083,-0.01,0.073,0.049,-0.078,0.029,-0.02,-0.034,-0.156,-0.205,-0.049,0.024
1.136,-0.073,-0.01,0.063,0.044,-0.068,0.024,-0.02,-0.034,-0.142,-0.205,-0.049,0.015
1.138,-0.063,-0.01,0.054,0.039,-0.059,0.02,-0.015,-0.034,-0.142,-0.205,-0.049,0.015
1.14,-0.063,-0.01,0.054,0.039,-0.059,0.02,-0.015,-0.034,-0.142,-0.195,-0.049,0.015
1.142,-0.063,-0.01,0.054,0.039,-0.059,0.02,-0.015,-0.034,-0.137,-0.185,-0.044,0.015
1.144,-0.063,-0.01,0.054,0.039,-0.059,0.02,-0.015,-0.034,-0.146,-0.185,-0.039,0.0
1.146,-0.063,-0.01,0.054,0.039,-0.059,0.02,-0.015,-0.029,-0.142,-0.19,-0.039,0.0
1.148,-0.063,-0.01,0.054,0.039,-0.059,0.02,-0.015,-0.029,-0.142,-0.195,-0.039,0.0
1.15,-0.063,-0.01,0.054,0.039,-0.059,0.02,-0.015,-0.029,-0.137,-0.195,-0.039,0.0
1.152,-0.059,0.0,0.059,0.029,-0.059,0.029,-0.024,-0.029,-0.127,-0.195,-0.049,-0.01
1.154,-0.054,0.0,0.054,0.029,-0.054,0.024,-0.029,-0.029,-0.127,-0.195,-0.049,-0.005
1.156,-0.054,0.005,0.059,0.024,-0.059,0.029,-0.029,-0.029,-0.122,-0.195,-0.049,-0.005
1.158,-0.049,0.005,0.054,0.024,-0.054,0.029,-0.029,-0.029,-0.122,-0.19,-0.044,-0.005
1.16,-0.054,-0.005,0.049,0.029,-0.054,0.02,-0.02,-0.039,-0.122,-0.195,-0.034,0.0
1.162,-0.059,-0.005,0.054,0.034,-0.059,0.024,-0.02,-0.039,-0.122,-0.195,-0.039,0.0
1.164,-0.059,0.0,0.059,0.029,-0.059,0.029,-0.02,-0.039,-0.122,-0.2,-0.039,0.005
1.166,-0.063,0.01,0.073,0.029,-0.068,0.039,-0.02,-0.049,-0.122,-0.2,-0.039,0.005
1.168,-0.034,0.02,0.054,0.01,-0.044,0.034,-0.02,-0.039,-0.122,-0.19,-0.044,-0.005
1.17,-0.044,0.02,0.063,0.015,-0.054,0.039,-0.02,-0.039,-0.122,-0.19,-0.044,-0.005
1.172,-0.059,0.01,0.068,0.024,-0.063,0.039,-0.024,-0.044,-0.122,-0.2,-0.044,-0.01
1.174,-0.063,0.01,0.073,0.029,-0.068,0.039,-0.029,-0.044,-0.122,-0.2,-0.049,-0.01
1.176,-0.059,0.015,0.073,0.024,-0.068,0.044,-0.029,-0.044,-0.112,-0.195,-0.044,0.0
1.178,-0.044,0.024,0.068,0.01,-0.059,0.044,-0.029,-0.044,-0.112,-0.19,-0.039,0.0
1.18,-0.039,0.01,0.049,0.015,-0.044,0.029,-0.029,-0.049,-0.112,-0.185,-0.034,0.0
1.182,-0.034,0.005,0.039,0.015,-0.039,0.02,-0.029,-0.049,-0.112,-0.185,-0.029,0.0
1.184,-0.044,-0.005,0.039,0.024,-0.044,0.015,-0.02,-0.049,-0.102,-0.181,-0.02,0.005
1.186,-0.044,0.0,0.044,0.024,-0.044,0.02,-0.02,-0.054,-0.102,-0.181,-0.015,0.01
1.188,-0.044,0.0,0.044,0.024,-0.044,0.02,-0.02,-0.059,-0.102,-0.185,-0.015,0.005
1.19,-0.054,0.0,0.054,0.029,-0.054,0.024,-0.02,-0.059,-0.107,-0.195,-0.024,0.01
1.192,-0.059,-0.02,0.039,0.039,-0.049,0.01,-0.029,-0.059,-0.098,-0.185,-0.024,0.015
1.194,-0.054,-0.02,0.034,0.039,-0.044,0.005,-0.029,-0.059,-0.098,-0.181,-0.02,0.015
1.196,-0.049,-0.02,0.029,0.034,-0.039,0.005,-0.029,-0.059,-0.098,-0.181,-0.02,0.02
1.198,-0.063,-0.02,0.044,0.044,-0.054,0.01,-0.029,-0.059,-0.093,-0.181,-0.02,0.02
1.2,-0.059,-0.01,0.049,0.034,-0.054,0.02,-0.029,-0.059,-0.093,-0.19,-0.029,0.015
1.202,-0.059,-0.015,0.044,0.039,-0.054,0.015,-0.034,-0.063,-0.102,-0.19,-0.029,0.005
1.204,-0.059,-0.02,0.039,0.039,-0.049,0.01,-0.034,-0.073,-0.102,-0.19,-0.029,0.0
1.206,-0.054,-0.02,0.034,0.039,-0.044,0.005,-0.029,-0.073,-0.102,-0.195,-0.029,0.0
1.208,-0.044,-0.02,0.024,0.034,-0.034,0.0,-0.029,-0.063,-0.102,-0.195,-0.029,0.0
1.21,-0.049,-0.02,0.029,0.034,-0.039,0.005,-0.029,-0.063,-0.102,-0.19,-0.029,0.0
1.212,-0.054,-0.02,0.034,0.039,-0.044,0.005,-0.029,-0.063,-0.107,-0.19,-0.029,0.0
1.214,-0.054,-0.02,0.034,0.039,-0.044,0.005,-0.034,-0.063,-0.112,-0.185,-0.034,-0.005
1.216,-0.039,-0.02,0.02,0.029,-0.029,0.0,-0.039,-0.068,-0.122,-0.2,-0.034,-0.015
1.218,-0.039,-0.02,0.02,0.029,-0.029,0.0,-0.039,-0.078,-0.117,-0.195,-0.034,-0.015
1.22,-0.039,-0.015,0.024,0.029,-0.034,0.005,-0.034,-0.088,-0.117,-0.195,-0.034,-0.01
1.222,-0.044,-0.015,0.029,0.029,-0.039,0.005,-0.034,-0.093,-0.117,-0.2,-0.029,-0.01
1.224,-0.049,-0.015,0.034,0.034,-0.044,0.01,-0.034,-0.083,-0.107,-0.2,-0.02,-0.005
1.226,-0.049,-0.015,0.034,0.034,-0.044,0.01,-0.034,-0.083,-0.117,-0.2,-0.024,-0.005
1.228,-0.049,-0.015,0.034,0.034,-0.044,0.01,-0.034,-0.083,-0.117,-0.2,-0.024,-0.005
1.23,-0.049,-0.015,0.034,0.034,-0.044,0.01,-0.034,-0.083,-0.117,-0.2,-0.02,-0.005
1.232,-0.039,-0.015,0.024,0.029,-0.034,0.005,-0.044,-0.098,-0.117,-0.2,-0.029,-0.005
1.234,-0.034,-0.02,0.015,0.029,-0.024,-0.005,-0.044,-0.098,-0.117,-0.2,-0.034,-0.01
1.236,-0.034,-0.02,0.015,0.029,-0.024,-0.005,-0.044,-0.098,-0.117,-0.2,-0.034,-0.005
1.238,-0.029,-0.02,0.01,0.024,-0.02,-0.005,-0.049,-0.098,-0.122,-0.2,-0.034,-0.005
1.24,-0.029,-0.02,0.01,0.024,-0.02,-0.005,-0.049,-0.102,-0.112,-0.205,-0.044,-0.01
1.242,-0.029,-0.02,0.01,0.024,-0.02,-0.005,-0.049,-0.102,-0.112,-0.21,-0.044,-0.01
1.244,-0.029,-0.02,0.01,0.024,-0.02,-0.005,-0.049,-0.102,-0.112,-0.215,-0.054,0.0
1.246,-0.034,-0.02,0.015,0.029,-0.024,-0.005,-0.049,-0.102,-0.112,-0.22,-0.054,-0.005
1.248,-0.024,-0.01,0.015,0.02,-0.02,0.0,-0.059,-0.102,-0.112,-0.22,-0.044,-0.01
1.25,-0.01,-0.01,0.0,0.01,-0.005,-0.005,-0.059,-0.112,-0.112,-0.224,-0.044,-0.015
1.252,-0.01,-0.01,0.0,0.01,-0.005,-0.005,-0.059,-0.117,-0.117,-0.229,-0.044,-0.02
1.254,-0.02,-0.01,0.01,0.015,-0.015,0.0,-0.059,-0.127,-0.117,-0.229,-0.044,-0.029
1.256,-0.029,-0.02,0.01,0.024,-0.02,-0.005,-0.054,-0.127,-0.127,-0.224,-0.044,-0.02
1.258,-0.029,-0.02,0.01,0.024,-0.02,-0.005,-0.054,-0.132,-0.127,-0.224,-0.044,-0.02
1.26,-0.029,-0.02,0.01,0.024,-0.02,-0.005,-0.059,-0.132,-0.127,-0.229,-0.049,-0.024
1.262,-0.034,-0.024,0.01,0.029,-0.024,-0.01,-0.059,-0.122,-0.127,-0.229,-0.049,-0.024
1.264,-0.024,-0.034,-0.01,0.029,-0.01,-0.024,-0.059,-0.122,-0.117,-0.22,-0.034,-0.005
1.266,-0.02,-0.034,-0.015,0.029,-0.005,-0.024,-0.059,-0.127,-0.122,-0.22,-0.034,-0.015
1.268,-0.02,-0.034,-0.015,0.029,-0.005,-0.024,-0.059,-0.127,-0.122,-0.22,-0.034,-0.015
1.27,-0.02,-0.034,-0.015,0.029,-0.005,-0.024,-0.059,-0.122,-0.122,-0.215,-0.034,-0.01
1.272,-0.02,-0.039,-0.02,0.029,0.0,-0.029,-0.059,-0.122,-0.112,-0.215,-0.024,-0.01
1.274,-0.02,-0.039,-0.02,0.029,0.0,-0.029,-0.059,-0.127,-0.122,-0.22,-0.029,-0.02
1.276,-0.02,-0.034,-0.015,0.029,-0.005,-0.024,-0.059,-0.127,-0.122,-0.22,-0.029,-0.02
1.278,-0.02,-0.034,-0.015,0.029,-0.005,-0.024,-0.068,-0.127,-0.122,-0.22,-0.029,-0.015
1.28,-0.029,-0.044,-0.015,0.039,-0.01,-0.029,-0.068,-0.117,-0.112,-0.22,-0.039,-0.024
1.282,-0.029,-0.049,-0.02,0.039,-0.005,-0.034,-0.063,-0.117,-0.107,-0.22,-0.039,-0.024
1.284,-0.029,-0.049,-0.02,0.039,-0.005,-0.034,-0.059,-0.117,-0.107,-0.22,-0.039,-0.02
1.286,-0.029,-0.049,-0.02,0.039,-0.005,-0.034,-0.059,-0.117,-0.107,-0.224,-0.039,-0.02
1.288,-0.029,-0.044,-0.015,0.039,-0.01,-0.029,-0.063,-0.132,-0.112,-0.229,-0.044,-0.024
1.29,-0.029,-0.044,-0.015,0.039,-0.01,-0.029,-0.063,-0.142,-0.112,-0.229,-0.044,-0.024
1.292,-0.029,-0.044,-0.015,0.039,-0.01,-0.029,-0.063,-0.142,-0.112,-0.224,-0.044,-0.02
1.294,-0.029,-0.044,-0.015,0.039,-0.01,-0.029,-0.063,-0.142,-0.112,-0.224,-0.044,-0.01
1.296,-0.02,-0.044,-0.024,0.034,0.0,-0.034,-0.063,-0.142,-0.102,-0.22,-0.034,-0.01
1.298,-0.015,-0.044,-0.029,0.029,0.005,-0.039,-0.063,-0.142,-0.102,-0.224,-0.034,-0.005
1.3,-0.015,-0.044,-0.029,0.029,0.005,-0.039,-0.068,-0.142,-0.112,-0.224,-0.034,-0.005
1.302,-0.015,-0.044,-0.029,0.029,0.005,-0.039,-0.068,-0.142,-0.112,-0.224,-0.034,-0.01
1.304,-0.02,-0.044,-0.024,0.034,0.0,-0.034,-0.068,-0.142,-0.112,-0.224,-0.044,-0.01
1.306,-0.024,-0.044,-0.02,0.034,-0.005,-0.034,-0.068,-0.142,-0.107,-0.224,-0.039,-0.005
1.308,-0.029,-0.049,-0.02,0.039,-0.005,-0.034,-0.068,-0.142,-0.107,-0.224,-0.039,-0.005
1.31,-0.034,-0.063,-0.029,0.049,-0.005,-0.049,-0.068,-0.142,-0.107,-0.22,-0.039,-0.005
1.312,-0.024,-0.054,-0.029,0.039,0.0,-0.044,-0.078,-0.132,-0.117,-0.229,-0.049,-0.015
1.314,-0.02,-0.054,-0.034,0.039,0.005,-0.044,-0.078,-0.137,-0.117,-0.229,-0.049,-0.01
1.316,-0.015,-0.049,-0.034,0.034,0.01,-0.044,-0.078,-0.137,-0.117,-0.229,-0.049,-0.01
1.318,-0.01,-0.049,-0.039,0.029,0.015,-0.044,-0.078,-0.137,-0.117,-0.229,-0.049,-0.01
1.32,-0.01,-0.044,-0.034,0.029,0.01,-0.039,-0.068,-0.137,-0.117,-0.229,-0.044,-0.005
1.322,-0.01,-0.044,-0.034,0.029,0.01,-0.039,-0.068,-0.137,-0.112,-0.229,-0.044,-0.005
1.324,-0.01,-0.039,-0.029,0.024,0.01,-0.034,-0.068,-0.137,-0.107,-0.224,-0.039,-0.015
1.326,-0.01,-0.029,-0.02,0.02,0.005,-0.024,-0.068,-0.137,-0.102,-0.224,-0.034,-0.015
1.328,-0.024,-0.044,-0.02,0.034,-0.005,-0.034,-0.068,-0.142,-0.102,-0.234,-0.044,-0.005
1.33,-0.029,-0.054,-0.024,0.044,-0.005,-0.039,-0.068,-0.142,-0.098,-0.234,-0.039,-0.005
1.332,-0.029,-0.059,-0.029,0.044,0.0,-0.044,-0.068,-0.137,-0.098,-0.234,-0.039,-0.005
1.334,-0.034,-0.059,-0.024,0.049,-0.005,-0.044,-0.068,-0.137,-0.098,-0.234,-0.039,-0.01
1.336,-0.024,-0.063,-0.039,0.044,0.005,-0.054,-0.083,-0.146,-0.102,-0.224,-0.039,-0.02
1.338,-0.024,-0.063,-0.039,0.044,0.005,-0.054,-0.083,-0.146,-0.102,-0.224,-0.039,-0.02
1.34,-0.034,-0.068,-0.034,0.054,0.0,-0.054,-0.078,-0.146,-0.102,-0.224,-0.039,-0.015
1.342,-0.034,-0.068,-0.034,0.054,0.0,-0.054,-0.078,-0.146,-0.102,-0.224,-0.039,-0.01
1.344,-0.01,-0.054,-0.044,0.034,0.015,-0.049,-0.068,-0.137,-0.093,-0.224,-0.029,-0.01
1.346,-0.005,-0.054,-0.049,0.029,0.02,-0.054,-0.073,-0.142,-0.093,-0.22,-0.029,-0.01
1.348,-0.005,-0.049,-0.044,0.029,0.02,-0.049,-0.073,-0.142,-0.093,-0.22,-0.029,-0.01
1.35,-0.005,-0.044,-0.039,0.024,0.015,-0.044,-0.068,-0.151,-0.093,-0.22,-0.029,-0.01
1.352,-0.015,-0.054,-0.039,0.034,0.01,-0.049,-0.068,-0.142,-0.083,-0.21,-0.02,0.0
1.354,-0.015,-0.059,-0.044,0.039,0.015,-0.054,-0.068,-0.137,-0.083,-0.21,-0.015,0.0
1.356,-0.01,-0.068,-0.059,0.039,0.024,-0.063,-0.068,-0.137,-0.083,-0.21,-0.015,0.0
1.358,-0.01,-0.078,-0.068,0.044,0.029,-0.073,-0.068,-0.137,-0.083,-0.21,-0.015,-0.01
1.36,-0.02,-0.093,-0.073,0.059,0.024,-0.083,-0.068,-0.127,-0.083,-0.22,-0.015,-0.005
1.362,-0.029,-0.078,-0.049,0.054,0.01,-0.063,-0.078,-0.137,-0.088,-0.215,-0.02,-0.01
1.364,-0.029,-0.068,-0.039,0.049,0.005,-0.054,-0.068,-0.137,-0.088,-0.224,-0.029,-0.02
1.366,-0.029,-0.068,-0.039,0.049,0.005,-0.054,-0.068,-0.137,-0.088,-0.224,-0.029,-0.02
1.368,-0.029,-0.068,-0.039,0.049,0.005,-0.054,-0.068,-0.137,-0.088,-0.224,-0.029,-0.02
1.37,-0.029,-0.068,-0.039,0.049,0.005,-0.054,-0.068,-0.137,-0.088,-0.224,-0.029,-0.02
1.372,-0.02,-0.068,-0.049,0.044,0.015,-0.059,-0.073,-0.146,-0.078,-0.215,-0.024,-0.029
1.374,-0.02,-0.068,-0.049,0.044,0.015,-0.059,-0.078,-0.146,-0.078,-0.215,-0.02,-0.029
1.376,-0.02,-0.068,-0.049,0.044,0.015,-0.059,-0.083,-0.146,-0.078,-0.215,-0.015,-0.029
1.378,-0.02,-0.068,-0.049,0.044,0.015,-0.059,-0.088,-0.146,-0.078,-0.215,-0.01,-0.029
1.38,-0.01,-0.068,-0.059,0.039,0.024,-0.063,-0.088,-0.146,-0.078,-0.215,-0.01,-0.02
1.382,-0.01,-0.068,-0.059,0.039,0.024,-0.063,-0.088,-0.146,-0.078,-0.215,-0.01,-0.02
1.384,-0.01,-0.068,-0.059,0.039,0.024,-0.063,-0.088,-0.146,-0.078,-0.215,-0.01,-0.02
1.386,-0.01,-0.068,-0.059,0.039,0.024,-0.063,-0.088,-0.146,-0.078,-0.215,-0.01,-0.02
1.388,-0.01,-0.068,-0.059,0.039,0.024,-0.063,-0.088,-0.142,-0.068,-0.205,0.0,-0.02
1.39,-0.01,-0.068,-0.059,0.039,0.024,-0.063,-0.088,-0.137,-0.068,-0.205,0.0,-0.02
1.392,-0.01,-0.068,-0.059,0.039,0.024,-0.063,-0.088,-0.132,-0.068,-0.205,0.0,-0.02
1.394,-0.01,-0.068,-0.059,0.039,0.024,-0.063,-0.088,-0.127,-0.068,-0.205,0.0,-0.02
1.396,-0.02,-0.078,-0.059,0.049,0.02,-0.068,-0.088,-0.137,-0.078,-0.215,-0.01,-0.024
1.398,-0.02,-0.078,-0.059,0.049,0.02,-0.068,-0.088,-0.137,-0.078,-0.215,-0.01,-0.029
1.4,-0.02,-0.078,-0.059,0.049,0.02,-0.068,-0.088,-0.137,-0.078,-0.215,-0.01,-0.034
1.402,-0.02,-0.078,-0.059,0.049,0.02,-0.068,-0.088,-0.137,-0.078,-0.215,-0.01,-0.039
1.404,-0.015,-0.068,-0.054,0.044,0.02,-0.063,-0.088,-0.137,-0.068,-0.215,0.0,-0.029
1.406,-0.01,-0.068,-0.059,0.039,0.024,-0.063,-0.088,-0.137,-0.068,-0.215,0.0,-0.029
1.408,-0.005,-0.068,-0.063,0.039,0.029,-0.068,-0.088,-0.137,-0.068,-0.215,0.0,-0.029
1.41,0.0,-0.068,-0.068,0.034,0.034,-0.068,-0.088,-0.137,-0.068,-0.215,0.0,-0.029
1.412,0.0,-0.083,-0.083,0.044,0.039,-0.083,-0.088,-0.146,-0.068,-0.215,-0.01,-0.039
1.414,0.0,-0.088,-0.088,0.044,0.044,-0.088,-0.088,-0.146,-0.068,-0.215,-0.01,-0.039
1.416,0.0,-0.093,-0.093,0.049,0.044,-0.093,-0.088,-0.146,-0.068,-0.215,-0.01,-0.039
1.418,0.0,-0.098,-0.098,0.049,0.049,-0.098,-0.088,-0.146,-0.068,-0.215,-0.01,-0.039
1.42,-0.01,-0.093,-0.083,0.054,0.034,-0.088,-0.078,-0.146,-0.068,-0.205,0.0,-0.029
1.422,-0.01,-0.088,-0.078,0.049,0.034,-0.083,-0.078,-0.146,-0.068,-0.205,0.0,-0.029
1.424,-0.01,-0.083,-0.073,0.049,0.029,-0.078,-0.078,-0.146,-0.068,-0.205,0.0,-0.029
1.426,-0.01,-0.078,-0.068,0.044,0.029,-0.073,-0.078,-0.146,-0.068,-0.205,0.0,-0.029
1.428,0.0,-0.068,-0.068,0.034,0.034,-0.068,-0.078,-0.137,-0.059,-0.195,0.01,-0.02
1.43,0.0,-0.068,-0.068,0.034,0.034,-0.068,-0.078,-0.137,-0.059,-0.195,0.01,-0.02
1.432,0.0,-0.068,-0.068,0.034,0.034,-0.068,-0.078,-0.137,-0.059,-0.195,0.01,-0.02
1.434,0.0,-0.068,-0.068,0.034,0.034,-0.068,-0.078,-0.137,-0.059,-0.195,0.01,-0.02
1.436,0.0,-0.068,-0.068,0.034,0.034,-0.068,-0.083,-0.146,-0.068,-0.205,0.0,-0.029
1.438,0.0,-0.068,-0.068,0.034,0.034,-0.068,-0.088,-0.146,-0.068,-0.205,0.0,-0.029
1.44,0.0,-0.068,-0.068,0.034,0.034,-0.068,-0.093,-0.146,-0.068,-0.205,0.0,-0.029
1.442,0.0,-0.068,-0.068,0.034,0.034,-0.068,-0.098,-0.146,-0.068,-0.205,0.0,-0.029
1.444,0.0,-0.059,-0.059,0.029,0.029,-0.059,-0.098,-0.146,-0.059,-0.195,0.01,-0.029
1.446,0.0,-0.059,-0.059,0.029,0.029,-0.059,-0.098,-0.146,-0.059,-0.195,0.01,-0.029
1.448,0.0,-0.059,-0.059,0.029,0.029,-0.059,-0.098,-0.146,-0.059,-0.195,0.01,-0.029
1.45,0.0,-0.059,-0.059,0.029,0.029,-0.059,-0.098,-0.146,-0.059,-0.195,0.01,-0.029
1.452,0.0,-0.068,-0.068,0.034,0.034,-0.068,-0.098,-0.146,-0.068,-0.205,0.0,-0.039
1.454,0.0,-0.068,-0.068,0.034,0.034,-0.068,-0.098,-0.146,-0.068,-0.205,0.0,-0.039
1.456,0.0,-0.068,-0.068,0.034,0.034,-0.068,-0.098,-0.146,-0.068,-0.205,0.0,-0.039
1.458,0.0,-0.068,-0.068,0.034,0.034,-0.068,-0.098,-0.146,-0.068,-0.205,0.0,-0.039
1.46,0.0,-0.059,-0.059,0.029,0.029,-0.059,-0.088,-0.137,-0.059,-0.195,0.0,-0.039
1.462,0.0,-0.059,-0.059,0.029,0.029,-0.059,-0.088,-0.137,-0.059,-0.195,0.0,-0.039
1.464,0.0,-0.059,-0.059,0.029,0.029,-0.059,-0.088,-0.137,-0.059,-0.195,0.0,-0.039
1.466,0.0,-0.059,-0.059,0.029,0.029,-0.059,-0.088,-0.137,-0.059,-0.195,0.0,-0.039
1.468,0.005,-0.059,-0.063,0.029,0.034,-0.063,-0.088,-0.137,-0.049,-0.185,0.01,-0.029
1.47,0.01,-0.059,-0.068,0.024,0.039,-0.063,-0.088,-0.137,-0.049,-0.185,0.01,-0.029
1.472,0.015,-0.059,-0.073,0.024,0.044,-0.068,-0.088,-0.137,-0.049,-0.185,0.01,-0.029
1.474,0.02,-0.059,-0.078,0.02,0.049,-0.068,-0.088,-0.137,-0.049,-0.185,0.01,-0.029
1.476,0.02,-0.059,-0.078,0.02,0.049,-0.068,-0.088,-0.137,-0.039,-0.176,0.02,-0.029
1.478,0.02,-0.059,-0.078,0.02,0.049,-0.068,-0.088,-0.137,-0.039,-0.176,0.02,-0.029
1.48,0.02,-0.059,-0.078,0.02,0.049,-0.068,-0.088,-0.137,-0.039,-0.176,0.02,-0.029
1.482,0.02,-0.059,-0.078,0.02,0.049,-0.068,-0.088,-0.137,-0.039,-0.176,0.02,-0.029
1.484,0.01,-0.059,-0.068,0.024,0.039,-0.063,-0.088,-0.137,-0.039,-0.185,0.01,-0.029
1.486,0.01,-0.059,-0.068,0.024,0.039,-0.063,-0.088,-0.137,-0.039,-0.185,0.01,-0.029
1.488,0.01,-0.059,-0.068,0.024,0.039,-0.063,-0.088,-0.137,-0.039,-0.185,0.01,-0.029
1.49,0.01,-0.059,-0.068,0.024,0.039,-0.063,-0.088,-0.137,-0.039,-0.185,0.01,-0.029
1.492,0.02,-0.068,-0.088,0.024,0.054,-0.078,-0.088,-0.137,-0.039,-0.176,0.02,-0.029
1.494,0.02,-0.068,-0.088,0.024,0.054,-0.078,-0.088,-0.137,-0.039,-0.176,0.02,-0.029
1.496,0.02,-0.068,-0.088,0.024,0.054,-0.078,-0.088,-0.137,-0.039,-0.176,0.02,-0.029
1.498,0.02,-0.068,-0.088,0.024,0.054,-0.078,-0.088,-0.137,-0.039,-0.176,0.02,-0.029
1.5,0.02,-0.059,-0.078,0.02,0.049,-0.068,-0.078,-0.127,-0.029,-0.166,0.01,-0.039
1.502,0.02,-0.059,-0.078,0.02,0.049,-0.068,-0.078,-0.127,-0.029,-0.166,0.01,-0.039
1.504,0.02,-0.059,-0.078,0.02,0.049,-0.068,-0.078,-0.127,-0.029,-0.166,0.01,-0.039
1.506,0.02,-0.059,-0.078,0.02,0.049,-0.068,-0.078,-0.127,-0.029,-0.166,0.01,-0.039
1.508,0.02,-0.068,-0.088,0.024,0.054,-0.078,-0.088,-0.127,-0.02,-0.166,0.02,-0.039
1.51,0.02,-0.068,-0.088,0.024,0.054,-0.078,-0.088,-0.127,-0.02,-0.166,0.02,-0.039
1.512,0.02,-0.068,-0.088,0.024,0.054,-0.078,-0.088,-0.127,-0.02,-0.166,0.02,-0.039
1.514,0.02,-0.068,-0.088,0.024,0.054,-0.078,-0.088,-0.127,-0.02,-0.166,0.02,-0.039
1.516,0.02,-0.078,-0.098,0.029,0.059,-0.088,-0.088,-0.137,-0.029,-0.166,0.029,-0.039
1.518,0.02,-0.078,-0.098,0.029,0.059,-0.088,-0.088,-0.137,-0.029,-0.166,0.029,-0.039
1.52,0.02,-0.078,-0.098,0.029,0.059,-0.088,-0.088,-0.137,-0.029,-0.166,0.029,-0.039
1.522,0.02,-0.078,-0.098,0.029,0.059,-0.088,-0.088,-0.137,-0.029,-0.166,0.029,-0.039
1.524,0.01,-0.078,-0.088,0.034,0.049,-0.083,-0.088,-0.137,-0.02,-0.166,0.029,-0.029
1.526,0.01,-0.078,-0.088,0.034,0.049,-0.083,-0.088,-0.137,-0.02,-0.166,0.029,-0.029
1.528,0.01,-0.078,-0.088,0.034,0.049,-0.083,-0.088,-0.137,-0.02,-0.166,0.029,-0.029
1.53,0.01,-0.078,-0.088,0.034,0.049,-0.083,-0.088,-0.137,-0.02,-0.166,0.029,-0.029
1.532,0.02,-0.068,-0.088,0.024,0.054,-0.078,-0.078,-0.127,-0.01,-0.156,0.039,-0.02
1.534,0.02,-0.068,-0.088,0.024,0.054,-0.078,-0.078,-0.127,-0.01,-0.156,0.039,-0.02
1.536,0.02,-0.068,-0.088,0.024,0.054,-0.078,-0.078,-0.127,-0.01,-0.156,0.039,-0.02
1.538,0.02,-0.068,-0.088,0.024,0.054,-0.078,-0.078,-0.127,-0.01,-0.156,0.039,-0.02
1.54,0.029,-0.068,-0.098,0.02,0.063,-0.083,-0.078,-0.127,-0.01,-0.166,0.029,-0.029
1.542,0.029,-0.068,-0.098,0.02,0.063,-0.083,-0.078,-0.127,-0.01,-0.166,0.029,-0.029
1.544,0.029,-0.068,-0.098,0.02,0.063,-0.083,-0.078,-0.127,-0.01,-0.166,0.029,-0.029
1.546,0.029,-0.068,-0.098,0.02,0.063,-0.083,-0.078,-0.127,-0.01,-0.166,0.029,-0.029
1.548,0.024,-0.078,-0.102,0.029,0.063,-0.093,-0.078,-0.127,-0.02,-0.166,0.029,-0.029
1.55,0.02,-0.078,-0.098,0.029,0.059,-0.088,-0.078,-0.127,-0.02,-0.166,0.029,-0.029
1.552,0.015,-0.078,-0.093,0.034,0.054,-0.088,-0.078,-0.127,-0.02,-0.166,0.029,-0.029
1.554,0.01,-0.078,-0.088,0.034,0.049,-0.083,-0.078,-0.127,-0.02,-0.166,0.029,-0.029
1.556,0.015,-0.068,-0.083,0.029,0.049,-0.078,-0.078,-0.127,-0.02,-0.156,0.029,-0.039
1.558,0.02,-0.068,-0.088,0.024,0.054,-0.078,-0.078,-0.127,-0.02,-0.156,0.029,-0.039
1.56,0.024,-0.068,-0.093,0.024,0.059,-0.083,-0.078,-0.127,-0.02,-0.156,0.029,-0.039
1.562,0.029,-0.068,-0.098,0.02,0.063,-0.083,-0.078,-0.127,-0.02,-0.156,0.029,-0.039
1.564,0.02,-0.068,-0.088,0.024,0.054,-0.078,-0.078,-0.137,-0.02,-0.156,0.029,-0.029
1.566,0.02,-0.068,-0.088,0.024,0.054,-0.078,-0.078,-0.137,-0.02,-0.156,0.029,-0.029
1.568,0.02,-0.068,-0.088,0.024,0.054,-0.078,-0.078,-0.137,-0.02,-0.156,0.029,-0.029
1.57,0.02,-0.068,-0.088,0.024,0.054,-0.078,-0.078,-0.137,-0.02,-0.156,0.029,-0.029
1.572,0.029,-0.068,-0.098,0.02,0.063,-0.083,-0.088,-0.127,-0.01,-0.146,0.02,-0.029
1.574,0.029,-0.068,-0.098,0.02,0.063,-0.083,-0.088,-0.127,-0.01,-0.146,0.02,-0.029
1.576,0.029,-0.068,-0.098,0.02,0.063,-0.083,-0.088,-0.127,-0.01,-0.146,0.02,-0.029
1.578,0.029,-0.068,-0.098,0.02,0.063,-0.083,-0.088,-0.127,-0.01,-0.146,0.02,-0.029
1.58,0.039,-0.068,-0.107,0.015,0.073,-0.088,-0.083,-0.117,-0.005,-0.137,0.024,-0.02
1.582,0.039,-0.068,-0.107,0.015,0.073,-0.088,-0.078,-0.117,0.0,-0.137,0.029,-0.02
1.584,0.039,-0.068,-0.107,0.015,0.073,-0.088,-0.073,-0.117,0.005,-0.137,0.034,-0.02
1.586,0.039,-0.068,-0.107,0.015,0.073,-0.088,-0.068,-0.117,0.01,-0.137,0.039,-0.02
1.588,0.029,-0.068,-0.098,0.02,0.063,-0.083,-0.068,-0.127,0.0,-0.146,0.029,-0.02
1.59,0.029,-0.068,-0.098,0.02,0.063,-0.083,-0.068,-0.127,0.0,-0.146,0.029,-0.02
1.592,0.029,-0.068,-0.098,0.02,0.063,-0.083,-0.068,-0.127,0.0,-0.146,0.029,-0.02
1.594,0.029,-0.068,-0.098,0.02,0.063,-0.083,-0.068,-0.127,0.0,-0.146,0.029,-0.02
1.596,0.029,-0.068,-0.098,0.02,0.063,-0.083,-0.068,-0.127,0.0,-0.137,0.029,-0.029
1.598,0.029,-0.068,-0.098,0.02,0.063,-0.083,-0.068,-0.127,0.0,-0.137,0.029,-0.029
1.6,0.029,-0.068,-0.098,0.02,0.063,-0.083,-0.068,-0.127,0.0,-0.137,0.029,-0.029
1.602,0.029,-0.068,-0.098,0.02,0.063,-0.083,-0.068,-0.127,0.0,-0.137,0.029,-0.029
1.604,0.029,-0.078,-0.107,0.024,0.068,-0.093,-0.078,-0.127,0.0,-0.146,0.02,-0.029
1.606,0.029,-0.078,-0.107,0.024,0.068,-0.093,-0.078,-0.127,0.0,-0.146,0.02,-0.029
1.608,0.029,-0.078,-0.107,0.024,0.068,-0.093,-0.078,-0.127,0.0,-0.146,0.02,-0.029
1.61,0.029,-0.078,-0.107,0.024,0.068,-0.093,-0.078,-0.127,0.0,-0.146,0.02,-0.029
1.612,0.039,-0.073,-0.112,0.02,0.073,-0.093,-0.068,-0.117,0.0,-0.146,0.029,-0.029
1.614,0.039,-0.068,-0.107,0.015,0.073,-0.088,-0.068,-0.117,0.0,-0.146,0.029,-0.029
1.616,0.039,-0.063,-0.102,0.015,0.068,-0.083,-0.068,-0.117,0.0,-0.146,0.029,-0.029
1.618,0.039,-0.059,-0.098,0.01,0.068,-0.078,-0.068,-0.117,0.0,-0.146,0.029,-0.029
1.62,0.029,-0.059,-0.088,0.015,0.059,-0.073,-0.068,-0.127,0.0,-0.146,0.02,-0.029
1.622,0.029,-0.059,-0.088,0.015,0.059,-0.073,-0.068,-0.127,0.0,-0.146,0.02,-0.029
1.624,0.029,-0.059,-0.088,0.015,0.059,-0.073,-0.068,-0.127,0.0,-0.146,0.02,-0.029
1.626,0.029,-0.059,-0.088,0.015,0.059,-0.073,-0.068,-0.127,0.0,-0.146,0.02,-0.029
1.628,0.029,-0.059,-0.088,0.015,0.059,-0.073,-0.078,-0.117,0.01,-0.137,0.02,-0.039
1.63,0.029,-0.059,-0.088,0.015,0.059,-0.073,-0.078,-0.117,0.01,-0.137,0.02,-0.039
1.632,0.029,-0.059,-0.088,0.015,0.059,-0.073,-0.078,-0.117,0.01,-0.137,0.02,-0.039
1.634,0.029,-0.059,-0.088,0.015,0.059,-0.073,-0.078,-0.117,0.01,-0.137,0.02,-0.039
1.636,0.039,-0.059,-0.098,0.01,0.068,-0.078,-0.078,-0.127,0.01,-0.137,0.02,-0.039
1.638,0.039,-0.059,-0.098,0.01,0.068,-0.078,-0.078,-0.127,0.01,-0.137,0.02,-0.039
1.64,0.039,-0.059,-0.098,0.01,0.068,-0.078,-0.078,-0.127,0.01,-0.137,0.02,-0.039
1.642,0.039,-0.059,-0.098,0.01,0.068,-0.078,-0.078,-0.127,0.01,-0.137,0.02,-0.039
1.644,0.039,-0.059,-0.098,0.01,0.068,-0.078,-0.078,-0.127,0.02,-0.137,0.01,-0.039
1.646,0.039,-0.059,-0.098,0.01,0.068,-0.078,-0.078,-0.127,0.02,-0.137,0.01,-0.039
1.648,0.039,-0.059,-0.098,0.01,0.068,-0.078,-0.078,-0.127,0.02,-0.137,0.01,-0.039
1.65,0.039,-0.059,-0.098,0.01,0.068,-0.078,-0.078,-0.127,0.02,-0.137,0.01,-0.039
1.652,0.039,-0.054,-0.093,0.01,0.063,-0.073,-0.073,-0.117,0.02,-0.132,0.02,-0.029
1.654,0.039,-0.049,-0.088,0.005,0.063,-0.068,-0.068,-0.117,0.02,-0.127,0.02,-0.029
1.656,0.039,-0.044,-0.083,0.005,0.059,-0.063,-0.063,-0.117,0.02,-0.122,0.02,-0.029
1.658,0.039,-0.039,-0.078,0.0,0.059,-0.059,-0.059,-0.117,0.02,-0.117,0.02,-0.029
1.66,0.039,-0.029,-0.068,-0.005,0.054,-0.049,-0.068,-0.127,0.02,-0.127,0.01,-0.029
1.662,0.039,-0.029,-0.068,-0.005,0.054,-0.049,-0.068,-0.127,0.02,-0.127,0.01,-0.029
1.664,0.039,-0.029,-0.068,-0.005,0.054,-0.049,-0.068,-0.127,0.02,-0.127,0.01,-0.029
1.666,0.039,-0.029,-0.068,-0.005,0.054,-0.049,-0.068,-0.127,0.02,-0.127,0.01,-0.029
1.668,0.039,-0.034,-0.073,0.0,0.054,-0.054,-0.068,-0.117,0.029,-0.117,0.01,-0.029
1.67,0.039,-0.039,-0.078,0.0,0.059,-0.059,-0.068,-0.117,0.029,-0.117,0.01,-0.029
1.672,0.039,-0.044,-0.083,0.005,0.059,-0.063,-0.068,-0.117,0.029,-0.117,0.01,-0.029
1.674,0.039,-0.049,-0.088,0.005,0.063,-0.068,-0.068,-0.117,0.029,-0.117,0.01,-0.029
1.676,0.039,-0.039,-0.078,0.0,0.059,-0.059,-0.068,-0.117,0.029,-0.117,0.02,-0.02
1.678,0.039,-0.039,-0.078,0.0,0.059,-0.059,-0.068,-0.117,0.029,-0.117,0.02,-0.02
1.68,0.039,-0.039,-0.078,0.0,0.059,-0.059,-0.068,-0.117,0.029,-0.117,0.02,-0.02
1.682,0.039,-0.039,-0.078,0.0,0.059,-0.059,-0.068,-0.117,0.029,-0.117,0.02,-0.02
1.684,0.039,-0.044,-0.083,0.005,0.059,-0.063,-0.068,-0.127,0.02,-0.127,0.01,-0.02
1.686,0.039,-0.049,-0.088,0.005,0.063,-0.068,-0.068,-0.127,0.02,-0.127,0.01,-0.02
1.688,0.039,-0.054,-0.093,0.01,0.063,-0.073,-0.068,-0.127,0.02,-0.127,0.01,-0.02
1.69,0.039,-0.059,-0.098,0.01,0.068,-0.078,-0.068,-0.127,0.02,-0.127,0.01,-0.02
1.692,0.039,-0.059,-0.098,0.01,0.068,-0.078,-0.059,-0.122,0.024,-0.122,0.02,-0.01
1.694,0.039,-0.059,-0.098,0.01,0.068,-0.078,-0.059,-0.117,0.029,-0.117,0.02,-0.01
1.696,0.039,-0.059,-0.098,0.01,0.068,-0.078,-0.059,-0.112,0.034,-0.112,0.02,-0.01
1.698,0.039,-0.059,-0.098,0.01,0.068,-0.078,-0.059,-0.107,0.039,-0.107,0.02,-0.01
1.7,0.049,-0.049,-0.098,0.0,0.073,-0.073,-0.068,-0.117,0.029,-0.117,0.01,-0.02
1.702,0.049,-0.049,-0.098,0.0,0.073,-0.073,-0.068,-0.117,0.029,-0.117,0.01,-0.02
1.704,0.049,-0.049,-0.098,0.0,0.073,-0.073,-0.068,-0.117,0.029,-0.117,0.01,-0.02
1.706,0.049,-0.049,-0.098,0.0,0.073,-0.073,-0.068,-0.117,0.029,-0.117,0.01,-0.02
1.708,0.049,-0.049,-0.098,0.0,0.073,-0.073,-0.068,-0.107,0.039,-0.112,0.01,-0.01
1.71,0.049,-0.049,-0.098,0.0,0.073,-0.073,-0.068,-0.107,0.039,-0.107,0.01,-0.01
1.712,0.049,-0.049,-0.098,0.0,0.073,-0.073,-0.068,-0.107,0.039,-0.102,0.01,-0.01
1.714,0.049,-0.049,-0.098,0.0,0.073,-0.073,-0.068,-0.107,0.039,-0.098,0.01,-0.01
1.716,0.049,-0.059,-0.107,0.005,0.078,-0.083,-0.059,-0.117,0.039,-0.098,0.01,-0.015
1.718,0.049,-0.059,-0.107,0.005,0.078,-0.083,-0.059,-0.117,0.039,-0.098,0.01,-0.02
1.72,0.049,-0.059,-0.107,0.005,0.078,-0.083,-0.059,-0.117,0.039,-0.098,0.01,-0.024
1.722,0.049,-0.059,-0.107,0.005,0.078,-0.083,-0.059,-0.117,0.039,-0.098,0.01,-0.029
1.724,0.059,-0.049,-0.107,-0.005,0.083,-0.078,-0.059,-0.107,0.049,-0.088,0.02,-0.024
1.726,0.059,-0.049,-0.107,-0.005,0.083,-0.078,-0.059,-0.107,0.049,-0.088,0.02,-0.02
1.728,0.059,-0.049,-0.107,-0.005,0.083,-0.078,-0.059,-0.107,0.049,-0.088,0.02,-0.015
1.73,0.059,-0.049,-0.107,-0.005,0.083,-0.078,-0.059,-0.107,0.049,-0.088,0.02,-0.01
1.732,0.059,-0.059,-0.117,0.0,0.088,-0.088,-0.059,-0.117,0.049,-0.098,0.01,-0.02
1.734,0.059,-0.059,-0.117,0.0,0.088,-0.088,-0.059,-0.117,0.049,-0.098,0.01,-0.02
1.736,0.059,-0.059,-0.117,0.0,0.088,-0.088,-0.059,-0.117,0.049,-0.098,0.01,-0.02
1.738,0.059,-0.059,-0.117,0.0,0.088,-0.088,-0.059,-0.117,0.049,-0.098,0.01,-0.02
1.74,0.059,-0.068,-0.127,0.005,0.093,-0.098,-0.059,-0.107,0.049,-0.088,0.02,-0.01
1.742,0.059,-0.068,-0.127,0.005,0.093,-0.098,-0.059,-0.107,0.049,-0.088,0.02,-0.01
1.744,0.059,-0.068,-0.127,0.005,0.093,-0.098,-0.059,-0.107,0.049,-0.088,0.02,-0.01
1.746,0.059,-0.068,-0.127,0.005,0.093,-0.098,-0.059,-0.107,0.049,-0.088,0.02,-0.01
1.748,0.068,-0.068,-0.137,0.0,0.102,-0.102,-0.049,-0.107,0.049,-0.088,0.02,-0.02
1.75,0.068,-0.063,-0.132,0.0,0.098,-0.098,-0.049,-0.107,0.049,-0.088,0.02,-0.02
1.752,0.068,-0.063,-0.132,0.0,0.098,-0.098,-0.049,-0.107,0.054,-0.088,0.02,-0.02
1.754,0.068,-0.073,-0.142,0.005,0.102,-0.107,-0.044,-0.107,0.054,-0.088,0.02,-0.02
1.756,0.054,-0.068,-0.122,0.01,0.088,-0.098,-0.054,-0.098,0.059,-0.078,0.02,-0.01
1.758,0.049,-0.059,-0.107,0.005,0.078,-0.083,-0.054,-0.098,0.063,-0.073,0.02,-0.01
1.76,0.049,-0.054,-0.102,0.005,0.073,-0.078,-0.054,-0.098,0.068,-0.073,0.024,-0.01
1.762,0.044,-0.054,-0.098,0.005,0.068,-0.078,-0.054,-0.098,0.078,-0.078,0.024,-0.005
1.764,0.049,-0.059,-0.107,0.005,0.078,-0.083,-0.063,-0.107,0.073,-0.078,0.024,-0.005
1.766,0.049,-0.063,-0.112,0.01,0.078,-0.088,-0.063,-0.107,0.068,-0.078,0.024,-0.01
1.768,0.054,-0.073,-0.127,0.01,0.088,-0.102,-0.059,-0.107,0.059,-0.078,0.024,-0.01
1.77,0.054,-0.078,-0.132,0.015,0.093,-0.107,-0.059,-0.107,0.049,-0.078,0.024,-0.01
1.772,0.049,-0.088,-0.137,0.02,0.093,-0.112,-0.054,-0.098,0.054,-0.068,0.024,-0.01
1.774,0.049,-0.088,-0.137,0.02,0.093,-0.112,-0.049,-0.098,0.059,-0.063,0.024,-0.01
1.776,0.054,-0.088,-0.142,0.02,0.098,-0.117,-0.049,-0.098,0.063,-0.063,0.024,-0.01
1.778,0.059,-0.083,-0.142,0.015,0.098,-0.112,-0.044,-0.098,0.073,-0.063,0.024,-0.01
1.78,0.059,-0.063,-0.122,0.005,0.088,-0.093,-0.054,-0.102,0.073,-0.063,0.024,-0.01
1.782,0.059,-0.063,-0.122,0.005,0.088,-0.093,-0.044,-0.098,0.073,-0.063,0.034,-0.005
1.784,0.059,-0.063,-0.122,0.005,0.088,-0.093,-0.044,-0.093,0.078,-0.059,0.034,-0.005
1.786,0.063,-0.059,-0.122,0.0,0.093,-0.093,-0.044,-0.093,0.083,-0.059,0.034,0.0
1.788,0.063,-0.049,-0.112,-0.005,0.088,-0.083,-0.034,-0.083,0.083,-0.044,0.039,0.0
1.79,0.068,-0.044,-0.112,-0.01,0.088,-0.078,-0.034,-0.083,0.088,-0.044,0.039,0.0
1.792,0.068,-0.034,-0.102,-0.015,0.083,-0.068,-0.024,-0.078,0.098,-0.044,0.039,0.005
1.794,0.068,-0.02,-0.088,-0.024,0.078,-0.054,-0.024,-0.068,0.102,-0.029,0.049,0.015
1.796,0.073,-0.02,-0.093,-0.024,0.083,-0.059,-0.02,-0.073,0.098,-0.024,0.054,0.015
1.798,0.068,-0.015,-0.083,-0.024,0.073,-0.049,-0.02,-0.068,0.102,-0.02,0.054,0.015
1.8,0.063,0.005,-0.059,-0.034,0.059,-0.029,-0.02,-0.063,0.102,-0.02,0.054,0.02
1.802,0.059,0.01,-0.049,-0.034,0.054,-0.02,-0.01,-0.059,0.112,-0.015,0.054,0.024
1.804,0.059,0.02,-0.039,-0.039,0.049,-0.01,-0.015,-0.044,0.107,-0.015,0.054,0.029
1.806,0.059,0.029,-0.029,-0.044,0.044,0.0,-0.01,-0.044,0.112,-0.005,0.054,0.029
1.808,0.063,0.044,-0.02,-0.054,0.039,0.01,0.005,-0.044,0.112,-0.005,0.054,0.029
1.81,0.063,0.044,-0.02,-0.054,0.039,0.01,0.02,-0.044,0.107,-0.005,0.054,0.029
1.812,0.054,0.054,0.0,-0.054,0.024,0.024,0.02,-0.044,0.112,-0.005,0.063,0.029
1.814,0.054,0.054,0.0,-0.054,0.024,0.024,0.02,-0.034,0.122,-0.005,0.068,0.029
1.816,0.054,0.059,0.005,-0.054,0.024,0.029,0.024,-0.029,0.127,-0.005,0.068,0.029
1.818,0.059,0.059,0.0,-0.059,0.029,0.029,0.024,-0.024,0.132,0.0,0.068,0.034
1.82,0.059,0.063,0.005,-0.059,0.024,0.034,0.034,-0.02,0.142,0.02,0.083,0.039
1.822,0.059,0.073,0.015,-0.063,0.02,0.044,0.049,0.0,0.161,0.034,0.093,0.049
1.824,0.059,0.088,0.029,-0.073,0.015,0.059,0.049,0.015,0.176,0.044,0.102,0.054
1.826,0.073,0.098,0.024,-0.083,0.024,0.059,0.049,0.015,0.181,0.049,0.112,0.068
1.828,0.073,0.098,0.024,-0.083,0.024,0.059,0.024,0.0,0.181,0.054,0.112,0.068
1.83,0.068,0.098,0.029,-0.083,0.02,0.063,0.01,-0.01,0.176,0.054,0.117,0.073
1.832,0.063,0.093,0.029,-0.078,0.015,0.059,-0.02,-0.024,0.171,0.049,0.117,0.078
1.834,0.054,0.093,0.039,-0.073,0.005,0.063,-0.044,-0.044,0.171,0.049,0.117,0.083
1.836,0.054,0.093,0.039,-0.073,0.005,0.063,-0.054,-0.059,0.156,0.044,0.127,0.093
1.838,0.054,0.088,0.034,-0.068,0.01,0.059,-0.068,-0.073,0.142,0.039,0.127,0.093
1.84,0.054,0.083,0.029,-0.068,0.01,0.054,-0.078,-0.098,0.127,0.034,0.117,0.093
1.842,0.073,0.083,0.01,-0.078,0.029,0.044,-0.093,-0.107,0.117,0.02,0.117,0.093
1.844,0.083,0.073,-0.01,-0.078,0.044,0.029,-0.098,-0.117,0.112,0.029,0.117,0.093
1.846,0.088,0.063,-0.024,-0.073,0.054,0.02,-0.102,-0.117,0.112,0.024,0.117,0.093
1.848,0.088,0.054,-0.034,-0.068,0.059,0.01,-0.102,-0.122,0.117,0.02,0.112,0.093
1.85,0.088,0.039,-0.049,-0.063,0.068,-0.005,-0.098,-0.117,0.117,0.02,0.112,0.093
1.852,0.088,0.049,-0.039,-0.068,0.063,0.005,-0.098,-0.122,0.107,0.02,0.107,0.083
1.854,0.088,0.044,-0.044,-0.063,0.063,0.0,-0.098,-0.122,0.107,0.015,0.102,0.078
1.856,0.088,0.029,-0.059,-0.059,0.073,-0.015,-0.102,-0.122,0.098,0.015,0.088,0.068
1.858,0.083,0.01,-0.073,-0.044,0.078,-0.034,-0.107,-0.132,0.093,0.005,0.073,0.054
1.86,0.078,-0.005,-0.083,-0.034,0.078,-0.044,-0.102,-0.127,0.098,-0.01,0.068,0.044
1.862,0.054,-0.02,-0.073,-0.015,0.063,-0.049,-0.093,-0.132,0.088,-0.02,0.059,0.034
1.864,0.039,-0.024,-0.063,-0.005,0.049,-0.044,-0.078,-0.132,0.083,-0.024,0.049,0.024
1.866,0.024,-0.034,-0.059,0.005,0.039,-0.049,-0.068,-0.132,0.078,-0.034,0.039,0.015
1.868,0.01,-0.044,-0.054,0.02,0.029,-0.049,-0.059,-0.122,0.073,-0.029,0.039,0.01
1.87,0.01,-0.059,-0.068,0.024,0.039,-0.063,-0.059,-0.132,0.068,-0.034,0.029,0.01
1.872,0.01,-0.068,-0.078,0.029,0.044,-0.073,-0.059,-0.132,0.068,-0.034,0.029,0.0
1.874,0.01,-0.083,-0.093,0.039,0.049,-0.088,-0.054,-0.122,0.068,-0.034,0.029,0.0
1.876,-0.015,-0.073,-0.059,0.044,0.02,-0.068,-0.059,-0.122,0.078,-0.034,0.029,-0.015
1.878,-0.024,-0.078,-0.054,0.054,0.015,-0.068,-0.049,-0.117,0.078,-0.034,0.029,-0.015
1.88,-0.024,-0.088,-0.063,0.059,0.02,-0.078,-0.049,-0.117,0.073,-0.034,0.024,-0.02
1.882,-0.024,-0.088,-0.063,0.059,0.02,-0.078,-0.049,-0.122,0.068,-0.039,0.02,-0.024
1.884,-0.024,-0.083,-0.059,0.054,0.015,-0.073,-0.049,-0.127,0.059,-0.044,0.015,-0.02
1.886,-0.029,-0.083,-0.054,0.059,0.01,-0.068,-0.059,-0.137,0.054,-0.049,0.015,-0.02
1.888,-0.039,-0.078,-0.039,0.059,0.0,-0.059,-0.063,-0.137,0.054,-0.049,0.015,-0.02
1.89,-0.044,-0.083,-0.039,0.063,-0.005,-0.063,-0.063,-0.137,0.054,-0.049,0.01,-0.02
1.892,-0.049,-0.088,-0.039,0.068,-0.005,-0.063,-0.054,-0.137,0.063,-0.044,0.01,-0.01
1.894,-0.059,-0.093,-0.034,0.078,-0.015,-0.063,-0.054,-0.127,0.063,-0.044,0.01,-0.015
1.896,-0.063,-0.093,-0.029,0.078,-0.02,-0.063,-0.044,-0.122,0.063,-0.039,0.01,-0.015
1.898,-0.063,-0.098,-0.034,0.083,-0.015,-0.068,-0.039,-0.117,0.068,-0.034,0.01,-0.02
1.9,-0.063,-0.107,-0.044,0.088,-0.01,-0.078,-0.034,-0.112,0.073,-0.029,0.0,-0.015
1.902,-0.063,-0.107,-0.044,0.088,-0.01,-0.078,-0.029,-0.093,0.083,-0.039,-0.005,-0.024
1.904,-0.059,-0.093,-0.034,0.078,-0.015,-0.063,0.015,-0.044,0.093,-0.044,-0.02,-0.039
1.906,-0.063,-0.093,-0.029,0.078,-0.02,-0.063,0.078,0.044,0.122,-0.039,-0.034,-0.054
1.908,-0.083,-0.107,-0.024,0.098,-0.029,-0.068,0.166,0.156,0.146,-0.063,-0.083,-0.098
1.91,-0.098,-0.127,-0.029,0.112,-0.034,-0.078,0.264,0.288,0.161,-0.112,-0.166,-0.171
1.912,-0.127,-0.151,-0.024,0.142,-0.054,-0.088,0.381,0.459,0.2,-0.156,-0.239,-0.254
1.914,-0.142,-0.185,-0.044,0.166,-0.049,-0.117,0.493,0.634,0.249,-0.181,-0.322,-0.337
1.916,-0.142,-0.234,-0.093,0.19,-0.024,-0.166,0.6,0.82,0.293,-0.22,-0.41,-0.439
1.918,-0.142,-0.264,-0.122,0.205,-0.01,-0.195,0.722,1.025,0.376,-0.224,-0.473,-0.512
1.92,-0.161,-0.273,-0.112,0.22,-0.024,-0.195,0.834,1.23,0.493,-0.176,-0.493,-0.537
1.922,-0.161,-0.249,-0.088,0.205,-0.039,-0.171,0.942,1.381,0.605,-0.127,-0.483,-0.537
1.924,-0.132,-0.181,-0.049,0.156,-0.044,-0.117,0.971,1.493,0.712,-0.063,-0.444,-0.498
1.926,-0.088,-0.102,-0.015,0.098,-0.039,-0.059,0.991,1.664,0.878,0.059,-0.356,-0.439
1.928,-0.029,-0.01,0.02,0.02,-0.024,0.005,1.025,1.903,1.069,0.21,-0.244,-0.356
1.93,0.049,0.117,0.068,-0.083,-0.01,0.093,1.025,2.054,1.235,0.39,-0.073,-0.22
1.932,0.122,0.273,0.151,-0.195,-0.015,0.21,0.903,1.976,1.366,0.649,0.21,0.02
1.934,0.215,0.449,0.234,-0.332,-0.01,0.342,0.669,1.63,1.459,0.971,0.566,0.312
1.936,0.351,0.634,0.283,-0.493,0.034,0.459,0.366,1.088,1.474,1.269,0.937,0.6
1.938,0.468,0.761,0.293,-0.615,0.088,0.527,0.078,0.537,1.469,1.537,1.298,0.874
1.94,0.561,0.844,0.283,-0.703,0.137,0.561,-0.224,0.059,1.503,1.884,1.713,1.166
1.942,0.615,0.932,0.317,-0.771,0.146,0.625,-0.556,-0.498,1.542,2.274,2.181,1.484
1.944,0.6,0.991,0.39,-0.795,0.102,0.688,-0.844,-1.025,1.503,2.577,2.616,1.767
1.946,0.566,1.005,0.439,-0.786,0.063,0.722,-1.01,-1.415,1.254,2.625,2.874,1.952
1.948,0.547,1.025,0.478,-0.786,0.034,0.752,-1.093,-1.791,0.664,2.235,2.845,1.996
1.95,0.483,1.064,0.581,-0.771,-0.049,0.82,-1.078,-2.03,-0.054,1.527,2.538,1.962
1.952,0.395,1.083,0.688,-0.737,-0.146,0.883,-0.956,-2.015,-0.542,0.874,2.137,1.84
1.954,0.322,1.0,0.678,-0.659,-0.181,0.839,-0.727,-1.869,-0.82,0.429,1.762,1.654
1.956,0.21,0.849,0.639,-0.527,-0.215,0.742,-0.454,-1.679,-0.932,0.112,1.376,1.386
1.958,0.098,0.615,0.517,-0.356,-0.21,0.566,-0.181,-1.386,-0.981,-0.283,0.781,0.961
1.96,0.044,0.327,0.283,-0.185,-0.122,0.303,0.054,-1.122,-1.103,-0.776,0.068,0.468
1.962,0.005,0.102,0.098,-0.054,-0.049,0.098,0.22,-0.971,-1.147,-1.025,-0.371,0.146
1.964,-0.034,-0.044,-0.01,0.039,-0.015,-0.029,0.322,-0.869,-1.03,-0.927,-0.42,0.015
1.966,-0.059,-0.166,-0.107,0.112,0.024,-0.137,0.268,-0.791,-0.888,-0.795,-0.39,-0.093
1.968,-0.088,-0.239,-0.151,0.166,0.029,-0.195,0.112,-0.776,-0.81,-0.742,-0.415,-0.19
1.97,-0.102,-0.244,-0.142,0.176,0.02,-0.195,0.01,-0.766,-0.742,-0.688,-0.41,-0.21
1.972,-0.107,-0.259,-0.151,0.185,0.02,-0.205,0.0,-0.717,-0.659,-0.595,-0.356,-0.2
1.974,-0.107,-0.268,-0.161,0.19,0.024,-0.215,0.01,-0.605,-0.537,-0.493,-0.307,-0.21
1.976,-0.107,-0.244,-0.137,0.176,0.015,-0.19,0.029,-0.454,-0.39,-0.381,-0.249,-0.2
1.978,-0.093,-0.21,-0.117,0.151,0.01,-0.166,0.059,-0.317,-0.264,-0.283,-0.176,-0.146
1.98,-0.088,-0.2,-0.112,0.146,0.01,-0.156,0.049,-0.195,-0.156,-0.2,-0.112,-0.102
1.982,-0.068,-0.2,-0.132,0.137,0.029,-0.166,0.068,-0.083,-0.063,-0.132,-0.078,-0.088
1.984,-0.034,-0.2,-0.166,0.117,0.063,-0.185,0.112,0.015,0.01,-0.093,-0.059,-0.078
1.986,-0.01,-0.195,-0.185,0.102,0.088,-0.19,0.142,0.073,0.044,-0.068,-0.034,-0.073
1.988,-0.005,-0.176,-0.171,0.093,0.083,-0.176,0.142,0.098,0.068,-0.059,-0.029,-0.083
1.99,0.01,-0.146,-0.156,0.068,0.083,-0.151,0.132,0.107,0.083,-0.049,-0.024,-0.078
1.992,0.029,-0.122,-0.151,0.049,0.088,-0.137,0.142,0.127,0.107,-0.015,-0.015,-0.068
1.994,0.024,-0.112,-0.137,0.044,0.078,-0.127,0.132,0.142,0.127,0.015,0.0,-0.059
1.996,0.015,-0.098,-0.112,0.044,0.063,-0.107,0.122,0.142,0.142,0.024,0.01,-0.059
1.998,-0.005,-0.098,-0.093,0.054,0.044,-0.098,0.122,0.137,0.142,0.034,0.01,-0.059
2.0,-0.015,-0.098,-0.083,0.059,0.034,-0.093,0.117,0.137,0.151,0.024,0.01,-0.059
2.002,-0.024,-0.098,-0.073,0.063,0.024,-0.088,0.117,0.146,0.151,0.024,0.01,-0.063
2.004,-0.024,-0.098,-0.073,0.063,0.024,-0.088,0.117,0.146,0.161,0.024,0.01,-0.063
2.006,-0.02,-0.102,-0.083,0.063,0.029,-0.093,0.122,0.161,0.176,0.034,0.02,-0.054
2.008,-0.01,-0.098,-0.088,0.054,0.039,-0.093,0.122,0.161,0.181,0.034,0.02,-0.054
2.01,-0.01,-0.098,-0.088,0.054,0.039,-0.093,0.122,0.161,0.181,0.039,0.02,-0.054
2.012,-0.01,-0.098,-0.088,0.054,0.039,-0.093,0.122,0.171,0.185,0.049,0.02,-0.054
2.014,-0.01,-0.098,-0.088,0.054,0.039,-0.093,0.117,0.166,0.2,0.063,0.029,-0.049
2.016,-0.005,-0.093,-0.088,0.049,0.039,-0.093,0.117,0.176,0.205,0.073,0.034,-0.049
2.018,-0.005,-0.093,-0.088,0.049,0.039,-0.093,0.112,0.185,0.215,0.078,0.039,-0.039
2.02,-0.015,-0.093,-0.078,0.054,0.029,-0.088,0.112,0.19,0.224,0.078,0.044,-0.039
2.022,-0.005,-0.098,-0.093,0.054,0.044,-0.098,0.122,0.195,0.215,0.083,0.044,-0.029
2.024,-0.005,-0.093,-0.088,0.049,0.039,-0.093,0.122,0.2,0.22,0.088,0.044,-0.029
2.026,0.0,-0.088,-0.088,0.044,0.044,-0.088,0.122,0.205,0.224,0.093,0.044,-0.029
2.028,0.005,-0.088,-0.093,0.044,0.049,-0.093,0.122,0.205,0.229,0.093,0.044,-0.024
2.03,0.0,-0.088,-0.088,0.044,0.044,-0.088,0.122,0.21,0.234,0.098,0.044,-0.034
2.032,-0.015,-0.093,-0.078,0.054,0.029,-0.088,0.127,0.215,0.239,0.098,0.039,-0.034
2.034,-0.01,-0.093,-0.083,0.054,0.034,-0.088,0.127,0.22,0.249,0.107,0.039,-0.034
2.036,-0.015,-0.088,-0.073,0.054,0.029,-0.083,0.127,0.229,0.259,0.117,0.054,-0.034
2.038,-0.005,-0.078,-0.073,0.044,0.034,-0.078,0.137,0.234,0.254,0.127,0.063,-0.024
2.04,-0.01,-0.078,-0.068,0.044,0.029,-0.073,0.137,0.239,0.264,0.142,0.068,-0.024
2.042,-0.01,-0.078,-0.068,0.044,0.029,-0.073,0.142,0.249,0.268,0.146,0.068,-0.024
2.044,-0.01,-0.078,-0.068,0.044,0.029,-0.073,0.142,0.249,0.268,0.151,0.068,-0.02
2.046,-0.01,-0.078,-0.068,0.044,0.029,-0.073,0.132,0.244,0.273,0.142,0.059,-0.02
2.048,-0.01,-0.078,-0.068,0.044,0.029,-0.073,0.137,0.254,0.283,0.142,0.059,-0.02
2.05,-0.01,-0.078,-0.068,0.044,0.029,-0.073,0.142,0.259,0.283,0.142,0.059,-0.024
2.052,0.0,-0.078,-0.078,0.039,0.039,-0.078,0.142,0.264,0.283,0.142,0.059,-0.024
2.054,0.0,-0.068,-0.068,0.034,0.034,-0.068,0.132,0.259,0.283,0.137,0.049,-0.034
2.056,0.0,-0.068,-0.068,0.034,0.034,-0.068,0.132,0.264,0.283,0.146,0.054,-0.034
2.058,0.0,-0.063,-0.063,0.034,0.029,-0.063,0.137,0.273,0.288,0.146,0.059,-0.034
2.06,0.0,-0.054,-0.054,0.029,0.024,-0.054,0.137,0.273,0.288,0.146,0.059,-0.034
2.062,-0.02,-0.054,-0.034,0.039,0.005,-0.044,0.142,0.283,0.293,0.146,0.068,-0.024
2.064,-0.02,-0.059,-0.039,0.039,0.01,-0.049,0.146,0.293,0.293,0.151,0.068,-0.024
2.066,-0.02,-0.059,-0.039,0.039,0.01,-0.049,0.146,0.298,0.303,0.156,0.073,-0.024
2.068,-0.01,-0.054,-0.044,0.034,0.015,-0.049,0.146,0.307,0.307,0.166,0.073,-0.024
2.07,-0.01,-0.059,-0.049,0.034,0.02,-0.054,0.161,0.312,0.307,0.166,0.073,-0.01
2.072,-0.01,-0.063,-0.054,0.039,0.02,-0.059,0.161,0.317,0.307,0.166,0.073,-0.01
2.074,-0.01,-0.068,-0.059,0.039,0.024,-0.063,0.161,0.322,0.317,0.176,0.073,-0.015
2.076,-0.01,-0.073,-0.063,0.044,0.024,-0.068,0.171,0.332,0.322,0.176,0.078,-0.015
2.078,-0.01,-0.059,-0.049,0.034,0.02,-0.054,0.176,0.327,0.322,0.181,0.083,-0.01
2.08,-0.01,-0.054,-0.044,0.034,0.015,-0.049,0.176,0.337,0.322,0.181,0.088,-0.01
2.082,-0.005,-0.054,-0.049,0.029,0.02,-0.054,0.176,0.342,0.322,0.181,0.088,-0.01
2.084,-0.005,-0.059,-0.054,0.034,0.024,-0.059,0.181,0.346,0.332,0.181,0.088,-0.01
2.086,-0.005,-0.054,-0.049,0.029,0.02,-0.054,0.176,0.351,0.332,0.181,0.083,-0.01
2.088,-0.005,-0.049,-0.044,0.029,0.02,-0.049,0.176,0.356,0.337,0.185,0.083,-0.01
2.09,-0.005,-0.044,-0.039,0.024,0.015,-0.044,0.176,0.366,0.342,0.185,0.083,-0.01
2.092,-0.005,-0.039,-0.034,0.024,0.015,-0.039,0.185,0.376,0.342,0.195,0.083,-0.01
2.094,-0.015,-0.049,-0.034,0.034,0.01,-0.044,0.185,0.39,0.351,0.185,0.073,-0.02
2.096,0.0,-0.049,-0.049,0.024,0.024,-0.049,0.185,0.4,0.356,0.19,0.073,-0.02
2.098,0.0,-0.049,-0.049,0.024,0.024,-0.049,0.185,0.41,0.361,0.2,0.078,-0.02
2.1,0.0,-0.049,-0.049,0.024,0.024,-0.049,0.185,0.42,0.361,0.2,0.078,-0.02
2.102,0.01,-0.039,-0.049,0.015,0.029,-0.044,0.19,0.42,0.366,0.2,0.088,-0.01
2.104,0.01,-0.039,-0.049,0.015,0.029,-0.044,0.195,0.434,0.376,0.205,0.088,-0.01
2.106,0.01,-0.039,-0.049,0.015,0.029,-0.044,0.21,0.444,0.386,0.215,0.093,-0.01
2.108,0.01,-0.044,-0.054,0.02,0.029,-0.049,0.224,0.454,0.395,0.224,0.093,-0.01
2.11,0.01,-0.044,-0.054,0.02,0.029,-0.049,0.224,0.464,0.4,0.239,0.093,-0.01
2.112,0.015,-0.034,-0.049,0.01,0.029,-0.044,0.224,0.473,0.405,0.239,0.093,-0.01
2.114,0.02,-0.034,-0.054,0.01,0.034,-0.044,0.224,0.483,0.415,0.239,0.093,-0.01
2.116,0.02,-0.039,-0.059,0.01,0.039,-0.049,0.224,0.493,0.415,0.234,0.093,-0.01
2.118,0.01,-0.044,-0.054,0.02,0.029,-0.049,0.229,0.493,0.41,0.234,0.093,-0.02
2.12,0.01,-0.049,-0.059,0.02,0.034,-0.054,0.239,0.503,0.415,0.249,0.093,-0.015
2.122,0.005,-0.054,-0.059,0.024,0.029,-0.059,0.239,0.517,0.425,0.254,0.093,-0.015
2.124,0.005,-0.059,-0.063,0.029,0.034,-0.063,0.244,0.527,0.429,0.254,0.093,-0.015
2.126,0.01,-0.049,-0.059,0.02,0.034,-0.054,0.244,0.547,0.429,0.244,0.093,-0.024
2.128,0.02,-0.044,-0.063,0.015,0.039,-0.054,0.244,0.566,0.434,0.254,0.093,-0.024
2.13,0.034,-0.039,-0.073,0.005,0.054,-0.059,0.254,0.581,0.439,0.254,0.098,-0.024
2.132,0.044,-0.029,-0.073,-0.005,0.059,-0.054,0.259,0.586,0.444,0.254,0.102,-0.024
2.134,0.049,-0.02,-0.068,-0.015,0.059,-0.044,0.273,0.6,0.459,0.268,0.107,-0.02
2.136,0.049,-0.02,-0.068,-0.015,0.059,-0.044,0.273,0.62,0.473,0.273,0.107,-0.015
2.138,0.049,-0.015,-0.063,-0.015,0.054,-0.039,0.283,0.639,0.483,0.278,0.117,-0.005
2.14,0.049,-0.015,-0.063,-0.015,0.054,-0.039,0.293,0.649,0.493,0.288,0.117,0.0
2.142,0.044,-0.029,-0.073,-0.005,0.059,-0.054,0.283,0.654,0.498,0.293,0.117,-0.01
2.144,0.034,-0.034,-0.068,0.0,0.049,-0.054,0.288,0.669,0.503,0.298,0.117,-0.01
2.146,0.049,-0.034,-0.083,-0.005,0.063,-0.059,0.303,0.683,0.508,0.298,0.117,-0.01
2.148,0.054,-0.034,-0.088,-0.01,0.068,-0.063,0.307,0.698,0.508,0.298,0.117,-0.01
2.15,0.063,-0.024,-0.088,-0.02,0.073,-0.059,0.312,0.732,0.512,0.307,0.117,-0.01
2.152,0.063,-0.024,-0.088,-0.02,0.073,-0.059,0.317,0.752,0.532,0.317,0.122,-0.01
2.154,0.063,-0.02,-0.083,-0.02,0.073,-0.054,0.322,0.761,0.537,0.317,0.122,-0.01
2.156,0.059,-0.02,-0.078,-0.02,0.068,-0.049,0.327,0.776,0.542,0.317,0.122,-0.01
2.158,0.059,-0.02,-0.078,-0.02,0.068,-0.049,0.351,0.795,0.551,0.327,0.132,-0.005
2.16,0.063,-0.02,-0.083,-0.02,0.073,-0.054,0.361,0.815,0.561,0.342,0.137,0.0
2.162,0.063,-0.02,-0.083,-0.02,0.073,-0.054,0.371,0.834,0.571,0.356,0.137,0.005
2.164,0.068,-0.015,-0.083,-0.024,0.073,-0.049,0.376,0.849,0.576,0.356,0.137,0.01
2.166,0.059,-0.015,-0.073,-0.02,0.063,-0.044,0.376,0.859,0.581,0.371,0.137,0.0
2.168,0.054,-0.015,-0.068,-0.02,0.059,-0.044,0.386,0.874,0.6,0.376,0.142,-0.005
2.17,0.054,-0.02,-0.073,-0.015,0.063,-0.049,0.395,0.888,0.6,0.376,0.142,-0.005
2.172,0.054,-0.02,-0.073,-0.015,0.063,-0.049,0.405,0.908,0.61,0.381,0.142,-0.005
2.174,0.063,-0.005,-0.068,-0.029,0.063,-0.039,0.415,0.932,0.615,0.386,0.142,-0.005
2.176,0.068,0.005,-0.063,-0.034,0.063,-0.029,0.42,0.952,0.62,0.386,0.142,-0.01
2.178,0.073,-0.005,-0.078,-0.034,0.073,-0.044,0.425,0.961,0.63,0.381,0.142,-0.015
2.18,0.078,-0.005,-0.083,-0.034,0.078,-0.044,0.429,0.971,0.634,0.381,0.142,-0.02
2.182,0.078,0.0,-0.078,-0.039,0.078,-0.039,0.434,0.976,0.625,0.39,0.142,-0.01
2.184,0.083,0.005,-0.078,-0.044,0.078,-0.039,0.439,0.986,0.634,0.395,0.151,-0.015
2.186,0.083,0.005,-0.078,-0.044,0.078,-0.039,0.449,0.996,0.644,0.4,0.151,-0.015
2.188,0.078,0.005,-0.073,-0.039,0.073,-0.034,0.459,0.996,0.649,0.405,0.151,-0.015
2.19,0.073,-0.005,-0.078,-0.034,0.073,-0.044,0.473,1.015,0.644,0.415,0.161,-0.015
2.192,0.073,-0.01,-0.083,-0.029,0.078,-0.049,0.478,1.025,0.654,0.415,0.161,-0.015
2.194,0.073,-0.01,-0.083,-0.029,0.078,-0.049,0.478,1.03,0.654,0.415,0.161,-0.015
2.196,0.073,-0.01,-0.083,-0.029,0.078,-0.049,0.488,1.035,0.654,0.415,0.161,-0.01
2.198,0.073,-0.01,-0.083,-0.029,0.078,-0.049,0.493,1.044,0.659,0.439,0.166,-0.01
2.2,0.083,-0.01,-0.093,-0.034,0.088,-0.054,0.493,1.044,0.659,0.429,0.166,-0.02
2.202,0.083,-0.01,-0.093,-0.034,0.088,-0.054,0.493,1.044,0.659,0.429,0.166,-0.024
2.204,0.083,-0.01,-0.093,-0.034,0.088,-0.054,0.498,1.054,0.659,0.429,0.166,-0.024
2.206,0.078,-0.01,-0.088,-0.034,0.083,-0.049,0.493,1.054,0.649,0.42,0.161,-0.024
2.208,0.078,-0.005,-0.083,-0.034,0.078,-0.044,0.498,1.054,0.649,0.425,0.156,-0.029
2.21,0.078,0.0,-0.078,-0.039,0.078,-0.039,0.503,1.054,0.649,0.429,0.151,-0.039
2.212,0.083,0.0,-0.083,-0.039,0.083,-0.044,0.503,1.049,0.649,0.429,0.137,-0.044
2.214,0.083,0.01,-0.073,-0.044,0.078,-0.034,0.503,1.039,0.639,0.42,0.127,-0.049
2.216,0.078,0.015,-0.063,-0.044,0.068,-0.024,0.498,1.035,0.634,0.415,0.122,-0.049
2.218,0.073,0.01,-0.063,-0.039,0.068,-0.029,0.498,1.03,0.63,0.415,0.117,-0.054
2.22,0.068,0.015,-0.054,-0.039,0.059,-0.02,0.498,1.015,0.625,0.41,0.112,-0.054
2.222,0.068,0.0,-0.068,-0.034,0.068,-0.034,0.488,1.0,0.595,0.395,0.107,-0.059
2.224,0.068,0.0,-0.068,-0.034,0.068,-0.034,0.483,0.986,0.586,0.39,0.107,-0.063
2.226,0.068,-0.005,-0.073,-0.029,0.068,-0.039,0.483,0.966,0.586,0.386,0.117,-0.063
2.228,0.059,-0.005,-0.063,-0.024,0.059,-0.034,0.478,0.947,0.576,0.381,0.117,-0.059
2.23,0.059,-0.015,-0.073,-0.02,0.063,-0.044,0.488,0.932,0.576,0.39,0.127,-0.049
2.232,0.063,-0.02,-0.083,-0.02,0.073,-0.054,0.473,0.903,0.556,0.381,0.117,-0.059
2.234,0.063,-0.02,-0.083,-0.02,0.073,-0.054,0.464,0.878,0.547,0.371,0.112,-0.063
2.236,0.059,-0.02,-0.078,-0.02,0.068,-0.049,0.454,0.849,0.532,0.366,0.102,-0.063
2.238,0.068,-0.015,-0.083,-0.024,0.073,-0.049,0.434,0.82,0.508,0.351,0.088,-0.073
2.24,0.068,-0.01,-0.078,-0.029,0.073,-0.044,0.425,0.776,0.483,0.337,0.078,-0.073
2.242,0.068,-0.005,-0.073,-0.029,0.068,-0.039,0.405,0.737,0.454,0.322,0.073,-0.073
2.244,0.068,0.0,-0.068,-0.034,0.068,-0.034,0.395,0.698,0.434,0.307,0.068,-0.083
2.246,0.059,-0.005,-0.063,-0.024,0.059,-0.034,0.371,0.649,0.405,0.288,0.068,-0.083
2.248,0.054,-0.015,-0.068,-0.02,0.059,-0.044,0.356,0.615,0.381,0.278,0.063,-0.083
2.25,0.054,-0.02,-0.073,-0.015,0.063,-0.049,0.342,0.576,0.371,0.268,0.059,-0.083
2.252,0.063,-0.02,-0.083,-0.02,0.073,-0.054,0.322,0.537,0.351,0.259,0.054,-0.083
2.254,0.073,-0.015,-0.088,-0.029,0.078,-0.054,0.312,0.503,0.332,0.249,0.049,-0.073
2.256,0.068,-0.02,-0.088,-0.024,0.078,-0.054,0.298,0.468,0.312,0.239,0.044,-0.073
2.258,0.063,-0.029,-0.093,-0.015,0.078,-0.063,0.278,0.429,0.303,0.224,0.044,-0.073
2.26,0.063,-0.029,-0.093,-0.015,0.078,-0.063,0.249,0.4,0.288,0.21,0.039,-0.073
2.262,0.054,-0.024,-0.078,-0.015,0.063,-0.054,0.249,0.361,0.268,0.215,0.034,-0.073
2.264,0.049,-0.024,-0.073,-0.01,0.059,-0.049,0.239,0.322,0.249,0.205,0.034,-0.063
2.266,0.054,-0.024,-0.078,-0.015,0.063,-0.054,0.215,0.283,0.229,0.195,0.024,-0.063
2.268,0.049,-0.024,-0.073,-0.01,0.059,-0.049,0.2,0.244,0.205,0.181,0.024,-0.063
2.27,0.059,-0.024,-0.083,-0.015,0.068,-0.054,0.171,0.215,0.181,0.156,0.02,-0.073
2.272,0.054,-0.024,-0.078,-0.015,0.063,-0.054,0.161,0.185,0.171,0.156,0.015,-0.068
2.274,0.054,-0.024,-0.078,-0.015,0.063,-0.054,0.146,0.166,0.156,0.146,0.005,-0.063
2.276,0.059,-0.024,-0.083,-0.015,0.068,-0.054,0.127,0.137,0.142,0.132,-0.005,-0.063
2.278,0.068,-0.039,-0.107,-0.015,0.088,-0.073,0.122,0.112,0.137,0.127,0.005,-0.049
2.28,0.063,-0.039,-0.102,-0.01,0.083,-0.073,0.112,0.093,0.127,0.122,0.005,-0.049
2.282,0.059,-0.034,-0.093,-0.01,0.073,-0.063,0.102,0.068,0.117,0.112,-0.01,-0.049
2.284,0.059,-0.034,-0.093,-0.01,0.073,-0.063,0.098,0.044,0.102,0.102,-0.015,-0.049
2.286,0.063,-0.029,-0.093,-0.015,0.078,-0.063,0.088,0.039,0.098,0.107,-0.02,-0.054
2.288,0.063,-0.029,-0.093,-0.015,0.078,-0.063,0.083,0.02,0.083,0.102,-0.02,-0.049
2.29,0.063,-0.024,-0.088,-0.02,0.073,-0.059,0.073,0.005,0.073,0.098,-0.02,-0.039
2.292,0.068,-0.01,-0.078,-0.029,0.073,-0.044,0.073,-0.005,0.063,0.093,-0.015,-0.039
2.294,0.059,-0.01,-0.068,-0.024,0.063,-0.039,0.059,0.0,0.063,0.078,-0.015,-0.039
2.296,0.054,-0.015,-0.068,-0.02,0.059,-0.044,0.054,-0.02,0.059,0.073,-0.02,-0.034
2.298,0.054,-0.02,-0.073,-0.015,0.063,-0.049,0.039,-0.034,0.049,0.068,-0.02,-0.034
2.3,0.054,-0.015,-0.068,-0.02,0.059,-0.044,0.034,-0.039,0.049,0.063,-0.015,-0.034
2.302,0.054,-0.005,-0.059,-0.024,0.054,-0.034,0.044,-0.044,0.049,0.063,-0.01,-0.024
2.304,0.054,-0.005,-0.059,-0.024,0.054,-0.034,0.039,-0.049,0.049,0.063,-0.01,-0.02
2.306,0.054,-0.005,-0.059,-0.024,0.054,-0.034,0.039,-0.059,0.044,0.068,-0.01,-0.02
2.308,0.054,-0.005,-0.059,-0.024,0.054,-0.034,0.039,-0.068,0.039,0.073,-0.01,-0.01
2.31,0.054,0.0,-0.054,-0.024,0.054,-0.029,0.039,-0.059,0.049,0.068,-0.02,-0.01
2.312,0.054,-0.005,-0.059,-0.024,0.054,-0.034,0.039,-0.063,0.044,0.063,-0.02,-0.01
2.314,0.049,-0.01,-0.059,-0.02,0.054,-0.034,0.039,-0.063,0.044,0.063,-0.02,-0.005
2.316,0.049,-0.015,-0.063,-0.015,0.054,-0.039,0.039,-0.068,0.044,0.063,-0.02,-0.005
2.318,0.054,-0.015,-0.068,-0.02,0.059,-0.044,0.039,-0.068,0.029,0.059,-0.029,-0.005
2.32,0.054,-0.005,-0.059,-0.024,0.054,-0.034,0.039,-0.073,0.029,0.059,-0.024,-0.005
2.322,0.049,0.0,-0.049,-0.024,0.049,-0.024,0.044,-0.078,0.029,0.059,-0.024,-0.005
2.324,0.044,0.0,-0.044,-0.02,0.044,-0.024,0.044,-0.078,0.034,0.059,-0.02,-0.005
2.326,0.054,-0.01,-0.063,-0.02,0.059,-0.039,0.044,-0.078,0.034,0.063,-0.02,0.0
2.328,0.054,-0.01,-0.063,-0.02,0.059,-0.039,0.044,-0.078,0.034,0.063,-0.02,0.0
2.33,0.054,-0.015,-0.068,-0.02,0.059,-0.044,0.044,-0.073,0.034,0.063,-0.02,0.0
2.332,0.054,-0.024,-0.078,-0.015,0.063,-0.054,0.044,-0.073,0.034,0.063,-0.02,0.005
2.334,0.044,-0.039,-0.083,0.0,0.063,-0.063,0.054,-0.063,0.044,0.073,-0.015,0.01
2.336,0.044,-0.034,-0.078,-0.005,0.059,-0.059,0.059,-0.063,0.044,0.073,-0.01,0.015
2.338,0.044,-0.039,-0.083,0.0,0.063,-0.063,0.063,-0.063,0.044,0.068,-0.005,0.024
2.34,0.044,-0.044,-0.088,0.0,0.063,-0.068,0.073,-0.063,0.044,0.063,0.0,0.029
2.342,0.054,-0.034,-0.088,-0.01,0.068,-0.063,0.063,-0.073,0.034,0.073,-0.01,0.02
2.344,0.049,-0.034,-0.083,-0.005,0.063,-0.059,0.063,-0.073,0.034,0.073,-0.01,0.02
2.346,0.049,-0.034,-0.083,-0.005,0.063,-0.059,0.063,-0.073,0.034,0.078,-0.01,0.02
2.348,0.054,-0.034,-0.088,-0.01,0.068,-0.063,0.059,-0.073,0.034,0.083,-0.005,0.02
2.35,0.049,-0.024,-0.073,-0.01,0.059,-0.049,0.049,-0.088,0.024,0.068,-0.01,0.01
2.352,0.044,-0.02,-0.063,-0.01,0.054,-0.044,0.049,-0.088,0.02,0.054,-0.024,0.0
2.354,0.039,-0.02,-0.059,-0.01,0.049,-0.039,0.049,-0.088,0.02,0.049,-0.029,0.0
2.356,0.034,-0.015,-0.049,-0.01,0.039,-0.034,0.049,-0.088,0.02,0.044,-0.034,0.0
2.358,0.039,-0.01,-0.049,-0.015,0.044,-0.029,0.054,-0.078,0.034,0.049,-0.024,0.005
2.36,0.044,-0.005,-0.049,-0.02,0.044,-0.029,0.054,-0.078,0.039,0.054,-0.024,0.005
2.362,0.049,0.005,-0.044,-0.024,0.044,-0.02,0.054,-0.078,0.039,0.059,-0.024,0.005
2.364,0.054,0.01,-0.044,-0.029,0.049,-0.02,0.059,-0.078,0.044,0.063,-0.024,0.005
2.366,0.049,-0.005,-0.054,-0.02,0.049,-0.029,0.059,-0.073,0.039,0.063,-0.024,0.0
2.368,0.044,-0.005,-0.049,-0.02,0.044,-0.029,0.059,-0.068,0.039,0.063,-0.024,0.0
2.37,0.039,-0.01,-0.049,-0.015,0.044,-0.029,0.059,-0.068,0.039,0.059,-0.024,0.005
2.372,0.039,-0.01,-0.049,-0.015,0.044,-0.029,0.059,-0.063,0.044,0.059,-0.024,0.005
2.374,0.034,-0.02,-0.054,-0.005,0.044,-0.039,0.059,-0.073,0.044,0.054,-0.034,0.005
2.376,0.034,-0.015,-0.049,-0.01,0.039,-0.034,0.059,-0.073,0.034,0.054,-0.034,-0.005
2.378,0.034,-0.015,-0.049,-0.01,0.039,-0.034,0.059,-0.073,0.049,0.063,-0.034,0.005
2.38,0.034,-0.015,-0.049,-0.01,0.039,-0.034,0.059,-0.068,0.054,0.073,-0.034,0.005
2.382,0.049,-0.01,-0.059,-0.02,0.054,-0.034,0.059,-0.068,0.049,0.063,-0.039,0.0
2.384,0.049,-0.005,-0.054,-0.02,0.049,-0.029,0.063,-0.063,0.049,0.063,-0.039,0.0
2.386,0.049,0.0,-0.049,-0.024,0.049,-0.024,0.063,-0.054,0.059,0.063,-0.039,0.0
2.388,0.049,0.005,-0.044,-0.024,0.044,-0.02,0.063,-0.054,0.059,0.063,-0.039,0.0
2.39,0.034,-0.01,-0.044,-0.01,0.039,-0.029,0.063,-0.054,0.059,0.073,-0.024,-0.005
2.392,0.029,-0.01,-0.039,-0.01,0.034,-0.024,0.063,-0.054,0.063,0.078,-0.02,-0.005
2.394,0.044,-0.005,-0.049,-0.02,0.044,-0.029,0.063,-0.054,0.063,0.078,-0.02,-0.005
2.396,0.039,-0.005,-0.044,-0.015,0.039,-0.024,0.063,-0.049,0.063,0.078,-0.02,-0.005
2.398,0.02,-0.015,-0.034,0.0,0.024,-0.024,0.068,-0.039,0.068,0.078,-0.02,0.005
2.4,0.02,-0.015,-0.034,0.0,0.024,-0.024,0.068,-0.039,0.073,0.078,-0.02,0.005
2.402,0.024,-0.015,-0.039,-0.005,0.029,-0.029,0.068,-0.039,0.083,0.078,-0.024,0.0
2.404,0.024,-0.015,-0.039,-0.005,0.029,-0.029,0.068,-0.039,0.098,0.078,-0.024,0.0
2.406,0.01,-0.01,-0.02,0.0,0.015,-0.015,0.073,-0.034,0.093,0.088,-0.02,0.015
2.408,0.01,-0.01,-0.02,0.0,0.015,-0.015,0.073,-0.034,0.093,0.088,-0.02,0.015
2.41,0.01,-0.005,-0.015,0.0,0.01,-0.01,0.068,-0.034,0.098,0.093,-0.02,0.015
2.412,0.01,0.005,-0.005,-0.005,0.005,0.0,0.068,-0.029,0.102,0.093,-0.02,0.015
2.414,0.005,0.01,0.005,-0.005,0.0,0.005,0.078,-0.029,0.102,0.102,-0.01,0.015
2.416,0.005,0.015,0.01,-0.01,-0.005,0.01,0.078,-0.029,0.102,0.102,-0.01,0.015
2.418,0.005,0.015,0.01,-0.01,-0.005,0.01,0.078,-0.029,0.112,0.107,-0.01,0.015
2.42,-0.005,0.015,0.02,-0.005,-0.015,0.015,0.083,-0.02,0.117,0.107,-0.005,0.015
2.422,-0.005,0.02,0.024,-0.005,-0.015,0.02,0.083,-0.01,0.117,0.107,-0.015,0.024
2.424,-0.005,0.02,0.024,-0.005,-0.015,0.02,0.083,-0.01,0.122,0.112,-0.015,0.029
2.426,-0.005,0.024,0.029,-0.01,-0.02,0.024,0.083,-0.015,0.127,0.117,-0.01,0.029
2.428,0.0,0.024,0.024,-0.01,-0.015,0.024,0.083,-0.015,0.127,0.122,-0.01,0.029
2.43,-0.01,0.015,0.024,0.0,-0.02,0.02,0.083,-0.015,0.132,0.132,-0.005,0.02
2.432,-0.01,0.015,0.024,0.0,-0.02,0.02,0.083,-0.01,0.137,0.132,-0.005,0.02
2.434,-0.01,0.015,0.024,0.0,-0.02,0.02,0.083,-0.005,0.137,0.132,0.0,0.024
2.436,-0.01,0.02,0.029,-0.005,-0.02,0.024,0.083,-0.005,0.142,0.132,0.0,0.024
2.438,-0.005,0.024,0.029,-0.01,-0.02,0.024,0.088,0.0,0.146,0.137,0.01,0.015
2.44,0.0,0.034,0.034,-0.015,-0.02,0.034,0.088,0.0,0.146,0.137,0.01,0.015
2.442,0.01,0.039,0.029,-0.024,-0.01,0.034,0.083,-0.005,0.156,0.137,0.01,0.015
2.444,0.015,0.039,0.024,-0.024,-0.005,0.029,0.078,-0.005,0.156,0.137,0.01,0.015
2.446,0.015,0.029,0.015,-0.02,0.0,0.02,0.078,-0.005,0.151,0.137,0.0,0.015
2.448,0.024,0.029,0.005,-0.024,0.01,0.015,0.083,-0.005,0.151,0.137,0.0,0.015
2.45,0.024,0.029,0.005,-0.024,0.01,0.015,0.083,-0.005,0.151,0.146,0.0,0.015
2.452,0.024,0.029,0.005,-0.024,0.01,0.015,0.083,-0.005,0.156,0.156,0.005,0.015
2.454,0.015,0.029,0.015,-0.02,0.0,0.02,0.073,-0.015,0.156,0.156,0.02,0.01
2.456,0.015,0.029,0.015,-0.02,0.0,0.02,0.073,-0.01,0.161,0.151,0.02,0.01
2.458,0.015,0.029,0.015,-0.02,0.0,0.02,0.073,-0.01,0.161,0.146,0.02,0.01
2.46,0.015,0.029,0.015,-0.02,0.0,0.02,0.073,-0.01,0.166,0.146,0.02,0.01
2.462,0.015,0.029,0.015,-0.02,0.0,0.02,0.083,0.0,0.166,0.156,0.01,0.01
2.464,0.015,0.029,0.015,-0.02,0.0,0.02,0.078,0.0,0.166,0.156,0.01,0.015
2.466,0.01,0.034,0.024,-0.02,-0.01,0.029,0.078,0.0,0.171,0.156,0.01,0.015
2.468,0.01,0.034,0.024,-0.02,-0.01,0.029,0.078,0.0,0.171,0.161,0.015,0.015
2.47,0.02,0.015,-0.005,-0.015,0.01,0.005,0.078,-0.01,0.171,0.156,0.015,0.01
2.472,0.02,0.015,-0.005,-0.015,0.01,0.005,0.078,-0.01,0.171,0.156,0.01,0.01
2.474,0.024,0.02,-0.005,-0.02,0.015,0.005,0.078,-0.01,0.171,0.151,0.01,0.015
2.476,0.024,0.029,0.005,-0.024,0.01,0.015,0.078,-0.02,0.171,0.151,0.01,0.015
2.478,0.034,0.02,-0.015,-0.024,0.024,0.0,0.078,-0.02,0.161,0.151,0.015,0.024
2.48,0.024,0.02,-0.005,-0.02,0.015,0.005,0.078,-0.02,0.161,0.151,0.015,0.024
2.482,0.01,0.01,0.0,-0.01,0.005,0.005,0.073,-0.024,0.161,0.142,0.015,0.02
2.484,0.005,0.01,0.005,-0.005,0.0,0.005,0.068,-0.024,0.161,0.142,0.01,0.02
2.486,0.015,0.024,0.01,-0.02,0.0,0.015,0.068,-0.034,0.161,0.137,0.0,0.01
2.488,0.024,0.034,0.01,-0.029,0.005,0.02,0.068,-0.034,0.161,0.142,0.0,0.01
2.49,0.024,0.02,-0.005,-0.02,0.015,0.005,0.068,-0.039,0.161,0.146,0.0,0.01
2.492,0.024,0.015,-0.01,-0.02,0.015,0.0,0.068,-0.039,0.161,0.146,0.0,0.01
2.494,0.034,0.024,-0.01,-0.029,0.02,0.005,0.059,-0.039,0.151,0.142,0.0,0.01
2.496,0.034,0.029,-0.005,-0.029,0.02,0.01,0.059,-0.044,0.151,0.142,0.005,0.01
2.498,0.034,0.029,-0.005,-0.029,0.02,0.01,0.059,-0.049,0.151,0.137,0.005,0.0
2.5,0.024,0.029,0.005,-0.024,0.01,0.015,0.059,-0.049,0.146,0.127,-0.005,0.0
2.502,0.024,0.02,-0.005,-0.02,0.015,0.005,0.059,-0.049,0.146,0.137,-0.005,0.005
2.504,0.034,0.02,-0.015,-0.024,0.024,0.0,0.059,-0.049,0.146,0.142,0.0,0.005
2.506,0.044,0.02,-0.024,-0.029,0.034,-0.005,0.059,-0.049,0.146,0.142,0.0,0.01
2.508,0.034,0.02,-0.015,-0.024,0.024,0.0,0.059,-0.049,0.151,0.142,0.0,0.01
2.51,0.044,0.029,-0.015,-0.034,0.029,0.005,0.068,-0.039,0.161,0.142,0.0,0.02
2.512,0.039,0.024,-0.015,-0.029,0.024,0.005,0.063,-0.044,0.151,0.142,0.0,0.015
2.514,0.034,0.02,-0.015,-0.024,0.024,0.0,0.063,-0.054,0.151,0.142,0.0,0.015
2.516,0.034,0.02,-0.015,-0.024,0.024,0.0,0.068,-0.054,0.151,0.137,0.0,0.02
2.518,0.034,0.01,-0.024,-0.02,0.029,-0.01,0.059,-0.063,0.142,0.127,-0.01,0.01
2.52,0.029,0.01,-0.02,-0.02,0.024,-0.005,0.059,-0.063,0.142,0.132,-0.01,0.01
2.522,0.024,0.01,-0.015,-0.015,0.02,-0.005,0.059,-0.063,0.137,0.132,-0.01,0.01
2.524,0.024,0.01,-0.015,-0.015,0.02,-0.005,0.054,-0.063,0.132,0.137,-0.015,0.005
2.526,0.029,0.01,-0.02,-0.02,0.024,-0.005,0.049,-0.073,0.122,0.132,-0.015,0.005
2.528,0.029,0.01,-0.02,-0.02,0.024,-0.005,0.049,-0.078,0.127,0.137,-0.015,0.005
2.53,0.029,0.015,-0.015,-0.02,0.02,0.0,0.054,-0.083,0.127,0.137,-0.015,0.01
2.532,0.024,0.015,-0.01,-0.02,0.015,0.0,0.054,-0.083,0.127,0.132,-0.01,0.01
2.534,0.029,0.024,-0.005,-0.024,0.015,0.01,0.054,-0.083,0.117,0.122,-0.01,0.005
2.536,0.029,0.024,-0.005,-0.024,0.015,0.01,0.054,-0.083,0.107,0.122,-0.015,0.005
2.538,0.029,0.024,-0.005,-0.024,0.015,0.01,0.054,-0.083,0.107,0.122,-0.015,0.005
2.54,0.029,0.024,-0.005,-0.024,0.015,0.01,0.054,-0.083,0.107,0.122,-0.01,0.005
2.542,0.034,0.024,-0.01,-0.029,0.02,0.005,0.044,-0.098,0.098,0.102,-0.015,0.0
2.544,0.034,0.02,-0.015,-0.024,0.024,0.0,0.044,-0.098,0.098,0.102,-0.024,-0.01
2.546,0.029,0.02,-0.01,-0.024,0.02,0.005,0.044,-0.098,0.098,0.102,-0.029,-0.01
2.548,0.029,0.02,-0.01,-0.024,0.02,0.005,0.039,-0.098,0.093,0.102,-0.034,-0.015
2.55,0.029,0.02,-0.01,-0.024,0.02,0.005,0.049,-0.102,0.102,0.112,-0.024,-0.015
2.552,0.029,0.02,-0.01,-0.024,0.02,0.005,0.049,-0.102,0.102,0.112,-0.024,-0.01
2.554,0.029,0.02,-0.01,-0.024,0.02,0.005,0.049,-0.102,0.102,0.112,-0.034,0.005
2.556,0.024,0.02,-0.005,-0.02,0.015,0.005,0.049,-0.102,0.102,0.112,-0.034,0.005
2.558,0.015,0.01,-0.005,-0.01,0.01,0.0,0.059,-0.093,0.093,0.112,-0.024,0.005
2.56,0.029,0.01,-0.02,-0.02,0.024,-0.005,0.059,-0.102,0.093,0.107,-0.024,0.005
2.562,0.029,0.01,-0.02,-0.02,0.024,-0.005,0.059,-0.107,0.088,0.102,-0.024,0.005
2.564,0.02,0.01,-0.01,-0.015,0.015,0.0,0.059,-0.117,0.088,0.102,-0.024,0.0
2.566,0.029,0.01,-0.02,-0.02,0.024,-0.005,0.044,-0.117,0.078,0.098,-0.034,0.0
2.568,0.029,0.01,-0.02,-0.02,0.024,-0.005,0.044,-0.122,0.078,0.098,-0.034,0.0
2.57,0.029,0.01,-0.02,-0.02,0.024,-0.005,0.039,-0.122,0.078,0.093,-0.039,-0.005
2.572,0.024,0.005,-0.02,-0.015,0.02,-0.01,0.039,-0.112,0.078,0.093,-0.039,-0.005
2.574,0.024,0.015,-0.01,-0.02,0.015,0.0,0.049,-0.122,0.068,0.093,-0.034,0.005
2.576,0.029,0.015,-0.015,-0.02,0.02,0.0,0.049,-0.127,0.063,0.093,-0.034,-0.005
2.578,0.029,0.015,-0.015,-0.02,0.02,0.0,0.049,-0.127,0.063,0.093,-0.034,-0.005
2.58,0.029,0.015,-0.015,-0.02,0.02,0.0,0.049,-0.122,0.063,0.098,-0.034,0.0
2.582,0.024,0.0,-0.024,-0.01,0.024,-0.015,0.039,-0.122,0.063,0.098,-0.044,0.0
2.584,0.02,0.0,-0.02,-0.01,0.02,-0.01,0.039,-0.127,0.054,0.093,-0.049,-0.01
2.586,0.015,0.005,-0.01,-0.01,0.01,-0.005,0.039,-0.127,0.054,0.093,-0.049,-0.01
2.588,0.01,0.005,-0.005,-0.005,0.005,0.0,0.029,-0.127,0.054,0.093,-0.049,-0.005
2.59,0.02,0.015,-0.005,-0.015,0.01,0.005,0.02,-0.127,0.054,0.093,-0.039,-0.005
2.592,0.02,0.01,-0.01,-0.015,0.015,0.0,0.024,-0.127,0.059,0.093,-0.039,-0.005
2.594,0.02,0.01,-0.01,-0.015,0.015,0.0,0.029,-0.127,0.059,0.093,-0.039,0.0
2.596,0.02,0.01,-0.01,-0.015,0.015,0.0,0.029,-0.127,0.059,0.088,-0.039,0.0
2.598,0.029,0.015,-0.015,-0.02,0.02,0.0,0.024,-0.132,0.054,0.083,-0.054,-0.01
2.6,0.029,0.015,-0.015,-0.02,0.02,0.0,0.024,-0.142,0.054,0.083,-0.054,-0.015
2.602,0.029,0.015,-0.015,-0.02,0.02,0.0,0.024,-0.142,0.054,0.088,-0.054,-0.015
2.604,0.029,0.015,-0.015,-0.02,0.02,0.0,0.024,-0.142,0.054,0.088,-0.054,-0.01
2.606,0.029,0.015,-0.015,-0.02,0.02,0.0,0.024,-0.151,0.044,0.083,-0.054,-0.01
2.608,0.034,0.015,-0.02,-0.024,0.024,-0.005,0.024,-0.151,0.044,0.078,-0.054,-0.005
2.61,0.034,0.015,-0.02,-0.024,0.024,-0.005,0.02,-0.151,0.034,0.078,-0.054,-0.005
2.612,0.034,0.015,-0.02,-0.024,0.024,-0.005,0.02,-0.151,0.034,0.078,-0.054,-0.01
2.614,0.029,0.01,-0.02,-0.02,0.024,-0.005,0.029,-0.142,0.044,0.088,-0.054,-0.01
2.616,0.024,0.015,-0.01,-0.02,0.015,0.0,0.029,-0.142,0.049,0.088,-0.049,-0.005
2.618,0.02,0.015,-0.005,-0.015,0.01,0.005,0.029,-0.142,0.049,0.088,-0.049,-0.005
2.62,0.015,0.005,-0.01,-0.01,0.01,-0.005,0.029,-0.142,0.049,0.093,-0.049,-0.005
2.622,0.02,-0.005,-0.024,-0.005,0.02,-0.015,0.029,-0.142,0.049,0.093,-0.049,-0.005
2.624,0.02,-0.005,-0.024,-0.005,0.02,-0.015,0.029,-0.146,0.049,0.093,-0.049,0.0
2.626,0.02,0.0,-0.02,-0.01,0.02,-0.01,0.029,-0.146,0.049,0.093,-0.049,0.0
2.628,0.02,0.0,-0.02,-0.01,0.02,-0.01,0.029,-0.146,0.049,0.093,-0.049,0.0
2.63,0.01,-0.01,-0.02,0.0,0.015,-0.015,0.029,-0.146,0.044,0.083,-0.049,-0.005
2.632,0.01,-0.015,-0.024,0.005,0.015,-0.02,0.029,-0.146,0.044,0.083,-0.054,-0.005
2.634,0.01,-0.015,-0.024,0.005,0.015,-0.02,0.029,-0.146,0.044,0.088,-0.054,-0.015
2.636,0.01,-0.01,-0.02,0.0,0.015,-0.015,0.029,-0.146,0.044,0.088,-0.054,-0.015
2.638,0.005,-0.005,-0.01,0.0,0.005,-0.01,0.029,-0.161,0.034,0.098,-0.054,-0.005
2.64,0.01,-0.005,-0.015,0.0,0.01,-0.01,0.029,-0.161,0.039,0.098,-0.049,-0.005
2.642,0.02,0.0,-0.02,-0.01,0.02,-0.01,0.029,-0.156,0.039,0.098,-0.049,-0.005
2.644,0.024,0.01,-0.015,-0.015,0.02,-0.005,0.029,-0.156,0.039,0.098,-0.049,-0.01
2.646,0.024,0.015,-0.01,-0.02,0.015,0.0,0.015,-0.156,0.034,0.088,-0.059,-0.01
2.648,0.024,0.015,-0.01,-0.02,0.015,0.0,0.015,-0.156,0.034,0.088,-0.059,-0.01
2.65,0.015,0.01,-0.005,-0.01,0.01,0.0,0.02,-0.156,0.034,0.088,-0.059,-0.005
2.652,0.015,0.01,-0.005,-0.01,0.01,0.0,0.02,-0.156,0.034,0.088,-0.059,0.0
2.654,0.015,0.0,-0.015,-0.005,0.015,-0.01,0.01,-0.146,0.029,0.098,-0.049,0.0
2.656,0.015,-0.005,-0.02,-0.005,0.015,-0.015,0.005,-0.151,0.024,0.102,-0.049,0.0
2.658,0.01,-0.005,-0.015,0.0,0.01,-0.01,0.005,-0.151,0.02,0.102,-0.049,0.0
2.66,0.005,-0.005,-0.01,0.0,0.005,-0.01,0.01,-0.161,0.015,0.102,-0.049,0.0
2.662,0.005,0.0,-0.005,0.0,0.005,-0.005,0.01,-0.161,0.015,0.098,-0.054,0.0
2.664,0.005,0.0,-0.005,0.0,0.005,-0.005,0.01,-0.156,0.015,0.093,-0.054,0.0
2.666,0.01,-0.005,-0.015,0.0,0.01,-0.01,0.01,-0.156,0.015,0.088,-0.059,0.0
2.668,0.01,-0.01,-0.02,0.0,0.015,-0.015,0.01,-0.156,0.015,0.083,-0.063,-0.01
2.67,0.029,0.005,-0.024,-0.015,0.024,-0.01,0.0,-0.166,0.015,0.073,-0.073,-0.005
2.672,0.039,0.01,-0.029,-0.024,0.034,-0.01,0.0,-0.156,0.02,0.078,-0.068,0.0
2.674,0.034,0.01,-0.024,-0.02,0.029,-0.01,0.0,-0.161,0.015,0.068,-0.068,-0.01
2.676,0.029,0.01,-0.02,-0.02,0.024,-0.005,0.0,-0.166,0.01,0.068,-0.068,-0.01
2.678,0.024,0.01,-0.015,-0.015,0.02,-0.005,0.0,-0.171,0.005,0.068,-0.068,-0.01
2.68,0.02,0.01,-0.01,-0.015,0.015,0.0,0.0,-0.176,0.0,0.068,-0.068,-0.01
2.682,0.02,0.0,-0.02,-0.01,0.02,-0.01,0.01,-0.176,0.0,0.078,-0.068,-0.01
2.684,0.02,0.0,-0.02,-0.01,0.02,-0.01,0.01,-0.176,0.0,0.078,-0.068,-0.01
2.686,0.02,0.0,-0.02,-0.01,0.02,-0.01,0.01,-0.176,0.0,0.078,-0.068,-0.01
2.688,0.02,0.0,-0.02,-0.01,0.02,-0.01,0.01,-0.176,0.0,0.078,-0.068,-0.01
2.69,0.01,0.0,-0.01,-0.005,0.01,-0.005,0.01,-0.166,0.01,0.088,-0.068,0.0
2.692,0.01,0.0,-0.01,-0.005,0.01,-0.005,0.01,-0.166,0.01,0.088,-0.068,0.0
2.694,0.01,0.0,-0.01,-0.005,0.01,-0.005,0.01,-0.166,0.01,0.088,-0.068,0.0
2.696,0.01,0.0,-0.01,-0.005,0.01,-0.005,0.01,-0.166,0.01,0.088,-0.068,0.0
2.698,0.02,0.01,-0.01,-0.015,0.015,0.0,0.0,-0.166,0.005,0.078,-0.078,-0.01
2.7,0.02,0.01,-0.01,-0.015,0.015,0.0,0.0,-0.166,0.0,0.078,-0.078,-0.01
2.702,0.02,0.01,-0.01,-0.015,0.015,0.0,0.0,-0.166,-0.005,0.078,-0.078,-0.01
2.704,0.02,0.01,-0.01,-0.015,0.015,0.0,0.0,-0.166,-0.01,0.078,-0.078,-0.01
2.706,0.01,0.0,-0.01,-0.005,0.01,-0.005,0.01,-0.176,-0.02,0.078,-0.078,-0.01
2.708,0.01,0.0,-0.01,-0.005,0.01,-0.005,0.01,-0.176,-0.02,0.078,-0.078,-0.01
2.71,0.01,0.0,-0.01,-0.005,0.01,-0.005,0.01,-0.176,-0.02,0.078,-0.078,-0.01
2.712,0.01,0.0,-0.01,-0.005,0.01,-0.005,0.01,-0.176,-0.02,0.078,-0.078,-0.01
2.714,0.02,0.0,-0.02,-0.01,0.02,-0.01,0.0,-0.176,-0.01,0.078,-0.078,-0.01
2.716,0.02,0.0,-0.02,-0.01,0.02,-0.01,0.0,-0.176,-0.01,0.078,-0.078,-0.01
2.718,0.02,0.0,-0.02,-0.01,0.02,-0.01,0.0,-0.176,-0.01,0.078,-0.078,-0.01
2.72,0.02,0.0,-0.02,-0.01,0.02,-0.01,0.0,-0.176,-0.01,0.078,-0.078,-0.01
2.722,0.02,-0.01,-0.029,-0.005,0.024,-0.02,0.01,-0.166,-0.02,0.078,-0.078,0.0
2.724,0.02,-0.01,-0.029,-0.005,0.024,-0.02,0.01,-0.166,-0.02,0.078,-0.078,0.0
2.726,0.02,-0.01,-0.029,-0.005,0.024,-0.02,0.01,-0.166,-0.02,0.078,-0.078,0.0
2.728,0.02,-0.01,-0.029,-0.005,0.024,-0.02,0.01,-0.166,-0.02,0.078,-0.078,0.0
2.73,0.029,0.0,-0.029,-0.015,0.029,-0.015,0.0,-0.166,-0.02,0.078,-0.078,0.01
2.732,0.029,0.0,-0.029,-0.015,0.029,-0.015,0.0,-0.166,-0.02,0.078,-0.078,0.01
2.734,0.029,0.0,-0.029,-0.015,0.029,-0.015,0.0,-0.166,-0.02,0.078,-0.078,0.01
2.736,0.029,0.0,-0.029,-0.015,0.029,-0.015,0.0,-0.166,-0.02,0.078,-0.078,0.01
2.738,0.024,0.01,-0.015,-0.015,0.02,-0.005,0.0,-0.176,-0.029,0.068,-0.078,0.005
2.74,0.02,0.01,-0.01,-0.015,0.015,0.0,0.0,-0.176,-0.029,0.068,-0.078,0.0
2.742,0.015,0.01,-0.005,-0.01,0.01,0.0,0.0,-0.176,-0.029,0.068,-0.078,-0.005
2.744,0.01,0.01,0.0,-0.01,0.005,0.005,0.0,-0.176,-0.029,0.068,-0.078,-0.01
2.746,0.015,0.01,-0.005,-0.01,0.01,0.0,-0.01,-0.176,-0.039,0.068,-0.088,0.0
2.748,0.02,0.01,-0.01,-0.015,0.015,0.0,-0.01,-0.176,-0.039,0.068,-0.088,0.0
2.75,0.024,0.01,-0.015,-0.015,0.02,-0.005,-0.01,-0.176,-0.039,0.068,-0.088,0.0
2.752,0.029,0.01,-0.02,-0.02,0.024,-0.005,-0.01,-0.176,-0.039,0.068,-0.088,0.0
2.754,0.015,0.01,-0.005,-0.01,0.01,0.0,0.0,-0.176,-0.039,0.068,-0.088,0.0
2.756,0.01,0.01,0.0,-0.01,0.005,0.005,0.0,-0.176,-0.039,0.068,-0.088,0.0
2.758,0.005,0.01,0.005,-0.005,0.0,0.005,0.0,-0.176,-0.039,0.068,-0.088,0.0
2.76,0.0,0.01,0.01,-0.005,-0.005,0.01,0.0,-0.176,-0.039,0.068,-0.088,0.0
2.762,0.0,0.0,0.0,0.0,0.0,0.0,0.0,-0.176,-0.039,0.068,-0.088,-0.01
2.764,0.0,0.0,0.0,0.0,0.0,0.0,0.0,-0.176,-0.039,0.068,-0.088,-0.01
2.766,0.0,0.0,0.0,0.0,0.0,0.0,0.0,-0.176,-0.039,0.068,-0.088,-0.01
2.768,0.0,0.0,0.0,0.0,0.0,0.0,0.0,-0.176,-0.039,0.068,-0.088,-0.01
2.77,0.01,0.01,0.0,-0.01,0.005,0.005,0.0,-0.176,-0.039,0.068,-0.098,-0.01
2.772,0.01,0.01,0.0,-0.01,0.005,0.005,0.0,-0.176,-0.039,0.068,-0.098,-0.01
2.774,0.01,0.01,0.0,-0.01,0.005,0.005,0.0,-0.176,-0.039,0.068,-0.098,-0.01
2.776,0.01,0.01,0.0,-0.01,0.005,0.005,0.0,-0.176,-0.039,0.068,-0.098,-0.01
2.778,0.01,0.02,0.01,-0.015,0.0,0.015,-0.01,-0.176,-0.049,0.068,-0.098,0.0
2.78,0.01,0.02,0.01,-0.015,0.0,0.015,-0.01,-0.176,-0.049,0.068,-0.098,0.0
2.782,0.01,0.02,0.01,-0.015,0.0,0.015,-0.01,-0.176,-0.049,0.068,-0.098,0.0
2.784,0.01,0.02,0.01,-0.015,0.0,0.015,-0.01,-0.176,-0.049,0.068,-0.098,0.0
2.786,0.01,0.01,0.0,-0.01,0.005,0.005,-0.01,-0.176,-0.049,0.059,-0.098,-0.005
2.788,0.01,0.01,0.0,-0.01,0.005,0.005,-0.01,-0.176,-0.049,0.059,-0.098,-0.01
2.79,0.01,0.01,0.0,-0.01,0.005,0.005,-0.01,-0.176,-0.049,0.059,-0.098,-0.015
2.792,0.01,0.01,0.0,-0.01,0.005,0.005,-0.01,-0.176,-0.049,0.059,-0.098,-0.02
2.794,0.01,0.01,0.0,-0.01,0.005,0.005,-0.01,-0.176,-0.049,0.068,-0.088,-0.01
2.796,0.01,0.01,0.0,-0.01,0.005,0.005,-0.01,-0.176,-0.049,0.068,-0.088,-0.01
2.798,0.01,0.01,0.0,-0.01,0.005,0.005,-0.01,-0.176,-0.049,0.068,-0.088,-0.01
2.8,0.01,0.01,0.0,-0.01,0.005,0.005,-0.01,-0.176,-0.049,0.068,-0.088,-0.01
2.802,0.01,0.01,0.0,-0.01,0.005,0.005,-0.02,-0.185,-0.059,0.059,-0.098,-0.01
2.804,0.01,0.01,0.0,-0.01,0.005,0.005,-0.02,-0.185,-0.059,0.059,-0.098,-0.01
2.806,0.01,0.01,0.0,-0.01,0.005,0.005,-0.02,-0.185,-0.059,0.059,-0.098,-0.01
2.808,0.01,0.01,0.0,-0.01,0.005,0.005,-0.02,-0.185,-0.059,0.059,-0.098,-0.01
2.81,0.0,0.01,0.01,-0.005,-0.005,0.01,-0.029,-0.176,-0.059,0.059,-0.102,-0.02
2.812,0.0,0.01,0.01,-0.005,-0.005,0.01,-0.029,-0.176,-0.059,0.059,-0.107,-0.02
2.814,0.0,0.01,0.01,-0.005,-0.005,0.01,-0.029,-0.176,-0.059,0.059,-0.112,-0.02
2.816,0.0,0.01,0.01,-0.005,-0.005,0.01,-0.029,-0.176,-0.059,0.059,-0.117,-0.02
2.818,0.0,0.01,0.01,-0.005,-0.005,0.01,-0.02,-0.176,-0.059,0.068,-0.112,-0.015
2.82,0.0,0.01,0.01,-0.005,-0.005,0.01,-0.02,-0.176,-0.059,0.068,-0.107,-0.01
2.822,0.0,0.01,0.01,-0.005,-0.005,0.01,-0.02,-0.176,-0.059,0.068,-0.102,-0.005
2.824,0.0,0.01,0.01,-0.005,-0.005,0.01,-0.02,-0.176,-0.059,0.068,-0.098,0.0
2.826,0.0,0.01,0.01,-0.005,-0.005,0.01,-0.02,-0.166,-0.059,0.078,-0.088,0.01
2.828,0.0,0.01,0.01,-0.005,-0.005,0.01,-0.02,-0.166,-0.059,0.078,-0.088,0.01
2.83,0.0,0.01,0.01,-0.005,-0.005,0.01,-0.02,-0.166,-0.059,0.078,-0.088,0.01
2.832,0.0,0.01,0.01,-0.005,-0.005,0.01,-0.02,-0.166,-0.059,0.078,-0.088,0.01
2.834,-0.015,0.0,0.015,0.01,-0.015,0.005,-0.01,-0.166,-0.049,0.088,-0.088,0.01
2.836,-0.02,0.0,0.02,0.01,-0.02,0.01,-0.01,-0.166,-0.049,0.088,-0.088,0.01
2.838,-0.024,0.0,0.024,0.015,-0.024,0.01,-0.01,-0.166,-0.049,0.088,-0.088,0.01
2.84,-0.029,0.0,0.029,0.015,-0.029,0.015,-0.01,-0.166,-0.049,0.088,-0.088,0.01
2.842,-0.044,0.0,0.044,0.024,-0.044,0.02,-0.01,-0.166,-0.059,0.088,-0.078,0.01
2.844,-0.049,0.0,0.049,0.024,-0.049,0.024,-0.01,-0.166,-0.059,0.088,-0.078,0.01
2.846,-0.054,0.0,0.054,0.029,-0.054,0.024,-0.01,-0.166,-0.059,0.088,-0.078,0.01
2.848,-0.059,0.0,0.059,0.029,-0.059,0.029,-0.01,-0.166,-0.059,0.088,-0.078,0.01
2.85,-0.063,0.01,0.073,0.029,-0.068,0.039,-0.005,-0.161,-0.054,0.093,-0.073,0.024
2.852,-0.068,0.01,0.078,0.029,-0.073,0.044,0.0,-0.156,-0.049,0.098,-0.068,0.029
2.854,-0.073,0.01,0.083,0.034,-0.078,0.044,0.005,-0.151,-0.044,0.102,-0.063,0.034
2.856,-0.078,0.01,0.088,0.034,-0.083,0.049,0.01,-0.146,-0.039,0.107,-0.059,0.039
2.858,-0.078,0.01,0.088,0.034,-0.083,0.049,0.0,-0.146,-0.049,0.098,-0.068,0.029
2.86,-0.078,0.01,0.088,0.034,-0.083,0.049,0.0,-0.146,-0.049,0.098,-0.068,0.029
2.862,-0.078,0.01,0.088,0.034,-0.083,0.049,0.0,-0.146,-0.049,0.098,-0.068,0.029
2.864,-0.078,0.01,0.088,0.034,-0.083,0.049,0.0,-0.146,-0.049,0.098,-0.068,0.029
2.866,-0.083,0.01,0.093,0.039,-0.088,0.049,-0.01,-0.146,-0.049,0.098,-0.068,0.029
2.868,-0.088,0.01,0.098,0.039,-0.093,0.054,-0.01,-0.146,-0.049,0.098,-0.068,0.029
2.87,-0.093,0.01,0.102,0.044,-0.098,0.054,-0.01,-0.146,-0.049,0.098,-0.068,0.029
2.872,-0.098,0.01,0.107,0.044,-0.102,0.059,-0.01,-0.146,-0.049,0.098,-0.068,0.029
2.874,-0.107,0.0,0.107,0.054,-0.107,0.054,0.0,-0.146,-0.049,0.098,-0.068,0.039
2.876,-0.107,0.0,0.107,0.054,-0.107,0.054,0.0,-0.146,-0.049,0.098,-0.068,0.039
2.878,-0.107,0.0,0.107,0.054,-0.107,0.054,0.0,-0.146,-0.049,0.098,-0.068,0.039
2.88,-0.107,0.0,0.107,0.054,-0.107,0.054,0.0,-0.146,-0.049,0.098,-0.068,0.039
2.882,-0.098,0.01,0.107,0.044,-0.102,0.059,0.0,-0.146,-0.049,0.098,-0.068,0.029
2.884,-0.098,0.01,0.107,0.044,-0.102,0.059,0.0,-0.146,-0.049,0.098,-0.068,0.029
2.886,-0.098,0.01,0.107,0.044,-0.102,0.059,0.0,-0.146,-0.049,0.098,-0.068,0.029
2.888,-0.098,0.01,0.107,0.044,-0.102,0.059,0.0,-0.146,-0.049,0.098,-0.068,0.029
2.89,-0.107,0.02,0.127,0.044,-0.117,0.073,-0.01,-0.146,-0.049,0.107,-0.059,0.039
2.892,-0.107,0.02,0.127,0.044,-0.117,0.073,-0.01,-0.146,-0.049,0.107,-0.059,0.039
2.894,-0.107,0.02,0.127,0.044,-0.117,0.073,-0.01,-0.146,-0.049,0.107,-0.059,0.039
2.896,-0.107,0.02,0.127,0.044,-0.117,0.073,-0.01,-0.146,-0.049,0.107,-0.059,0.039
2.898,-0.102,0.015,0.117,0.044,-0.112,0.063,-0.01,-0.146,-0.059,0.102,-0.063,0.029
2.9,-0.098,0.01,0.107,0.044,-0.102,0.059,-0.01,-0.146,-0.059,0.098,-0.068,0.029
2.902,-0.093,0.005,0.098,0.044,-0.098,0.049,-0.01,-0.146,-0.059,0.093,-0.073,0.029
2.904,-0.088,0.0,0.088,0.044,-0.088,0.044,-0.01,-0.146,-0.059,0.088,-0.078,0.029
2.906,-0.088,0.0,0.088,0.044,-0.088,0.044,-0.01,-0.156,-0.068,0.088,-0.078,0.029
2.908,-0.088,0.0,0.088,0.044,-0.088,0.044,-0.01,-0.156,-0.068,0.088,-0.078,0.029
2.91,-0.088,0.0,0.088,0.044,-0.088,0.044,-0.01,-0.156,-0.068,0.088,-0.078,0.029
2.912,-0.088,0.0,0.088,0.044,-0.088,0.044,-0.01,-0.156,-0.068,0.088,-0.078,0.029
2.914,-0.078,0.01,0.088,0.034,-0.083,0.049,-0.02,-0.156,-0.078,0.078,-0.088,0.02
2.916,-0.078,0.01,0.088,0.034,-0.083,0.049,-0.02,-0.156,-0.078,0.078,-0.088,0.02
2.918,-0.078,0.01,0.088,0.034,-0.083,0.049,-0.02,-0.156,-0.078,0.078,-0.088,0.02
2.92,-0.078,0.01,0.088,0.034,-0.083,0.049,-0.02,-0.156,-0.078,0.078,-0.088,0.02
2.922,-0.068,0.0,0.068,0.034,-0.068,0.034,-0.029,-0.166,-0.088,0.078,-0.088,0.02
2.924,-0.068,0.0,0.068,0.034,-0.068,0.034,-0.029,-0.166,-0.088,0.078,-0.088,0.02
2.926,-0.068,0.0,0.068,0.034,-0.068,0.034,-0.029,-0.166,-0.088,0.078,-0.088,0.02
2.928,-0.068,0.0,0.068,0.034,-0.068,0.034,-0.029,-0.166,-0.088,0.078,-0.088,0.02
2.93,-0.063,0.0,0.063,0.034,-0.063,0.029,-0.02,-0.166,-0.088,0.078,-0.088,0.02
2.932,-0.059,0.0,0.059,0.029,-0.059,0.029,-0.02,-0.166,-0.088,0.078,-0.088,0.02
2.934,-0.054,0.0,0.054,0.029,-0.054,0.024,-0.02,-0.166,-0.088,0.078,-0.088,0.02
2.936,-0.049,0.0,0.049,0.024,-0.049,0.024,-0.02,-0.166,-0.088,0.078,-0.088,0.02
2.938,-0.054,0.005,0.059,0.024,-0.059,0.029,-0.029,-0.176,-0.088,0.068,-0.098,0.029
2.94,-0.059,0.01,0.068,0.024,-0.063,0.039,-0.029,-0.176,-0.088,0.068,-0.098,0.029
2.942,-0.063,0.015,0.078,0.024,-0.073,0.044,-0.029,-0.176,-0.088,0.068,-0.098,0.029
2.944,-0.068,0.02,0.088,0.024,-0.078,0.054,-0.029,-0.176,-0.088,0.068,-0.098,0.029
