time,I,II,III,aVR,aVL,aVF,V1,V2,V3,V4,V5,V6
0.0,0.005,0.029,0.024,-0.015,-0.01,0.024,0.049,0.039,0.19,0.034,0.068,0.049
0.002,-0.01,0.01,0.02,0.0,-0.015,0.015,0.039,0.034,0.181,0.034,0.063,0.044
0.004,-0.029,-0.005,0.024,0.02,-0.029,0.01,0.034,0.034,0.176,0.024,0.059,0.034
0.006,0.0,-0.005,-0.005,0.005,0.0,-0.005,0.024,0.02,0.161,0.015,0.049,0.02
0.008,-0.024,-0.02,0.005,0.024,-0.015,-0.01,0.024,0.02,0.161,0.015,0.044,0.024
0.01,-0.005,-0.01,-0.005,0.01,0.0,-0.01,0.029,0.024,0.161,0.02,0.054,0.029
0.012,0.005,0.015,0.01,-0.01,-0.005,0.01,0.039,0.034,0.166,0.024,0.059,0.024
0.014,-0.029,-0.005,0.024,0.02,-0.029,0.01,0.039,0.034,0.166,0.024,0.054,0.02
0.016,-0.044,-0.015,0.029,0.029,-0.039,0.005,0.039,0.034,0.166,0.024,0.054,0.02
0.018,-0.015,-0.01,0.005,0.015,-0.01,-0.005,0.034,0.029,0.161,0.024,0.054,0.024
0.02,-0.02,-0.005,0.015,0.015,-0.02,0.005,0.034,0.029,0.161,0.029,0.054,0.034
0.022,0.01,0.015,0.005,-0.01,0.0,0.01,0.039,0.034,0.166,0.034,0.059,0.039
0.024,0.034,0.039,0.005,-0.034,0.015,0.02,0.039,0.034,0.166,0.034,0.063,0.044
0.026,0.054,0.024,-0.029,-0.039,0.039,-0.005,0.024,0.02,0.156,0.02,0.044,0.02
0.028,0.024,-0.005,-0.029,-0.01,0.024,-0.02,0.015,0.015,0.146,0.01,0.034,0.01
0.03,-0.029,-0.015,0.015,0.024,-0.024,0.0,0.024,0.02,0.151,0.02,0.044,0.02
0.032,-0.054,-0.024,0.029,0.039,-0.044,0.0,0.034,0.029,0.161,0.029,0.054,0.029
0.034,-0.054,-0.015,0.039,0.034,-0.049,0.01,0.039,0.034,0.161,0.034,0.059,0.034
0.036,-0.024,0.015,0.039,0.005,-0.034,0.024,0.034,0.029,0.151,0.024,0.044,0.024
0.038,-0.034,-0.029,0.005,0.034,-0.02,-0.015,0.024,0.015,0.142,0.015,0.034,0.005
0.04,-0.029,-0.024,0.005,0.029,-0.02,-0.01,0.034,0.024,0.146,0.02,0.044,0.02
0.042,0.01,0.015,0.005,-0.01,0.0,0.01,0.034,0.024,0.146,0.02,0.049,0.02
0.044,0.015,-0.01,-0.024,0.0,0.02,-0.02,0.039,0.039,0.156,0.029,0.054,0.029
0.046,0.005,0.0,-0.005,0.0,0.005,-0.005,0.039,0.034,0.151,0.034,0.054,0.039
0.048,-0.024,0.034,0.059,-0.005,-0.044,0.044,0.034,0.034,0.151,0.024,0.049,0.024
0.05,-0.02,0.015,0.034,0.005,-0.029,0.024,0.029,0.024,0.137,0.015,0.039,0.01
0.052,-0.024,-0.01,0.015,0.02,-0.02,0.0,0.034,0.034,0.146,0.034,0.059,0.029
0.054,-0.049,-0.044,0.005,0.049,-0.029,-0.02,0.024,0.02,0.132,0.02,0.049,0.02
0.056,-0.005,-0.02,-0.015,0.015,0.005,-0.02,0.02,0.02,0.132,0.01,0.034,0.015
0.058,0.0,0.015,0.015,-0.005,-0.01,0.015,0.029,0.029,0.137,0.015,0.039,0.015
0.06,-0.015,0.0,0.015,0.01,-0.015,0.005,0.024,0.02,0.132,0.005,0.034,0.005
0.062,-0.015,-0.01,0.005,0.015,-0.01,-0.005,0.034,0.029,0.132,0.015,0.039,0.005
0.064,0.01,0.01,0.0,-0.01,0.005,0.005,0.034,0.029,0.146,0.02,0.049,0.015
0.066,-0.024,0.005,0.029,0.01,-0.029,0.015,0.034,0.034,0.146,0.02,0.054,0.024
0.068,-0.054,-0.024,0.029,0.039,-0.044,0.0,0.029,0.029,0.142,0.02,0.054,0.015
0.07,-0.029,-0.005,0.024,0.02,-0.029,0.01,0.029,0.024,0.132,0.02,0.049,0.015
0.072,0.044,0.049,0.005,-0.044,0.02,0.024,0.034,0.034,0.142,0.029,0.049,0.015
0.074,-0.015,0.0,0.015,0.01,-0.015,0.005,0.029,0.024,0.127,0.02,0.039,0.015
0.076,-0.098,-0.083,0.015,0.093,-0.059,-0.034,0.01,0.0,0.102,0.0,0.015,-0.01
0.078,-0.107,-0.098,0.01,0.102,-0.059,-0.044,0.0,-0.01,0.088,-0.01,0.01,-0.02
0.08,-0.005,0.034,0.039,-0.015,-0.024,0.034,0.049,0.039,0.137,0.034,0.059,0.024
0.082,0.015,0.054,0.039,-0.034,-0.015,0.044,0.063,0.049,0.146,0.049,0.068,0.039
0.084,0.02,0.02,0.0,-0.02,0.01,0.01,0.039,0.024,0.122,0.02,0.039,0.024
0.086,-0.039,-0.039,0.0,0.039,-0.02,-0.02,0.02,0.01,0.107,0.005,0.024,0.015
0.088,-0.024,-0.02,0.005,0.024,-0.015,-0.01,0.024,0.005,0.102,0.005,0.024,0.005
0.09,-0.005,0.005,0.01,0.0,-0.01,0.005,0.034,0.024,0.117,0.015,0.039,0.015
0.092,0.02,0.005,-0.015,-0.01,0.015,-0.005,0.02,0.01,0.102,0.005,0.024,0.005
0.094,0.015,0.015,0.0,-0.015,0.005,0.005,0.029,0.02,0.107,0.02,0.034,0.01
0.096,-0.01,-0.005,0.005,0.01,-0.01,0.0,0.024,0.01,0.098,0.015,0.029,0.0
0.098,-0.01,-0.015,-0.005,0.015,-0.005,-0.01,0.02,0.01,0.093,0.01,0.024,0.0
0.1,0.0,0.01,0.01,-0.005,-0.005,0.01,0.034,0.02,0.107,0.02,0.039,0.015
0.102,-0.005,0.0,0.005,0.005,-0.005,0.0,0.029,0.02,0.107,0.015,0.039,0.0
0.104,-0.024,0.0,0.024,0.015,-0.024,0.01,0.039,0.034,0.117,0.029,0.044,0.01
0.106,0.005,0.0,-0.005,0.0,0.005,-0.005,0.039,0.029,0.112,0.024,0.034,0.01
0.108,-0.039,-0.034,0.005,0.039,-0.024,-0.015,0.024,0.015,0.098,0.01,0.024,0.005
0.11,-0.063,-0.015,0.049,0.039,-0.059,0.015,0.034,0.029,0.102,0.02,0.034,0.015
0.112,-0.01,0.024,0.034,-0.005,-0.024,0.029,0.034,0.029,0.107,0.024,0.039,0.02
0.114,0.034,0.039,0.005,-0.034,0.015,0.02,0.034,0.029,0.107,0.02,0.034,0.01
0.116,0.02,0.02,0.0,-0.02,0.01,0.01,0.024,0.02,0.093,0.015,0.024,0.005
0.118,-0.034,-0.024,0.01,0.029,-0.024,-0.01,0.024,0.015,0.083,0.005,0.02,0.0
0.12,-0.029,-0.01,0.02,0.02,-0.024,0.005,0.024,0.01,0.078,0.005,0.02,-0.005
0.122,0.005,0.0,-0.005,0.0,0.005,-0.005,0.02,0.01,0.078,0.01,0.024,-0.005
0.124,-0.005,0.015,0.02,-0.005,-0.015,0.015,0.029,0.015,0.088,0.015,0.029,0.005
0.126,-0.02,0.02,0.039,0.0,-0.029,0.029,0.034,0.024,0.093,0.015,0.034,0.005
0.128,0.0,0.024,0.024,-0.01,-0.015,0.024,0.034,0.024,0.093,0.015,0.034,0.01
0.13,0.0,-0.005,-0.005,0.005,0.0,-0.005,0.024,0.02,0.083,0.01,0.029,-0.005
0.132,-0.005,-0.01,-0.005,0.01,0.0,-0.01,0.02,0.02,0.078,0.005,0.024,-0.005
0.134,-0.029,-0.024,0.005,0.029,-0.02,-0.01,0.029,0.024,0.078,0.015,0.029,0.0
0.136,-0.063,-0.005,0.059,0.034,-0.063,0.024,0.044,0.034,0.088,0.024,0.039,0.01
0.138,-0.024,0.005,0.029,0.01,-0.029,0.015,0.034,0.029,0.083,0.02,0.034,0.0
0.14,-0.024,0.005,0.029,0.01,-0.029,0.015,0.029,0.024,0.078,0.024,0.039,0.01
0.142,-0.034,0.015,0.049,0.01,-0.044,0.029,0.034,0.024,0.078,0.02,0.039,0.01
0.144,-0.024,-0.01,0.015,0.02,-0.02,0.0,0.02,0.01,0.063,0.005,0.02,-0.015
0.146,-0.029,-0.029,0.0,0.029,-0.015,-0.015,0.01,0.0,0.054,0.0,0.005,-0.02
0.148,0.02,0.024,0.005,-0.02,0.005,0.015,0.024,0.01,0.063,0.01,0.015,0.005
0.15,0.039,0.044,0.005,-0.039,0.015,0.024,0.029,0.024,0.078,0.024,0.024,0.02
0.152,-0.024,0.015,0.039,0.005,-0.034,0.024,0.034,0.029,0.078,0.029,0.029,0.015
0.154,-0.068,-0.02,0.049,0.044,-0.059,0.015,0.029,0.02,0.063,0.02,0.02,0.0
0.156,-0.029,-0.005,0.024,0.02,-0.029,0.01,0.024,0.02,0.063,0.02,0.024,-0.01
0.158,0.01,0.034,0.024,-0.02,-0.01,0.029,0.034,0.029,0.073,0.029,0.029,0.01
0.16,-0.01,0.01,0.02,0.0,-0.015,0.015,0.024,0.02,0.068,0.015,0.015,0.005
0.162,-0.01,0.015,0.024,0.0,-0.02,0.02,0.034,0.024,0.073,0.02,0.015,0.0
0.164,-0.005,0.024,0.029,-0.01,-0.02,0.024,0.039,0.034,0.078,0.029,0.029,0.01
0.166,-0.029,0.01,0.039,0.01,-0.034,0.024,0.034,0.034,0.068,0.029,0.024,0.01
0.168,-0.049,-0.015,0.034,0.034,-0.044,0.01,0.024,0.02,0.059,0.02,0.015,-0.015
0.17,-0.01,0.02,0.029,-0.005,-0.02,0.024,0.034,0.034,0.073,0.034,0.029,-0.005
0.172,-0.034,0.005,0.039,0.015,-0.039,0.02,0.039,0.039,0.078,0.039,0.029,-0.01
0.174,-0.093,-0.034,0.059,0.063,-0.078,0.01,0.034,0.039,0.068,0.034,0.024,-0.005
0.176,-0.049,0.015,0.063,0.02,-0.059,0.039,0.044,0.049,0.078,0.044,0.039,0.0
0.178,0.107,0.156,0.049,-0.132,0.029,0.102,0.093,0.093,0.122,0.088,0.078,0.059
0.18,0.078,0.137,0.059,-0.107,0.01,0.098,0.088,0.088,0.117,0.078,0.068,0.059
0.182,0.029,0.068,0.039,-0.049,-0.005,0.054,0.063,0.063,0.083,0.054,0.044,0.024
0.184,0.029,0.063,0.034,-0.044,-0.005,0.049,0.073,0.063,0.088,0.059,0.044,0.024
0.186,0.039,0.083,0.044,-0.059,-0.005,0.063,0.088,0.088,0.107,0.068,0.059,0.039
0.188,0.015,0.078,0.063,-0.044,-0.024,0.068,0.088,0.093,0.112,0.078,0.068,0.029
0.19,-0.02,0.063,0.083,-0.02,-0.054,0.073,0.088,0.088,0.102,0.073,0.063,0.034
0.192,-0.005,0.063,0.068,-0.029,-0.039,0.063,0.088,0.088,0.102,0.073,0.063,0.029
0.194,0.02,0.068,0.049,-0.044,-0.015,0.059,0.078,0.088,0.098,0.068,0.059,0.024
0.196,-0.005,0.059,0.063,-0.024,-0.034,0.059,0.078,0.088,0.093,0.068,0.063,0.024
0.198,0.0,0.054,0.054,-0.024,-0.029,0.054,0.078,0.088,0.093,0.068,0.063,0.024
0.2,0.015,0.054,0.039,-0.034,-0.015,0.044,0.078,0.093,0.098,0.073,0.073,0.024
0.202,0.0,0.059,0.059,-0.029,-0.029,0.059,0.088,0.107,0.107,0.083,0.078,0.034
0.204,-0.02,0.054,0.073,-0.015,-0.049,0.063,0.093,0.117,0.107,0.088,0.083,0.039
0.206,-0.015,0.049,0.063,-0.015,-0.039,0.054,0.078,0.117,0.112,0.083,0.078,0.029
0.208,-0.015,0.029,0.044,-0.005,-0.029,0.034,0.054,0.098,0.093,0.073,0.068,0.015
0.21,-0.024,0.034,0.059,-0.005,-0.044,0.044,0.024,0.073,0.068,0.054,0.063,0.015
0.212,0.01,0.088,0.078,-0.049,-0.034,0.083,0.02,0.073,0.068,0.059,0.063,0.024
0.214,0.054,0.063,0.01,-0.059,0.02,0.034,0.029,0.093,0.088,0.078,0.073,0.054
0.216,0.005,0.02,0.015,-0.01,-0.005,0.015,0.015,0.073,0.073,0.073,0.063,0.029
0.218,0.024,0.029,0.005,-0.024,0.01,0.015,-0.005,0.073,0.073,0.068,0.059,0.02
0.22,0.059,0.054,-0.005,-0.054,0.029,0.024,-0.01,0.073,0.068,0.073,0.063,0.024
0.222,0.044,0.054,0.01,-0.049,0.015,0.029,-0.01,0.073,0.063,0.068,0.059,0.02
0.224,0.0,0.01,0.01,-0.005,-0.005,0.01,-0.005,0.054,0.044,0.054,0.044,0.0
0.226,0.02,0.029,0.01,-0.024,0.005,0.02,0.005,0.063,0.049,0.059,0.049,0.015
0.228,0.029,0.034,0.005,-0.029,0.01,0.02,0.01,0.063,0.044,0.063,0.054,0.02
0.23,-0.034,0.0,0.034,0.02,-0.034,0.015,0.0,0.044,0.029,0.044,0.034,0.005
0.232,0.015,0.029,0.015,-0.02,0.0,0.02,0.005,0.044,0.029,0.044,0.034,0.01
0.234,0.029,0.029,0.0,-0.029,0.015,0.015,0.0,0.049,0.029,0.044,0.034,0.005
0.236,-0.015,0.005,0.02,0.005,-0.02,0.01,0.0,0.034,0.01,0.034,0.029,-0.005
0.238,-0.02,0.01,0.029,0.005,-0.024,0.02,0.0,0.029,0.01,0.029,0.024,-0.02
0.24,0.005,0.039,0.034,-0.02,-0.015,0.034,0.015,0.029,0.01,0.039,0.029,-0.005
0.242,0.029,0.073,0.044,-0.049,-0.01,0.059,0.015,0.034,0.01,0.044,0.029,0.0
0.244,0.059,0.063,0.005,-0.059,0.024,0.034,0.015,0.029,0.0,0.039,0.024,-0.005
0.246,0.039,0.039,0.0,-0.039,0.02,0.02,0.005,0.024,-0.015,0.029,0.01,-0.015
0.248,-0.015,0.005,0.02,0.005,-0.02,0.01,0.0,0.015,-0.015,0.015,0.0,-0.02
0.25,-0.044,0.0,0.044,0.024,-0.044,0.02,0.01,0.029,-0.005,0.029,0.015,-0.01
0.252,-0.039,0.01,0.049,0.015,-0.044,0.029,0.02,0.044,-0.005,0.039,0.02,-0.005
0.254,-0.01,0.005,0.015,0.005,-0.015,0.01,0.01,0.034,-0.015,0.024,0.01,-0.015
0.256,-0.029,-0.015,0.015,0.024,-0.024,0.0,0.005,0.02,-0.024,0.02,-0.005,-0.029
0.258,-0.005,-0.024,-0.02,0.015,0.005,-0.024,-0.01,0.005,-0.049,-0.005,-0.024,-0.044
0.26,-0.01,-0.02,-0.01,0.015,0.0,-0.015,-0.01,0.0,-0.049,0.005,-0.02,-0.044
0.262,-0.073,-0.059,0.015,0.068,-0.044,-0.024,-0.005,0.005,-0.049,0.0,-0.02,-0.039
0.264,-0.083,-0.068,0.015,0.078,-0.049,-0.029,-0.005,0.005,-0.054,0.0,-0.02,-0.039
0.266,-0.044,-0.034,0.01,0.039,-0.029,-0.015,0.005,0.01,-0.049,0.01,-0.005,-0.039
0.268,0.054,0.044,-0.01,-0.049,0.029,0.015,0.029,0.034,-0.029,0.024,0.015,-0.02
0.27,0.044,0.01,-0.034,-0.024,0.039,-0.015,0.005,0.015,-0.049,0.005,-0.01,-0.029
0.272,0.005,-0.01,-0.015,0.005,0.01,-0.015,0.0,0.0,-0.059,-0.005,-0.024,-0.054
0.274,-0.005,-0.024,-0.02,0.015,0.005,-0.024,-0.01,0.0,-0.083,-0.015,-0.029,-0.068
0.276,0.01,-0.005,-0.015,0.0,0.01,-0.01,0.005,0.0,-0.063,0.0,-0.01,-0.059
0.278,-0.015,-0.005,0.01,0.01,-0.015,0.0,0.005,0.01,-0.063,0.005,-0.01,-0.039
0.28,0.015,0.005,-0.01,-0.01,0.01,-0.005,0.005,0.005,-0.073,0.005,-0.02,-0.044
0.282,0.01,0.0,-0.01,-0.005,0.01,-0.005,-0.005,-0.005,-0.083,-0.005,-0.034,-0.063
0.284,-0.024,-0.01,0.015,0.02,-0.02,0.0,0.01,0.005,-0.073,0.005,-0.024,-0.054
0.286,-0.068,-0.01,0.059,0.039,-0.063,0.024,0.024,0.024,-0.059,0.02,-0.015,-0.034
0.288,-0.068,-0.02,0.049,0.044,-0.059,0.015,0.015,0.01,-0.068,0.005,-0.024,-0.044
0.29,-0.054,-0.005,0.049,0.029,-0.054,0.02,0.02,0.015,-0.063,0.01,-0.02,-0.034
0.292,-0.044,-0.005,0.039,0.024,-0.044,0.015,0.02,0.01,-0.068,0.01,-0.02,-0.034
0.294,-0.039,-0.01,0.029,0.024,-0.034,0.01,0.01,0.01,-0.078,0.0,-0.029,-0.049
0.296,-0.015,0.015,0.029,0.0,-0.024,0.02,0.02,0.01,-0.078,0.005,-0.024,-0.044
0.298,-0.005,0.01,0.015,0.0,-0.01,0.01,0.02,0.02,-0.083,0.01,-0.024,-0.044
0.3,-0.02,0.0,0.02,0.01,-0.02,0.01,0.01,0.01,-0.093,0.0,-0.034,-0.054
0.302,-0.068,-0.024,0.044,0.049,-0.059,0.01,0.0,0.01,-0.098,-0.005,-0.044,-0.059
0.304,-0.059,-0.034,0.024,0.049,-0.044,-0.005,0.005,0.005,-0.098,-0.005,-0.039,-0.059
0.306,-0.024,0.0,0.024,0.015,-0.024,0.01,0.015,0.02,-0.078,0.015,-0.024,-0.044
0.308,-0.044,0.0,0.044,0.024,-0.044,0.02,0.015,0.015,-0.088,0.01,-0.024,-0.049
0.31,-0.024,-0.01,0.015,0.02,-0.02,0.0,0.005,0.005,-0.102,0.0,-0.034,-0.068
0.312,-0.024,-0.01,0.015,0.02,-0.02,0.0,0.01,0.02,-0.093,0.005,-0.029,-0.063
0.314,-0.029,0.005,0.034,0.015,-0.034,0.02,0.015,0.02,-0.098,0.0,-0.039,-0.059
0.316,-0.039,-0.024,0.015,0.034,-0.029,-0.005,0.0,0.0,-0.112,-0.015,-0.054,-0.073
0.318,-0.015,0.005,0.02,0.005,-0.02,0.01,0.02,0.02,-0.102,0.005,-0.034,-0.054
0.32,-0.054,0.0,0.054,0.029,-0.054,0.024,0.024,0.024,-0.093,0.01,-0.029,-0.049
0.322,-0.063,-0.024,0.039,0.044,-0.054,0.005,0.01,0.015,-0.107,-0.005,-0.039,-0.059
0.324,-0.039,-0.005,0.034,0.024,-0.039,0.015,0.015,0.015,-0.098,0.005,-0.039,-0.063
0.326,-0.02,0.02,0.039,0.0,-0.029,0.029,0.02,0.029,-0.098,0.01,-0.029,-0.054
0.328,-0.024,0.01,0.034,0.01,-0.029,0.02,0.02,0.029,-0.098,0.01,-0.024,-0.054
0.33,-0.01,0.0,0.01,0.005,-0.01,0.005,0.005,0.015,-0.107,0.0,-0.034,-0.054
0.332,-0.01,-0.01,0.0,0.01,-0.005,-0.005,0.005,0.01,-0.127,-0.005,-0.049,-0.073
0.334,-0.01,0.01,0.02,0.0,-0.015,0.015,0.015,0.02,-0.112,0.005,-0.039,-0.063
0.336,-0.039,0.0,0.039,0.02,-0.039,0.02,0.02,0.029,-0.102,0.015,-0.029,-0.054
0.338,-0.059,-0.01,0.049,0.034,-0.054,0.02,0.02,0.029,-0.107,0.015,-0.034,-0.063
0.34,-0.034,0.005,0.039,0.015,-0.039,0.02,0.024,0.034,-0.098,0.015,-0.029,-0.049
0.342,-0.034,0.0,0.034,0.02,-0.034,0.015,0.015,0.024,-0.098,0.01,-0.034,-0.059
0.344,-0.034,0.0,0.034,0.02,-0.034,0.015,0.01,0.029,-0.098,0.01,-0.039,-0.054
0.346,-0.044,0.0,0.044,0.024,-0.044,0.02,0.005,0.02,-0.107,0.01,-0.039,-0.063
0.348,-0.01,0.029,0.039,-0.01,-0.024,0.034,0.02,0.029,-0.098,0.01,-0.034,-0.044
0.35,-0.02,0.039,0.059,-0.01,-0.039,0.049,0.034,0.039,-0.078,0.024,-0.024,-0.029
0.352,-0.107,0.024,0.132,0.044,-0.122,0.078,0.054,0.063,-0.049,0.039,-0.01,-0.029
0.354,-0.102,0.083,0.185,0.01,-0.146,0.132,0.088,0.098,-0.005,0.078,0.024,0.005
0.356,-0.117,0.102,0.22,0.01,-0.171,0.161,0.122,0.137,0.039,0.112,0.054,0.034
0.358,-0.151,0.093,0.244,0.029,-0.2,0.166,0.151,0.181,0.073,0.132,0.063,0.039
0.36,-0.156,0.107,0.264,0.024,-0.21,0.185,0.195,0.239,0.117,0.161,0.083,0.034
0.362,-0.142,0.132,0.273,0.005,-0.21,0.2,0.229,0.317,0.185,0.22,0.142,0.088
0.364,-0.078,0.127,0.205,-0.024,-0.142,0.166,0.229,0.366,0.22,0.264,0.19,0.112
0.366,-0.015,0.132,0.146,-0.059,-0.083,0.137,0.239,0.468,0.293,0.337,0.259,0.137
0.368,-0.01,0.098,0.107,-0.044,-0.059,0.102,0.249,0.61,0.405,0.449,0.356,0.181
0.37,0.015,0.093,0.078,-0.054,-0.034,0.083,0.293,0.781,0.532,0.581,0.488,0.254
0.372,0.093,0.117,0.024,-0.102,0.034,0.068,0.317,0.917,0.654,0.727,0.634,0.346
0.374,0.215,0.181,-0.034,-0.195,0.122,0.073,0.288,0.981,0.752,0.893,0.82,0.478
0.376,0.303,0.254,-0.049,-0.278,0.176,0.102,0.215,0.981,0.825,1.078,1.03,0.634
0.378,0.415,0.273,-0.142,-0.342,0.278,0.063,0.161,1.015,0.908,1.225,1.191,0.732
0.38,0.561,0.283,-0.278,-0.42,0.42,0.0,0.117,1.0,0.888,1.23,1.191,0.727
0.382,0.664,0.21,-0.454,-0.434,0.556,-0.122,0.02,0.854,0.737,1.064,1.01,0.6
0.384,0.752,0.073,-0.678,-0.41,0.712,-0.303,-0.049,0.708,0.537,0.82,0.756,0.381
0.386,0.82,0.01,-0.81,-0.415,0.815,-0.4,-0.059,0.547,0.332,0.566,0.478,0.176
0.388,0.83,-0.039,-0.869,-0.395,0.849,-0.454,-0.073,0.332,0.093,0.312,0.224,0.005
0.39,0.771,-0.117,-0.888,-0.327,0.83,-0.503,-0.151,0.024,-0.195,0.029,-0.02,-0.132
0.392,0.644,-0.166,-0.81,-0.239,0.727,-0.488,-0.2,-0.337,-0.488,-0.268,-0.278,-0.268
0.394,0.425,-0.234,-0.659,-0.093,0.542,-0.449,-0.2,-0.683,-0.771,-0.547,-0.522,-0.39
0.396,0.249,-0.346,-0.595,0.049,0.42,-0.473,-0.273,-0.961,-1.015,-0.795,-0.742,-0.508
0.398,0.151,-0.356,-0.508,0.102,0.327,-0.434,-0.278,-1.005,-1.054,-0.834,-0.766,-0.512
0.4,0.146,-0.322,-0.468,0.088,0.307,-0.395,-0.268,-0.927,-0.986,-0.771,-0.712,-0.483
0.402,0.107,-0.278,-0.386,0.088,0.244,-0.332,-0.224,-0.844,-0.913,-0.712,-0.664,-0.454
0.404,0.059,-0.185,-0.244,0.063,0.151,-0.215,-0.156,-0.712,-0.786,-0.61,-0.571,-0.381
0.406,-0.02,-0.122,-0.102,0.073,0.039,-0.112,-0.117,-0.556,-0.625,-0.459,-0.444,-0.278
0.408,-0.039,-0.073,-0.034,0.059,-0.005,-0.054,-0.083,-0.41,-0.468,-0.312,-0.317,-0.185
0.41,-0.024,-0.044,-0.02,0.034,-0.005,-0.034,-0.078,-0.298,-0.371,-0.224,-0.234,-0.146
0.412,-0.029,-0.02,0.01,0.024,-0.02,-0.005,-0.073,-0.195,-0.283,-0.151,-0.176,-0.112
0.414,0.029,0.029,0.0,-0.029,0.015,0.015,-0.02,-0.083,-0.185,-0.068,-0.102,-0.054
0.416,0.044,0.015,-0.029,-0.029,0.034,-0.01,0.0,-0.024,-0.137,-0.034,-0.073,-0.049
0.418,0.059,0.044,-0.015,-0.049,0.034,0.015,0.01,0.005,-0.102,-0.015,-0.054,-0.044
0.42,0.02,0.015,-0.005,-0.015,0.01,0.005,0.0,0.0,-0.112,-0.02,-0.059,-0.044
0.422,-0.02,0.01,0.029,0.005,-0.024,0.02,0.015,0.015,-0.093,-0.005,-0.039,-0.01
0.424,-0.049,0.0,0.049,0.024,-0.049,0.024,0.024,0.034,-0.078,0.005,-0.029,-0.01
0.426,-0.073,-0.029,0.044,0.054,-0.059,0.005,0.01,0.02,-0.088,-0.015,-0.044,-0.029
0.428,-0.039,-0.005,0.034,0.024,-0.039,0.015,0.015,0.02,-0.093,-0.01,-0.039,-0.029
0.43,-0.044,0.0,0.044,0.024,-0.044,0.02,0.024,0.029,-0.078,0.0,-0.034,-0.024
0.432,-0.049,0.02,0.068,0.015,-0.059,0.044,0.029,0.034,-0.073,0.0,-0.029,-0.01
0.434,-0.01,0.029,0.039,-0.01,-0.024,0.034,0.029,0.024,-0.083,-0.005,-0.039,-0.015
0.436,-0.01,0.024,0.034,-0.005,-0.024,0.029,0.02,0.024,-0.088,-0.01,-0.044,-0.029
0.438,-0.044,0.005,0.049,0.02,-0.049,0.024,0.015,0.02,-0.093,-0.015,-0.049,-0.029
0.44,-0.034,0.024,0.059,0.005,-0.049,0.039,0.024,0.034,-0.083,-0.005,-0.029,-0.005
0.442,-0.024,0.029,0.054,0.0,-0.039,0.039,0.029,0.039,-0.073,0.0,-0.029,0.0
0.444,-0.029,0.015,0.044,0.01,-0.039,0.029,0.015,0.034,-0.083,-0.005,-0.034,-0.02
0.446,-0.039,0.01,0.049,0.015,-0.044,0.029,0.024,0.034,-0.083,0.0,-0.029,-0.005
0.448,-0.083,-0.015,0.068,0.049,-0.078,0.024,0.02,0.034,-0.083,0.005,-0.024,0.0
0.45,-0.093,-0.049,0.044,0.073,-0.068,-0.005,0.0,0.015,-0.107,-0.015,-0.044,-0.024
0.452,0.005,0.054,0.049,-0.029,-0.024,0.049,0.039,0.054,-0.059,0.02,-0.005,0.01
0.454,0.005,0.068,0.063,-0.034,-0.029,0.063,0.054,0.063,-0.049,0.029,0.0,0.02
0.456,-0.029,0.054,0.083,-0.01,-0.059,0.068,0.054,0.063,-0.049,0.024,-0.005,0.005
0.458,-0.049,0.015,0.063,0.02,-0.059,0.039,0.024,0.039,-0.078,0.0,-0.034,-0.015
0.46,-0.029,0.01,0.039,0.01,-0.034,0.024,0.01,0.024,-0.093,-0.015,-0.044,-0.015
0.462,-0.068,-0.024,0.044,0.049,-0.059,0.01,0.015,0.02,-0.093,-0.01,-0.039,-0.02
0.464,-0.068,0.0,0.068,0.034,-0.068,0.034,0.024,0.029,-0.078,0.0,-0.034,-0.01
0.466,-0.044,0.01,0.054,0.02,-0.049,0.029,0.024,0.034,-0.068,0.005,-0.034,-0.005
0.468,-0.039,0.024,0.063,0.01,-0.054,0.044,0.034,0.044,-0.063,0.02,-0.015,-0.005
0.47,-0.029,0.02,0.049,0.005,-0.039,0.034,0.029,0.034,-0.073,0.015,-0.02,0.005
0.472,-0.015,0.034,0.049,-0.01,-0.034,0.039,0.029,0.044,-0.059,0.02,-0.024,0.015
0.474,-0.024,0.015,0.039,0.005,-0.034,0.024,0.024,0.029,-0.068,0.01,-0.034,0.0
0.476,-0.039,0.005,0.044,0.02,-0.044,0.024,0.024,0.015,-0.083,0.0,-0.039,-0.02
0.478,-0.039,0.029,0.068,0.005,-0.054,0.049,0.039,0.034,-0.063,0.01,-0.02,-0.005
0.48,-0.049,0.02,0.068,0.015,-0.059,0.044,0.024,0.034,-0.068,0.01,-0.024,0.01
0.482,-0.049,0.015,0.063,0.02,-0.059,0.039,0.024,0.029,-0.068,0.005,-0.024,0.02
0.484,-0.068,-0.01,0.059,0.039,-0.063,0.024,0.024,0.034,-0.063,0.005,-0.029,0.015
0.486,-0.049,0.015,0.063,0.02,-0.059,0.039,0.02,0.039,-0.054,0.01,-0.029,0.01
0.488,-0.01,0.029,0.039,-0.01,-0.024,0.034,0.024,0.044,-0.054,0.015,-0.02,0.02
0.49,-0.02,0.015,0.034,0.005,-0.029,0.024,0.02,0.034,-0.063,0.005,-0.024,0.005
0.492,-0.039,0.005,0.044,0.02,-0.044,0.024,0.01,0.029,-0.063,0.01,-0.029,-0.005
0.494,-0.049,0.0,0.049,0.024,-0.049,0.024,0.015,0.029,-0.068,0.01,-0.029,-0.01
0.496,-0.049,0.0,0.049,0.024,-0.049,0.024,0.024,0.029,-0.054,0.01,-0.024,-0.01
0.498,-0.034,0.015,0.049,0.01,-0.044,0.029,0.02,0.029,-0.059,0.005,-0.029,-0.015
0.5,-0.024,0.039,0.063,-0.005,-0.044,0.049,0.039,0.049,-0.039,0.02,-0.015,-0.01
0.502,-0.063,0.029,0.093,0.02,-0.078,0.059,0.049,0.054,-0.039,0.024,0.0,0.0
0.504,-0.049,0.005,0.054,0.024,-0.054,0.029,0.029,0.044,-0.049,0.01,-0.015,0.0
0.506,-0.063,-0.005,0.059,0.034,-0.063,0.024,0.024,0.034,-0.068,0.005,-0.024,-0.015
0.508,-0.034,0.034,0.068,0.0,-0.054,0.049,0.044,0.044,-0.044,0.02,-0.005,0.0
0.51,-0.093,0.015,0.107,0.039,-0.102,0.059,0.049,0.054,-0.034,0.024,0.0,0.015
0.512,-0.078,0.01,0.088,0.034,-0.083,0.049,0.044,0.054,-0.039,0.02,-0.005,0.0
0.514,-0.024,0.01,0.034,0.01,-0.029,0.02,0.024,0.024,-0.068,-0.005,-0.024,-0.034
0.516,-0.029,0.015,0.044,0.01,-0.039,0.029,0.029,0.024,-0.068,0.0,-0.015,-0.034
0.518,-0.073,-0.015,0.059,0.044,-0.068,0.02,0.044,0.044,-0.039,0.015,0.0,-0.005
0.52,-0.054,-0.02,0.034,0.039,-0.044,0.005,0.034,0.029,-0.054,0.01,-0.01,-0.005
0.522,-0.044,-0.01,0.034,0.029,-0.039,0.01,0.024,0.024,-0.059,0.0,-0.02,-0.015
0.524,-0.024,0.024,0.049,0.0,-0.039,0.034,0.044,0.044,-0.044,0.01,-0.01,0.01
0.526,-0.029,0.039,0.068,-0.005,-0.049,0.054,0.044,0.054,-0.034,0.02,0.0,0.02
0.528,-0.073,-0.029,0.044,0.054,-0.059,0.005,0.015,0.029,-0.059,0.0,-0.029,-0.02
0.53,-0.127,-0.063,0.063,0.098,-0.098,0.0,0.015,0.024,-0.059,-0.015,-0.034,-0.02
0.532,-0.059,-0.02,0.039,0.039,-0.049,0.01,0.015,0.034,-0.054,-0.005,-0.034,-0.02
0.534,0.049,0.068,0.02,-0.059,0.015,0.044,0.044,0.054,-0.029,0.02,-0.005,-0.01
0.536,-0.01,0.034,0.044,-0.01,-0.029,0.039,0.044,0.049,-0.029,0.01,-0.005,-0.015
0.538,-0.059,-0.01,0.049,0.034,-0.054,0.02,0.034,0.039,-0.039,0.005,-0.02,-0.034
0.54,-0.039,-0.01,0.029,0.024,-0.034,0.01,0.024,0.034,-0.044,0.0,-0.024,-0.039
0.542,-0.034,0.01,0.044,0.015,-0.039,0.024,0.034,0.034,-0.034,0.005,-0.015,-0.029
0.544,-0.029,0.024,0.054,0.005,-0.044,0.039,0.044,0.049,-0.024,0.015,-0.005,-0.02
0.546,-0.063,0.02,0.083,0.024,-0.073,0.049,0.034,0.044,-0.029,0.005,-0.01,-0.029
0.548,-0.034,0.015,0.049,0.01,-0.044,0.029,0.015,0.024,-0.054,-0.01,-0.034,-0.044
0.55,-0.024,0.01,0.034,0.01,-0.029,0.02,0.034,0.034,-0.029,0.005,-0.015,-0.024
0.552,-0.034,0.015,0.049,0.01,-0.044,0.029,0.039,0.044,-0.024,0.01,-0.02,-0.029
0.554,-0.059,0.0,0.059,0.029,-0.059,0.029,0.034,0.029,-0.039,0.0,-0.02,-0.039
0.556,-0.044,0.0,0.044,0.024,-0.044,0.02,0.034,0.024,-0.044,-0.005,-0.029,-0.034
0.558,-0.039,-0.015,0.024,0.029,-0.034,0.005,0.015,0.02,-0.049,-0.015,-0.034,-0.049
0.56,-0.063,-0.024,0.039,0.044,-0.054,0.005,0.015,0.015,-0.054,-0.02,-0.039,-0.049
0.562,-0.049,0.005,0.054,0.024,-0.054,0.029,0.034,0.029,-0.034,-0.005,-0.015,-0.029
0.564,-0.024,0.039,0.063,-0.005,-0.044,0.049,0.049,0.039,-0.015,0.015,-0.005,-0.02
0.566,0.02,0.078,0.059,-0.049,-0.02,0.068,0.054,0.054,-0.01,0.024,0.01,-0.005
0.568,-0.029,0.02,0.049,0.005,-0.039,0.034,0.044,0.044,-0.02,0.015,0.0,-0.01
0.57,-0.088,-0.02,0.068,0.054,-0.078,0.024,0.034,0.039,-0.024,0.01,-0.01,-0.029
0.572,-0.073,-0.005,0.068,0.039,-0.073,0.029,0.02,0.034,-0.029,0.0,-0.024,-0.044
0.574,-0.063,0.0,0.063,0.034,-0.063,0.029,0.015,0.029,-0.029,0.0,-0.02,-0.049
0.576,-0.068,-0.005,0.063,0.039,-0.068,0.029,0.02,0.029,-0.034,-0.005,-0.02,-0.039
0.578,-0.049,-0.01,0.039,0.029,-0.044,0.015,0.015,0.024,-0.039,-0.015,-0.02,-0.044
0.58,-0.034,0.02,0.054,0.01,-0.044,0.034,0.024,0.029,-0.034,-0.005,-0.01,-0.044
0.582,-0.044,0.01,0.054,0.02,-0.049,0.029,0.024,0.024,-0.029,-0.005,-0.015,-0.029
0.584,-0.068,-0.005,0.063,0.039,-0.068,0.029,0.024,0.029,-0.024,-0.005,-0.015,-0.029
0.586,-0.078,-0.024,0.054,0.054,-0.068,0.015,0.015,0.024,-0.029,-0.005,-0.02,-0.029
0.588,-0.068,-0.034,0.034,0.054,-0.054,0.0,0.005,0.02,-0.039,-0.015,-0.029,-0.039
0.59,-0.044,0.0,0.044,0.024,-0.044,0.02,0.024,0.039,-0.02,0.0,-0.01,-0.029
0.592,-0.049,0.029,0.078,0.01,-0.063,0.054,0.039,0.059,-0.01,0.015,0.0,-0.02
0.594,-0.063,0.02,0.083,0.024,-0.073,0.049,0.029,0.044,-0.015,0.01,-0.01,-0.024
0.596,-0.029,0.029,0.059,0.0,-0.044,0.044,0.02,0.034,-0.024,-0.005,-0.02,-0.029
0.598,-0.005,0.034,0.039,-0.015,-0.024,0.034,0.02,0.029,-0.024,-0.01,-0.02,-0.039
0.6,-0.059,-0.015,0.044,0.039,-0.054,0.015,0.015,0.02,-0.039,-0.01,-0.029,-0.049
0.602,-0.088,-0.02,0.068,0.054,-0.078,0.024,0.015,0.024,-0.034,-0.015,-0.02,-0.024
0.604,-0.078,0.005,0.083,0.039,-0.083,0.044,0.02,0.029,-0.02,-0.01,-0.015,-0.02
0.606,-0.068,-0.005,0.063,0.039,-0.068,0.029,0.01,0.024,-0.029,-0.015,-0.024,-0.024
0.608,-0.063,0.015,0.078,0.024,-0.073,0.044,0.029,0.044,-0.015,0.0,-0.005,-0.01
0.61,-0.068,0.015,0.083,0.029,-0.078,0.049,0.029,0.044,-0.015,0.005,-0.005,-0.005
0.612,-0.063,0.01,0.073,0.029,-0.068,0.039,0.024,0.039,-0.015,-0.005,-0.01,-0.015
0.614,-0.073,0.0,0.073,0.039,-0.073,0.034,0.024,0.039,-0.01,0.0,-0.01,-0.005
0.616,-0.063,0.005,0.068,0.029,-0.068,0.034,0.02,0.034,-0.02,-0.005,-0.015,-0.015
0.618,-0.059,0.01,0.068,0.024,-0.063,0.039,0.02,0.039,-0.015,-0.005,-0.01,-0.015
0.62,-0.024,0.015,0.039,0.005,-0.034,0.024,0.005,0.024,-0.024,-0.015,-0.02,-0.02
0.622,-0.034,0.029,0.063,0.005,-0.049,0.044,0.005,0.034,-0.029,-0.01,-0.015,-0.02
0.624,-0.054,0.029,0.083,0.015,-0.068,0.054,0.015,0.034,-0.02,0.0,-0.005,-0.015
0.626,-0.029,0.015,0.044,0.01,-0.039,0.029,0.005,0.029,-0.02,-0.01,-0.01,-0.015
0.628,-0.02,0.034,0.054,-0.005,-0.039,0.044,0.005,0.029,-0.02,-0.005,-0.005,-0.01
0.63,-0.034,0.029,0.063,0.005,-0.049,0.044,0.01,0.034,-0.015,-0.005,-0.005,0.005
0.632,-0.044,0.024,0.068,0.01,-0.059,0.044,0.005,0.034,-0.01,-0.005,0.0,0.0
0.634,-0.059,-0.01,0.049,0.034,-0.054,0.02,-0.01,0.024,-0.024,-0.01,-0.01,-0.005
0.636,-0.059,-0.024,0.034,0.044,-0.049,0.005,-0.02,0.005,-0.034,-0.024,-0.024,-0.005
0.638,-0.083,-0.063,0.02,0.073,-0.054,-0.024,-0.034,-0.005,-0.049,-0.039,-0.034,-0.02
0.64,0.005,0.044,0.039,-0.024,-0.02,0.039,-0.005,0.024,-0.01,-0.005,0.005,0.02
0.642,0.039,0.083,0.044,-0.059,-0.005,0.063,0.01,0.044,0.0,0.02,0.029,0.049
0.644,-0.01,0.054,0.063,-0.02,-0.039,0.059,0.005,0.029,-0.01,0.01,0.024,0.034
0.646,-0.005,0.059,0.063,-0.024,-0.034,0.059,0.0,0.029,0.0,0.015,0.024,0.034
0.648,-0.039,0.015,0.054,0.015,-0.049,0.034,-0.015,0.015,-0.015,-0.005,0.005,0.02
0.65,-0.024,0.005,0.029,0.01,-0.029,0.015,-0.034,0.0,-0.034,-0.024,-0.015,0.0
0.652,-0.015,0.02,0.034,0.0,-0.024,0.024,-0.039,0.0,-0.034,-0.02,-0.005,0.0
0.654,-0.005,0.024,0.029,-0.01,-0.02,0.024,-0.029,-0.005,-0.034,-0.01,-0.01,0.029
0.656,0.005,0.034,0.029,-0.02,-0.015,0.029,-0.029,-0.005,-0.024,-0.01,-0.005,0.039
0.658,0.005,0.024,0.02,-0.015,-0.01,0.02,-0.049,-0.015,-0.034,-0.015,-0.01,0.015
0.66,0.034,0.039,0.005,-0.034,0.015,0.02,-0.049,-0.015,-0.039,-0.02,-0.015,0.024
0.662,0.063,0.068,0.005,-0.063,0.029,0.034,-0.034,-0.005,-0.029,-0.01,0.0,0.049
0.664,0.029,0.059,0.029,-0.044,0.0,0.044,-0.039,0.0,-0.024,-0.005,0.005,0.049
0.666,-0.01,0.024,0.034,-0.005,-0.024,0.029,-0.049,-0.015,-0.029,-0.01,0.0,0.049
0.668,0.034,0.049,0.015,-0.039,0.01,0.029,-0.049,-0.015,-0.024,-0.005,0.005,0.059
0.67,0.029,0.034,0.005,-0.029,0.01,0.02,-0.059,-0.02,-0.039,-0.015,0.0,0.044
0.672,0.02,0.01,-0.01,-0.015,0.015,0.0,-0.083,-0.044,-0.059,-0.034,-0.015,0.024
0.674,0.029,0.015,-0.015,-0.02,0.02,0.0,-0.073,-0.044,-0.059,-0.034,-0.015,0.024
0.676,0.039,0.039,0.0,-0.039,0.02,0.02,-0.068,-0.039,-0.054,-0.029,-0.005,0.054
0.678,0.039,0.039,0.0,-0.039,0.02,0.02,-0.068,-0.034,-0.049,-0.024,0.0,0.059
0.68,0.029,0.034,0.005,-0.029,0.01,0.02,-0.063,-0.029,-0.039,-0.02,0.005,0.059
0.682,0.034,0.044,0.01,-0.039,0.01,0.024,-0.059,-0.024,-0.034,-0.015,0.015,0.068
0.684,0.063,0.083,0.02,-0.073,0.02,0.049,-0.059,-0.015,-0.024,-0.005,0.029,0.078
0.686,0.073,0.054,-0.02,-0.063,0.044,0.015,-0.078,-0.039,-0.049,-0.02,0.005,0.054
0.688,0.02,-0.015,-0.034,0.0,0.024,-0.024,-0.102,-0.068,-0.068,-0.044,-0.015,0.029
0.69,0.034,0.015,-0.02,-0.024,0.024,-0.005,-0.093,-0.059,-0.059,-0.034,0.0,0.059
0.692,0.015,0.01,-0.005,-0.01,0.01,0.0,-0.083,-0.049,-0.054,-0.024,0.005,0.063
0.694,0.039,0.02,-0.02,-0.029,0.029,0.0,-0.083,-0.054,-0.054,-0.024,0.005,0.049
0.696,0.063,0.049,-0.015,-0.054,0.039,0.015,-0.073,-0.039,-0.039,-0.015,0.02,0.063
0.698,0.024,0.01,-0.015,-0.015,0.02,-0.005,-0.078,-0.049,-0.039,-0.02,0.015,0.054
0.7,0.029,0.0,-0.029,-0.015,0.029,-0.015,-0.083,-0.044,-0.039,-0.024,0.015,0.044
0.702,0.044,0.02,-0.024,-0.029,0.034,-0.005,-0.073,-0.034,-0.024,-0.01,0.034,0.059
0.704,0.044,0.029,-0.015,-0.034,0.029,0.005,-0.068,-0.024,-0.015,0.0,0.044,0.073
0.706,0.059,0.034,-0.024,-0.044,0.039,0.005,-0.063,-0.02,-0.01,0.005,0.039,0.073
0.708,0.044,-0.005,-0.049,-0.02,0.044,-0.029,-0.063,-0.024,-0.01,-0.005,0.024,0.059
0.71,0.044,0.02,-0.024,-0.029,0.034,-0.005,-0.063,-0.02,-0.005,-0.005,0.024,0.068
0.712,0.073,0.054,-0.02,-0.063,0.044,0.015,-0.049,0.0,0.005,0.01,0.039,0.088
0.714,0.029,0.015,-0.015,-0.02,0.02,0.0,-0.044,0.0,0.005,0.02,0.044,0.078
0.716,-0.034,-0.029,0.005,0.034,-0.02,-0.015,-0.054,-0.01,0.0,0.005,0.024,0.073
0.718,0.024,0.02,-0.005,-0.02,0.015,0.005,-0.044,0.005,0.02,0.02,0.039,0.083
0.72,0.132,0.088,-0.044,-0.107,0.088,0.02,-0.024,0.024,0.034,0.039,0.059,0.107
0.722,0.063,0.029,-0.034,-0.044,0.049,-0.005,-0.039,0.0,0.02,0.015,0.034,0.078
0.724,0.039,0.005,-0.034,-0.02,0.034,-0.015,-0.044,0.005,0.02,0.01,0.029,0.073
0.726,0.049,0.029,-0.02,-0.039,0.034,0.005,-0.029,0.02,0.034,0.024,0.044,0.078
0.728,0.068,0.039,-0.029,-0.054,0.049,0.005,-0.024,0.024,0.039,0.024,0.044,0.073
0.73,0.039,0.015,-0.024,-0.024,0.029,-0.005,-0.02,0.029,0.049,0.029,0.044,0.078
0.732,0.024,0.0,-0.024,-0.01,0.024,-0.015,-0.024,0.024,0.044,0.024,0.039,0.078
0.734,0.034,0.015,-0.02,-0.024,0.024,-0.005,-0.024,0.015,0.029,0.015,0.034,0.068
0.736,0.01,-0.015,-0.024,0.005,0.015,-0.02,-0.02,0.024,0.034,0.02,0.034,0.073
0.738,0.054,-0.005,-0.059,-0.024,0.054,-0.034,-0.015,0.024,0.044,0.02,0.039,0.049
0.74,0.029,0.01,-0.02,-0.02,0.024,-0.005,-0.01,0.02,0.044,0.02,0.034,0.059
0.742,-0.024,0.0,0.024,0.015,-0.024,0.01,0.005,0.024,0.054,0.029,0.044,0.078
0.744,-0.024,-0.015,0.01,0.02,-0.02,-0.005,0.0,0.029,0.054,0.034,0.044,0.083
0.746,0.034,0.029,-0.005,-0.029,0.02,0.01,0.005,0.034,0.059,0.039,0.049,0.073
0.748,0.02,0.02,0.0,-0.02,0.01,0.01,0.01,0.024,0.054,0.02,0.029,0.054
0.75,0.01,0.01,0.0,-0.01,0.005,0.005,0.005,0.024,0.054,0.015,0.024,0.059
0.752,0.015,0.005,-0.01,-0.01,0.01,-0.005,0.005,0.024,0.049,0.015,0.024,0.059
0.754,0.044,0.034,-0.01,-0.039,0.024,0.01,0.02,0.029,0.059,0.024,0.039,0.054
0.756,0.029,0.029,0.0,-0.029,0.015,0.015,0.034,0.039,0.068,0.029,0.039,0.063
0.758,0.029,0.015,-0.015,-0.02,0.02,0.0,0.024,0.029,0.063,0.02,0.034,0.059
0.76,0.039,-0.005,-0.044,-0.015,0.039,-0.024,0.02,0.02,0.054,0.01,0.024,0.059
0.762,0.005,-0.029,-0.034,0.015,0.02,-0.034,0.015,0.005,0.049,0.0,0.015,0.039
0.764,-0.039,-0.034,0.005,0.039,-0.024,-0.015,0.015,0.01,0.049,0.0,0.02,0.044
0.766,-0.034,-0.034,0.0,0.034,-0.02,-0.02,0.015,0.015,0.049,0.005,0.024,0.049
0.768,-0.049,-0.044,0.005,0.049,-0.029,-0.02,0.005,0.0,0.049,-0.005,0.02,0.044
0.77,-0.054,-0.049,0.005,0.054,-0.029,-0.024,0.005,0.005,0.049,-0.01,0.02,0.039
0.772,-0.039,-0.039,0.0,0.039,-0.02,-0.02,0.015,0.01,0.049,-0.01,0.015,0.054
0.774,0.0,-0.024,-0.024,0.015,0.01,-0.024,0.024,0.01,0.054,0.0,0.01,0.059
0.776,-0.02,-0.034,-0.015,0.029,-0.005,-0.024,0.01,-0.005,0.039,-0.02,-0.005,0.044
0.778,-0.024,-0.024,0.0,0.024,-0.015,-0.015,0.024,0.005,0.059,-0.005,0.01,0.063
0.78,0.005,-0.02,-0.024,0.01,0.015,-0.024,0.02,0.005,0.054,-0.005,0.005,0.049
0.782,-0.01,-0.044,-0.034,0.029,0.01,-0.039,0.005,-0.02,0.034,-0.024,-0.015,0.034
0.784,-0.02,-0.024,-0.005,0.024,-0.01,-0.015,0.02,0.0,0.054,-0.01,0.01,0.054
0.786,-0.054,-0.034,0.02,0.044,-0.039,-0.01,0.034,0.015,0.063,0.005,0.015,0.059
0.788,-0.029,-0.039,-0.01,0.034,-0.01,-0.024,0.02,0.0,0.054,-0.015,-0.005,0.049
0.79,-0.029,-0.034,-0.005,0.034,-0.015,-0.02,0.01,-0.005,0.049,-0.015,-0.005,0.049
0.792,-0.015,-0.034,-0.02,0.024,0.0,-0.029,0.005,-0.01,0.044,-0.02,-0.01,0.044
0.794,0.0,-0.029,-0.029,0.015,0.015,-0.029,0.015,-0.01,0.044,-0.015,-0.01,0.049
0.796,-0.005,-0.029,-0.024,0.02,0.01,-0.029,0.01,-0.02,0.044,-0.02,-0.005,0.034
0.798,-0.049,-0.068,-0.02,0.059,-0.015,-0.044,0.005,-0.029,0.039,-0.029,-0.02,0.02
0.8,-0.054,-0.068,-0.015,0.063,-0.02,-0.044,0.01,-0.024,0.044,-0.029,-0.01,0.034
0.802,-0.015,-0.044,-0.029,0.029,0.005,-0.039,0.01,-0.024,0.049,-0.029,-0.01,0.034
0.804,-0.015,-0.063,-0.049,0.039,0.015,-0.059,-0.01,-0.029,0.039,-0.039,-0.02,0.02
0.806,-0.029,-0.054,-0.024,0.044,-0.005,-0.039,0.005,-0.015,0.054,-0.015,0.0,0.029
0.808,0.049,0.039,-0.01,-0.044,0.029,0.015,0.039,0.024,0.098,0.02,0.034,0.059
0.81,0.034,0.02,-0.015,-0.024,0.024,0.0,0.024,0.02,0.093,0.015,0.029,0.063
0.812,0.005,-0.01,-0.015,0.005,0.01,-0.015,0.01,0.024,0.093,0.015,0.029,0.063
0.814,-0.02,-0.034,-0.015,0.029,-0.005,-0.024,-0.005,0.02,0.093,0.02,0.024,0.063
0.816,0.01,-0.029,-0.039,0.01,0.024,-0.034,-0.015,0.029,0.102,0.034,0.044,0.073
0.818,0.044,-0.015,-0.059,-0.015,0.049,-0.039,-0.029,0.049,0.117,0.059,0.063,0.098
0.82,0.049,-0.029,-0.078,-0.01,0.063,-0.054,-0.039,0.063,0.127,0.073,0.088,0.112
0.822,0.063,-0.024,-0.088,-0.02,0.073,-0.059,-0.054,0.068,0.137,0.093,0.112,0.137
0.824,0.083,-0.005,-0.088,-0.039,0.083,-0.049,-0.073,0.068,0.142,0.107,0.132,0.146
0.826,0.102,0.005,-0.098,-0.054,0.098,-0.049,-0.088,0.078,0.156,0.132,0.156,0.156
0.828,0.132,0.01,-0.122,-0.068,0.127,-0.059,-0.112,0.083,0.171,0.146,0.171,0.151
0.83,0.151,0.015,-0.137,-0.083,0.142,-0.063,-0.142,0.073,0.166,0.161,0.195,0.151
0.832,0.181,0.015,-0.166,-0.098,0.171,-0.078,-0.185,0.068,0.166,0.181,0.224,0.171
0.834,0.181,0.015,-0.166,-0.098,0.171,-0.078,-0.205,0.068,0.176,0.215,0.259,0.21
0.836,0.234,0.083,-0.151,-0.156,0.19,-0.034,-0.205,0.083,0.2,0.254,0.298,0.259
0.838,0.283,0.127,-0.156,-0.205,0.22,-0.015,-0.22,0.102,0.229,0.298,0.346,0.317
0.84,0.264,0.098,-0.166,-0.181,0.215,-0.034,-0.244,0.112,0.244,0.327,0.381,0.342
0.842,0.337,0.098,-0.239,-0.215,0.288,-0.073,-0.278,0.112,0.254,0.351,0.405,0.366
0.844,0.386,0.117,-0.268,-0.249,0.327,-0.078,-0.288,0.146,0.283,0.4,0.459,0.4
0.846,0.386,0.122,-0.264,-0.254,0.322,-0.073,-0.283,0.185,0.312,0.444,0.498,0.42
0.848,0.405,0.122,-0.283,-0.264,0.342,-0.083,-0.298,0.205,0.322,0.468,0.527,0.444
0.85,0.415,0.137,-0.278,-0.273,0.346,-0.073,-0.312,0.229,0.356,0.512,0.566,0.483
0.852,0.439,0.117,-0.322,-0.278,0.381,-0.102,-0.332,0.239,0.366,0.537,0.595,0.503
0.854,0.488,0.102,-0.386,-0.293,0.434,-0.142,-0.342,0.254,0.376,0.566,0.625,0.508
0.856,0.6,0.127,-0.473,-0.361,0.537,-0.176,-0.342,0.307,0.425,0.61,0.673,0.532
0.858,0.688,0.137,-0.551,-0.41,0.62,-0.21,-0.351,0.366,0.478,0.673,0.737,0.576
0.86,0.673,0.088,-0.586,-0.381,0.63,-0.249,-0.386,0.415,0.522,0.742,0.81,0.63
0.862,0.747,0.059,-0.688,-0.4,0.717,-0.317,-0.415,0.468,0.566,0.805,0.869,0.669
0.864,0.839,0.078,-0.761,-0.459,0.8,-0.342,-0.425,0.517,0.62,0.878,0.952,0.717
0.866,0.908,0.088,-0.82,-0.498,0.864,-0.366,-0.425,0.571,0.664,0.942,1.02,0.756
0.868,0.976,0.059,-0.917,-0.517,0.947,-0.429,-0.444,0.639,0.698,0.996,1.074,0.781
0.87,1.059,0.039,-1.02,-0.547,1.039,-0.493,-0.425,0.761,0.781,1.088,1.166,0.834
0.872,1.171,0.049,-1.122,-0.61,1.147,-0.537,-0.381,0.917,0.883,1.196,1.269,0.878
0.874,1.215,-0.005,-1.22,-0.605,1.215,-0.615,-0.322,1.054,0.956,1.249,1.322,0.883
0.876,1.249,-0.093,-1.342,-0.576,1.293,-0.717,-0.278,1.118,0.942,1.215,1.283,0.815
0.878,1.322,-0.171,-1.493,-0.576,1.405,-0.834,-0.22,1.21,0.913,1.161,1.235,0.742
0.88,1.41,-0.234,-1.645,-0.586,1.527,-0.942,-0.166,1.264,0.883,1.137,1.215,0.708
0.882,1.44,-0.307,-1.747,-0.566,1.591,-1.03,-0.176,1.249,0.81,1.083,1.176,0.649
0.884,1.488,-0.386,-1.874,-0.551,1.679,-1.132,-0.249,1.142,0.703,1.005,1.108,0.566
0.886,1.576,-0.459,-2.035,-0.556,1.806,-1.249,-0.405,0.883,0.478,0.834,0.937,0.42
0.888,1.518,-0.62,-2.137,-0.449,1.825,-1.381,-0.566,0.527,0.156,0.498,0.6,0.146
0.89,1.469,-0.717,-2.186,-0.376,1.825,-1.454,-0.688,0.161,-0.19,0.117,0.229,-0.107
0.892,1.381,-0.747,-2.128,-0.317,1.752,-1.44,-0.752,-0.146,-0.449,-0.2,-0.093,-0.307
0.894,1.288,-0.732,-2.02,-0.278,1.654,-1.376,-0.771,-0.376,-0.62,-0.434,-0.351,-0.464
0.896,1.181,-0.566,-1.747,-0.307,1.464,-1.157,-0.693,-0.449,-0.62,-0.498,-0.444,-0.478
0.898,1.005,-0.473,-1.479,-0.264,1.24,-0.976,-0.61,-0.434,-0.547,-0.483,-0.439,-0.434
0.9,0.864,-0.39,-1.254,-0.234,1.059,-0.825,-0.508,-0.381,-0.459,-0.429,-0.395,-0.376
0.902,0.742,-0.303,-1.044,-0.22,0.893,-0.673,-0.4,-0.298,-0.351,-0.356,-0.332,-0.303
0.904,0.571,-0.259,-0.83,-0.156,0.698,-0.547,-0.307,-0.229,-0.259,-0.298,-0.293,-0.244
0.906,0.449,-0.224,-0.673,-0.112,0.561,-0.449,-0.239,-0.2,-0.205,-0.254,-0.254,-0.195
0.908,0.342,-0.195,-0.537,-0.073,0.439,-0.366,-0.205,-0.181,-0.161,-0.224,-0.229,-0.176
0.91,0.224,-0.142,-0.366,-0.039,0.293,-0.254,-0.142,-0.151,-0.107,-0.181,-0.19,-0.142
0.912,0.132,-0.088,-0.22,-0.02,0.176,-0.156,-0.068,-0.102,-0.034,-0.117,-0.137,-0.093
0.914,0.044,-0.078,-0.122,0.02,0.083,-0.102,-0.01,-0.054,0.029,-0.068,-0.088,-0.054
0.916,0.005,-0.059,-0.063,0.029,0.034,-0.063,-0.005,-0.054,0.044,-0.063,-0.093,-0.044
0.918,-0.02,-0.034,-0.015,0.029,-0.005,-0.024,-0.005,-0.059,0.039,-0.068,-0.098,-0.049
0.92,-0.024,-0.068,-0.044,0.049,0.01,-0.059,0.0,-0.063,0.044,-0.063,-0.093,-0.059
0.922,0.01,-0.049,-0.059,0.02,0.034,-0.054,0.005,-0.068,0.044,-0.063,-0.093,-0.059
0.924,-0.024,-0.024,0.0,0.024,-0.015,-0.015,0.024,-0.059,0.063,-0.054,-0.088,-0.039
0.926,-0.049,0.005,0.054,0.024,-0.054,0.029,0.034,-0.044,0.073,-0.044,-0.073,-0.029
0.928,-0.01,0.024,0.034,-0.005,-0.024,0.029,0.039,-0.063,0.068,-0.049,-0.078,-0.029
0.93,-0.02,0.024,0.044,0.0,-0.034,0.034,0.044,-0.054,0.068,-0.049,-0.078,-0.029
0.932,-0.107,-0.059,0.049,0.083,-0.078,-0.005,0.024,-0.078,0.039,-0.088,-0.102,-0.068
0.934,-0.127,-0.073,0.054,0.102,-0.093,-0.01,0.01,-0.102,0.024,-0.102,-0.127,-0.073
0.936,-0.088,-0.044,0.044,0.068,-0.068,0.0,0.024,-0.098,0.039,-0.098,-0.117,-0.059
0.938,-0.059,-0.029,0.029,0.044,-0.044,0.0,0.024,-0.093,0.044,-0.093,-0.112,-0.054
0.94,-0.059,-0.02,0.039,0.039,-0.049,0.01,0.02,-0.098,0.049,-0.088,-0.112,-0.049
0.942,-0.112,-0.034,0.078,0.073,-0.098,0.02,0.039,-0.088,0.063,-0.078,-0.098,-0.034
0.944,-0.122,-0.029,0.093,0.078,-0.107,0.029,0.044,-0.088,0.063,-0.068,-0.088,-0.039
0.946,-0.127,-0.029,0.098,0.078,-0.112,0.034,0.044,-0.093,0.054,-0.073,-0.088,-0.044
0.948,-0.127,-0.015,0.112,0.073,-0.122,0.049,0.049,-0.098,0.054,-0.078,-0.093,-0.044
0.95,-0.107,-0.02,0.088,0.063,-0.098,0.034,0.044,-0.102,0.049,-0.083,-0.098,-0.044
0.952,-0.122,-0.034,0.088,0.078,-0.107,0.024,0.029,-0.117,0.039,-0.093,-0.102,-0.059
0.954,-0.122,-0.024,0.098,0.073,-0.112,0.034,0.034,-0.117,0.044,-0.098,-0.107,-0.059
0.956,-0.132,-0.034,0.098,0.083,-0.117,0.029,0.039,-0.127,0.039,-0.102,-0.117,-0.063
0.958,-0.112,-0.024,0.088,0.068,-0.102,0.029,0.039,-0.122,0.044,-0.098,-0.107,-0.054
0.96,-0.083,0.01,0.093,0.039,-0.088,0.049,0.044,-0.117,0.054,-0.088,-0.093,-0.039
0.962,-0.107,0.01,0.117,0.049,-0.112,0.063,0.054,-0.112,0.059,-0.083,-0.088,-0.034
0.964,-0.132,-0.005,0.127,0.068,-0.132,0.059,0.049,-0.117,0.063,-0.078,-0.078,-0.034
0.966,-0.156,-0.044,0.112,0.102,-0.137,0.034,0.039,-0.122,0.049,-0.093,-0.083,-0.054
0.968,-0.146,-0.02,0.127,0.083,-0.137,0.054,0.049,-0.117,0.054,-0.088,-0.098,-0.054
0.97,-0.122,-0.01,0.112,0.068,-0.117,0.049,0.049,-0.117,0.054,-0.093,-0.107,-0.059
0.972,-0.142,-0.024,0.117,0.083,-0.132,0.044,0.049,-0.122,0.054,-0.088,-0.102,-0.049
0.974,-0.137,-0.02,0.117,0.078,-0.127,0.049,0.039,-0.146,0.044,-0.102,-0.122,-0.054
0.976,-0.088,0.02,0.107,0.034,-0.098,0.063,0.054,-0.142,0.054,-0.098,-0.122,-0.044
0.978,-0.112,0.005,0.117,0.054,-0.117,0.059,0.054,-0.132,0.063,-0.088,-0.112,-0.029
0.98,-0.112,0.0,0.112,0.059,-0.112,0.054,0.044,-0.137,0.059,-0.093,-0.112,-0.034
0.982,-0.098,0.029,0.127,0.034,-0.112,0.078,0.063,-0.122,0.068,-0.083,-0.102,-0.02
0.984,-0.127,-0.015,0.112,0.073,-0.122,0.049,0.039,-0.142,0.049,-0.098,-0.117,-0.044
0.986,-0.161,-0.049,0.112,0.107,-0.137,0.029,0.02,-0.146,0.039,-0.107,-0.122,-0.049
0.988,-0.19,-0.083,0.107,0.137,-0.151,0.01,0.015,-0.161,0.034,-0.127,-0.142,-0.073
0.99,-0.185,-0.078,0.107,0.132,-0.146,0.015,0.02,-0.161,0.029,-0.132,-0.146,-0.073
0.992,-0.117,0.02,0.137,0.049,-0.127,0.078,0.049,-0.132,0.059,-0.102,-0.117,-0.044
0.994,-0.102,0.034,0.137,0.034,-0.122,0.083,0.063,-0.127,0.068,-0.093,-0.107,-0.024
0.996,-0.142,-0.01,0.132,0.078,-0.137,0.059,0.044,-0.151,0.044,-0.117,-0.127,-0.044
0.998,-0.161,-0.02,0.142,0.093,-0.151,0.059,0.049,-0.142,0.049,-0.107,-0.117,-0.039
1.0,-0.146,-0.02,0.127,0.083,-0.137,0.054,0.039,-0.156,0.044,-0.112,-0.122,-0.044
1.002,-0.098,0.01,0.107,0.044,-0.102,0.059,0.044,-0.156,0.054,-0.112,-0.122,-0.034
1.004,-0.132,-0.01,0.122,0.073,-0.127,0.054,0.049,-0.151,0.059,-0.107,-0.117,-0.039
1.006,-0.127,0.015,0.142,0.059,-0.137,0.078,0.059,-0.142,0.068,-0.098,-0.107,-0.039
1.008,-0.132,0.024,0.156,0.054,-0.146,0.088,0.063,-0.142,0.063,-0.098,-0.107,-0.029
1.01,-0.156,0.0,0.156,0.078,-0.156,0.078,0.063,-0.146,0.059,-0.107,-0.117,-0.029
1.012,-0.146,-0.024,0.122,0.088,-0.137,0.049,0.044,-0.166,0.039,-0.122,-0.132,-0.049
1.014,-0.142,0.0,0.142,0.073,-0.142,0.068,0.049,-0.171,0.044,-0.122,-0.137,-0.039
1.016,-0.156,-0.005,0.151,0.083,-0.156,0.073,0.049,-0.181,0.044,-0.132,-0.146,-0.054
1.018,-0.166,-0.015,0.151,0.093,-0.161,0.068,0.044,-0.176,0.044,-0.127,-0.137,-0.044
1.02,-0.171,-0.024,0.146,0.098,-0.161,0.059,0.044,-0.176,0.044,-0.117,-0.127,-0.039
1.022,-0.171,-0.02,0.151,0.098,-0.161,0.063,0.054,-0.171,0.049,-0.112,-0.127,-0.029
1.024,-0.161,0.01,0.171,0.078,-0.166,0.088,0.073,-0.156,0.068,-0.098,-0.112,-0.02
1.026,-0.19,0.02,0.21,0.088,-0.2,0.112,0.059,-0.166,0.063,-0.107,-0.112,-0.034
1.028,-0.19,0.015,0.205,0.088,-0.2,0.107,0.054,-0.181,0.049,-0.122,-0.132,-0.054
1.03,-0.146,0.029,0.176,0.059,-0.161,0.102,0.073,-0.171,0.059,-0.122,-0.127,-0.034
1.032,-0.176,0.02,0.195,0.078,-0.185,0.107,0.068,-0.181,0.049,-0.127,-0.127,-0.044
1.034,-0.2,-0.015,0.185,0.107,-0.195,0.083,0.054,-0.195,0.044,-0.137,-0.142,-0.054
1.036,-0.2,0.01,0.21,0.098,-0.205,0.107,0.073,-0.185,0.054,-0.127,-0.142,-0.034
1.038,-0.171,0.029,0.2,0.073,-0.185,0.112,0.068,-0.19,0.059,-0.127,-0.142,-0.034
1.04,-0.19,0.01,0.2,0.093,-0.195,0.102,0.063,-0.195,0.054,-0.127,-0.142,-0.034
1.042,-0.229,-0.005,0.224,0.117,-0.229,0.107,0.068,-0.195,0.059,-0.127,-0.142,-0.024
1.044,-0.215,0.015,0.229,0.102,-0.224,0.122,0.068,-0.2,0.054,-0.122,-0.142,-0.029
1.046,-0.244,0.015,0.259,0.117,-0.254,0.137,0.078,-0.19,0.059,-0.117,-0.132,-0.029
1.048,-0.229,0.024,0.254,0.102,-0.244,0.137,0.073,-0.2,0.049,-0.132,-0.156,-0.049
1.05,-0.176,0.049,0.224,0.063,-0.2,0.137,0.078,-0.2,0.054,-0.137,-0.156,-0.039
1.052,-0.19,0.039,0.229,0.078,-0.21,0.132,0.083,-0.2,0.059,-0.137,-0.161,-0.039
1.054,-0.21,0.029,0.239,0.093,-0.224,0.132,0.073,-0.205,0.054,-0.146,-0.171,-0.044
1.056,-0.249,0.01,0.259,0.122,-0.254,0.132,0.083,-0.22,0.059,-0.151,-0.171,-0.039
1.058,-0.283,0.0,0.283,0.142,-0.283,0.142,0.083,-0.22,0.059,-0.142,-0.166,-0.024
1.06,-0.259,0.024,0.283,0.117,-0.273,0.151,0.078,-0.224,0.063,-0.137,-0.161,-0.029
1.062,-0.244,0.015,0.259,0.117,-0.254,0.137,0.073,-0.234,0.049,-0.151,-0.171,-0.039
1.064,-0.327,-0.039,0.288,0.185,-0.307,0.122,0.063,-0.254,0.039,-0.166,-0.19,-0.054
1.066,-0.342,-0.039,0.303,0.19,-0.322,0.132,0.063,-0.249,0.049,-0.166,-0.181,-0.059
1.068,-0.244,0.059,0.303,0.093,-0.273,0.181,0.098,-0.215,0.073,-0.142,-0.156,-0.029
1.07,-0.2,0.083,0.283,0.059,-0.244,0.181,0.098,-0.22,0.063,-0.146,-0.161,-0.034
1.072,-0.239,0.068,0.307,0.088,-0.273,0.185,0.102,-0.224,0.068,-0.151,-0.161,-0.034
1.074,-0.264,0.063,0.327,0.102,-0.298,0.195,0.102,-0.224,0.068,-0.151,-0.166,-0.029
1.076,-0.234,0.073,0.307,0.083,-0.273,0.19,0.093,-0.244,0.059,-0.171,-0.181,-0.044
1.078,-0.268,0.063,0.332,0.102,-0.303,0.195,0.102,-0.234,0.073,-0.161,-0.181,-0.034
1.08,-0.283,0.073,0.356,0.107,-0.322,0.215,0.102,-0.234,0.073,-0.166,-0.181,-0.044
1.082,-0.288,0.059,0.346,0.117,-0.317,0.2,0.107,-0.239,0.068,-0.166,-0.176,-0.039
1.084,-0.317,0.044,0.361,0.137,-0.342,0.2,0.117,-0.239,0.078,-0.151,-0.166,-0.029
1.086,-0.298,0.073,0.371,0.112,-0.337,0.22,0.112,-0.244,0.073,-0.151,-0.166,-0.034
1.088,-0.283,0.083,0.366,0.102,-0.327,0.224,0.122,-0.244,0.073,-0.156,-0.171,-0.024
1.09,-0.312,0.093,0.405,0.112,-0.361,0.249,0.132,-0.244,0.073,-0.156,-0.171,-0.015
1.092,-0.356,0.083,0.439,0.137,-0.4,0.259,0.132,-0.249,0.073,-0.161,-0.171,-0.024
1.094,-0.346,0.088,0.434,0.132,-0.39,0.259,0.122,-0.264,0.059,-0.181,-0.185,-0.039
1.096,-0.327,0.063,0.39,0.132,-0.361,0.224,0.112,-0.283,0.044,-0.2,-0.205,-0.054
1.098,-0.337,0.068,0.405,0.137,-0.371,0.234,0.127,-0.273,0.054,-0.195,-0.2,-0.034
1.1,-0.298,0.117,0.415,0.093,-0.356,0.264,0.127,-0.273,0.063,-0.19,-0.2,-0.034
1.102,-0.317,0.112,0.429,0.102,-0.376,0.268,0.132,-0.278,0.063,-0.19,-0.205,-0.024
1.104,-0.351,0.088,0.439,0.132,-0.395,0.264,0.132,-0.278,0.068,-0.181,-0.205,-0.034
1.106,-0.361,0.083,0.444,0.142,-0.405,0.264,0.137,-0.278,0.063,-0.185,-0.205,-0.034
1.108,-0.371,0.083,0.454,0.146,-0.415,0.268,0.127,-0.293,0.054,-0.2,-0.22,-0.044
1.11,-0.366,0.088,0.454,0.142,-0.41,0.268,0.122,-0.303,0.044,-0.205,-0.234,-0.049
1.112,-0.371,0.112,0.483,0.132,-0.429,0.298,0.142,-0.293,0.054,-0.19,-0.22,-0.034
1.114,-0.381,0.098,0.478,0.142,-0.429,0.288,0.137,-0.307,0.049,-0.205,-0.229,-0.029
1.116,-0.371,0.093,0.464,0.142,-0.42,0.278,0.122,-0.322,0.034,-0.224,-0.249,-0.054
1.118,-0.371,0.098,0.468,0.137,-0.42,0.283,0.132,-0.317,0.044,-0.215,-0.244,-0.054
1.12,-0.351,0.127,0.478,0.112,-0.415,0.303,0.142,-0.312,0.049,-0.205,-0.234,-0.039
1.122,-0.366,0.132,0.498,0.117,-0.434,0.312,0.142,-0.307,0.049,-0.2,-0.234,-0.034
1.124,-0.386,0.132,0.517,0.127,-0.454,0.322,0.156,-0.293,0.068,-0.19,-0.215,-0.02
1.126,-0.439,0.093,0.532,0.176,-0.488,0.312,0.146,-0.298,0.063,-0.2,-0.224,-0.039
1.128,-0.454,0.068,0.522,0.195,-0.488,0.293,0.132,-0.317,0.049,-0.215,-0.249,-0.054
1.13,-0.425,0.098,0.522,0.166,-0.473,0.307,0.142,-0.312,0.049,-0.215,-0.249,-0.059
1.132,-0.429,0.098,0.527,0.166,-0.478,0.312,0.142,-0.312,0.044,-0.22,-0.249,-0.054
1.134,-0.395,0.088,0.483,0.156,-0.439,0.283,0.132,-0.327,0.034,-0.239,-0.268,-0.059
1.136,-0.39,0.102,0.493,0.146,-0.444,0.298,0.142,-0.327,0.044,-0.224,-0.259,-0.049
1.138,-0.39,0.107,0.498,0.142,-0.444,0.303,0.137,-0.322,0.049,-0.22,-0.249,-0.039
1.14,-0.4,0.112,0.512,0.146,-0.459,0.312,0.142,-0.307,0.063,-0.21,-0.234,-0.02
1.142,-0.405,0.112,0.517,0.146,-0.464,0.312,0.137,-0.322,0.049,-0.22,-0.244,-0.029
1.144,-0.41,0.127,0.537,0.142,-0.473,0.332,0.151,-0.303,0.063,-0.2,-0.224,-0.024
1.146,-0.4,0.122,0.522,0.142,-0.464,0.322,0.146,-0.298,0.063,-0.205,-0.22,-0.024
1.148,-0.371,0.122,0.493,0.127,-0.434,0.307,0.132,-0.307,0.054,-0.215,-0.239,-0.034
1.15,-0.376,0.112,0.488,0.132,-0.434,0.298,0.142,-0.303,0.054,-0.22,-0.244,-0.039
1.152,-0.381,0.117,0.498,0.132,-0.439,0.307,0.146,-0.298,0.073,-0.21,-0.229,-0.034
1.154,-0.386,0.102,0.488,0.142,-0.439,0.293,0.127,-0.312,0.054,-0.229,-0.249,-0.049
1.156,-0.41,0.063,0.473,0.176,-0.444,0.268,0.117,-0.317,0.049,-0.234,-0.259,-0.054
1.158,-0.429,0.024,0.454,0.205,-0.444,0.239,0.107,-0.322,0.039,-0.239,-0.264,-0.073
1.16,-0.317,0.122,0.439,0.098,-0.381,0.278,0.137,-0.283,0.078,-0.195,-0.22,-0.029
1.162,-0.317,0.132,0.449,0.093,-0.386,0.288,0.142,-0.264,0.088,-0.185,-0.21,-0.01
1.164,-0.366,0.083,0.449,0.142,-0.41,0.264,0.137,-0.259,0.088,-0.185,-0.21,-0.02
1.166,-0.346,0.117,0.464,0.117,-0.405,0.288,0.146,-0.244,0.107,-0.171,-0.2,-0.01
1.168,-0.371,0.088,0.459,0.142,-0.415,0.273,0.137,-0.239,0.102,-0.181,-0.21,-0.015
1.17,-0.356,0.088,0.444,0.137,-0.4,0.264,0.132,-0.244,0.098,-0.185,-0.22,-0.029
1.172,-0.332,0.098,0.429,0.117,-0.381,0.264,0.137,-0.229,0.107,-0.176,-0.205,-0.024
1.174,-0.327,0.112,0.439,0.107,-0.386,0.273,0.127,-0.229,0.107,-0.181,-0.21,-0.029
1.176,-0.337,0.078,0.415,0.132,-0.376,0.244,0.112,-0.244,0.093,-0.19,-0.22,-0.044
1.178,-0.298,0.093,0.39,0.102,-0.346,0.239,0.117,-0.224,0.112,-0.171,-0.2,-0.024
1.18,-0.288,0.117,0.405,0.088,-0.346,0.259,0.127,-0.2,0.132,-0.146,-0.176,0.0
1.182,-0.307,0.088,0.395,0.112,-0.351,0.239,0.127,-0.195,0.132,-0.142,-0.171,-0.01
1.184,-0.288,0.098,0.386,0.098,-0.337,0.239,0.122,-0.181,0.142,-0.132,-0.166,0.0
1.186,-0.293,0.098,0.39,0.098,-0.342,0.244,0.112,-0.176,0.142,-0.132,-0.166,-0.005
1.188,-0.293,0.063,0.356,0.117,-0.327,0.21,0.132,-0.151,0.156,-0.117,-0.146,0.01
1.19,-0.259,0.088,0.346,0.088,-0.303,0.215,0.142,-0.132,0.166,-0.107,-0.146,0.01
1.192,-0.249,0.083,0.332,0.083,-0.293,0.205,0.127,-0.132,0.171,-0.112,-0.146,-0.005
1.194,-0.239,0.068,0.307,0.088,-0.273,0.185,0.117,-0.117,0.171,-0.102,-0.137,0.0
1.196,-0.2,0.107,0.307,0.049,-0.254,0.205,0.127,-0.102,0.195,-0.093,-0.127,0.005
1.198,-0.205,0.107,0.312,0.049,-0.259,0.21,0.122,-0.098,0.205,-0.073,-0.117,0.024
1.2,-0.259,0.059,0.317,0.102,-0.288,0.185,0.112,-0.102,0.2,-0.078,-0.117,0.02
1.202,-0.239,0.059,0.298,0.093,-0.268,0.176,0.098,-0.107,0.195,-0.083,-0.122,0.01
1.204,-0.22,0.078,0.298,0.073,-0.259,0.185,0.117,-0.078,0.22,-0.054,-0.093,0.02
1.206,-0.19,0.093,0.283,0.049,-0.239,0.185,0.132,-0.044,0.244,-0.034,-0.068,0.044
1.208,-0.195,0.093,0.288,0.054,-0.244,0.19,0.142,-0.029,0.259,-0.02,-0.049,0.054
1.21,-0.195,0.083,0.278,0.059,-0.239,0.181,0.142,-0.02,0.259,-0.024,-0.059,0.044
1.212,-0.19,0.073,0.264,0.059,-0.229,0.166,0.151,-0.015,0.264,-0.02,-0.063,0.039
1.214,-0.176,0.078,0.254,0.049,-0.215,0.166,0.151,0.0,0.273,-0.01,-0.049,0.044
1.216,-0.161,0.083,0.244,0.039,-0.205,0.161,0.161,0.005,0.283,-0.005,-0.049,0.054
1.218,-0.151,0.083,0.234,0.034,-0.195,0.156,0.151,0.01,0.293,0.0,-0.039,0.059
1.22,-0.132,0.073,0.205,0.029,-0.171,0.137,0.151,0.024,0.298,0.01,-0.034,0.063
1.222,-0.078,0.093,0.171,-0.005,-0.127,0.132,0.142,0.024,0.298,0.01,-0.029,0.063
1.224,-0.078,0.088,0.166,-0.005,-0.122,0.127,0.142,0.034,0.303,0.02,-0.024,0.063
1.226,-0.083,0.093,0.176,-0.005,-0.132,0.132,0.151,0.054,0.317,0.034,-0.01,0.078
1.228,-0.102,0.078,0.181,0.015,-0.142,0.127,0.151,0.063,0.322,0.044,0.0,0.083
1.23,-0.107,0.088,0.195,0.01,-0.151,0.142,0.137,0.063,0.317,0.034,-0.01,0.078
1.232,-0.142,0.063,0.205,0.039,-0.176,0.132,0.132,0.063,0.322,0.039,-0.005,0.083
1.234,-0.083,0.107,0.19,-0.01,-0.137,0.146,0.127,0.073,0.332,0.054,0.01,0.098
1.236,-0.034,0.122,0.156,-0.044,-0.098,0.137,0.127,0.078,0.342,0.063,0.02,0.102
1.238,-0.029,0.107,0.137,-0.039,-0.083,0.122,0.102,0.063,0.327,0.063,0.02,0.107
1.24,-0.102,0.039,0.142,0.034,-0.122,0.088,0.063,0.039,0.298,0.039,0.005,0.088
1.242,-0.166,-0.005,0.161,0.088,-0.166,0.078,0.034,0.005,0.273,0.02,-0.015,0.073
1.244,-0.151,-0.024,0.127,0.088,-0.142,0.049,0.015,-0.01,0.259,0.015,-0.02,0.068
1.246,-0.039,0.078,0.117,-0.02,-0.078,0.098,0.034,0.02,0.298,0.049,0.02,0.102
1.248,0.0,0.102,0.102,-0.049,-0.054,0.102,0.024,0.015,0.298,0.059,0.029,0.107
1.25,-0.044,0.049,0.093,0.0,-0.068,0.068,0.0,-0.01,0.273,0.034,0.015,0.102
1.252,-0.054,0.049,0.102,0.005,-0.078,0.073,0.0,-0.01,0.268,0.034,0.015,0.102
1.254,-0.029,0.078,0.107,-0.024,-0.068,0.093,0.015,-0.01,0.264,0.029,0.015,0.107
1.256,-0.039,0.068,0.107,-0.015,-0.073,0.088,0.015,-0.015,0.259,0.024,0.015,0.102
1.258,-0.039,0.049,0.088,-0.005,-0.063,0.068,0.005,-0.024,0.249,0.024,0.015,0.093
1.26,-0.044,0.044,0.088,0.0,-0.068,0.063,0.005,-0.024,0.254,0.02,0.005,0.088
1.262,-0.02,0.063,0.083,-0.02,-0.054,0.073,0.01,-0.015,0.259,0.029,0.01,0.093
1.264,-0.015,0.068,0.083,-0.024,-0.049,0.073,0.02,-0.005,0.268,0.039,0.02,0.098
1.266,-0.039,0.039,0.078,0.0,-0.059,0.059,0.02,-0.01,0.259,0.039,0.02,0.102
1.268,-0.044,0.049,0.093,0.0,-0.068,0.068,0.024,-0.01,0.254,0.034,0.02,0.107
1.27,-0.068,0.034,0.102,0.02,-0.088,0.068,0.015,-0.02,0.244,0.029,0.015,0.112
1.272,-0.083,0.029,0.112,0.029,-0.098,0.068,0.01,-0.029,0.234,0.02,0.005,0.098
1.274,-0.054,0.049,0.102,0.005,-0.078,0.073,0.02,-0.034,0.234,0.02,0.005,0.093
1.276,-0.015,0.063,0.078,-0.024,-0.049,0.068,0.015,-0.034,0.239,0.02,0.005,0.098
1.278,-0.024,0.063,0.088,-0.02,-0.059,0.073,0.024,-0.024,0.249,0.039,0.024,0.112
1.28,-0.054,0.034,0.088,0.01,-0.073,0.059,0.02,-0.02,0.249,0.039,0.024,0.117
1.282,-0.059,0.024,0.083,0.02,-0.073,0.054,0.02,-0.02,0.244,0.039,0.024,0.112
1.284,-0.039,0.024,0.063,0.01,-0.054,0.044,0.015,-0.02,0.239,0.034,0.02,0.102
1.286,-0.034,0.02,0.054,0.01,-0.044,0.034,0.015,-0.02,0.229,0.024,0.01,0.078
1.288,-0.059,0.015,0.073,0.024,-0.068,0.044,0.01,-0.02,0.224,0.02,0.01,0.088
1.29,-0.044,0.029,0.073,0.01,-0.059,0.049,0.015,-0.02,0.239,0.024,0.015,0.098
1.292,-0.029,0.015,0.044,0.01,-0.039,0.029,0.015,-0.024,0.224,0.02,0.005,0.088
1.294,-0.01,0.02,0.029,-0.005,-0.02,0.024,0.015,-0.039,0.224,0.01,-0.005,0.083
1.296,-0.01,0.024,0.034,-0.005,-0.024,0.029,0.01,-0.039,0.215,0.01,0.0,0.088
1.298,-0.044,-0.015,0.029,0.029,-0.039,0.005,-0.005,-0.054,0.2,-0.005,-0.015,0.078
1.3,-0.024,0.015,0.039,0.005,-0.034,0.024,0.0,-0.039,0.205,0.005,0.0,0.088
1.302,-0.024,0.02,0.044,0.005,-0.034,0.029,0.01,-0.034,0.21,0.015,0.015,0.098
1.304,-0.039,0.015,0.054,0.015,-0.049,0.034,0.005,-0.034,0.215,0.02,0.015,0.102
1.306,0.0,0.029,0.029,-0.015,-0.015,0.029,0.005,-0.029,0.215,0.024,0.01,0.098
1.308,-0.015,0.024,0.039,-0.005,-0.029,0.029,0.02,-0.02,0.215,0.029,0.015,0.098
1.31,-0.034,0.029,0.063,0.005,-0.049,0.044,0.029,-0.015,0.22,0.034,0.02,0.107
1.312,-0.044,0.01,0.054,0.02,-0.049,0.029,0.02,-0.024,0.21,0.024,0.01,0.102
1.314,-0.01,0.039,0.049,-0.015,-0.029,0.044,0.024,-0.024,0.215,0.024,0.01,0.102
1.316,0.0,0.063,0.063,-0.029,-0.034,0.063,0.034,-0.01,0.229,0.034,0.02,0.117
1.318,0.005,0.073,0.068,-0.039,-0.034,0.068,0.024,-0.024,0.22,0.024,0.005,0.102
1.32,-0.039,0.044,0.083,0.0,-0.063,0.063,0.02,-0.024,0.215,0.02,0.005,0.102
1.322,-0.088,0.0,0.088,0.044,-0.088,0.044,0.02,-0.024,0.215,0.024,0.01,0.107
1.324,-0.088,0.0,0.088,0.044,-0.088,0.044,0.02,-0.024,0.215,0.029,0.01,0.102
1.326,-0.102,-0.044,0.059,0.073,-0.083,0.005,0.005,-0.039,0.19,0.01,-0.01,0.073
1.328,-0.088,-0.054,0.034,0.073,-0.063,-0.01,-0.005,-0.049,0.176,-0.01,-0.024,0.063
1.33,-0.005,0.073,0.078,-0.034,-0.044,0.073,0.054,0.005,0.224,0.049,0.034,0.127
1.332,0.005,0.049,0.044,-0.024,-0.02,0.044,0.039,-0.01,0.21,0.029,0.02,0.102
1.334,-0.024,0.0,0.024,0.015,-0.024,0.01,0.015,-0.034,0.181,0.005,-0.01,0.083
1.336,-0.01,0.015,0.024,0.0,-0.02,0.02,0.024,-0.034,0.19,0.01,0.0,0.093
1.338,0.005,0.024,0.02,-0.015,-0.01,0.02,0.02,-0.039,0.185,0.0,-0.01,0.083
1.34,-0.015,0.01,0.024,0.005,-0.02,0.015,0.005,-0.049,0.176,0.0,-0.015,0.068
1.342,-0.039,0.01,0.049,0.015,-0.044,0.029,0.01,-0.039,0.181,0.01,-0.005,0.088
1.344,-0.015,0.039,0.054,-0.01,-0.034,0.044,0.015,-0.029,0.195,0.02,0.01,0.098
1.346,-0.024,0.029,0.054,0.0,-0.039,0.039,0.015,-0.034,0.181,0.01,0.01,0.093
1.348,-0.034,0.005,0.039,0.015,-0.039,0.02,0.01,-0.044,0.166,0.005,-0.005,0.088
1.35,-0.02,0.01,0.029,0.005,-0.024,0.02,0.0,-0.049,0.161,-0.005,-0.015,0.078
1.352,0.01,0.029,0.02,-0.02,-0.005,0.024,0.005,-0.044,0.156,0.0,-0.015,0.078
1.354,-0.005,0.024,0.029,-0.01,-0.02,0.024,0.005,-0.044,0.171,-0.005,-0.015,0.083
1.356,-0.039,-0.01,0.029,0.024,-0.034,0.01,0.0,-0.054,0.161,-0.015,-0.024,0.073
1.358,-0.029,-0.015,0.015,0.024,-0.024,0.0,0.0,-0.054,0.151,-0.02,-0.029,0.073
1.36,-0.049,-0.034,0.015,0.044,-0.034,-0.01,-0.005,-0.063,0.146,-0.024,-0.034,0.063
1.362,-0.063,-0.029,0.034,0.049,-0.049,0.0,0.0,-0.059,0.146,-0.02,-0.029,0.073
1.364,0.015,0.049,0.034,-0.029,-0.01,0.039,0.02,-0.034,0.161,0.01,0.0,0.098
1.366,0.005,0.029,0.024,-0.015,-0.01,0.024,0.015,-0.039,0.156,0.0,-0.01,0.083
1.368,0.0,0.02,0.02,-0.01,-0.01,0.02,0.015,-0.044,0.156,-0.005,-0.015,0.078
1.37,-0.005,0.015,0.02,-0.005,-0.015,0.015,0.02,-0.044,0.146,-0.01,-0.02,0.078
1.372,-0.029,-0.01,0.02,0.02,-0.024,0.005,0.01,-0.059,0.142,-0.024,-0.024,0.073
1.374,-0.024,-0.024,0.0,0.024,-0.015,-0.015,0.0,-0.068,0.137,-0.024,-0.034,0.073
1.376,-0.024,-0.029,-0.005,0.029,-0.01,-0.02,-0.005,-0.068,0.132,-0.029,-0.039,0.068
1.378,-0.049,-0.01,0.039,0.029,-0.044,0.015,0.0,-0.063,0.137,-0.024,-0.034,0.068
1.38,-0.02,0.02,0.039,0.0,-0.029,0.029,0.005,-0.063,0.137,-0.02,-0.029,0.078
1.382,0.0,0.02,0.02,-0.01,-0.01,0.02,0.005,-0.063,0.137,-0.02,-0.029,0.088
1.384,-0.01,0.015,0.024,0.0,-0.02,0.02,0.0,-0.063,0.127,-0.029,-0.039,0.078
1.386,-0.02,-0.005,0.015,0.015,-0.02,0.005,-0.01,-0.073,0.112,-0.034,-0.044,0.059
1.388,-0.044,-0.015,0.029,0.029,-0.039,0.005,-0.005,-0.068,0.107,-0.039,-0.044,0.054
1.39,-0.059,-0.024,0.034,0.044,-0.049,0.005,0.005,-0.063,0.117,-0.029,-0.039,0.054
1.392,-0.024,0.0,0.024,0.015,-0.024,0.01,0.01,-0.054,0.117,-0.024,-0.039,0.059
1.394,-0.005,0.0,0.005,0.005,-0.005,0.0,0.005,-0.063,0.112,-0.029,-0.044,0.054
1.396,0.0,-0.005,-0.005,0.005,0.0,-0.005,0.0,-0.068,0.102,-0.039,-0.054,0.049
1.398,-0.049,-0.029,0.02,0.039,-0.034,-0.005,-0.015,-0.088,0.093,-0.044,-0.063,0.044
1.4,-0.044,-0.02,0.024,0.034,-0.034,0.0,-0.015,-0.088,0.098,-0.044,-0.059,0.039
1.402,-0.024,-0.01,0.015,0.02,-0.02,0.0,0.0,-0.078,0.098,-0.029,-0.049,0.054
1.404,-0.054,-0.015,0.039,0.034,-0.049,0.01,0.005,-0.068,0.107,-0.015,-0.029,0.073
1.406,-0.024,0.01,0.034,0.01,-0.029,0.02,0.005,-0.068,0.102,-0.02,-0.034,0.068
1.408,-0.005,0.005,0.01,0.0,-0.01,0.005,-0.01,-0.083,0.088,-0.039,-0.054,0.063
1.41,-0.044,0.0,0.044,0.024,-0.044,0.02,-0.005,-0.073,0.098,-0.024,-0.044,0.063
1.412,-0.063,0.039,0.102,0.015,-0.083,0.068,0.029,-0.044,0.127,0.0,-0.015,0.093
1.414,-0.083,0.073,0.156,0.005,-0.122,0.112,0.059,-0.01,0.171,0.034,0.02,0.122
1.416,-0.054,0.146,0.2,-0.044,-0.127,0.171,0.093,0.029,0.21,0.068,0.044,0.151
1.418,-0.102,0.142,0.244,-0.02,-0.176,0.19,0.137,0.083,0.259,0.102,0.068,0.161
1.42,-0.132,0.107,0.239,0.015,-0.185,0.171,0.166,0.137,0.298,0.122,0.083,0.156
1.422,-0.102,0.102,0.205,0.0,-0.156,0.151,0.181,0.181,0.327,0.156,0.102,0.156
1.424,-0.098,0.068,0.166,0.015,-0.132,0.117,0.176,0.205,0.332,0.166,0.117,0.151
1.426,-0.117,0.01,0.127,0.054,-0.122,0.068,0.171,0.249,0.356,0.195,0.151,0.151
1.428,-0.112,-0.005,0.107,0.059,-0.112,0.049,0.181,0.337,0.425,0.283,0.234,0.2
1.43,0.039,0.112,0.073,-0.073,-0.02,0.093,0.234,0.488,0.551,0.429,0.371,0.293
1.432,0.161,0.151,-0.01,-0.156,0.083,0.068,0.239,0.63,0.669,0.571,0.517,0.39
1.434,0.234,0.132,-0.102,-0.181,0.166,0.015,0.2,0.761,0.776,0.727,0.678,0.478
1.436,0.376,0.176,-0.2,-0.273,0.288,-0.015,0.137,0.834,0.883,0.908,0.878,0.63
1.438,0.532,0.244,-0.288,-0.386,0.41,-0.024,0.068,0.883,0.966,1.069,1.054,0.756
1.44,0.649,0.273,-0.376,-0.459,0.512,-0.054,0.024,0.908,0.986,1.083,1.049,0.752
1.442,0.732,0.229,-0.503,-0.478,0.615,-0.137,-0.015,0.854,0.898,0.956,0.898,0.639
1.444,0.8,0.122,-0.678,-0.459,0.737,-0.278,-0.073,0.712,0.703,0.698,0.625,0.429
1.446,0.81,-0.02,-0.83,-0.395,0.82,-0.425,-0.102,0.527,0.473,0.405,0.312,0.171
1.448,0.771,-0.107,-0.878,-0.332,0.825,-0.493,-0.107,0.303,0.229,0.117,0.024,-0.034
1.45,0.678,-0.142,-0.82,-0.268,0.747,-0.483,-0.102,0.015,-0.024,-0.156,-0.22,-0.171
1.452,0.517,-0.156,-0.673,-0.181,0.595,-0.415,-0.078,-0.327,-0.303,-0.415,-0.434,-0.264
1.454,0.327,-0.19,-0.517,-0.068,0.42,-0.356,-0.078,-0.649,-0.547,-0.644,-0.634,-0.337
1.456,0.2,-0.171,-0.371,-0.015,0.283,-0.273,-0.073,-0.8,-0.659,-0.737,-0.693,-0.342
1.458,0.132,-0.146,-0.278,0.01,0.205,-0.215,-0.083,-0.81,-0.649,-0.678,-0.625,-0.288
1.46,0.156,-0.161,-0.317,0.005,0.234,-0.239,-0.122,-0.805,-0.669,-0.659,-0.595,-0.278
1.462,0.059,-0.215,-0.273,0.078,0.166,-0.244,-0.107,-0.786,-0.659,-0.654,-0.6,-0.293
1.464,-0.029,-0.195,-0.166,0.112,0.068,-0.181,-0.054,-0.727,-0.615,-0.625,-0.571,-0.273
1.466,-0.098,-0.171,-0.073,0.137,-0.015,-0.122,-0.01,-0.664,-0.551,-0.571,-0.522,-0.239
1.468,-0.166,-0.176,-0.01,0.171,-0.078,-0.093,-0.01,-0.595,-0.488,-0.503,-0.464,-0.22
1.47,-0.132,-0.102,0.029,0.117,-0.083,-0.039,-0.01,-0.493,-0.366,-0.39,-0.366,-0.146
1.472,-0.093,-0.029,0.063,0.063,-0.078,0.015,-0.024,-0.39,-0.264,-0.278,-0.268,-0.068
1.474,-0.068,0.005,0.073,0.034,-0.073,0.039,-0.039,-0.303,-0.185,-0.205,-0.195,-0.015
1.476,-0.015,0.01,0.024,0.005,-0.02,0.015,-0.054,-0.234,-0.137,-0.161,-0.166,-0.005
1.478,-0.015,-0.005,0.01,0.01,-0.015,0.0,-0.054,-0.176,-0.083,-0.117,-0.127,0.0
1.48,0.0,0.005,0.005,0.0,-0.005,0.005,-0.034,-0.127,-0.034,-0.083,-0.098,0.01
1.482,-0.005,0.01,0.015,0.0,-0.01,0.01,-0.024,-0.107,-0.02,-0.068,-0.073,0.024
1.484,-0.01,0.015,0.024,0.0,-0.02,0.02,-0.034,-0.107,-0.02,-0.068,-0.068,0.029
1.486,-0.02,-0.02,0.0,0.02,-0.01,-0.01,-0.044,-0.098,-0.029,-0.073,-0.078,0.024
1.488,0.029,0.015,-0.015,-0.02,0.02,0.0,-0.029,-0.088,-0.02,-0.063,-0.063,0.034
1.49,0.01,0.005,-0.005,-0.005,0.005,0.0,-0.034,-0.093,-0.029,-0.073,-0.078,0.01
1.492,-0.01,0.02,0.029,-0.005,-0.02,0.024,-0.015,-0.078,-0.02,-0.063,-0.073,0.015
1.494,-0.02,0.029,0.049,-0.005,-0.034,0.039,-0.01,-0.078,-0.024,-0.068,-0.083,0.015
1.496,-0.029,0.005,0.034,0.015,-0.034,0.02,-0.029,-0.098,-0.054,-0.098,-0.112,0.0
1.498,-0.034,-0.015,0.02,0.024,-0.029,0.0,-0.029,-0.093,-0.044,-0.088,-0.098,0.01
1.5,-0.044,-0.039,0.005,0.044,-0.024,-0.02,-0.024,-0.098,-0.054,-0.083,-0.098,0.015
1.502,-0.044,-0.034,0.01,0.039,-0.029,-0.015,-0.029,-0.088,-0.044,-0.073,-0.088,0.01
1.504,0.015,0.034,0.02,-0.024,-0.005,0.024,-0.01,-0.068,-0.024,-0.054,-0.068,0.034
1.506,0.01,0.044,0.034,-0.024,-0.015,0.039,-0.02,-0.068,-0.029,-0.054,-0.063,0.034
1.508,0.005,0.039,0.034,-0.02,-0.015,0.034,-0.01,-0.059,-0.029,-0.054,-0.063,0.029
1.51,-0.024,0.0,0.024,0.015,-0.024,0.01,-0.015,-0.068,-0.044,-0.063,-0.078,0.02
1.512,-0.049,-0.01,0.039,0.029,-0.044,0.015,-0.024,-0.073,-0.054,-0.063,-0.083,0.01
1.514,-0.073,-0.029,0.044,0.054,-0.059,0.005,-0.02,-0.078,-0.059,-0.068,-0.088,-0.005
1.516,0.005,0.054,0.049,-0.029,-0.024,0.049,0.0,-0.059,-0.044,-0.054,-0.073,0.024
1.518,0.01,0.024,0.015,-0.015,-0.005,0.02,-0.02,-0.078,-0.054,-0.068,-0.078,0.01
1.52,-0.029,-0.024,0.005,0.029,-0.02,-0.01,-0.039,-0.093,-0.068,-0.073,-0.093,0.0
1.522,-0.02,-0.01,0.01,0.015,-0.015,0.0,-0.029,-0.083,-0.059,-0.063,-0.073,0.01
1.524,-0.02,-0.005,0.015,0.015,-0.02,0.005,-0.02,-0.063,-0.044,-0.054,-0.063,0.02
1.526,-0.039,-0.005,0.034,0.024,-0.039,0.015,-0.034,-0.068,-0.054,-0.054,-0.073,0.005
1.528,-0.029,0.0,0.029,0.015,-0.029,0.015,-0.039,-0.088,-0.078,-0.068,-0.088,0.0
1.53,-0.029,-0.005,0.024,0.02,-0.029,0.01,-0.034,-0.088,-0.073,-0.068,-0.083,0.0
1.532,-0.024,0.01,0.034,0.01,-0.029,0.02,-0.024,-0.073,-0.068,-0.059,-0.078,-0.005
1.534,-0.034,0.005,0.039,0.015,-0.039,0.02,-0.024,-0.078,-0.068,-0.063,-0.078,-0.01
1.536,-0.044,-0.029,0.015,0.039,-0.029,-0.01,-0.039,-0.102,-0.093,-0.088,-0.107,-0.034
1.538,-0.015,-0.005,0.01,0.01,-0.015,0.0,-0.039,-0.098,-0.088,-0.083,-0.102,-0.024
1.54,0.02,0.029,0.01,-0.024,0.005,0.02,-0.015,-0.073,-0.063,-0.059,-0.078,0.005
1.542,0.059,0.063,0.005,-0.059,0.024,0.034,-0.005,-0.063,-0.054,-0.044,-0.063,0.034
1.544,0.039,0.039,0.0,-0.039,0.02,0.02,-0.034,-0.078,-0.068,-0.059,-0.073,0.01
1.546,-0.039,-0.029,0.01,0.034,-0.024,-0.01,-0.063,-0.098,-0.088,-0.063,-0.093,-0.01
1.548,-0.063,-0.034,0.029,0.049,-0.049,-0.005,-0.049,-0.088,-0.083,-0.063,-0.093,-0.015
1.55,-0.063,-0.024,0.039,0.044,-0.054,0.005,-0.049,-0.083,-0.083,-0.068,-0.098,-0.01
1.552,-0.039,-0.02,0.02,0.029,-0.029,0.0,-0.039,-0.088,-0.088,-0.073,-0.098,-0.005
1.554,-0.01,0.0,0.01,0.005,-0.01,0.005,-0.024,-0.078,-0.083,-0.063,-0.093,-0.005
1.556,-0.015,-0.005,0.01,0.01,-0.015,0.0,-0.034,-0.093,-0.088,-0.083,-0.098,-0.015
1.558,-0.024,0.01,0.034,0.01,-0.029,0.02,-0.029,-0.083,-0.078,-0.073,-0.093,-0.005
1.56,-0.005,0.015,0.02,-0.005,-0.015,0.015,-0.02,-0.063,-0.063,-0.059,-0.073,0.005
1.562,-0.039,-0.01,0.029,0.024,-0.034,0.01,-0.024,-0.063,-0.063,-0.059,-0.073,0.005
1.564,-0.078,-0.054,0.024,0.068,-0.054,-0.015,-0.034,-0.078,-0.073,-0.068,-0.083,-0.015
1.566,-0.034,0.01,0.044,0.015,-0.039,0.024,-0.024,-0.063,-0.059,-0.049,-0.068,0.0
1.568,-0.02,0.02,0.039,0.0,-0.029,0.029,-0.024,-0.068,-0.068,-0.054,-0.073,-0.01
1.57,-0.029,0.015,0.044,0.01,-0.039,0.029,-0.029,-0.059,-0.068,-0.059,-0.078,0.0
1.572,-0.039,0.0,0.039,0.02,-0.039,0.02,-0.029,-0.059,-0.073,-0.059,-0.073,-0.005
1.574,-0.039,-0.02,0.02,0.029,-0.029,0.0,-0.049,-0.083,-0.093,-0.078,-0.088,-0.024
1.576,-0.029,-0.01,0.02,0.02,-0.024,0.005,-0.044,-0.078,-0.088,-0.073,-0.093,-0.024
1.578,-0.024,0.005,0.029,0.01,-0.029,0.015,-0.039,-0.073,-0.073,-0.063,-0.083,-0.01
1.58,-0.024,0.015,0.039,0.005,-0.034,0.024,-0.02,-0.059,-0.059,-0.049,-0.059,0.015
1.582,0.0,0.034,0.034,-0.015,-0.02,0.034,-0.02,-0.054,-0.059,-0.049,-0.059,0.0
1.584,-0.015,0.02,0.034,0.0,-0.024,0.024,-0.034,-0.059,-0.063,-0.054,-0.059,0.0
1.586,-0.044,-0.015,0.029,0.029,-0.039,0.005,-0.049,-0.068,-0.078,-0.059,-0.073,-0.01
1.588,0.0,0.0,0.0,0.0,0.0,0.0,-0.049,-0.073,-0.093,-0.073,-0.088,-0.024
1.59,-0.024,0.01,0.034,0.01,-0.029,0.02,-0.034,-0.063,-0.078,-0.063,-0.083,-0.024
1.592,-0.02,0.01,0.029,0.005,-0.024,0.02,-0.029,-0.054,-0.073,-0.054,-0.078,-0.015
1.594,-0.005,0.029,0.034,-0.01,-0.02,0.029,-0.029,-0.054,-0.073,-0.054,-0.078,-0.015
1.596,-0.024,0.0,0.024,0.015,-0.024,0.01,-0.049,-0.068,-0.093,-0.068,-0.088,-0.029
1.598,-0.005,-0.01,-0.005,0.01,0.0,-0.01,-0.059,-0.078,-0.098,-0.078,-0.093,-0.034
1.6,-0.01,-0.01,0.0,0.01,-0.005,-0.005,-0.063,-0.088,-0.098,-0.073,-0.093,-0.044
1.602,-0.054,0.0,0.054,0.029,-0.054,0.024,-0.039,-0.063,-0.068,-0.044,-0.068,-0.01
1.604,-0.02,0.015,0.034,0.005,-0.029,0.024,-0.049,-0.068,-0.078,-0.054,-0.073,-0.005
1.606,-0.024,0.005,0.029,0.01,-0.029,0.015,-0.054,-0.059,-0.073,-0.044,-0.068,-0.015
1.608,-0.029,0.02,0.049,0.005,-0.039,0.034,-0.039,-0.049,-0.068,-0.039,-0.063,-0.01
1.61,-0.029,0.0,0.029,0.015,-0.029,0.015,-0.059,-0.068,-0.093,-0.063,-0.083,-0.034
1.612,0.0,0.015,0.015,-0.005,-0.01,0.015,-0.049,-0.063,-0.088,-0.059,-0.078,-0.029
1.614,0.02,0.054,0.034,-0.034,-0.01,0.044,-0.039,-0.049,-0.078,-0.044,-0.059,-0.015
1.616,-0.024,0.01,0.034,0.01,-0.029,0.02,-0.059,-0.078,-0.107,-0.068,-0.088,-0.039
1.618,-0.059,-0.029,0.029,0.044,-0.044,0.0,-0.059,-0.073,-0.098,-0.059,-0.068,-0.034
1.62,-0.068,-0.068,0.0,0.068,-0.034,-0.034,-0.068,-0.078,-0.102,-0.063,-0.073,-0.039
1.622,0.005,-0.01,-0.015,0.005,0.01,-0.015,-0.068,-0.073,-0.098,-0.059,-0.073,-0.024
1.624,0.034,0.034,0.0,-0.034,0.015,0.015,-0.049,-0.049,-0.078,-0.034,-0.044,0.005
1.626,0.005,0.01,0.005,-0.005,0.0,0.005,-0.059,-0.049,-0.083,-0.044,-0.049,-0.015
1.628,-0.015,-0.005,0.01,0.01,-0.015,0.0,-0.068,-0.063,-0.102,-0.059,-0.078,-0.039
1.63,-0.029,-0.005,0.024,0.02,-0.029,0.01,-0.068,-0.068,-0.107,-0.063,-0.078,-0.039
1.632,-0.029,-0.005,0.024,0.02,-0.029,0.01,-0.063,-0.063,-0.107,-0.059,-0.073,-0.034
1.634,-0.034,-0.01,0.024,0.024,-0.029,0.005,-0.063,-0.059,-0.107,-0.049,-0.068,-0.029
1.636,-0.039,-0.015,0.024,0.029,-0.034,0.005,-0.059,-0.059,-0.107,-0.054,-0.078,-0.034
1.638,-0.059,-0.034,0.024,0.049,-0.044,-0.005,-0.063,-0.059,-0.102,-0.049,-0.063,-0.029
1.64,-0.005,-0.015,-0.01,0.01,0.0,-0.015,-0.078,-0.068,-0.112,-0.059,-0.068,-0.029
1.642,0.0,0.005,0.005,0.0,-0.005,0.005,-0.083,-0.078,-0.117,-0.063,-0.073,-0.039
1.644,0.005,0.039,0.034,-0.02,-0.015,0.034,-0.078,-0.073,-0.112,-0.059,-0.063,-0.029
1.646,0.0,0.034,0.034,-0.015,-0.02,0.034,-0.068,-0.054,-0.093,-0.039,-0.044,-0.005
1.648,0.024,0.059,0.034,-0.039,-0.005,0.044,-0.059,-0.044,-0.098,-0.034,-0.034,-0.005
1.65,0.049,0.059,0.01,-0.054,0.02,0.034,-0.059,-0.039,-0.093,-0.029,-0.029,0.0
1.652,0.068,0.068,0.0,-0.068,0.034,0.034,-0.063,-0.034,-0.102,-0.034,-0.034,0.005
1.654,-0.01,-0.01,0.0,0.01,-0.005,-0.005,-0.098,-0.073,-0.142,-0.063,-0.068,-0.039
1.656,-0.034,-0.039,-0.005,0.039,-0.015,-0.024,-0.107,-0.093,-0.156,-0.083,-0.083,-0.054
1.658,0.02,0.0,-0.02,-0.01,0.02,-0.01,-0.093,-0.073,-0.151,-0.068,-0.073,-0.039
1.66,0.029,0.015,-0.015,-0.02,0.02,0.0,-0.093,-0.063,-0.137,-0.049,-0.054,-0.015
1.662,0.01,0.0,-0.01,-0.005,0.01,-0.005,-0.107,-0.073,-0.142,-0.059,-0.063,-0.02
1.664,0.005,0.0,-0.005,0.0,0.005,-0.005,-0.098,-0.063,-0.137,-0.049,-0.054,-0.01
1.666,0.01,0.02,0.01,-0.015,0.0,0.015,-0.098,-0.054,-0.132,-0.039,-0.044,-0.015
1.668,-0.01,0.01,0.02,0.0,-0.015,0.015,-0.107,-0.068,-0.142,-0.049,-0.054,-0.02
1.67,0.024,0.039,0.015,-0.029,0.005,0.024,-0.093,-0.054,-0.127,-0.039,-0.039,-0.005
1.672,0.039,0.034,-0.005,-0.034,0.02,0.015,-0.098,-0.054,-0.132,-0.039,-0.044,-0.01
1.674,0.02,0.01,-0.01,-0.015,0.015,0.0,-0.117,-0.068,-0.156,-0.054,-0.059,-0.024
1.676,0.005,-0.01,-0.015,0.005,0.01,-0.015,-0.127,-0.088,-0.171,-0.068,-0.073,-0.029
1.678,0.02,0.0,-0.02,-0.01,0.02,-0.01,-0.127,-0.078,-0.166,-0.049,-0.054,-0.024
1.68,0.029,0.02,-0.01,-0.024,0.02,0.005,-0.122,-0.078,-0.161,-0.039,-0.044,0.005
1.682,0.063,0.039,-0.024,-0.049,0.044,0.005,-0.127,-0.078,-0.161,-0.039,-0.039,-0.01
1.684,0.024,-0.005,-0.029,-0.01,0.024,-0.02,-0.146,-0.093,-0.181,-0.049,-0.049,-0.024
1.686,0.02,0.01,-0.01,-0.015,0.015,0.0,-0.142,-0.088,-0.181,-0.044,-0.034,-0.015
1.688,0.044,0.039,-0.005,-0.039,0.024,0.015,-0.137,-0.093,-0.185,-0.044,-0.039,-0.005
1.69,0.059,0.054,-0.005,-0.054,0.029,0.024,-0.127,-0.088,-0.185,-0.039,-0.034,-0.01
1.692,0.068,0.034,-0.034,-0.049,0.049,0.0,-0.127,-0.078,-0.181,-0.034,-0.034,0.005
1.694,0.088,0.044,-0.044,-0.063,0.063,0.0,-0.137,-0.083,-0.195,-0.039,-0.039,0.0
1.696,0.088,0.029,-0.059,-0.059,0.073,-0.015,-0.156,-0.107,-0.215,-0.063,-0.059,-0.024
1.698,0.078,0.01,-0.068,-0.044,0.073,-0.029,-0.156,-0.102,-0.215,-0.059,-0.054,-0.015
1.7,0.01,-0.039,-0.049,0.015,0.029,-0.044,-0.171,-0.112,-0.22,-0.059,-0.059,-0.029
1.702,0.083,-0.015,-0.098,-0.034,0.088,-0.059,-0.176,-0.122,-0.229,-0.063,-0.063,-0.02
1.704,0.176,0.093,-0.083,-0.132,0.127,0.005,-0.151,-0.083,-0.19,-0.029,-0.024,0.024
1.706,0.132,0.068,-0.063,-0.098,0.098,0.0,-0.156,-0.083,-0.2,-0.024,-0.024,0.015
1.708,0.112,0.049,-0.063,-0.078,0.088,-0.01,-0.171,-0.107,-0.224,-0.049,-0.044,0.0
1.71,0.078,0.015,-0.063,-0.044,0.068,-0.024,-0.181,-0.122,-0.249,-0.063,-0.059,-0.02
1.712,0.063,-0.01,-0.073,-0.024,0.068,-0.044,-0.185,-0.127,-0.259,-0.068,-0.068,-0.029
1.714,0.122,0.039,-0.083,-0.078,0.102,-0.024,-0.176,-0.117,-0.254,-0.063,-0.054,-0.005
1.716,0.142,0.049,-0.093,-0.093,0.117,-0.024,-0.176,-0.122,-0.259,-0.068,-0.063,-0.01
1.718,0.112,0.024,-0.088,-0.068,0.098,-0.034,-0.176,-0.122,-0.268,-0.068,-0.063,0.0
1.72,0.098,0.015,-0.083,-0.054,0.088,-0.034,-0.171,-0.117,-0.254,-0.063,-0.059,0.0
1.722,0.112,0.044,-0.068,-0.078,0.088,-0.015,-0.171,-0.117,-0.264,-0.059,-0.059,0.0
1.724,0.063,0.005,-0.059,-0.034,0.059,-0.029,-0.176,-0.127,-0.268,-0.063,-0.063,-0.005
1.726,0.083,0.015,-0.068,-0.049,0.073,-0.029,-0.181,-0.117,-0.268,-0.059,-0.054,0.005
1.728,0.112,0.044,-0.068,-0.078,0.088,-0.015,-0.171,-0.122,-0.278,-0.054,-0.054,0.005
1.73,0.107,0.044,-0.063,-0.073,0.083,-0.01,-0.176,-0.122,-0.278,-0.054,-0.054,0.005
1.732,0.068,0.02,-0.049,-0.044,0.059,-0.015,-0.176,-0.117,-0.273,-0.059,-0.054,-0.005
1.734,0.102,0.029,-0.073,-0.063,0.088,-0.024,-0.185,-0.122,-0.283,-0.063,-0.063,-0.01
1.736,0.102,0.029,-0.073,-0.063,0.088,-0.024,-0.181,-0.122,-0.283,-0.063,-0.063,-0.01
1.738,0.127,0.034,-0.093,-0.078,0.107,-0.029,-0.176,-0.112,-0.278,-0.063,-0.059,-0.02
1.74,0.132,0.034,-0.098,-0.083,0.112,-0.034,-0.171,-0.093,-0.268,-0.054,-0.049,-0.02
1.742,0.112,0.02,-0.093,-0.063,0.102,-0.039,-0.171,-0.088,-0.273,-0.054,-0.054,-0.029
1.744,0.112,0.015,-0.098,-0.063,0.102,-0.044,-0.176,-0.093,-0.278,-0.059,-0.063,-0.024
1.746,0.098,0.034,-0.063,-0.063,0.078,-0.015,-0.161,-0.073,-0.268,-0.039,-0.049,-0.01
1.748,0.054,-0.005,-0.059,-0.024,0.054,-0.034,-0.171,-0.093,-0.288,-0.054,-0.063,-0.029
1.75,0.059,0.0,-0.059,-0.029,0.059,-0.029,-0.156,-0.083,-0.283,-0.044,-0.054,-0.034
1.752,0.122,0.049,-0.073,-0.083,0.098,-0.015,-0.146,-0.063,-0.268,-0.034,-0.044,-0.024
1.754,0.127,0.039,-0.088,-0.083,0.107,-0.024,-0.161,-0.068,-0.283,-0.039,-0.059,-0.029
1.756,0.068,0.02,-0.049,-0.044,0.059,-0.015,-0.137,-0.054,-0.264,-0.029,-0.054,-0.02
1.758,0.073,0.015,-0.059,-0.044,0.063,-0.024,-0.132,-0.049,-0.264,-0.024,-0.044,-0.01
1.76,0.102,0.029,-0.073,-0.063,0.088,-0.024,-0.132,-0.044,-0.254,-0.02,-0.044,-0.01
1.762,0.078,0.044,-0.034,-0.059,0.054,0.005,-0.117,-0.029,-0.239,-0.005,-0.034,0.0
1.764,0.063,0.034,-0.029,-0.049,0.044,0.0,-0.122,-0.029,-0.249,-0.015,-0.044,-0.01
1.766,0.054,0.029,-0.024,-0.039,0.039,0.0,-0.112,-0.015,-0.249,-0.005,-0.039,-0.01
1.768,0.054,0.029,-0.024,-0.039,0.039,0.0,-0.112,-0.015,-0.249,-0.01,-0.044,-0.024
1.77,0.098,0.054,-0.044,-0.073,0.068,0.005,-0.112,-0.015,-0.254,-0.015,-0.059,-0.049
1.772,0.059,0.059,0.0,-0.059,0.029,0.029,-0.083,0.005,-0.239,0.0,-0.044,-0.039
1.774,0.034,0.054,0.02,-0.044,0.005,0.034,-0.068,0.015,-0.234,0.01,-0.039,-0.034
1.776,0.073,0.059,-0.015,-0.063,0.044,0.02,-0.078,-0.005,-0.249,-0.005,-0.059,-0.039
1.778,0.107,0.068,-0.039,-0.088,0.073,0.015,-0.073,0.0,-0.249,-0.005,-0.054,-0.029
1.78,0.093,0.049,-0.044,-0.068,0.068,0.0,-0.068,0.005,-0.244,-0.005,-0.054,-0.029
1.782,0.01,-0.01,-0.02,0.0,0.015,-0.015,-0.078,-0.024,-0.268,-0.029,-0.078,-0.063
1.784,-0.015,-0.034,-0.02,0.024,0.0,-0.029,-0.093,-0.034,-0.288,-0.044,-0.098,-0.083
1.786,0.0,-0.01,-0.01,0.005,0.005,-0.01,-0.068,-0.015,-0.278,-0.029,-0.083,-0.068
1.788,0.0,0.01,0.01,-0.005,-0.005,0.01,-0.049,-0.005,-0.273,-0.024,-0.078,-0.049
1.79,-0.01,-0.034,-0.024,0.024,0.005,-0.029,-0.054,-0.02,-0.288,-0.044,-0.098,-0.073
1.792,-0.01,-0.039,-0.029,0.024,0.01,-0.034,-0.059,-0.02,-0.298,-0.054,-0.102,-0.093
1.794,-0.024,-0.039,-0.015,0.034,-0.005,-0.029,-0.059,-0.039,-0.307,-0.068,-0.122,-0.098
1.796,-0.034,-0.049,-0.015,0.044,-0.01,-0.034,-0.054,-0.039,-0.312,-0.068,-0.122,-0.107
1.798,0.044,0.024,-0.02,-0.034,0.029,0.0,-0.024,-0.02,-0.293,-0.044,-0.102,-0.093
1.8,0.044,0.024,-0.02,-0.034,0.029,0.0,-0.024,-0.015,-0.293,-0.044,-0.102,-0.073
1.802,0.005,0.02,0.015,-0.01,-0.005,0.015,-0.02,-0.02,-0.307,-0.054,-0.112,-0.088
1.804,0.01,0.02,0.01,-0.015,0.0,0.015,-0.01,-0.01,-0.303,-0.044,-0.107,-0.078
1.806,-0.024,-0.024,0.0,0.024,-0.015,-0.015,-0.029,-0.029,-0.322,-0.063,-0.127,-0.102
1.808,-0.063,-0.054,0.01,0.059,-0.039,-0.024,-0.039,-0.044,-0.342,-0.083,-0.142,-0.112
1.81,0.005,-0.01,-0.015,0.005,0.01,-0.015,-0.034,-0.049,-0.346,-0.078,-0.146,-0.127
1.812,0.054,0.029,-0.024,-0.039,0.039,0.0,-0.024,-0.039,-0.342,-0.073,-0.137,-0.117
1.814,0.01,0.0,-0.01,-0.005,0.01,-0.005,-0.024,-0.039,-0.346,-0.073,-0.146,-0.122
1.816,-0.01,-0.01,0.0,0.01,-0.005,-0.005,-0.02,-0.044,-0.366,-0.083,-0.161,-0.127
1.818,-0.029,-0.01,0.02,0.02,-0.024,0.005,-0.01,-0.039,-0.351,-0.073,-0.146,-0.122
1.82,-0.01,-0.005,0.005,0.01,-0.01,0.0,-0.01,-0.039,-0.351,-0.073,-0.151,-0.117
1.822,0.0,0.005,0.005,0.0,-0.005,0.005,-0.015,-0.054,-0.366,-0.083,-0.161,-0.122
1.824,-0.029,-0.01,0.02,0.02,-0.024,0.005,-0.024,-0.063,-0.371,-0.088,-0.161,-0.122
1.826,-0.005,0.01,0.015,0.0,-0.01,0.01,-0.02,-0.044,-0.361,-0.073,-0.146,-0.122
1.828,0.01,0.015,0.005,-0.01,0.0,0.01,-0.015,-0.044,-0.366,-0.083,-0.151,-0.122
1.83,-0.01,-0.005,0.005,0.01,-0.01,0.0,-0.015,-0.049,-0.376,-0.083,-0.146,-0.122
1.832,-0.01,-0.015,-0.005,0.015,-0.005,-0.01,-0.015,-0.049,-0.386,-0.093,-0.161,-0.127
1.834,-0.005,-0.024,-0.02,0.015,0.005,-0.024,-0.02,-0.059,-0.39,-0.098,-0.171,-0.137
1.836,-0.015,-0.024,-0.01,0.02,-0.005,-0.02,-0.015,-0.068,-0.39,-0.098,-0.171,-0.142
1.838,-0.039,-0.015,0.024,0.029,-0.034,0.005,-0.015,-0.063,-0.386,-0.088,-0.166,-0.142
1.84,-0.039,-0.015,0.024,0.029,-0.034,0.005,-0.02,-0.059,-0.386,-0.093,-0.161,-0.137
1.842,-0.063,-0.039,0.024,0.054,-0.044,-0.01,-0.02,-0.054,-0.381,-0.088,-0.156,-0.137
1.844,-0.049,-0.024,0.024,0.039,-0.039,0.0,-0.015,-0.054,-0.381,-0.088,-0.156,-0.132
1.846,0.015,0.01,-0.005,-0.01,0.01,0.0,-0.015,-0.054,-0.381,-0.088,-0.166,-0.127
1.848,-0.005,-0.02,-0.015,0.015,0.005,-0.02,-0.02,-0.063,-0.395,-0.102,-0.181,-0.137
1.85,0.0,-0.005,-0.005,0.005,0.0,-0.005,-0.02,-0.068,-0.395,-0.107,-0.185,-0.151
1.852,-0.039,0.005,0.044,0.02,-0.044,0.024,-0.01,-0.049,-0.386,-0.093,-0.171,-0.132
1.854,-0.049,-0.024,0.024,0.039,-0.039,0.0,0.005,-0.044,-0.381,-0.083,-0.156,-0.122
1.856,-0.049,-0.039,0.01,0.044,-0.029,-0.015,-0.02,-0.059,-0.4,-0.102,-0.181,-0.146
1.858,0.0,-0.01,-0.01,0.005,0.005,-0.01,-0.034,-0.068,-0.41,-0.112,-0.185,-0.166
1.86,-0.005,-0.02,-0.015,0.015,0.005,-0.02,-0.02,-0.054,-0.4,-0.102,-0.176,-0.166
1.862,-0.049,-0.044,0.005,0.049,-0.029,-0.02,-0.02,-0.059,-0.405,-0.107,-0.176,-0.161
1.864,-0.029,-0.02,0.01,0.024,-0.02,-0.005,-0.02,-0.049,-0.4,-0.102,-0.176,-0.146
1.866,-0.015,0.01,0.024,0.005,-0.02,0.015,-0.01,-0.039,-0.386,-0.083,-0.161,-0.127
1.868,-0.029,0.0,0.029,0.015,-0.029,0.015,-0.015,-0.034,-0.39,-0.078,-0.161,-0.117
1.87,-0.044,-0.024,0.02,0.034,-0.034,-0.005,-0.02,-0.049,-0.405,-0.093,-0.171,-0.137
1.872,-0.049,-0.044,0.005,0.049,-0.029,-0.02,-0.034,-0.054,-0.415,-0.102,-0.185,-0.151
1.874,-0.059,-0.073,-0.015,0.068,-0.024,-0.044,-0.044,-0.073,-0.429,-0.112,-0.2,-0.171
1.876,0.015,-0.015,-0.029,0.0,0.02,-0.024,-0.024,-0.049,-0.4,-0.088,-0.171,-0.142
1.878,0.015,0.005,-0.01,-0.01,0.01,-0.005,-0.015,-0.039,-0.381,-0.068,-0.156,-0.102
1.88,0.0,-0.005,-0.005,0.005,0.0,-0.005,-0.015,-0.034,-0.386,-0.068,-0.156,-0.102
1.882,0.0,-0.01,-0.01,0.005,0.005,-0.01,-0.02,-0.049,-0.39,-0.073,-0.156,-0.112
1.884,0.0,-0.01,-0.01,0.005,0.005,-0.01,-0.024,-0.049,-0.39,-0.073,-0.156,-0.102
1.886,-0.015,-0.015,0.0,0.015,-0.01,-0.01,-0.01,-0.029,-0.376,-0.059,-0.142,-0.098
1.888,-0.044,-0.015,0.029,0.029,-0.039,0.005,0.0,-0.024,-0.376,-0.059,-0.142,-0.107
1.89,0.02,0.024,0.005,-0.02,0.005,0.015,-0.005,-0.02,-0.381,-0.059,-0.146,-0.098
1.892,0.034,0.0,-0.034,-0.015,0.034,-0.02,-0.024,-0.044,-0.395,-0.078,-0.166,-0.122
1.894,0.0,-0.015,-0.015,0.01,0.005,-0.015,-0.015,-0.034,-0.39,-0.063,-0.151,-0.122
1.896,-0.01,-0.02,-0.01,0.015,0.0,-0.015,-0.02,-0.034,-0.381,-0.054,-0.142,-0.102
1.898,0.0,-0.01,-0.01,0.005,0.005,-0.01,-0.034,-0.044,-0.386,-0.059,-0.142,-0.102
1.9,-0.01,-0.005,0.005,0.01,-0.01,0.0,-0.015,-0.024,-0.371,-0.049,-0.132,-0.088
1.902,0.039,0.049,0.01,-0.044,0.015,0.029,0.0,-0.01,-0.351,-0.034,-0.112,-0.068
1.904,0.029,0.034,0.005,-0.029,0.01,0.02,-0.01,-0.02,-0.356,-0.044,-0.122,-0.073
1.906,0.015,0.01,-0.005,-0.01,0.01,0.0,-0.029,-0.024,-0.366,-0.054,-0.137,-0.093
1.908,0.02,0.02,0.0,-0.02,0.01,0.01,-0.024,-0.02,-0.371,-0.049,-0.137,-0.083
1.91,0.0,0.005,0.005,0.0,-0.005,0.005,-0.029,-0.024,-0.376,-0.049,-0.142,-0.093
1.912,-0.054,-0.015,0.039,0.034,-0.049,0.01,-0.01,-0.005,-0.361,-0.029,-0.127,-0.073
1.914,-0.049,-0.015,0.034,0.034,-0.044,0.01,-0.02,-0.01,-0.371,-0.034,-0.122,-0.073
1.916,0.015,0.01,-0.005,-0.01,0.01,0.0,-0.02,-0.005,-0.366,-0.029,-0.107,-0.063
1.918,0.029,0.02,-0.01,-0.024,0.02,0.005,-0.029,-0.02,-0.371,-0.039,-0.117,-0.083
1.92,0.005,0.02,0.015,-0.01,-0.005,0.015,-0.024,-0.005,-0.361,-0.029,-0.117,-0.073
1.922,-0.015,0.01,0.024,0.005,-0.02,0.015,-0.02,-0.01,-0.371,-0.029,-0.122,-0.078
1.924,-0.024,-0.01,0.015,0.02,-0.02,0.0,-0.024,-0.015,-0.376,-0.029,-0.127,-0.068
1.926,-0.029,-0.015,0.015,0.024,-0.024,0.0,-0.024,-0.015,-0.376,-0.029,-0.122,-0.083
1.928,-0.024,-0.02,0.005,0.024,-0.015,-0.01,-0.029,-0.01,-0.376,-0.029,-0.127,-0.073
1.93,-0.015,-0.005,0.01,0.01,-0.015,0.0,-0.02,0.0,-0.371,-0.024,-0.117,-0.073
1.932,0.063,0.068,0.005,-0.063,0.029,0.034,0.0,0.02,-0.351,0.0,-0.098,-0.059
1.934,0.02,0.039,0.02,-0.029,0.0,0.029,-0.015,0.005,-0.371,-0.02,-0.112,-0.073
1.936,0.029,0.034,0.005,-0.029,0.01,0.02,-0.015,0.0,-0.376,-0.02,-0.117,-0.063
1.938,0.039,0.044,0.005,-0.039,0.015,0.024,-0.005,0.01,-0.356,-0.005,-0.098,-0.054
1.94,0.01,0.02,0.01,-0.015,0.0,0.015,-0.015,0.0,-0.371,-0.015,-0.107,-0.063
1.942,-0.005,0.024,0.029,-0.01,-0.02,0.024,-0.01,-0.005,-0.366,-0.015,-0.102,-0.068
1.944,0.0,0.024,0.024,-0.01,-0.015,0.024,-0.01,0.0,-0.361,-0.015,-0.102,-0.039
1.946,0.034,0.044,0.01,-0.039,0.01,0.024,-0.01,0.0,-0.361,-0.005,-0.088,-0.024
1.948,0.059,0.068,0.01,-0.063,0.024,0.039,-0.005,0.015,-0.361,0.005,-0.083,-0.015
1.95,0.034,0.034,0.0,-0.034,0.015,0.015,-0.015,-0.005,-0.376,-0.015,-0.098,-0.034
1.952,0.02,0.01,-0.01,-0.015,0.015,0.0,-0.015,0.0,-0.381,-0.02,-0.102,-0.034
1.954,0.01,0.024,0.015,-0.015,-0.005,0.02,0.0,0.01,-0.371,-0.005,-0.098,-0.029
1.956,0.034,0.044,0.01,-0.039,0.01,0.024,0.0,0.01,-0.371,-0.005,-0.102,-0.034
1.958,0.039,0.02,-0.02,-0.029,0.029,0.0,-0.02,-0.01,-0.386,-0.02,-0.107,-0.034
1.96,-0.059,-0.044,0.015,0.054,-0.039,-0.015,-0.029,-0.015,-0.395,-0.024,-0.122,-0.049
1.962,-0.073,-0.059,0.015,0.068,-0.044,-0.024,-0.029,-0.029,-0.405,-0.034,-0.127,-0.073
1.964,-0.073,-0.049,0.024,0.063,-0.049,-0.015,-0.034,-0.029,-0.405,-0.034,-0.127,-0.063
1.966,0.029,0.054,0.024,-0.039,0.0,0.039,-0.005,0.0,-0.371,-0.005,-0.088,-0.02
1.968,0.034,0.044,0.01,-0.039,0.01,0.024,-0.005,0.005,-0.376,-0.01,-0.102,-0.029
1.97,0.029,0.039,0.01,-0.034,0.01,0.024,-0.005,0.0,-0.371,-0.01,-0.102,-0.034
1.972,0.049,0.049,0.0,-0.049,0.024,0.024,-0.005,-0.005,-0.381,-0.01,-0.102,-0.054
1.974,0.02,0.034,0.015,-0.024,0.0,0.024,-0.01,-0.01,-0.395,-0.015,-0.112,-0.059
1.976,0.02,0.024,0.005,-0.02,0.005,0.015,0.0,0.005,-0.39,-0.01,-0.112,-0.054
1.978,0.044,0.024,-0.02,-0.034,0.029,0.0,-0.015,-0.01,-0.395,-0.02,-0.122,-0.059
1.98,0.034,0.029,-0.005,-0.029,0.02,0.01,-0.02,-0.02,-0.405,-0.029,-0.117,-0.049
1.982,0.005,-0.005,-0.01,0.0,0.005,-0.01,-0.02,-0.02,-0.405,-0.029,-0.122,-0.039
1.984,-0.005,0.0,0.005,0.005,-0.005,0.0,-0.02,-0.01,-0.39,-0.02,-0.112,-0.039
1.986,0.005,0.02,0.015,-0.01,-0.005,0.015,-0.005,-0.005,-0.381,-0.005,-0.098,-0.034
1.988,0.02,0.039,0.02,-0.029,0.0,0.029,0.0,-0.005,-0.386,-0.005,-0.098,-0.034
1.99,0.034,0.059,0.024,-0.044,0.005,0.039,-0.015,-0.015,-0.395,-0.02,-0.112,-0.049
1.992,-0.015,0.01,0.024,0.005,-0.02,0.015,-0.015,-0.02,-0.4,-0.029,-0.117,-0.059
1.994,-0.034,-0.015,0.02,0.024,-0.029,0.0,-0.024,-0.029,-0.415,-0.034,-0.132,-0.063
1.996,0.0,0.0,0.0,0.0,0.0,0.0,-0.024,-0.024,-0.415,-0.044,-0.132,-0.049
1.998,0.015,0.01,-0.005,-0.01,0.01,0.0,-0.024,-0.029,-0.415,-0.049,-0.146,-0.039
2.0,-0.02,-0.01,0.01,0.015,-0.015,0.0,-0.02,-0.024,-0.415,-0.039,-0.142,-0.034
2.002,0.005,0.01,0.005,-0.005,0.0,0.005,-0.005,-0.02,-0.41,-0.029,-0.127,0.005
2.004,0.005,0.01,0.005,-0.005,0.0,0.005,-0.02,-0.029,-0.41,-0.034,-0.132,0.015
2.006,0.01,0.01,0.0,-0.01,0.005,0.005,-0.024,-0.029,-0.41,-0.039,-0.137,0.005
2.008,0.005,0.029,0.024,-0.015,-0.01,0.024,-0.01,-0.029,-0.4,-0.029,-0.132,0.015
2.01,-0.024,-0.01,0.015,0.02,-0.02,0.0,-0.02,-0.039,-0.42,-0.034,-0.137,0.015
2.012,0.0,0.015,0.015,-0.005,-0.01,0.015,-0.02,-0.034,-0.415,-0.039,-0.127,0.024
2.014,-0.024,0.01,0.034,0.01,-0.029,0.02,-0.01,-0.029,-0.415,-0.034,-0.122,0.029
2.016,-0.015,0.0,0.015,0.01,-0.015,0.005,-0.01,-0.024,-0.41,-0.034,-0.127,0.034
2.018,0.034,0.024,-0.01,-0.029,0.02,0.005,-0.01,-0.024,-0.415,-0.034,-0.132,0.029
2.02,-0.005,0.01,0.015,0.0,-0.01,0.01,-0.015,-0.034,-0.415,-0.034,-0.142,0.024
2.022,-0.029,0.015,0.044,0.01,-0.039,0.029,0.0,-0.02,-0.395,-0.015,-0.122,0.044
2.024,0.02,0.005,-0.015,-0.01,0.015,-0.005,-0.02,-0.039,-0.415,-0.034,-0.132,0.044
2.026,0.039,0.039,0.0,-0.039,0.02,0.02,-0.029,-0.049,-0.429,-0.044,-0.142,0.039
2.028,0.029,0.024,-0.005,-0.024,0.015,0.01,-0.02,-0.049,-0.42,-0.039,-0.142,0.029
2.03,0.005,-0.01,-0.015,0.005,0.01,-0.015,-0.015,-0.039,-0.41,-0.029,-0.132,0.039
2.032,-0.015,0.005,0.02,0.005,-0.02,0.01,-0.015,-0.034,-0.4,-0.024,-0.117,0.054
2.034,-0.024,0.005,0.029,0.01,-0.029,0.015,-0.005,-0.024,-0.4,-0.015,-0.112,0.063
2.036,0.01,0.029,0.02,-0.02,-0.005,0.024,0.0,-0.024,-0.4,-0.02,-0.122,0.049
2.038,-0.005,0.024,0.029,-0.01,-0.02,0.024,0.0,-0.024,-0.405,-0.024,-0.127,0.054
2.04,-0.01,0.015,0.024,0.0,-0.02,0.02,0.0,-0.024,-0.4,-0.02,-0.117,0.063
2.042,0.01,0.02,0.01,-0.015,0.0,0.015,0.0,-0.029,-0.4,-0.02,-0.117,0.063
2.044,0.02,0.015,-0.005,-0.015,0.01,0.005,-0.024,-0.049,-0.42,-0.044,-0.137,0.039
2.046,-0.024,-0.005,0.02,0.015,-0.024,0.005,-0.024,-0.039,-0.41,-0.034,-0.127,0.039
2.048,-0.054,-0.01,0.044,0.034,-0.049,0.015,-0.015,-0.034,-0.41,-0.029,-0.127,0.044
2.05,-0.034,-0.034,0.0,0.034,-0.02,-0.02,-0.034,-0.059,-0.434,-0.054,-0.146,0.024
2.052,-0.073,-0.073,0.0,0.073,-0.039,-0.039,-0.039,-0.068,-0.444,-0.063,-0.156,-0.005
2.054,-0.024,-0.005,0.02,0.015,-0.024,0.005,-0.015,-0.044,-0.42,-0.039,-0.137,0.024
2.056,0.015,0.024,0.01,-0.02,0.0,0.015,-0.005,-0.034,-0.4,-0.029,-0.122,0.059
2.058,0.044,0.039,-0.005,-0.039,0.024,0.015,-0.01,-0.034,-0.395,-0.024,-0.122,0.059
2.06,0.034,0.029,-0.005,-0.029,0.02,0.01,-0.01,-0.039,-0.4,-0.029,-0.117,0.059
2.062,0.005,0.01,0.005,-0.005,0.0,0.005,-0.005,-0.039,-0.4,-0.034,-0.122,0.054
2.064,-0.024,0.005,0.029,0.01,-0.029,0.015,-0.01,-0.034,-0.395,-0.029,-0.112,0.063
2.066,-0.02,0.024,0.044,0.0,-0.034,0.034,-0.005,-0.024,-0.39,-0.02,-0.107,0.063
2.068,0.01,0.029,0.02,-0.02,-0.005,0.024,-0.01,-0.039,-0.405,-0.039,-0.127,0.049
2.07,0.01,0.01,0.0,-0.01,0.005,0.005,-0.024,-0.054,-0.415,-0.044,-0.137,0.034
2.072,0.02,0.034,0.015,-0.024,0.0,0.024,-0.01,-0.034,-0.41,-0.034,-0.127,0.029
2.074,0.015,0.034,0.02,-0.024,-0.005,0.024,-0.005,-0.034,-0.4,-0.029,-0.122,0.029
2.076,0.029,0.044,0.015,-0.034,0.005,0.029,0.0,-0.039,-0.395,-0.024,-0.122,0.039
2.078,0.005,0.0,-0.005,0.0,0.005,-0.005,-0.02,-0.054,-0.41,-0.039,-0.132,0.02
2.08,-0.02,0.0,0.02,0.01,-0.02,0.01,-0.01,-0.044,-0.4,-0.044,-0.127,0.015
2.082,-0.029,-0.015,0.015,0.024,-0.024,0.0,-0.01,-0.049,-0.405,-0.049,-0.132,0.005
2.084,-0.015,-0.015,0.0,0.015,-0.01,-0.01,-0.015,-0.054,-0.4,-0.049,-0.132,0.02
2.086,0.02,0.029,0.01,-0.024,0.005,0.02,-0.005,-0.034,-0.39,-0.034,-0.117,0.039
2.088,0.015,0.015,0.0,-0.015,0.005,0.005,-0.01,-0.044,-0.4,-0.039,-0.122,0.029
2.09,0.0,0.015,0.015,-0.005,-0.01,0.015,-0.01,-0.044,-0.39,-0.039,-0.117,0.024
2.092,-0.015,0.0,0.015,0.01,-0.015,0.005,-0.02,-0.049,-0.39,-0.039,-0.122,0.029
2.094,-0.024,0.005,0.029,0.01,-0.029,0.015,-0.015,-0.044,-0.39,-0.034,-0.117,0.039
2.096,-0.024,-0.015,0.01,0.02,-0.02,-0.005,-0.024,-0.054,-0.395,-0.044,-0.112,0.034
2.098,-0.02,-0.034,-0.015,0.029,-0.005,-0.024,-0.029,-0.063,-0.405,-0.049,-0.117,0.029
2.1,-0.005,-0.015,-0.01,0.01,0.0,-0.015,-0.02,-0.054,-0.395,-0.049,-0.117,0.044
2.102,0.02,0.015,-0.005,-0.015,0.01,0.005,0.0,-0.039,-0.386,-0.044,-0.112,0.049
2.104,0.024,0.02,-0.005,-0.02,0.015,0.005,0.0,-0.034,-0.381,-0.039,-0.112,0.054
2.106,0.015,0.044,0.029,-0.029,-0.01,0.034,0.01,-0.024,-0.361,-0.024,-0.093,0.063
2.108,0.015,0.054,0.039,-0.034,-0.015,0.044,0.024,-0.01,-0.356,-0.015,-0.088,0.063
2.11,0.015,0.029,0.015,-0.02,0.0,0.02,0.005,-0.029,-0.381,-0.029,-0.107,0.039
2.112,-0.02,-0.005,0.015,0.015,-0.02,0.005,-0.005,-0.034,-0.386,-0.034,-0.112,0.034
2.114,-0.024,-0.024,0.0,0.024,-0.015,-0.015,-0.015,-0.039,-0.386,-0.039,-0.117,0.024
2.116,-0.005,-0.015,-0.01,0.01,0.0,-0.015,-0.015,-0.044,-0.386,-0.044,-0.117,0.029
2.118,-0.015,-0.015,0.0,0.015,-0.01,-0.01,-0.005,-0.039,-0.381,-0.034,-0.112,0.039
2.12,-0.02,-0.01,0.01,0.015,-0.015,0.0,-0.005,-0.034,-0.376,-0.029,-0.102,0.044
2.122,-0.02,-0.015,0.005,0.02,-0.015,-0.005,-0.015,-0.049,-0.386,-0.039,-0.112,0.029
2.124,-0.01,0.0,0.01,0.005,-0.01,0.005,-0.005,-0.039,-0.371,-0.029,-0.102,0.044
2.126,-0.02,-0.005,0.015,0.015,-0.02,0.005,-0.005,-0.029,-0.371,-0.024,-0.102,0.044
2.128,-0.024,0.0,0.024,0.015,-0.024,0.01,-0.005,-0.024,-0.366,-0.024,-0.102,0.039
2.13,0.015,0.029,0.015,-0.02,0.0,0.02,0.0,-0.02,-0.356,-0.024,-0.102,0.049
2.132,-0.024,-0.005,0.02,0.015,-0.024,0.005,-0.005,-0.029,-0.366,-0.024,-0.098,0.044
2.134,-0.083,-0.073,0.01,0.078,-0.049,-0.034,-0.029,-0.049,-0.39,-0.049,-0.122,0.02
2.136,-0.024,-0.049,-0.024,0.039,0.0,-0.039,-0.024,-0.049,-0.381,-0.049,-0.122,0.02
2.138,0.034,0.034,0.0,-0.034,0.015,0.015,0.02,-0.01,-0.346,-0.015,-0.083,0.059
2.14,0.015,-0.005,-0.02,-0.005,0.015,-0.015,-0.01,-0.034,-0.366,-0.034,-0.102,0.039
2.142,0.034,0.0,-0.034,-0.015,0.034,-0.02,-0.015,-0.044,-0.366,-0.039,-0.107,0.034
2.144,0.01,0.005,-0.005,-0.005,0.005,0.0,0.0,-0.024,-0.356,-0.024,-0.093,0.049
2.146,-0.029,-0.02,0.01,0.024,-0.02,-0.005,0.0,-0.024,-0.356,-0.024,-0.093,0.044
2.148,-0.029,0.0,0.029,0.015,-0.029,0.015,-0.005,-0.034,-0.361,-0.034,-0.102,0.039
2.15,0.02,0.005,-0.015,-0.01,0.015,-0.005,-0.015,-0.039,-0.366,-0.039,-0.102,0.029
2.152,0.02,0.0,-0.02,-0.01,0.02,-0.01,-0.01,-0.034,-0.366,-0.029,-0.098,0.034
2.154,-0.034,-0.005,0.029,0.02,-0.034,0.01,0.0,-0.015,-0.346,-0.015,-0.083,0.054
2.156,0.0,0.01,0.01,-0.005,-0.005,0.01,0.0,-0.024,-0.346,-0.02,-0.088,0.054
2.158,0.005,0.015,0.01,-0.01,-0.005,0.01,0.0,-0.02,-0.346,-0.02,-0.078,0.049
2.16,-0.005,0.0,0.005,0.005,-0.005,0.0,-0.015,-0.034,-0.361,-0.034,-0.093,0.039
2.162,-0.005,-0.044,-0.039,0.024,0.015,-0.044,-0.029,-0.044,-0.366,-0.044,-0.098,0.024
2.164,-0.005,-0.029,-0.024,0.02,0.01,-0.029,-0.02,-0.034,-0.356,-0.029,-0.088,0.034
2.166,-0.01,0.005,0.015,0.005,-0.015,0.01,-0.015,-0.024,-0.351,-0.024,-0.083,0.039
2.168,0.01,0.02,0.01,-0.015,0.0,0.015,-0.015,-0.034,-0.346,-0.034,-0.093,0.029
2.17,0.059,0.054,-0.005,-0.054,0.029,0.024,0.0,-0.02,-0.332,-0.02,-0.083,0.044
2.172,0.0,0.005,0.005,0.0,-0.005,0.005,-0.005,-0.02,-0.332,-0.02,-0.078,0.049
2.174,-0.029,-0.029,0.0,0.029,-0.015,-0.015,-0.005,-0.024,-0.332,-0.024,-0.088,0.039
2.176,-0.015,-0.024,-0.01,0.02,-0.005,-0.02,-0.005,-0.034,-0.342,-0.034,-0.098,0.034
2.178,-0.015,-0.02,-0.005,0.02,-0.005,-0.015,0.0,-0.024,-0.337,-0.029,-0.093,0.029
2.18,-0.029,-0.02,0.01,0.024,-0.02,-0.005,-0.01,-0.034,-0.342,-0.034,-0.098,0.015
2.182,-0.024,0.0,0.024,0.015,-0.024,0.01,0.005,-0.02,-0.332,-0.024,-0.083,0.029
2.184,-0.01,0.01,0.02,0.0,-0.015,0.015,0.01,-0.01,-0.317,-0.015,-0.059,0.044
2.186,-0.039,-0.02,0.02,0.029,-0.029,0.0,0.0,-0.02,-0.322,-0.015,-0.063,0.039
2.188,-0.029,-0.024,0.005,0.029,-0.02,-0.01,-0.005,-0.029,-0.327,-0.024,-0.073,0.039
2.19,-0.015,-0.024,-0.01,0.02,-0.005,-0.02,0.005,-0.024,-0.327,-0.02,-0.078,0.039
2.192,0.02,0.0,-0.02,-0.01,0.02,-0.01,-0.01,-0.039,-0.332,-0.029,-0.093,0.02
2.194,-0.01,-0.01,0.0,0.01,-0.005,-0.005,-0.005,-0.034,-0.322,-0.024,-0.088,0.029
2.196,-0.054,-0.024,0.029,0.039,-0.044,0.0,0.0,-0.024,-0.327,-0.024,-0.083,0.024
2.198,-0.005,0.01,0.015,0.0,-0.01,0.01,0.01,-0.02,-0.312,-0.015,-0.073,0.024
2.2,0.0,-0.005,-0.005,0.005,0.0,-0.005,0.0,-0.024,-0.312,-0.024,-0.073,0.029
2.202,-0.02,-0.024,-0.005,0.024,-0.01,-0.015,-0.01,-0.034,-0.327,-0.029,-0.083,0.024
2.204,-0.063,-0.054,0.01,0.059,-0.039,-0.024,-0.01,-0.034,-0.322,-0.024,-0.078,0.01
2.206,-0.078,-0.063,0.015,0.073,-0.049,-0.024,-0.01,-0.034,-0.322,-0.029,-0.083,0.0
2.208,0.005,0.015,0.01,-0.01,-0.005,0.01,0.015,-0.015,-0.298,-0.015,-0.068,0.029
2.21,-0.029,-0.02,0.01,0.024,-0.02,-0.005,0.0,-0.024,-0.312,-0.02,-0.078,0.015
2.212,-0.005,0.01,0.015,0.0,-0.01,0.01,0.0,-0.024,-0.307,-0.029,-0.078,0.01
2.214,0.044,0.034,-0.01,-0.039,0.024,0.01,0.005,-0.015,-0.303,-0.02,-0.068,0.02
2.216,-0.039,-0.059,-0.02,0.049,-0.01,-0.039,-0.01,-0.034,-0.307,-0.029,-0.078,0.01
2.218,-0.024,-0.039,-0.015,0.034,-0.005,-0.029,-0.01,-0.029,-0.303,-0.024,-0.073,0.005
2.22,-0.005,-0.005,0.0,0.005,-0.005,-0.005,0.0,-0.024,-0.288,-0.02,-0.063,0.01
2.222,0.024,0.02,-0.005,-0.02,0.015,0.005,0.005,-0.02,-0.288,-0.01,-0.054,0.02
2.224,0.015,0.01,-0.005,-0.01,0.01,0.0,0.01,-0.015,-0.273,-0.01,-0.039,0.02
2.226,-0.005,-0.005,0.0,0.005,-0.005,-0.005,0.005,-0.015,-0.278,-0.01,-0.044,0.015
2.228,-0.039,-0.005,0.034,0.024,-0.039,0.015,0.0,-0.02,-0.283,-0.015,-0.054,0.005
2.23,-0.049,-0.039,0.01,0.044,-0.029,-0.015,0.0,-0.02,-0.288,-0.02,-0.063,0.005
2.232,-0.029,-0.039,-0.01,0.034,-0.01,-0.024,-0.005,-0.024,-0.288,-0.015,-0.059,0.0
2.234,-0.015,0.0,0.015,0.01,-0.015,0.005,0.0,-0.015,-0.283,-0.015,-0.059,-0.005
2.236,-0.034,-0.005,0.029,0.02,-0.034,0.01,0.005,-0.01,-0.273,-0.01,-0.049,0.005
2.238,-0.034,-0.029,0.005,0.034,-0.02,-0.015,0.005,-0.01,-0.273,-0.005,-0.054,0.0
2.24,0.02,-0.015,-0.034,0.0,0.024,-0.024,-0.01,-0.029,-0.288,-0.024,-0.073,-0.015
2.242,0.005,-0.015,-0.02,0.005,0.01,-0.02,-0.005,-0.024,-0.283,-0.02,-0.063,-0.005
2.244,-0.015,0.005,0.02,0.005,-0.02,0.01,0.01,-0.01,-0.259,0.0,-0.044,0.01
2.246,-0.044,0.01,0.054,0.02,-0.049,0.029,0.024,0.015,-0.239,0.02,-0.024,0.02
2.248,-0.034,0.0,0.034,0.02,-0.034,0.015,0.02,0.005,-0.244,0.01,-0.029,0.005
2.25,0.078,0.02,-0.059,-0.049,0.068,-0.02,-0.005,-0.015,-0.264,-0.01,-0.049,-0.02
2.252,0.073,0.024,-0.049,-0.049,0.059,-0.015,-0.005,-0.015,-0.259,-0.005,-0.049,-0.015
2.254,-0.015,-0.034,-0.02,0.024,0.0,-0.029,-0.01,-0.02,-0.264,-0.015,-0.059,-0.02
2.256,-0.015,-0.02,-0.005,0.02,-0.005,-0.015,-0.005,-0.015,-0.259,-0.015,-0.059,-0.02
2.258,-0.015,-0.015,0.0,0.015,-0.01,-0.01,-0.01,-0.02,-0.264,-0.02,-0.063,-0.029
2.26,-0.024,-0.005,0.02,0.015,-0.024,0.005,0.005,-0.01,-0.244,-0.005,-0.049,-0.005
2.262,-0.039,0.005,0.044,0.02,-0.044,0.024,0.02,0.01,-0.229,0.01,-0.029,0.01
2.264,-0.024,0.005,0.029,0.01,-0.029,0.015,0.02,0.01,-0.224,0.01,-0.02,0.005
2.266,0.015,0.024,0.01,-0.02,0.0,0.015,0.015,0.01,-0.229,0.01,-0.024,0.0
2.268,0.01,0.024,0.015,-0.015,-0.005,0.02,0.015,0.015,-0.229,0.01,-0.024,-0.005
2.27,0.0,0.034,0.034,-0.015,-0.02,0.034,0.029,0.024,-0.21,0.029,-0.01,0.0
2.272,0.02,0.029,0.01,-0.024,0.005,0.02,0.024,0.024,-0.21,0.024,-0.015,0.0
2.274,0.02,0.049,0.029,-0.034,-0.005,0.039,0.039,0.039,-0.195,0.034,-0.005,0.01
2.276,0.0,0.02,0.02,-0.01,-0.01,0.02,0.034,0.024,-0.2,0.02,-0.015,-0.01
2.278,0.01,0.029,0.02,-0.02,-0.005,0.024,0.044,0.039,-0.185,0.024,-0.01,-0.01
2.28,0.01,0.068,0.059,-0.039,-0.024,0.063,0.063,0.059,-0.156,0.054,0.02,0.02
2.282,0.01,0.044,0.034,-0.024,-0.015,0.039,0.059,0.049,-0.166,0.049,0.01,0.0
2.284,-0.044,0.015,0.059,0.015,-0.054,0.034,0.059,0.039,-0.171,0.039,0.005,-0.015
2.286,-0.024,0.039,0.063,-0.005,-0.044,0.049,0.063,0.049,-0.166,0.044,0.015,-0.005
2.288,-0.02,0.01,0.029,0.005,-0.024,0.02,0.049,0.039,-0.166,0.029,0.01,-0.015
2.29,-0.024,0.005,0.029,0.01,-0.029,0.015,0.049,0.044,-0.166,0.029,0.0,-0.015
2.292,0.01,0.024,0.015,-0.015,-0.005,0.02,0.054,0.049,-0.161,0.029,0.005,-0.005
2.294,0.015,0.034,0.02,-0.024,-0.005,0.024,0.059,0.063,-0.151,0.044,0.015,0.0
2.296,-0.029,0.015,0.044,0.01,-0.039,0.029,0.059,0.059,-0.151,0.039,0.015,-0.01
2.298,-0.059,-0.005,0.054,0.034,-0.059,0.024,0.054,0.063,-0.151,0.039,0.015,-0.01
2.3,-0.054,-0.015,0.039,0.034,-0.049,0.01,0.049,0.059,-0.151,0.034,0.01,-0.02
2.302,0.01,0.063,0.054,-0.034,-0.024,0.059,0.073,0.088,-0.117,0.073,0.044,0.02
2.304,0.01,0.083,0.073,-0.044,-0.034,0.078,0.078,0.107,-0.093,0.083,0.068,0.034
2.306,0.034,0.078,0.044,-0.054,-0.005,0.059,0.054,0.088,-0.102,0.083,0.068,0.024
2.308,0.024,0.054,0.029,-0.039,-0.005,0.039,0.029,0.073,-0.117,0.068,0.059,0.005
2.31,0.01,0.034,0.024,-0.02,-0.01,0.029,0.01,0.063,-0.122,0.059,0.039,-0.01
2.312,0.034,0.029,-0.005,-0.029,0.02,0.01,-0.005,0.054,-0.127,0.054,0.039,-0.005
2.314,0.059,0.044,-0.015,-0.049,0.034,0.015,0.0,0.068,-0.112,0.063,0.049,0.0
2.316,0.02,0.034,0.015,-0.024,0.0,0.024,-0.015,0.054,-0.122,0.054,0.039,-0.005
2.318,0.01,0.02,0.01,-0.015,0.0,0.015,-0.015,0.054,-0.117,0.054,0.039,-0.005
2.32,0.059,0.039,-0.02,-0.049,0.039,0.01,-0.015,0.049,-0.122,0.054,0.039,-0.01
2.322,0.049,0.059,0.01,-0.054,0.02,0.034,-0.005,0.059,-0.107,0.059,0.044,-0.005
2.324,0.059,0.054,-0.005,-0.054,0.029,0.024,0.0,0.054,-0.112,0.054,0.044,-0.01
2.326,0.049,0.01,-0.039,-0.029,0.044,-0.015,-0.015,0.044,-0.127,0.039,0.034,-0.024
2.328,-0.005,-0.029,-0.024,0.02,0.01,-0.029,-0.024,0.029,-0.137,0.029,0.034,-0.044
2.33,-0.029,-0.01,0.02,0.02,-0.024,0.005,-0.005,0.049,-0.112,0.049,0.054,-0.02
2.332,0.015,0.049,0.034,-0.029,-0.01,0.039,0.005,0.044,-0.107,0.049,0.059,-0.02
2.334,0.02,0.044,0.024,-0.029,-0.005,0.034,0.005,0.044,-0.112,0.044,0.049,-0.024
2.336,0.005,0.024,0.02,-0.015,-0.01,0.02,0.005,0.034,-0.117,0.034,0.034,-0.034
2.338,0.024,0.034,0.01,-0.029,0.005,0.02,0.01,0.029,-0.117,0.034,0.034,-0.039
2.34,0.015,0.015,0.0,-0.015,0.005,0.005,0.0,0.024,-0.127,0.024,0.024,-0.044
2.342,-0.02,-0.024,-0.005,0.024,-0.01,-0.015,-0.01,0.02,-0.132,0.02,0.02,-0.063
2.344,-0.024,-0.034,-0.01,0.029,-0.01,-0.024,-0.015,0.01,-0.142,0.015,0.01,-0.073
2.346,0.01,0.005,-0.005,-0.005,0.005,0.0,0.0,0.029,-0.122,0.029,0.02,-0.063
2.348,0.024,0.029,0.005,-0.024,0.01,0.015,0.02,0.039,-0.107,0.044,0.039,-0.054
2.35,0.015,0.0,-0.015,-0.005,0.015,-0.01,0.005,0.029,-0.112,0.029,0.029,-0.063
2.352,-0.044,-0.063,-0.02,0.054,-0.015,-0.044,-0.015,0.005,-0.132,0.015,0.01,-0.093
2.354,-0.024,-0.039,-0.015,0.034,-0.005,-0.029,-0.01,0.005,-0.137,0.005,0.005,-0.093
2.356,0.02,-0.01,-0.029,-0.005,0.024,-0.02,-0.005,0.005,-0.132,-0.005,0.0,-0.088
2.358,0.039,0.0,-0.039,-0.02,0.039,-0.02,-0.005,0.005,-0.127,0.0,0.0,-0.098
2.36,0.039,-0.01,-0.049,-0.015,0.044,-0.029,-0.01,0.0,-0.132,-0.005,0.0,-0.107
2.362,0.02,-0.024,-0.044,0.005,0.029,-0.034,-0.01,-0.005,-0.127,-0.005,0.0,-0.112
2.364,-0.015,-0.039,-0.024,0.029,0.005,-0.034,0.0,0.005,-0.117,0.005,0.01,-0.098
2.366,-0.024,-0.044,-0.02,0.034,-0.005,-0.034,0.005,0.015,-0.112,0.015,0.015,-0.098
2.368,-0.02,-0.039,-0.02,0.029,0.0,-0.029,-0.015,0.0,-0.122,0.0,0.005,-0.117
2.37,-0.049,-0.054,-0.005,0.054,-0.024,-0.029,-0.01,0.005,-0.117,0.0,0.01,-0.122
2.372,-0.029,-0.068,-0.039,0.049,0.005,-0.054,-0.01,0.005,-0.112,0.0,0.01,-0.117
2.374,0.01,-0.039,-0.049,0.015,0.029,-0.044,-0.015,0.0,-0.112,-0.01,0.005,-0.117
2.376,0.005,-0.039,-0.044,0.02,0.024,-0.044,-0.015,-0.01,-0.122,-0.015,0.0,-0.132
2.378,-0.054,-0.073,-0.02,0.063,-0.02,-0.049,-0.01,-0.005,-0.117,-0.01,0.005,-0.127
2.38,-0.083,-0.122,-0.039,0.102,-0.024,-0.083,-0.015,-0.015,-0.132,-0.02,-0.015,-0.146
2.382,-0.088,-0.088,0.0,0.088,-0.044,-0.044,0.0,0.0,-0.107,-0.005,0.0,-0.137
2.384,0.024,0.039,0.015,-0.029,0.005,0.024,0.039,0.044,-0.063,0.034,0.044,-0.098
2.386,0.01,0.0,-0.01,-0.005,0.01,-0.005,0.029,0.034,-0.073,0.024,0.039,-0.107
2.388,-0.01,-0.024,-0.015,0.02,0.0,-0.02,0.015,0.029,-0.083,0.015,0.029,-0.122
2.39,-0.015,-0.029,-0.015,0.024,0.0,-0.024,0.015,0.024,-0.088,0.01,0.024,-0.142
2.392,-0.01,-0.01,0.0,0.01,-0.005,-0.005,0.029,0.034,-0.068,0.02,0.034,-0.127
2.394,0.0,-0.005,-0.005,0.005,0.0,-0.005,0.024,0.029,-0.068,0.015,0.029,-0.127
2.396,-0.024,-0.015,0.01,0.02,-0.02,-0.005,0.029,0.024,-0.073,0.015,0.034,-0.137
2.398,-0.024,-0.02,0.005,0.024,-0.015,-0.01,0.024,0.024,-0.068,0.01,0.029,-0.146
2.4,-0.049,-0.054,-0.005,0.054,-0.024,-0.029,0.01,0.02,-0.073,0.005,0.024,-0.146
2.402,-0.015,-0.029,-0.015,0.024,0.0,-0.024,0.02,0.024,-0.073,0.005,0.029,-0.146
2.404,-0.005,-0.02,-0.015,0.015,0.005,-0.02,0.024,0.029,-0.063,0.01,0.034,-0.142
2.406,-0.049,-0.059,-0.01,0.054,-0.02,-0.034,0.015,0.029,-0.063,0.005,0.024,-0.151
2.408,-0.049,-0.044,0.005,0.049,-0.029,-0.02,0.015,0.029,-0.063,0.01,0.029,-0.161
2.41,-0.015,-0.024,-0.01,0.02,-0.005,-0.02,0.024,0.029,-0.059,0.01,0.029,-0.156
2.412,-0.01,-0.02,-0.01,0.015,0.0,-0.015,0.015,0.024,-0.059,0.005,0.024,-0.156
2.414,0.024,-0.029,-0.054,0.005,0.039,-0.044,0.01,0.024,-0.063,0.005,0.02,-0.176
2.416,-0.034,-0.034,0.0,0.034,-0.02,-0.02,0.015,0.029,-0.059,0.015,0.034,-0.166
2.418,-0.068,-0.029,0.039,0.049,-0.054,0.005,0.029,0.034,-0.044,0.02,0.039,-0.161
2.42,-0.039,-0.034,0.005,0.039,-0.024,-0.015,0.02,0.039,-0.039,0.024,0.039,-0.166
2.422,-0.01,-0.02,-0.01,0.015,0.0,-0.015,0.02,0.034,-0.044,0.01,0.034,-0.176
2.424,-0.049,-0.044,0.005,0.049,-0.029,-0.02,0.02,0.034,-0.039,0.024,0.044,-0.166
2.426,-0.02,-0.029,-0.01,0.024,-0.005,-0.02,0.02,0.039,-0.029,0.02,0.044,-0.171
2.428,0.005,-0.01,-0.015,0.005,0.01,-0.015,0.02,0.049,-0.029,0.024,0.054,-0.176
2.43,-0.02,-0.024,-0.005,0.024,-0.01,-0.015,0.024,0.049,-0.024,0.02,0.054,-0.181
2.432,-0.034,-0.02,0.015,0.029,-0.024,-0.005,0.029,0.049,-0.015,0.029,0.059,-0.171
2.434,-0.01,-0.005,0.005,0.01,-0.01,0.0,0.024,0.054,-0.015,0.024,0.054,-0.176
2.436,-0.024,-0.034,-0.01,0.029,-0.01,-0.024,0.015,0.044,-0.029,0.024,0.054,-0.19
2.438,-0.029,-0.034,-0.005,0.034,-0.015,-0.02,0.02,0.044,-0.02,0.024,0.054,-0.181
2.44,-0.029,-0.034,-0.005,0.034,-0.015,-0.02,0.015,0.044,-0.015,0.024,0.059,-0.176
2.442,-0.034,-0.029,0.005,0.034,-0.02,-0.015,0.02,0.049,-0.01,0.024,0.059,-0.176
2.444,-0.034,-0.024,0.01,0.029,-0.024,-0.01,0.024,0.049,-0.005,0.034,0.063,-0.171
2.446,-0.024,-0.015,0.01,0.02,-0.02,-0.005,0.024,0.049,-0.005,0.029,0.059,-0.171
2.448,-0.059,-0.015,0.044,0.039,-0.054,0.015,0.034,0.063,0.005,0.044,0.068,-0.161
2.45,-0.063,0.015,0.078,0.024,-0.073,0.044,0.063,0.088,0.034,0.059,0.083,-0.146
2.452,-0.01,0.098,0.107,-0.044,-0.059,0.102,0.098,0.137,0.088,0.093,0.117,-0.122
2.454,-0.034,0.137,0.171,-0.049,-0.102,0.151,0.146,0.181,0.137,0.137,0.146,-0.088
2.456,-0.049,0.156,0.205,-0.054,-0.127,0.181,0.19,0.234,0.19,0.171,0.176,-0.078
2.458,-0.098,0.088,0.185,0.005,-0.142,0.137,0.205,0.268,0.21,0.176,0.171,-0.098
2.46,-0.117,0.059,0.176,0.029,-0.146,0.117,0.215,0.317,0.244,0.205,0.2,-0.093
2.462,-0.122,0.044,0.166,0.039,-0.146,0.102,0.215,0.366,0.283,0.254,0.244,-0.068
2.464,-0.146,-0.024,0.122,0.088,-0.137,0.049,0.215,0.449,0.351,0.312,0.303,-0.039
2.466,-0.063,0.034,0.098,0.015,-0.083,0.063,0.259,0.605,0.483,0.449,0.429,0.034
2.468,0.063,0.102,0.039,-0.083,0.01,0.068,0.322,0.8,0.644,0.615,0.576,0.142
2.47,0.112,0.073,-0.039,-0.093,0.073,0.015,0.327,0.922,0.747,0.727,0.693,0.2
2.472,0.22,0.161,-0.059,-0.19,0.137,0.049,0.293,0.991,0.834,0.878,0.864,0.312
2.474,0.327,0.205,-0.122,-0.264,0.224,0.039,0.22,0.986,0.908,1.074,1.088,0.493
2.476,0.415,0.254,-0.161,-0.332,0.288,0.044,0.171,1.015,1.0,1.269,1.313,0.644
2.478,0.508,0.254,-0.254,-0.381,0.381,0.0,0.112,1.01,1.02,1.318,1.352,0.669
2.48,0.625,0.195,-0.429,-0.41,0.527,-0.117,0.039,0.913,0.898,1.196,1.22,0.561
2.482,0.737,0.078,-0.659,-0.405,0.698,-0.293,-0.024,0.776,0.722,0.981,0.986,0.376
2.484,0.776,-0.029,-0.805,-0.371,0.791,-0.42,-0.044,0.639,0.537,0.742,0.722,0.161
2.486,0.781,-0.063,-0.844,-0.356,0.81,-0.454,-0.044,0.459,0.337,0.503,0.488,-0.02
2.488,0.732,-0.122,-0.854,-0.303,0.791,-0.488,-0.102,0.176,0.059,0.215,0.224,-0.176
2.49,0.6,-0.142,-0.742,-0.229,0.669,-0.444,-0.122,-0.166,-0.234,-0.083,-0.034,-0.288
2.492,0.4,-0.181,-0.581,-0.107,0.488,-0.381,-0.127,-0.522,-0.542,-0.395,-0.307,-0.425
2.494,0.249,-0.239,-0.488,-0.005,0.366,-0.366,-0.181,-0.8,-0.766,-0.625,-0.503,-0.512
2.496,0.166,-0.249,-0.415,0.044,0.288,-0.332,-0.215,-0.883,-0.839,-0.693,-0.551,-0.508
2.498,0.142,-0.273,-0.415,0.068,0.278,-0.346,-0.229,-0.834,-0.81,-0.659,-0.522,-0.508
2.5,0.078,-0.298,-0.376,0.112,0.224,-0.337,-0.21,-0.776,-0.752,-0.625,-0.498,-0.522
2.502,0.044,-0.224,-0.268,0.093,0.156,-0.249,-0.137,-0.673,-0.654,-0.551,-0.444,-0.478
2.504,0.01,-0.132,-0.142,0.063,0.073,-0.137,-0.088,-0.532,-0.522,-0.444,-0.346,-0.405
2.506,-0.029,-0.078,-0.049,0.054,0.01,-0.063,-0.059,-0.395,-0.381,-0.312,-0.229,-0.332
2.508,-0.015,-0.029,-0.015,0.024,0.0,-0.024,-0.044,-0.259,-0.249,-0.195,-0.127,-0.259
2.51,-0.01,0.0,0.01,0.005,-0.01,0.005,-0.044,-0.171,-0.166,-0.122,-0.068,-0.22
2.512,-0.024,-0.02,0.005,0.024,-0.015,-0.01,-0.024,-0.083,-0.093,-0.059,-0.024,-0.205
2.514,0.005,-0.015,-0.02,0.005,0.01,-0.02,-0.01,-0.02,-0.034,-0.024,0.005,-0.181
2.516,-0.005,-0.015,-0.01,0.01,0.0,-0.015,0.0,0.024,-0.005,0.0,0.029,-0.161
2.518,0.005,0.005,0.0,-0.005,0.0,0.0,0.02,0.059,0.029,0.029,0.054,-0.151
2.52,0.054,0.034,-0.02,-0.044,0.034,0.005,0.029,0.073,0.039,0.034,0.059,-0.151
2.522,0.024,0.015,-0.01,-0.02,0.015,0.0,0.034,0.078,0.049,0.029,0.059,-0.151
2.524,-0.02,-0.02,0.0,0.02,-0.01,-0.01,0.029,0.073,0.039,0.029,0.054,-0.161
2.526,-0.015,0.0,0.015,0.01,-0.015,0.005,0.029,0.073,0.039,0.029,0.054,-0.151
2.528,-0.054,-0.01,0.044,0.034,-0.049,0.015,0.02,0.068,0.034,0.02,0.044,-0.161
2.53,-0.059,-0.024,0.034,0.044,-0.049,0.005,0.01,0.059,0.029,0.015,0.034,-0.176
2.532,-0.024,-0.034,-0.01,0.029,-0.01,-0.024,0.02,0.068,0.029,0.015,0.039,-0.166
2.534,-0.005,-0.005,0.0,0.005,-0.005,-0.005,0.034,0.078,0.039,0.024,0.063,-0.161
2.536,0.015,0.034,0.02,-0.024,-0.005,0.024,0.049,0.093,0.059,0.039,0.078,-0.142
2.538,0.01,0.024,0.015,-0.015,-0.005,0.02,0.044,0.088,0.044,0.034,0.068,-0.142
2.54,-0.015,0.015,0.029,0.0,-0.024,0.02,0.044,0.088,0.049,0.034,0.068,-0.137
2.542,-0.054,-0.029,0.024,0.044,-0.039,-0.005,0.029,0.083,0.044,0.034,0.059,-0.151
2.544,0.0,0.005,0.005,0.0,-0.005,0.005,0.029,0.078,0.039,0.029,0.054,-0.161
2.546,-0.01,0.01,0.02,0.0,-0.015,0.015,0.029,0.083,0.044,0.029,0.063,-0.151
2.548,-0.049,-0.01,0.039,0.029,-0.044,0.015,0.024,0.078,0.044,0.024,0.059,-0.161
2.55,-0.068,-0.039,0.029,0.054,-0.049,-0.005,0.02,0.068,0.034,0.015,0.049,-0.161
2.552,-0.059,-0.039,0.02,0.049,-0.039,-0.01,0.024,0.073,0.034,0.02,0.044,-0.166
2.554,0.029,0.049,0.02,-0.039,0.005,0.034,0.054,0.098,0.068,0.044,0.078,-0.137
2.556,0.01,0.02,0.01,-0.015,0.0,0.015,0.039,0.088,0.059,0.034,0.068,-0.151
2.558,0.01,0.024,0.015,-0.015,-0.005,0.02,0.044,0.083,0.059,0.039,0.073,-0.142
2.56,0.005,0.015,0.01,-0.01,-0.005,0.01,0.024,0.068,0.044,0.024,0.054,-0.166
2.562,-0.015,0.02,0.034,0.0,-0.024,0.024,0.044,0.078,0.068,0.044,0.078,-0.146
2.564,-0.068,-0.01,0.059,0.039,-0.063,0.024,0.044,0.088,0.068,0.049,0.078,-0.142
2.566,-0.039,-0.01,0.029,0.024,-0.034,0.01,0.034,0.078,0.063,0.039,0.078,-0.151
2.568,0.029,0.063,0.034,-0.044,-0.005,0.049,0.054,0.098,0.088,0.054,0.088,-0.122
2.57,-0.005,0.039,0.044,-0.015,-0.024,0.039,0.049,0.093,0.083,0.059,0.083,-0.127
2.572,-0.059,-0.024,0.034,0.044,-0.049,0.005,0.02,0.063,0.049,0.029,0.054,-0.156
2.574,-0.024,-0.015,0.01,0.02,-0.02,-0.005,0.024,0.063,0.054,0.02,0.054,-0.161
2.576,-0.015,0.0,0.015,0.01,-0.015,0.005,0.029,0.063,0.063,0.024,0.059,-0.156
2.578,0.0,0.005,0.005,0.0,-0.005,0.005,0.034,0.068,0.059,0.029,0.059,-0.146
2.58,0.005,0.0,-0.005,0.0,0.005,-0.005,0.029,0.059,0.059,0.024,0.054,-0.156
2.582,0.0,-0.02,-0.02,0.01,0.01,-0.02,0.01,0.054,0.054,0.01,0.034,-0.166
2.584,-0.01,0.024,0.034,-0.005,-0.024,0.029,0.039,0.093,0.088,0.054,0.073,-0.132
2.586,-0.039,0.029,0.068,0.005,-0.054,0.049,0.049,0.102,0.102,0.068,0.093,-0.117
2.588,0.0,0.039,0.039,-0.02,-0.02,0.039,0.039,0.088,0.088,0.049,0.078,-0.137
2.59,0.034,0.049,0.015,-0.039,0.01,0.029,0.034,0.083,0.083,0.044,0.068,-0.137
2.592,0.01,0.015,0.005,-0.01,0.0,0.01,0.029,0.078,0.073,0.039,0.054,-0.151
2.594,-0.02,-0.024,-0.005,0.024,-0.01,-0.015,0.015,0.059,0.063,0.02,0.044,-0.166
2.596,-0.034,-0.01,0.024,0.024,-0.029,0.005,0.034,0.083,0.088,0.039,0.063,-0.146
2.598,-0.073,-0.049,0.024,0.063,-0.049,-0.015,0.039,0.088,0.088,0.039,0.068,-0.142
2.6,-0.049,-0.01,0.039,0.029,-0.044,0.015,0.029,0.078,0.088,0.024,0.059,-0.151
2.602,-0.049,0.005,0.054,0.024,-0.054,0.029,0.034,0.083,0.098,0.034,0.078,-0.142
2.604,-0.044,0.005,0.049,0.02,-0.049,0.024,0.044,0.098,0.102,0.044,0.078,-0.137
2.606,-0.034,0.029,0.063,0.005,-0.049,0.044,0.054,0.102,0.112,0.054,0.088,-0.127
2.608,-0.029,0.02,0.049,0.005,-0.039,0.034,0.054,0.107,0.112,0.059,0.093,-0.122
2.61,-0.02,-0.015,0.005,0.02,-0.015,-0.005,0.029,0.083,0.083,0.034,0.068,-0.151
2.612,-0.01,0.005,0.015,0.005,-0.015,0.01,0.02,0.078,0.083,0.024,0.063,-0.161
2.614,-0.01,0.015,0.024,0.0,-0.02,0.02,0.01,0.063,0.073,0.015,0.059,-0.176
2.616,-0.039,-0.024,0.015,0.034,-0.029,-0.005,0.024,0.078,0.093,0.029,0.073,-0.156
2.618,-0.034,-0.024,0.01,0.029,-0.024,-0.01,0.024,0.073,0.088,0.024,0.068,-0.156
2.62,-0.005,0.005,0.01,0.0,-0.01,0.005,0.034,0.083,0.102,0.034,0.078,-0.156
2.622,-0.005,0.015,0.02,-0.005,-0.015,0.015,0.029,0.083,0.107,0.029,0.078,-0.156
2.624,-0.039,0.005,0.044,0.02,-0.044,0.024,0.034,0.083,0.102,0.029,0.078,-0.151
2.626,-0.034,0.0,0.034,0.02,-0.034,0.015,0.029,0.073,0.098,0.024,0.073,-0.151
2.628,-0.049,-0.01,0.039,0.029,-0.044,0.015,0.02,0.068,0.093,0.024,0.073,-0.156
2.63,-0.063,-0.034,0.029,0.049,-0.049,-0.005,0.01,0.059,0.083,0.02,0.059,-0.166
2.632,-0.034,-0.024,0.01,0.029,-0.024,-0.01,0.01,0.054,0.078,0.015,0.049,-0.171
2.634,-0.049,-0.044,0.005,0.049,-0.029,-0.02,0.005,0.054,0.073,0.01,0.054,-0.181
2.636,0.024,0.054,0.029,-0.039,-0.005,0.039,0.049,0.093,0.112,0.044,0.088,-0.146
2.638,0.039,0.063,0.024,-0.049,0.005,0.044,0.049,0.088,0.112,0.039,0.088,-0.142
2.64,0.02,0.029,0.01,-0.024,0.005,0.02,0.039,0.073,0.098,0.024,0.073,-0.156
2.642,-0.005,0.024,0.029,-0.01,-0.02,0.024,0.029,0.078,0.098,0.029,0.073,-0.142
2.644,-0.024,0.01,0.034,0.01,-0.029,0.02,0.02,0.078,0.098,0.024,0.068,-0.156
2.646,-0.029,0.01,0.039,0.01,-0.034,0.024,0.024,0.083,0.102,0.02,0.068,-0.146
2.648,-0.01,0.029,0.039,-0.01,-0.024,0.034,0.034,0.093,0.117,0.034,0.088,-0.132
2.65,-0.005,0.01,0.015,0.0,-0.01,0.01,0.024,0.088,0.107,0.029,0.078,-0.142
2.652,-0.029,-0.01,0.02,0.02,-0.024,0.005,0.015,0.073,0.098,0.024,0.073,-0.151
2.654,-0.054,-0.02,0.034,0.039,-0.044,0.005,0.015,0.073,0.093,0.015,0.068,-0.161
2.656,-0.024,0.0,0.024,0.015,-0.024,0.01,0.029,0.083,0.093,0.029,0.078,-0.142
2.658,0.005,0.01,0.005,-0.005,0.0,0.005,0.024,0.078,0.093,0.02,0.068,-0.142
2.66,0.015,0.015,0.0,-0.015,0.005,0.005,0.015,0.073,0.093,0.02,0.063,-0.156
2.662,-0.01,0.01,0.02,0.0,-0.015,0.015,0.015,0.073,0.083,0.015,0.063,-0.151
2.664,-0.015,0.01,0.024,0.005,-0.02,0.015,0.005,0.068,0.083,0.015,0.063,-0.166
2.666,0.0,-0.005,-0.005,0.005,0.0,-0.005,0.01,0.068,0.088,0.005,0.059,-0.156
2.668,-0.015,-0.024,-0.01,0.02,-0.005,-0.02,0.005,0.068,0.078,0.005,0.054,-0.166
2.67,0.0,-0.015,-0.015,0.01,0.005,-0.015,0.01,0.068,0.073,0.005,0.054,-0.161
2.672,-0.029,-0.01,0.02,0.02,-0.024,0.005,0.015,0.078,0.098,0.02,0.073,-0.156
2.674,-0.054,0.005,0.059,0.024,-0.059,0.029,0.024,0.088,0.098,0.02,0.073,-0.151
2.676,-0.054,-0.005,0.049,0.029,-0.054,0.02,0.039,0.093,0.102,0.029,0.083,-0.142
2.678,0.015,0.034,0.02,-0.024,-0.005,0.024,0.039,0.098,0.107,0.034,0.078,-0.122
2.68,0.02,0.01,-0.01,-0.015,0.015,0.0,0.015,0.073,0.083,0.01,0.059,-0.146
2.682,-0.034,-0.029,0.005,0.034,-0.02,-0.015,0.015,0.073,0.078,0.005,0.054,-0.156
2.684,-0.044,-0.015,0.029,0.029,-0.039,0.005,0.02,0.078,0.088,0.015,0.068,-0.151
2.686,-0.044,-0.005,0.039,0.024,-0.044,0.015,0.029,0.093,0.102,0.02,0.073,-0.137
2.688,-0.029,0.01,0.039,0.01,-0.034,0.024,0.024,0.073,0.088,0.01,0.063,-0.151
2.69,0.005,0.029,0.024,-0.015,-0.01,0.024,0.029,0.083,0.098,0.02,0.073,-0.146
2.692,0.0,0.02,0.02,-0.01,-0.01,0.02,0.024,0.078,0.093,0.015,0.068,-0.151
2.694,-0.039,-0.005,0.034,0.024,-0.039,0.015,0.024,0.073,0.078,0.005,0.054,-0.151
2.696,-0.024,-0.024,0.0,0.024,-0.015,-0.015,0.015,0.068,0.073,0.0,0.049,-0.166
2.698,-0.029,-0.015,0.015,0.024,-0.024,0.0,0.024,0.073,0.078,0.0,0.054,-0.156
2.7,-0.02,0.01,0.029,0.005,-0.024,0.02,0.029,0.083,0.083,0.01,0.063,-0.137
2.702,-0.02,0.005,0.024,0.01,-0.024,0.015,0.02,0.073,0.083,0.005,0.054,-0.137
2.704,-0.02,0.01,0.029,0.005,-0.024,0.02,0.015,0.068,0.083,0.01,0.059,-0.142
2.706,0.024,0.034,0.01,-0.029,0.005,0.02,0.02,0.073,0.083,0.01,0.059,-0.132
2.708,-0.02,0.015,0.034,0.005,-0.029,0.024,0.02,0.083,0.083,0.01,0.059,-0.142
2.71,-0.083,-0.044,0.039,0.063,-0.063,-0.005,0.01,0.073,0.068,-0.005,0.049,-0.156
2.712,-0.068,-0.063,0.005,0.068,-0.039,-0.029,-0.01,0.049,0.054,-0.02,0.029,-0.176
2.714,0.015,0.029,0.015,-0.02,0.0,0.02,0.02,0.073,0.078,0.0,0.059,-0.127
2.716,0.005,0.029,0.024,-0.015,-0.01,0.024,0.024,0.078,0.083,0.005,0.068,-0.117
2.718,-0.005,0.01,0.015,0.0,-0.01,0.01,0.015,0.068,0.073,0.0,0.054,-0.137
2.72,-0.044,-0.015,0.029,0.029,-0.039,0.005,0.005,0.063,0.068,-0.005,0.044,-0.137
2.722,-0.02,0.02,0.039,0.0,-0.029,0.029,0.015,0.068,0.073,0.0,0.054,-0.132
2.724,0.0,0.02,0.02,-0.01,-0.01,0.02,0.005,0.063,0.068,-0.005,0.049,-0.142
2.726,-0.005,0.01,0.015,0.0,-0.01,0.01,0.0,0.049,0.054,-0.015,0.044,-0.146
2.728,-0.024,0.01,0.034,0.01,-0.029,0.02,-0.005,0.054,0.063,-0.005,0.054,-0.137
2.73,-0.02,0.01,0.029,0.005,-0.024,0.02,-0.005,0.059,0.068,-0.01,0.049,-0.132
2.732,0.005,0.024,0.02,-0.015,-0.01,0.02,-0.005,0.054,0.059,-0.01,0.044,-0.137
2.734,-0.015,0.005,0.02,0.005,-0.02,0.01,-0.005,0.054,0.059,-0.02,0.039,-0.137
2.736,0.02,0.015,-0.005,-0.015,0.01,0.005,-0.01,0.054,0.063,-0.02,0.034,-0.142
2.738,0.034,0.015,-0.02,-0.024,0.024,-0.005,-0.01,0.044,0.054,-0.02,0.034,-0.137
2.74,-0.01,0.005,0.015,0.005,-0.015,0.01,-0.005,0.044,0.054,-0.02,0.034,-0.127
2.742,-0.01,-0.01,0.0,0.01,-0.005,-0.005,-0.02,0.029,0.039,-0.034,0.02,-0.146
2.744,0.015,0.029,0.015,-0.02,0.0,0.02,-0.034,0.015,0.034,-0.039,0.015,-0.146
2.746,0.039,0.044,0.005,-0.039,0.015,0.024,-0.029,0.02,0.034,-0.034,0.02,-0.137
2.748,0.005,0.029,0.024,-0.015,-0.01,0.024,-0.005,0.039,0.059,-0.01,0.039,-0.117
2.75,0.02,0.02,0.0,-0.02,0.01,0.01,-0.01,0.034,0.059,-0.015,0.039,-0.122
2.752,0.0,-0.005,-0.005,0.005,0.0,-0.005,-0.024,0.02,0.039,-0.029,0.029,-0.137
2.754,-0.029,0.02,0.049,0.005,-0.039,0.034,-0.02,0.024,0.044,-0.029,0.029,-0.127
2.756,-0.005,0.01,0.015,0.0,-0.01,0.01,-0.039,0.01,0.029,-0.039,0.01,-0.142
2.758,0.02,-0.01,-0.029,-0.005,0.024,-0.02,-0.059,-0.02,-0.01,-0.063,-0.01,-0.146
2.76,0.01,0.024,0.015,-0.015,-0.005,0.02,-0.029,0.01,0.024,-0.034,0.024,-0.117
2.762,0.01,0.044,0.034,-0.024,-0.015,0.039,-0.024,0.01,0.034,-0.029,0.029,-0.107
2.764,0.024,0.039,0.015,-0.029,0.005,0.024,-0.034,0.005,0.024,-0.034,0.024,-0.117
2.766,0.039,0.039,0.0,-0.039,0.02,0.02,-0.039,-0.005,0.015,-0.039,0.02,-0.127
2.768,0.0,0.005,0.005,0.0,-0.005,0.005,-0.054,-0.01,0.01,-0.044,0.01,-0.137
2.77,0.02,0.02,0.0,-0.02,0.01,0.01,-0.054,-0.015,0.005,-0.054,0.005,-0.137
2.772,0.029,0.015,-0.015,-0.02,0.02,0.0,-0.059,-0.024,-0.005,-0.063,-0.005,-0.142
2.774,0.029,-0.005,-0.034,-0.01,0.029,-0.02,-0.059,-0.029,-0.01,-0.068,-0.01,-0.142
2.776,0.01,0.01,0.0,-0.01,0.005,0.005,-0.044,-0.024,0.005,-0.054,0.005,-0.127
2.778,0.02,0.024,0.005,-0.02,0.005,0.015,-0.049,-0.02,0.0,-0.059,0.01,-0.127
2.78,0.049,0.034,-0.015,-0.039,0.029,0.01,-0.054,-0.024,-0.005,-0.063,0.005,-0.127
2.782,0.0,-0.005,-0.005,0.005,0.0,-0.005,-0.063,-0.029,-0.01,-0.063,-0.005,-0.137
2.784,-0.015,-0.02,-0.005,0.02,-0.005,-0.015,-0.068,-0.034,-0.015,-0.059,-0.005,-0.137
2.786,-0.005,0.0,0.005,0.005,-0.005,0.0,-0.059,-0.02,0.0,-0.049,0.005,-0.127
2.788,0.01,0.01,0.0,-0.01,0.005,0.005,-0.049,-0.015,0.02,-0.039,0.02,-0.107
2.79,0.029,0.02,-0.01,-0.024,0.02,0.005,-0.054,-0.015,0.01,-0.049,0.015,-0.117
2.792,0.024,0.01,-0.015,-0.015,0.02,-0.005,-0.054,-0.01,0.015,-0.049,0.015,-0.122
2.794,0.02,0.0,-0.02,-0.01,0.02,-0.01,-0.044,-0.005,0.02,-0.044,0.01,-0.112
2.796,0.01,-0.02,-0.029,0.005,0.02,-0.024,-0.054,-0.01,0.015,-0.049,0.01,-0.112
2.798,-0.054,-0.073,-0.02,0.063,-0.02,-0.049,-0.068,-0.024,0.0,-0.063,-0.01,-0.137
2.8,0.039,0.039,0.0,-0.039,0.02,0.02,-0.034,0.015,0.039,-0.02,0.034,-0.107
2.802,0.093,0.083,-0.01,-0.088,0.049,0.034,-0.02,0.029,0.059,-0.01,0.049,-0.088
2.804,0.054,0.054,0.0,-0.054,0.024,0.024,-0.034,0.024,0.049,-0.015,0.044,-0.098
2.806,0.034,0.054,0.02,-0.044,0.005,0.034,-0.024,0.034,0.063,0.0,0.049,-0.093
2.808,0.068,0.063,-0.005,-0.063,0.034,0.029,-0.024,0.039,0.059,-0.005,0.049,-0.098
2.81,0.063,0.029,-0.034,-0.044,0.049,-0.005,-0.039,0.02,0.044,-0.015,0.039,-0.117
2.812,0.054,0.039,-0.015,-0.044,0.034,0.01,-0.039,0.029,0.054,-0.01,0.044,-0.102
2.814,0.044,0.054,0.01,-0.049,0.015,0.029,-0.024,0.039,0.068,-0.005,0.054,-0.098
2.816,0.044,0.034,-0.01,-0.039,0.024,0.01,-0.02,0.049,0.073,0.0,0.054,-0.102
2.818,0.0,0.015,0.015,-0.005,-0.01,0.015,-0.015,0.049,0.073,0.005,0.049,-0.098
2.82,-0.005,-0.005,0.0,0.005,-0.005,-0.005,-0.024,0.049,0.073,0.005,0.049,-0.098
2.822,0.024,0.02,-0.005,-0.02,0.015,0.005,-0.015,0.059,0.093,0.02,0.068,-0.088
2.824,0.034,0.044,0.01,-0.039,0.01,0.024,-0.005,0.073,0.107,0.034,0.083,-0.073
2.826,0.029,0.015,-0.015,-0.02,0.02,0.0,-0.01,0.063,0.093,0.02,0.068,-0.093
2.828,0.024,-0.005,-0.029,-0.01,0.024,-0.02,-0.029,0.054,0.073,-0.005,0.049,-0.112
2.83,0.039,0.015,-0.024,-0.024,0.029,-0.005,-0.015,0.063,0.093,0.015,0.063,-0.107
2.832,0.044,0.024,-0.02,-0.034,0.029,0.0,-0.01,0.073,0.098,0.02,0.068,-0.093
2.834,-0.01,0.005,0.015,0.005,-0.015,0.01,0.0,0.073,0.102,0.02,0.073,-0.098
2.836,0.0,0.01,0.01,-0.005,-0.005,0.01,0.005,0.073,0.102,0.024,0.073,-0.093
2.838,0.0,0.024,0.024,-0.01,-0.015,0.024,0.015,0.083,0.117,0.044,0.083,-0.088
2.84,-0.005,0.015,0.02,-0.005,-0.015,0.015,0.015,0.088,0.122,0.044,0.083,-0.078
2.842,-0.01,-0.01,0.0,0.01,-0.005,-0.005,0.005,0.073,0.107,0.034,0.073,-0.088
2.844,0.0,0.005,0.005,0.0,-0.005,0.005,0.01,0.083,0.117,0.039,0.073,-0.083
2.846,-0.005,0.034,0.039,-0.015,-0.024,0.034,0.015,0.083,0.117,0.029,0.073,-0.102
2.848,0.02,0.015,-0.005,-0.015,0.01,0.005,0.02,0.083,0.117,0.029,0.073,-0.093
2.85,0.015,-0.01,-0.024,0.0,0.02,-0.02,0.024,0.078,0.112,0.024,0.063,-0.088
2.852,-0.029,-0.029,0.0,0.029,-0.015,-0.015,0.02,0.073,0.107,0.024,0.059,-0.102
2.854,-0.039,-0.02,0.02,0.029,-0.029,0.0,0.024,0.073,0.107,0.02,0.059,-0.112
2.856,0.015,0.01,-0.005,-0.01,0.01,0.0,0.02,0.073,0.107,0.02,0.059,-0.117
2.858,0.034,0.015,-0.02,-0.024,0.024,-0.005,0.02,0.073,0.107,0.02,0.054,-0.112
2.86,0.039,0.015,-0.024,-0.024,0.029,-0.005,0.029,0.078,0.107,0.024,0.059,-0.102
2.862,0.01,-0.005,-0.015,0.0,0.01,-0.01,0.024,0.068,0.107,0.024,0.059,-0.098
2.864,-0.029,-0.015,0.015,0.024,-0.024,0.0,0.034,0.078,0.112,0.024,0.068,-0.093
2.866,-0.024,-0.024,0.0,0.024,-0.015,-0.015,0.024,0.068,0.102,0.015,0.054,-0.107
2.868,-0.044,-0.02,0.024,0.034,-0.034,0.0,0.034,0.078,0.102,0.024,0.063,-0.098
2.87,-0.024,-0.015,0.01,0.02,-0.02,-0.005,0.024,0.063,0.093,0.01,0.044,-0.107
2.872,0.02,0.015,-0.005,-0.015,0.01,0.005,0.034,0.073,0.098,0.015,0.054,-0.107
2.874,0.02,0.015,-0.005,-0.015,0.01,0.005,0.034,0.068,0.098,0.015,0.054,-0.102
2.876,0.01,-0.015,-0.024,0.005,0.015,-0.02,0.029,0.063,0.093,0.015,0.049,-0.107
2.878,0.005,0.005,0.0,-0.005,0.0,0.0,0.039,0.073,0.107,0.024,0.059,-0.098
2.88,-0.039,-0.024,0.015,0.034,-0.029,-0.005,0.034,0.068,0.098,0.02,0.059,-0.102
2.882,-0.039,-0.049,-0.01,0.044,-0.015,-0.029,0.015,0.049,0.078,-0.005,0.034,-0.117
2.884,-0.024,-0.044,-0.02,0.034,-0.005,-0.034,0.01,0.039,0.078,0.0,0.034,-0.112
2.886,0.049,0.044,-0.005,-0.044,0.024,0.02,0.049,0.078,0.117,0.039,0.073,-0.073
2.888,0.0,-0.015,-0.015,0.01,0.005,-0.015,0.034,0.063,0.093,0.015,0.059,-0.098
2.89,-0.02,-0.02,0.0,0.02,-0.01,-0.01,0.024,0.049,0.083,0.0,0.039,-0.112
2.892,-0.015,-0.044,-0.029,0.029,0.005,-0.039,0.02,0.039,0.078,-0.01,0.034,-0.112
2.894,-0.024,-0.039,-0.015,0.034,-0.005,-0.029,0.015,0.029,0.068,-0.02,0.01,-0.132
2.896,-0.044,-0.039,0.005,0.044,-0.024,-0.02,0.015,0.039,0.078,-0.01,0.02,-0.117
2.898,0.0,-0.024,-0.024,0.015,0.01,-0.024,0.024,0.039,0.088,-0.005,0.029,-0.112
2.9,0.02,-0.015,-0.034,0.0,0.024,-0.024,0.02,0.034,0.083,-0.01,0.024,-0.117
2.902,-0.02,-0.024,-0.005,0.024,-0.01,-0.015,0.029,0.049,0.088,0.0,0.034,-0.107
2.904,-0.029,-0.024,0.005,0.029,-0.02,-0.01,0.034,0.054,0.098,0.005,0.039,-0.098
2.906,-0.024,-0.034,-0.01,0.029,-0.01,-0.024,0.024,0.039,0.088,-0.005,0.029,-0.117
2.908,-0.01,-0.049,-0.039,0.029,0.015,-0.044,0.01,0.024,0.068,-0.02,0.01,-0.132
2.91,-0.049,-0.049,0.0,0.049,-0.024,-0.024,0.024,0.044,0.088,-0.005,0.02,-0.112
2.912,-0.068,-0.039,0.029,0.054,-0.049,-0.005,0.039,0.054,0.102,0.005,0.034,-0.098
2.914,-0.059,-0.024,0.034,0.044,-0.049,0.005,0.034,0.049,0.093,-0.005,0.02,-0.107
2.916,-0.029,-0.044,-0.015,0.039,-0.01,-0.029,0.02,0.029,0.073,-0.029,0.005,-0.132
2.918,-0.015,-0.054,-0.039,0.034,0.01,-0.049,0.015,0.024,0.063,-0.034,0.0,-0.127
2.92,-0.005,-0.024,-0.02,0.015,0.005,-0.024,0.02,0.039,0.078,-0.02,0.01,-0.112
2.922,0.015,-0.005,-0.02,-0.005,0.015,-0.015,0.024,0.049,0.088,-0.01,0.015,-0.107
2.924,-0.054,-0.049,0.005,0.054,-0.029,-0.024,0.029,0.044,0.088,-0.01,0.015,-0.107
2.926,-0.054,-0.059,-0.005,0.059,-0.024,-0.034,0.024,0.039,0.078,-0.024,0.01,-0.117
2.928,-0.024,-0.044,-0.02,0.034,-0.005,-0.034,0.02,0.029,0.068,-0.024,-0.005,-0.122
2.93,-0.029,-0.034,-0.005,0.034,-0.015,-0.02,0.024,0.034,0.078,-0.024,0.005,-0.122
2.932,-0.049,-0.059,-0.01,0.054,-0.02,-0.034,0.02,0.029,0.073,-0.029,0.0,-0.127
2.934,-0.054,-0.063,-0.01,0.059,-0.024,-0.039,0.034,0.039,0.078,-0.029,-0.005,-0.127
2.936,-0.034,-0.034,0.0,0.034,-0.02,-0.02,0.034,0.039,0.078,-0.029,0.0,-0.117
2.938,-0.034,-0.039,-0.005,0.039,-0.015,-0.024,0.029,0.029,0.078,-0.034,-0.005,-0.112
2.94,-0.015,-0.024,-0.01,0.02,-0.005,-0.02,0.029,0.034,0.083,-0.024,0.005,-0.107
2.942,-0.005,0.01,0.015,0.0,-0.01,0.01,0.044,0.049,0.098,-0.01,0.024,-0.107
2.944,-0.02,-0.01,0.01,0.015,-0.015,0.0,0.034,0.044,0.093,-0.015,0.02,-0.112
2.946,-0.054,-0.054,0.0,0.054,-0.029,-0.029,0.024,0.034,0.078,-0.029,0.005,-0.127
2.948,-0.093,-0.088,0.005,0.093,-0.049,-0.044,0.01,0.015,0.054,-0.044,-0.015,-0.142
2.95,-0.063,-0.024,0.039,0.044,-0.054,0.005,0.039,0.039,0.093,-0.024,0.01,-0.117
2.952,-0.054,-0.039,0.015,0.049,-0.034,-0.015,0.034,0.039,0.088,-0.029,0.0,-0.122
2.954,-0.073,-0.054,0.02,0.063,-0.049,-0.02,0.02,0.024,0.073,-0.049,-0.015,-0.132
2.956,-0.024,-0.034,-0.01,0.029,-0.01,-0.024,0.024,0.029,0.078,-0.044,-0.01,-0.127
2.958,-0.029,-0.039,-0.01,0.034,-0.01,-0.024,0.024,0.029,0.083,-0.044,-0.01,-0.127
2.96,-0.054,-0.044,0.01,0.049,-0.034,-0.02,0.029,0.034,0.088,-0.034,-0.005,-0.122
2.962,-0.049,-0.049,0.0,0.049,-0.024,-0.024,0.024,0.029,0.088,-0.029,0.0,-0.117
2.964,-0.083,-0.054,0.029,0.068,-0.059,-0.015,0.039,0.049,0.102,-0.015,0.005,-0.107
2.966,-0.029,0.005,0.034,0.015,-0.034,0.02,0.054,0.063,0.117,-0.005,0.02,-0.093
2.968,-0.059,-0.029,0.029,0.044,-0.044,0.0,0.034,0.044,0.107,-0.024,0.005,-0.102
2.97,-0.039,-0.02,0.02,0.029,-0.029,0.0,0.034,0.039,0.098,-0.029,0.0,-0.098
2.972,-0.034,-0.015,0.02,0.024,-0.029,0.0,0.044,0.049,0.098,-0.024,0.005,-0.098
2.974,-0.024,-0.015,0.01,0.02,-0.02,-0.005,0.029,0.039,0.093,-0.024,-0.005,-0.107
