time,I,II,III,aVR,aVL,aVF,V1,V2,V3,V4,V5,V6
0.0,-0.039,-0.102,-0.063,0.073,0.01,-0.083,-0.015,-0.039,-0.029,-0.049,-0.059,-0.098
0.002,-0.044,-0.098,-0.054,0.073,0.005,-0.078,-0.005,-0.029,-0.024,-0.044,-0.049,-0.098
0.004,-0.059,-0.102,-0.044,0.083,-0.01,-0.073,-0.005,-0.034,-0.029,-0.049,-0.063,-0.107
0.006,-0.054,-0.102,-0.049,0.078,-0.005,-0.078,-0.005,-0.039,-0.029,-0.049,-0.054,-0.102
0.008,-0.044,-0.093,-0.049,0.068,0.0,-0.073,-0.01,-0.034,-0.029,-0.049,-0.068,-0.102
0.01,-0.049,-0.102,-0.054,0.078,0.0,-0.078,0.005,-0.029,-0.029,-0.044,-0.068,-0.102
0.012,-0.049,-0.102,-0.054,0.078,0.0,-0.078,0.0,-0.034,-0.024,-0.044,-0.059,-0.098
0.014,-0.049,-0.107,-0.059,0.078,0.005,-0.083,-0.01,-0.044,-0.034,-0.049,-0.044,-0.098
0.016,-0.054,-0.107,-0.054,0.083,0.0,-0.083,-0.01,-0.034,-0.039,-0.049,-0.063,-0.093
0.018,-0.039,-0.107,-0.068,0.073,0.015,-0.088,-0.02,-0.039,-0.049,-0.054,-0.073,-0.098
0.02,-0.059,-0.112,-0.054,0.088,-0.005,-0.083,-0.024,-0.049,-0.054,-0.054,-0.059,-0.098
0.022,-0.059,-0.112,-0.054,0.088,-0.005,-0.083,-0.015,-0.049,-0.054,-0.054,-0.063,-0.098
0.024,-0.049,-0.102,-0.054,0.078,0.0,-0.078,-0.015,-0.039,-0.039,-0.049,-0.039,-0.098
0.026,-0.054,-0.098,-0.044,0.078,-0.005,-0.073,-0.02,-0.044,-0.039,-0.049,-0.059,-0.102
0.028,-0.054,-0.093,-0.039,0.073,-0.01,-0.068,-0.015,-0.044,-0.039,-0.054,-0.073,-0.107
0.03,-0.059,-0.093,-0.034,0.078,-0.015,-0.063,-0.01,-0.044,-0.044,-0.044,-0.063,-0.107
0.032,-0.054,-0.098,-0.044,0.078,-0.005,-0.073,-0.015,-0.044,-0.049,-0.054,-0.063,-0.112
0.034,-0.054,-0.102,-0.049,0.078,-0.005,-0.078,-0.01,-0.039,-0.039,-0.049,-0.068,-0.102
0.036,-0.068,-0.117,-0.049,0.093,-0.01,-0.083,-0.015,-0.039,-0.044,-0.054,-0.063,-0.107
0.038,-0.068,-0.122,-0.054,0.098,-0.01,-0.088,-0.02,-0.049,-0.054,-0.054,-0.083,-0.112
0.04,-0.059,-0.112,-0.054,0.088,-0.005,-0.083,-0.024,-0.054,-0.054,-0.059,-0.083,-0.112
0.042,-0.059,-0.112,-0.054,0.088,-0.005,-0.083,-0.029,-0.054,-0.059,-0.059,-0.083,-0.112
0.044,-0.054,-0.117,-0.063,0.088,0.005,-0.093,-0.034,-0.049,-0.059,-0.063,-0.068,-0.117
0.046,-0.063,-0.102,-0.039,0.083,-0.015,-0.073,-0.034,-0.049,-0.054,-0.049,-0.063,-0.107
0.048,-0.059,-0.102,-0.044,0.083,-0.01,-0.073,-0.034,-0.049,-0.059,-0.044,-0.068,-0.107
0.05,-0.044,-0.098,-0.054,0.073,0.005,-0.078,-0.039,-0.059,-0.059,-0.059,-0.059,-0.122
0.052,-0.054,-0.107,-0.054,0.083,0.0,-0.083,-0.024,-0.054,-0.059,-0.059,-0.029,-0.122
0.054,-0.059,-0.107,-0.049,0.083,-0.005,-0.078,-0.02,-0.054,-0.054,-0.059,-0.044,-0.117
0.056,-0.049,-0.102,-0.054,0.078,0.0,-0.078,-0.015,-0.044,-0.049,-0.044,-0.059,-0.112
0.058,-0.059,-0.107,-0.049,0.083,-0.005,-0.078,-0.015,-0.044,-0.039,-0.034,-0.073,-0.112
0.06,-0.054,-0.102,-0.049,0.078,-0.005,-0.078,-0.01,-0.049,-0.044,-0.049,-0.073,-0.112
0.062,-0.063,-0.107,-0.044,0.088,-0.01,-0.078,-0.015,-0.054,-0.049,-0.054,-0.063,-0.117
0.064,-0.073,-0.117,-0.044,0.098,-0.015,-0.083,-0.01,-0.049,-0.049,-0.054,-0.078,-0.117
0.066,-0.063,-0.107,-0.044,0.088,-0.01,-0.078,-0.005,-0.059,-0.054,-0.054,-0.088,-0.122
0.068,-0.059,-0.107,-0.049,0.083,-0.005,-0.078,-0.01,-0.059,-0.054,-0.054,-0.073,-0.127
0.07,-0.054,-0.107,-0.054,0.083,0.0,-0.083,-0.01,-0.044,-0.049,-0.054,-0.063,-0.117
0.072,-0.063,-0.107,-0.044,0.088,-0.01,-0.078,-0.005,-0.044,-0.049,-0.049,-0.068,-0.122
0.074,-0.063,-0.112,-0.049,0.088,-0.01,-0.083,-0.005,-0.044,-0.049,-0.049,-0.078,-0.117
0.076,-0.049,-0.107,-0.059,0.078,0.005,-0.083,-0.005,-0.044,-0.059,-0.054,-0.073,-0.127
0.078,-0.049,-0.112,-0.063,0.083,0.005,-0.088,-0.005,-0.049,-0.059,-0.059,-0.088,-0.132
0.08,-0.063,-0.107,-0.044,0.088,-0.01,-0.078,-0.005,-0.044,-0.059,-0.054,-0.078,-0.132
0.082,-0.054,-0.098,-0.044,0.078,-0.005,-0.073,-0.01,-0.044,-0.059,-0.049,-0.068,-0.137
0.084,-0.054,-0.102,-0.049,0.078,-0.005,-0.078,-0.02,-0.054,-0.068,-0.054,-0.093,-0.146
0.086,-0.054,-0.107,-0.054,0.083,0.0,-0.083,-0.005,-0.049,-0.059,-0.049,-0.093,-0.137
0.088,-0.063,-0.117,-0.054,0.093,-0.005,-0.088,-0.01,-0.044,-0.059,-0.054,-0.083,-0.142
0.09,-0.068,-0.127,-0.059,0.098,-0.005,-0.093,-0.015,-0.049,-0.059,-0.059,-0.054,-0.132
0.092,-0.059,-0.122,-0.063,0.093,0.0,-0.093,-0.005,-0.049,-0.054,-0.049,-0.063,-0.122
0.094,-0.054,-0.122,-0.068,0.088,0.005,-0.098,-0.015,-0.049,-0.054,-0.054,-0.068,-0.127
0.096,-0.054,-0.117,-0.063,0.088,0.005,-0.093,-0.015,-0.044,-0.054,-0.044,-0.044,-0.122
0.098,-0.059,-0.107,-0.049,0.083,-0.005,-0.078,-0.01,-0.044,-0.059,-0.044,-0.054,-0.122
0.1,-0.063,-0.117,-0.054,0.093,-0.005,-0.088,-0.005,-0.049,-0.054,-0.054,-0.063,-0.122
0.102,-0.059,-0.102,-0.044,0.083,-0.01,-0.073,-0.01,-0.049,-0.049,-0.049,-0.059,-0.117
0.104,-0.059,-0.107,-0.049,0.083,-0.005,-0.078,-0.01,-0.044,-0.044,-0.044,-0.068,-0.117
0.106,-0.054,-0.107,-0.054,0.083,0.0,-0.083,-0.02,-0.049,-0.054,-0.054,-0.073,-0.117
0.108,-0.054,-0.107,-0.054,0.083,0.0,-0.083,-0.015,-0.049,-0.049,-0.049,-0.083,-0.117
0.11,-0.059,-0.117,-0.059,0.088,0.0,-0.088,-0.015,-0.044,-0.049,-0.049,-0.088,-0.122
0.112,-0.059,-0.117,-0.059,0.088,0.0,-0.088,-0.015,-0.044,-0.044,-0.044,-0.093,-0.122
0.114,-0.049,-0.102,-0.054,0.078,0.0,-0.078,-0.02,-0.054,-0.049,-0.049,-0.063,-0.117
0.116,-0.044,-0.107,-0.063,0.078,0.01,-0.088,-0.024,-0.054,-0.063,-0.054,-0.073,-0.117
0.118,-0.044,-0.102,-0.059,0.073,0.005,-0.083,-0.015,-0.049,-0.063,-0.049,-0.078,-0.112
0.12,-0.049,-0.102,-0.054,0.078,0.0,-0.078,-0.01,-0.049,-0.059,-0.049,-0.073,-0.107
0.122,-0.059,-0.102,-0.044,0.083,-0.01,-0.073,-0.01,-0.049,-0.054,-0.034,-0.063,-0.107
0.124,-0.044,-0.098,-0.054,0.073,0.005,-0.078,-0.01,-0.044,-0.059,-0.039,-0.078,-0.112
0.126,-0.049,-0.098,-0.049,0.073,0.0,-0.073,-0.01,-0.044,-0.054,-0.044,-0.063,-0.107
0.128,-0.049,-0.098,-0.049,0.073,0.0,-0.073,-0.01,-0.044,-0.054,-0.039,-0.078,-0.107
0.13,-0.054,-0.098,-0.044,0.078,-0.005,-0.073,-0.01,-0.044,-0.054,-0.034,-0.083,-0.112
0.132,-0.068,-0.102,-0.034,0.088,-0.02,-0.068,-0.015,-0.039,-0.044,-0.029,-0.068,-0.102
0.134,-0.049,-0.098,-0.049,0.073,0.0,-0.073,-0.02,-0.049,-0.054,-0.034,-0.068,-0.102
0.136,-0.049,-0.102,-0.054,0.078,0.0,-0.078,-0.02,-0.044,-0.059,-0.044,-0.068,-0.102
0.138,-0.059,-0.098,-0.039,0.078,-0.01,-0.068,-0.015,-0.049,-0.063,-0.044,-0.073,-0.102
0.14,-0.044,-0.093,-0.049,0.068,0.0,-0.073,-0.015,-0.049,-0.059,-0.044,-0.073,-0.102
0.142,-0.049,-0.098,-0.049,0.073,0.0,-0.073,-0.015,-0.039,-0.059,-0.034,-0.073,-0.102
0.144,-0.049,-0.098,-0.049,0.073,0.0,-0.073,-0.015,-0.029,-0.054,-0.029,-0.078,-0.093
0.146,-0.029,-0.083,-0.054,0.059,0.01,-0.068,-0.015,-0.029,-0.049,-0.024,-0.068,-0.088
0.148,-0.024,-0.078,-0.054,0.054,0.015,-0.068,-0.015,-0.024,-0.049,-0.024,-0.059,-0.088
0.15,-0.029,-0.073,-0.044,0.054,0.005,-0.059,0.0,-0.01,-0.034,-0.01,-0.063,-0.078
0.152,-0.02,-0.078,-0.059,0.049,0.02,-0.068,-0.005,-0.01,-0.034,-0.015,-0.073,-0.078
0.154,-0.02,-0.078,-0.059,0.049,0.02,-0.068,0.0,0.0,-0.02,-0.005,-0.068,-0.073
0.156,-0.024,-0.073,-0.049,0.049,0.01,-0.063,0.005,0.005,-0.02,-0.005,-0.063,-0.073
0.158,-0.02,-0.083,-0.063,0.054,0.02,-0.073,-0.005,0.0,-0.02,-0.01,-0.059,-0.073
0.16,-0.015,-0.063,-0.049,0.039,0.015,-0.059,0.0,0.015,-0.015,0.01,-0.059,-0.063
0.162,0.0,-0.049,-0.049,0.024,0.024,-0.049,0.0,0.02,-0.005,0.015,-0.054,-0.054
0.164,0.005,-0.039,-0.044,0.02,0.024,-0.044,-0.005,0.02,0.01,0.02,-0.034,-0.054
0.166,0.029,-0.024,-0.054,0.0,0.039,-0.039,-0.005,0.029,0.015,0.029,0.005,-0.044
0.168,0.029,-0.02,-0.049,-0.005,0.039,-0.034,-0.005,0.039,0.02,0.034,-0.029,-0.039
0.17,0.029,-0.024,-0.054,0.0,0.039,-0.039,-0.005,0.049,0.029,0.039,-0.02,-0.039
0.172,0.034,-0.024,-0.059,-0.005,0.044,-0.044,-0.01,0.059,0.039,0.049,-0.01,-0.029
0.174,0.029,-0.034,-0.063,0.005,0.044,-0.049,-0.01,0.059,0.044,0.054,-0.015,-0.01
0.176,0.029,-0.029,-0.059,0.0,0.044,-0.044,-0.015,0.068,0.049,0.059,-0.01,-0.015
0.178,0.034,-0.029,-0.063,0.0,0.049,-0.049,-0.01,0.083,0.063,0.068,0.0,-0.005
0.18,0.034,-0.02,-0.054,-0.005,0.044,-0.039,-0.01,0.088,0.063,0.078,0.024,0.0
0.182,0.039,0.0,-0.039,-0.02,0.039,-0.02,-0.015,0.093,0.073,0.083,0.024,0.005
0.184,0.034,0.005,-0.029,-0.02,0.029,-0.015,-0.015,0.098,0.083,0.088,0.024,0.01
0.186,0.039,0.01,-0.029,-0.024,0.034,-0.01,-0.024,0.088,0.073,0.088,0.024,0.015
0.188,0.044,0.024,-0.02,-0.034,0.029,0.0,-0.034,0.088,0.068,0.088,0.029,0.01
0.19,0.039,0.015,-0.024,-0.024,0.029,-0.005,-0.044,0.068,0.059,0.078,0.024,0.0
0.192,0.034,0.02,-0.015,-0.024,0.024,0.0,-0.044,0.063,0.059,0.078,0.01,0.0
0.194,0.049,0.024,-0.024,-0.034,0.034,0.0,-0.044,0.054,0.044,0.068,-0.005,-0.01
0.196,0.049,0.005,-0.044,-0.024,0.044,-0.02,-0.044,0.054,0.044,0.068,-0.005,-0.015
0.198,0.059,-0.005,-0.063,-0.024,0.059,-0.034,-0.044,0.054,0.049,0.068,-0.01,-0.015
0.2,0.044,-0.015,-0.059,-0.015,0.049,-0.039,-0.054,0.049,0.044,0.068,-0.01,-0.015
0.202,0.029,-0.02,-0.049,-0.005,0.039,-0.034,-0.044,0.054,0.039,0.063,-0.01,-0.015
0.204,0.029,-0.029,-0.059,0.0,0.044,-0.044,-0.044,0.044,0.024,0.049,-0.005,-0.024
0.206,0.029,-0.024,-0.054,0.0,0.039,-0.039,-0.049,0.029,0.015,0.049,-0.01,-0.029
0.208,0.034,-0.029,-0.063,0.0,0.049,-0.049,-0.049,0.024,0.005,0.044,0.0,-0.029
0.21,0.024,-0.044,-0.068,0.01,0.044,-0.059,-0.063,0.015,-0.005,0.029,-0.02,-0.044
0.212,0.024,-0.054,-0.078,0.015,0.049,-0.068,-0.068,0.015,-0.015,0.02,-0.029,-0.049
0.214,0.034,-0.039,-0.073,0.005,0.054,-0.059,-0.068,0.01,-0.015,0.02,-0.044,-0.039
0.216,0.015,-0.029,-0.044,0.01,0.029,-0.039,-0.054,0.02,-0.01,0.024,-0.029,-0.034
0.218,0.01,-0.024,-0.034,0.01,0.02,-0.029,-0.049,0.02,-0.005,0.029,-0.02,-0.029
0.22,0.0,-0.029,-0.029,0.015,0.015,-0.029,-0.049,0.02,-0.005,0.029,-0.034,-0.034
0.222,-0.02,-0.044,-0.024,0.034,0.0,-0.034,-0.049,0.01,-0.015,0.029,-0.044,-0.044
0.224,0.0,-0.049,-0.049,0.024,0.024,-0.049,-0.049,0.0,-0.029,0.01,-0.063,-0.063
0.226,0.0,-0.063,-0.063,0.034,0.029,-0.063,-0.054,-0.01,-0.034,0.0,-0.059,-0.068
0.228,-0.029,-0.083,-0.054,0.059,0.01,-0.068,-0.049,-0.01,-0.039,0.0,-0.073,-0.078
0.23,-0.039,-0.093,-0.054,0.068,0.005,-0.073,-0.049,-0.015,-0.039,-0.005,-0.049,-0.083
0.232,-0.039,-0.093,-0.054,0.068,0.005,-0.073,-0.049,-0.015,-0.044,-0.01,-0.063,-0.083
0.234,-0.034,-0.088,-0.054,0.063,0.01,-0.073,-0.049,-0.02,-0.039,-0.01,-0.083,-0.078
0.236,-0.034,-0.083,-0.049,0.059,0.005,-0.068,-0.039,-0.02,-0.059,-0.02,-0.093,-0.093
0.238,-0.044,-0.093,-0.049,0.068,0.0,-0.073,-0.024,-0.024,-0.063,-0.02,-0.098,-0.088
0.24,-0.049,-0.088,-0.039,0.068,-0.005,-0.063,-0.024,-0.029,-0.068,-0.02,-0.098,-0.093
0.242,-0.063,-0.102,-0.039,0.083,-0.015,-0.073,-0.02,-0.034,-0.073,-0.02,-0.083,-0.093
0.244,-0.063,-0.107,-0.044,0.088,-0.01,-0.078,-0.02,-0.039,-0.073,-0.024,-0.093,-0.098
0.246,-0.054,-0.093,-0.039,0.073,-0.01,-0.068,-0.02,-0.034,-0.063,-0.024,-0.078,-0.098
0.248,-0.059,-0.098,-0.039,0.078,-0.01,-0.068,-0.01,-0.034,-0.068,-0.02,-0.078,-0.098
0.25,-0.068,-0.098,-0.029,0.083,-0.02,-0.063,-0.01,-0.034,-0.063,-0.024,-0.098,-0.102
0.252,-0.068,-0.093,-0.024,0.083,-0.024,-0.059,-0.015,-0.034,-0.068,-0.024,-0.102,-0.102
0.254,-0.063,-0.098,-0.034,0.083,-0.015,-0.068,-0.015,-0.029,-0.063,-0.024,-0.093,-0.093
0.256,-0.054,-0.088,-0.034,0.073,-0.01,-0.063,-0.015,-0.024,-0.063,-0.015,-0.088,-0.093
0.258,-0.054,-0.088,-0.034,0.073,-0.01,-0.063,-0.015,-0.02,-0.059,-0.02,-0.093,-0.093
0.26,-0.054,-0.088,-0.034,0.073,-0.01,-0.063,-0.02,-0.029,-0.068,-0.029,-0.073,-0.102
0.262,-0.059,-0.088,-0.029,0.073,-0.015,-0.059,-0.015,-0.024,-0.068,-0.024,-0.093,-0.098
0.264,-0.059,-0.093,-0.034,0.078,-0.015,-0.063,-0.02,-0.024,-0.073,-0.034,-0.112,-0.102
0.266,-0.054,-0.093,-0.039,0.073,-0.01,-0.068,-0.02,-0.024,-0.073,-0.029,-0.112,-0.102
0.268,-0.059,-0.093,-0.034,0.078,-0.015,-0.063,-0.024,-0.029,-0.073,-0.024,-0.107,-0.102
0.27,-0.073,-0.107,-0.034,0.093,-0.02,-0.073,-0.015,-0.024,-0.073,-0.02,-0.098,-0.098
0.272,-0.073,-0.102,-0.029,0.088,-0.024,-0.068,-0.015,-0.024,-0.073,-0.024,-0.102,-0.098
0.274,-0.068,-0.098,-0.029,0.083,-0.02,-0.063,-0.015,-0.024,-0.078,-0.029,-0.107,-0.093
0.276,-0.068,-0.088,-0.02,0.078,-0.024,-0.054,-0.015,-0.02,-0.073,-0.024,-0.093,-0.093
0.278,-0.059,-0.083,-0.024,0.073,-0.02,-0.054,-0.015,-0.02,-0.073,-0.024,-0.093,-0.093
0.28,-0.059,-0.088,-0.029,0.073,-0.015,-0.059,-0.029,-0.029,-0.078,-0.039,-0.093,-0.102
0.282,-0.054,-0.088,-0.034,0.073,-0.01,-0.063,-0.029,-0.024,-0.078,-0.034,-0.117,-0.098
0.284,-0.044,-0.073,-0.029,0.059,-0.01,-0.054,-0.029,-0.015,-0.073,-0.039,-0.102,-0.102
0.286,-0.059,-0.083,-0.024,0.073,-0.02,-0.054,-0.029,-0.015,-0.068,-0.034,-0.107,-0.107
0.288,-0.063,-0.088,-0.024,0.078,-0.02,-0.059,-0.024,-0.024,-0.073,-0.039,-0.117,-0.117
0.29,-0.063,-0.098,-0.034,0.083,-0.015,-0.068,-0.02,-0.02,-0.083,-0.044,-0.102,-0.117
0.292,-0.068,-0.098,-0.029,0.083,-0.02,-0.063,-0.02,-0.02,-0.083,-0.054,-0.137,-0.132
0.294,-0.083,-0.102,-0.02,0.093,-0.034,-0.063,0.005,0.0,-0.088,-0.049,-0.146,-0.137
0.296,-0.098,-0.122,-0.024,0.112,-0.039,-0.073,0.015,0.02,-0.093,-0.063,-0.161,-0.156
0.298,-0.117,-0.146,-0.029,0.132,-0.044,-0.088,0.034,0.044,-0.088,-0.078,-0.171,-0.176
0.3,-0.137,-0.156,-0.02,0.146,-0.059,-0.088,0.059,0.078,-0.078,-0.088,-0.19,-0.205
0.302,-0.142,-0.151,-0.01,0.146,-0.068,-0.083,0.088,0.132,-0.063,-0.083,-0.2,-0.22
0.304,-0.122,-0.132,-0.01,0.127,-0.059,-0.073,0.102,0.205,-0.01,-0.049,-0.195,-0.21
0.306,-0.093,-0.122,-0.029,0.107,-0.034,-0.078,0.098,0.268,0.044,-0.005,-0.161,-0.185
0.308,-0.044,-0.102,-0.059,0.073,0.005,-0.083,0.098,0.342,0.098,0.044,-0.117,-0.146
0.31,-0.005,-0.112,-0.107,0.059,0.049,-0.112,0.107,0.42,0.151,0.083,-0.078,-0.112
0.312,0.039,-0.122,-0.161,0.044,0.098,-0.142,0.098,0.464,0.215,0.146,-0.02,-0.063
0.314,0.117,-0.093,-0.21,-0.01,0.161,-0.151,0.059,0.444,0.254,0.215,0.078,0.015
0.316,0.205,-0.059,-0.264,-0.073,0.234,-0.161,-0.01,0.371,0.283,0.298,0.195,0.122
0.318,0.298,0.005,-0.293,-0.151,0.293,-0.146,-0.098,0.268,0.332,0.405,0.332,0.244
0.32,0.4,0.093,-0.307,-0.244,0.351,-0.107,-0.185,0.176,0.405,0.547,0.527,0.4
0.322,0.503,0.195,-0.307,-0.346,0.405,-0.059,-0.283,0.073,0.464,0.673,0.712,0.556
0.324,0.59,0.322,-0.268,-0.454,0.429,0.024,-0.356,0.005,0.547,0.825,0.908,0.727
0.326,0.669,0.468,-0.2,-0.566,0.434,0.132,-0.42,-0.034,0.649,0.986,1.069,0.908
0.328,0.717,0.62,-0.098,-0.669,0.405,0.259,-0.498,-0.083,0.727,1.127,1.235,1.074
0.33,0.737,0.771,0.034,-0.752,0.351,0.4,-0.551,-0.107,0.825,1.288,1.401,1.244
0.332,0.717,0.878,0.161,-0.795,0.278,0.517,-0.576,-0.117,0.927,1.41,1.532,1.366
0.334,0.654,0.942,0.288,-0.795,0.181,0.615,-0.62,-0.19,0.942,1.479,1.61,1.44
0.336,0.532,0.976,0.444,-0.752,0.044,0.708,-0.63,-0.337,0.839,1.425,1.586,1.425
0.338,0.371,0.913,0.542,-0.639,-0.088,0.727,-0.62,-0.532,0.605,1.2,1.391,1.269
0.34,0.171,0.795,0.625,-0.483,-0.229,0.708,-0.59,-0.791,0.2,0.776,0.991,0.981
0.342,-0.01,0.659,0.669,-0.322,-0.342,0.664,-0.556,-1.093,-0.332,0.205,0.444,0.605
0.344,-0.146,0.464,0.61,-0.156,-0.381,0.537,-0.532,-1.274,-0.708,-0.244,-0.01,0.249
0.346,-0.224,0.327,0.551,-0.049,-0.39,0.439,-0.488,-1.303,-0.888,-0.488,-0.273,0.02
0.348,-0.254,0.244,0.498,0.005,-0.376,0.371,-0.444,-1.24,-0.908,-0.537,-0.351,-0.068
0.35,-0.249,0.166,0.415,0.044,-0.332,0.288,-0.395,-1.103,-0.834,-0.512,-0.366,-0.112
0.352,-0.22,0.122,0.342,0.049,-0.283,0.229,-0.366,-0.961,-0.742,-0.464,-0.351,-0.132
0.354,-0.2,0.063,0.264,0.068,-0.234,0.161,-0.337,-0.82,-0.644,-0.41,-0.303,-0.132
0.356,-0.166,0.024,0.19,0.073,-0.181,0.107,-0.298,-0.673,-0.547,-0.346,-0.264,-0.117
0.358,-0.137,0.005,0.142,0.068,-0.142,0.073,-0.249,-0.537,-0.449,-0.278,-0.249,-0.112
0.36,-0.142,-0.02,0.122,0.083,-0.132,0.049,-0.195,-0.42,-0.366,-0.22,-0.19,-0.098
0.362,-0.137,-0.024,0.112,0.083,-0.127,0.044,-0.142,-0.332,-0.298,-0.176,-0.132,-0.088
0.364,-0.122,-0.029,0.093,0.078,-0.107,0.029,-0.112,-0.268,-0.249,-0.151,-0.142,-0.088
0.366,-0.112,-0.029,0.083,0.073,-0.098,0.024,-0.093,-0.215,-0.2,-0.122,-0.156,-0.083
0.368,-0.112,-0.024,0.088,0.068,-0.102,0.029,-0.063,-0.161,-0.161,-0.088,-0.122,-0.068
0.37,-0.098,-0.024,0.073,0.063,-0.088,0.024,-0.054,-0.127,-0.137,-0.068,-0.088,-0.063
0.372,-0.083,-0.029,0.054,0.059,-0.068,0.01,-0.034,-0.098,-0.107,-0.049,-0.098,-0.054
0.374,-0.083,-0.039,0.044,0.063,-0.063,0.0,-0.015,-0.068,-0.093,-0.039,-0.073,-0.039
0.376,-0.078,-0.049,0.029,0.063,-0.054,-0.01,-0.02,-0.059,-0.093,-0.029,-0.063,-0.039
0.378,-0.068,-0.054,0.015,0.063,-0.044,-0.02,-0.01,-0.039,-0.073,-0.02,-0.088,-0.039
0.38,-0.083,-0.068,0.015,0.078,-0.049,-0.029,0.0,-0.024,-0.063,-0.01,-0.078,-0.039
0.382,-0.073,-0.078,-0.005,0.078,-0.034,-0.044,-0.005,-0.029,-0.078,-0.024,-0.059,-0.049
0.384,-0.063,-0.068,-0.005,0.068,-0.029,-0.039,0.0,-0.024,-0.073,-0.029,-0.073,-0.049
0.386,-0.073,-0.073,0.0,0.073,-0.039,-0.039,0.005,-0.015,-0.073,-0.024,-0.083,-0.049
0.388,-0.078,-0.073,0.005,0.078,-0.044,-0.034,0.0,-0.02,-0.073,-0.029,-0.068,-0.054
0.39,-0.068,-0.068,0.0,0.068,-0.034,-0.034,0.0,-0.015,-0.068,-0.01,-0.068,-0.054
0.392,-0.068,-0.083,-0.015,0.078,-0.029,-0.049,0.0,-0.01,-0.063,-0.024,-0.083,-0.054
0.394,-0.063,-0.078,-0.015,0.073,-0.024,-0.049,0.005,0.01,-0.059,-0.02,-0.088,-0.039
0.396,-0.059,-0.073,-0.015,0.068,-0.024,-0.044,0.0,0.01,-0.059,-0.02,-0.073,-0.044
0.398,-0.059,-0.073,-0.015,0.068,-0.024,-0.044,0.0,0.01,-0.059,-0.02,-0.083,-0.049
0.4,-0.054,-0.068,-0.015,0.063,-0.02,-0.044,0.005,0.015,-0.063,-0.015,-0.054,-0.044
0.402,-0.049,-0.078,-0.029,0.063,-0.01,-0.054,0.01,0.024,-0.059,-0.015,-0.059,-0.044
0.404,-0.059,-0.078,-0.02,0.068,-0.02,-0.049,0.005,0.02,-0.054,-0.015,-0.068,-0.054
0.406,-0.059,-0.083,-0.024,0.073,-0.02,-0.054,0.015,0.029,-0.044,0.01,-0.073,-0.044
0.408,-0.063,-0.088,-0.024,0.078,-0.02,-0.059,0.01,0.024,-0.049,-0.005,-0.054,-0.044
0.41,-0.049,-0.078,-0.029,0.063,-0.01,-0.054,0.02,0.029,-0.039,-0.005,-0.049,-0.044
0.412,-0.063,-0.088,-0.024,0.078,-0.02,-0.059,0.024,0.034,-0.044,-0.005,-0.044,-0.039
0.414,-0.059,-0.083,-0.024,0.073,-0.02,-0.054,0.024,0.034,-0.044,0.0,-0.068,-0.034
0.416,-0.044,-0.083,-0.039,0.063,-0.005,-0.063,0.02,0.029,-0.049,-0.01,-0.078,-0.034
0.418,-0.054,-0.078,-0.024,0.068,-0.015,-0.054,0.015,0.029,-0.049,-0.005,-0.078,-0.039
0.42,-0.049,-0.073,-0.024,0.063,-0.015,-0.049,0.02,0.034,-0.044,-0.005,-0.059,-0.029
0.422,-0.034,-0.068,-0.034,0.054,0.0,-0.054,0.02,0.039,-0.044,0.0,-0.059,-0.024
0.424,-0.039,-0.068,-0.029,0.054,-0.005,-0.049,0.015,0.029,-0.044,-0.01,-0.049,-0.034
0.426,-0.044,-0.073,-0.029,0.059,-0.01,-0.054,0.02,0.034,-0.044,-0.005,-0.049,-0.034
0.428,-0.063,-0.073,-0.01,0.068,-0.029,-0.044,0.02,0.034,-0.049,-0.01,-0.068,-0.039
0.43,-0.068,-0.068,0.0,0.068,-0.034,-0.034,0.01,0.024,-0.049,-0.01,-0.068,-0.049
0.432,-0.049,-0.063,-0.015,0.059,-0.02,-0.039,0.0,0.024,-0.049,-0.01,-0.068,-0.049
0.434,-0.049,-0.068,-0.02,0.059,-0.015,-0.044,0.01,0.034,-0.039,0.005,-0.039,-0.039
0.436,-0.054,-0.068,-0.015,0.063,-0.02,-0.044,0.01,0.029,-0.034,0.0,-0.049,-0.039
0.438,-0.054,-0.073,-0.02,0.063,-0.02,-0.049,0.015,0.034,-0.029,0.0,-0.068,-0.044
0.44,-0.059,-0.083,-0.024,0.073,-0.02,-0.054,0.02,0.039,-0.029,0.0,-0.059,-0.044
0.442,-0.034,-0.073,-0.039,0.054,0.0,-0.059,0.02,0.039,-0.024,0.005,-0.054,-0.039
0.444,-0.044,-0.073,-0.029,0.059,-0.01,-0.054,0.02,0.039,-0.02,0.005,-0.059,-0.039
0.446,-0.049,-0.073,-0.024,0.063,-0.015,-0.049,0.02,0.044,-0.02,0.01,-0.054,-0.044
0.448,-0.044,-0.073,-0.029,0.059,-0.01,-0.054,0.02,0.044,-0.02,0.01,-0.049,-0.044
0.45,-0.059,-0.083,-0.024,0.073,-0.02,-0.054,0.02,0.044,-0.015,0.005,-0.039,-0.054
0.452,-0.049,-0.073,-0.024,0.063,-0.015,-0.049,0.02,0.039,-0.02,0.0,-0.054,-0.054
0.454,-0.044,-0.078,-0.034,0.063,-0.005,-0.059,0.015,0.039,-0.024,0.005,-0.044,-0.049
0.456,-0.044,-0.083,-0.039,0.063,-0.005,-0.063,0.015,0.039,-0.02,0.005,-0.049,-0.049
0.458,-0.039,-0.073,-0.034,0.059,-0.005,-0.054,0.024,0.049,-0.015,0.015,-0.02,-0.039
0.46,-0.039,-0.078,-0.039,0.059,0.0,-0.059,0.024,0.049,-0.024,0.01,-0.029,-0.039
0.462,-0.044,-0.083,-0.039,0.063,-0.005,-0.063,0.024,0.054,-0.02,0.01,-0.02,-0.039
0.464,-0.039,-0.073,-0.034,0.059,-0.005,-0.054,0.024,0.059,-0.024,0.005,-0.029,-0.044
0.466,-0.034,-0.068,-0.034,0.054,0.0,-0.054,0.015,0.063,-0.024,0.005,-0.044,-0.049
0.468,-0.034,-0.063,-0.029,0.049,-0.005,-0.049,0.02,0.068,-0.015,0.015,-0.039,-0.044
0.47,-0.029,-0.063,-0.034,0.049,0.0,-0.049,0.024,0.073,-0.01,0.015,-0.02,-0.044
0.472,-0.034,-0.073,-0.039,0.054,0.0,-0.059,0.02,0.073,-0.01,0.015,0.0,-0.049
0.474,-0.029,-0.068,-0.039,0.049,0.005,-0.054,0.01,0.073,-0.005,0.02,-0.024,-0.049
0.476,-0.039,-0.068,-0.029,0.054,-0.005,-0.049,0.015,0.073,0.0,0.02,-0.02,-0.039
0.478,-0.034,-0.073,-0.039,0.054,0.0,-0.059,0.01,0.073,0.0,0.024,-0.024,-0.044
0.48,-0.015,-0.059,-0.044,0.039,0.015,-0.054,0.005,0.073,-0.01,0.015,-0.02,-0.049
0.482,-0.015,-0.054,-0.039,0.034,0.01,-0.049,0.005,0.073,-0.01,0.02,-0.029,-0.044
0.484,-0.01,-0.044,-0.034,0.029,0.01,-0.039,0.01,0.078,0.0,0.024,-0.015,-0.039
0.486,-0.02,-0.049,-0.029,0.034,0.005,-0.039,0.015,0.083,-0.005,0.024,-0.015,-0.034
0.488,-0.029,-0.044,-0.015,0.039,-0.01,-0.029,0.01,0.078,-0.005,0.024,-0.015,-0.039
0.49,-0.015,-0.039,-0.024,0.029,0.005,-0.034,0.01,0.083,0.005,0.024,-0.02,-0.034
0.492,-0.02,-0.049,-0.029,0.034,0.005,-0.039,0.015,0.088,0.005,0.024,-0.015,-0.039
0.494,-0.024,-0.054,-0.029,0.039,0.0,-0.044,0.015,0.093,0.01,0.034,-0.015,-0.029
0.496,-0.02,-0.049,-0.029,0.034,0.005,-0.039,0.015,0.088,0.01,0.029,0.01,-0.029
0.498,-0.02,-0.059,-0.039,0.039,0.01,-0.049,0.015,0.093,0.005,0.029,0.005,-0.029
0.5,-0.015,-0.059,-0.044,0.039,0.015,-0.054,0.02,0.098,0.005,0.029,-0.01,-0.02
0.502,-0.01,-0.059,-0.049,0.034,0.02,-0.054,0.024,0.098,0.01,0.034,0.0,-0.01
0.504,-0.024,-0.054,-0.029,0.039,0.0,-0.044,0.029,0.098,0.015,0.029,0.0,-0.015
0.506,-0.02,-0.049,-0.029,0.034,0.005,-0.039,0.029,0.102,0.02,0.034,0.005,-0.02
0.508,-0.024,-0.044,-0.02,0.034,-0.005,-0.034,0.02,0.102,0.024,0.029,0.029,-0.015
0.51,-0.024,-0.039,-0.015,0.034,-0.005,-0.029,0.02,0.098,0.024,0.029,-0.005,-0.02
0.512,-0.02,-0.039,-0.02,0.029,0.0,-0.029,0.015,0.098,0.02,0.02,-0.005,-0.029
0.514,-0.02,-0.039,-0.02,0.029,0.0,-0.029,0.01,0.102,0.015,0.02,-0.01,-0.029
0.516,-0.005,-0.034,-0.029,0.02,0.01,-0.034,0.01,0.102,0.02,0.024,-0.015,-0.024
0.518,-0.01,-0.044,-0.034,0.029,0.01,-0.039,0.01,0.107,0.024,0.029,-0.02,-0.029
0.52,-0.015,-0.039,-0.024,0.029,0.005,-0.034,0.015,0.112,0.029,0.034,-0.015,-0.024
0.522,-0.01,-0.034,-0.024,0.024,0.005,-0.029,0.02,0.117,0.034,0.039,-0.02,-0.024
0.524,-0.02,-0.034,-0.015,0.029,-0.005,-0.024,0.02,0.117,0.034,0.034,-0.015,-0.029
0.526,-0.024,-0.034,-0.01,0.029,-0.01,-0.024,0.02,0.117,0.034,0.034,-0.01,-0.024
0.528,-0.015,-0.024,-0.01,0.02,-0.005,-0.02,0.024,0.122,0.039,0.039,-0.02,-0.02
0.53,-0.02,-0.024,-0.005,0.024,-0.01,-0.015,0.02,0.122,0.044,0.039,-0.02,-0.024
0.532,-0.015,-0.02,-0.005,0.02,-0.005,-0.015,0.02,0.132,0.049,0.049,-0.015,-0.02
0.534,-0.02,-0.024,-0.005,0.024,-0.01,-0.015,0.02,0.132,0.044,0.044,0.005,-0.02
0.536,-0.02,-0.02,0.0,0.02,-0.01,-0.01,0.015,0.127,0.044,0.039,-0.01,-0.015
0.538,-0.01,-0.015,-0.005,0.015,-0.005,-0.01,0.024,0.132,0.049,0.044,0.015,-0.01
0.54,-0.01,-0.01,0.0,0.01,-0.005,-0.005,0.024,0.142,0.054,0.049,0.029,-0.005
0.542,-0.01,-0.005,0.005,0.01,-0.01,0.0,0.015,0.137,0.049,0.049,-0.01,-0.005
0.544,-0.01,-0.015,-0.005,0.015,-0.005,-0.01,0.02,0.142,0.049,0.044,-0.005,-0.01
0.546,-0.02,-0.02,0.0,0.02,-0.01,-0.01,0.02,0.146,0.049,0.044,0.005,-0.015
0.548,-0.02,-0.005,0.015,0.015,-0.02,0.005,0.02,0.146,0.054,0.039,0.01,-0.015
0.55,-0.02,-0.01,0.01,0.015,-0.015,0.0,0.02,0.146,0.059,0.039,-0.02,-0.02
0.552,-0.01,-0.005,0.005,0.01,-0.01,0.0,0.02,0.151,0.063,0.049,-0.005,-0.02
0.554,-0.005,0.005,0.01,0.0,-0.01,0.005,0.02,0.156,0.068,0.054,0.0,-0.015
0.556,-0.02,0.005,0.024,0.01,-0.024,0.015,0.024,0.161,0.073,0.054,0.034,-0.01
0.558,-0.01,0.01,0.02,0.0,-0.015,0.015,0.02,0.171,0.073,0.054,0.024,-0.01
0.56,0.01,0.02,0.01,-0.015,0.0,0.015,0.02,0.176,0.073,0.059,0.005,-0.015
0.562,0.0,0.02,0.02,-0.01,-0.01,0.02,0.024,0.181,0.078,0.059,0.005,-0.005
0.564,-0.005,0.02,0.024,-0.005,-0.015,0.02,0.024,0.176,0.078,0.059,0.0,-0.01
0.566,-0.01,0.015,0.024,0.0,-0.02,0.02,0.024,0.185,0.083,0.059,0.005,-0.01
0.568,-0.015,0.015,0.029,0.0,-0.024,0.02,0.015,0.185,0.083,0.059,0.005,-0.01
0.57,0.005,0.029,0.024,-0.015,-0.01,0.024,0.01,0.19,0.093,0.054,0.0,-0.005
0.572,-0.005,0.024,0.029,-0.01,-0.02,0.024,0.015,0.185,0.088,0.054,0.015,-0.015
0.574,-0.01,0.034,0.044,-0.01,-0.029,0.039,0.015,0.19,0.098,0.059,0.005,-0.005
0.576,0.0,0.044,0.044,-0.02,-0.024,0.044,0.015,0.195,0.102,0.059,0.024,0.0
0.578,0.005,0.044,0.039,-0.024,-0.02,0.039,0.024,0.205,0.107,0.063,0.044,0.005
0.58,0.01,0.044,0.034,-0.024,-0.015,0.039,0.034,0.215,0.112,0.073,0.054,0.01
0.582,0.01,0.049,0.039,-0.029,-0.015,0.044,0.034,0.21,0.112,0.063,0.029,0.015
0.584,0.0,0.044,0.044,-0.02,-0.024,0.044,0.034,0.215,0.112,0.068,0.029,0.02
0.586,0.0,0.044,0.044,-0.02,-0.024,0.044,0.034,0.22,0.107,0.073,0.029,0.039
0.588,0.005,0.049,0.044,-0.024,-0.02,0.044,0.024,0.215,0.107,0.078,0.059,0.034
0.59,0.005,0.059,0.054,-0.029,-0.024,0.054,0.02,0.22,0.112,0.073,0.049,0.034
0.592,0.01,0.063,0.054,-0.034,-0.024,0.059,0.015,0.21,0.107,0.073,0.034,0.029
0.594,0.01,0.054,0.044,-0.029,-0.02,0.049,0.015,0.215,0.107,0.068,0.039,0.034
0.596,0.015,0.063,0.049,-0.039,-0.02,0.054,0.015,0.215,0.102,0.063,0.024,0.039
0.598,0.015,0.063,0.049,-0.039,-0.02,0.054,0.015,0.215,0.107,0.063,0.024,0.044
0.6,0.015,0.073,0.059,-0.044,-0.024,0.063,0.015,0.21,0.107,0.068,0.029,0.049
0.602,0.029,0.088,0.059,-0.059,-0.015,0.073,0.01,0.215,0.107,0.063,0.034,0.054
0.604,0.024,0.083,0.059,-0.054,-0.02,0.068,0.015,0.21,0.107,0.063,0.039,0.054
0.606,0.02,0.078,0.059,-0.049,-0.02,0.068,0.02,0.224,0.107,0.063,0.044,0.059
0.608,0.02,0.078,0.059,-0.049,-0.02,0.068,0.02,0.224,0.102,0.063,0.034,0.054
0.61,0.01,0.073,0.063,-0.039,-0.029,0.068,0.02,0.22,0.093,0.054,0.034,0.054
0.612,0.029,0.088,0.059,-0.059,-0.015,0.073,0.01,0.205,0.083,0.044,0.024,0.044
0.614,0.015,0.078,0.063,-0.044,-0.024,0.068,0.005,0.205,0.088,0.049,0.049,0.059
0.616,0.015,0.083,0.068,-0.049,-0.029,0.073,0.005,0.2,0.088,0.049,0.029,0.063
0.618,0.01,0.083,0.073,-0.044,-0.034,0.078,0.01,0.2,0.093,0.049,0.02,0.068
0.62,0.005,0.078,0.073,-0.039,-0.034,0.073,0.01,0.195,0.093,0.049,0.029,0.068
0.622,0.02,0.098,0.078,-0.059,-0.029,0.088,0.005,0.2,0.093,0.044,0.029,0.073
0.624,0.024,0.098,0.073,-0.059,-0.024,0.083,0.005,0.19,0.083,0.044,0.029,0.073
0.626,0.024,0.093,0.068,-0.059,-0.024,0.078,0.01,0.181,0.078,0.034,0.034,0.068
0.628,0.02,0.107,0.088,-0.063,-0.034,0.098,0.01,0.176,0.083,0.039,0.044,0.078
0.63,0.024,0.112,0.088,-0.068,-0.034,0.098,0.0,0.161,0.073,0.034,0.059,0.073
0.632,0.015,0.112,0.098,-0.063,-0.044,0.102,-0.005,0.151,0.063,0.029,0.059,0.073
0.634,0.005,0.112,0.107,-0.059,-0.054,0.107,-0.01,0.146,0.059,0.024,0.029,0.078
0.636,0.005,0.117,0.112,-0.059,-0.054,0.112,-0.02,0.132,0.049,0.024,0.029,0.073
0.638,0.024,0.122,0.098,-0.073,-0.039,0.107,-0.01,0.132,0.054,0.029,0.044,0.083
0.64,0.015,0.117,0.102,-0.063,-0.044,0.107,-0.005,0.122,0.054,0.029,0.049,0.088
0.642,0.0,0.112,0.112,-0.054,-0.059,0.112,-0.01,0.112,0.049,0.024,0.02,0.088
0.644,0.024,0.117,0.093,-0.068,-0.034,0.102,-0.015,0.107,0.044,0.029,0.005,0.102
0.646,0.029,0.112,0.083,-0.068,-0.029,0.098,-0.02,0.098,0.054,0.029,0.02,0.132
0.648,0.015,0.117,0.102,-0.063,-0.044,0.107,-0.005,0.098,0.063,0.049,0.063,0.151
0.65,0.024,0.117,0.093,-0.068,-0.034,0.102,-0.01,0.088,0.068,0.049,0.044,0.166
0.652,0.015,0.098,0.083,-0.054,-0.034,0.088,-0.015,0.093,0.068,0.059,0.034,0.176
0.654,0.029,0.098,0.068,-0.063,-0.02,0.083,-0.005,0.083,0.068,0.059,0.034,0.176
0.656,0.029,0.088,0.059,-0.059,-0.015,0.073,-0.01,0.068,0.059,0.054,0.024,0.171
0.658,0.034,0.078,0.044,-0.054,-0.005,0.059,-0.02,0.059,0.054,0.054,0.044,0.166
0.66,0.029,0.073,0.044,-0.049,-0.01,0.059,-0.01,0.059,0.063,0.059,0.059,0.181
0.662,0.029,0.063,0.034,-0.044,-0.005,0.049,-0.015,0.054,0.063,0.054,0.049,0.176
0.664,0.029,0.063,0.034,-0.044,-0.005,0.049,-0.015,0.044,0.054,0.054,0.039,0.166
0.666,0.029,0.063,0.034,-0.044,-0.005,0.049,-0.015,0.039,0.059,0.049,0.034,0.161
0.668,0.015,0.049,0.034,-0.029,-0.01,0.039,-0.015,0.034,0.059,0.054,0.029,0.171
0.67,0.02,0.054,0.034,-0.034,-0.01,0.044,-0.015,0.034,0.073,0.059,0.049,0.171
0.672,0.02,0.039,0.02,-0.029,0.0,0.029,-0.01,0.029,0.068,0.063,0.015,0.176
0.674,0.005,0.02,0.015,-0.01,-0.005,0.015,-0.01,0.024,0.059,0.054,0.02,0.171
0.676,0.01,0.024,0.015,-0.015,-0.005,0.02,-0.005,0.015,0.059,0.059,0.02,0.176
0.678,0.005,0.015,0.01,-0.01,-0.005,0.01,-0.005,0.02,0.059,0.054,0.024,0.181
0.68,0.0,0.0,0.0,0.0,0.0,0.0,0.0,0.02,0.054,0.049,0.024,0.185
0.682,0.0,-0.01,-0.01,0.005,0.005,-0.01,0.0,0.015,0.044,0.039,0.02,0.176
0.684,-0.02,-0.02,0.0,0.02,-0.01,-0.01,0.005,0.005,0.034,0.034,0.015,0.166
0.686,-0.02,-0.02,0.0,0.02,-0.01,-0.01,0.005,0.0,0.034,0.029,0.029,0.166
0.688,-0.015,-0.029,-0.015,0.024,0.0,-0.024,0.0,0.0,0.029,0.024,0.015,0.166
0.69,-0.005,-0.029,-0.024,0.02,0.01,-0.029,-0.005,-0.005,0.029,0.029,-0.01,0.161
0.692,-0.005,-0.024,-0.02,0.015,0.005,-0.024,0.0,-0.01,0.024,0.029,-0.02,0.161
0.694,-0.02,-0.029,-0.01,0.024,-0.005,-0.02,0.005,-0.015,0.015,0.024,-0.029,0.156
0.696,-0.024,-0.02,0.005,0.024,-0.015,-0.01,0.01,-0.015,0.02,0.02,-0.029,0.161
0.698,-0.015,-0.015,0.0,0.015,-0.01,-0.01,0.015,-0.015,0.015,0.015,-0.029,0.156
0.7,-0.024,-0.024,0.0,0.024,-0.015,-0.015,0.01,-0.024,0.005,0.01,-0.034,0.146
0.702,-0.029,-0.024,0.005,0.029,-0.02,-0.01,0.005,-0.024,0.01,0.015,-0.034,0.151
0.704,-0.034,-0.024,0.01,0.029,-0.024,-0.01,0.015,-0.02,0.02,0.029,-0.024,0.151
0.706,-0.029,-0.034,-0.005,0.034,-0.015,-0.02,0.01,-0.02,0.02,0.015,-0.029,0.142
0.708,-0.029,-0.034,-0.005,0.034,-0.015,-0.02,0.01,-0.029,0.01,0.015,-0.024,0.142
0.71,-0.029,-0.044,-0.015,0.039,-0.01,-0.029,0.01,-0.034,0.005,0.015,-0.01,0.137
0.712,-0.039,-0.044,-0.005,0.044,-0.02,-0.024,0.015,-0.039,0.0,0.005,0.0,0.132
0.714,-0.039,-0.044,-0.005,0.044,-0.02,-0.024,0.02,-0.039,0.0,0.01,-0.039,0.142
0.716,-0.034,-0.044,-0.01,0.039,-0.015,-0.029,0.02,-0.044,0.005,0.01,-0.044,0.142
0.718,-0.034,-0.039,-0.005,0.039,-0.015,-0.024,0.029,-0.034,0.015,0.02,-0.034,0.151
0.72,-0.034,-0.044,-0.01,0.039,-0.015,-0.029,0.029,-0.039,0.0,0.01,-0.02,0.142
0.722,-0.024,-0.039,-0.015,0.034,-0.005,-0.029,0.024,-0.044,-0.005,0.005,-0.024,0.142
0.724,-0.039,-0.039,0.0,0.039,-0.02,-0.02,0.029,-0.039,0.0,0.01,-0.034,0.142
0.726,-0.039,-0.044,-0.005,0.044,-0.02,-0.024,0.024,-0.044,-0.005,0.0,-0.02,0.127
0.728,-0.039,-0.039,0.0,0.039,-0.02,-0.02,0.029,-0.039,0.0,0.01,-0.005,0.132
0.73,-0.029,-0.034,-0.005,0.034,-0.015,-0.02,0.024,-0.044,-0.005,0.0,-0.02,0.127
0.732,-0.044,-0.044,0.0,0.044,-0.024,-0.024,0.029,-0.044,-0.005,0.0,-0.044,0.122
0.734,-0.039,-0.039,0.0,0.039,-0.02,-0.02,0.02,-0.049,-0.015,-0.01,-0.044,0.122
0.736,-0.029,-0.029,0.0,0.029,-0.015,-0.015,0.02,-0.054,-0.01,-0.01,-0.044,0.127
0.738,-0.029,-0.02,0.01,0.024,-0.02,-0.005,0.029,-0.049,-0.01,-0.01,-0.039,0.132
0.74,-0.02,-0.01,0.01,0.015,-0.015,0.0,0.029,-0.049,-0.01,-0.005,-0.039,0.127
0.742,-0.024,-0.024,0.0,0.024,-0.015,-0.015,0.024,-0.049,-0.01,-0.01,-0.044,0.127
0.744,-0.029,-0.024,0.005,0.029,-0.02,-0.01,0.024,-0.044,-0.01,-0.005,-0.034,0.127
0.746,-0.024,-0.029,-0.005,0.029,-0.01,-0.02,0.029,-0.044,-0.005,-0.005,-0.024,0.127
0.748,-0.039,-0.039,0.0,0.039,-0.02,-0.02,0.029,-0.044,-0.01,-0.005,-0.044,0.122
0.75,-0.034,-0.034,0.0,0.034,-0.02,-0.02,0.029,-0.049,-0.02,-0.01,-0.034,0.117
0.752,-0.029,-0.039,-0.01,0.034,-0.01,-0.024,0.029,-0.049,-0.015,-0.01,-0.049,0.112
0.754,-0.024,-0.039,-0.015,0.034,-0.005,-0.029,0.024,-0.054,-0.01,-0.01,-0.034,0.117
0.756,-0.024,-0.034,-0.01,0.029,-0.01,-0.024,0.024,-0.049,-0.015,-0.015,-0.039,0.117
0.758,-0.02,-0.029,-0.01,0.024,-0.005,-0.02,0.015,-0.049,-0.01,-0.015,-0.044,0.112
0.76,-0.01,-0.02,-0.01,0.015,0.0,-0.015,0.015,-0.039,-0.005,-0.01,-0.044,0.112
0.762,-0.01,-0.02,-0.01,0.015,0.0,-0.015,0.02,-0.044,-0.01,-0.01,-0.039,0.112
0.764,-0.02,-0.02,0.0,0.02,-0.01,-0.01,0.02,-0.044,-0.015,-0.01,-0.024,0.112
0.766,-0.015,-0.02,-0.005,0.02,-0.005,-0.015,0.02,-0.044,-0.005,-0.01,-0.024,0.112
0.768,-0.01,-0.015,-0.005,0.015,-0.005,-0.01,0.02,-0.044,-0.01,-0.005,-0.039,0.112
0.77,-0.015,-0.024,-0.01,0.02,-0.005,-0.02,0.015,-0.044,-0.005,-0.005,-0.029,0.112
0.772,-0.015,-0.024,-0.01,0.02,-0.005,-0.02,0.02,-0.039,-0.01,-0.005,-0.005,0.112
0.774,-0.02,-0.034,-0.015,0.029,-0.005,-0.024,0.02,-0.044,-0.005,-0.005,0.0,0.112
0.776,-0.024,-0.029,-0.005,0.029,-0.01,-0.02,0.024,-0.039,-0.005,0.0,-0.029,0.122
0.778,-0.024,-0.029,-0.005,0.029,-0.01,-0.02,0.02,-0.044,0.0,0.0,-0.029,0.117
0.78,-0.024,-0.039,-0.015,0.034,-0.005,-0.029,0.015,-0.044,-0.01,-0.005,-0.039,0.112
0.782,-0.024,-0.039,-0.015,0.034,-0.005,-0.029,0.02,-0.044,0.0,-0.005,-0.02,0.117
0.784,-0.024,-0.039,-0.015,0.034,-0.005,-0.029,0.015,-0.039,-0.005,0.0,-0.02,0.122
0.786,-0.02,-0.034,-0.015,0.029,-0.005,-0.024,0.015,-0.049,-0.005,-0.005,-0.029,0.122
0.788,0.0,-0.02,-0.02,0.01,0.01,-0.02,0.015,-0.039,-0.01,-0.005,-0.02,0.122
0.79,-0.01,-0.024,-0.015,0.02,0.0,-0.02,0.02,-0.039,-0.005,0.0,-0.024,0.117
0.792,-0.01,-0.02,-0.01,0.015,0.0,-0.015,0.024,-0.034,-0.005,0.0,-0.034,0.112
0.794,-0.01,-0.024,-0.015,0.02,0.0,-0.02,0.02,-0.039,-0.005,-0.005,-0.034,0.112
0.796,-0.01,-0.024,-0.015,0.02,0.0,-0.02,0.015,-0.034,0.0,0.005,-0.024,0.112
0.798,-0.005,-0.015,-0.01,0.01,0.0,-0.015,0.02,-0.029,0.015,0.015,-0.005,0.117
0.8,-0.005,-0.015,-0.01,0.01,0.0,-0.015,0.02,-0.024,0.02,0.015,-0.015,0.117
0.802,-0.01,-0.015,-0.005,0.015,-0.005,-0.01,0.01,-0.029,0.015,0.005,-0.02,0.112
0.804,-0.01,-0.02,-0.01,0.015,0.0,-0.015,0.01,-0.034,0.005,0.0,-0.015,0.107
0.806,-0.005,-0.029,-0.024,0.02,0.01,-0.029,0.02,-0.034,0.01,0.0,-0.015,0.107
0.808,-0.005,-0.024,-0.02,0.015,0.005,-0.024,0.02,-0.029,0.01,0.005,-0.01,0.107
0.81,-0.01,-0.029,-0.02,0.02,0.005,-0.024,0.024,-0.029,0.015,0.005,-0.01,0.102
0.812,-0.02,-0.034,-0.015,0.029,-0.005,-0.024,0.024,-0.029,0.015,0.005,-0.029,0.098
0.814,-0.01,-0.029,-0.02,0.02,0.005,-0.024,0.024,-0.024,0.02,0.01,-0.02,0.102
0.816,0.0,-0.024,-0.024,0.015,0.01,-0.024,0.02,-0.034,0.01,0.005,-0.024,0.098
0.818,0.0,-0.024,-0.024,0.015,0.01,-0.024,0.015,-0.024,0.01,0.01,-0.02,0.098
0.82,0.005,-0.024,-0.029,0.01,0.015,-0.029,0.015,-0.024,0.015,0.01,0.01,0.102
0.822,-0.01,-0.029,-0.02,0.02,0.005,-0.024,0.01,-0.024,0.015,0.01,-0.01,0.102
0.824,-0.005,-0.02,-0.015,0.015,0.005,-0.02,0.005,-0.024,0.01,0.01,-0.015,0.107
0.826,-0.005,-0.024,-0.02,0.015,0.005,-0.024,0.005,-0.034,0.005,0.01,-0.005,0.098
0.828,0.005,-0.024,-0.029,0.01,0.015,-0.029,0.01,-0.034,0.0,0.005,0.01,0.098
0.83,0.005,-0.024,-0.029,0.01,0.015,-0.029,0.02,-0.024,0.01,0.01,0.0,0.107
0.832,0.005,-0.029,-0.034,0.015,0.02,-0.034,0.005,-0.024,0.0,0.01,-0.02,0.102
0.834,0.01,-0.024,-0.034,0.01,0.02,-0.029,0.015,-0.024,0.005,0.005,0.0,0.098
0.836,0.005,-0.02,-0.024,0.01,0.015,-0.024,0.02,-0.024,0.005,0.0,-0.01,0.098
0.838,-0.005,-0.024,-0.02,0.015,0.005,-0.024,0.02,-0.02,0.01,0.0,-0.015,0.098
0.84,0.005,-0.024,-0.029,0.01,0.015,-0.029,0.02,-0.024,0.005,0.01,-0.015,0.098
0.842,-0.01,-0.034,-0.024,0.024,0.005,-0.029,0.015,-0.029,0.005,0.0,-0.02,0.088
0.844,0.0,-0.029,-0.029,0.015,0.015,-0.029,0.005,-0.034,-0.005,-0.005,-0.029,0.083
0.846,0.01,-0.029,-0.039,0.01,0.024,-0.034,0.01,-0.024,0.005,0.0,-0.024,0.088
0.848,-0.005,-0.034,-0.029,0.02,0.01,-0.034,0.0,-0.029,0.0,-0.005,-0.024,0.083
0.85,-0.01,-0.034,-0.024,0.024,0.005,-0.029,-0.01,-0.044,-0.01,-0.01,-0.034,0.073
0.852,-0.015,-0.024,-0.01,0.02,-0.005,-0.02,0.0,-0.039,-0.005,0.0,0.0,0.068
0.854,-0.01,-0.029,-0.02,0.02,0.005,-0.024,0.0,-0.034,-0.005,0.0,0.024,0.073
0.856,0.01,-0.02,-0.029,0.005,0.02,-0.024,-0.005,-0.034,0.0,0.0,-0.01,0.073
0.858,0.005,-0.024,-0.029,0.01,0.015,-0.029,0.0,-0.034,0.0,-0.005,0.0,0.068
0.86,-0.005,-0.029,-0.024,0.02,0.01,-0.029,-0.005,-0.034,-0.005,0.0,-0.01,0.073
0.862,-0.005,-0.029,-0.024,0.02,0.01,-0.029,0.005,-0.029,0.0,-0.005,-0.02,0.073
0.864,0.005,-0.029,-0.034,0.015,0.02,-0.034,-0.01,-0.034,-0.01,-0.015,-0.02,0.059
0.866,0.01,-0.024,-0.034,0.01,0.02,-0.029,-0.005,-0.034,-0.015,-0.02,-0.005,0.054
0.868,0.005,-0.024,-0.029,0.01,0.015,-0.029,0.0,-0.039,-0.02,-0.02,-0.034,0.054
0.87,-0.005,-0.029,-0.024,0.02,0.01,-0.029,0.005,-0.039,-0.02,-0.024,-0.02,0.054
0.872,0.0,-0.029,-0.029,0.015,0.015,-0.029,-0.01,-0.044,-0.024,-0.024,-0.024,0.054
0.874,0.01,-0.039,-0.049,0.015,0.029,-0.044,-0.005,-0.049,-0.029,-0.024,-0.034,0.054
0.876,0.01,-0.029,-0.039,0.01,0.024,-0.034,-0.01,-0.049,-0.024,-0.02,-0.02,0.059
0.878,0.01,-0.024,-0.034,0.01,0.02,-0.029,-0.005,-0.044,-0.02,-0.02,-0.024,0.054
0.88,0.005,-0.029,-0.034,0.015,0.02,-0.034,-0.01,-0.044,-0.02,-0.015,-0.01,0.054
0.882,-0.005,-0.029,-0.024,0.02,0.01,-0.029,0.0,-0.034,-0.01,-0.01,0.01,0.054
0.884,0.0,-0.024,-0.024,0.015,0.01,-0.024,-0.005,-0.034,-0.015,-0.015,-0.039,0.049
0.886,0.01,-0.029,-0.039,0.01,0.024,-0.034,-0.015,-0.044,-0.024,-0.024,-0.039,0.034
0.888,0.0,-0.034,-0.034,0.02,0.015,-0.034,-0.005,-0.044,-0.024,-0.024,-0.039,0.039
0.89,-0.01,-0.039,-0.029,0.024,0.01,-0.034,-0.01,-0.044,-0.024,-0.029,-0.049,0.034
0.892,-0.015,-0.034,-0.02,0.024,0.0,-0.029,-0.01,-0.049,-0.024,-0.024,-0.044,0.034
0.894,0.005,-0.034,-0.039,0.015,0.02,-0.039,-0.015,-0.054,-0.024,-0.034,-0.049,0.029
0.896,0.0,-0.034,-0.034,0.02,0.015,-0.034,-0.024,-0.054,-0.029,-0.034,-0.049,0.024
0.898,0.0,-0.029,-0.029,0.015,0.015,-0.029,-0.02,-0.044,-0.02,-0.029,-0.044,0.029
0.9,0.005,-0.034,-0.039,0.015,0.02,-0.039,-0.02,-0.049,-0.024,-0.029,-0.034,0.029
0.902,0.0,-0.029,-0.029,0.015,0.015,-0.029,-0.015,-0.054,-0.029,-0.034,-0.024,0.024
0.904,0.0,-0.024,-0.024,0.015,0.01,-0.024,-0.01,-0.044,-0.029,-0.029,-0.029,0.024
0.906,-0.01,-0.034,-0.024,0.024,0.005,-0.029,-0.01,-0.044,-0.029,-0.029,-0.044,0.02
0.908,-0.015,-0.044,-0.029,0.029,0.005,-0.039,-0.01,-0.044,-0.029,-0.034,-0.044,0.02
0.91,-0.005,-0.039,-0.034,0.024,0.015,-0.039,-0.01,-0.044,-0.029,-0.049,-0.049,0.024
0.912,-0.005,-0.054,-0.049,0.029,0.02,-0.054,-0.015,-0.049,-0.044,-0.049,-0.044,0.02
0.914,-0.005,-0.044,-0.039,0.024,0.015,-0.044,-0.015,-0.054,-0.039,-0.049,-0.029,0.01
0.916,-0.01,-0.039,-0.029,0.024,0.01,-0.034,-0.01,-0.054,-0.044,-0.054,-0.044,0.005
0.918,-0.01,-0.039,-0.029,0.024,0.01,-0.034,-0.02,-0.059,-0.039,-0.054,-0.044,0.0
0.92,0.005,-0.039,-0.044,0.02,0.024,-0.044,-0.034,-0.063,-0.049,-0.054,-0.039,0.005
0.922,-0.005,-0.029,-0.024,0.02,0.01,-0.029,-0.029,-0.059,-0.044,-0.054,-0.039,0.005
0.924,-0.005,-0.024,-0.02,0.015,0.005,-0.024,-0.029,-0.059,-0.049,-0.054,-0.049,0.0
0.926,0.01,-0.024,-0.034,0.01,0.02,-0.029,-0.024,-0.059,-0.044,-0.059,-0.054,-0.01
0.928,0.01,-0.029,-0.039,0.01,0.024,-0.034,-0.024,-0.054,-0.049,-0.059,-0.059,-0.015
0.93,-0.005,-0.024,-0.02,0.015,0.005,-0.024,-0.024,-0.054,-0.049,-0.063,-0.068,-0.005
0.932,-0.005,-0.039,-0.034,0.024,0.015,-0.039,-0.02,-0.059,-0.054,-0.059,-0.073,-0.01
0.934,-0.015,-0.039,-0.024,0.029,0.005,-0.034,-0.02,-0.059,-0.044,-0.059,-0.049,-0.02
0.936,0.0,-0.039,-0.039,0.02,0.02,-0.039,-0.015,-0.054,-0.044,-0.054,-0.049,-0.01
0.938,-0.005,-0.044,-0.039,0.024,0.015,-0.044,-0.01,-0.054,-0.039,-0.054,-0.059,-0.01
0.94,-0.005,-0.049,-0.044,0.029,0.02,-0.049,-0.01,-0.059,-0.044,-0.049,-0.054,-0.005
0.942,0.0,-0.044,-0.044,0.024,0.02,-0.044,-0.02,-0.059,-0.044,-0.054,-0.049,-0.01
0.944,-0.01,-0.044,-0.034,0.029,0.01,-0.039,-0.015,-0.054,-0.044,-0.049,-0.039,-0.005
0.946,-0.005,-0.039,-0.034,0.024,0.015,-0.039,-0.015,-0.059,-0.049,-0.059,-0.024,-0.01
0.948,-0.005,-0.034,-0.029,0.02,0.01,-0.034,-0.015,-0.059,-0.049,-0.059,-0.029,-0.015
0.95,-0.01,-0.039,-0.029,0.024,0.01,-0.034,-0.02,-0.059,-0.049,-0.063,-0.034,-0.015
0.952,0.01,-0.024,-0.034,0.01,0.02,-0.029,-0.02,-0.054,-0.049,-0.063,-0.049,-0.015
0.954,0.005,-0.024,-0.029,0.01,0.015,-0.029,-0.02,-0.059,-0.044,-0.063,-0.054,-0.02
0.956,0.0,-0.024,-0.024,0.015,0.01,-0.024,-0.015,-0.054,-0.044,-0.049,-0.034,-0.01
0.958,0.01,-0.029,-0.039,0.01,0.024,-0.034,-0.015,-0.054,-0.039,-0.054,-0.039,-0.015
0.96,-0.01,-0.034,-0.024,0.024,0.005,-0.029,-0.015,-0.059,-0.044,-0.054,-0.02,-0.02
0.962,0.0,-0.034,-0.034,0.02,0.015,-0.034,-0.015,-0.059,-0.049,-0.063,-0.044,-0.024
0.964,0.005,-0.034,-0.039,0.015,0.02,-0.039,-0.01,-0.059,-0.054,-0.063,-0.063,-0.02
0.966,0.01,-0.034,-0.044,0.015,0.024,-0.039,-0.01,-0.054,-0.049,-0.063,-0.034,-0.015
0.968,0.01,-0.029,-0.039,0.01,0.024,-0.034,-0.01,-0.059,-0.054,-0.059,-0.02,-0.02
0.97,0.01,-0.034,-0.044,0.015,0.024,-0.039,-0.015,-0.059,-0.049,-0.059,-0.01,-0.02
0.972,0.01,-0.029,-0.039,0.01,0.024,-0.034,-0.015,-0.059,-0.054,-0.059,-0.029,-0.02
0.974,0.02,-0.02,-0.039,0.0,0.029,-0.029,-0.015,-0.059,-0.049,-0.059,-0.039,-0.02
0.976,0.01,-0.029,-0.039,0.01,0.024,-0.034,-0.02,-0.059,-0.059,-0.063,-0.054,-0.029
0.978,0.015,-0.034,-0.049,0.01,0.029,-0.044,-0.024,-0.059,-0.049,-0.059,-0.054,-0.029
0.98,0.015,-0.029,-0.044,0.01,0.029,-0.039,-0.02,-0.049,-0.049,-0.054,-0.039,-0.029
0.982,0.02,-0.024,-0.044,0.005,0.029,-0.034,-0.01,-0.044,-0.044,-0.054,-0.044,-0.034
0.984,0.015,-0.01,-0.024,0.0,0.02,-0.02,-0.005,-0.034,-0.044,-0.049,-0.044,-0.029
0.986,0.01,-0.015,-0.024,0.005,0.015,-0.02,-0.005,-0.029,-0.039,-0.054,-0.049,-0.029
0.988,0.029,-0.01,-0.039,-0.01,0.034,-0.024,-0.005,-0.029,-0.039,-0.049,-0.049,-0.029
0.99,0.034,0.005,-0.029,-0.02,0.029,-0.015,-0.005,-0.024,-0.039,-0.049,-0.054,-0.034
0.992,0.034,0.005,-0.029,-0.02,0.029,-0.015,-0.005,-0.024,-0.039,-0.034,-0.044,-0.034
0.994,0.039,0.01,-0.029,-0.024,0.034,-0.01,0.005,-0.02,-0.029,-0.024,-0.034,-0.029
0.996,0.044,0.02,-0.024,-0.029,0.034,-0.005,0.01,-0.01,-0.029,-0.034,-0.044,-0.029
0.998,0.054,0.024,-0.029,-0.039,0.039,-0.005,0.015,0.0,-0.02,-0.029,-0.029,-0.02
1.0,0.059,0.034,-0.024,-0.044,0.039,0.005,0.01,0.005,-0.015,-0.02,-0.015,-0.01
1.002,0.054,0.024,-0.029,-0.039,0.039,-0.005,0.015,0.005,-0.01,-0.02,0.0,-0.015
1.004,0.063,0.029,-0.034,-0.044,0.049,-0.005,0.01,0.015,-0.005,-0.01,0.005,-0.01
1.006,0.068,0.034,-0.034,-0.049,0.049,0.0,0.005,0.015,-0.005,-0.01,0.0,-0.015
1.008,0.068,0.034,-0.034,-0.049,0.049,0.0,0.0,0.02,0.0,-0.005,-0.015,-0.005
1.01,0.073,0.029,-0.044,-0.049,0.059,-0.01,0.0,0.029,0.005,0.0,-0.01,-0.005
1.012,0.083,0.029,-0.054,-0.054,0.068,-0.015,0.0,0.034,0.01,0.005,-0.01,0.0
1.014,0.083,0.044,-0.039,-0.063,0.059,0.0,0.005,0.059,0.039,0.024,0.015,0.015
1.016,0.098,0.068,-0.029,-0.083,0.063,0.02,0.015,0.073,0.044,0.034,0.029,0.029
1.018,0.098,0.073,-0.024,-0.083,0.059,0.024,0.015,0.078,0.054,0.039,0.054,0.034
1.02,0.098,0.083,-0.015,-0.088,0.054,0.034,0.02,0.078,0.054,0.044,0.063,0.039
1.022,0.107,0.088,-0.02,-0.098,0.063,0.034,0.01,0.078,0.059,0.044,0.073,0.044
1.024,0.102,0.088,-0.015,-0.093,0.059,0.034,-0.005,0.063,0.059,0.039,0.073,0.044
1.026,0.102,0.083,-0.02,-0.093,0.059,0.029,-0.005,0.059,0.054,0.044,0.049,0.049
1.028,0.098,0.078,-0.02,-0.088,0.059,0.029,-0.024,0.044,0.039,0.029,0.063,0.039
1.03,0.093,0.078,-0.015,-0.083,0.054,0.029,-0.024,0.029,0.029,0.024,0.039,0.029
1.032,0.102,0.073,-0.029,-0.088,0.063,0.02,-0.029,0.029,0.02,0.02,0.044,0.02
1.034,0.098,0.068,-0.029,-0.083,0.063,0.02,-0.029,0.024,0.024,0.015,0.049,0.01
1.036,0.098,0.073,-0.024,-0.083,0.059,0.024,-0.024,0.034,0.029,0.024,0.054,0.02
1.038,0.112,0.059,-0.054,-0.083,0.083,0.0,-0.029,0.029,0.024,0.02,0.024,0.01
1.04,0.102,0.044,-0.059,-0.073,0.078,-0.01,-0.039,0.01,0.01,0.0,0.02,-0.005
1.042,0.107,0.044,-0.063,-0.073,0.083,-0.01,-0.029,0.005,0.0,-0.005,0.02,-0.01
1.044,0.107,0.034,-0.073,-0.068,0.088,-0.02,-0.034,0.0,-0.01,-0.015,0.005,-0.02
1.046,0.098,0.02,-0.078,-0.059,0.088,-0.029,-0.034,-0.015,-0.024,-0.029,0.0,-0.029
1.048,0.093,0.015,-0.078,-0.054,0.083,-0.034,-0.034,-0.024,-0.034,-0.039,-0.01,-0.034
1.05,0.088,0.02,-0.068,-0.054,0.078,-0.024,-0.024,-0.015,-0.024,-0.029,0.0,-0.029
1.052,0.083,0.034,-0.049,-0.059,0.063,-0.01,-0.015,-0.005,-0.015,-0.024,0.0,-0.02
1.054,0.068,0.024,-0.044,-0.044,0.054,-0.01,-0.02,-0.01,-0.024,-0.029,-0.015,-0.029
1.056,0.059,0.02,-0.039,-0.039,0.049,-0.01,-0.029,-0.024,-0.034,-0.039,-0.02,-0.044
1.058,0.063,0.015,-0.049,-0.039,0.054,-0.02,-0.024,-0.029,-0.039,-0.044,-0.01,-0.054
1.06,0.054,0.005,-0.049,-0.029,0.049,-0.024,-0.024,-0.029,-0.039,-0.044,-0.005,-0.049
1.062,0.044,0.0,-0.044,-0.02,0.044,-0.024,-0.015,-0.029,-0.049,-0.049,-0.02,-0.059
1.064,0.059,-0.005,-0.063,-0.024,0.059,-0.034,-0.015,-0.034,-0.054,-0.059,-0.039,-0.073
1.066,0.044,-0.015,-0.059,-0.015,0.049,-0.039,-0.01,-0.034,-0.059,-0.068,-0.049,-0.083
1.068,0.039,-0.015,-0.054,-0.01,0.044,-0.034,-0.015,-0.039,-0.063,-0.073,-0.049,-0.083
1.07,0.029,-0.024,-0.054,0.0,0.039,-0.039,-0.015,-0.054,-0.078,-0.093,-0.034,-0.102
1.072,0.029,-0.029,-0.059,0.0,0.044,-0.044,-0.015,-0.059,-0.083,-0.093,-0.039,-0.102
1.074,0.034,-0.029,-0.063,0.0,0.049,-0.049,-0.02,-0.063,-0.088,-0.098,-0.059,-0.102
1.076,0.034,-0.029,-0.063,0.0,0.049,-0.049,-0.024,-0.068,-0.088,-0.102,-0.073,-0.102
1.078,0.024,-0.034,-0.059,0.005,0.039,-0.049,-0.024,-0.073,-0.088,-0.107,-0.063,-0.112
1.08,0.029,-0.029,-0.059,0.0,0.044,-0.044,-0.015,-0.059,-0.083,-0.098,-0.059,-0.102
1.082,0.024,-0.029,-0.054,0.005,0.039,-0.044,-0.015,-0.063,-0.088,-0.102,-0.054,-0.112
1.084,0.034,-0.024,-0.059,-0.005,0.044,-0.044,-0.005,-0.063,-0.083,-0.102,-0.054,-0.112
1.086,0.029,-0.024,-0.054,0.0,0.039,-0.039,-0.005,-0.068,-0.083,-0.107,-0.083,-0.107
1.088,0.024,-0.024,-0.049,0.0,0.034,-0.039,-0.005,-0.063,-0.083,-0.102,-0.034,-0.107
1.09,0.039,-0.02,-0.059,-0.01,0.049,-0.039,-0.01,-0.068,-0.088,-0.112,-0.029,-0.122
1.092,0.034,-0.029,-0.063,0.0,0.049,-0.049,-0.01,-0.063,-0.088,-0.112,-0.078,-0.122
1.094,0.034,-0.029,-0.063,0.0,0.049,-0.049,-0.02,-0.068,-0.093,-0.122,-0.088,-0.132
1.096,0.029,-0.024,-0.054,0.0,0.039,-0.039,-0.015,-0.068,-0.093,-0.117,-0.083,-0.132
1.098,0.024,-0.029,-0.054,0.005,0.039,-0.044,-0.015,-0.073,-0.093,-0.117,-0.083,-0.137
1.1,0.029,-0.029,-0.059,0.0,0.044,-0.044,-0.015,-0.073,-0.093,-0.112,-0.063,-0.127
1.102,0.024,-0.029,-0.054,0.005,0.039,-0.044,-0.01,-0.073,-0.098,-0.112,-0.063,-0.132
1.104,0.024,-0.02,-0.044,0.0,0.034,-0.034,-0.015,-0.083,-0.102,-0.117,-0.088,-0.137
1.106,0.029,-0.015,-0.044,-0.005,0.034,-0.029,-0.015,-0.073,-0.093,-0.112,-0.073,-0.132
1.108,0.034,-0.024,-0.059,-0.005,0.044,-0.044,-0.02,-0.083,-0.093,-0.112,-0.078,-0.137
1.11,0.034,-0.024,-0.059,-0.005,0.044,-0.044,-0.015,-0.078,-0.098,-0.122,-0.093,-0.137
1.112,0.039,-0.02,-0.059,-0.01,0.049,-0.039,-0.015,-0.073,-0.102,-0.132,-0.093,-0.137
1.114,0.034,-0.024,-0.059,-0.005,0.044,-0.044,-0.015,-0.078,-0.098,-0.137,-0.098,-0.142
1.116,0.029,-0.024,-0.054,0.0,0.039,-0.039,-0.015,-0.073,-0.098,-0.132,-0.093,-0.137
1.118,0.029,-0.024,-0.054,0.0,0.039,-0.039,-0.024,-0.078,-0.098,-0.122,-0.044,-0.127
1.12,0.029,-0.029,-0.059,0.0,0.044,-0.044,-0.029,-0.073,-0.098,-0.117,-0.005,-0.127
1.122,0.029,-0.029,-0.059,0.0,0.044,-0.044,-0.024,-0.073,-0.098,-0.122,-0.024,-0.137
1.124,0.02,-0.039,-0.059,0.01,0.039,-0.049,-0.02,-0.068,-0.102,-0.127,-0.034,-0.142
1.126,0.015,-0.059,-0.073,0.024,0.044,-0.068,-0.005,-0.059,-0.102,-0.137,-0.049,-0.151
1.128,0.01,-0.059,-0.068,0.024,0.039,-0.063,0.015,-0.049,-0.102,-0.146,-0.068,-0.166
1.13,-0.01,-0.063,-0.054,0.039,0.02,-0.059,0.034,-0.039,-0.107,-0.156,-0.088,-0.19
1.132,-0.029,-0.078,-0.049,0.054,0.01,-0.063,0.063,-0.01,-0.107,-0.166,-0.102,-0.21
1.134,-0.029,-0.098,-0.068,0.063,0.02,-0.083,0.083,0.024,-0.098,-0.19,-0.112,-0.254
1.136,-0.044,-0.102,-0.059,0.073,0.005,-0.083,0.112,0.083,-0.073,-0.185,-0.073,-0.273
1.138,-0.039,-0.088,-0.049,0.063,0.005,-0.068,0.132,0.161,-0.024,-0.146,-0.117,-0.254
1.14,-0.01,-0.073,-0.063,0.044,0.024,-0.068,0.142,0.239,0.039,-0.093,-0.059,-0.215
1.142,0.034,-0.049,-0.083,0.01,0.059,-0.068,0.146,0.317,0.102,-0.034,-0.024,-0.176
1.144,0.083,-0.054,-0.137,-0.015,0.107,-0.098,0.146,0.39,0.156,0.01,0.005,-0.146
1.146,0.112,-0.054,-0.166,-0.029,0.137,-0.112,0.137,0.429,0.215,0.063,0.068,-0.093
1.148,0.185,-0.02,-0.205,-0.083,0.195,-0.112,0.098,0.39,0.254,0.151,0.19,0.005
1.15,0.278,0.029,-0.249,-0.151,0.264,-0.112,0.015,0.288,0.288,0.234,0.307,0.093
1.152,0.371,0.107,-0.264,-0.239,0.317,-0.078,-0.073,0.2,0.366,0.371,0.464,0.239
1.154,0.473,0.205,-0.268,-0.337,0.371,-0.034,-0.176,0.107,0.444,0.527,0.644,0.405
1.156,0.566,0.303,-0.264,-0.434,0.415,0.02,-0.283,-0.005,0.512,0.669,0.83,0.561
1.158,0.634,0.434,-0.2,-0.532,0.415,0.117,-0.361,-0.049,0.625,0.849,1.03,0.747
1.16,0.708,0.586,-0.122,-0.644,0.415,0.229,-0.434,-0.083,0.737,1.015,1.225,0.932
1.162,0.756,0.717,-0.039,-0.737,0.395,0.337,-0.522,-0.132,0.82,1.171,1.386,1.103
1.164,0.766,0.864,0.098,-0.815,0.332,0.478,-0.59,-0.166,0.908,1.313,1.532,1.244
1.166,0.732,0.937,0.205,-0.834,0.264,0.571,-0.63,-0.176,0.996,1.43,1.649,1.342
1.168,0.683,0.986,0.303,-0.834,0.19,0.644,-0.678,-0.229,1.025,1.493,1.728,1.396
1.17,0.581,1.005,0.425,-0.791,0.078,0.712,-0.703,-0.371,0.927,1.44,1.674,1.376
1.172,0.434,0.927,0.493,-0.678,-0.029,0.708,-0.703,-0.571,0.683,1.2,1.449,1.21
1.174,0.273,0.82,0.547,-0.547,-0.137,0.683,-0.683,-0.82,0.268,0.776,1.074,0.917
1.176,0.098,0.659,0.561,-0.376,-0.234,0.61,-0.659,-1.127,-0.298,0.161,0.522,0.517
1.178,-0.029,0.468,0.498,-0.22,-0.264,0.483,-0.62,-1.313,-0.722,-0.322,0.063,0.161
1.18,-0.102,0.337,0.439,-0.117,-0.273,0.386,-0.571,-1.347,-0.927,-0.595,-0.22,-0.068
1.182,-0.122,0.259,0.381,-0.068,-0.254,0.317,-0.517,-1.288,-0.956,-0.664,-0.312,-0.176
1.184,-0.127,0.185,0.312,-0.029,-0.22,0.249,-0.454,-1.137,-0.874,-0.63,-0.288,-0.215
1.186,-0.127,0.142,0.268,-0.005,-0.2,0.205,-0.41,-0.981,-0.766,-0.571,-0.273,-0.234
1.188,-0.107,0.088,0.195,0.01,-0.151,0.142,-0.371,-0.839,-0.669,-0.508,-0.273,-0.234
1.19,-0.078,0.068,0.146,0.005,-0.112,0.107,-0.322,-0.698,-0.561,-0.439,-0.239,-0.234
1.192,-0.044,0.044,0.088,0.0,-0.068,0.063,-0.268,-0.576,-0.468,-0.381,-0.181,-0.215
1.194,-0.034,0.029,0.063,0.005,-0.049,0.044,-0.215,-0.473,-0.39,-0.322,-0.151,-0.2
1.196,-0.029,0.024,0.054,0.005,-0.044,0.039,-0.161,-0.376,-0.312,-0.268,-0.142,-0.19
1.198,-0.024,0.029,0.054,0.0,-0.039,0.039,-0.127,-0.312,-0.264,-0.239,-0.117,-0.181
1.2,-0.015,0.034,0.049,-0.01,-0.034,0.039,-0.093,-0.249,-0.21,-0.21,-0.083,-0.166
1.202,-0.005,0.049,0.054,-0.02,-0.029,0.049,-0.059,-0.195,-0.181,-0.181,-0.083,-0.142
1.204,0.0,0.039,0.039,-0.02,-0.02,0.039,-0.044,-0.166,-0.156,-0.171,-0.073,-0.161
1.206,-0.005,0.029,0.034,-0.01,-0.02,0.029,-0.029,-0.127,-0.137,-0.156,-0.054,-0.156
1.208,-0.015,0.015,0.029,0.0,-0.024,0.02,-0.015,-0.112,-0.122,-0.146,-0.044,-0.151
1.21,0.005,0.01,0.005,-0.005,0.0,0.005,-0.015,-0.112,-0.122,-0.156,-0.049,-0.166
1.212,0.01,-0.005,-0.015,0.0,0.01,-0.01,0.0,-0.088,-0.098,-0.137,-0.044,-0.156
1.214,0.015,-0.01,-0.024,0.0,0.02,-0.02,0.0,-0.073,-0.093,-0.127,-0.029,-0.146
1.216,0.015,-0.005,-0.02,-0.005,0.015,-0.015,0.0,-0.078,-0.093,-0.137,-0.049,-0.151
1.218,0.015,-0.005,-0.02,-0.005,0.015,-0.015,0.0,-0.068,-0.088,-0.127,-0.059,-0.151
1.22,0.015,-0.005,-0.02,-0.005,0.015,-0.015,0.005,-0.059,-0.088,-0.127,-0.044,-0.156
1.222,0.01,0.005,-0.005,-0.005,0.005,0.0,0.02,-0.049,-0.093,-0.122,0.0,-0.156
1.224,0.015,-0.015,-0.029,0.0,0.02,-0.024,0.02,-0.044,-0.088,-0.127,-0.01,-0.166
1.226,0.0,-0.02,-0.02,0.01,0.01,-0.02,0.02,-0.054,-0.088,-0.132,-0.039,-0.171
1.228,0.01,-0.02,-0.029,0.005,0.02,-0.024,0.024,-0.044,-0.083,-0.127,-0.029,-0.161
1.23,0.015,-0.024,-0.039,0.005,0.024,-0.034,0.02,-0.044,-0.083,-0.122,-0.049,-0.166
1.232,0.024,-0.024,-0.049,0.0,0.034,-0.039,0.024,-0.034,-0.073,-0.112,-0.054,-0.151
1.234,0.029,-0.02,-0.049,-0.005,0.039,-0.034,0.024,-0.034,-0.068,-0.102,-0.049,-0.137
1.236,0.015,-0.024,-0.039,0.005,0.024,-0.034,0.024,-0.029,-0.073,-0.112,-0.059,-0.156
1.238,0.02,-0.02,-0.039,0.0,0.029,-0.029,0.029,-0.024,-0.059,-0.107,-0.039,-0.156
1.24,0.024,-0.02,-0.044,0.0,0.034,-0.034,0.02,-0.024,-0.063,-0.107,-0.049,-0.151
1.242,0.02,-0.015,-0.034,0.0,0.024,-0.024,0.024,-0.029,-0.059,-0.098,-0.049,-0.146
1.244,0.029,-0.01,-0.039,-0.01,0.034,-0.024,0.029,-0.02,-0.054,-0.102,-0.049,-0.151
1.246,0.024,-0.02,-0.044,0.0,0.034,-0.034,0.029,-0.02,-0.049,-0.102,-0.039,-0.156
1.248,0.024,-0.02,-0.044,0.0,0.034,-0.034,0.034,-0.015,-0.044,-0.098,-0.02,-0.151
1.25,0.034,-0.01,-0.044,-0.01,0.039,-0.029,0.039,-0.015,-0.044,-0.093,-0.029,-0.151
1.252,0.034,-0.015,-0.049,-0.01,0.039,-0.034,0.024,-0.015,-0.044,-0.102,-0.029,-0.156
1.254,0.039,-0.01,-0.049,-0.015,0.044,-0.029,0.024,-0.01,-0.034,-0.083,-0.01,-0.146
1.256,0.029,-0.015,-0.044,-0.005,0.034,-0.029,0.024,-0.015,-0.039,-0.093,-0.024,-0.151
1.258,0.034,-0.015,-0.049,-0.01,0.039,-0.034,0.02,-0.02,-0.044,-0.093,-0.044,-0.161
1.26,0.039,-0.005,-0.044,-0.015,0.039,-0.024,0.024,-0.015,-0.049,-0.093,-0.024,-0.156
1.262,0.024,-0.015,-0.039,-0.005,0.029,-0.029,0.029,-0.01,-0.044,-0.088,-0.01,-0.161
1.264,0.02,-0.02,-0.039,0.0,0.029,-0.029,0.029,-0.01,-0.044,-0.098,-0.034,-0.156
1.266,0.02,-0.02,-0.039,0.0,0.029,-0.029,0.034,-0.01,-0.039,-0.088,-0.039,-0.156
1.268,0.015,-0.02,-0.034,0.005,0.024,-0.029,0.029,-0.01,-0.034,-0.088,-0.054,-0.156
1.27,0.034,-0.01,-0.044,-0.01,0.039,-0.029,0.029,-0.005,-0.034,-0.083,-0.044,-0.161
1.272,0.034,-0.01,-0.044,-0.01,0.039,-0.029,0.029,-0.005,-0.034,-0.078,-0.039,-0.156
1.274,0.034,-0.01,-0.044,-0.01,0.039,-0.029,0.029,-0.01,-0.039,-0.078,-0.029,-0.146
1.276,0.039,-0.005,-0.044,-0.015,0.039,-0.024,0.02,-0.01,-0.044,-0.083,-0.034,-0.156
1.278,0.024,-0.01,-0.034,-0.005,0.029,-0.024,0.029,-0.005,-0.039,-0.088,-0.039,-0.161
1.28,0.029,-0.005,-0.034,-0.01,0.029,-0.02,0.029,-0.005,-0.044,-0.093,-0.054,-0.161
1.282,0.034,-0.005,-0.039,-0.015,0.034,-0.024,0.024,-0.01,-0.049,-0.093,-0.049,-0.171
1.284,0.015,-0.015,-0.029,0.0,0.02,-0.024,0.024,-0.005,-0.039,-0.093,-0.034,-0.185
1.286,0.024,-0.01,-0.034,-0.005,0.029,-0.024,0.024,-0.01,-0.029,-0.083,-0.049,-0.181
1.288,0.034,0.0,-0.034,-0.015,0.034,-0.02,0.02,-0.01,-0.039,-0.093,-0.059,-0.166
1.29,0.039,0.0,-0.039,-0.02,0.039,-0.02,0.024,-0.01,-0.034,-0.083,-0.054,-0.181
1.292,0.049,0.0,-0.049,-0.024,0.049,-0.024,0.024,-0.005,-0.029,-0.078,-0.054,-0.171
1.294,0.044,-0.005,-0.049,-0.02,0.044,-0.029,0.029,-0.005,-0.029,-0.078,-0.044,-0.161
1.296,0.039,0.0,-0.039,-0.02,0.039,-0.02,0.034,0.005,-0.029,-0.073,-0.034,-0.166
1.298,0.044,0.0,-0.044,-0.02,0.044,-0.024,0.034,0.01,-0.02,-0.068,-0.034,-0.156
1.3,0.044,-0.005,-0.049,-0.02,0.044,-0.029,0.034,0.015,-0.024,-0.073,-0.039,-0.161
1.302,0.039,0.0,-0.039,-0.02,0.039,-0.02,0.044,0.005,-0.029,-0.073,-0.024,-0.161
1.304,0.034,-0.005,-0.039,-0.015,0.034,-0.024,0.039,0.01,-0.024,-0.078,-0.024,-0.166
1.306,0.034,-0.01,-0.044,-0.01,0.039,-0.029,0.034,0.005,-0.024,-0.078,-0.034,-0.161
1.308,0.029,-0.005,-0.034,-0.01,0.029,-0.02,0.044,0.01,-0.02,-0.073,-0.02,-0.166
1.31,0.024,-0.005,-0.029,-0.01,0.024,-0.02,0.039,0.01,-0.015,-0.068,-0.029,-0.166
1.312,0.034,0.0,-0.034,-0.015,0.034,-0.02,0.044,0.02,-0.005,-0.063,-0.034,-0.151
1.314,0.049,0.0,-0.049,-0.024,0.049,-0.024,0.034,0.015,-0.01,-0.068,-0.034,-0.151
1.316,0.049,0.005,-0.044,-0.024,0.044,-0.02,0.034,0.015,-0.015,-0.068,-0.044,-0.161
1.318,0.039,0.01,-0.029,-0.024,0.034,-0.01,0.039,0.02,-0.01,-0.078,-0.044,-0.161
1.32,0.034,0.01,-0.024,-0.02,0.029,-0.01,0.039,0.02,-0.01,-0.073,-0.044,-0.161
1.322,0.024,0.01,-0.015,-0.015,0.02,-0.005,0.034,0.015,-0.015,-0.073,-0.034,-0.171
1.324,0.034,0.015,-0.02,-0.024,0.024,-0.005,0.024,0.02,-0.01,-0.073,-0.039,-0.181
1.326,0.024,0.005,-0.02,-0.015,0.02,-0.01,0.034,0.024,-0.01,-0.068,-0.034,-0.166
1.328,0.034,0.01,-0.024,-0.02,0.029,-0.01,0.034,0.024,-0.01,-0.068,-0.044,-0.166
1.33,0.039,0.01,-0.029,-0.024,0.034,-0.01,0.044,0.029,0.0,-0.063,-0.039,-0.161
1.332,0.039,0.0,-0.039,-0.02,0.039,-0.02,0.029,0.029,0.0,-0.063,-0.044,-0.161
1.334,0.044,0.0,-0.044,-0.02,0.044,-0.024,0.039,0.034,0.01,-0.054,-0.024,-0.146
1.336,0.044,0.005,-0.039,-0.024,0.039,-0.02,0.044,0.044,0.01,-0.049,-0.024,-0.146
1.338,0.044,0.005,-0.039,-0.024,0.039,-0.02,0.044,0.049,0.015,-0.049,0.01,-0.142
1.34,0.039,0.0,-0.039,-0.02,0.039,-0.02,0.049,0.049,0.015,-0.049,0.005,-0.146
1.342,0.044,0.005,-0.039,-0.024,0.039,-0.02,0.049,0.049,0.01,-0.054,-0.029,-0.146
1.344,0.044,0.005,-0.039,-0.024,0.039,-0.02,0.039,0.054,0.015,-0.049,-0.024,-0.146
1.346,0.039,0.0,-0.039,-0.02,0.039,-0.02,0.029,0.039,0.01,-0.054,-0.029,-0.151
1.348,0.044,0.0,-0.044,-0.02,0.044,-0.024,0.029,0.044,0.015,-0.049,-0.039,-0.151
1.35,0.039,0.005,-0.034,-0.02,0.034,-0.015,0.039,0.049,0.024,-0.049,-0.034,-0.146
1.352,0.039,0.0,-0.039,-0.02,0.039,-0.02,0.039,0.054,0.024,-0.049,-0.034,-0.151
1.354,0.039,0.0,-0.039,-0.02,0.039,-0.02,0.034,0.054,0.024,-0.049,-0.034,-0.151
1.356,0.044,0.01,-0.034,-0.024,0.039,-0.015,0.044,0.059,0.024,-0.044,-0.02,-0.146
1.358,0.034,0.005,-0.029,-0.02,0.029,-0.015,0.039,0.063,0.024,-0.044,-0.029,-0.146
1.36,0.044,0.015,-0.029,-0.029,0.034,-0.01,0.044,0.068,0.029,-0.034,-0.024,-0.142
1.362,0.044,0.02,-0.024,-0.029,0.034,-0.005,0.039,0.063,0.024,-0.039,-0.029,-0.146
1.364,0.039,0.015,-0.024,-0.024,0.029,-0.005,0.039,0.063,0.024,-0.049,-0.02,-0.151
1.366,0.044,0.015,-0.029,-0.029,0.034,-0.01,0.039,0.078,0.034,-0.044,0.0,-0.142
1.368,0.044,0.02,-0.024,-0.029,0.034,-0.005,0.039,0.083,0.034,-0.039,0.0,-0.146
1.37,0.039,0.015,-0.024,-0.024,0.029,-0.005,0.034,0.078,0.034,-0.039,-0.024,-0.142
1.372,0.049,0.01,-0.039,-0.029,0.044,-0.015,0.039,0.088,0.039,-0.034,-0.01,-0.142
1.374,0.039,0.015,-0.024,-0.024,0.029,-0.005,0.034,0.083,0.039,-0.034,-0.024,-0.137
1.376,0.039,0.024,-0.015,-0.029,0.024,0.005,0.044,0.093,0.044,-0.029,-0.01,-0.132
1.378,0.034,0.024,-0.01,-0.029,0.02,0.005,0.034,0.098,0.044,-0.029,-0.015,-0.132
1.38,0.044,0.029,-0.015,-0.034,0.029,0.005,0.039,0.102,0.044,-0.024,0.0,-0.142
1.382,0.044,0.039,-0.005,-0.039,0.024,0.015,0.039,0.102,0.039,-0.029,0.0,-0.142
1.384,0.034,0.029,-0.005,-0.029,0.02,0.01,0.049,0.112,0.054,-0.02,-0.005,-0.137
1.386,0.039,0.029,-0.01,-0.034,0.024,0.01,0.044,0.117,0.059,-0.02,-0.005,-0.137
1.388,0.049,0.034,-0.015,-0.039,0.029,0.01,0.044,0.117,0.063,-0.01,-0.01,-0.132
1.39,0.059,0.039,-0.02,-0.049,0.039,0.01,0.039,0.127,0.063,-0.015,0.0,-0.122
1.392,0.049,0.049,0.0,-0.049,0.024,0.024,0.044,0.137,0.073,-0.005,-0.005,-0.112
1.394,0.039,0.044,0.005,-0.039,0.015,0.024,0.044,0.132,0.068,0.0,-0.005,-0.127
1.396,0.024,0.044,0.02,-0.034,0.0,0.029,0.044,0.142,0.068,0.0,-0.01,-0.122
1.398,0.039,0.054,0.015,-0.044,0.01,0.034,0.039,0.146,0.068,0.0,0.005,-0.122
1.4,0.029,0.054,0.024,-0.039,0.0,0.039,0.039,0.156,0.083,0.005,0.02,-0.117
1.402,0.024,0.054,0.029,-0.039,-0.005,0.039,0.039,0.161,0.083,0.005,-0.005,-0.117
1.404,0.039,0.049,0.01,-0.044,0.015,0.029,0.044,0.161,0.088,0.0,0.0,-0.117
1.406,0.039,0.054,0.015,-0.044,0.01,0.034,0.044,0.166,0.093,0.0,0.01,-0.112
1.408,0.054,0.068,0.015,-0.059,0.02,0.039,0.049,0.176,0.093,0.005,0.029,-0.107
1.41,0.044,0.063,0.02,-0.054,0.01,0.039,0.044,0.176,0.088,0.0,0.034,-0.107
1.412,0.049,0.059,0.01,-0.054,0.02,0.034,0.039,0.181,0.093,0.005,0.01,-0.102
1.414,0.059,0.073,0.015,-0.063,0.02,0.044,0.034,0.176,0.088,0.015,0.015,-0.102
1.416,0.049,0.063,0.015,-0.054,0.015,0.039,0.034,0.185,0.093,0.02,0.029,-0.098
1.418,0.049,0.068,0.02,-0.059,0.015,0.044,0.029,0.181,0.098,0.015,0.02,-0.093
1.42,0.054,0.078,0.024,-0.063,0.015,0.049,0.024,0.185,0.093,0.005,0.02,-0.088
1.422,0.039,0.078,0.039,-0.059,0.0,0.059,0.024,0.185,0.093,0.005,0.029,-0.088
1.424,0.044,0.083,0.039,-0.063,0.0,0.059,0.034,0.195,0.102,0.005,0.029,-0.093
1.426,0.044,0.083,0.039,-0.063,0.0,0.059,0.034,0.2,0.107,0.01,0.039,-0.078
1.428,0.054,0.088,0.034,-0.068,0.01,0.059,0.029,0.2,0.102,0.015,0.029,-0.083
1.43,0.059,0.093,0.034,-0.073,0.01,0.063,0.024,0.2,0.098,0.01,0.049,-0.083
1.432,0.054,0.093,0.039,-0.073,0.005,0.063,0.015,0.195,0.093,0.005,0.034,-0.083
1.434,0.063,0.102,0.039,-0.083,0.01,0.068,0.024,0.195,0.093,0.01,0.024,-0.078
1.436,0.063,0.107,0.044,-0.083,0.01,0.073,0.034,0.2,0.093,0.01,0.029,-0.078
1.438,0.063,0.107,0.044,-0.083,0.01,0.073,0.029,0.2,0.093,0.0,0.029,-0.083
1.44,0.068,0.112,0.044,-0.088,0.01,0.078,0.029,0.195,0.083,0.0,0.034,-0.078
1.442,0.068,0.112,0.044,-0.088,0.01,0.078,0.02,0.19,0.078,-0.01,0.039,-0.083
1.444,0.054,0.107,0.054,-0.078,0.0,0.078,0.024,0.195,0.083,-0.005,0.039,-0.073
1.446,0.068,0.107,0.039,-0.088,0.015,0.073,0.02,0.185,0.083,-0.005,0.039,-0.073
1.448,0.059,0.112,0.054,-0.083,0.0,0.083,0.02,0.181,0.078,-0.005,0.029,-0.073
1.45,0.073,0.127,0.054,-0.098,0.01,0.088,0.02,0.181,0.078,-0.01,0.024,-0.073
1.452,0.063,0.132,0.068,-0.098,-0.005,0.098,0.029,0.181,0.083,0.0,0.024,-0.063
1.454,0.068,0.127,0.059,-0.098,0.005,0.093,0.015,0.176,0.073,0.0,0.02,-0.063
1.456,0.073,0.142,0.068,-0.107,0.0,0.102,0.01,0.166,0.063,-0.005,0.015,-0.068
1.458,0.073,0.142,0.068,-0.107,0.0,0.102,0.0,0.161,0.049,-0.02,0.029,-0.068
1.46,0.059,0.137,0.078,-0.098,-0.01,0.107,0.01,0.151,0.054,-0.015,0.034,-0.063
1.462,0.054,0.142,0.088,-0.098,-0.02,0.112,0.01,0.142,0.049,-0.02,0.029,-0.063
1.464,0.054,0.137,0.083,-0.093,-0.015,0.107,-0.005,0.127,0.039,-0.029,0.029,-0.068
1.466,0.054,0.142,0.088,-0.098,-0.02,0.112,0.0,0.122,0.044,-0.02,0.034,-0.059
1.468,0.054,0.146,0.093,-0.098,-0.02,0.117,-0.005,0.117,0.039,-0.02,0.024,-0.059
1.47,0.054,0.142,0.088,-0.098,-0.02,0.112,-0.01,0.102,0.034,-0.029,0.005,-0.063
1.472,0.054,0.146,0.093,-0.098,-0.02,0.117,-0.01,0.093,0.034,-0.029,0.029,-0.063
1.474,0.063,0.142,0.078,-0.102,-0.01,0.107,-0.01,0.093,0.039,-0.02,0.034,-0.059
1.476,0.063,0.146,0.083,-0.102,-0.01,0.112,-0.005,0.088,0.039,-0.02,0.01,-0.059
1.478,0.063,0.151,0.088,-0.107,-0.015,0.117,-0.005,0.083,0.034,-0.024,0.015,-0.059
1.48,0.063,0.142,0.078,-0.102,-0.01,0.107,-0.005,0.078,0.039,-0.02,0.02,-0.063
1.482,0.068,0.142,0.073,-0.102,-0.005,0.107,-0.005,0.073,0.039,-0.015,0.029,-0.059
1.484,0.054,0.127,0.073,-0.088,-0.01,0.098,-0.005,0.073,0.049,-0.015,0.015,-0.059
1.486,0.054,0.117,0.063,-0.083,-0.005,0.088,-0.02,0.059,0.044,-0.01,0.034,-0.059
1.488,0.063,0.112,0.049,-0.088,0.005,0.078,-0.015,0.049,0.039,-0.005,0.029,-0.049
1.49,0.049,0.102,0.054,-0.073,-0.005,0.078,-0.015,0.044,0.039,-0.005,0.034,-0.044
1.492,0.054,0.093,0.039,-0.073,0.005,0.063,-0.02,0.034,0.044,0.0,0.02,-0.059
1.494,0.049,0.093,0.044,-0.068,0.0,0.068,-0.01,0.039,0.049,0.01,0.034,-0.054
1.496,0.049,0.083,0.034,-0.063,0.005,0.059,-0.024,0.029,0.034,0.0,0.024,-0.073
1.498,0.059,0.078,0.02,-0.068,0.02,0.049,-0.02,0.029,0.034,0.005,0.039,-0.068
1.5,0.063,0.078,0.015,-0.068,0.024,0.044,-0.02,0.02,0.034,0.01,0.049,-0.073
1.502,0.059,0.068,0.01,-0.063,0.024,0.039,-0.02,0.015,0.034,0.0,0.024,-0.078
1.504,0.063,0.059,-0.005,-0.059,0.034,0.024,-0.015,0.015,0.034,-0.005,0.01,-0.078
1.506,0.054,0.049,-0.005,-0.049,0.029,0.02,-0.024,0.005,0.034,-0.01,0.015,-0.068
1.508,0.049,0.044,-0.005,-0.044,0.024,0.02,-0.02,0.0,0.034,-0.005,0.02,-0.073
1.51,0.044,0.034,-0.01,-0.039,0.024,0.01,-0.024,-0.005,0.034,-0.01,-0.005,-0.088
1.512,0.039,0.024,-0.015,-0.029,0.024,0.005,-0.02,-0.01,0.029,-0.015,0.005,-0.102
1.514,0.024,0.02,-0.005,-0.02,0.015,0.005,-0.015,-0.02,0.024,-0.015,0.005,-0.102
1.516,0.029,0.015,-0.015,-0.02,0.02,0.0,-0.02,-0.024,0.02,-0.015,-0.01,-0.102
1.518,0.029,0.01,-0.02,-0.02,0.024,-0.005,-0.015,-0.024,0.015,-0.02,0.005,-0.098
1.52,0.034,0.01,-0.024,-0.02,0.029,-0.01,-0.02,-0.029,0.01,-0.024,0.005,-0.107
1.522,0.024,0.0,-0.024,-0.01,0.024,-0.015,-0.02,-0.029,0.005,-0.029,0.0,-0.112
1.524,0.015,-0.005,-0.02,-0.005,0.015,-0.015,-0.015,-0.034,0.005,-0.034,0.01,-0.117
1.526,0.024,-0.005,-0.029,-0.01,0.024,-0.02,-0.02,-0.039,0.0,-0.039,-0.01,-0.132
1.528,0.015,-0.01,-0.024,0.0,0.02,-0.02,-0.024,-0.044,-0.005,-0.044,-0.029,-0.127
1.53,0.01,-0.015,-0.024,0.005,0.015,-0.02,-0.02,-0.039,0.0,-0.024,-0.01,-0.122
1.532,0.015,-0.02,-0.034,0.005,0.024,-0.029,-0.02,-0.049,-0.005,-0.034,-0.024,-0.127
1.534,0.0,-0.029,-0.029,0.015,0.015,-0.029,-0.02,-0.054,-0.01,-0.039,-0.02,-0.127
1.536,0.01,-0.015,-0.024,0.005,0.015,-0.02,-0.024,-0.054,-0.015,-0.044,-0.029,-0.127
1.538,0.005,-0.024,-0.029,0.01,0.015,-0.029,-0.029,-0.059,-0.015,-0.054,-0.02,-0.122
1.54,0.0,-0.024,-0.024,0.015,0.01,-0.024,-0.029,-0.063,-0.015,-0.059,-0.02,-0.127
1.542,0.005,-0.024,-0.029,0.01,0.015,-0.029,-0.024,-0.059,-0.01,-0.049,-0.024,-0.117
1.544,-0.01,-0.029,-0.02,0.02,0.005,-0.024,-0.024,-0.054,-0.01,-0.054,-0.024,-0.122
1.546,0.0,-0.024,-0.024,0.015,0.01,-0.024,-0.02,-0.063,-0.01,-0.054,-0.039,-0.127
1.548,-0.005,-0.029,-0.024,0.02,0.01,-0.029,-0.02,-0.063,-0.02,-0.054,-0.029,-0.132
1.55,-0.01,-0.034,-0.024,0.024,0.005,-0.029,-0.024,-0.068,-0.024,-0.063,-0.044,-0.137
1.552,-0.005,-0.034,-0.029,0.02,0.01,-0.034,-0.015,-0.068,-0.024,-0.059,-0.049,-0.137
1.554,-0.015,-0.034,-0.02,0.024,0.0,-0.029,-0.02,-0.078,-0.024,-0.059,-0.049,-0.137
1.556,-0.015,-0.034,-0.02,0.024,0.0,-0.029,-0.01,-0.068,-0.02,-0.054,-0.049,-0.132
1.558,-0.02,-0.039,-0.02,0.029,0.0,-0.029,-0.015,-0.063,-0.024,-0.059,-0.044,-0.127
1.56,-0.024,-0.049,-0.024,0.039,0.0,-0.039,-0.015,-0.078,-0.029,-0.063,-0.034,-0.132
1.562,-0.024,-0.044,-0.02,0.034,-0.005,-0.034,-0.015,-0.073,-0.029,-0.063,-0.059,-0.132
1.564,-0.02,-0.049,-0.029,0.034,0.005,-0.039,-0.015,-0.059,-0.029,-0.068,-0.063,-0.132
1.566,-0.02,-0.044,-0.024,0.034,0.0,-0.034,-0.01,-0.02,-0.02,-0.063,-0.063,-0.127
1.568,-0.015,-0.034,-0.02,0.024,0.0,-0.029,-0.015,0.005,-0.024,-0.054,-0.054,-0.127
1.57,-0.02,-0.049,-0.029,0.034,0.005,-0.039,-0.02,0.024,-0.024,-0.054,-0.059,-0.127
1.572,-0.015,-0.044,-0.029,0.029,0.005,-0.039,-0.024,0.024,-0.024,-0.063,-0.059,-0.132
1.574,-0.01,-0.039,-0.029,0.024,0.01,-0.034,-0.015,0.039,-0.02,-0.059,-0.049,-0.127
1.576,-0.02,-0.039,-0.02,0.029,0.0,-0.029,-0.02,0.034,-0.034,-0.063,-0.054,-0.127
1.578,-0.015,-0.029,-0.015,0.024,0.0,-0.024,-0.024,0.034,-0.034,-0.063,-0.039,-0.127
1.58,-0.024,-0.034,-0.01,0.029,-0.01,-0.024,-0.024,0.044,-0.029,-0.059,-0.039,-0.122
1.582,-0.034,-0.044,-0.01,0.039,-0.015,-0.029,-0.02,0.049,-0.029,-0.059,-0.024,-0.107
1.584,-0.034,-0.049,-0.015,0.044,-0.01,-0.034,-0.01,0.063,-0.015,-0.049,-0.034,-0.112
1.586,-0.024,-0.054,-0.029,0.039,0.0,-0.044,-0.02,0.054,-0.024,-0.063,-0.059,-0.132
1.588,-0.015,-0.039,-0.024,0.029,0.005,-0.034,-0.015,0.054,-0.024,-0.059,-0.059,-0.132
1.59,-0.024,-0.044,-0.02,0.034,-0.005,-0.034,-0.01,0.059,-0.024,-0.063,-0.029,-0.127
1.592,-0.024,-0.044,-0.02,0.034,-0.005,-0.034,-0.01,0.059,-0.024,-0.063,-0.024,-0.127
1.594,-0.02,-0.044,-0.024,0.034,0.0,-0.034,-0.01,0.063,-0.024,-0.059,-0.015,-0.117
1.596,-0.02,-0.049,-0.029,0.034,0.005,-0.039,-0.005,0.073,-0.02,-0.054,-0.02,-0.112
1.598,-0.015,-0.049,-0.034,0.034,0.01,-0.044,-0.015,0.068,-0.02,-0.059,-0.044,-0.117
1.6,-0.024,-0.049,-0.024,0.039,0.0,-0.039,-0.015,0.073,-0.024,-0.059,-0.049,-0.112
1.602,-0.024,-0.059,-0.034,0.044,0.005,-0.049,-0.02,0.068,-0.029,-0.063,-0.054,-0.117
1.604,-0.02,-0.049,-0.029,0.034,0.005,-0.039,-0.02,0.063,-0.029,-0.063,-0.059,-0.112
1.606,-0.02,-0.054,-0.034,0.039,0.005,-0.044,-0.02,0.063,-0.029,-0.063,-0.054,-0.112
1.608,-0.034,-0.054,-0.02,0.044,-0.01,-0.039,-0.02,0.063,-0.029,-0.059,-0.054,-0.112
1.61,-0.034,-0.054,-0.02,0.044,-0.01,-0.039,-0.015,0.068,-0.02,-0.054,-0.034,-0.102
1.612,-0.02,-0.049,-0.029,0.034,0.005,-0.039,-0.02,0.068,-0.02,-0.049,-0.029,-0.098
1.614,-0.015,-0.049,-0.034,0.034,0.01,-0.044,-0.015,0.073,-0.02,-0.049,-0.039,-0.093
1.616,-0.01,-0.044,-0.034,0.029,0.01,-0.039,-0.01,0.083,-0.015,-0.039,-0.034,-0.088
1.618,-0.015,-0.044,-0.029,0.029,0.005,-0.039,-0.015,0.073,-0.02,-0.049,-0.024,-0.093
1.62,-0.015,-0.044,-0.029,0.029,0.005,-0.039,-0.015,0.078,-0.015,-0.039,0.01,-0.093
1.622,-0.02,-0.054,-0.034,0.039,0.005,-0.044,-0.015,0.083,-0.02,-0.044,-0.01,-0.093
1.624,-0.024,-0.049,-0.024,0.039,0.0,-0.039,-0.015,0.078,-0.02,-0.049,-0.049,-0.093
1.626,-0.015,-0.049,-0.034,0.034,0.01,-0.044,-0.015,0.073,-0.02,-0.049,-0.024,-0.093
1.628,-0.02,-0.054,-0.034,0.039,0.005,-0.044,-0.02,0.073,-0.015,-0.049,-0.02,-0.093
1.63,-0.029,-0.054,-0.024,0.044,-0.005,-0.039,-0.024,0.068,-0.015,-0.049,-0.029,-0.098
1.632,-0.02,-0.044,-0.024,0.034,0.0,-0.034,-0.029,0.063,-0.01,-0.049,-0.01,-0.093
1.634,-0.01,-0.044,-0.034,0.029,0.01,-0.039,-0.02,0.073,-0.015,-0.039,0.0,-0.088
1.636,0.005,-0.039,-0.044,0.02,0.024,-0.044,-0.02,0.073,-0.02,-0.044,-0.024,-0.093
1.638,-0.01,-0.044,-0.034,0.029,0.01,-0.039,-0.015,0.078,-0.015,-0.044,0.005,-0.088
1.64,-0.015,-0.044,-0.029,0.029,0.005,-0.039,-0.024,0.073,-0.015,-0.044,-0.02,-0.088
1.642,-0.01,-0.039,-0.029,0.024,0.01,-0.034,-0.024,0.073,-0.02,-0.054,-0.029,-0.093
1.644,-0.005,-0.039,-0.034,0.024,0.015,-0.039,-0.024,0.078,-0.02,-0.054,-0.024,-0.093
1.646,-0.01,-0.044,-0.034,0.029,0.01,-0.039,-0.024,0.073,-0.015,-0.044,-0.024,-0.088
1.648,-0.01,-0.049,-0.039,0.029,0.015,-0.044,-0.02,0.073,-0.01,-0.049,-0.044,-0.073
1.65,-0.015,-0.054,-0.039,0.034,0.01,-0.049,-0.024,0.068,-0.015,-0.054,-0.029,-0.063
1.652,-0.02,-0.049,-0.029,0.034,0.005,-0.039,-0.02,0.068,-0.005,-0.044,-0.029,-0.049
1.654,-0.015,-0.044,-0.029,0.029,0.005,-0.039,-0.02,0.073,-0.005,-0.039,-0.01,-0.049
1.656,-0.01,-0.039,-0.029,0.024,0.01,-0.034,-0.02,0.073,-0.015,-0.049,-0.029,-0.059
1.658,-0.01,-0.039,-0.029,0.024,0.01,-0.034,-0.02,0.073,-0.01,-0.044,-0.02,-0.054
1.66,-0.015,-0.044,-0.029,0.029,0.005,-0.039,-0.024,0.073,-0.01,-0.039,-0.015,-0.054
1.662,-0.01,-0.049,-0.039,0.029,0.015,-0.044,-0.029,0.063,-0.02,-0.044,-0.015,-0.054
1.664,0.0,-0.039,-0.039,0.02,0.02,-0.039,-0.029,0.063,-0.02,-0.049,-0.039,-0.059
1.666,-0.005,-0.054,-0.049,0.029,0.02,-0.054,-0.029,0.063,-0.015,-0.044,-0.044,-0.059
1.668,-0.015,-0.049,-0.034,0.034,0.01,-0.044,-0.029,0.059,-0.02,-0.044,-0.049,-0.059
1.67,-0.024,-0.054,-0.029,0.039,0.0,-0.044,-0.034,0.063,-0.02,-0.049,-0.034,-0.063
1.672,-0.015,-0.049,-0.034,0.034,0.01,-0.044,-0.034,0.063,-0.015,-0.049,-0.029,-0.059
1.674,-0.02,-0.049,-0.029,0.034,0.005,-0.039,-0.024,0.068,-0.01,-0.039,-0.034,-0.049
1.676,-0.015,-0.054,-0.039,0.034,0.01,-0.049,-0.024,0.063,-0.02,-0.049,-0.039,-0.054
1.678,-0.015,-0.054,-0.039,0.034,0.01,-0.049,-0.024,0.054,-0.024,-0.049,-0.049,-0.059
1.68,-0.02,-0.054,-0.034,0.039,0.005,-0.044,-0.02,0.054,-0.015,-0.044,-0.024,-0.054
1.682,-0.024,-0.054,-0.029,0.039,0.0,-0.044,-0.024,0.049,-0.024,-0.049,-0.015,-0.059
1.684,-0.015,-0.049,-0.034,0.034,0.01,-0.044,-0.02,0.054,-0.02,-0.049,-0.049,-0.049
1.686,-0.01,-0.054,-0.044,0.034,0.015,-0.049,-0.024,0.049,-0.02,-0.054,-0.049,-0.063
1.688,-0.02,-0.063,-0.044,0.044,0.01,-0.054,-0.029,0.049,-0.02,-0.054,-0.039,-0.063
1.69,-0.015,-0.063,-0.049,0.039,0.015,-0.059,-0.029,0.049,-0.024,-0.059,-0.044,-0.063
1.692,-0.039,-0.068,-0.029,0.054,-0.005,-0.049,-0.024,0.039,-0.02,-0.054,-0.034,-0.063
1.694,-0.039,-0.063,-0.024,0.054,-0.01,-0.044,-0.02,0.044,-0.015,-0.049,-0.039,-0.054
1.696,-0.029,-0.063,-0.034,0.049,0.0,-0.049,-0.02,0.039,-0.02,-0.054,-0.044,-0.059
1.698,-0.024,-0.068,-0.044,0.049,0.01,-0.059,-0.029,0.034,-0.029,-0.059,-0.049,-0.063
1.7,-0.029,-0.068,-0.039,0.049,0.005,-0.054,-0.024,0.034,-0.02,-0.059,-0.044,-0.059
1.702,-0.029,-0.068,-0.039,0.049,0.005,-0.054,-0.024,0.034,-0.029,-0.054,-0.063,-0.059
1.704,-0.029,-0.068,-0.039,0.049,0.005,-0.054,-0.02,0.034,-0.029,-0.059,-0.059,-0.059
1.706,-0.015,-0.063,-0.049,0.039,0.015,-0.059,-0.02,0.034,-0.024,-0.044,-0.054,-0.063
1.708,-0.02,-0.063,-0.044,0.044,0.01,-0.054,-0.029,0.034,-0.029,-0.054,-0.054,-0.068
1.71,-0.02,-0.063,-0.044,0.044,0.01,-0.054,-0.029,0.024,-0.034,-0.063,-0.054,-0.068
1.712,-0.015,-0.059,-0.044,0.039,0.015,-0.054,-0.024,0.029,-0.024,-0.054,-0.054,-0.059
1.714,-0.024,-0.063,-0.039,0.044,0.005,-0.054,-0.029,0.029,-0.024,-0.049,-0.049,-0.059
1.716,-0.029,-0.063,-0.034,0.049,0.0,-0.049,-0.029,0.029,-0.029,-0.049,-0.039,-0.063
1.718,-0.044,-0.073,-0.029,0.059,-0.01,-0.054,-0.029,0.034,-0.024,-0.049,-0.044,-0.059
1.72,-0.039,-0.068,-0.029,0.054,-0.005,-0.049,-0.029,0.024,-0.024,-0.054,-0.054,-0.063
1.722,-0.024,-0.068,-0.044,0.049,0.01,-0.059,-0.029,0.029,-0.029,-0.049,-0.044,-0.068
1.724,-0.034,-0.073,-0.039,0.054,0.0,-0.059,-0.02,0.034,-0.029,-0.054,-0.044,-0.068
1.726,-0.02,-0.068,-0.049,0.044,0.015,-0.059,-0.015,0.024,-0.029,-0.054,-0.059,-0.063
1.728,-0.02,-0.068,-0.049,0.044,0.015,-0.059,-0.02,0.02,-0.034,-0.059,-0.063,-0.063
1.73,-0.034,-0.078,-0.044,0.059,0.005,-0.063,-0.02,0.02,-0.039,-0.063,-0.059,-0.068
1.732,-0.024,-0.068,-0.044,0.049,0.01,-0.059,-0.01,0.024,-0.029,-0.059,-0.049,-0.054
1.734,-0.02,-0.073,-0.054,0.049,0.015,-0.063,-0.015,0.024,-0.029,-0.059,-0.049,-0.063
1.736,-0.02,-0.073,-0.054,0.049,0.015,-0.063,-0.02,0.024,-0.034,-0.059,-0.044,-0.068
1.738,-0.02,-0.073,-0.054,0.049,0.015,-0.063,-0.024,0.02,-0.039,-0.063,-0.044,-0.068
1.74,-0.034,-0.078,-0.044,0.059,0.005,-0.063,-0.024,0.015,-0.039,-0.073,-0.068,-0.068
1.742,-0.039,-0.073,-0.034,0.059,-0.005,-0.054,-0.02,0.01,-0.039,-0.068,-0.063,-0.068
1.744,-0.034,-0.073,-0.039,0.054,0.0,-0.059,-0.024,0.015,-0.044,-0.068,-0.054,-0.068
1.746,-0.039,-0.078,-0.039,0.059,0.0,-0.059,-0.024,0.005,-0.044,-0.073,-0.059,-0.068
1.748,-0.044,-0.083,-0.039,0.063,-0.005,-0.063,-0.029,0.015,-0.034,-0.063,-0.049,-0.063
1.75,-0.044,-0.088,-0.044,0.068,0.0,-0.068,-0.029,0.02,-0.034,-0.068,-0.059,-0.063
1.752,-0.039,-0.083,-0.044,0.063,0.0,-0.063,-0.029,0.01,-0.029,-0.063,-0.049,-0.063
1.754,-0.039,-0.083,-0.044,0.063,0.0,-0.063,-0.02,0.015,-0.029,-0.059,-0.059,-0.059
1.756,-0.039,-0.093,-0.054,0.068,0.005,-0.073,-0.024,0.02,-0.029,-0.063,-0.059,-0.054
1.758,-0.029,-0.083,-0.054,0.059,0.01,-0.068,-0.034,0.005,-0.039,-0.068,-0.063,-0.059
1.76,-0.044,-0.093,-0.049,0.068,0.0,-0.073,-0.024,0.005,-0.034,-0.068,-0.054,-0.059
1.762,-0.049,-0.093,-0.044,0.073,-0.005,-0.068,-0.02,0.01,-0.029,-0.068,-0.049,-0.063
1.764,-0.044,-0.093,-0.049,0.068,0.0,-0.073,-0.02,0.015,-0.034,-0.063,-0.044,-0.063
1.766,-0.054,-0.098,-0.044,0.078,-0.005,-0.073,-0.024,0.005,-0.039,-0.054,-0.054,-0.063
1.768,-0.049,-0.093,-0.044,0.073,-0.005,-0.068,-0.029,0.0,-0.044,-0.063,-0.078,-0.068
1.77,-0.044,-0.083,-0.039,0.063,-0.005,-0.063,-0.029,0.0,-0.049,-0.073,-0.039,-0.063
1.772,-0.049,-0.093,-0.044,0.073,-0.005,-0.068,-0.02,0.005,-0.049,-0.068,-0.029,-0.068
1.774,-0.034,-0.088,-0.054,0.063,0.01,-0.073,-0.024,0.0,-0.049,-0.063,-0.059,-0.063
1.776,-0.039,-0.088,-0.049,0.063,0.005,-0.068,-0.024,0.0,-0.044,-0.059,-0.068,-0.068
1.778,-0.054,-0.088,-0.034,0.073,-0.01,-0.063,-0.024,0.005,-0.049,-0.068,-0.059,-0.063
1.78,-0.034,-0.078,-0.044,0.059,0.005,-0.063,-0.02,0.0,-0.049,-0.073,-0.049,-0.063
1.782,-0.039,-0.088,-0.049,0.063,0.005,-0.068,-0.015,0.0,-0.054,-0.068,-0.068,-0.068
1.784,-0.044,-0.093,-0.049,0.068,0.0,-0.073,-0.015,0.005,-0.049,-0.073,-0.049,-0.078
1.786,-0.044,-0.088,-0.044,0.068,0.0,-0.068,-0.024,0.0,-0.054,-0.078,-0.073,-0.078
1.788,-0.054,-0.098,-0.044,0.078,-0.005,-0.073,-0.024,0.0,-0.049,-0.073,-0.068,-0.078
1.79,-0.054,-0.098,-0.044,0.078,-0.005,-0.073,-0.02,0.005,-0.049,-0.068,-0.073,-0.078
1.792,-0.049,-0.088,-0.039,0.068,-0.005,-0.063,-0.02,-0.005,-0.054,-0.073,-0.073,-0.078
1.794,-0.044,-0.083,-0.039,0.063,-0.005,-0.063,-0.02,-0.005,-0.049,-0.068,-0.059,-0.073
1.796,-0.039,-0.088,-0.049,0.063,0.005,-0.068,-0.02,-0.005,-0.054,-0.068,-0.063,-0.068
1.798,-0.049,-0.088,-0.039,0.068,-0.005,-0.063,-0.02,0.0,-0.054,-0.068,-0.068,-0.068
1.8,-0.049,-0.088,-0.039,0.068,-0.005,-0.063,-0.015,-0.005,-0.054,-0.073,-0.073,-0.068
1.802,-0.054,-0.083,-0.029,0.068,-0.015,-0.059,-0.01,0.0,-0.049,-0.059,-0.054,-0.059
1.804,-0.044,-0.088,-0.044,0.068,0.0,-0.068,-0.024,-0.005,-0.059,-0.078,-0.059,-0.078
1.806,-0.034,-0.083,-0.049,0.059,0.005,-0.068,-0.024,-0.015,-0.059,-0.073,-0.073,-0.078
1.808,-0.044,-0.093,-0.049,0.068,0.0,-0.073,-0.02,-0.01,-0.054,-0.073,-0.063,-0.073
1.81,-0.049,-0.093,-0.044,0.073,-0.005,-0.068,-0.02,-0.02,-0.063,-0.078,-0.073,-0.078
1.812,-0.049,-0.093,-0.044,0.073,-0.005,-0.068,-0.015,-0.01,-0.049,-0.068,-0.073,-0.068
1.814,-0.049,-0.098,-0.049,0.073,0.0,-0.073,-0.029,-0.015,-0.054,-0.054,-0.068,-0.068
1.816,-0.054,-0.098,-0.044,0.078,-0.005,-0.073,-0.029,-0.02,-0.054,-0.073,-0.078,-0.073
1.818,-0.059,-0.098,-0.039,0.078,-0.01,-0.068,-0.015,-0.01,-0.044,-0.063,-0.054,-0.063
1.82,-0.063,-0.102,-0.039,0.083,-0.015,-0.073,-0.024,-0.01,-0.044,-0.068,-0.044,-0.068
1.822,-0.049,-0.098,-0.049,0.073,0.0,-0.073,-0.015,-0.01,-0.049,-0.063,-0.049,-0.068
1.824,-0.049,-0.098,-0.049,0.073,0.0,-0.073,-0.02,-0.01,-0.054,-0.068,-0.063,-0.073
1.826,-0.063,-0.102,-0.039,0.083,-0.015,-0.073,-0.015,-0.005,-0.054,-0.073,-0.073,-0.063
1.828,-0.063,-0.102,-0.039,0.083,-0.015,-0.073,-0.015,-0.01,-0.054,-0.068,-0.073,-0.063
1.83,-0.063,-0.107,-0.044,0.088,-0.01,-0.078,-0.02,-0.015,-0.059,-0.068,-0.054,-0.068
1.832,-0.059,-0.112,-0.054,0.088,-0.005,-0.083,-0.02,-0.01,-0.049,-0.068,-0.059,-0.063
1.834,-0.063,-0.107,-0.044,0.088,-0.01,-0.078,-0.015,-0.01,-0.049,-0.063,-0.039,-0.059
1.836,-0.063,-0.102,-0.039,0.083,-0.015,-0.073,-0.02,-0.015,-0.059,-0.078,-0.059,-0.059
1.838,-0.063,-0.098,-0.034,0.083,-0.015,-0.068,-0.02,-0.01,-0.054,-0.068,-0.063,-0.049
1.84,-0.063,-0.093,-0.029,0.078,-0.02,-0.063,-0.024,-0.01,-0.049,-0.073,-0.063,-0.063
1.842,-0.049,-0.088,-0.039,0.068,-0.005,-0.063,-0.029,-0.01,-0.054,-0.068,-0.068,-0.068
1.844,-0.049,-0.083,-0.034,0.068,-0.01,-0.059,-0.02,0.0,-0.049,-0.068,-0.034,-0.063
1.846,-0.049,-0.098,-0.049,0.073,0.0,-0.073,-0.02,-0.01,-0.049,-0.063,-0.059,-0.068
1.848,-0.044,-0.088,-0.044,0.068,0.0,-0.068,-0.01,-0.01,-0.044,-0.063,-0.054,-0.063
1.85,-0.039,-0.078,-0.039,0.059,0.0,-0.059,-0.005,0.005,-0.039,-0.054,-0.068,-0.054
1.852,-0.039,-0.073,-0.034,0.059,-0.005,-0.054,-0.005,0.005,-0.039,-0.059,-0.059,-0.049
1.854,-0.034,-0.063,-0.029,0.049,-0.005,-0.049,0.0,0.01,-0.029,-0.049,-0.054,-0.044
1.856,-0.039,-0.073,-0.034,0.059,-0.005,-0.054,0.005,0.02,-0.024,-0.039,-0.059,-0.039
1.858,-0.039,-0.073,-0.034,0.059,-0.005,-0.054,0.01,0.024,-0.02,-0.039,-0.034,-0.029
1.86,-0.029,-0.063,-0.034,0.049,0.0,-0.049,0.005,0.024,-0.02,-0.034,-0.034,-0.024
1.862,-0.029,-0.063,-0.034,0.049,0.0,-0.049,0.01,0.034,-0.01,-0.029,-0.034,-0.024
1.864,-0.015,-0.049,-0.034,0.034,0.01,-0.044,0.01,0.029,-0.01,-0.029,-0.02,-0.024
1.866,-0.01,-0.049,-0.039,0.029,0.015,-0.044,0.01,0.039,0.0,-0.02,-0.015,-0.015
1.868,-0.015,-0.049,-0.034,0.034,0.01,-0.044,0.005,0.044,0.01,-0.01,-0.029,-0.01
1.87,0.0,-0.034,-0.034,0.02,0.015,-0.034,0.005,0.054,0.015,-0.005,-0.02,-0.005
1.872,0.005,-0.029,-0.034,0.015,0.02,-0.034,0.005,0.059,0.015,0.0,-0.01,-0.005
1.874,-0.005,-0.034,-0.029,0.02,0.01,-0.034,0.01,0.068,0.02,0.005,-0.015,0.005
1.876,0.0,-0.034,-0.034,0.02,0.015,-0.034,0.005,0.083,0.024,0.01,-0.015,0.005
1.878,0.01,-0.049,-0.059,0.02,0.034,-0.054,-0.005,0.078,0.024,0.005,-0.005,0.0
1.88,0.015,-0.044,-0.059,0.015,0.034,-0.054,-0.01,0.083,0.029,0.005,-0.01,0.005
1.882,0.02,-0.034,-0.054,0.01,0.034,-0.044,0.0,0.098,0.039,0.01,0.0,0.015
1.884,0.01,-0.024,-0.034,0.01,0.02,-0.029,0.0,0.098,0.049,0.02,0.024,0.024
1.886,0.02,-0.01,-0.029,-0.005,0.024,-0.02,0.0,0.102,0.059,0.034,0.029,0.039
1.888,0.024,-0.01,-0.034,-0.005,0.029,-0.024,-0.015,0.093,0.059,0.034,0.015,0.034
1.89,0.015,-0.01,-0.024,0.0,0.02,-0.02,-0.02,0.098,0.063,0.039,0.01,0.044
1.892,0.024,-0.01,-0.034,-0.005,0.029,-0.024,-0.029,0.083,0.054,0.034,0.015,0.039
1.894,0.024,-0.02,-0.044,0.0,0.034,-0.034,-0.039,0.068,0.044,0.024,0.01,0.034
1.896,0.02,-0.02,-0.039,0.0,0.029,-0.029,-0.039,0.063,0.034,0.02,-0.01,0.034
1.898,0.024,-0.02,-0.044,0.0,0.034,-0.034,-0.049,0.059,0.029,0.015,0.005,0.029
1.9,0.024,-0.034,-0.059,0.005,0.039,-0.049,-0.049,0.054,0.024,0.015,-0.005,0.029
1.902,0.024,-0.039,-0.063,0.01,0.044,-0.054,-0.054,0.049,0.024,0.01,-0.015,0.034
1.904,0.015,-0.059,-0.073,0.024,0.044,-0.068,-0.044,0.054,0.02,0.005,-0.005,0.034
1.906,0.015,-0.059,-0.073,0.024,0.044,-0.068,-0.049,0.039,0.02,0.005,-0.01,0.029
1.908,0.015,-0.059,-0.073,0.024,0.044,-0.068,-0.049,0.034,0.01,0.0,-0.024,0.024
1.91,0.01,-0.068,-0.078,0.029,0.044,-0.073,-0.054,0.02,0.0,-0.01,-0.024,0.015
1.912,0.015,-0.078,-0.093,0.034,0.054,-0.088,-0.054,0.015,-0.005,-0.01,-0.02,0.024
1.914,0.0,-0.088,-0.088,0.044,0.044,-0.088,-0.049,0.01,-0.01,-0.02,-0.015,0.015
1.916,-0.01,-0.098,-0.088,0.054,0.039,-0.093,-0.049,0.01,-0.02,-0.029,-0.029,0.01
1.918,0.01,-0.078,-0.088,0.034,0.049,-0.083,-0.054,0.005,-0.024,-0.029,-0.039,0.01
1.92,-0.005,-0.073,-0.068,0.039,0.029,-0.073,-0.044,0.01,-0.015,-0.02,-0.054,0.015
1.922,-0.024,-0.073,-0.049,0.049,0.01,-0.063,-0.039,0.01,-0.024,-0.024,-0.054,0.01
1.924,-0.029,-0.088,-0.059,0.059,0.015,-0.073,-0.039,0.01,-0.024,-0.029,-0.049,0.005
1.926,-0.044,-0.107,-0.063,0.078,0.01,-0.088,-0.039,-0.005,-0.024,-0.034,-0.063,0.0
1.928,-0.044,-0.107,-0.063,0.078,0.01,-0.088,-0.044,-0.01,-0.039,-0.044,-0.068,-0.01
1.93,-0.049,-0.122,-0.073,0.088,0.01,-0.098,-0.044,-0.015,-0.039,-0.044,-0.063,-0.015
1.932,-0.054,-0.127,-0.073,0.093,0.01,-0.102,-0.029,-0.01,-0.039,-0.044,-0.083,-0.02
1.934,-0.049,-0.132,-0.083,0.093,0.015,-0.107,-0.029,-0.015,-0.039,-0.044,-0.083,-0.015
1.936,-0.059,-0.142,-0.083,0.102,0.01,-0.112,-0.034,-0.015,-0.049,-0.054,-0.093,-0.024
1.938,-0.078,-0.137,-0.059,0.107,-0.01,-0.098,-0.029,-0.024,-0.054,-0.059,-0.093,-0.024
1.94,-0.083,-0.132,-0.049,0.107,-0.02,-0.093,-0.024,-0.029,-0.054,-0.059,-0.078,-0.015
1.942,-0.098,-0.146,-0.049,0.122,-0.024,-0.098,-0.034,-0.039,-0.068,-0.068,-0.068,-0.024
1.944,-0.093,-0.156,-0.063,0.127,-0.015,-0.112,-0.034,-0.049,-0.073,-0.078,-0.107,-0.034
1.946,-0.093,-0.166,-0.073,0.132,-0.01,-0.122,-0.034,-0.049,-0.078,-0.078,-0.112,-0.034
1.948,-0.098,-0.166,-0.068,0.132,-0.015,-0.117,-0.034,-0.049,-0.083,-0.078,-0.127,-0.034
1.95,-0.098,-0.161,-0.063,0.132,-0.02,-0.112,-0.029,-0.054,-0.078,-0.078,-0.093,-0.02
1.952,-0.102,-0.161,-0.059,0.132,-0.024,-0.112,-0.034,-0.059,-0.083,-0.078,-0.088,-0.02
1.954,-0.102,-0.161,-0.059,0.132,-0.024,-0.112,-0.034,-0.059,-0.083,-0.083,-0.107,-0.034
1.956,-0.093,-0.161,-0.068,0.127,-0.015,-0.117,-0.034,-0.054,-0.083,-0.083,-0.122,-0.034
1.958,-0.102,-0.166,-0.063,0.137,-0.02,-0.117,-0.034,-0.059,-0.083,-0.078,-0.117,-0.029
1.96,-0.098,-0.156,-0.059,0.127,-0.02,-0.107,-0.034,-0.059,-0.083,-0.078,-0.122,-0.024
1.962,-0.098,-0.161,-0.063,0.132,-0.02,-0.112,-0.034,-0.059,-0.078,-0.078,-0.098,-0.02
1.964,-0.102,-0.166,-0.063,0.137,-0.02,-0.117,-0.049,-0.059,-0.083,-0.083,-0.122,-0.029
1.966,-0.102,-0.161,-0.059,0.132,-0.024,-0.112,-0.049,-0.063,-0.083,-0.083,-0.117,-0.029
1.968,-0.117,-0.176,-0.059,0.146,-0.029,-0.117,-0.049,-0.063,-0.083,-0.083,-0.127,-0.039
1.97,-0.107,-0.171,-0.063,0.142,-0.024,-0.117,-0.049,-0.059,-0.088,-0.083,-0.132,-0.039
1.972,-0.107,-0.166,-0.059,0.137,-0.024,-0.112,-0.049,-0.059,-0.093,-0.078,-0.137,-0.034
1.974,-0.117,-0.171,-0.054,0.146,-0.034,-0.112,-0.049,-0.059,-0.093,-0.073,-0.117,-0.034
1.976,-0.117,-0.171,-0.054,0.146,-0.034,-0.112,-0.044,-0.063,-0.093,-0.083,-0.098,-0.039
1.978,-0.112,-0.166,-0.054,0.142,-0.029,-0.112,-0.039,-0.054,-0.093,-0.078,-0.107,-0.034
1.98,-0.102,-0.166,-0.063,0.137,-0.02,-0.117,-0.044,-0.059,-0.093,-0.088,-0.137,-0.034
1.982,-0.102,-0.166,-0.063,0.137,-0.02,-0.117,-0.044,-0.063,-0.098,-0.083,-0.137,-0.034
1.984,-0.112,-0.176,-0.063,0.146,-0.024,-0.122,-0.044,-0.063,-0.098,-0.088,-0.132,-0.039
1.986,-0.117,-0.176,-0.059,0.146,-0.029,-0.117,-0.039,-0.068,-0.098,-0.083,-0.137,-0.034
1.988,-0.107,-0.171,-0.063,0.142,-0.024,-0.117,-0.039,-0.063,-0.098,-0.078,-0.127,-0.039
1.99,-0.112,-0.166,-0.054,0.142,-0.029,-0.112,-0.034,-0.063,-0.102,-0.088,-0.117,-0.044
1.992,-0.117,-0.171,-0.054,0.146,-0.034,-0.112,-0.024,-0.059,-0.098,-0.083,-0.132,-0.044
1.994,-0.132,-0.181,-0.049,0.156,-0.044,-0.117,-0.015,-0.054,-0.098,-0.093,-0.137,-0.063
1.996,-0.146,-0.195,-0.049,0.171,-0.049,-0.122,0.005,-0.039,-0.098,-0.098,-0.151,-0.078
1.998,-0.156,-0.2,-0.044,0.181,-0.059,-0.122,0.024,-0.015,-0.102,-0.112,-0.166,-0.093
2.0,-0.166,-0.22,-0.054,0.195,-0.059,-0.137,0.039,0.01,-0.098,-0.132,-0.2,-0.117
2.002,-0.166,-0.22,-0.054,0.195,-0.059,-0.137,0.073,0.059,-0.098,-0.142,-0.224,-0.146
2.004,-0.181,-0.22,-0.039,0.2,-0.073,-0.132,0.112,0.142,-0.054,-0.122,-0.181,-0.146
2.006,-0.156,-0.2,-0.044,0.181,-0.059,-0.122,0.122,0.215,0.01,-0.078,-0.151,-0.112
2.008,-0.112,-0.176,-0.063,0.146,-0.024,-0.122,0.132,0.298,0.083,-0.015,-0.107,-0.068
2.01,-0.073,-0.171,-0.098,0.122,0.01,-0.137,0.137,0.356,0.127,0.024,-0.078,-0.039
2.012,-0.034,-0.181,-0.146,0.107,0.054,-0.166,0.132,0.39,0.161,0.063,-0.044,-0.01
2.014,0.024,-0.161,-0.185,0.068,0.102,-0.176,0.102,0.371,0.205,0.122,0.015,0.054
2.016,0.098,-0.127,-0.224,0.015,0.161,-0.176,0.024,0.278,0.229,0.2,0.112,0.142
2.018,0.195,-0.063,-0.259,-0.063,0.224,-0.161,-0.059,0.19,0.278,0.303,0.244,0.259
2.02,0.293,0.029,-0.264,-0.161,0.278,-0.117,-0.156,0.102,0.366,0.449,0.42,0.415
2.022,0.39,0.117,-0.273,-0.254,0.332,-0.078,-0.278,-0.024,0.41,0.566,0.566,0.556
2.024,0.498,0.229,-0.268,-0.361,0.381,-0.02,-0.386,-0.107,0.488,0.703,0.756,0.708
2.026,0.576,0.366,-0.21,-0.468,0.39,0.078,-0.464,-0.142,0.59,0.859,0.932,0.864
2.028,0.649,0.503,-0.146,-0.576,0.395,0.176,-0.551,-0.176,0.688,1.015,1.093,1.035
2.03,0.703,0.654,-0.049,-0.678,0.376,0.303,-0.649,-0.224,0.776,1.166,1.269,1.191
2.032,0.698,0.727,0.029,-0.712,0.332,0.376,-0.722,-0.244,0.849,1.264,1.381,1.303
2.034,0.673,0.776,0.102,-0.722,0.283,0.439,-0.766,-0.244,0.913,1.352,1.469,1.381
2.036,0.605,0.8,0.195,-0.703,0.205,0.498,-0.791,-0.322,0.898,1.381,1.508,1.41
2.038,0.478,0.786,0.307,-0.63,0.083,0.547,-0.8,-0.478,0.756,1.279,1.435,1.342
2.04,0.317,0.703,0.386,-0.508,-0.034,0.542,-0.791,-0.683,0.468,0.981,1.161,1.161
2.042,0.132,0.586,0.454,-0.356,-0.161,0.517,-0.766,-0.966,-0.005,0.493,0.708,0.844
2.044,-0.044,0.41,0.454,-0.181,-0.249,0.429,-0.732,-1.235,-0.508,-0.063,0.195,0.468
2.046,-0.151,0.249,0.4,-0.049,-0.278,0.322,-0.669,-1.327,-0.81,-0.415,-0.161,0.181
2.048,-0.215,0.146,0.361,0.034,-0.288,0.254,-0.59,-1.303,-0.903,-0.556,-0.322,0.024
2.05,-0.22,0.093,0.312,0.063,-0.268,0.2,-0.537,-1.196,-0.864,-0.556,-0.346,-0.024
2.052,-0.22,0.034,0.254,0.093,-0.239,0.142,-0.483,-1.044,-0.781,-0.508,-0.342,-0.063
2.054,-0.21,-0.015,0.195,0.112,-0.205,0.088,-0.434,-0.883,-0.673,-0.454,-0.337,-0.078
2.056,-0.176,-0.039,0.137,0.107,-0.156,0.049,-0.371,-0.732,-0.566,-0.39,-0.307,-0.068
2.058,-0.166,-0.059,0.107,0.112,-0.137,0.024,-0.303,-0.59,-0.464,-0.322,-0.268,-0.059
2.06,-0.156,-0.078,0.078,0.117,-0.117,0.0,-0.244,-0.473,-0.386,-0.264,-0.234,-0.054
2.062,-0.146,-0.093,0.054,0.122,-0.102,-0.02,-0.19,-0.386,-0.322,-0.229,-0.205,-0.054
2.064,-0.161,-0.098,0.063,0.132,-0.112,-0.02,-0.151,-0.322,-0.278,-0.205,-0.181,-0.059
2.066,-0.151,-0.088,0.063,0.122,-0.107,-0.015,-0.112,-0.254,-0.224,-0.166,-0.176,-0.049
2.068,-0.132,-0.088,0.044,0.112,-0.088,-0.024,-0.083,-0.205,-0.19,-0.146,-0.166,-0.044
2.07,-0.137,-0.083,0.054,0.112,-0.098,-0.015,-0.063,-0.176,-0.166,-0.137,-0.176,-0.049
2.072,-0.122,-0.088,0.034,0.107,-0.078,-0.029,-0.049,-0.137,-0.137,-0.112,-0.142,-0.044
2.074,-0.132,-0.098,0.034,0.117,-0.083,-0.034,-0.039,-0.117,-0.132,-0.107,-0.151,-0.034
2.076,-0.127,-0.112,0.015,0.122,-0.073,-0.049,-0.029,-0.098,-0.122,-0.107,-0.142,-0.034
2.078,-0.107,-0.107,0.0,0.107,-0.054,-0.054,-0.015,-0.083,-0.112,-0.093,-0.137,-0.024
2.08,-0.112,-0.127,-0.015,0.122,-0.049,-0.073,-0.01,-0.068,-0.102,-0.098,-0.132,-0.01
2.082,-0.117,-0.127,-0.01,0.122,-0.054,-0.068,0.0,-0.059,-0.102,-0.093,-0.132,-0.024
2.084,-0.127,-0.132,-0.005,0.132,-0.063,-0.068,0.0,-0.059,-0.102,-0.098,-0.151,-0.039
2.086,-0.127,-0.137,-0.01,0.132,-0.059,-0.073,0.0,-0.049,-0.102,-0.098,-0.146,-0.039
2.088,-0.122,-0.137,-0.015,0.132,-0.054,-0.078,0.005,-0.039,-0.093,-0.088,-0.127,-0.039
2.09,-0.127,-0.142,-0.015,0.137,-0.059,-0.078,0.005,-0.049,-0.098,-0.098,-0.151,-0.029
2.092,-0.112,-0.142,-0.029,0.127,-0.044,-0.088,0.0,-0.049,-0.102,-0.102,-0.156,-0.044
2.094,-0.112,-0.142,-0.029,0.127,-0.044,-0.088,0.005,-0.039,-0.093,-0.093,-0.122,-0.039
2.096,-0.112,-0.142,-0.029,0.127,-0.044,-0.088,0.01,-0.034,-0.088,-0.093,-0.112,-0.039
2.098,-0.102,-0.132,-0.029,0.117,-0.039,-0.083,0.02,-0.024,-0.083,-0.088,-0.142,-0.029
2.1,-0.102,-0.137,-0.034,0.122,-0.034,-0.088,0.02,-0.02,-0.083,-0.088,-0.137,-0.029
2.102,-0.102,-0.137,-0.034,0.122,-0.034,-0.088,0.02,-0.02,-0.088,-0.088,-0.137,-0.024
2.104,-0.102,-0.142,-0.039,0.122,-0.034,-0.093,0.024,-0.02,-0.083,-0.083,-0.151,-0.034
2.106,-0.107,-0.142,-0.034,0.127,-0.039,-0.088,0.024,-0.02,-0.088,-0.083,-0.132,-0.039
2.108,-0.102,-0.137,-0.034,0.122,-0.034,-0.088,0.02,-0.024,-0.083,-0.083,-0.122,-0.044
2.11,-0.107,-0.137,-0.029,0.122,-0.039,-0.083,0.024,-0.02,-0.088,-0.078,-0.142,-0.039
2.112,-0.117,-0.142,-0.024,0.132,-0.049,-0.083,0.015,-0.029,-0.088,-0.088,-0.161,-0.049
2.114,-0.107,-0.142,-0.034,0.127,-0.039,-0.088,0.01,-0.024,-0.083,-0.078,-0.137,-0.044
2.116,-0.102,-0.137,-0.034,0.122,-0.034,-0.088,0.015,-0.02,-0.073,-0.068,-0.122,-0.044
2.118,-0.102,-0.127,-0.024,0.117,-0.039,-0.078,0.02,-0.015,-0.068,-0.068,-0.122,-0.034
2.12,-0.098,-0.127,-0.029,0.112,-0.034,-0.078,0.024,0.0,-0.059,-0.063,-0.122,-0.02
2.122,-0.102,-0.127,-0.024,0.117,-0.039,-0.078,0.024,-0.005,-0.068,-0.063,-0.142,-0.029
2.124,-0.093,-0.122,-0.029,0.107,-0.034,-0.078,0.029,-0.005,-0.063,-0.063,-0.127,-0.029
2.126,-0.088,-0.122,-0.034,0.107,-0.029,-0.078,0.034,0.005,-0.059,-0.059,-0.132,-0.024
2.128,-0.098,-0.132,-0.034,0.117,-0.034,-0.083,0.029,0.0,-0.059,-0.063,-0.122,-0.029
2.13,-0.093,-0.122,-0.029,0.107,-0.034,-0.078,0.034,-0.005,-0.063,-0.063,-0.137,-0.039
2.132,-0.098,-0.132,-0.034,0.117,-0.034,-0.083,0.029,0.0,-0.059,-0.059,-0.137,-0.039
2.134,-0.098,-0.137,-0.039,0.117,-0.029,-0.088,0.034,0.0,-0.059,-0.049,-0.137,-0.034
2.136,-0.088,-0.132,-0.044,0.112,-0.024,-0.088,0.029,-0.005,-0.059,-0.059,-0.122,-0.034
2.138,-0.098,-0.137,-0.039,0.117,-0.029,-0.088,0.034,-0.005,-0.059,-0.063,-0.137,-0.034
2.14,-0.083,-0.122,-0.039,0.102,-0.024,-0.083,0.039,0.005,-0.054,-0.059,-0.117,-0.024
2.142,-0.078,-0.122,-0.044,0.102,-0.02,-0.083,0.039,0.005,-0.054,-0.054,-0.127,-0.02
2.144,-0.083,-0.122,-0.039,0.102,-0.024,-0.083,0.034,0.0,-0.054,-0.059,-0.137,-0.029
2.146,-0.083,-0.112,-0.029,0.098,-0.029,-0.073,0.044,0.01,-0.049,-0.054,-0.107,-0.02
2.148,-0.078,-0.117,-0.039,0.098,-0.02,-0.078,0.044,0.01,-0.054,-0.054,-0.102,-0.024
2.15,-0.083,-0.112,-0.029,0.098,-0.029,-0.073,0.039,0.01,-0.054,-0.059,-0.117,-0.024
2.152,-0.078,-0.112,-0.034,0.098,-0.024,-0.073,0.034,0.01,-0.049,-0.063,-0.117,-0.024
2.154,-0.083,-0.122,-0.039,0.102,-0.024,-0.083,0.034,0.015,-0.049,-0.059,-0.127,-0.02
2.156,-0.083,-0.117,-0.034,0.102,-0.024,-0.078,0.034,0.01,-0.039,-0.054,-0.122,-0.029
2.158,-0.088,-0.117,-0.029,0.102,-0.029,-0.073,0.039,0.02,-0.039,-0.054,-0.127,-0.029
2.16,-0.088,-0.117,-0.029,0.102,-0.029,-0.073,0.039,0.015,-0.039,-0.054,-0.122,-0.029
2.162,-0.078,-0.112,-0.034,0.098,-0.024,-0.073,0.044,0.02,-0.039,-0.039,-0.122,-0.024
2.164,-0.078,-0.112,-0.034,0.098,-0.024,-0.073,0.039,0.02,-0.039,-0.044,-0.122,-0.015
2.166,-0.068,-0.102,-0.034,0.088,-0.02,-0.068,0.044,0.02,-0.039,-0.044,-0.117,-0.029
2.168,-0.063,-0.102,-0.039,0.083,-0.015,-0.073,0.044,0.02,-0.034,-0.049,-0.102,-0.029
2.17,-0.078,-0.107,-0.029,0.093,-0.024,-0.068,0.049,0.015,-0.044,-0.049,-0.102,-0.029
2.172,-0.073,-0.107,-0.034,0.093,-0.02,-0.073,0.044,0.02,-0.034,-0.044,-0.107,-0.034
2.174,-0.078,-0.112,-0.034,0.098,-0.024,-0.073,0.049,0.024,-0.039,-0.049,-0.122,-0.029
2.176,-0.078,-0.107,-0.029,0.093,-0.024,-0.068,0.044,0.02,-0.039,-0.054,-0.102,-0.024
2.178,-0.073,-0.102,-0.029,0.088,-0.024,-0.068,0.049,0.029,-0.024,-0.044,-0.112,-0.024
2.18,-0.078,-0.112,-0.034,0.098,-0.024,-0.073,0.049,0.034,-0.024,-0.039,-0.117,-0.024
2.182,-0.073,-0.107,-0.034,0.093,-0.02,-0.073,0.049,0.034,-0.029,-0.039,-0.112,-0.024
2.184,-0.073,-0.098,-0.024,0.088,-0.024,-0.063,0.044,0.039,-0.029,-0.044,-0.102,-0.024
2.186,-0.083,-0.098,-0.015,0.093,-0.034,-0.059,0.054,0.044,-0.024,-0.039,-0.117,-0.024
2.188,-0.059,-0.093,-0.034,0.078,-0.015,-0.063,0.049,0.044,-0.024,-0.039,-0.117,-0.024
2.19,-0.063,-0.088,-0.024,0.078,-0.02,-0.059,0.049,0.039,-0.024,-0.044,-0.122,-0.024
2.192,-0.063,-0.093,-0.029,0.078,-0.02,-0.063,0.044,0.044,-0.029,-0.044,-0.102,-0.029
2.194,-0.063,-0.088,-0.024,0.078,-0.02,-0.059,0.054,0.063,-0.015,-0.034,-0.098,-0.02
2.196,-0.068,-0.093,-0.024,0.083,-0.024,-0.059,0.054,0.068,-0.02,-0.039,-0.112,-0.015
2.198,-0.054,-0.088,-0.034,0.073,-0.01,-0.063,0.044,0.073,-0.02,-0.034,-0.112,-0.01
2.2,-0.054,-0.093,-0.039,0.073,-0.01,-0.068,0.044,0.078,-0.015,-0.034,-0.107,-0.005
2.202,-0.068,-0.098,-0.029,0.083,-0.02,-0.063,0.044,0.083,-0.015,-0.034,-0.117,-0.01
2.204,-0.059,-0.083,-0.024,0.073,-0.02,-0.054,0.044,0.088,-0.015,-0.034,-0.117,-0.024
2.206,-0.059,-0.088,-0.029,0.073,-0.015,-0.059,0.054,0.093,-0.02,-0.039,-0.117,-0.02
2.208,-0.054,-0.083,-0.029,0.068,-0.015,-0.059,0.049,0.088,-0.02,-0.034,-0.117,-0.029
2.21,-0.059,-0.078,-0.02,0.068,-0.02,-0.049,0.049,0.098,-0.01,-0.034,-0.107,-0.024
2.212,-0.073,-0.088,-0.015,0.083,-0.029,-0.054,0.049,0.102,-0.005,-0.029,-0.098,-0.024
2.214,-0.063,-0.083,-0.02,0.073,-0.024,-0.054,0.059,0.112,-0.005,-0.024,-0.088,-0.02
2.216,-0.039,-0.073,-0.034,0.059,-0.005,-0.054,0.059,0.107,-0.005,-0.024,-0.102,-0.024
2.218,-0.054,-0.073,-0.02,0.063,-0.02,-0.049,0.059,0.112,0.005,-0.029,-0.093,-0.024
2.22,-0.049,-0.073,-0.024,0.063,-0.015,-0.049,0.054,0.117,0.01,-0.024,-0.098,-0.02
2.222,-0.054,-0.078,-0.024,0.068,-0.015,-0.054,0.054,0.112,0.005,-0.034,-0.112,-0.02
2.224,-0.059,-0.073,-0.015,0.068,-0.024,-0.044,0.059,0.107,0.01,-0.029,-0.117,-0.02
2.226,-0.054,-0.068,-0.015,0.063,-0.02,-0.044,0.054,0.117,0.015,-0.024,-0.093,-0.015
2.228,-0.054,-0.078,-0.024,0.068,-0.015,-0.054,0.044,0.112,0.015,-0.024,-0.093,-0.02
2.23,-0.059,-0.073,-0.015,0.068,-0.024,-0.044,0.044,0.112,0.015,-0.029,-0.098,-0.02
2.232,-0.054,-0.073,-0.02,0.063,-0.02,-0.049,0.044,0.117,0.02,-0.029,-0.102,-0.024
2.234,-0.059,-0.073,-0.015,0.068,-0.024,-0.044,0.049,0.122,0.024,-0.02,-0.098,-0.02
2.236,-0.054,-0.063,-0.01,0.059,-0.024,-0.039,0.049,0.127,0.034,-0.015,-0.088,0.005
2.238,-0.059,-0.068,-0.01,0.063,-0.024,-0.039,0.054,0.151,0.039,-0.01,-0.068,0.0
2.24,-0.059,-0.073,-0.015,0.068,-0.024,-0.044,0.054,0.151,0.034,-0.01,-0.054,-0.005
2.242,-0.049,-0.063,-0.015,0.059,-0.02,-0.039,0.059,0.151,0.039,-0.015,-0.073,-0.005
2.244,-0.059,-0.063,-0.005,0.063,-0.029,-0.034,0.044,0.146,0.039,-0.02,-0.093,-0.015
2.246,-0.054,-0.059,-0.005,0.059,-0.024,-0.034,0.054,0.156,0.039,-0.01,-0.083,-0.005
2.248,-0.054,-0.059,-0.005,0.059,-0.024,-0.034,0.059,0.161,0.049,0.0,-0.083,0.0
2.25,-0.063,-0.059,0.005,0.063,-0.034,-0.029,0.049,0.161,0.054,-0.005,-0.093,-0.01
2.252,-0.054,-0.054,0.0,0.054,-0.029,-0.029,0.054,0.161,0.054,0.0,-0.078,-0.015
2.254,-0.063,-0.054,0.01,0.059,-0.039,-0.024,0.059,0.171,0.059,0.0,-0.034,-0.005
2.256,-0.068,-0.049,0.02,0.059,-0.044,-0.015,0.054,0.176,0.063,0.01,-0.054,-0.005
2.258,-0.049,-0.039,0.01,0.044,-0.029,-0.015,0.054,0.181,0.068,0.01,-0.063,-0.01
2.26,-0.044,-0.044,0.0,0.044,-0.024,-0.024,0.049,0.185,0.068,0.01,-0.054,-0.005
2.262,-0.049,-0.034,0.015,0.044,-0.034,-0.01,0.049,0.185,0.068,0.015,-0.054,0.0
2.264,-0.044,-0.029,0.015,0.039,-0.029,-0.01,0.059,0.195,0.078,0.02,-0.049,0.005
2.266,-0.054,-0.034,0.02,0.044,-0.039,-0.01,0.063,0.195,0.078,0.02,-0.059,0.01
2.268,-0.044,-0.029,0.015,0.039,-0.029,-0.01,0.054,0.2,0.078,0.015,-0.063,0.01
2.27,-0.059,-0.029,0.029,0.044,-0.044,0.0,0.059,0.21,0.083,0.02,-0.063,0.015
2.272,-0.063,-0.034,0.029,0.049,-0.049,-0.005,0.059,0.21,0.088,0.024,-0.054,0.015
2.274,-0.059,-0.024,0.034,0.044,-0.049,0.005,0.063,0.21,0.093,0.024,-0.02,0.02
2.276,-0.049,-0.02,0.029,0.034,-0.039,0.005,0.054,0.205,0.083,0.02,-0.015,0.02
2.278,-0.044,-0.01,0.034,0.029,-0.039,0.01,0.054,0.22,0.088,0.02,-0.02,0.029
2.28,-0.039,-0.01,0.029,0.024,-0.034,0.01,0.059,0.22,0.088,0.024,-0.039,0.034
2.282,-0.039,-0.01,0.029,0.024,-0.034,0.01,0.049,0.22,0.088,0.02,-0.054,0.034
2.284,-0.029,0.005,0.034,0.015,-0.034,0.02,0.049,0.215,0.088,0.02,-0.049,0.029
2.286,-0.034,0.01,0.044,0.015,-0.039,0.024,0.054,0.224,0.088,0.024,-0.029,0.034
2.288,-0.034,0.005,0.039,0.015,-0.039,0.02,0.049,0.224,0.093,0.029,-0.034,0.039
2.29,-0.034,0.015,0.049,0.01,-0.044,0.029,0.044,0.229,0.088,0.02,-0.044,0.039
2.292,-0.044,0.01,0.054,0.02,-0.049,0.029,0.044,0.22,0.083,0.024,-0.02,0.034
2.294,-0.039,0.015,0.054,0.015,-0.049,0.034,0.044,0.224,0.088,0.024,-0.039,0.029
2.296,-0.039,0.02,0.059,0.01,-0.049,0.039,0.044,0.224,0.083,0.02,-0.024,0.039
2.298,-0.039,0.015,0.054,0.015,-0.049,0.034,0.039,0.224,0.073,0.015,-0.029,0.039
2.3,-0.039,0.024,0.063,0.01,-0.054,0.044,0.044,0.229,0.083,0.024,-0.034,0.044
2.302,-0.039,0.029,0.068,0.005,-0.054,0.049,0.039,0.229,0.083,0.02,-0.015,0.049
2.304,-0.039,0.039,0.078,0.0,-0.059,0.059,0.044,0.229,0.083,0.024,-0.02,0.049
2.306,-0.034,0.044,0.078,-0.005,-0.059,0.059,0.044,0.229,0.083,0.02,-0.024,0.049
2.308,-0.044,0.039,0.083,0.005,-0.063,0.059,0.044,0.224,0.078,0.02,-0.039,0.054
2.31,-0.039,0.049,0.088,-0.005,-0.063,0.068,0.039,0.224,0.078,0.015,-0.049,0.049
2.312,-0.034,0.044,0.078,-0.005,-0.059,0.059,0.034,0.21,0.078,0.015,-0.024,0.044
2.314,-0.039,0.039,0.078,0.0,-0.059,0.059,0.039,0.22,0.078,0.02,-0.024,0.049
2.316,-0.044,0.049,0.093,0.0,-0.068,0.068,0.039,0.21,0.078,0.015,-0.044,0.059
2.318,-0.059,0.044,0.102,0.01,-0.083,0.073,0.039,0.215,0.083,0.02,-0.039,0.063
2.32,-0.049,0.044,0.093,0.005,-0.073,0.068,0.034,0.2,0.073,0.015,-0.015,0.059
2.322,-0.039,0.054,0.093,-0.005,-0.068,0.073,0.034,0.205,0.073,0.024,-0.015,0.063
2.324,-0.039,0.059,0.098,-0.01,-0.068,0.078,0.029,0.19,0.054,0.015,-0.049,0.059
2.326,-0.039,0.068,0.107,-0.015,-0.073,0.088,0.034,0.195,0.063,0.015,-0.024,0.063
2.328,-0.044,0.068,0.112,-0.01,-0.078,0.088,0.029,0.181,0.049,0.01,-0.02,0.063
2.33,-0.049,0.073,0.122,-0.01,-0.088,0.098,0.024,0.171,0.044,0.005,-0.029,0.059
2.332,-0.039,0.078,0.117,-0.02,-0.078,0.098,0.024,0.166,0.049,0.005,-0.005,0.059
2.334,-0.034,0.073,0.107,-0.02,-0.073,0.088,0.024,0.156,0.044,0.005,-0.039,0.063
2.336,-0.039,0.068,0.107,-0.015,-0.073,0.088,0.024,0.146,0.044,0.005,-0.034,0.073
2.338,-0.039,0.073,0.112,-0.015,-0.078,0.093,0.015,0.137,0.034,-0.005,-0.039,0.068
2.34,-0.044,0.063,0.107,-0.01,-0.078,0.083,0.015,0.132,0.034,0.0,-0.034,0.073
2.342,-0.034,0.073,0.107,-0.02,-0.073,0.088,0.01,0.127,0.034,0.0,-0.034,0.078
2.344,-0.039,0.073,0.112,-0.015,-0.078,0.093,0.005,0.117,0.039,0.005,-0.015,0.073
2.346,-0.039,0.078,0.117,-0.02,-0.078,0.098,0.005,0.112,0.039,0.01,-0.02,0.073
2.348,-0.024,0.078,0.102,-0.024,-0.063,0.088,0.0,0.107,0.039,0.01,-0.029,0.078
2.35,-0.02,0.073,0.093,-0.024,-0.059,0.083,-0.005,0.093,0.034,0.005,-0.034,0.073
2.352,-0.024,0.068,0.093,-0.02,-0.059,0.078,0.0,0.098,0.039,0.015,-0.02,0.073
2.354,-0.02,0.063,0.083,-0.02,-0.054,0.073,-0.005,0.098,0.039,0.02,-0.015,0.078
2.356,-0.02,0.049,0.068,-0.015,-0.044,0.059,-0.005,0.083,0.039,0.02,-0.02,0.073
2.358,-0.02,0.044,0.063,-0.01,-0.044,0.054,-0.01,0.078,0.039,0.024,-0.024,0.073
2.36,-0.039,0.029,0.068,0.005,-0.054,0.049,-0.005,0.073,0.039,0.024,-0.024,0.073
2.362,-0.044,0.02,0.063,0.015,-0.054,0.039,-0.005,0.073,0.039,0.02,-0.015,0.073
2.364,-0.029,0.02,0.049,0.005,-0.039,0.034,-0.01,0.059,0.034,0.02,-0.005,0.068
2.366,-0.024,0.005,0.029,0.01,-0.029,0.015,-0.015,0.049,0.029,0.02,-0.024,0.068
2.368,-0.029,-0.005,0.024,0.02,-0.029,0.01,-0.01,0.039,0.024,0.02,0.0,0.054
2.37,-0.034,-0.015,0.02,0.024,-0.029,0.0,-0.01,0.039,0.024,0.02,-0.005,0.054
2.372,-0.034,-0.02,0.015,0.029,-0.024,-0.005,-0.02,0.029,0.02,0.01,-0.024,0.039
2.374,-0.024,-0.015,0.01,0.02,-0.02,-0.005,-0.02,0.024,0.02,0.015,-0.024,0.044
2.376,-0.034,-0.02,0.015,0.029,-0.024,-0.005,-0.01,0.02,0.02,0.01,-0.024,0.034
2.378,-0.034,-0.029,0.005,0.034,-0.02,-0.015,-0.02,0.015,0.015,0.005,-0.044,0.024
2.38,-0.039,-0.039,0.0,0.039,-0.02,-0.02,-0.02,0.005,0.015,0.005,-0.049,0.029
2.382,-0.054,-0.049,0.005,0.054,-0.029,-0.024,-0.024,0.005,0.005,-0.005,-0.063,0.024
2.384,-0.054,-0.049,0.005,0.054,-0.029,-0.024,-0.02,-0.005,0.005,-0.005,-0.063,0.02
2.386,-0.049,-0.054,-0.005,0.054,-0.024,-0.029,-0.02,-0.005,0.0,-0.005,-0.034,0.015
2.388,-0.063,-0.068,-0.005,0.068,-0.029,-0.039,-0.024,-0.015,-0.01,-0.01,-0.01,0.01
2.39,-0.063,-0.068,-0.005,0.068,-0.029,-0.039,-0.02,-0.024,-0.01,-0.005,-0.049,0.01
2.392,-0.063,-0.068,-0.005,0.068,-0.029,-0.039,-0.024,-0.029,-0.01,-0.015,-0.073,0.0
2.394,-0.059,-0.068,-0.01,0.063,-0.024,-0.039,-0.02,-0.024,-0.01,0.005,-0.044,0.005
2.396,-0.054,-0.068,-0.015,0.063,-0.02,-0.044,-0.01,-0.024,-0.01,0.0,-0.059,0.005
2.398,-0.068,-0.073,-0.005,0.073,-0.034,-0.039,-0.015,-0.024,-0.02,-0.015,-0.044,0.0
2.4,-0.059,-0.073,-0.015,0.068,-0.024,-0.044,-0.015,-0.034,-0.02,-0.015,-0.059,0.0
2.402,-0.054,-0.068,-0.015,0.063,-0.02,-0.044,-0.01,-0.024,-0.015,-0.01,-0.063,0.01
2.404,-0.063,-0.073,-0.01,0.068,-0.029,-0.044,-0.01,-0.034,-0.02,-0.015,-0.088,0.0
2.406,-0.063,-0.073,-0.01,0.068,-0.029,-0.044,-0.005,-0.034,-0.02,-0.02,-0.083,0.0
2.408,-0.068,-0.078,-0.01,0.073,-0.029,-0.044,-0.01,-0.044,-0.024,-0.029,-0.088,-0.005
2.41,-0.068,-0.083,-0.015,0.078,-0.029,-0.049,-0.01,-0.039,-0.02,-0.02,-0.088,-0.01
2.412,-0.068,-0.078,-0.01,0.073,-0.029,-0.044,-0.005,-0.039,-0.024,-0.02,-0.088,-0.02
2.414,-0.068,-0.078,-0.01,0.073,-0.029,-0.044,-0.015,-0.044,-0.029,-0.029,-0.078,-0.02
2.416,-0.063,-0.083,-0.02,0.073,-0.024,-0.054,-0.01,-0.039,-0.024,-0.024,-0.083,-0.01
2.418,-0.068,-0.083,-0.015,0.078,-0.029,-0.049,-0.01,-0.039,-0.034,-0.029,-0.083,-0.015
2.42,-0.059,-0.083,-0.024,0.073,-0.02,-0.054,-0.015,-0.044,-0.034,-0.02,-0.078,-0.015
2.422,-0.049,-0.068,-0.02,0.059,-0.015,-0.044,-0.015,-0.039,-0.034,-0.02,-0.068,-0.015
2.424,-0.054,-0.068,-0.015,0.063,-0.02,-0.044,-0.015,-0.044,-0.029,-0.02,-0.068,-0.015
2.426,-0.054,-0.073,-0.02,0.063,-0.02,-0.049,-0.02,-0.044,-0.039,-0.024,-0.088,-0.024
2.428,-0.059,-0.078,-0.02,0.068,-0.02,-0.049,-0.005,-0.039,-0.029,-0.02,-0.083,-0.02
2.43,-0.068,-0.083,-0.015,0.078,-0.029,-0.049,-0.005,-0.044,-0.029,-0.02,-0.068,-0.024
2.432,-0.063,-0.078,-0.015,0.073,-0.024,-0.049,-0.01,-0.049,-0.034,-0.02,-0.088,-0.029
2.434,-0.063,-0.088,-0.024,0.078,-0.02,-0.059,-0.01,-0.044,-0.029,-0.024,-0.083,-0.024
2.436,-0.073,-0.098,-0.024,0.088,-0.024,-0.063,-0.005,-0.044,-0.024,-0.02,-0.063,-0.02
2.438,-0.068,-0.088,-0.02,0.078,-0.024,-0.054,-0.01,-0.039,-0.024,-0.02,-0.078,-0.02
2.44,-0.063,-0.088,-0.024,0.078,-0.02,-0.059,-0.005,-0.039,-0.029,-0.02,-0.083,-0.015
2.442,-0.054,-0.083,-0.029,0.068,-0.015,-0.059,-0.015,-0.039,-0.029,-0.029,-0.083,-0.015
2.444,-0.049,-0.078,-0.029,0.063,-0.01,-0.054,-0.005,-0.029,-0.024,-0.02,-0.073,-0.02
2.446,-0.063,-0.083,-0.02,0.073,-0.024,-0.054,-0.01,-0.024,-0.034,-0.024,-0.093,-0.024
2.448,-0.073,-0.088,-0.015,0.083,-0.029,-0.054,-0.005,-0.024,-0.029,-0.015,-0.088,-0.01
2.45,-0.068,-0.083,-0.015,0.078,-0.029,-0.049,-0.01,-0.029,-0.034,-0.02,-0.098,-0.015
2.452,-0.063,-0.083,-0.02,0.073,-0.024,-0.054,-0.01,-0.029,-0.034,-0.02,-0.093,-0.034
2.454,-0.059,-0.083,-0.024,0.073,-0.02,-0.054,-0.005,-0.024,-0.024,-0.02,-0.083,-0.024
2.456,-0.068,-0.088,-0.02,0.078,-0.024,-0.054,-0.005,-0.02,-0.029,-0.02,-0.098,-0.024
2.458,-0.068,-0.083,-0.015,0.078,-0.029,-0.049,-0.005,-0.02,-0.034,-0.02,-0.093,-0.024
2.46,-0.049,-0.078,-0.029,0.063,-0.01,-0.054,-0.005,-0.024,-0.039,-0.02,-0.093,-0.024
2.462,-0.068,-0.078,-0.01,0.073,-0.029,-0.044,0.0,-0.015,-0.029,-0.02,-0.068,-0.005
2.464,-0.068,-0.073,-0.005,0.073,-0.034,-0.039,0.005,-0.01,-0.024,-0.015,-0.059,-0.02
2.466,-0.068,-0.073,-0.005,0.073,-0.034,-0.039,0.0,-0.005,-0.029,-0.02,-0.093,-0.024
2.468,-0.063,-0.078,-0.015,0.073,-0.024,-0.049,-0.005,-0.01,-0.039,-0.029,-0.102,-0.029
2.47,-0.054,-0.068,-0.015,0.063,-0.02,-0.044,-0.005,0.0,-0.034,-0.024,-0.098,-0.029
2.472,-0.059,-0.073,-0.015,0.068,-0.024,-0.044,0.0,0.005,-0.034,-0.02,-0.088,-0.024
2.474,-0.059,-0.078,-0.02,0.068,-0.02,-0.049,0.005,0.0,-0.034,-0.024,-0.083,-0.024
2.476,-0.054,-0.078,-0.024,0.068,-0.015,-0.054,0.005,0.005,-0.034,-0.02,-0.059,-0.02
2.478,-0.063,-0.078,-0.015,0.073,-0.024,-0.049,0.0,0.0,-0.044,-0.024,-0.088,-0.02
2.48,-0.054,-0.068,-0.015,0.063,-0.02,-0.044,0.0,0.0,-0.039,-0.02,-0.059,-0.024
2.482,-0.044,-0.073,-0.029,0.059,-0.01,-0.054,0.0,0.0,-0.034,-0.02,-0.073,-0.02
2.484,-0.049,-0.063,-0.015,0.059,-0.02,-0.039,0.0,0.005,-0.044,-0.02,-0.088,-0.024
2.486,-0.049,-0.059,-0.01,0.054,-0.02,-0.034,0.005,0.015,-0.029,-0.015,-0.093,-0.02
2.488,-0.054,-0.068,-0.015,0.063,-0.02,-0.044,0.005,0.015,-0.034,-0.02,-0.102,-0.005
2.49,-0.049,-0.059,-0.01,0.054,-0.02,-0.034,0.005,0.015,-0.034,-0.015,-0.093,-0.02
2.492,-0.039,-0.049,-0.01,0.044,-0.015,-0.029,0.01,0.024,-0.034,-0.01,-0.088,-0.02
2.494,-0.044,-0.059,-0.015,0.054,-0.015,-0.039,0.01,0.024,-0.029,-0.015,-0.078,-0.005
2.496,-0.044,-0.059,-0.015,0.054,-0.015,-0.039,0.01,0.02,-0.02,-0.015,-0.088,-0.005
2.498,-0.049,-0.059,-0.01,0.054,-0.02,-0.034,0.01,0.024,-0.02,-0.015,-0.093,-0.02
2.5,-0.054,-0.063,-0.01,0.059,-0.024,-0.039,0.01,0.024,-0.015,-0.015,-0.098,-0.02
2.502,-0.049,-0.059,-0.01,0.054,-0.02,-0.034,0.015,0.034,-0.015,-0.01,-0.073,-0.01
2.504,-0.054,-0.063,-0.01,0.059,-0.024,-0.039,0.01,0.029,-0.015,-0.005,-0.078,-0.015
2.506,-0.059,-0.063,-0.005,0.063,-0.029,-0.034,0.01,0.034,-0.015,-0.005,-0.083,-0.015
2.508,-0.054,-0.068,-0.015,0.063,-0.02,-0.044,0.02,0.034,-0.01,-0.005,-0.073,-0.01
2.51,-0.054,-0.068,-0.015,0.063,-0.02,-0.044,0.015,0.034,-0.01,-0.005,-0.068,0.0
2.512,-0.044,-0.059,-0.015,0.054,-0.015,-0.039,0.015,0.034,-0.015,-0.005,-0.078,-0.02
2.514,-0.044,-0.063,-0.02,0.054,-0.015,-0.044,0.02,0.039,-0.01,-0.005,-0.073,-0.01
2.516,-0.044,-0.059,-0.015,0.054,-0.015,-0.039,0.015,0.029,-0.02,-0.01,-0.093,-0.015
2.518,-0.039,-0.054,-0.015,0.049,-0.015,-0.034,0.01,0.039,-0.015,-0.005,-0.083,-0.01
2.52,-0.049,-0.063,-0.015,0.059,-0.02,-0.039,0.01,0.034,-0.02,-0.01,-0.083,-0.015
2.522,-0.049,-0.063,-0.015,0.059,-0.02,-0.039,0.015,0.034,-0.01,-0.005,-0.083,-0.01
2.524,-0.049,-0.059,-0.01,0.054,-0.02,-0.034,0.01,0.029,-0.015,-0.005,-0.088,-0.015
2.526,-0.059,-0.063,-0.005,0.063,-0.029,-0.034,0.01,0.029,-0.015,-0.01,-0.083,-0.015
2.528,-0.049,-0.063,-0.015,0.059,-0.02,-0.039,0.01,0.024,-0.01,-0.01,-0.088,-0.015
2.53,-0.049,-0.059,-0.01,0.054,-0.02,-0.034,0.01,0.029,-0.005,0.0,-0.073,-0.01
2.532,-0.044,-0.059,-0.015,0.054,-0.015,-0.039,0.005,0.02,-0.01,-0.01,-0.083,-0.02
2.534,-0.029,-0.059,-0.029,0.044,0.0,-0.044,0.01,0.029,-0.005,-0.005,-0.083,-0.015
2.536,-0.039,-0.059,-0.02,0.049,-0.01,-0.039,0.01,0.029,-0.01,-0.005,-0.078,-0.02
2.538,-0.034,-0.059,-0.024,0.049,-0.005,-0.044,0.01,0.034,-0.01,-0.005,-0.068,-0.015
2.54,-0.029,-0.054,-0.024,0.044,-0.005,-0.039,0.01,0.029,-0.01,-0.005,-0.083,-0.015
2.542,-0.039,-0.063,-0.024,0.054,-0.01,-0.044,0.015,0.034,-0.015,-0.005,-0.083,-0.015
2.544,-0.034,-0.059,-0.024,0.049,-0.005,-0.044,0.02,0.034,-0.01,-0.005,-0.068,-0.01
2.546,-0.044,-0.059,-0.015,0.054,-0.015,-0.039,0.01,0.029,-0.02,-0.01,-0.044,-0.02
2.548,-0.049,-0.063,-0.015,0.059,-0.02,-0.039,0.01,0.024,-0.02,-0.005,-0.068,-0.015
2.55,-0.039,-0.059,-0.02,0.049,-0.01,-0.039,0.01,0.024,-0.02,-0.01,-0.083,-0.015
2.552,-0.039,-0.054,-0.015,0.049,-0.015,-0.034,0.01,0.02,-0.02,-0.01,-0.068,-0.02
2.554,-0.029,-0.049,-0.02,0.039,-0.005,-0.034,0.01,0.024,-0.015,-0.005,-0.068,-0.015
2.556,-0.034,-0.054,-0.02,0.044,-0.01,-0.039,0.01,0.02,-0.02,-0.01,-0.063,-0.015
2.558,-0.039,-0.059,-0.02,0.049,-0.01,-0.039,0.01,0.024,-0.015,-0.005,-0.059,0.005
2.56,-0.029,-0.044,-0.015,0.039,-0.01,-0.029,0.01,0.02,-0.02,-0.005,-0.054,-0.01
2.562,-0.029,-0.049,-0.02,0.039,-0.005,-0.034,0.01,0.02,-0.02,-0.005,-0.063,-0.01
2.564,-0.024,-0.054,-0.029,0.039,0.0,-0.044,0.005,0.02,-0.02,-0.005,-0.068,-0.015
2.566,-0.039,-0.059,-0.02,0.049,-0.01,-0.039,0.01,0.02,-0.024,-0.01,-0.078,-0.015
2.568,-0.049,-0.068,-0.02,0.059,-0.015,-0.044,0.0,0.01,-0.024,-0.015,-0.073,-0.024
2.57,-0.049,-0.063,-0.015,0.059,-0.02,-0.039,0.01,0.01,-0.029,-0.02,-0.063,-0.024
2.572,-0.049,-0.068,-0.02,0.059,-0.015,-0.044,0.01,0.02,-0.029,-0.015,-0.068,-0.024
2.574,-0.044,-0.063,-0.02,0.054,-0.015,-0.044,-0.005,0.005,-0.039,-0.024,-0.093,-0.029
2.576,-0.039,-0.063,-0.024,0.054,-0.01,-0.044,-0.005,0.005,-0.034,-0.024,-0.083,-0.029
2.578,-0.039,-0.059,-0.02,0.049,-0.01,-0.039,0.0,0.01,-0.034,-0.02,-0.073,-0.015
2.58,-0.039,-0.063,-0.024,0.054,-0.01,-0.044,-0.005,0.005,-0.034,-0.02,-0.083,-0.02
2.582,-0.024,-0.054,-0.029,0.039,0.0,-0.044,-0.005,0.0,-0.039,-0.02,-0.093,-0.024
2.584,-0.039,-0.059,-0.02,0.049,-0.01,-0.039,-0.005,0.0,-0.044,-0.034,-0.078,-0.029
2.586,-0.049,-0.059,-0.01,0.054,-0.02,-0.034,-0.005,0.005,-0.034,-0.029,-0.073,-0.024
2.588,-0.049,-0.063,-0.015,0.059,-0.02,-0.039,-0.01,-0.005,-0.039,-0.034,-0.093,-0.024
2.59,-0.054,-0.068,-0.015,0.063,-0.02,-0.044,-0.01,-0.005,-0.044,-0.039,-0.088,-0.029
2.592,-0.044,-0.068,-0.024,0.059,-0.01,-0.049,-0.01,-0.005,-0.044,-0.029,-0.083,-0.029
2.594,-0.049,-0.073,-0.024,0.063,-0.015,-0.049,-0.01,-0.005,-0.039,-0.029,-0.068,-0.029
2.596,-0.049,-0.073,-0.024,0.063,-0.015,-0.049,-0.01,-0.01,-0.039,-0.029,-0.073,-0.029
2.598,-0.044,-0.068,-0.024,0.059,-0.01,-0.049,-0.01,-0.01,-0.039,-0.029,-0.093,-0.029
2.6,-0.049,-0.063,-0.015,0.059,-0.02,-0.039,-0.015,-0.01,-0.039,-0.029,-0.078,-0.029
2.602,-0.034,-0.054,-0.02,0.044,-0.01,-0.039,-0.01,-0.01,-0.039,-0.029,-0.063,-0.024
2.604,-0.039,-0.059,-0.02,0.049,-0.01,-0.039,-0.015,-0.01,-0.044,-0.029,-0.098,-0.034
2.606,-0.039,-0.059,-0.02,0.049,-0.01,-0.039,-0.015,-0.01,-0.044,-0.034,-0.098,-0.044
2.608,-0.034,-0.054,-0.02,0.044,-0.01,-0.039,-0.005,-0.01,-0.039,-0.024,-0.078,-0.029
2.61,-0.039,-0.059,-0.02,0.049,-0.01,-0.039,-0.005,-0.01,-0.044,-0.034,-0.068,-0.039
2.612,-0.044,-0.063,-0.02,0.054,-0.015,-0.044,-0.01,-0.005,-0.044,-0.029,-0.073,-0.044
2.614,-0.039,-0.059,-0.02,0.049,-0.01,-0.039,-0.015,-0.01,-0.039,-0.034,-0.068,-0.039
2.616,-0.044,-0.068,-0.024,0.059,-0.01,-0.049,-0.015,-0.015,-0.039,-0.034,-0.088,-0.034
2.618,-0.039,-0.063,-0.024,0.054,-0.01,-0.044,-0.01,-0.005,-0.039,-0.029,-0.073,-0.029
2.62,-0.034,-0.068,-0.034,0.054,0.0,-0.054,-0.01,-0.01,-0.039,-0.029,-0.059,-0.034
2.622,-0.029,-0.063,-0.034,0.049,0.0,-0.049,-0.015,-0.015,-0.044,-0.034,-0.078,-0.034
2.624,-0.024,-0.054,-0.029,0.039,0.0,-0.044,-0.02,-0.015,-0.044,-0.034,-0.093,-0.039
2.626,-0.029,-0.059,-0.029,0.044,0.0,-0.044,-0.02,-0.01,-0.044,-0.034,-0.102,-0.044
2.628,-0.024,-0.059,-0.034,0.044,0.005,-0.049,-0.02,-0.02,-0.044,-0.034,-0.102,-0.044
2.63,-0.024,-0.054,-0.029,0.039,0.0,-0.044,-0.02,-0.015,-0.044,-0.034,-0.083,-0.039
2.632,-0.034,-0.059,-0.024,0.049,-0.005,-0.044,-0.02,-0.015,-0.049,-0.034,-0.083,-0.044
2.634,-0.034,-0.059,-0.024,0.049,-0.005,-0.044,-0.015,-0.02,-0.044,-0.039,-0.088,-0.044
2.636,-0.034,-0.059,-0.024,0.049,-0.005,-0.044,-0.02,-0.024,-0.049,-0.039,-0.107,-0.044
2.638,-0.034,-0.059,-0.024,0.049,-0.005,-0.044,-0.02,-0.02,-0.049,-0.039,-0.098,-0.049
2.64,-0.024,-0.054,-0.029,0.039,0.0,-0.044,-0.02,-0.02,-0.049,-0.034,-0.083,-0.039
2.642,-0.024,-0.059,-0.034,0.044,0.005,-0.049,-0.024,-0.029,-0.054,-0.044,-0.093,-0.034
2.644,-0.029,-0.063,-0.034,0.049,0.0,-0.049,-0.02,-0.024,-0.054,-0.039,-0.088,-0.044
2.646,-0.024,-0.054,-0.029,0.039,0.0,-0.044,-0.024,-0.024,-0.049,-0.039,-0.102,-0.049
2.648,-0.024,-0.063,-0.039,0.044,0.005,-0.054,-0.024,-0.029,-0.049,-0.039,-0.102,-0.049
2.65,-0.02,-0.049,-0.029,0.034,0.005,-0.039,-0.024,-0.024,-0.054,-0.039,-0.102,-0.049
2.652,-0.015,-0.049,-0.034,0.034,0.01,-0.044,-0.024,-0.024,-0.049,-0.039,-0.098,-0.044
2.654,-0.015,-0.049,-0.034,0.034,0.01,-0.044,-0.024,-0.029,-0.054,-0.044,-0.093,-0.049
2.656,-0.01,-0.049,-0.039,0.029,0.015,-0.044,-0.029,-0.029,-0.059,-0.044,-0.088,-0.054
2.658,-0.029,-0.059,-0.029,0.044,0.0,-0.044,-0.034,-0.029,-0.059,-0.044,-0.098,-0.059
2.66,-0.02,-0.049,-0.029,0.034,0.005,-0.039,-0.034,-0.034,-0.059,-0.044,-0.093,-0.054
2.662,-0.01,-0.049,-0.039,0.029,0.015,-0.044,-0.034,-0.034,-0.059,-0.044,-0.078,-0.049
2.664,-0.02,-0.049,-0.029,0.034,0.005,-0.039,-0.044,-0.039,-0.063,-0.049,-0.088,-0.059
2.666,-0.01,-0.049,-0.039,0.029,0.015,-0.044,-0.024,-0.024,-0.049,-0.039,-0.063,-0.049
2.668,-0.015,-0.049,-0.034,0.034,0.01,-0.044,-0.024,-0.029,-0.059,-0.049,-0.083,-0.054
2.67,-0.01,-0.054,-0.044,0.034,0.015,-0.049,-0.029,-0.024,-0.054,-0.039,-0.068,-0.049
2.672,0.0,-0.049,-0.049,0.024,0.024,-0.049,-0.029,-0.029,-0.059,-0.034,-0.073,-0.049
2.674,-0.005,-0.049,-0.044,0.029,0.02,-0.049,-0.034,-0.034,-0.063,-0.044,-0.083,-0.054
2.676,-0.01,-0.044,-0.034,0.029,0.01,-0.039,-0.034,-0.039,-0.054,-0.044,-0.088,-0.049
2.678,0.01,-0.039,-0.049,0.015,0.029,-0.044,-0.039,-0.039,-0.063,-0.049,-0.102,-0.054
2.68,-0.005,-0.044,-0.039,0.024,0.015,-0.044,-0.029,-0.039,-0.063,-0.039,-0.088,-0.044
2.682,-0.005,-0.039,-0.034,0.024,0.015,-0.039,-0.039,-0.039,-0.063,-0.044,-0.093,-0.049
2.684,0.0,-0.044,-0.044,0.024,0.02,-0.044,-0.044,-0.049,-0.068,-0.049,-0.093,-0.054
2.686,0.005,-0.044,-0.049,0.02,0.024,-0.049,-0.049,-0.054,-0.068,-0.049,-0.098,-0.059
2.688,0.005,-0.044,-0.049,0.02,0.024,-0.049,-0.044,-0.049,-0.063,-0.049,-0.063,-0.054
2.69,0.0,-0.044,-0.044,0.024,0.02,-0.044,-0.049,-0.049,-0.063,-0.049,-0.088,-0.054
2.692,0.01,-0.039,-0.049,0.015,0.029,-0.044,-0.044,-0.049,-0.063,-0.044,-0.088,-0.049
2.694,0.005,-0.039,-0.044,0.02,0.024,-0.044,-0.039,-0.049,-0.059,-0.039,-0.073,-0.044
2.696,0.005,-0.039,-0.044,0.02,0.024,-0.044,-0.044,-0.054,-0.059,-0.049,-0.063,-0.054
2.698,0.015,-0.029,-0.044,0.01,0.029,-0.039,-0.049,-0.059,-0.068,-0.049,-0.088,-0.054
2.7,0.015,-0.034,-0.049,0.01,0.029,-0.044,-0.044,-0.054,-0.063,-0.044,-0.063,-0.049
2.702,0.015,-0.029,-0.044,0.01,0.029,-0.039,-0.049,-0.059,-0.063,-0.054,-0.068,-0.054
2.704,0.015,-0.029,-0.044,0.01,0.029,-0.039,-0.049,-0.063,-0.063,-0.049,-0.088,-0.049
2.706,0.01,-0.039,-0.049,0.015,0.029,-0.044,-0.054,-0.068,-0.068,-0.039,-0.088,-0.059
2.708,0.02,-0.029,-0.049,0.005,0.034,-0.039,-0.054,-0.068,-0.063,-0.049,-0.078,-0.054
2.71,0.015,-0.034,-0.049,0.01,0.029,-0.044,-0.049,-0.059,-0.063,-0.054,-0.078,-0.049
2.712,0.0,-0.039,-0.039,0.02,0.02,-0.039,-0.049,-0.063,-0.068,-0.049,-0.063,-0.054
2.714,0.005,-0.039,-0.044,0.02,0.024,-0.044,-0.044,-0.054,-0.063,-0.034,-0.063,-0.049
2.716,0.01,-0.039,-0.049,0.015,0.029,-0.044,-0.044,-0.059,-0.063,-0.034,-0.083,-0.054
2.718,0.01,-0.024,-0.034,0.01,0.02,-0.029,-0.049,-0.068,-0.068,-0.049,-0.078,-0.049
2.72,0.02,-0.02,-0.039,0.0,0.029,-0.029,-0.054,-0.063,-0.059,-0.049,-0.059,-0.039
2.722,0.02,-0.02,-0.039,0.0,0.029,-0.029,-0.059,-0.063,-0.059,-0.054,-0.063,-0.059
2.724,0.029,-0.015,-0.044,-0.005,0.034,-0.029,-0.059,-0.068,-0.063,-0.054,-0.073,-0.059
2.726,0.02,-0.024,-0.044,0.005,0.029,-0.034,-0.044,-0.059,-0.063,-0.049,-0.068,-0.054
2.728,0.02,-0.02,-0.039,0.0,0.029,-0.029,-0.044,-0.063,-0.059,-0.049,-0.093,-0.054
2.73,0.029,-0.005,-0.034,-0.01,0.029,-0.02,-0.039,-0.054,-0.054,-0.044,-0.068,-0.054
2.732,0.024,-0.015,-0.039,-0.005,0.029,-0.029,-0.039,-0.049,-0.049,-0.034,-0.063,-0.049
2.734,0.034,-0.005,-0.039,-0.015,0.034,-0.024,-0.044,-0.054,-0.049,-0.034,-0.063,-0.059
2.736,0.044,0.005,-0.039,-0.024,0.039,-0.02,-0.039,-0.044,-0.044,-0.029,-0.068,-0.049
2.738,0.039,0.015,-0.024,-0.024,0.029,-0.005,-0.029,-0.029,-0.029,-0.02,-0.049,-0.034
2.74,0.059,0.029,-0.029,-0.044,0.044,0.0,-0.029,-0.024,-0.039,-0.015,-0.063,-0.034
2.742,0.068,0.029,-0.039,-0.049,0.054,-0.005,-0.024,-0.024,-0.034,-0.015,-0.059,-0.029
2.744,0.063,0.029,-0.034,-0.044,0.049,-0.005,-0.024,-0.029,-0.029,-0.015,-0.034,-0.029
2.746,0.073,0.039,-0.034,-0.054,0.054,0.0,-0.024,-0.02,-0.024,-0.005,-0.039,-0.01
2.748,0.078,0.044,-0.034,-0.059,0.054,0.005,-0.034,-0.024,-0.024,-0.01,-0.034,-0.024
2.75,0.073,0.044,-0.029,-0.059,0.049,0.005,-0.034,-0.024,-0.029,-0.015,-0.029,-0.034
2.752,0.073,0.044,-0.029,-0.059,0.049,0.005,-0.039,-0.02,-0.02,-0.005,-0.039,-0.02
2.754,0.078,0.049,-0.029,-0.063,0.054,0.01,-0.039,-0.015,-0.01,0.005,-0.029,-0.02
2.756,0.093,0.068,-0.024,-0.078,0.059,0.02,-0.039,-0.01,0.0,0.01,-0.01,-0.01
2.758,0.102,0.073,-0.029,-0.088,0.063,0.02,-0.039,-0.005,0.01,0.015,-0.02,-0.005
2.76,0.112,0.073,-0.039,-0.093,0.073,0.015,-0.044,0.005,0.015,0.024,-0.015,0.0
2.762,0.122,0.083,-0.039,-0.102,0.078,0.02,-0.054,0.005,0.015,0.02,-0.02,0.0
2.764,0.117,0.073,-0.044,-0.093,0.078,0.015,-0.059,0.01,0.015,0.024,-0.005,0.0
2.766,0.122,0.073,-0.049,-0.098,0.083,0.01,-0.054,0.015,0.02,0.024,0.0,0.005
2.768,0.142,0.083,-0.059,-0.112,0.098,0.01,-0.063,0.02,0.024,0.029,-0.005,0.01
2.77,0.137,0.088,-0.049,-0.112,0.093,0.02,-0.068,0.02,0.029,0.034,0.01,0.01
2.772,0.127,0.093,-0.034,-0.107,0.078,0.029,-0.073,0.024,0.034,0.054,0.034,0.024
2.774,0.127,0.093,-0.034,-0.107,0.078,0.029,-0.093,0.005,0.024,0.039,0.034,0.015
2.776,0.122,0.088,-0.034,-0.102,0.078,0.024,-0.098,-0.005,0.024,0.039,0.01,0.015
2.778,0.117,0.083,-0.034,-0.098,0.073,0.024,-0.093,-0.015,0.02,0.034,0.02,0.015
2.78,0.107,0.083,-0.024,-0.093,0.063,0.029,-0.098,-0.02,0.015,0.034,0.015,0.015
2.782,0.117,0.088,-0.029,-0.102,0.073,0.029,-0.102,-0.029,0.015,0.024,0.015,0.01
2.784,0.142,0.083,-0.059,-0.112,0.098,0.01,-0.102,-0.034,0.01,0.024,0.029,0.01
2.786,0.137,0.083,-0.054,-0.107,0.093,0.015,-0.112,-0.039,0.01,0.02,0.015,0.0
2.788,0.142,0.078,-0.063,-0.107,0.102,0.005,-0.107,-0.034,0.01,0.02,0.01,0.01
2.79,0.142,0.073,-0.068,-0.107,0.102,0.0,-0.112,-0.039,0.005,0.015,-0.005,0.005
2.792,0.132,0.068,-0.063,-0.098,0.098,0.0,-0.107,-0.039,0.0,0.02,-0.01,0.005
2.794,0.122,0.059,-0.063,-0.088,0.093,-0.005,-0.102,-0.044,0.0,0.015,-0.01,0.0
2.796,0.107,0.044,-0.063,-0.073,0.083,-0.01,-0.107,-0.059,-0.015,0.0,-0.02,-0.01
2.798,0.117,0.039,-0.078,-0.078,0.098,-0.02,-0.117,-0.073,-0.029,-0.01,-0.029,-0.02
2.8,0.122,0.039,-0.083,-0.078,0.102,-0.024,-0.127,-0.088,-0.044,-0.02,-0.044,-0.029
2.802,0.102,0.024,-0.078,-0.063,0.088,-0.029,-0.127,-0.102,-0.063,-0.034,-0.054,-0.039
2.804,0.088,0.024,-0.063,-0.054,0.073,-0.02,-0.117,-0.093,-0.059,-0.029,-0.049,-0.034
2.806,0.093,0.024,-0.068,-0.059,0.078,-0.024,-0.112,-0.093,-0.059,-0.034,-0.044,-0.029
2.808,0.098,0.029,-0.068,-0.063,0.083,-0.02,-0.112,-0.093,-0.059,-0.034,-0.034,-0.034
2.81,0.098,0.039,-0.059,-0.068,0.078,-0.01,-0.102,-0.083,-0.049,-0.024,0.0,-0.029
2.812,0.088,0.039,-0.049,-0.063,0.068,-0.005,-0.107,-0.088,-0.049,-0.024,-0.029,-0.039
2.814,0.093,0.034,-0.059,-0.063,0.073,-0.015,-0.107,-0.093,-0.054,-0.034,-0.049,-0.044
2.816,0.093,0.024,-0.068,-0.059,0.078,-0.024,-0.107,-0.102,-0.059,-0.044,-0.059,-0.054
2.818,0.083,0.02,-0.063,-0.049,0.073,-0.024,-0.122,-0.107,-0.068,-0.054,-0.049,-0.063
2.82,0.078,0.02,-0.059,-0.049,0.068,-0.02,-0.117,-0.102,-0.068,-0.049,-0.059,-0.063
2.822,0.068,0.01,-0.059,-0.039,0.063,-0.024,-0.117,-0.107,-0.078,-0.059,-0.073,-0.068
2.824,0.063,0.01,-0.054,-0.034,0.059,-0.024,-0.127,-0.122,-0.083,-0.063,-0.063,-0.073
2.826,0.054,0.01,-0.044,-0.029,0.049,-0.02,-0.122,-0.127,-0.088,-0.063,-0.068,-0.078
2.828,0.044,0.0,-0.044,-0.02,0.044,-0.024,-0.117,-0.132,-0.098,-0.073,-0.088,-0.083
2.83,0.054,0.005,-0.049,-0.029,0.049,-0.024,-0.117,-0.137,-0.102,-0.073,-0.088,-0.088
2.832,0.054,0.005,-0.049,-0.029,0.049,-0.024,-0.117,-0.137,-0.102,-0.078,-0.088,-0.088
2.834,0.044,0.0,-0.044,-0.02,0.044,-0.024,-0.117,-0.132,-0.098,-0.073,-0.083,-0.088
2.836,0.044,0.01,-0.034,-0.024,0.039,-0.015,-0.112,-0.132,-0.093,-0.068,-0.068,-0.083
2.838,0.039,0.01,-0.029,-0.024,0.034,-0.01,-0.117,-0.137,-0.102,-0.073,-0.073,-0.073
2.84,0.044,0.01,-0.034,-0.024,0.039,-0.015,-0.117,-0.132,-0.098,-0.073,-0.063,-0.083
2.842,0.044,0.01,-0.034,-0.024,0.039,-0.015,-0.112,-0.137,-0.098,-0.073,-0.068,-0.083
2.844,0.039,0.005,-0.034,-0.02,0.034,-0.015,-0.122,-0.146,-0.102,-0.088,-0.073,-0.093
2.846,0.039,0.01,-0.029,-0.024,0.034,-0.01,-0.112,-0.146,-0.098,-0.083,-0.054,-0.093
2.848,0.029,-0.005,-0.034,-0.01,0.029,-0.02,-0.112,-0.146,-0.102,-0.078,-0.073,-0.088
2.85,0.029,-0.005,-0.034,-0.01,0.029,-0.02,-0.112,-0.151,-0.102,-0.083,-0.068,-0.088
2.852,0.034,0.005,-0.029,-0.02,0.029,-0.015,-0.112,-0.151,-0.098,-0.078,-0.034,-0.073
2.854,0.029,-0.005,-0.034,-0.01,0.029,-0.02,-0.107,-0.146,-0.098,-0.059,-0.068,-0.073
2.856,0.029,0.005,-0.024,-0.015,0.024,-0.01,-0.112,-0.151,-0.098,-0.078,-0.088,-0.083
2.858,0.034,0.005,-0.029,-0.02,0.029,-0.015,-0.102,-0.151,-0.102,-0.078,-0.083,-0.093
2.86,0.029,0.01,-0.02,-0.02,0.024,-0.005,-0.107,-0.146,-0.107,-0.078,-0.073,-0.088
2.862,0.034,0.015,-0.02,-0.024,0.024,-0.005,-0.102,-0.151,-0.098,-0.073,-0.083,-0.093
2.864,0.024,0.01,-0.015,-0.015,0.02,-0.005,-0.102,-0.156,-0.098,-0.083,-0.083,-0.093
2.866,0.02,0.01,-0.01,-0.015,0.015,0.0,-0.102,-0.156,-0.098,-0.083,-0.093,-0.098
2.868,0.02,0.015,-0.005,-0.015,0.01,0.005,-0.102,-0.161,-0.093,-0.078,-0.073,-0.088
2.87,0.02,0.005,-0.015,-0.01,0.015,-0.005,-0.102,-0.161,-0.102,-0.083,-0.083,-0.098
2.872,0.02,0.0,-0.02,-0.01,0.02,-0.01,-0.102,-0.166,-0.102,-0.088,-0.093,-0.102
2.874,0.029,0.01,-0.02,-0.02,0.024,-0.005,-0.102,-0.156,-0.098,-0.088,-0.073,-0.093
2.876,0.029,0.01,-0.02,-0.02,0.024,-0.005,-0.093,-0.156,-0.093,-0.088,-0.073,-0.102
2.878,0.029,0.01,-0.02,-0.02,0.024,-0.005,-0.088,-0.146,-0.088,-0.083,-0.068,-0.098
2.88,0.015,0.01,-0.005,-0.01,0.01,0.0,-0.078,-0.142,-0.093,-0.083,-0.068,-0.098
2.882,-0.005,-0.005,0.0,0.005,-0.005,-0.005,-0.068,-0.132,-0.093,-0.093,-0.098,-0.107
2.884,-0.005,-0.005,0.0,0.005,-0.005,-0.005,-0.044,-0.117,-0.093,-0.098,-0.102,-0.127
