time,I,II,III,aVR,aVL,aVF,V1,V2,V3,V4,V5,V6
0.0,0.063,0.161,0.098,-0.112,-0.02,0.127,0.112,0.327,0.185,0.137,0.137,0.146
0.002,0.078,0.171,0.093,-0.122,-0.01,0.132,0.122,0.327,0.185,0.142,0.146,0.151
0.004,0.073,0.156,0.083,-0.112,-0.005,0.117,0.112,0.317,0.181,0.137,0.142,0.151
0.006,0.063,0.137,0.073,-0.098,-0.005,0.102,0.107,0.307,0.185,0.137,0.142,0.142
0.008,0.063,0.132,0.068,-0.098,-0.005,0.098,0.102,0.298,0.176,0.137,0.132,0.146
0.01,0.059,0.117,0.059,-0.088,0.0,0.088,0.088,0.273,0.166,0.122,0.122,0.132
0.012,0.059,0.102,0.044,-0.078,0.005,0.073,0.083,0.264,0.161,0.117,0.117,0.127
0.014,0.059,0.102,0.044,-0.078,0.005,0.073,0.088,0.249,0.161,0.117,0.117,0.122
0.016,0.073,0.122,0.049,-0.098,0.01,0.083,0.083,0.244,0.161,0.112,0.112,0.122
0.018,0.068,0.112,0.044,-0.088,0.01,0.078,0.083,0.234,0.156,0.112,0.102,0.117
0.02,0.059,0.093,0.034,-0.073,0.01,0.063,0.083,0.22,0.151,0.107,0.093,0.112
0.022,0.063,0.088,0.024,-0.073,0.02,0.054,0.078,0.205,0.137,0.093,0.083,0.098
0.024,0.063,0.078,0.015,-0.068,0.024,0.044,0.059,0.19,0.122,0.078,0.073,0.083
0.026,0.049,0.073,0.024,-0.059,0.01,0.049,0.054,0.171,0.122,0.073,0.063,0.073
0.028,0.049,0.073,0.024,-0.059,0.01,0.049,0.059,0.156,0.107,0.063,0.059,0.068
0.03,0.054,0.068,0.015,-0.059,0.02,0.039,0.049,0.146,0.098,0.049,0.049,0.059
0.032,0.039,0.059,0.02,-0.049,0.01,0.039,0.039,0.127,0.088,0.044,0.034,0.049
0.034,0.049,0.073,0.024,-0.059,0.01,0.049,0.044,0.112,0.088,0.039,0.029,0.044
0.036,0.039,0.059,0.02,-0.049,0.01,0.039,0.039,0.102,0.068,0.029,0.015,0.024
0.038,0.024,0.049,0.024,-0.034,0.0,0.034,0.034,0.088,0.059,0.02,0.005,0.02
0.04,0.015,0.034,0.02,-0.024,-0.005,0.024,0.034,0.078,0.044,0.015,0.0,0.01
0.042,0.01,0.02,0.01,-0.015,0.0,0.015,0.029,0.063,0.034,0.005,-0.015,0.0
0.044,0.005,0.02,0.015,-0.01,-0.005,0.015,0.029,0.059,0.024,0.0,-0.015,0.0
0.046,0.005,0.005,0.0,-0.005,0.0,0.0,0.024,0.044,0.02,0.0,-0.02,-0.01
0.048,0.005,0.01,0.005,-0.005,0.0,0.005,0.024,0.034,0.01,0.0,-0.024,-0.01
0.05,0.02,0.024,0.005,-0.02,0.005,0.015,0.024,0.029,0.005,-0.005,-0.024,-0.01
0.052,0.024,0.029,0.005,-0.024,0.01,0.015,0.024,0.024,0.005,-0.005,-0.024,-0.01
0.054,0.02,0.024,0.005,-0.02,0.005,0.015,0.02,0.01,-0.005,-0.015,-0.029,-0.02
0.056,0.01,0.02,0.01,-0.015,0.0,0.015,0.02,0.005,-0.01,-0.029,-0.039,-0.029
0.058,-0.005,0.0,0.005,0.005,-0.005,0.0,0.01,-0.005,-0.024,-0.039,-0.049,-0.044
0.06,0.015,0.005,-0.01,-0.01,0.01,-0.005,0.005,-0.015,-0.029,-0.039,-0.054,-0.049
0.062,0.0,-0.01,-0.01,0.005,0.005,-0.01,0.01,-0.015,-0.034,-0.039,-0.063,-0.054
0.064,-0.02,-0.029,-0.01,0.024,-0.005,-0.02,0.0,-0.015,-0.039,-0.049,-0.073,-0.063
0.066,0.005,-0.02,-0.024,0.01,0.015,-0.024,0.0,-0.029,-0.044,-0.054,-0.073,-0.059
0.068,0.02,0.0,-0.02,-0.01,0.02,-0.01,0.015,-0.024,-0.039,-0.039,-0.063,-0.044
0.07,-0.01,-0.005,0.005,0.01,-0.01,0.0,0.024,-0.015,-0.034,-0.039,-0.059,-0.039
0.072,-0.015,0.0,0.015,0.01,-0.015,0.005,0.01,-0.02,-0.039,-0.039,-0.063,-0.044
0.074,-0.02,-0.01,0.01,0.015,-0.015,0.0,0.0,-0.029,-0.039,-0.044,-0.063,-0.054
0.076,-0.015,-0.01,0.005,0.015,-0.01,-0.005,0.005,-0.034,-0.044,-0.049,-0.068,-0.054
0.078,-0.01,-0.015,-0.005,0.015,-0.005,-0.01,0.005,-0.034,-0.049,-0.054,-0.068,-0.054
0.08,-0.01,-0.015,-0.005,0.015,-0.005,-0.01,0.005,-0.034,-0.049,-0.054,-0.068,-0.054
0.082,0.0,-0.005,-0.005,0.005,0.0,-0.005,0.015,-0.029,-0.044,-0.054,-0.068,-0.044
0.084,-0.01,-0.02,-0.01,0.015,0.0,-0.015,0.005,-0.034,-0.059,-0.063,-0.073,-0.059
0.086,-0.02,-0.024,-0.005,0.024,-0.01,-0.015,0.005,-0.044,-0.059,-0.063,-0.078,-0.063
0.088,-0.015,-0.015,0.0,0.015,-0.01,-0.01,0.01,-0.039,-0.059,-0.063,-0.073,-0.059
0.09,-0.01,-0.02,-0.01,0.015,0.0,-0.015,0.005,-0.044,-0.063,-0.063,-0.073,-0.059
0.092,0.0,-0.005,-0.005,0.005,0.0,-0.005,0.005,-0.044,-0.059,-0.059,-0.063,-0.054
0.094,-0.015,-0.015,0.0,0.015,-0.01,-0.01,-0.005,-0.059,-0.068,-0.063,-0.073,-0.073
0.096,-0.024,-0.029,-0.005,0.029,-0.01,-0.02,-0.01,-0.059,-0.073,-0.068,-0.083,-0.078
0.098,-0.01,-0.015,-0.005,0.015,-0.005,-0.01,-0.005,-0.049,-0.063,-0.059,-0.083,-0.068
0.1,0.0,0.005,0.005,0.0,-0.005,0.005,0.0,-0.044,-0.054,-0.054,-0.078,-0.063
0.102,0.0,0.0,0.0,0.0,0.0,0.0,0.0,-0.044,-0.054,-0.059,-0.083,-0.068
0.104,-0.01,-0.01,0.0,0.01,-0.005,-0.005,0.0,-0.039,-0.054,-0.068,-0.088,-0.068
0.106,-0.02,-0.024,-0.005,0.024,-0.01,-0.015,-0.01,-0.054,-0.068,-0.073,-0.093,-0.078
0.108,-0.015,-0.015,0.0,0.015,-0.01,-0.01,0.0,-0.049,-0.059,-0.063,-0.088,-0.063
0.11,0.005,-0.01,-0.015,0.005,0.01,-0.015,0.015,-0.039,-0.049,-0.049,-0.068,-0.049
0.112,0.005,-0.02,-0.024,0.01,0.015,-0.024,0.005,-0.044,-0.054,-0.049,-0.073,-0.049
0.114,0.005,-0.02,-0.024,0.01,0.015,-0.024,0.005,-0.049,-0.054,-0.049,-0.068,-0.059
0.116,-0.005,-0.029,-0.024,0.02,0.01,-0.029,0.0,-0.044,-0.054,-0.054,-0.068,-0.054
0.118,-0.01,-0.024,-0.015,0.02,0.0,-0.02,0.0,-0.044,-0.054,-0.059,-0.068,-0.054
0.12,0.01,-0.01,-0.02,0.0,0.015,-0.015,0.0,-0.044,-0.054,-0.063,-0.073,-0.059
0.122,0.0,-0.029,-0.029,0.015,0.015,-0.029,0.005,-0.049,-0.063,-0.068,-0.083,-0.063
0.124,-0.029,-0.039,-0.01,0.034,-0.01,-0.024,0.005,-0.044,-0.063,-0.068,-0.088,-0.068
0.126,-0.024,-0.024,0.0,0.024,-0.015,-0.015,0.005,-0.044,-0.068,-0.073,-0.083,-0.068
0.128,-0.02,-0.015,0.005,0.02,-0.015,-0.005,0.01,-0.044,-0.068,-0.073,-0.088,-0.068
0.13,-0.01,-0.024,-0.015,0.02,0.0,-0.02,0.005,-0.049,-0.068,-0.078,-0.098,-0.073
0.132,-0.01,-0.029,-0.02,0.02,0.005,-0.024,-0.005,-0.054,-0.068,-0.078,-0.102,-0.083
0.134,-0.01,-0.024,-0.015,0.02,0.0,-0.02,0.0,-0.049,-0.068,-0.073,-0.102,-0.078
0.136,-0.015,-0.02,-0.005,0.02,-0.005,-0.015,0.005,-0.034,-0.063,-0.073,-0.098,-0.073
0.138,-0.02,-0.029,-0.01,0.024,-0.005,-0.02,0.0,-0.044,-0.073,-0.078,-0.098,-0.078
0.14,-0.02,-0.02,0.0,0.02,-0.01,-0.01,0.005,-0.034,-0.068,-0.073,-0.102,-0.073
0.142,-0.015,-0.024,-0.01,0.02,-0.005,-0.02,0.01,-0.039,-0.073,-0.083,-0.102,-0.078
0.144,-0.01,-0.02,-0.01,0.015,0.0,-0.015,0.0,-0.039,-0.073,-0.098,-0.107,-0.088
0.146,-0.005,-0.02,-0.015,0.015,0.005,-0.02,0.005,-0.039,-0.078,-0.088,-0.107,-0.083
0.148,-0.01,-0.029,-0.02,0.02,0.005,-0.024,0.0,-0.039,-0.078,-0.088,-0.112,-0.088
0.15,-0.01,-0.024,-0.015,0.02,0.0,-0.02,0.005,-0.034,-0.078,-0.088,-0.102,-0.083
0.152,-0.015,-0.02,-0.005,0.02,-0.005,-0.015,0.005,-0.039,-0.073,-0.083,-0.098,-0.078
0.154,-0.01,-0.02,-0.01,0.015,0.0,-0.015,0.0,-0.039,-0.073,-0.073,-0.098,-0.073
0.156,-0.005,-0.015,-0.01,0.01,0.0,-0.015,0.005,-0.034,-0.073,-0.073,-0.093,-0.073
0.158,-0.01,-0.02,-0.01,0.015,0.0,-0.015,0.015,-0.024,-0.063,-0.068,-0.088,-0.059
0.16,0.0,-0.02,-0.02,0.01,0.01,-0.02,0.02,-0.02,-0.063,-0.068,-0.088,-0.063
0.162,0.005,-0.02,-0.024,0.01,0.015,-0.024,0.024,-0.02,-0.068,-0.068,-0.088,-0.059
0.164,0.0,-0.024,-0.024,0.015,0.01,-0.024,0.02,-0.024,-0.068,-0.073,-0.083,-0.059
0.166,-0.01,-0.039,-0.029,0.024,0.01,-0.034,0.01,-0.034,-0.078,-0.078,-0.098,-0.068
0.168,-0.015,-0.034,-0.02,0.024,0.0,-0.029,0.015,-0.029,-0.073,-0.073,-0.093,-0.063
0.17,-0.015,-0.034,-0.02,0.024,0.0,-0.029,0.01,-0.039,-0.078,-0.083,-0.102,-0.073
0.172,-0.01,-0.02,-0.01,0.015,0.0,-0.015,0.005,-0.034,-0.078,-0.083,-0.093,-0.068
0.174,0.0,-0.024,-0.024,0.015,0.01,-0.024,0.015,-0.034,-0.073,-0.078,-0.093,-0.073
0.176,0.01,-0.005,-0.015,0.0,0.01,-0.01,0.01,-0.029,-0.073,-0.078,-0.093,-0.073
0.178,-0.005,-0.02,-0.015,0.015,0.005,-0.02,0.005,-0.039,-0.093,-0.093,-0.107,-0.078
0.18,-0.005,-0.02,-0.015,0.015,0.005,-0.02,0.01,-0.044,-0.102,-0.093,-0.117,-0.088
0.182,-0.015,-0.015,0.0,0.015,-0.01,-0.01,0.02,-0.034,-0.088,-0.088,-0.112,-0.083
0.184,-0.029,-0.02,0.01,0.024,-0.02,-0.005,0.02,-0.024,-0.083,-0.083,-0.102,-0.068
0.186,-0.02,-0.01,0.01,0.015,-0.015,0.0,0.02,-0.024,-0.078,-0.083,-0.093,-0.063
0.188,-0.01,-0.005,0.005,0.01,-0.01,0.0,0.02,-0.034,-0.078,-0.078,-0.093,-0.059
0.19,-0.01,-0.01,0.0,0.01,-0.005,-0.005,0.015,-0.044,-0.083,-0.083,-0.093,-0.063
0.192,-0.01,-0.02,-0.01,0.015,0.0,-0.015,0.015,-0.039,-0.078,-0.078,-0.093,-0.059
0.194,-0.015,-0.015,0.0,0.015,-0.01,-0.01,0.015,-0.034,-0.073,-0.068,-0.088,-0.063
0.196,-0.01,-0.005,0.005,0.01,-0.01,0.0,0.01,-0.029,-0.073,-0.068,-0.088,-0.063
0.198,-0.005,0.0,0.005,0.005,-0.005,0.0,0.01,-0.029,-0.073,-0.073,-0.083,-0.063
0.2,-0.01,0.0,0.01,0.005,-0.01,0.005,0.015,-0.034,-0.073,-0.073,-0.083,-0.063
0.202,-0.015,-0.024,-0.01,0.02,-0.005,-0.02,0.01,-0.044,-0.088,-0.083,-0.093,-0.073
0.204,-0.01,-0.005,0.005,0.01,-0.01,0.0,0.005,-0.034,-0.088,-0.088,-0.093,-0.073
0.206,-0.02,-0.015,0.005,0.02,-0.015,-0.005,0.0,-0.039,-0.088,-0.088,-0.107,-0.078
0.208,-0.015,-0.02,-0.005,0.02,-0.005,-0.015,0.01,-0.034,-0.083,-0.088,-0.112,-0.083
0.21,-0.005,-0.015,-0.01,0.01,0.0,-0.015,0.02,-0.029,-0.083,-0.083,-0.102,-0.068
0.212,-0.015,-0.024,-0.01,0.02,-0.005,-0.02,0.015,-0.034,-0.083,-0.078,-0.093,-0.063
0.214,-0.024,-0.024,0.0,0.024,-0.015,-0.015,0.0,-0.039,-0.083,-0.078,-0.093,-0.063
0.216,-0.024,-0.02,0.005,0.024,-0.015,-0.01,0.005,-0.039,-0.078,-0.068,-0.088,-0.059
0.218,-0.02,-0.01,0.01,0.015,-0.015,0.0,0.005,-0.034,-0.083,-0.068,-0.083,-0.054
0.22,0.0,0.015,0.015,-0.005,-0.01,0.015,0.02,-0.024,-0.068,-0.054,-0.068,-0.044
0.222,0.005,0.015,0.01,-0.01,-0.005,0.01,0.029,-0.02,-0.063,-0.054,-0.068,-0.034
0.224,-0.005,0.0,0.005,0.005,-0.005,0.0,0.015,-0.029,-0.078,-0.068,-0.083,-0.054
0.226,-0.015,-0.015,0.0,0.015,-0.01,-0.01,0.005,-0.039,-0.088,-0.078,-0.088,-0.059
0.228,-0.024,-0.02,0.005,0.024,-0.015,-0.01,0.0,-0.039,-0.083,-0.078,-0.088,-0.063
0.23,-0.005,0.005,0.01,0.0,-0.01,0.005,0.01,-0.034,-0.068,-0.068,-0.073,-0.049
0.232,-0.01,-0.005,0.005,0.01,-0.01,0.0,0.005,-0.039,-0.073,-0.068,-0.078,-0.049
0.234,-0.02,-0.024,-0.005,0.024,-0.01,-0.015,0.005,-0.044,-0.068,-0.063,-0.078,-0.063
0.236,-0.015,-0.01,0.005,0.015,-0.01,-0.005,0.015,-0.024,-0.054,-0.049,-0.068,-0.049
0.238,0.0,0.005,0.005,0.0,-0.005,0.005,0.015,-0.02,-0.049,-0.044,-0.059,-0.039
0.24,-0.005,0.0,0.005,0.005,-0.005,0.0,0.005,-0.029,-0.059,-0.054,-0.063,-0.049
0.242,-0.01,-0.01,0.0,0.01,-0.005,-0.005,0.0,-0.034,-0.063,-0.059,-0.078,-0.059
0.244,0.005,-0.005,-0.01,0.0,0.005,-0.01,-0.005,-0.039,-0.068,-0.068,-0.083,-0.059
0.246,0.039,0.005,-0.034,-0.02,0.034,-0.015,-0.005,-0.049,-0.068,-0.063,-0.083,-0.059
0.248,0.039,0.0,-0.039,-0.02,0.039,-0.02,-0.015,-0.059,-0.078,-0.059,-0.088,-0.063
0.25,0.02,-0.005,-0.024,-0.005,0.02,-0.015,-0.015,-0.054,-0.073,-0.063,-0.083,-0.059
0.252,0.005,0.0,-0.005,0.0,0.005,-0.005,-0.005,-0.049,-0.068,-0.054,-0.068,-0.044
0.254,-0.029,-0.015,0.015,0.024,-0.024,0.0,-0.005,-0.049,-0.063,-0.044,-0.068,-0.044
0.256,-0.054,-0.015,0.039,0.034,-0.049,0.01,0.005,-0.039,-0.054,-0.034,-0.054,-0.039
0.258,-0.02,0.005,0.024,0.01,-0.024,0.015,0.005,-0.034,-0.054,-0.039,-0.054,-0.034
0.26,-0.024,0.005,0.029,0.01,-0.029,0.015,0.005,-0.044,-0.063,-0.044,-0.063,-0.044
0.262,-0.02,-0.005,0.015,0.015,-0.02,0.005,0.0,-0.044,-0.063,-0.049,-0.068,-0.044
0.264,-0.024,-0.015,0.01,0.02,-0.02,-0.005,0.0,-0.044,-0.068,-0.059,-0.073,-0.049
0.266,-0.005,0.0,0.005,0.005,-0.005,0.0,0.0,-0.049,-0.068,-0.054,-0.068,-0.044
0.268,-0.01,-0.005,0.005,0.01,-0.01,0.0,0.005,-0.049,-0.059,-0.049,-0.063,-0.044
0.27,-0.015,-0.015,0.0,0.015,-0.01,-0.01,0.0,-0.044,-0.059,-0.059,-0.068,-0.049
0.272,-0.01,0.0,0.01,0.005,-0.01,0.005,0.005,-0.044,-0.059,-0.054,-0.068,-0.039
0.274,0.0,0.005,0.005,0.0,-0.005,0.005,0.005,-0.044,-0.059,-0.049,-0.068,-0.039
0.276,0.0,-0.005,-0.005,0.005,0.0,-0.005,0.005,-0.039,-0.054,-0.044,-0.068,-0.039
0.278,0.005,-0.005,-0.01,0.0,0.005,-0.01,0.005,-0.034,-0.049,-0.039,-0.059,-0.024
0.28,-0.01,-0.015,-0.005,0.015,-0.005,-0.01,0.0,-0.039,-0.059,-0.039,-0.054,-0.034
0.282,-0.024,-0.029,-0.005,0.029,-0.01,-0.02,-0.015,-0.049,-0.068,-0.054,-0.068,-0.044
0.284,-0.02,-0.02,0.0,0.02,-0.01,-0.01,-0.02,-0.054,-0.078,-0.049,-0.068,-0.044
0.286,-0.015,-0.01,0.005,0.015,-0.01,-0.005,-0.015,-0.054,-0.078,-0.054,-0.068,-0.044
0.288,0.0,0.0,0.0,0.0,0.0,0.0,-0.015,-0.059,-0.078,-0.063,-0.073,-0.059
0.29,0.005,0.005,0.0,-0.005,0.0,0.0,-0.015,-0.059,-0.073,-0.068,-0.078,-0.059
0.292,-0.01,0.0,0.01,0.005,-0.01,0.005,-0.02,-0.059,-0.078,-0.068,-0.078,-0.063
0.294,-0.01,-0.005,0.005,0.01,-0.01,0.0,-0.015,-0.054,-0.073,-0.063,-0.073,-0.059
0.296,-0.01,-0.01,0.0,0.01,-0.005,-0.005,-0.015,-0.054,-0.068,-0.059,-0.073,-0.063
0.298,-0.005,-0.005,0.0,0.005,-0.005,-0.005,-0.01,-0.049,-0.063,-0.054,-0.068,-0.044
0.3,-0.005,-0.005,0.0,0.005,-0.005,-0.005,-0.01,-0.054,-0.063,-0.044,-0.059,-0.044
0.302,-0.015,-0.02,-0.005,0.02,-0.005,-0.015,-0.015,-0.059,-0.063,-0.044,-0.059,-0.039
0.304,-0.005,-0.01,-0.005,0.01,0.0,-0.01,-0.01,-0.054,-0.063,-0.044,-0.049,-0.039
0.306,0.0,-0.005,-0.005,0.005,0.0,-0.005,0.0,-0.054,-0.063,-0.044,-0.049,-0.034
0.308,0.0,0.0,0.0,0.0,0.0,0.0,-0.005,-0.059,-0.059,-0.044,-0.049,-0.034
0.31,0.015,0.005,-0.01,-0.01,0.01,-0.005,-0.01,-0.059,-0.059,-0.049,-0.063,-0.034
0.312,0.0,-0.01,-0.01,0.005,0.005,-0.01,-0.02,-0.068,-0.068,-0.049,-0.063,-0.039
0.314,-0.005,-0.015,-0.01,0.01,0.0,-0.015,-0.015,-0.073,-0.073,-0.054,-0.068,-0.049
0.316,0.0,0.0,0.0,0.0,0.0,0.0,-0.01,-0.068,-0.073,-0.059,-0.068,-0.049
0.318,0.0,-0.005,-0.005,0.005,0.0,-0.005,-0.015,-0.068,-0.078,-0.063,-0.073,-0.054
0.32,0.005,0.0,-0.005,0.0,0.005,-0.005,-0.01,-0.063,-0.083,-0.059,-0.073,-0.049
0.322,0.0,0.0,0.0,0.0,0.0,0.0,-0.01,-0.063,-0.078,-0.059,-0.073,-0.044
0.324,-0.01,-0.005,0.005,0.01,-0.01,0.0,-0.015,-0.068,-0.083,-0.068,-0.083,-0.054
0.326,0.0,0.0,0.0,0.0,0.0,0.0,-0.015,-0.068,-0.083,-0.068,-0.078,-0.049
0.328,0.0,-0.005,-0.005,0.005,0.0,-0.005,-0.02,-0.073,-0.083,-0.063,-0.078,-0.054
0.33,-0.005,-0.01,-0.005,0.01,0.0,-0.01,-0.02,-0.073,-0.088,-0.063,-0.068,-0.059
0.332,0.005,-0.005,-0.01,0.0,0.005,-0.01,-0.02,-0.073,-0.083,-0.063,-0.068,-0.059
0.334,0.01,-0.005,-0.015,0.0,0.01,-0.01,-0.015,-0.068,-0.083,-0.063,-0.068,-0.054
0.336,0.015,-0.005,-0.02,-0.005,0.015,-0.015,-0.015,-0.073,-0.088,-0.063,-0.068,-0.054
0.338,0.0,-0.01,-0.01,0.005,0.005,-0.01,-0.005,-0.063,-0.078,-0.063,-0.063,-0.044
0.34,-0.015,-0.015,0.0,0.015,-0.01,-0.01,-0.005,-0.068,-0.083,-0.063,-0.068,-0.054
0.342,-0.005,-0.005,0.0,0.005,-0.005,-0.005,-0.01,-0.068,-0.083,-0.068,-0.068,-0.054
0.344,-0.005,-0.005,0.0,0.005,-0.005,-0.005,-0.005,-0.059,-0.078,-0.059,-0.063,-0.044
0.346,-0.005,-0.005,0.0,0.005,-0.005,-0.005,-0.005,-0.059,-0.068,-0.059,-0.068,-0.039
0.348,-0.02,-0.02,0.0,0.02,-0.01,-0.01,-0.01,-0.063,-0.068,-0.054,-0.073,-0.044
0.35,-0.02,-0.029,-0.01,0.024,-0.005,-0.02,-0.015,-0.063,-0.078,-0.059,-0.073,-0.044
0.352,-0.005,-0.015,-0.01,0.01,0.0,-0.015,-0.01,-0.068,-0.073,-0.049,-0.068,-0.044
0.354,-0.005,-0.02,-0.015,0.015,0.005,-0.02,-0.005,-0.068,-0.073,-0.054,-0.068,-0.049
0.356,-0.005,-0.02,-0.015,0.015,0.005,-0.02,-0.01,-0.068,-0.078,-0.054,-0.068,-0.049
0.358,-0.005,-0.02,-0.015,0.015,0.005,-0.02,-0.005,-0.063,-0.073,-0.054,-0.063,-0.044
0.36,-0.01,-0.029,-0.02,0.02,0.005,-0.024,-0.015,-0.068,-0.083,-0.054,-0.068,-0.049
0.362,-0.015,-0.034,-0.02,0.024,0.0,-0.029,-0.015,-0.068,-0.083,-0.063,-0.068,-0.049
0.364,0.0,-0.005,-0.005,0.005,0.0,-0.005,-0.01,-0.063,-0.078,-0.059,-0.063,-0.049
0.366,0.015,0.01,-0.005,-0.01,0.01,0.0,-0.015,-0.068,-0.083,-0.059,-0.063,-0.044
0.368,0.02,0.005,-0.015,-0.01,0.015,-0.005,-0.015,-0.073,-0.088,-0.059,-0.063,-0.049
0.37,0.0,-0.01,-0.01,0.005,0.005,-0.01,-0.024,-0.078,-0.093,-0.068,-0.078,-0.054
0.372,-0.024,-0.039,-0.015,0.034,-0.005,-0.029,-0.034,-0.088,-0.098,-0.078,-0.088,-0.068
0.374,-0.01,-0.024,-0.015,0.02,0.0,-0.02,-0.024,-0.083,-0.088,-0.078,-0.078,-0.054
0.376,0.0,-0.015,-0.015,0.01,0.005,-0.015,-0.015,-0.073,-0.083,-0.068,-0.073,-0.054
0.378,0.0,-0.01,-0.01,0.005,0.005,-0.01,-0.015,-0.073,-0.083,-0.073,-0.073,-0.054
0.38,-0.005,-0.015,-0.01,0.01,0.0,-0.015,-0.005,-0.068,-0.088,-0.063,-0.063,-0.049
0.382,-0.015,-0.034,-0.02,0.024,0.0,-0.029,-0.015,-0.073,-0.083,-0.073,-0.078,-0.054
0.384,-0.01,-0.029,-0.02,0.02,0.005,-0.024,-0.02,-0.073,-0.088,-0.073,-0.083,-0.054
0.386,-0.01,-0.015,-0.005,0.015,-0.005,-0.01,-0.02,-0.073,-0.083,-0.063,-0.073,-0.044
0.388,0.005,-0.015,-0.02,0.005,0.01,-0.02,-0.02,-0.073,-0.083,-0.059,-0.073,-0.039
0.39,0.02,0.0,-0.02,-0.01,0.02,-0.01,-0.015,-0.068,-0.073,-0.059,-0.068,-0.039
0.392,0.02,0.01,-0.01,-0.015,0.015,0.0,-0.005,-0.068,-0.073,-0.054,-0.063,-0.039
0.394,0.015,0.01,-0.005,-0.01,0.01,0.0,-0.015,-0.063,-0.078,-0.059,-0.068,-0.044
0.396,0.005,-0.01,-0.015,0.005,0.01,-0.015,-0.024,-0.068,-0.083,-0.063,-0.073,-0.059
0.398,-0.015,-0.034,-0.02,0.024,0.0,-0.029,-0.029,-0.078,-0.088,-0.073,-0.078,-0.068
0.4,-0.01,-0.024,-0.015,0.02,0.0,-0.02,-0.02,-0.073,-0.083,-0.063,-0.073,-0.059
0.402,-0.015,-0.02,-0.005,0.02,-0.005,-0.015,-0.02,-0.073,-0.083,-0.059,-0.073,-0.049
0.404,-0.01,-0.024,-0.015,0.02,0.0,-0.02,-0.01,-0.068,-0.083,-0.059,-0.063,-0.049
0.406,-0.01,-0.024,-0.015,0.02,0.0,-0.02,-0.01,-0.063,-0.078,-0.059,-0.063,-0.049
0.408,-0.02,-0.044,-0.024,0.034,0.0,-0.034,-0.01,-0.068,-0.083,-0.059,-0.068,-0.059
0.41,-0.015,-0.039,-0.024,0.029,0.005,-0.034,-0.01,-0.078,-0.088,-0.063,-0.068,-0.054
0.412,0.005,-0.034,-0.039,0.015,0.02,-0.039,-0.01,-0.068,-0.083,-0.054,-0.054,-0.044
0.414,-0.015,-0.029,-0.015,0.024,0.0,-0.024,-0.015,-0.073,-0.088,-0.063,-0.063,-0.049
0.416,-0.01,-0.02,-0.01,0.015,0.0,-0.015,-0.024,-0.088,-0.102,-0.073,-0.078,-0.059
0.418,0.0,0.0,0.0,0.0,0.0,0.0,-0.02,-0.083,-0.098,-0.078,-0.078,-0.059
0.42,0.01,0.005,-0.005,-0.005,0.005,0.0,-0.015,-0.068,-0.083,-0.068,-0.078,-0.054
0.422,-0.005,0.0,0.005,0.005,-0.005,0.0,-0.015,-0.068,-0.083,-0.068,-0.083,-0.059
0.424,-0.02,-0.015,0.005,0.02,-0.015,-0.005,-0.015,-0.068,-0.078,-0.063,-0.078,-0.059
0.426,-0.01,-0.01,0.0,0.01,-0.005,-0.005,-0.015,-0.063,-0.073,-0.059,-0.073,-0.054
0.428,-0.005,-0.01,-0.005,0.01,0.0,-0.01,-0.02,-0.078,-0.083,-0.063,-0.078,-0.059
0.43,-0.02,-0.034,-0.015,0.029,-0.005,-0.024,-0.024,-0.083,-0.088,-0.073,-0.083,-0.063
0.432,-0.015,-0.02,-0.005,0.02,-0.005,-0.015,-0.02,-0.078,-0.083,-0.068,-0.078,-0.054
0.434,-0.015,-0.02,-0.005,0.02,-0.005,-0.015,-0.015,-0.073,-0.083,-0.068,-0.078,-0.049
0.436,-0.01,-0.015,-0.005,0.015,-0.005,-0.01,-0.02,-0.073,-0.083,-0.073,-0.078,-0.054
0.438,-0.01,-0.005,0.005,0.01,-0.01,0.0,-0.01,-0.068,-0.078,-0.073,-0.078,-0.054
0.44,-0.015,0.0,0.015,0.01,-0.015,0.005,-0.01,-0.068,-0.088,-0.068,-0.078,-0.059
0.442,-0.01,0.0,0.01,0.005,-0.01,0.005,-0.015,-0.063,-0.078,-0.059,-0.068,-0.044
0.444,-0.01,-0.015,-0.005,0.015,-0.005,-0.01,-0.015,-0.068,-0.078,-0.049,-0.059,-0.039
0.446,-0.024,-0.029,-0.005,0.029,-0.01,-0.02,-0.015,-0.073,-0.078,-0.049,-0.059,-0.039
0.448,-0.02,-0.024,-0.005,0.024,-0.01,-0.015,-0.01,-0.068,-0.073,-0.039,-0.059,-0.039
0.45,-0.01,-0.02,-0.01,0.015,0.0,-0.015,-0.015,-0.073,-0.073,-0.049,-0.068,-0.044
0.452,-0.005,-0.02,-0.015,0.015,0.005,-0.02,-0.01,-0.068,-0.083,-0.054,-0.068,-0.044
0.454,-0.005,-0.024,-0.02,0.015,0.005,-0.024,-0.01,-0.068,-0.078,-0.059,-0.068,-0.049
0.456,-0.005,-0.02,-0.015,0.015,0.005,-0.02,-0.01,-0.063,-0.073,-0.054,-0.068,-0.049
0.458,-0.01,-0.02,-0.01,0.015,0.0,-0.015,-0.005,-0.063,-0.073,-0.059,-0.063,-0.049
0.46,-0.005,-0.01,-0.005,0.01,0.0,-0.01,-0.01,-0.063,-0.078,-0.059,-0.068,-0.044
0.462,0.0,-0.005,-0.005,0.005,0.0,-0.005,-0.015,-0.068,-0.078,-0.063,-0.068,-0.044
0.464,-0.005,-0.015,-0.01,0.01,0.0,-0.015,-0.02,-0.068,-0.088,-0.073,-0.073,-0.054
0.466,-0.024,-0.015,0.01,0.02,-0.02,-0.005,-0.029,-0.078,-0.093,-0.078,-0.083,-0.063
0.468,-0.015,-0.005,0.01,0.01,-0.015,0.0,-0.024,-0.073,-0.088,-0.073,-0.078,-0.063
0.47,-0.015,-0.01,0.005,0.015,-0.01,-0.005,-0.02,-0.073,-0.078,-0.068,-0.078,-0.063
0.472,-0.015,-0.015,0.0,0.015,-0.01,-0.01,-0.02,-0.078,-0.093,-0.073,-0.083,-0.068
0.474,-0.015,-0.02,-0.005,0.02,-0.005,-0.015,-0.01,-0.068,-0.083,-0.068,-0.073,-0.063
0.476,-0.024,-0.024,0.0,0.024,-0.015,-0.015,-0.02,-0.073,-0.088,-0.073,-0.078,-0.063
0.478,-0.024,-0.024,0.0,0.024,-0.015,-0.015,-0.02,-0.068,-0.088,-0.073,-0.083,-0.059
0.48,0.005,0.005,0.0,-0.005,0.0,0.0,-0.005,-0.059,-0.078,-0.049,-0.063,-0.049
0.482,0.01,0.01,0.0,-0.01,0.005,0.005,0.0,-0.059,-0.073,-0.049,-0.063,-0.039
0.484,-0.005,-0.005,0.0,0.005,-0.005,-0.005,-0.005,-0.059,-0.078,-0.054,-0.068,-0.044
0.486,-0.015,-0.024,-0.01,0.02,-0.005,-0.02,-0.01,-0.068,-0.083,-0.059,-0.073,-0.054
0.488,-0.02,-0.024,-0.005,0.024,-0.01,-0.015,-0.015,-0.073,-0.088,-0.063,-0.083,-0.063
0.49,-0.024,-0.029,-0.005,0.029,-0.01,-0.02,-0.015,-0.073,-0.078,-0.059,-0.083,-0.063
0.492,-0.02,-0.024,-0.005,0.024,-0.01,-0.015,-0.01,-0.073,-0.083,-0.068,-0.078,-0.059
0.494,-0.02,-0.024,-0.005,0.024,-0.01,-0.015,-0.015,-0.073,-0.078,-0.059,-0.068,-0.049
0.496,-0.015,-0.015,0.0,0.015,-0.01,-0.01,-0.01,-0.068,-0.068,-0.049,-0.063,-0.039
0.498,-0.02,-0.02,0.0,0.02,-0.01,-0.01,-0.015,-0.063,-0.073,-0.054,-0.059,-0.044
0.5,-0.01,-0.02,-0.01,0.015,0.0,-0.015,-0.015,-0.068,-0.083,-0.068,-0.068,-0.054
0.502,0.015,0.0,-0.015,-0.005,0.015,-0.01,-0.01,-0.068,-0.073,-0.063,-0.068,-0.054
0.504,0.005,-0.01,-0.015,0.005,0.01,-0.015,-0.015,-0.068,-0.088,-0.068,-0.073,-0.059
0.506,-0.015,-0.029,-0.015,0.024,0.0,-0.024,-0.024,-0.073,-0.093,-0.073,-0.078,-0.063
0.508,-0.029,-0.024,0.005,0.029,-0.02,-0.01,-0.02,-0.068,-0.083,-0.063,-0.073,-0.059
0.51,-0.02,-0.015,0.005,0.02,-0.015,-0.005,-0.015,-0.063,-0.073,-0.049,-0.063,-0.054
0.512,-0.01,-0.01,0.0,0.01,-0.005,-0.005,-0.01,-0.063,-0.078,-0.054,-0.063,-0.044
0.514,-0.005,-0.01,-0.005,0.01,0.0,-0.01,-0.01,-0.063,-0.073,-0.054,-0.059,-0.039
0.516,-0.01,-0.015,-0.005,0.015,-0.005,-0.01,-0.01,-0.063,-0.073,-0.054,-0.063,-0.049
0.518,-0.02,-0.02,0.0,0.02,-0.01,-0.01,-0.01,-0.063,-0.078,-0.063,-0.073,-0.044
0.52,-0.024,-0.024,0.0,0.024,-0.015,-0.015,-0.005,-0.063,-0.083,-0.059,-0.068,-0.049
0.522,-0.015,-0.034,-0.02,0.024,0.0,-0.029,-0.01,-0.068,-0.083,-0.063,-0.073,-0.054
0.524,-0.02,-0.034,-0.015,0.029,-0.005,-0.024,0.0,-0.059,-0.063,-0.049,-0.059,-0.034
0.526,-0.005,-0.02,-0.015,0.015,0.005,-0.02,0.005,-0.049,-0.059,-0.044,-0.044,-0.024
0.528,0.015,0.015,0.0,-0.015,0.005,0.005,0.0,-0.054,-0.059,-0.039,-0.049,-0.02
0.53,0.015,0.01,-0.005,-0.01,0.01,0.0,-0.015,-0.068,-0.068,-0.049,-0.059,-0.029
0.532,-0.02,-0.029,-0.01,0.024,-0.005,-0.02,-0.024,-0.083,-0.083,-0.063,-0.073,-0.044
0.534,-0.01,-0.029,-0.02,0.02,0.005,-0.024,-0.02,-0.078,-0.078,-0.063,-0.073,-0.044
0.536,-0.005,-0.024,-0.02,0.015,0.005,-0.024,-0.02,-0.073,-0.083,-0.068,-0.073,-0.049
0.538,-0.005,-0.015,-0.01,0.01,0.0,-0.015,-0.02,-0.068,-0.078,-0.054,-0.063,-0.044
0.54,-0.015,-0.01,0.005,0.015,-0.01,-0.005,-0.01,-0.059,-0.068,-0.049,-0.059,-0.049
0.542,-0.029,-0.029,0.0,0.029,-0.015,-0.015,-0.01,-0.059,-0.073,-0.054,-0.063,-0.059
0.544,-0.024,-0.034,-0.01,0.029,-0.01,-0.024,-0.005,-0.063,-0.073,-0.059,-0.068,-0.059
0.546,-0.024,-0.039,-0.015,0.034,-0.005,-0.029,-0.015,-0.068,-0.083,-0.063,-0.073,-0.059
0.548,-0.02,-0.029,-0.01,0.024,-0.005,-0.02,-0.02,-0.073,-0.083,-0.068,-0.073,-0.063
0.55,-0.015,-0.029,-0.015,0.024,0.0,-0.024,-0.015,-0.068,-0.078,-0.063,-0.068,-0.054
0.552,-0.01,-0.029,-0.02,0.02,0.005,-0.024,-0.01,-0.068,-0.078,-0.059,-0.063,-0.049
0.554,-0.005,-0.029,-0.024,0.02,0.01,-0.029,-0.015,-0.073,-0.078,-0.059,-0.063,-0.049
0.556,-0.01,-0.02,-0.01,0.015,0.0,-0.015,-0.005,-0.063,-0.068,-0.044,-0.049,-0.039
0.558,0.005,-0.005,-0.01,0.0,0.005,-0.01,0.0,-0.059,-0.063,-0.044,-0.049,-0.034
0.56,-0.01,-0.02,-0.01,0.015,0.0,-0.015,-0.005,-0.063,-0.068,-0.054,-0.063,-0.039
0.562,-0.02,-0.029,-0.01,0.024,-0.005,-0.02,-0.015,-0.068,-0.073,-0.068,-0.078,-0.049
0.564,-0.01,-0.024,-0.015,0.02,0.0,-0.02,-0.015,-0.063,-0.078,-0.073,-0.073,-0.049
0.566,-0.01,-0.024,-0.015,0.02,0.0,-0.02,-0.015,-0.068,-0.083,-0.073,-0.078,-0.054
0.568,-0.015,-0.034,-0.02,0.024,0.0,-0.029,-0.02,-0.073,-0.088,-0.068,-0.073,-0.059
0.57,-0.005,-0.024,-0.02,0.015,0.005,-0.024,-0.015,-0.073,-0.078,-0.063,-0.073,-0.054
0.572,-0.01,-0.015,-0.005,0.015,-0.005,-0.01,-0.015,-0.068,-0.078,-0.059,-0.063,-0.049
0.574,-0.024,-0.015,0.01,0.02,-0.02,-0.005,-0.01,-0.063,-0.078,-0.054,-0.059,-0.044
0.576,-0.024,-0.024,0.0,0.024,-0.015,-0.015,-0.01,-0.059,-0.073,-0.054,-0.059,-0.039
0.578,-0.02,-0.024,-0.005,0.024,-0.01,-0.015,-0.01,-0.059,-0.078,-0.063,-0.068,-0.049
0.58,-0.005,-0.005,0.0,0.005,-0.005,-0.005,0.005,-0.049,-0.068,-0.049,-0.054,-0.039
0.582,0.01,0.0,-0.01,-0.005,0.01,-0.005,0.01,-0.044,-0.063,-0.049,-0.054,-0.034
0.584,0.0,-0.01,-0.01,0.005,0.005,-0.01,0.015,-0.044,-0.059,-0.044,-0.044,-0.02
0.586,-0.01,-0.02,-0.01,0.015,0.0,-0.015,0.0,-0.054,-0.068,-0.054,-0.049,-0.029
0.588,-0.024,-0.039,-0.015,0.034,-0.005,-0.029,-0.01,-0.068,-0.078,-0.059,-0.059,-0.039
0.59,-0.034,-0.044,-0.01,0.039,-0.015,-0.029,-0.01,-0.059,-0.073,-0.054,-0.063,-0.044
0.592,-0.02,-0.029,-0.01,0.024,-0.005,-0.02,-0.005,-0.059,-0.073,-0.059,-0.063,-0.044
0.594,-0.01,-0.024,-0.015,0.02,0.0,-0.02,-0.005,-0.059,-0.073,-0.063,-0.063,-0.049
0.596,-0.005,-0.024,-0.02,0.015,0.005,-0.024,0.005,-0.063,-0.068,-0.054,-0.054,-0.044
0.598,-0.01,-0.029,-0.02,0.02,0.005,-0.024,0.005,-0.059,-0.059,-0.049,-0.049,-0.039
0.6,-0.015,-0.039,-0.024,0.029,0.005,-0.034,0.0,-0.059,-0.063,-0.044,-0.049,-0.029
0.602,-0.005,-0.02,-0.015,0.015,0.005,-0.02,0.005,-0.054,-0.059,-0.039,-0.049,-0.029
0.604,-0.005,-0.02,-0.015,0.015,0.005,-0.02,0.0,-0.054,-0.063,-0.044,-0.054,-0.029
0.606,0.0,-0.02,-0.02,0.01,0.01,-0.02,-0.005,-0.059,-0.068,-0.049,-0.059,-0.034
0.608,0.005,-0.029,-0.034,0.015,0.02,-0.034,0.005,-0.049,-0.068,-0.044,-0.049,-0.029
0.61,0.005,-0.024,-0.029,0.01,0.015,-0.029,0.0,-0.054,-0.063,-0.044,-0.054,-0.039
0.612,0.0,-0.015,-0.015,0.01,0.005,-0.015,0.005,-0.054,-0.063,-0.039,-0.044,-0.034
0.614,-0.015,-0.024,-0.01,0.02,-0.005,-0.02,0.0,-0.054,-0.063,-0.034,-0.049,-0.039
0.616,-0.024,-0.029,-0.005,0.029,-0.01,-0.02,-0.01,-0.063,-0.073,-0.049,-0.059,-0.049
0.618,-0.02,-0.029,-0.01,0.024,-0.005,-0.02,-0.005,-0.054,-0.068,-0.049,-0.059,-0.049
0.62,-0.02,-0.029,-0.01,0.024,-0.005,-0.02,-0.005,-0.059,-0.073,-0.049,-0.054,-0.039
0.622,-0.015,-0.039,-0.024,0.029,0.005,-0.034,0.0,-0.054,-0.068,-0.044,-0.049,-0.034
0.624,-0.005,-0.034,-0.029,0.02,0.01,-0.034,0.0,-0.059,-0.068,-0.049,-0.054,-0.039
0.626,-0.005,-0.024,-0.02,0.015,0.005,-0.024,-0.01,-0.063,-0.068,-0.054,-0.059,-0.039
0.628,-0.005,-0.029,-0.024,0.02,0.01,-0.029,-0.01,-0.063,-0.068,-0.044,-0.059,-0.044
0.63,-0.015,-0.039,-0.024,0.029,0.005,-0.034,-0.015,-0.063,-0.063,-0.049,-0.059,-0.049
0.632,-0.024,-0.039,-0.015,0.034,-0.005,-0.029,-0.01,-0.059,-0.068,-0.054,-0.059,-0.054
0.634,-0.015,-0.02,-0.005,0.02,-0.005,-0.015,-0.005,-0.054,-0.063,-0.044,-0.049,-0.049
0.636,0.0,-0.01,-0.01,0.005,0.005,-0.01,0.0,-0.049,-0.063,-0.044,-0.049,-0.044
0.638,0.005,-0.01,-0.015,0.005,0.01,-0.015,0.005,-0.044,-0.063,-0.049,-0.049,-0.034
0.64,-0.005,-0.024,-0.02,0.015,0.005,-0.024,0.005,-0.059,-0.068,-0.059,-0.049,-0.034
0.642,0.0,-0.029,-0.029,0.015,0.015,-0.029,0.0,-0.063,-0.078,-0.059,-0.059,-0.034
0.644,0.0,-0.024,-0.024,0.015,0.01,-0.024,0.005,-0.059,-0.078,-0.054,-0.054,-0.034
0.646,-0.01,-0.024,-0.015,0.02,0.0,-0.02,0.005,-0.054,-0.073,-0.054,-0.049,-0.024
0.648,-0.005,-0.029,-0.024,0.02,0.01,-0.029,0.005,-0.054,-0.073,-0.054,-0.054,-0.02
0.65,-0.005,-0.029,-0.024,0.02,0.01,-0.029,0.005,-0.049,-0.063,-0.049,-0.049,-0.02
0.652,-0.005,-0.02,-0.015,0.015,0.005,-0.02,0.005,-0.044,-0.063,-0.044,-0.044,-0.02
0.654,0.0,-0.015,-0.015,0.01,0.005,-0.015,0.0,-0.054,-0.068,-0.049,-0.044,-0.02
0.656,-0.005,-0.029,-0.024,0.02,0.01,-0.029,0.0,-0.054,-0.063,-0.044,-0.049,-0.029
0.658,-0.024,-0.039,-0.015,0.034,-0.005,-0.029,-0.01,-0.063,-0.063,-0.049,-0.054,-0.039
0.66,-0.01,-0.02,-0.01,0.015,0.0,-0.015,-0.005,-0.063,-0.068,-0.044,-0.054,-0.039
0.662,-0.005,-0.015,-0.01,0.01,0.0,-0.015,0.0,-0.054,-0.063,-0.039,-0.049,-0.044
0.664,0.0,-0.015,-0.015,0.01,0.005,-0.015,-0.005,-0.059,-0.063,-0.044,-0.059,-0.049
0.666,-0.005,-0.01,-0.005,0.01,0.0,-0.01,0.01,-0.049,-0.054,-0.034,-0.044,-0.034
0.668,-0.024,-0.029,-0.005,0.029,-0.01,-0.02,0.005,-0.049,-0.054,-0.034,-0.039,-0.034
0.67,-0.015,-0.029,-0.015,0.024,0.0,-0.024,-0.005,-0.044,-0.054,-0.034,-0.044,-0.034
0.672,-0.01,-0.024,-0.015,0.02,0.0,-0.02,0.005,-0.044,-0.054,-0.029,-0.029,-0.024
0.674,-0.015,-0.024,-0.01,0.02,-0.005,-0.02,0.0,-0.044,-0.059,-0.034,-0.039,-0.024
0.676,-0.015,-0.02,-0.005,0.02,-0.005,-0.015,0.01,-0.044,-0.054,-0.029,-0.029,-0.024
0.678,-0.029,-0.034,-0.005,0.034,-0.015,-0.02,0.01,-0.049,-0.059,-0.039,-0.039,-0.029
0.68,-0.029,-0.049,-0.02,0.039,-0.005,-0.034,0.005,-0.054,-0.073,-0.044,-0.044,-0.034
0.682,-0.029,-0.059,-0.029,0.044,0.0,-0.044,0.01,-0.049,-0.068,-0.044,-0.044,-0.029
0.684,-0.024,-0.054,-0.029,0.039,0.0,-0.044,0.01,-0.049,-0.068,-0.039,-0.049,-0.029
0.686,-0.015,-0.029,-0.015,0.024,0.0,-0.024,0.01,-0.044,-0.059,-0.039,-0.044,-0.024
0.688,-0.02,-0.029,-0.01,0.024,-0.005,-0.02,0.02,-0.044,-0.054,-0.034,-0.039,-0.024
0.69,-0.02,-0.034,-0.015,0.029,-0.005,-0.024,0.01,-0.049,-0.059,-0.039,-0.039,-0.029
0.692,-0.01,-0.015,-0.005,0.015,-0.005,-0.01,0.01,-0.049,-0.059,-0.039,-0.034,-0.024
0.694,-0.005,-0.01,-0.005,0.01,0.0,-0.01,0.01,-0.044,-0.054,-0.039,-0.034,-0.024
0.696,0.005,-0.005,-0.01,0.0,0.005,-0.01,0.005,-0.049,-0.059,-0.034,-0.034,-0.029
0.698,0.0,-0.015,-0.015,0.01,0.005,-0.015,0.005,-0.044,-0.054,-0.039,-0.029,-0.024
0.7,-0.015,-0.024,-0.01,0.02,-0.005,-0.02,-0.005,-0.049,-0.059,-0.039,-0.039,-0.029
0.702,-0.024,-0.034,-0.01,0.029,-0.01,-0.024,-0.01,-0.054,-0.068,-0.044,-0.049,-0.039
0.704,-0.024,-0.029,-0.005,0.029,-0.01,-0.02,-0.005,-0.049,-0.063,-0.039,-0.039,-0.034
0.706,-0.02,-0.024,-0.005,0.024,-0.01,-0.015,-0.01,-0.059,-0.068,-0.049,-0.044,-0.039
0.708,-0.01,-0.02,-0.01,0.015,0.0,-0.015,0.0,-0.059,-0.068,-0.044,-0.049,-0.034
0.71,-0.015,-0.024,-0.01,0.02,-0.005,-0.02,0.005,-0.054,-0.063,-0.044,-0.044,-0.029
0.712,-0.01,-0.02,-0.01,0.015,0.0,-0.015,0.01,-0.049,-0.059,-0.034,-0.034,-0.029
0.714,0.0,-0.02,-0.02,0.01,0.01,-0.02,0.024,-0.034,-0.049,-0.024,-0.024,-0.02
0.716,-0.005,-0.005,0.0,0.005,-0.005,-0.005,0.024,-0.029,-0.044,-0.024,-0.024,-0.02
0.718,0.0,0.0,0.0,0.0,0.0,0.0,0.029,-0.029,-0.034,-0.02,-0.024,-0.015
0.72,0.0,0.0,0.0,0.0,0.0,0.0,0.034,-0.015,-0.029,-0.01,-0.02,-0.015
0.722,-0.01,0.0,0.01,0.005,-0.01,0.005,0.034,-0.01,-0.034,-0.015,-0.02,-0.015
0.724,0.0,0.024,0.024,-0.01,-0.015,0.024,0.049,0.0,-0.02,-0.005,-0.015,-0.005
0.726,0.0,0.024,0.024,-0.01,-0.015,0.024,0.059,0.005,-0.02,0.005,-0.005,0.0
0.728,0.0,0.039,0.039,-0.02,-0.02,0.039,0.059,0.0,-0.024,-0.005,-0.01,0.005
0.73,-0.005,0.054,0.059,-0.024,-0.034,0.054,0.059,0.0,-0.02,0.0,-0.01,0.005
0.732,-0.005,0.049,0.054,-0.02,-0.029,0.049,0.059,-0.005,-0.024,0.0,-0.005,0.005
0.734,0.01,0.063,0.054,-0.034,-0.024,0.059,0.068,0.01,-0.015,0.005,0.0,0.01
0.736,0.015,0.068,0.054,-0.039,-0.02,0.059,0.073,0.015,-0.005,0.015,0.01,0.015
0.738,0.015,0.054,0.039,-0.034,-0.015,0.044,0.073,0.02,-0.005,0.015,0.005,0.015
0.74,0.029,0.049,0.02,-0.039,0.005,0.034,0.068,0.02,-0.005,0.02,0.01,0.015
0.742,0.01,0.015,0.005,-0.01,0.0,0.01,0.059,0.015,-0.01,0.015,0.0,0.01
0.744,0.0,0.005,0.005,0.0,-0.005,0.005,0.054,0.01,-0.02,0.01,-0.005,-0.005
0.746,0.02,0.01,-0.01,-0.015,0.015,0.0,0.054,0.015,-0.01,0.02,0.005,0.005
0.748,0.029,0.029,0.0,-0.029,0.015,0.015,0.049,0.02,0.0,0.024,0.015,0.02
0.75,0.039,0.044,0.005,-0.039,0.015,0.024,0.054,0.029,0.02,0.039,0.02,0.024
0.752,0.034,0.044,0.01,-0.039,0.01,0.024,0.063,0.034,0.024,0.044,0.029,0.024
0.754,0.024,0.034,0.01,-0.029,0.005,0.02,0.054,0.029,0.02,0.034,0.029,0.024
0.756,0.029,0.034,0.005,-0.029,0.01,0.02,0.039,0.015,0.01,0.024,0.02,0.024
0.758,0.024,0.015,-0.01,-0.02,0.015,0.0,0.02,-0.01,-0.005,0.015,0.01,0.015
0.76,0.015,-0.01,-0.024,0.0,0.02,-0.02,-0.005,-0.024,-0.024,0.0,-0.005,0.005
0.762,0.029,-0.01,-0.039,-0.01,0.034,-0.024,-0.02,-0.034,-0.029,-0.005,-0.005,0.005
0.764,0.029,-0.005,-0.034,-0.01,0.029,-0.02,-0.02,-0.034,-0.029,0.0,0.0,0.01
0.766,0.024,-0.01,-0.034,-0.005,0.029,-0.024,-0.034,-0.044,-0.034,0.01,0.005,0.005
0.768,0.015,-0.024,-0.039,0.005,0.024,-0.034,-0.034,-0.049,-0.039,0.0,-0.005,-0.005
0.77,0.015,-0.029,-0.044,0.01,0.029,-0.039,-0.039,-0.054,-0.049,-0.015,-0.015,-0.005
0.772,0.02,-0.029,-0.049,0.005,0.034,-0.039,-0.034,-0.054,-0.049,-0.01,-0.01,-0.005
0.774,0.015,-0.034,-0.049,0.01,0.029,-0.044,-0.029,-0.054,-0.044,-0.01,-0.005,0.0
0.776,0.02,-0.029,-0.049,0.005,0.034,-0.039,-0.015,-0.059,-0.049,-0.015,-0.01,0.0
0.778,0.029,-0.015,-0.044,-0.005,0.034,-0.029,-0.005,-0.049,-0.039,-0.01,-0.005,0.0
0.78,0.034,-0.005,-0.039,-0.015,0.034,-0.024,-0.01,-0.044,-0.044,-0.01,-0.005,0.0
0.782,0.054,0.01,-0.044,-0.029,0.049,-0.02,-0.005,-0.049,-0.049,-0.02,-0.005,0.0
0.784,0.024,-0.015,-0.039,-0.005,0.029,-0.029,-0.01,-0.054,-0.054,-0.024,-0.015,-0.01
0.786,-0.01,-0.02,-0.01,0.015,0.0,-0.015,-0.01,-0.054,-0.049,-0.02,-0.01,-0.01
0.788,-0.005,-0.015,-0.01,0.01,0.0,-0.015,0.0,-0.044,-0.044,-0.015,-0.005,0.0
0.79,0.005,-0.005,-0.01,0.0,0.005,-0.01,-0.005,-0.054,-0.044,-0.015,-0.015,-0.01
0.792,-0.005,-0.015,-0.01,0.01,0.0,-0.015,0.0,-0.054,-0.044,-0.01,-0.005,-0.01
0.794,-0.01,-0.039,-0.029,0.024,0.01,-0.034,0.0,-0.054,-0.049,-0.015,-0.005,-0.01
0.796,-0.029,-0.059,-0.029,0.044,0.0,-0.044,0.005,-0.059,-0.054,-0.029,-0.02,-0.024
0.798,-0.034,-0.054,-0.02,0.044,-0.01,-0.039,0.01,-0.059,-0.059,-0.034,-0.024,-0.034
0.8,-0.044,-0.054,-0.01,0.049,-0.02,-0.034,0.01,-0.059,-0.059,-0.024,-0.02,-0.024
0.802,-0.029,-0.039,-0.01,0.034,-0.01,-0.024,0.005,-0.059,-0.068,-0.039,-0.029,-0.034
0.804,-0.005,-0.024,-0.02,0.015,0.005,-0.024,0.005,-0.059,-0.073,-0.039,-0.029,-0.029
0.806,-0.02,-0.029,-0.01,0.024,-0.005,-0.02,0.005,-0.059,-0.068,-0.034,-0.029,-0.024
0.808,-0.029,-0.034,-0.005,0.034,-0.015,-0.02,0.005,-0.063,-0.063,-0.034,-0.029,-0.024
0.81,-0.02,-0.034,-0.015,0.029,-0.005,-0.024,0.005,-0.059,-0.068,-0.039,-0.029,-0.029
0.812,-0.015,-0.024,-0.01,0.02,-0.005,-0.02,0.005,-0.063,-0.068,-0.039,-0.024,-0.034
0.814,-0.015,-0.024,-0.01,0.02,-0.005,-0.02,0.005,-0.059,-0.063,-0.034,-0.02,-0.029
0.816,-0.034,-0.044,-0.01,0.039,-0.015,-0.029,0.005,-0.059,-0.068,-0.044,-0.029,-0.039
0.818,-0.044,-0.054,-0.01,0.049,-0.02,-0.034,-0.005,-0.068,-0.073,-0.039,-0.034,-0.044
0.82,-0.039,-0.059,-0.02,0.049,-0.01,-0.039,0.0,-0.059,-0.068,-0.034,-0.029,-0.044
0.822,-0.029,-0.049,-0.02,0.039,-0.005,-0.034,-0.005,-0.063,-0.073,-0.039,-0.024,-0.039
0.824,-0.029,-0.044,-0.015,0.039,-0.01,-0.029,0.0,-0.059,-0.068,-0.039,-0.029,-0.039
0.826,-0.029,-0.044,-0.015,0.039,-0.01,-0.029,0.005,-0.054,-0.063,-0.034,-0.029,-0.029
0.828,-0.034,-0.039,-0.005,0.039,-0.015,-0.024,0.01,-0.049,-0.063,-0.029,-0.029,-0.029
0.83,-0.024,-0.039,-0.015,0.034,-0.005,-0.029,0.01,-0.044,-0.059,-0.029,-0.015,-0.029
0.832,-0.034,-0.044,-0.01,0.039,-0.015,-0.029,0.01,-0.044,-0.054,-0.024,-0.015,-0.024
0.834,-0.029,-0.044,-0.015,0.039,-0.01,-0.029,0.005,-0.049,-0.054,-0.02,-0.01,-0.024
0.836,-0.034,-0.034,0.0,0.034,-0.02,-0.02,0.015,-0.044,-0.049,-0.01,0.0,-0.024
0.838,-0.034,-0.039,-0.005,0.039,-0.015,-0.024,0.01,-0.044,-0.044,-0.024,0.0,-0.024
0.84,-0.02,-0.029,-0.01,0.024,-0.005,-0.02,0.015,-0.044,-0.044,-0.02,-0.005,-0.024
0.842,-0.02,-0.029,-0.01,0.024,-0.005,-0.02,0.01,-0.049,-0.049,-0.024,-0.005,-0.029
0.844,-0.034,-0.044,-0.01,0.039,-0.015,-0.029,-0.005,-0.059,-0.059,-0.029,-0.015,-0.039
0.846,-0.02,-0.039,-0.02,0.029,0.0,-0.029,-0.005,-0.054,-0.049,-0.024,-0.01,-0.034
0.848,-0.01,-0.029,-0.02,0.02,0.005,-0.024,0.01,-0.044,-0.039,-0.015,0.0,-0.024
0.85,-0.024,-0.024,0.0,0.024,-0.015,-0.015,0.015,-0.039,-0.034,-0.015,0.005,-0.02
0.852,-0.039,-0.024,0.015,0.034,-0.029,-0.005,0.015,-0.039,-0.029,-0.005,0.005,-0.02
0.854,-0.049,-0.049,0.0,0.049,-0.024,-0.024,0.005,-0.044,-0.039,-0.01,0.005,-0.024
0.856,-0.029,-0.029,0.0,0.029,-0.015,-0.015,0.01,-0.034,-0.034,-0.015,-0.005,-0.024
0.858,-0.024,-0.02,0.005,0.024,-0.015,-0.01,0.02,-0.02,-0.024,-0.005,0.005,-0.015
0.86,-0.034,-0.015,0.02,0.024,-0.029,0.0,0.029,0.0,-0.01,0.005,0.005,-0.015
0.862,-0.044,0.0,0.044,0.024,-0.044,0.02,0.039,0.029,0.01,0.005,0.01,-0.015
0.864,-0.049,0.005,0.054,0.024,-0.054,0.029,0.063,0.088,0.049,0.024,0.02,-0.005
0.866,-0.039,0.024,0.063,0.01,-0.054,0.044,0.088,0.166,0.132,0.093,0.063,0.02
0.868,-0.029,0.044,0.073,-0.005,-0.054,0.059,0.127,0.264,0.234,0.185,0.127,0.059
0.87,-0.015,0.049,0.063,-0.015,-0.039,0.054,0.137,0.303,0.342,0.307,0.22,0.127
0.872,0.02,0.059,0.039,-0.039,-0.01,0.049,0.137,0.327,0.508,0.488,0.356,0.22
0.874,0.063,0.073,0.01,-0.068,0.024,0.039,0.117,0.351,0.703,0.698,0.517,0.322
0.876,0.127,0.093,-0.034,-0.107,0.078,0.029,0.107,0.332,0.874,0.908,0.678,0.429
0.878,0.205,0.132,-0.073,-0.166,0.137,0.029,0.088,0.254,1.015,1.118,0.849,0.551
0.88,0.264,0.176,-0.088,-0.22,0.176,0.044,0.01,0.122,1.152,1.357,1.039,0.673
0.882,0.317,0.224,-0.093,-0.268,0.205,0.063,-0.093,-0.01,1.318,1.625,1.254,0.815
0.884,0.395,0.268,-0.127,-0.332,0.259,0.068,-0.229,-0.146,1.459,1.859,1.435,0.937
0.886,0.449,0.303,-0.146,-0.376,0.298,0.078,-0.351,-0.249,1.61,2.069,1.586,1.03
0.888,0.468,0.342,-0.127,-0.405,0.298,0.107,-0.464,-0.356,1.723,2.196,1.669,1.088
0.89,0.468,0.376,-0.093,-0.42,0.278,0.142,-0.532,-0.415,1.742,2.113,1.615,1.064
0.892,0.459,0.259,-0.2,-0.356,0.327,0.029,-0.561,-0.439,1.645,1.83,1.371,0.893
0.894,0.429,0.127,-0.303,-0.278,0.366,-0.088,-0.6,-0.488,1.459,1.488,1.113,0.708
0.896,0.356,0.083,-0.273,-0.22,0.312,-0.098,-0.615,-0.561,1.161,1.152,0.874,0.561
0.898,0.259,0.073,-0.185,-0.166,0.22,-0.059,-0.61,-0.605,0.82,0.791,0.62,0.41
0.9,0.161,0.068,-0.093,-0.112,0.127,-0.015,-0.644,-0.673,0.371,0.395,0.356,0.254
0.902,0.054,0.054,0.0,-0.054,0.024,0.024,-0.669,-0.752,-0.122,0.024,0.107,0.112
0.904,0.0,0.068,0.068,-0.034,-0.034,0.068,-0.615,-0.717,-0.342,-0.142,-0.015,0.034
0.906,-0.029,0.078,0.107,-0.024,-0.068,0.093,-0.537,-0.625,-0.351,-0.146,-0.029,0.024
0.908,-0.024,0.073,0.098,-0.024,-0.063,0.083,-0.454,-0.542,-0.293,-0.107,-0.015,0.02
0.91,-0.015,0.068,0.083,-0.024,-0.049,0.073,-0.371,-0.464,-0.239,-0.073,0.0,0.015
0.912,-0.024,0.049,0.073,-0.01,-0.049,0.059,-0.312,-0.405,-0.21,-0.068,-0.005,0.01
0.914,-0.029,0.034,0.063,0.0,-0.049,0.049,-0.254,-0.346,-0.19,-0.073,-0.01,-0.005
0.916,-0.029,0.029,0.059,0.0,-0.044,0.044,-0.181,-0.268,-0.137,-0.054,-0.01,-0.005
0.918,-0.039,0.029,0.068,0.005,-0.054,0.049,-0.132,-0.19,-0.102,-0.044,-0.005,-0.005
0.92,-0.024,0.034,0.059,-0.005,-0.044,0.044,-0.093,-0.146,-0.088,-0.039,-0.005,-0.005
0.922,-0.015,0.029,0.044,-0.005,-0.029,0.034,-0.059,-0.107,-0.068,-0.029,0.0,-0.005
0.924,-0.01,0.005,0.015,0.005,-0.015,0.01,-0.044,-0.083,-0.068,-0.039,-0.015,-0.015
0.926,-0.01,0.015,0.024,0.0,-0.02,0.02,-0.034,-0.049,-0.049,-0.024,0.005,-0.01
0.928,-0.005,0.01,0.015,0.0,-0.01,0.01,-0.02,-0.034,-0.039,-0.024,0.0,-0.005
0.93,-0.01,0.005,0.015,0.005,-0.015,0.01,-0.015,-0.034,-0.044,-0.029,-0.01,-0.015
0.932,-0.01,0.0,0.01,0.005,-0.01,0.005,-0.005,-0.024,-0.034,-0.024,0.0,-0.01
0.934,-0.024,-0.02,0.005,0.024,-0.015,-0.01,-0.01,-0.034,-0.039,-0.024,-0.005,-0.02
0.936,-0.02,-0.02,0.0,0.02,-0.01,-0.01,-0.005,-0.024,-0.039,-0.029,-0.01,-0.02
0.938,-0.015,-0.005,0.01,0.01,-0.015,0.0,0.005,-0.02,-0.039,-0.034,-0.01,-0.029
0.94,-0.02,-0.015,0.005,0.02,-0.015,-0.005,0.015,-0.005,-0.034,-0.034,-0.01,-0.024
0.942,-0.02,-0.015,0.005,0.02,-0.015,-0.005,0.024,0.01,-0.029,-0.029,-0.015,-0.024
0.944,-0.02,-0.02,0.0,0.02,-0.01,-0.01,0.029,0.015,-0.029,-0.034,-0.02,-0.029
0.946,-0.024,-0.015,0.01,0.02,-0.02,-0.005,0.029,0.015,-0.034,-0.029,-0.02,-0.034
0.948,-0.02,-0.01,0.01,0.015,-0.015,0.0,0.034,0.029,-0.024,-0.024,-0.01,-0.02
0.95,-0.015,-0.005,0.01,0.01,-0.015,0.0,0.029,0.015,-0.034,-0.034,-0.02,-0.029
0.952,-0.01,-0.01,0.0,0.01,-0.005,-0.005,0.034,0.01,-0.029,-0.029,-0.02,-0.029
0.954,-0.02,-0.02,0.0,0.02,-0.01,-0.01,0.029,0.01,-0.029,-0.024,-0.015,-0.029
0.956,-0.02,-0.024,-0.005,0.024,-0.01,-0.015,0.029,0.01,-0.024,-0.029,-0.02,-0.024
0.958,-0.015,-0.029,-0.015,0.024,0.0,-0.024,0.039,0.015,-0.024,-0.029,-0.02,-0.029
0.96,-0.02,-0.039,-0.02,0.029,0.0,-0.029,0.034,0.02,-0.024,-0.034,-0.015,-0.024
0.962,-0.029,-0.029,0.0,0.029,-0.015,-0.015,0.044,0.034,-0.02,-0.02,-0.005,-0.015
0.964,-0.02,-0.029,-0.01,0.024,-0.005,-0.02,0.049,0.034,-0.02,-0.034,-0.015,-0.024
0.966,-0.015,-0.024,-0.01,0.02,-0.005,-0.02,0.044,0.029,-0.029,-0.029,-0.015,-0.029
0.968,-0.01,-0.01,0.0,0.01,-0.005,-0.005,0.049,0.039,-0.015,-0.02,-0.005,-0.015
0.97,-0.01,-0.015,-0.005,0.015,-0.005,-0.01,0.049,0.029,-0.015,-0.02,-0.01,-0.02
0.972,-0.02,-0.029,-0.01,0.024,-0.005,-0.02,0.039,0.02,-0.02,-0.029,-0.015,-0.02
0.974,-0.029,-0.015,0.015,0.024,-0.024,0.0,0.049,0.029,-0.01,-0.005,0.005,-0.01
0.976,-0.039,-0.02,0.02,0.029,-0.029,0.0,0.044,0.029,-0.01,-0.015,-0.005,-0.01
0.978,-0.029,-0.02,0.01,0.024,-0.02,-0.005,0.044,0.029,-0.015,-0.02,-0.01,-0.02
0.98,-0.029,-0.02,0.01,0.024,-0.02,-0.005,0.044,0.034,-0.015,-0.02,-0.005,-0.015
0.982,-0.02,-0.02,0.0,0.02,-0.01,-0.01,0.049,0.039,-0.02,-0.02,-0.01,-0.02
0.984,-0.01,-0.01,0.0,0.01,-0.005,-0.005,0.059,0.049,-0.01,-0.024,-0.005,-0.01
0.986,-0.015,-0.015,0.0,0.015,-0.01,-0.01,0.063,0.049,-0.015,-0.02,0.0,-0.01
0.988,-0.01,-0.01,0.0,0.01,-0.005,-0.005,0.063,0.044,-0.01,-0.02,0.0,-0.005
0.99,0.005,0.01,0.005,-0.005,0.0,0.005,0.068,0.049,-0.005,-0.02,0.0,-0.005
0.992,0.005,0.01,0.005,-0.005,0.0,0.005,0.063,0.044,-0.005,-0.015,0.005,-0.005
0.994,0.005,0.015,0.01,-0.01,-0.005,0.01,0.059,0.039,-0.005,-0.01,0.01,-0.01
0.996,-0.005,0.01,0.015,0.0,-0.01,0.01,0.059,0.044,0.005,-0.005,0.01,0.0
0.998,-0.02,0.0,0.02,0.01,-0.02,0.01,0.054,0.039,-0.005,-0.005,0.005,-0.01
1.0,-0.034,-0.01,0.024,0.024,-0.029,0.005,0.059,0.044,-0.01,0.0,0.01,-0.005
1.002,-0.029,-0.02,0.01,0.024,-0.02,-0.005,0.054,0.049,-0.015,-0.005,0.005,-0.015
1.004,-0.01,-0.015,-0.005,0.015,-0.005,-0.01,0.049,0.044,-0.02,-0.02,-0.015,-0.02
1.006,-0.01,-0.01,0.0,0.01,-0.005,-0.005,0.063,0.054,-0.01,-0.01,0.0,-0.015
1.008,-0.024,-0.01,0.015,0.02,-0.02,0.0,0.063,0.059,-0.005,-0.005,0.005,-0.005
1.01,-0.02,-0.015,0.005,0.02,-0.015,-0.005,0.063,0.059,0.005,-0.01,0.005,-0.005
1.012,-0.015,-0.005,0.01,0.01,-0.015,0.0,0.059,0.054,0.0,-0.01,0.005,0.0
1.014,-0.024,-0.005,0.02,0.015,-0.024,0.005,0.059,0.049,0.005,0.005,0.01,0.0
1.016,-0.01,0.0,0.01,0.005,-0.01,0.005,0.059,0.054,0.015,0.005,0.015,0.0
1.018,0.0,0.005,0.005,0.0,-0.005,0.005,0.068,0.063,0.015,0.01,0.02,0.0
1.02,0.0,0.01,0.01,-0.005,-0.005,0.01,0.068,0.063,0.01,0.005,0.01,0.0
1.022,0.0,0.01,0.01,-0.005,-0.005,0.01,0.068,0.063,0.01,0.0,0.01,-0.005
1.024,-0.015,-0.01,0.005,0.015,-0.01,-0.005,0.068,0.063,0.0,-0.01,0.0,-0.01
1.026,-0.024,-0.02,0.005,0.024,-0.015,-0.01,0.063,0.059,-0.01,-0.015,-0.005,-0.02
1.028,-0.029,-0.02,0.01,0.024,-0.02,-0.005,0.059,0.054,-0.01,-0.01,-0.005,-0.015
1.03,-0.024,-0.015,0.01,0.02,-0.02,-0.005,0.063,0.049,-0.01,-0.015,0.0,-0.02
1.032,-0.015,-0.015,0.0,0.015,-0.01,-0.01,0.063,0.049,-0.005,-0.015,0.0,-0.015
1.034,-0.01,-0.005,0.005,0.01,-0.01,0.0,0.068,0.054,0.005,0.0,0.01,-0.01
1.036,-0.02,-0.015,0.005,0.02,-0.015,-0.005,0.068,0.059,0.01,0.0,0.01,0.0
1.038,-0.02,-0.005,0.015,0.015,-0.02,0.005,0.063,0.059,0.015,0.005,0.01,-0.005
1.04,0.0,0.01,0.01,-0.005,-0.005,0.01,0.068,0.068,0.02,0.01,0.02,0.01
1.042,0.0,0.01,0.01,-0.005,-0.005,0.01,0.078,0.078,0.02,0.02,0.02,0.01
1.044,0.005,-0.005,-0.01,0.0,0.005,-0.01,0.068,0.078,0.015,0.0,0.01,0.0
1.046,-0.005,-0.01,-0.005,0.01,0.0,-0.01,0.068,0.068,0.005,0.0,0.005,-0.015
1.048,-0.005,-0.005,0.0,0.005,-0.005,-0.005,0.073,0.078,0.005,0.0,0.01,-0.005
1.05,0.0,-0.005,-0.005,0.005,0.0,-0.005,0.073,0.073,0.01,0.005,0.005,-0.005
1.052,0.005,0.0,-0.005,0.0,0.005,-0.005,0.068,0.068,0.01,-0.005,0.005,-0.005
1.054,-0.029,-0.01,0.02,0.02,-0.024,0.005,0.063,0.068,0.01,0.01,0.015,0.0
1.056,-0.034,-0.015,0.02,0.024,-0.029,0.0,0.063,0.073,0.02,0.01,0.02,0.01
1.058,-0.02,0.0,0.02,0.01,-0.02,0.01,0.068,0.078,0.02,0.01,0.02,0.005
1.06,-0.015,0.005,0.02,0.005,-0.02,0.01,0.073,0.078,0.01,0.005,0.024,0.005
1.062,-0.01,0.01,0.02,0.0,-0.015,0.015,0.073,0.078,0.01,0.01,0.024,0.005
1.064,-0.01,0.005,0.015,0.005,-0.015,0.01,0.078,0.093,0.02,0.005,0.024,0.01
1.066,-0.015,-0.005,0.01,0.01,-0.015,0.0,0.083,0.093,0.015,0.01,0.024,0.005
1.068,-0.029,-0.015,0.015,0.024,-0.024,0.0,0.068,0.078,0.005,0.0,0.02,0.005
1.07,-0.015,-0.005,0.01,0.01,-0.015,0.0,0.068,0.083,0.015,0.005,0.01,0.0
1.072,-0.015,-0.015,0.0,0.015,-0.01,-0.01,0.063,0.073,0.01,0.0,0.01,-0.005
1.074,-0.01,-0.01,0.0,0.01,-0.005,-0.005,0.063,0.078,0.01,0.005,0.015,0.0
1.076,-0.02,0.0,0.02,0.01,-0.02,0.01,0.068,0.088,0.029,0.015,0.02,0.015
1.078,-0.015,0.015,0.029,0.0,-0.024,0.02,0.083,0.102,0.029,0.02,0.024,0.01
1.08,-0.005,0.005,0.01,0.0,-0.01,0.005,0.083,0.102,0.029,0.015,0.029,0.01
1.082,-0.015,0.005,0.02,0.005,-0.02,0.01,0.083,0.107,0.029,0.02,0.024,0.01
1.084,-0.015,0.0,0.015,0.01,-0.015,0.005,0.083,0.112,0.029,0.01,0.024,0.01
1.086,-0.005,0.005,0.01,0.0,-0.01,0.005,0.083,0.112,0.024,0.015,0.02,0.0
1.088,0.0,0.005,0.005,0.0,-0.005,0.005,0.078,0.117,0.029,0.01,0.015,0.005
1.09,-0.005,0.02,0.024,-0.005,-0.015,0.02,0.078,0.112,0.034,0.01,0.015,0.0
1.092,-0.01,0.005,0.015,0.005,-0.015,0.01,0.073,0.112,0.034,0.01,0.015,-0.005
1.094,-0.01,-0.01,0.0,0.01,-0.005,-0.005,0.068,0.107,0.024,0.015,0.015,-0.005
1.096,0.005,0.0,-0.005,0.0,0.005,-0.005,0.073,0.112,0.034,0.015,0.02,0.005
1.098,-0.015,-0.005,0.01,0.01,-0.015,0.0,0.083,0.127,0.029,0.02,0.024,0.005
1.1,-0.01,0.01,0.02,0.0,-0.015,0.015,0.083,0.122,0.029,0.015,0.024,0.0
1.102,0.015,0.039,0.024,-0.024,-0.005,0.029,0.098,0.146,0.049,0.034,0.044,0.02
1.104,0.01,0.029,0.02,-0.02,-0.005,0.024,0.102,0.161,0.054,0.034,0.039,0.02
1.106,0.005,0.02,0.015,-0.01,-0.005,0.015,0.093,0.151,0.044,0.029,0.034,0.015
1.108,-0.02,-0.005,0.015,0.015,-0.02,0.005,0.093,0.146,0.049,0.024,0.034,0.02
1.11,-0.015,0.0,0.015,0.01,-0.015,0.005,0.088,0.151,0.049,0.024,0.029,0.015
1.112,0.0,0.015,0.015,-0.005,-0.01,0.015,0.093,0.156,0.059,0.029,0.034,0.02
1.114,0.005,0.024,0.02,-0.015,-0.01,0.02,0.088,0.156,0.059,0.029,0.039,0.024
1.116,0.01,0.024,0.015,-0.015,-0.005,0.02,0.093,0.161,0.063,0.029,0.034,0.024
1.118,0.0,0.02,0.02,-0.01,-0.01,0.02,0.093,0.176,0.068,0.034,0.039,0.024
1.12,0.005,0.02,0.015,-0.01,-0.005,0.015,0.102,0.185,0.078,0.044,0.044,0.034
1.122,-0.01,0.01,0.02,0.0,-0.015,0.015,0.098,0.181,0.068,0.039,0.039,0.024
1.124,-0.015,-0.005,0.01,0.01,-0.015,0.0,0.102,0.19,0.078,0.039,0.034,0.024
1.126,-0.005,0.005,0.01,0.0,-0.01,0.005,0.107,0.2,0.073,0.039,0.044,0.024
1.128,0.005,0.005,0.0,-0.005,0.0,0.0,0.112,0.215,0.088,0.044,0.049,0.034
1.13,0.005,0.02,0.015,-0.01,-0.005,0.015,0.107,0.215,0.088,0.049,0.054,0.034
1.132,0.005,0.015,0.01,-0.01,-0.005,0.01,0.112,0.224,0.102,0.063,0.059,0.044
1.134,0.005,0.029,0.024,-0.015,-0.01,0.024,0.107,0.224,0.107,0.068,0.073,0.049
1.136,0.005,0.034,0.029,-0.02,-0.015,0.029,0.112,0.229,0.112,0.068,0.073,0.059
1.138,0.005,0.034,0.029,-0.02,-0.015,0.029,0.117,0.244,0.112,0.078,0.078,0.059
1.14,0.0,0.024,0.024,-0.01,-0.015,0.024,0.117,0.254,0.117,0.073,0.078,0.059
1.142,0.01,0.029,0.02,-0.02,-0.005,0.024,0.117,0.259,0.112,0.083,0.078,0.059
1.144,0.024,0.044,0.02,-0.034,0.0,0.029,0.127,0.273,0.127,0.083,0.083,0.063
1.146,0.029,0.049,0.02,-0.039,0.005,0.034,0.122,0.278,0.122,0.078,0.083,0.063
1.148,0.029,0.059,0.029,-0.044,0.0,0.044,0.132,0.298,0.142,0.088,0.098,0.073
1.15,0.015,0.063,0.049,-0.039,-0.02,0.054,0.132,0.298,0.146,0.093,0.098,0.068
1.152,0.015,0.068,0.054,-0.039,-0.02,0.059,0.132,0.307,0.156,0.102,0.098,0.078
1.154,0.024,0.078,0.054,-0.049,-0.015,0.063,0.132,0.312,0.161,0.112,0.107,0.093
1.156,0.029,0.078,0.049,-0.054,-0.01,0.063,0.142,0.322,0.171,0.112,0.112,0.098
1.158,0.029,0.083,0.054,-0.054,-0.015,0.068,0.142,0.332,0.166,0.117,0.112,0.088
1.16,0.01,0.073,0.063,-0.039,-0.029,0.068,0.137,0.332,0.171,0.117,0.117,0.098
1.162,0.01,0.068,0.059,-0.039,-0.024,0.063,0.142,0.342,0.176,0.122,0.122,0.098
1.164,0.029,0.088,0.059,-0.059,-0.015,0.073,0.151,0.366,0.2,0.127,0.146,0.117
1.166,0.034,0.093,0.059,-0.063,-0.015,0.073,0.151,0.366,0.195,0.137,0.146,0.117
1.168,0.02,0.083,0.063,-0.049,-0.024,0.073,0.142,0.371,0.2,0.142,0.146,0.122
1.17,0.024,0.083,0.059,-0.054,-0.02,0.068,0.142,0.366,0.2,0.146,0.146,0.122
1.172,0.044,0.107,0.063,-0.073,-0.01,0.083,0.146,0.376,0.215,0.161,0.156,0.137
1.174,0.054,0.132,0.078,-0.093,-0.015,0.102,0.151,0.386,0.234,0.181,0.176,0.156
1.176,0.068,0.142,0.073,-0.102,-0.005,0.107,0.156,0.39,0.249,0.185,0.185,0.166
1.178,0.059,0.132,0.073,-0.093,-0.01,0.102,0.146,0.395,0.234,0.185,0.19,0.161
1.18,0.044,0.127,0.083,-0.083,-0.02,0.102,0.146,0.395,0.239,0.195,0.195,0.166
1.182,0.034,0.117,0.083,-0.073,-0.024,0.098,0.146,0.395,0.244,0.19,0.2,0.166
1.184,0.049,0.117,0.068,-0.083,-0.01,0.093,0.142,0.4,0.249,0.185,0.2,0.166
1.186,0.059,0.127,0.068,-0.093,-0.005,0.098,0.146,0.41,0.259,0.2,0.2,0.176
1.188,0.063,0.132,0.068,-0.098,-0.005,0.098,0.142,0.415,0.264,0.205,0.205,0.185
1.19,0.054,0.142,0.088,-0.098,-0.02,0.112,0.142,0.415,0.268,0.21,0.215,0.185
1.192,0.054,0.137,0.083,-0.093,-0.015,0.107,0.132,0.415,0.278,0.21,0.22,0.19
1.194,0.054,0.142,0.088,-0.098,-0.02,0.112,0.132,0.415,0.283,0.229,0.224,0.195
1.196,0.063,0.161,0.098,-0.112,-0.02,0.127,0.132,0.415,0.293,0.234,0.234,0.2
1.198,0.068,0.171,0.102,-0.117,-0.02,0.137,0.132,0.415,0.283,0.234,0.234,0.2
1.2,0.068,0.176,0.107,-0.122,-0.02,0.142,0.132,0.415,0.283,0.229,0.234,0.205
1.202,0.078,0.181,0.102,-0.127,-0.015,0.142,0.137,0.42,0.298,0.234,0.244,0.21
1.204,0.078,0.166,0.088,-0.122,-0.005,0.127,0.142,0.42,0.293,0.234,0.234,0.21
1.206,0.078,0.166,0.088,-0.122,-0.005,0.127,0.137,0.415,0.283,0.224,0.229,0.2
1.208,0.088,0.176,0.088,-0.132,0.0,0.132,0.137,0.42,0.293,0.229,0.234,0.205
1.21,0.073,0.171,0.098,-0.122,-0.015,0.132,0.127,0.4,0.283,0.22,0.224,0.195
1.212,0.059,0.156,0.098,-0.107,-0.02,0.127,0.122,0.39,0.283,0.215,0.224,0.195
1.214,0.063,0.166,0.102,-0.112,-0.02,0.132,0.117,0.39,0.278,0.22,0.224,0.195
1.216,0.073,0.161,0.088,-0.117,-0.01,0.122,0.117,0.381,0.278,0.22,0.224,0.195
1.218,0.083,0.171,0.088,-0.127,-0.005,0.127,0.122,0.376,0.268,0.215,0.229,0.195
1.22,0.078,0.166,0.088,-0.122,-0.005,0.127,0.122,0.381,0.273,0.215,0.22,0.2
1.222,0.083,0.161,0.078,-0.122,0.0,0.117,0.122,0.366,0.264,0.205,0.22,0.195
1.224,0.093,0.156,0.063,-0.122,0.015,0.107,0.117,0.351,0.259,0.2,0.215,0.19
1.226,0.078,0.151,0.073,-0.112,0.0,0.112,0.112,0.346,0.254,0.195,0.21,0.19
1.228,0.068,0.132,0.063,-0.098,0.0,0.098,0.112,0.332,0.254,0.195,0.205,0.185
1.23,0.063,0.117,0.054,-0.088,0.005,0.083,0.102,0.312,0.239,0.185,0.19,0.166
1.232,0.059,0.117,0.059,-0.088,0.0,0.088,0.098,0.303,0.239,0.176,0.185,0.166
1.234,0.059,0.112,0.054,-0.083,0.0,0.083,0.088,0.283,0.229,0.171,0.181,0.156
1.236,0.059,0.102,0.044,-0.078,0.005,0.073,0.078,0.273,0.22,0.161,0.171,0.146
1.238,0.049,0.093,0.044,-0.068,0.0,0.068,0.083,0.259,0.21,0.156,0.166,0.137
1.24,0.054,0.093,0.039,-0.073,0.005,0.063,0.088,0.254,0.215,0.156,0.166,0.146
1.242,0.059,0.093,0.034,-0.073,0.01,0.063,0.088,0.244,0.205,0.151,0.161,0.137
1.244,0.063,0.083,0.02,-0.073,0.02,0.049,0.098,0.239,0.205,0.146,0.156,0.132
1.246,0.049,0.068,0.02,-0.059,0.015,0.044,0.078,0.224,0.185,0.142,0.146,0.127
1.248,0.039,0.054,0.015,-0.044,0.01,0.034,0.063,0.195,0.171,0.122,0.127,0.107
1.25,0.034,0.054,0.02,-0.044,0.005,0.034,0.063,0.185,0.161,0.122,0.122,0.102
1.252,0.029,0.039,0.01,-0.034,0.01,0.024,0.054,0.161,0.151,0.107,0.107,0.088
1.254,0.039,0.063,0.024,-0.049,0.005,0.044,0.054,0.151,0.151,0.102,0.102,0.083
1.256,0.034,0.054,0.02,-0.044,0.005,0.034,0.054,0.137,0.137,0.093,0.098,0.078
1.258,0.015,0.029,0.015,-0.02,0.0,0.02,0.039,0.112,0.117,0.078,0.083,0.054
1.26,0.015,0.029,0.015,-0.02,0.0,0.02,0.039,0.107,0.107,0.073,0.073,0.044
1.262,0.015,0.034,0.02,-0.024,-0.005,0.024,0.049,0.102,0.107,0.068,0.078,0.044
1.264,0.015,0.02,0.005,-0.015,0.005,0.01,0.049,0.102,0.093,0.059,0.063,0.034
1.266,0.015,0.015,0.0,-0.015,0.005,0.005,0.039,0.088,0.083,0.059,0.059,0.029
1.268,0.005,-0.005,-0.01,0.0,0.005,-0.01,0.034,0.073,0.073,0.049,0.049,0.02
1.27,0.01,0.01,0.0,-0.01,0.005,0.005,0.034,0.063,0.068,0.044,0.039,0.015
1.272,0.024,0.02,-0.005,-0.02,0.015,0.005,0.034,0.063,0.068,0.049,0.039,0.015
1.274,0.0,0.01,0.01,-0.005,-0.005,0.01,0.024,0.049,0.059,0.044,0.034,0.01
1.276,0.0,0.0,0.0,0.0,0.0,0.0,0.02,0.034,0.039,0.029,0.024,0.0
1.278,0.0,-0.01,-0.01,0.005,0.005,-0.01,0.024,0.029,0.034,0.024,0.02,-0.005
1.28,0.0,-0.01,-0.01,0.005,0.005,-0.01,0.015,0.02,0.024,0.015,0.015,-0.01
1.282,0.005,0.005,0.0,-0.005,0.0,0.0,0.024,0.02,0.024,0.015,0.02,-0.005
1.284,-0.005,-0.005,0.0,0.005,-0.005,-0.005,0.024,0.02,0.02,0.015,0.01,-0.01
1.286,-0.005,-0.005,0.0,0.005,-0.005,-0.005,0.024,0.02,0.02,0.01,0.015,-0.005
1.288,-0.005,-0.005,0.0,0.005,-0.005,-0.005,0.029,0.015,0.015,0.01,0.005,-0.005
1.29,0.0,-0.01,-0.01,0.005,0.005,-0.01,0.029,0.01,0.015,0.01,0.005,-0.01
1.292,0.015,-0.005,-0.02,-0.005,0.015,-0.015,0.024,0.01,0.02,0.015,0.01,-0.005
1.294,-0.005,-0.02,-0.015,0.015,0.005,-0.02,0.015,-0.005,0.005,0.01,0.005,-0.015
1.296,-0.005,-0.024,-0.02,0.015,0.005,-0.024,0.015,-0.01,0.005,0.005,0.0,-0.015
1.298,0.0,-0.02,-0.02,0.01,0.01,-0.02,0.01,-0.005,0.005,0.005,0.005,-0.02
1.3,-0.01,-0.024,-0.015,0.02,0.0,-0.02,0.01,-0.01,-0.005,0.0,-0.005,-0.02
1.302,-0.015,-0.024,-0.01,0.02,-0.005,-0.02,0.01,-0.02,-0.015,-0.01,-0.01,-0.029
1.304,-0.024,-0.039,-0.015,0.034,-0.005,-0.029,0.01,-0.02,-0.015,-0.015,-0.015,-0.029
1.306,-0.02,-0.034,-0.015,0.029,-0.005,-0.024,0.005,-0.02,-0.02,-0.015,-0.02,-0.034
1.308,-0.024,-0.029,-0.005,0.029,-0.01,-0.02,0.01,-0.024,-0.015,-0.015,-0.02,-0.039
1.31,-0.024,-0.034,-0.01,0.029,-0.01,-0.024,0.015,-0.02,-0.01,-0.01,-0.01,-0.039
1.312,-0.01,-0.029,-0.02,0.02,0.005,-0.024,0.01,-0.015,-0.015,-0.01,-0.01,-0.034
1.314,-0.01,-0.015,-0.005,0.015,-0.005,-0.01,0.005,-0.024,-0.015,-0.01,-0.01,-0.034
1.316,-0.02,-0.034,-0.015,0.029,-0.005,-0.024,0.01,-0.024,-0.015,-0.01,-0.01,-0.034
1.318,-0.02,-0.029,-0.01,0.024,-0.005,-0.02,0.005,-0.02,-0.02,-0.015,-0.015,-0.034
1.32,-0.024,-0.039,-0.015,0.034,-0.005,-0.029,0.005,-0.029,-0.02,-0.024,-0.024,-0.039
1.322,-0.034,-0.044,-0.01,0.039,-0.015,-0.029,0.005,-0.029,-0.024,-0.024,-0.024,-0.044
1.324,-0.015,-0.029,-0.015,0.024,0.0,-0.024,0.015,-0.02,-0.015,-0.02,-0.015,-0.034
1.326,-0.034,-0.044,-0.01,0.039,-0.015,-0.029,0.005,-0.02,-0.024,-0.024,-0.024,-0.039
1.328,-0.024,-0.039,-0.015,0.034,-0.005,-0.029,0.0,-0.029,-0.024,-0.029,-0.034,-0.044
1.33,-0.024,-0.039,-0.015,0.034,-0.005,-0.029,0.005,-0.034,-0.024,-0.029,-0.029,-0.044
1.332,-0.024,-0.044,-0.02,0.034,-0.005,-0.034,0.0,-0.029,-0.029,-0.029,-0.024,-0.044
1.334,-0.02,-0.029,-0.01,0.024,-0.005,-0.02,0.0,-0.029,-0.024,-0.029,-0.024,-0.039
1.336,-0.015,-0.029,-0.015,0.024,0.0,-0.024,0.005,-0.029,-0.02,-0.02,-0.015,-0.034
1.338,-0.02,-0.044,-0.024,0.034,0.0,-0.034,0.005,-0.024,-0.024,-0.029,-0.024,-0.039
1.34,-0.02,-0.039,-0.02,0.029,0.0,-0.029,0.01,-0.015,-0.015,-0.024,-0.015,-0.024
1.342,-0.01,-0.02,-0.01,0.015,0.0,-0.015,0.02,-0.01,-0.01,-0.02,-0.015,-0.02
1.344,-0.01,-0.02,-0.01,0.015,0.0,-0.015,0.02,-0.01,-0.01,-0.024,-0.015,-0.024
1.346,-0.024,-0.044,-0.02,0.034,-0.005,-0.034,0.0,-0.02,-0.02,-0.034,-0.029,-0.034
1.348,-0.039,-0.054,-0.015,0.049,-0.015,-0.034,-0.01,-0.034,-0.044,-0.054,-0.044,-0.054
1.35,-0.029,-0.044,-0.015,0.039,-0.01,-0.029,0.0,-0.029,-0.034,-0.049,-0.039,-0.049
1.352,-0.034,-0.049,-0.015,0.044,-0.01,-0.034,0.005,-0.024,-0.029,-0.044,-0.039,-0.044
1.354,-0.024,-0.034,-0.01,0.029,-0.01,-0.024,-0.005,-0.034,-0.034,-0.049,-0.039,-0.049
1.356,-0.015,-0.024,-0.01,0.02,-0.005,-0.02,0.005,-0.029,-0.024,-0.039,-0.029,-0.054
1.358,-0.015,-0.02,-0.005,0.02,-0.005,-0.015,0.005,-0.029,-0.029,-0.039,-0.029,-0.054
1.36,-0.024,-0.029,-0.005,0.029,-0.01,-0.02,0.01,-0.02,-0.024,-0.034,-0.029,-0.044
1.362,-0.024,-0.034,-0.01,0.029,-0.01,-0.024,0.015,-0.02,-0.024,-0.039,-0.029,-0.049
1.364,-0.02,-0.044,-0.024,0.034,0.0,-0.034,0.01,-0.02,-0.029,-0.049,-0.044,-0.054
1.366,-0.01,-0.039,-0.029,0.024,0.01,-0.034,0.01,-0.02,-0.039,-0.054,-0.044,-0.054
1.368,-0.005,-0.044,-0.039,0.024,0.015,-0.044,0.0,-0.024,-0.044,-0.063,-0.054,-0.063
1.37,-0.02,-0.034,-0.015,0.029,-0.005,-0.024,0.005,-0.02,-0.039,-0.054,-0.039,-0.049
1.372,-0.034,-0.024,0.01,0.029,-0.024,-0.01,0.015,-0.01,-0.02,-0.039,-0.029,-0.039
1.374,-0.039,-0.034,0.005,0.039,-0.024,-0.015,0.01,-0.015,-0.029,-0.044,-0.034,-0.044
1.376,-0.054,-0.049,0.005,0.054,-0.029,-0.024,0.005,-0.024,-0.039,-0.049,-0.039,-0.049
1.378,-0.054,-0.059,-0.005,0.059,-0.024,-0.034,0.005,-0.024,-0.039,-0.049,-0.044,-0.049
1.38,-0.049,-0.059,-0.01,0.054,-0.02,-0.034,0.01,-0.024,-0.039,-0.059,-0.049,-0.044
1.382,-0.029,-0.039,-0.01,0.034,-0.01,-0.024,0.015,-0.02,-0.044,-0.054,-0.039,-0.044
1.384,-0.01,-0.024,-0.015,0.02,0.0,-0.02,0.02,-0.005,-0.029,-0.044,-0.034,-0.034
1.386,-0.02,-0.029,-0.01,0.024,-0.005,-0.02,0.02,-0.005,-0.034,-0.044,-0.034,-0.039
1.388,-0.034,-0.034,0.0,0.034,-0.02,-0.02,0.02,-0.015,-0.034,-0.049,-0.034,-0.039
1.39,-0.034,-0.044,-0.01,0.039,-0.015,-0.029,0.015,-0.015,-0.039,-0.049,-0.034,-0.044
1.392,-0.01,-0.029,-0.02,0.02,0.005,-0.024,0.01,-0.02,-0.039,-0.049,-0.039,-0.044
1.394,-0.015,-0.034,-0.02,0.024,0.0,-0.029,0.01,-0.02,-0.044,-0.044,-0.029,-0.039
1.396,-0.034,-0.054,-0.02,0.044,-0.01,-0.039,0.0,-0.029,-0.054,-0.059,-0.044,-0.049
1.398,-0.039,-0.049,-0.01,0.044,-0.015,-0.029,0.005,-0.02,-0.049,-0.054,-0.039,-0.044
1.4,-0.029,-0.034,-0.005,0.034,-0.015,-0.02,0.01,-0.01,-0.044,-0.049,-0.034,-0.039
1.402,-0.02,-0.02,0.0,0.02,-0.01,-0.01,0.01,-0.01,-0.044,-0.044,-0.029,-0.039
1.404,-0.02,-0.034,-0.015,0.029,-0.005,-0.024,0.01,-0.015,-0.044,-0.054,-0.039,-0.044
1.406,-0.034,-0.039,-0.005,0.039,-0.015,-0.024,0.01,-0.01,-0.044,-0.049,-0.034,-0.039
1.408,-0.029,-0.039,-0.01,0.034,-0.01,-0.024,0.005,-0.02,-0.049,-0.059,-0.039,-0.044
1.41,-0.034,-0.039,-0.005,0.039,-0.015,-0.024,0.0,-0.024,-0.049,-0.059,-0.034,-0.049
1.412,-0.034,-0.034,0.0,0.034,-0.02,-0.02,0.0,-0.024,-0.049,-0.059,-0.039,-0.049
1.414,-0.029,-0.034,-0.005,0.034,-0.015,-0.02,0.005,-0.024,-0.049,-0.054,-0.029,-0.039
1.416,-0.02,-0.029,-0.01,0.024,-0.005,-0.02,-0.005,-0.029,-0.054,-0.059,-0.039,-0.044
1.418,-0.02,-0.02,0.0,0.02,-0.01,-0.01,-0.005,-0.02,-0.054,-0.054,-0.039,-0.044
1.42,-0.029,-0.02,0.01,0.024,-0.02,-0.005,0.005,-0.015,-0.044,-0.049,-0.029,-0.034
1.422,-0.034,-0.024,0.01,0.029,-0.024,-0.01,-0.005,-0.024,-0.054,-0.059,-0.029,-0.044
1.424,-0.02,-0.024,-0.005,0.024,-0.01,-0.015,-0.005,-0.02,-0.049,-0.059,-0.039,-0.039
1.426,-0.02,-0.024,-0.005,0.024,-0.01,-0.015,0.0,-0.02,-0.049,-0.054,-0.029,-0.034
1.428,-0.039,-0.044,-0.005,0.044,-0.02,-0.024,0.0,-0.024,-0.044,-0.054,-0.029,-0.034
1.43,-0.02,-0.029,-0.01,0.024,-0.005,-0.02,0.0,-0.024,-0.044,-0.049,-0.029,-0.029
1.432,-0.015,-0.02,-0.005,0.02,-0.005,-0.015,-0.005,-0.024,-0.044,-0.044,-0.029,-0.034
1.434,-0.015,-0.01,0.005,0.015,-0.01,-0.005,0.0,-0.024,-0.039,-0.034,-0.02,-0.024
1.436,-0.01,-0.01,0.0,0.01,-0.005,-0.005,-0.005,-0.029,-0.049,-0.044,-0.034,-0.029
1.438,-0.029,-0.029,0.0,0.029,-0.015,-0.015,-0.01,-0.024,-0.049,-0.039,-0.029,-0.029
1.44,-0.024,-0.024,0.0,0.024,-0.015,-0.015,-0.01,-0.024,-0.044,-0.044,-0.029,-0.024
1.442,-0.02,-0.015,0.005,0.02,-0.015,-0.005,-0.01,-0.024,-0.044,-0.039,-0.024,-0.029
1.444,-0.034,-0.034,0.0,0.034,-0.02,-0.02,-0.01,-0.02,-0.044,-0.049,-0.024,-0.029
1.446,-0.02,-0.029,-0.01,0.024,-0.005,-0.02,-0.01,-0.024,-0.044,-0.049,-0.029,-0.029
1.448,-0.015,-0.024,-0.01,0.02,-0.005,-0.02,-0.01,-0.029,-0.054,-0.049,-0.029,-0.029
1.45,-0.005,-0.015,-0.01,0.01,0.0,-0.015,-0.01,-0.029,-0.054,-0.039,-0.024,-0.024
1.452,0.0,-0.024,-0.024,0.015,0.01,-0.024,-0.01,-0.029,-0.044,-0.034,-0.024,-0.029
1.454,0.0,-0.024,-0.024,0.015,0.01,-0.024,-0.015,-0.034,-0.049,-0.044,-0.024,-0.029
1.456,-0.015,-0.029,-0.015,0.024,0.0,-0.024,-0.015,-0.039,-0.049,-0.039,-0.024,-0.029
1.458,-0.039,-0.044,-0.005,0.044,-0.02,-0.024,-0.015,-0.029,-0.044,-0.039,-0.02,-0.024
1.46,-0.039,-0.039,0.0,0.039,-0.02,-0.02,-0.024,-0.034,-0.044,-0.039,-0.024,-0.024
1.462,-0.024,-0.039,-0.015,0.034,-0.005,-0.029,-0.02,-0.039,-0.044,-0.039,-0.02,-0.024
1.464,-0.02,-0.039,-0.02,0.029,0.0,-0.029,-0.024,-0.044,-0.054,-0.044,-0.024,-0.034
1.466,-0.015,-0.039,-0.024,0.029,0.005,-0.034,-0.024,-0.039,-0.049,-0.039,-0.024,-0.024
1.468,-0.015,-0.029,-0.015,0.024,0.0,-0.024,-0.024,-0.039,-0.049,-0.039,-0.02,-0.024
1.47,-0.02,-0.029,-0.01,0.024,-0.005,-0.02,-0.024,-0.049,-0.054,-0.049,-0.024,-0.034
1.472,-0.005,-0.024,-0.02,0.015,0.005,-0.024,-0.024,-0.044,-0.049,-0.034,-0.02,-0.024
1.474,-0.02,-0.024,-0.005,0.024,-0.01,-0.015,-0.024,-0.044,-0.044,-0.034,-0.015,-0.02
1.476,-0.024,-0.02,0.005,0.024,-0.015,-0.01,-0.029,-0.049,-0.044,-0.039,-0.015,-0.024
1.478,-0.015,-0.02,-0.005,0.02,-0.005,-0.015,-0.034,-0.049,-0.049,-0.039,-0.024,-0.024
1.48,-0.015,-0.02,-0.005,0.02,-0.005,-0.015,-0.029,-0.044,-0.049,-0.039,-0.02,-0.02
1.482,-0.02,-0.034,-0.015,0.029,-0.005,-0.024,-0.024,-0.044,-0.044,-0.034,-0.02,-0.02
1.484,-0.02,-0.039,-0.02,0.029,0.0,-0.029,-0.029,-0.049,-0.049,-0.044,-0.024,-0.029
1.486,-0.029,-0.054,-0.024,0.044,-0.005,-0.039,-0.039,-0.054,-0.054,-0.049,-0.024,-0.029
1.488,-0.02,-0.034,-0.015,0.029,-0.005,-0.024,-0.029,-0.049,-0.049,-0.044,-0.02,-0.024
1.49,-0.024,-0.039,-0.015,0.034,-0.005,-0.029,-0.034,-0.054,-0.054,-0.049,-0.024,-0.034
1.492,-0.015,-0.034,-0.02,0.024,0.0,-0.029,-0.034,-0.054,-0.049,-0.044,-0.024,-0.029
1.494,0.0,-0.02,-0.02,0.01,0.01,-0.02,-0.034,-0.054,-0.044,-0.034,-0.015,-0.029
1.496,-0.015,-0.029,-0.015,0.024,0.0,-0.024,-0.034,-0.059,-0.054,-0.034,-0.02,-0.034
1.498,-0.01,-0.029,-0.02,0.02,0.005,-0.024,-0.034,-0.059,-0.059,-0.044,-0.02,-0.034
1.5,0.0,-0.02,-0.02,0.01,0.01,-0.02,-0.029,-0.054,-0.054,-0.044,-0.02,-0.029
1.502,-0.01,-0.024,-0.015,0.02,0.0,-0.02,-0.029,-0.059,-0.059,-0.044,-0.02,-0.029
1.504,-0.01,-0.02,-0.01,0.015,0.0,-0.015,-0.029,-0.059,-0.063,-0.054,-0.02,-0.034
1.506,-0.01,-0.024,-0.015,0.02,0.0,-0.02,-0.039,-0.059,-0.063,-0.059,-0.02,-0.034
1.508,-0.01,-0.02,-0.01,0.015,0.0,-0.015,-0.034,-0.059,-0.063,-0.059,-0.02,-0.034
1.51,0.02,0.0,-0.02,-0.01,0.02,-0.01,-0.029,-0.059,-0.063,-0.049,-0.02,-0.024
1.512,-0.01,-0.02,-0.01,0.015,0.0,-0.015,-0.034,-0.063,-0.063,-0.049,-0.02,-0.029
1.514,-0.039,-0.059,-0.02,0.049,-0.01,-0.039,-0.044,-0.073,-0.063,-0.054,-0.024,-0.039
1.516,-0.024,-0.049,-0.024,0.039,0.0,-0.039,-0.039,-0.078,-0.063,-0.059,-0.029,-0.044
1.518,-0.015,-0.039,-0.024,0.029,0.005,-0.034,-0.034,-0.068,-0.059,-0.054,-0.024,-0.039
1.52,-0.01,-0.034,-0.024,0.024,0.005,-0.029,-0.034,-0.063,-0.059,-0.049,-0.02,-0.034
1.522,-0.01,-0.029,-0.02,0.02,0.005,-0.024,-0.034,-0.068,-0.063,-0.054,-0.024,-0.039
1.524,-0.015,-0.039,-0.024,0.029,0.005,-0.034,-0.034,-0.063,-0.059,-0.054,-0.02,-0.039
1.526,-0.024,-0.039,-0.015,0.034,-0.005,-0.029,-0.039,-0.068,-0.063,-0.059,-0.024,-0.039
1.528,-0.024,-0.044,-0.02,0.034,-0.005,-0.034,-0.034,-0.068,-0.063,-0.059,-0.024,-0.039
1.53,-0.024,-0.049,-0.024,0.039,0.0,-0.039,-0.039,-0.073,-0.063,-0.063,-0.024,-0.049
1.532,-0.01,-0.044,-0.034,0.029,0.01,-0.039,-0.044,-0.073,-0.063,-0.059,-0.024,-0.044
1.534,-0.005,-0.044,-0.039,0.024,0.015,-0.044,-0.044,-0.083,-0.068,-0.059,-0.024,-0.044
1.536,-0.01,-0.039,-0.029,0.024,0.01,-0.034,-0.039,-0.073,-0.063,-0.054,-0.024,-0.039
1.538,0.0,-0.044,-0.044,0.024,0.02,-0.044,-0.049,-0.078,-0.073,-0.054,-0.024,-0.044
1.54,-0.005,-0.044,-0.039,0.024,0.015,-0.044,-0.044,-0.073,-0.068,-0.054,-0.024,-0.039
1.542,-0.015,-0.044,-0.029,0.029,0.005,-0.039,-0.034,-0.059,-0.059,-0.044,-0.005,-0.024
1.544,-0.024,-0.049,-0.024,0.039,0.0,-0.039,-0.039,-0.063,-0.063,-0.049,-0.02,-0.029
1.546,-0.02,-0.049,-0.029,0.034,0.005,-0.039,-0.044,-0.078,-0.073,-0.059,-0.029,-0.039
1.548,-0.02,-0.039,-0.02,0.029,0.0,-0.029,-0.039,-0.073,-0.063,-0.054,-0.02,-0.029
1.55,-0.024,-0.044,-0.02,0.034,-0.005,-0.034,-0.039,-0.078,-0.068,-0.059,-0.024,-0.034
1.552,-0.015,-0.044,-0.029,0.029,0.005,-0.039,-0.034,-0.073,-0.063,-0.054,-0.024,-0.034
1.554,-0.01,-0.044,-0.034,0.029,0.01,-0.039,-0.039,-0.073,-0.068,-0.059,-0.024,-0.039
1.556,-0.005,-0.029,-0.024,0.02,0.01,-0.029,-0.039,-0.073,-0.073,-0.059,-0.024,-0.039
1.558,-0.01,-0.039,-0.029,0.024,0.01,-0.034,-0.044,-0.078,-0.073,-0.063,-0.024,-0.044
1.56,-0.034,-0.063,-0.029,0.049,-0.005,-0.049,-0.049,-0.083,-0.078,-0.063,-0.029,-0.039
1.562,-0.029,-0.049,-0.02,0.039,-0.005,-0.034,-0.039,-0.073,-0.068,-0.059,-0.024,-0.034
1.564,-0.015,-0.029,-0.015,0.024,0.0,-0.024,-0.039,-0.068,-0.068,-0.059,-0.024,-0.034
1.566,-0.015,-0.034,-0.02,0.024,0.0,-0.029,-0.039,-0.073,-0.073,-0.063,-0.029,-0.039
1.568,0.01,-0.02,-0.029,0.005,0.02,-0.024,-0.034,-0.068,-0.063,-0.059,-0.029,-0.034
1.57,0.005,-0.034,-0.039,0.015,0.02,-0.039,-0.039,-0.068,-0.063,-0.054,-0.034,-0.039
1.572,-0.01,-0.039,-0.029,0.024,0.01,-0.034,-0.044,-0.078,-0.068,-0.063,-0.034,-0.044
1.574,-0.029,-0.049,-0.02,0.039,-0.005,-0.034,-0.044,-0.078,-0.068,-0.063,-0.029,-0.044
1.576,-0.034,-0.044,-0.01,0.039,-0.015,-0.029,-0.044,-0.073,-0.068,-0.059,-0.029,-0.044
1.578,-0.02,-0.039,-0.02,0.029,0.0,-0.029,-0.049,-0.083,-0.073,-0.059,-0.029,-0.049
1.58,-0.029,-0.044,-0.015,0.039,-0.01,-0.029,-0.044,-0.088,-0.073,-0.063,-0.029,-0.044
1.582,-0.034,-0.044,-0.01,0.039,-0.015,-0.029,-0.049,-0.083,-0.073,-0.063,-0.029,-0.044
1.584,-0.02,-0.044,-0.024,0.034,0.0,-0.034,-0.039,-0.078,-0.068,-0.054,-0.029,-0.039
1.586,-0.02,-0.044,-0.024,0.034,0.0,-0.034,-0.044,-0.078,-0.073,-0.059,-0.029,-0.039
1.588,-0.029,-0.044,-0.015,0.039,-0.01,-0.029,-0.049,-0.088,-0.078,-0.068,-0.034,-0.049
1.59,-0.029,-0.049,-0.02,0.039,-0.005,-0.034,-0.044,-0.083,-0.073,-0.059,-0.039,-0.049
1.592,-0.029,-0.049,-0.02,0.039,-0.005,-0.034,-0.039,-0.078,-0.068,-0.059,-0.029,-0.044
1.594,-0.015,-0.039,-0.024,0.029,0.005,-0.034,-0.039,-0.083,-0.068,-0.059,-0.029,-0.044
1.596,-0.024,-0.054,-0.029,0.039,0.0,-0.044,-0.039,-0.083,-0.073,-0.063,-0.029,-0.049
1.598,-0.015,-0.044,-0.029,0.029,0.005,-0.039,-0.044,-0.078,-0.073,-0.059,-0.024,-0.044
1.6,-0.01,-0.034,-0.024,0.024,0.005,-0.029,-0.039,-0.078,-0.068,-0.059,-0.024,-0.034
1.602,-0.015,-0.039,-0.024,0.029,0.005,-0.034,-0.049,-0.088,-0.078,-0.063,-0.029,-0.044
1.604,-0.02,-0.049,-0.029,0.034,0.005,-0.039,-0.049,-0.083,-0.073,-0.063,-0.029,-0.039
1.606,-0.015,-0.039,-0.024,0.029,0.005,-0.034,-0.049,-0.078,-0.073,-0.068,-0.034,-0.044
1.608,-0.01,-0.039,-0.029,0.024,0.01,-0.034,-0.049,-0.078,-0.078,-0.068,-0.034,-0.044
1.61,-0.01,-0.039,-0.029,0.024,0.01,-0.034,-0.044,-0.073,-0.078,-0.063,-0.029,-0.039
1.612,-0.02,-0.049,-0.029,0.034,0.005,-0.039,-0.044,-0.078,-0.078,-0.059,-0.029,-0.044
1.614,-0.029,-0.054,-0.024,0.044,-0.005,-0.039,-0.044,-0.088,-0.073,-0.063,-0.029,-0.044
1.616,-0.02,-0.049,-0.029,0.034,0.005,-0.039,-0.039,-0.078,-0.068,-0.059,-0.024,-0.034
1.618,-0.005,-0.029,-0.024,0.02,0.01,-0.029,-0.039,-0.068,-0.068,-0.049,-0.015,-0.029
1.62,0.005,-0.015,-0.02,0.005,0.01,-0.02,-0.034,-0.068,-0.063,-0.049,-0.015,-0.024
1.622,-0.005,-0.039,-0.034,0.024,0.015,-0.039,-0.034,-0.068,-0.063,-0.049,-0.015,-0.024
1.624,-0.015,-0.049,-0.034,0.034,0.01,-0.044,-0.044,-0.078,-0.073,-0.063,-0.029,-0.049
1.626,-0.02,-0.049,-0.029,0.034,0.005,-0.039,-0.044,-0.078,-0.073,-0.063,-0.024,-0.039
1.628,-0.024,-0.049,-0.024,0.039,0.0,-0.039,-0.049,-0.083,-0.078,-0.063,-0.029,-0.049
1.63,-0.02,-0.049,-0.029,0.034,0.005,-0.039,-0.044,-0.078,-0.073,-0.063,-0.029,-0.044
1.632,-0.015,-0.039,-0.024,0.029,0.005,-0.034,-0.049,-0.083,-0.078,-0.063,-0.034,-0.049
1.634,-0.024,-0.049,-0.024,0.039,0.0,-0.039,-0.044,-0.083,-0.073,-0.063,-0.024,-0.039
1.636,-0.01,-0.039,-0.029,0.024,0.01,-0.034,-0.044,-0.078,-0.068,-0.059,-0.029,-0.039
1.638,-0.01,-0.039,-0.029,0.024,0.01,-0.034,-0.039,-0.078,-0.063,-0.054,-0.024,-0.034
1.64,-0.005,-0.044,-0.039,0.024,0.015,-0.044,-0.034,-0.073,-0.063,-0.059,-0.029,-0.039
1.642,0.005,-0.034,-0.039,0.015,0.02,-0.039,-0.034,-0.068,-0.063,-0.054,-0.02,-0.029
1.644,-0.015,-0.049,-0.034,0.034,0.01,-0.044,-0.039,-0.083,-0.073,-0.063,-0.029,-0.039
1.646,-0.044,-0.063,-0.02,0.054,-0.015,-0.044,-0.044,-0.083,-0.073,-0.068,-0.034,-0.044
1.648,-0.029,-0.049,-0.02,0.039,-0.005,-0.034,-0.039,-0.078,-0.073,-0.059,-0.034,-0.044
1.65,-0.029,-0.054,-0.024,0.044,-0.005,-0.039,-0.034,-0.078,-0.068,-0.059,-0.029,-0.039
1.652,-0.029,-0.059,-0.029,0.044,0.0,-0.044,-0.039,-0.083,-0.073,-0.063,-0.039,-0.049
1.654,-0.015,-0.054,-0.039,0.034,0.01,-0.049,-0.044,-0.088,-0.078,-0.068,-0.039,-0.054
1.656,-0.015,-0.049,-0.034,0.034,0.01,-0.044,-0.044,-0.088,-0.073,-0.063,-0.034,-0.044
1.658,-0.02,-0.039,-0.02,0.029,0.0,-0.029,-0.044,-0.083,-0.073,-0.059,-0.034,-0.039
1.66,-0.015,-0.039,-0.024,0.029,0.005,-0.034,-0.044,-0.078,-0.073,-0.059,-0.034,-0.044
1.662,-0.015,-0.049,-0.034,0.034,0.01,-0.044,-0.044,-0.078,-0.078,-0.063,-0.029,-0.044
1.664,-0.015,-0.049,-0.034,0.034,0.01,-0.044,-0.044,-0.073,-0.073,-0.059,-0.029,-0.044
1.666,-0.02,-0.054,-0.034,0.039,0.005,-0.044,-0.044,-0.073,-0.073,-0.059,-0.029,-0.039
1.668,-0.015,-0.044,-0.029,0.029,0.005,-0.039,-0.049,-0.073,-0.078,-0.063,-0.029,-0.044
1.67,-0.02,-0.039,-0.02,0.029,0.0,-0.029,-0.049,-0.078,-0.078,-0.063,-0.029,-0.034
1.672,-0.029,-0.049,-0.02,0.039,-0.005,-0.034,-0.044,-0.078,-0.073,-0.059,-0.029,-0.039
1.674,-0.029,-0.049,-0.02,0.039,-0.005,-0.034,-0.039,-0.078,-0.068,-0.063,-0.024,-0.029
1.676,-0.029,-0.054,-0.024,0.044,-0.005,-0.039,-0.044,-0.078,-0.068,-0.059,-0.024,-0.039
1.678,-0.024,-0.049,-0.024,0.039,0.0,-0.039,-0.039,-0.078,-0.073,-0.059,-0.024,-0.034
1.68,-0.015,-0.039,-0.024,0.029,0.005,-0.034,-0.039,-0.078,-0.073,-0.059,-0.024,-0.034
1.682,-0.01,-0.044,-0.034,0.029,0.01,-0.039,-0.039,-0.078,-0.078,-0.059,-0.029,-0.034
1.684,-0.01,-0.044,-0.034,0.029,0.01,-0.039,-0.039,-0.078,-0.078,-0.059,-0.034,-0.039
1.686,-0.01,-0.034,-0.024,0.024,0.005,-0.029,-0.039,-0.078,-0.078,-0.063,-0.029,-0.039
1.688,-0.015,-0.039,-0.024,0.029,0.005,-0.034,-0.039,-0.073,-0.078,-0.063,-0.029,-0.044
1.69,-0.01,-0.034,-0.024,0.024,0.005,-0.029,-0.044,-0.083,-0.083,-0.068,-0.029,-0.044
1.692,-0.01,-0.044,-0.034,0.029,0.01,-0.039,-0.044,-0.083,-0.078,-0.068,-0.034,-0.049
1.694,-0.015,-0.044,-0.029,0.029,0.005,-0.039,-0.044,-0.088,-0.083,-0.073,-0.034,-0.049
1.696,-0.015,-0.039,-0.024,0.029,0.005,-0.034,-0.034,-0.078,-0.078,-0.063,-0.029,-0.044
1.698,-0.02,-0.039,-0.02,0.029,0.0,-0.029,-0.034,-0.073,-0.073,-0.063,-0.029,-0.044
1.7,0.005,-0.015,-0.02,0.005,0.01,-0.02,-0.029,-0.063,-0.063,-0.049,-0.02,-0.034
1.702,0.005,-0.02,-0.024,0.01,0.015,-0.024,-0.034,-0.063,-0.063,-0.054,-0.024,-0.034
1.704,0.0,-0.029,-0.029,0.015,0.015,-0.029,-0.034,-0.068,-0.068,-0.059,-0.029,-0.044
1.706,0.005,-0.034,-0.039,0.015,0.02,-0.039,-0.039,-0.073,-0.068,-0.059,-0.029,-0.044
1.708,-0.005,-0.049,-0.044,0.029,0.02,-0.049,-0.039,-0.083,-0.073,-0.059,-0.029,-0.044
1.71,-0.034,-0.063,-0.029,0.049,-0.005,-0.049,-0.044,-0.088,-0.073,-0.068,-0.034,-0.049
1.712,-0.034,-0.063,-0.029,0.049,-0.005,-0.049,-0.039,-0.083,-0.078,-0.063,-0.029,-0.049
1.714,-0.029,-0.049,-0.02,0.039,-0.005,-0.034,-0.044,-0.088,-0.073,-0.063,-0.029,-0.044
1.716,-0.024,-0.044,-0.02,0.034,-0.005,-0.034,-0.044,-0.083,-0.078,-0.068,-0.029,-0.049
1.718,-0.024,-0.049,-0.024,0.039,0.0,-0.039,-0.044,-0.083,-0.073,-0.063,-0.029,-0.044
1.72,-0.02,-0.044,-0.024,0.034,0.0,-0.034,-0.044,-0.078,-0.073,-0.063,-0.034,-0.049
1.722,-0.015,-0.039,-0.024,0.029,0.005,-0.034,-0.044,-0.078,-0.078,-0.063,-0.034,-0.039
1.724,-0.02,-0.044,-0.024,0.034,0.0,-0.034,-0.039,-0.073,-0.078,-0.063,-0.034,-0.044
1.726,-0.024,-0.049,-0.024,0.039,0.0,-0.039,-0.039,-0.078,-0.073,-0.063,-0.034,-0.039
1.728,-0.02,-0.039,-0.02,0.029,0.0,-0.029,-0.039,-0.073,-0.068,-0.059,-0.029,-0.034
1.73,-0.02,-0.044,-0.024,0.034,0.0,-0.034,-0.039,-0.078,-0.073,-0.063,-0.029,-0.039
1.732,-0.01,-0.039,-0.029,0.024,0.01,-0.034,-0.039,-0.078,-0.073,-0.059,-0.024,-0.039
1.734,-0.015,-0.039,-0.024,0.029,0.005,-0.034,-0.044,-0.083,-0.073,-0.063,-0.029,-0.039
1.736,-0.005,-0.039,-0.034,0.024,0.015,-0.039,-0.044,-0.083,-0.078,-0.063,-0.034,-0.044
1.738,-0.005,-0.034,-0.029,0.02,0.01,-0.034,-0.044,-0.088,-0.078,-0.068,-0.039,-0.044
1.74,-0.024,-0.049,-0.024,0.039,0.0,-0.039,-0.044,-0.088,-0.073,-0.063,-0.039,-0.044
1.742,-0.034,-0.049,-0.015,0.044,-0.01,-0.034,-0.039,-0.078,-0.068,-0.059,-0.029,-0.034
1.744,-0.02,-0.044,-0.024,0.034,0.0,-0.034,-0.044,-0.078,-0.083,-0.068,-0.039,-0.054
1.746,-0.02,-0.039,-0.02,0.029,0.0,-0.029,-0.039,-0.073,-0.073,-0.059,-0.029,-0.044
1.748,-0.015,-0.034,-0.02,0.024,0.0,-0.029,-0.034,-0.073,-0.068,-0.054,-0.029,-0.039
1.75,-0.024,-0.049,-0.024,0.039,0.0,-0.039,-0.044,-0.078,-0.078,-0.063,-0.034,-0.049
1.752,-0.015,-0.034,-0.02,0.024,0.0,-0.029,-0.039,-0.078,-0.078,-0.063,-0.029,-0.054
1.754,-0.005,-0.024,-0.02,0.015,0.005,-0.024,-0.029,-0.068,-0.068,-0.049,-0.015,-0.034
1.756,-0.015,-0.024,-0.01,0.02,-0.005,-0.02,-0.034,-0.068,-0.068,-0.059,-0.024,-0.039
1.758,-0.02,-0.034,-0.015,0.029,-0.005,-0.024,-0.034,-0.073,-0.078,-0.068,-0.029,-0.044
1.76,-0.024,-0.039,-0.015,0.034,-0.005,-0.029,-0.029,-0.073,-0.073,-0.063,-0.029,-0.049
1.762,-0.024,-0.049,-0.024,0.039,0.0,-0.039,-0.034,-0.078,-0.078,-0.068,-0.034,-0.049
1.764,-0.02,-0.039,-0.02,0.029,0.0,-0.029,-0.034,-0.073,-0.078,-0.068,-0.029,-0.044
1.766,-0.02,-0.044,-0.024,0.034,0.0,-0.034,-0.034,-0.078,-0.078,-0.068,-0.029,-0.049
1.768,-0.024,-0.039,-0.015,0.034,-0.005,-0.029,-0.034,-0.073,-0.068,-0.063,-0.029,-0.044
1.77,-0.015,-0.039,-0.024,0.029,0.005,-0.034,-0.039,-0.078,-0.073,-0.068,-0.029,-0.044
1.772,-0.02,-0.039,-0.02,0.029,0.0,-0.029,-0.039,-0.083,-0.073,-0.068,-0.029,-0.044
1.774,-0.005,-0.039,-0.034,0.024,0.015,-0.039,-0.034,-0.078,-0.063,-0.063,-0.034,-0.039
1.776,0.005,-0.02,-0.024,0.01,0.015,-0.024,-0.034,-0.073,-0.063,-0.054,-0.024,-0.034
1.778,-0.02,-0.044,-0.024,0.034,0.0,-0.034,-0.034,-0.078,-0.068,-0.059,-0.029,-0.039
1.78,-0.01,-0.039,-0.029,0.024,0.01,-0.034,-0.034,-0.078,-0.068,-0.059,-0.034,-0.044
1.782,-0.02,-0.034,-0.015,0.029,-0.005,-0.024,-0.034,-0.073,-0.068,-0.059,-0.029,-0.034
1.784,-0.024,-0.039,-0.015,0.034,-0.005,-0.029,-0.039,-0.078,-0.073,-0.063,-0.034,-0.039
1.786,-0.024,-0.044,-0.02,0.034,-0.005,-0.034,-0.039,-0.073,-0.073,-0.063,-0.039,-0.044
1.788,-0.029,-0.049,-0.02,0.039,-0.005,-0.034,-0.039,-0.073,-0.073,-0.063,-0.039,-0.044
1.79,-0.024,-0.044,-0.02,0.034,-0.005,-0.034,-0.044,-0.078,-0.078,-0.068,-0.039,-0.044
1.792,-0.015,-0.039,-0.024,0.029,0.005,-0.034,-0.044,-0.078,-0.078,-0.068,-0.039,-0.049
1.794,-0.005,-0.034,-0.029,0.02,0.01,-0.034,-0.034,-0.078,-0.073,-0.068,-0.034,-0.044
1.796,0.01,-0.015,-0.024,0.005,0.015,-0.02,-0.029,-0.063,-0.059,-0.054,-0.02,-0.029
1.798,0.005,-0.015,-0.02,0.005,0.01,-0.02,-0.024,-0.063,-0.059,-0.054,-0.029,-0.029
1.8,-0.01,-0.039,-0.029,0.024,0.01,-0.034,-0.029,-0.073,-0.068,-0.063,-0.039,-0.044
1.802,-0.024,-0.054,-0.029,0.039,0.0,-0.044,-0.039,-0.078,-0.073,-0.068,-0.044,-0.054
1.804,-0.02,-0.039,-0.02,0.029,0.0,-0.029,-0.049,-0.088,-0.083,-0.078,-0.049,-0.059
1.806,-0.015,-0.049,-0.034,0.034,0.01,-0.044,-0.039,-0.078,-0.078,-0.073,-0.049,-0.049
1.808,-0.024,-0.059,-0.034,0.044,0.005,-0.049,-0.049,-0.088,-0.083,-0.078,-0.049,-0.059
1.81,-0.029,-0.059,-0.029,0.044,0.0,-0.044,-0.049,-0.088,-0.083,-0.078,-0.049,-0.054
1.812,0.0,-0.034,-0.034,0.02,0.015,-0.034,-0.039,-0.083,-0.078,-0.073,-0.039,-0.054
1.814,-0.005,-0.044,-0.039,0.024,0.015,-0.044,-0.034,-0.083,-0.078,-0.068,-0.039,-0.049
1.816,-0.015,-0.034,-0.02,0.024,0.0,-0.029,-0.039,-0.078,-0.073,-0.063,-0.034,-0.044
1.818,-0.01,-0.029,-0.02,0.02,0.005,-0.024,-0.034,-0.078,-0.068,-0.063,-0.034,-0.034
1.82,-0.024,-0.034,-0.01,0.029,-0.01,-0.024,-0.029,-0.068,-0.068,-0.054,-0.029,-0.039
1.822,-0.029,-0.034,-0.005,0.034,-0.015,-0.02,-0.029,-0.063,-0.068,-0.054,-0.02,-0.029
1.824,-0.02,-0.024,-0.005,0.024,-0.01,-0.015,-0.034,-0.068,-0.073,-0.059,-0.029,-0.034
1.826,-0.02,-0.034,-0.015,0.029,-0.005,-0.024,-0.029,-0.063,-0.073,-0.063,-0.034,-0.034
1.828,-0.015,-0.044,-0.029,0.029,0.005,-0.039,-0.034,-0.068,-0.078,-0.063,-0.034,-0.039
1.83,-0.015,-0.039,-0.024,0.029,0.005,-0.034,-0.029,-0.073,-0.078,-0.068,-0.034,-0.039
1.832,-0.01,-0.034,-0.024,0.024,0.005,-0.029,-0.029,-0.073,-0.073,-0.068,-0.039,-0.044
1.834,-0.02,-0.039,-0.02,0.029,0.0,-0.029,-0.034,-0.073,-0.073,-0.073,-0.039,-0.044
1.836,-0.034,-0.049,-0.015,0.044,-0.01,-0.034,-0.039,-0.073,-0.068,-0.068,-0.039,-0.039
1.838,-0.024,-0.044,-0.02,0.034,-0.005,-0.034,-0.024,-0.073,-0.063,-0.063,-0.034,-0.034
1.84,-0.01,-0.039,-0.029,0.024,0.01,-0.034,-0.029,-0.073,-0.073,-0.068,-0.039,-0.044
1.842,-0.015,-0.049,-0.034,0.034,0.01,-0.044,-0.034,-0.078,-0.073,-0.068,-0.044,-0.039
1.844,-0.02,-0.039,-0.02,0.029,0.0,-0.029,-0.029,-0.073,-0.068,-0.063,-0.034,-0.034
1.846,-0.02,-0.044,-0.024,0.034,0.0,-0.034,-0.029,-0.073,-0.073,-0.068,-0.039,-0.039
1.848,-0.015,-0.044,-0.029,0.029,0.005,-0.039,-0.034,-0.073,-0.078,-0.068,-0.039,-0.044
1.85,-0.015,-0.039,-0.024,0.029,0.005,-0.034,-0.034,-0.078,-0.078,-0.068,-0.039,-0.044
1.852,-0.02,-0.044,-0.024,0.034,0.0,-0.034,-0.029,-0.078,-0.078,-0.063,-0.039,-0.049
1.854,-0.015,-0.034,-0.02,0.024,0.0,-0.029,-0.029,-0.073,-0.073,-0.063,-0.034,-0.044
1.856,-0.015,-0.034,-0.02,0.024,0.0,-0.029,-0.039,-0.073,-0.068,-0.059,-0.034,-0.039
1.858,-0.029,-0.044,-0.015,0.039,-0.01,-0.029,-0.034,-0.073,-0.073,-0.063,-0.039,-0.039
1.86,-0.024,-0.044,-0.02,0.034,-0.005,-0.034,-0.039,-0.078,-0.078,-0.068,-0.044,-0.049
1.862,-0.02,-0.044,-0.024,0.034,0.0,-0.034,-0.039,-0.068,-0.073,-0.063,-0.039,-0.039
1.864,-0.015,-0.044,-0.029,0.029,0.005,-0.039,-0.029,-0.068,-0.073,-0.063,-0.044,-0.039
1.866,-0.01,-0.044,-0.034,0.029,0.01,-0.039,-0.029,-0.059,-0.068,-0.063,-0.044,-0.034
1.868,-0.015,-0.034,-0.02,0.024,0.0,-0.029,-0.029,-0.063,-0.073,-0.059,-0.039,-0.039
1.87,-0.02,-0.039,-0.02,0.029,0.0,-0.029,-0.024,-0.063,-0.068,-0.063,-0.039,-0.034
1.872,-0.029,-0.049,-0.02,0.039,-0.005,-0.034,-0.034,-0.078,-0.078,-0.068,-0.044,-0.044
1.874,-0.029,-0.059,-0.029,0.044,0.0,-0.044,-0.034,-0.078,-0.078,-0.073,-0.049,-0.049
1.876,-0.02,-0.044,-0.024,0.034,0.0,-0.034,-0.029,-0.078,-0.073,-0.063,-0.039,-0.039
1.878,-0.02,-0.044,-0.024,0.034,0.0,-0.034,-0.029,-0.073,-0.068,-0.068,-0.044,-0.039
1.88,-0.01,-0.039,-0.029,0.024,0.01,-0.034,-0.034,-0.073,-0.073,-0.068,-0.039,-0.044
1.882,-0.015,-0.044,-0.029,0.029,0.005,-0.039,-0.029,-0.068,-0.078,-0.068,-0.039,-0.044
1.884,-0.024,-0.044,-0.02,0.034,-0.005,-0.034,-0.034,-0.073,-0.083,-0.068,-0.044,-0.049
1.886,-0.005,-0.024,-0.02,0.015,0.005,-0.024,-0.029,-0.073,-0.078,-0.068,-0.039,-0.039
1.888,-0.015,-0.034,-0.02,0.024,0.0,-0.029,-0.034,-0.073,-0.083,-0.068,-0.039,-0.049
1.89,-0.02,-0.039,-0.02,0.029,0.0,-0.029,-0.034,-0.073,-0.083,-0.068,-0.044,-0.044
1.892,-0.01,-0.029,-0.02,0.02,0.005,-0.024,-0.029,-0.073,-0.078,-0.063,-0.044,-0.039
1.894,-0.015,-0.029,-0.015,0.024,0.0,-0.024,-0.029,-0.073,-0.078,-0.063,-0.039,-0.044
1.896,-0.02,-0.034,-0.015,0.029,-0.005,-0.024,-0.024,-0.073,-0.073,-0.068,-0.044,-0.044
1.898,-0.024,-0.034,-0.01,0.029,-0.01,-0.024,-0.02,-0.068,-0.063,-0.063,-0.039,-0.034
1.9,-0.02,-0.039,-0.02,0.029,0.0,-0.029,-0.024,-0.068,-0.068,-0.063,-0.044,-0.044
1.902,-0.015,-0.034,-0.02,0.024,0.0,-0.029,-0.02,-0.059,-0.063,-0.059,-0.034,-0.029
1.904,-0.02,-0.044,-0.024,0.034,0.0,-0.034,-0.02,-0.054,-0.068,-0.059,-0.034,-0.034
1.906,-0.015,-0.044,-0.029,0.029,0.005,-0.039,-0.024,-0.063,-0.068,-0.063,-0.034,-0.039
1.908,-0.005,-0.034,-0.029,0.02,0.01,-0.034,-0.02,-0.059,-0.063,-0.059,-0.029,-0.029
1.91,-0.015,-0.044,-0.029,0.029,0.005,-0.039,-0.029,-0.073,-0.078,-0.073,-0.044,-0.039
1.912,-0.02,-0.039,-0.02,0.029,0.0,-0.029,-0.024,-0.073,-0.073,-0.068,-0.039,-0.039
1.914,-0.01,-0.039,-0.029,0.024,0.01,-0.034,-0.02,-0.068,-0.068,-0.059,-0.034,-0.029
1.916,-0.02,-0.044,-0.024,0.034,0.0,-0.034,-0.024,-0.063,-0.073,-0.059,-0.034,-0.034
1.918,-0.015,-0.044,-0.029,0.029,0.005,-0.039,-0.029,-0.073,-0.078,-0.063,-0.044,-0.039
1.92,-0.01,-0.044,-0.034,0.029,0.01,-0.039,-0.024,-0.068,-0.078,-0.063,-0.039,-0.039
1.922,-0.015,-0.039,-0.024,0.029,0.005,-0.034,-0.024,-0.068,-0.078,-0.063,-0.039,-0.039
1.924,-0.015,-0.044,-0.029,0.029,0.005,-0.039,-0.024,-0.068,-0.078,-0.063,-0.039,-0.044
1.926,-0.015,-0.049,-0.034,0.034,0.01,-0.044,-0.024,-0.068,-0.073,-0.063,-0.039,-0.039
1.928,-0.024,-0.049,-0.024,0.039,0.0,-0.039,-0.02,-0.068,-0.073,-0.059,-0.039,-0.039
1.93,-0.02,-0.039,-0.02,0.029,0.0,-0.029,-0.015,-0.068,-0.073,-0.059,-0.034,-0.034
1.932,-0.015,-0.034,-0.02,0.024,0.0,-0.029,-0.015,-0.068,-0.073,-0.059,-0.034,-0.034
1.934,-0.02,-0.044,-0.024,0.034,0.0,-0.034,-0.02,-0.068,-0.078,-0.063,-0.044,-0.044
1.936,-0.024,-0.059,-0.034,0.044,0.005,-0.049,-0.024,-0.073,-0.078,-0.068,-0.049,-0.049
1.938,-0.029,-0.049,-0.02,0.039,-0.005,-0.034,-0.02,-0.073,-0.078,-0.068,-0.049,-0.044
1.94,-0.029,-0.049,-0.02,0.039,-0.005,-0.034,-0.02,-0.063,-0.073,-0.059,-0.044,-0.044
1.942,-0.015,-0.039,-0.024,0.029,0.005,-0.034,-0.02,-0.059,-0.073,-0.063,-0.044,-0.044
1.944,-0.01,-0.029,-0.02,0.02,0.005,-0.024,-0.01,-0.054,-0.073,-0.059,-0.039,-0.034
1.946,0.0,-0.029,-0.029,0.015,0.015,-0.029,-0.015,-0.063,-0.078,-0.063,-0.044,-0.039
1.948,-0.02,-0.049,-0.029,0.034,0.005,-0.039,-0.02,-0.068,-0.078,-0.068,-0.039,-0.039
1.95,-0.034,-0.059,-0.024,0.049,-0.005,-0.044,-0.024,-0.068,-0.083,-0.073,-0.044,-0.044
1.952,-0.024,-0.039,-0.015,0.034,-0.005,-0.029,-0.024,-0.068,-0.083,-0.068,-0.039,-0.034
1.954,-0.01,-0.029,-0.02,0.02,0.005,-0.024,-0.024,-0.068,-0.083,-0.068,-0.044,-0.034
1.956,-0.005,-0.034,-0.029,0.02,0.01,-0.034,-0.024,-0.063,-0.073,-0.059,-0.034,-0.034
1.958,-0.015,-0.039,-0.024,0.029,0.005,-0.034,-0.02,-0.063,-0.073,-0.063,-0.039,-0.029
1.96,-0.015,-0.049,-0.034,0.034,0.01,-0.044,-0.029,-0.068,-0.078,-0.068,-0.049,-0.039
1.962,-0.01,-0.039,-0.029,0.024,0.01,-0.034,-0.024,-0.063,-0.078,-0.068,-0.049,-0.039
1.964,-0.01,-0.044,-0.034,0.029,0.01,-0.039,-0.024,-0.063,-0.078,-0.063,-0.044,-0.034
1.966,0.005,-0.029,-0.034,0.015,0.02,-0.034,-0.024,-0.063,-0.073,-0.063,-0.044,-0.034
1.968,-0.015,-0.044,-0.029,0.029,0.005,-0.039,-0.029,-0.068,-0.083,-0.068,-0.049,-0.039
1.97,-0.039,-0.049,-0.01,0.044,-0.015,-0.029,-0.024,-0.073,-0.083,-0.068,-0.049,-0.039
1.972,-0.024,-0.034,-0.01,0.029,-0.01,-0.024,-0.02,-0.068,-0.078,-0.063,-0.044,-0.034
1.974,-0.02,-0.039,-0.02,0.029,0.0,-0.029,-0.02,-0.068,-0.073,-0.068,-0.049,-0.039
1.976,-0.015,-0.029,-0.015,0.024,0.0,-0.024,-0.02,-0.063,-0.068,-0.054,-0.039,-0.029
1.978,-0.024,-0.039,-0.015,0.034,-0.005,-0.029,-0.024,-0.063,-0.068,-0.059,-0.049,-0.034
1.98,-0.02,-0.039,-0.02,0.029,0.0,-0.029,-0.029,-0.063,-0.078,-0.068,-0.044,-0.039
1.982,-0.015,-0.02,-0.005,0.02,-0.005,-0.015,-0.02,-0.054,-0.073,-0.054,-0.039,-0.029
1.984,-0.015,-0.029,-0.015,0.024,0.0,-0.024,-0.02,-0.059,-0.078,-0.059,-0.044,-0.034
1.986,-0.01,-0.024,-0.015,0.02,0.0,-0.02,-0.02,-0.063,-0.073,-0.068,-0.049,-0.034
1.988,0.0,-0.015,-0.015,0.01,0.005,-0.015,-0.015,-0.059,-0.078,-0.063,-0.049,-0.034
1.99,-0.015,-0.029,-0.015,0.024,0.0,-0.024,-0.02,-0.068,-0.083,-0.068,-0.054,-0.044
1.992,-0.01,-0.034,-0.024,0.024,0.005,-0.029,-0.02,-0.073,-0.083,-0.073,-0.059,-0.039
1.994,-0.01,-0.029,-0.02,0.02,0.005,-0.024,-0.02,-0.068,-0.083,-0.073,-0.054,-0.034
1.996,-0.005,-0.029,-0.024,0.02,0.01,-0.029,-0.024,-0.063,-0.078,-0.073,-0.059,-0.044
1.998,0.0,-0.02,-0.02,0.01,0.01,-0.02,-0.02,-0.059,-0.068,-0.068,-0.049,-0.034
2.0,0.0,-0.01,-0.01,0.005,0.005,-0.01,-0.015,-0.049,-0.068,-0.063,-0.039,-0.029
2.002,-0.005,-0.01,-0.005,0.01,0.0,-0.01,-0.005,-0.044,-0.059,-0.054,-0.039,-0.029
2.004,0.0,0.0,0.0,0.0,0.0,0.0,0.0,-0.044,-0.054,-0.054,-0.029,-0.024
2.006,0.0,-0.005,-0.005,0.005,0.0,-0.005,0.0,-0.039,-0.054,-0.049,-0.034,-0.02
2.008,0.015,0.015,0.0,-0.015,0.005,0.005,0.005,-0.039,-0.049,-0.039,-0.024,-0.015
2.01,0.01,0.02,0.01,-0.015,0.0,0.015,0.01,-0.039,-0.044,-0.039,-0.029,-0.02
2.012,-0.005,0.02,0.024,-0.005,-0.015,0.02,0.02,-0.024,-0.044,-0.039,-0.024,-0.015
2.014,0.005,0.039,0.034,-0.02,-0.015,0.034,0.034,-0.01,-0.034,-0.024,-0.01,-0.005
2.016,0.0,0.039,0.039,-0.02,-0.02,0.039,0.034,-0.015,-0.034,-0.029,-0.02,-0.01
2.018,0.0,0.029,0.029,-0.015,-0.015,0.029,0.044,-0.01,-0.029,-0.029,-0.015,-0.01
2.02,0.0,0.029,0.029,-0.015,-0.015,0.029,0.049,-0.005,-0.024,-0.02,-0.01,-0.005
2.022,0.005,0.029,0.024,-0.015,-0.01,0.024,0.049,0.0,-0.02,-0.024,-0.015,-0.01
2.024,0.024,0.044,0.02,-0.034,0.0,0.029,0.044,0.0,-0.024,-0.029,-0.02,-0.015
2.026,0.015,0.029,0.015,-0.02,0.0,0.02,0.049,0.0,-0.024,-0.024,-0.015,-0.005
2.028,0.01,0.02,0.01,-0.015,0.0,0.015,0.044,0.0,-0.02,-0.02,-0.015,-0.005
2.03,0.024,0.024,0.0,-0.024,0.01,0.01,0.049,0.0,-0.015,-0.015,-0.005,0.0
2.032,0.029,0.024,-0.005,-0.024,0.015,0.01,0.039,-0.005,-0.02,-0.02,-0.01,0.005
2.034,0.034,0.029,-0.005,-0.029,0.02,0.01,0.039,0.01,-0.01,-0.005,0.005,0.015
2.036,0.044,0.039,-0.005,-0.039,0.024,0.015,0.044,0.01,-0.005,-0.005,0.005,0.01
2.038,0.039,0.039,0.0,-0.039,0.02,0.02,0.049,0.02,0.005,0.0,0.01,0.02
2.04,0.039,0.049,0.01,-0.044,0.015,0.029,0.054,0.029,0.01,0.01,0.02,0.024
2.042,0.034,0.034,0.0,-0.034,0.015,0.015,0.034,0.015,0.0,0.0,0.01,0.02
2.044,0.034,0.015,-0.02,-0.024,0.024,-0.005,0.01,0.0,-0.015,-0.005,0.0,0.015
2.046,0.039,0.005,-0.034,-0.02,0.034,-0.015,-0.01,-0.02,-0.029,-0.02,-0.01,0.005
2.048,0.034,-0.01,-0.044,-0.01,0.039,-0.029,-0.029,-0.039,-0.049,-0.029,-0.02,-0.01
2.05,0.039,-0.015,-0.054,-0.01,0.044,-0.034,-0.034,-0.049,-0.049,-0.039,-0.029,-0.01
2.052,0.034,-0.01,-0.044,-0.01,0.039,-0.029,-0.034,-0.054,-0.054,-0.039,-0.02,-0.01
2.054,0.015,-0.02,-0.034,0.005,0.024,-0.029,-0.039,-0.059,-0.059,-0.044,-0.029,-0.015
2.056,0.02,-0.02,-0.039,0.0,0.029,-0.029,-0.054,-0.073,-0.063,-0.049,-0.034,-0.02
2.058,0.02,-0.029,-0.049,0.005,0.034,-0.039,-0.054,-0.078,-0.073,-0.059,-0.044,-0.02
2.06,0.015,-0.024,-0.039,0.005,0.024,-0.034,-0.049,-0.078,-0.083,-0.068,-0.039,-0.024
2.062,0.02,-0.029,-0.049,0.005,0.034,-0.039,-0.039,-0.073,-0.073,-0.063,-0.039,-0.024
2.064,0.015,-0.039,-0.054,0.015,0.034,-0.049,-0.039,-0.083,-0.088,-0.068,-0.044,-0.024
2.066,0.015,-0.034,-0.049,0.01,0.029,-0.044,-0.044,-0.083,-0.083,-0.068,-0.044,-0.024
2.068,0.02,-0.02,-0.039,0.0,0.029,-0.029,-0.044,-0.083,-0.083,-0.063,-0.044,-0.024
2.07,0.015,-0.02,-0.034,0.005,0.024,-0.029,-0.039,-0.083,-0.083,-0.063,-0.044,-0.029
2.072,0.024,-0.02,-0.044,0.0,0.034,-0.034,-0.034,-0.083,-0.083,-0.063,-0.044,-0.015
2.074,0.015,-0.024,-0.039,0.005,0.024,-0.034,-0.029,-0.083,-0.083,-0.063,-0.049,-0.015
2.076,0.02,-0.015,-0.034,0.0,0.024,-0.024,-0.029,-0.083,-0.078,-0.059,-0.049,-0.02
2.078,0.01,-0.015,-0.024,0.005,0.015,-0.02,-0.029,-0.083,-0.078,-0.063,-0.054,-0.02
2.08,-0.005,-0.029,-0.024,0.02,0.01,-0.029,-0.034,-0.083,-0.093,-0.073,-0.059,-0.024
2.082,-0.015,-0.034,-0.02,0.024,0.0,-0.029,-0.024,-0.073,-0.093,-0.073,-0.063,-0.034
2.084,-0.024,-0.044,-0.02,0.034,-0.005,-0.034,-0.02,-0.078,-0.093,-0.078,-0.068,-0.044
2.086,-0.039,-0.054,-0.015,0.049,-0.015,-0.034,-0.024,-0.088,-0.107,-0.093,-0.088,-0.049
2.088,-0.049,-0.054,-0.005,0.054,-0.024,-0.029,-0.02,-0.083,-0.102,-0.088,-0.083,-0.049
2.09,-0.039,-0.054,-0.015,0.049,-0.015,-0.034,-0.02,-0.083,-0.098,-0.088,-0.088,-0.049
2.092,-0.029,-0.049,-0.02,0.039,-0.005,-0.034,-0.024,-0.098,-0.107,-0.098,-0.088,-0.054
2.094,-0.029,-0.049,-0.02,0.039,-0.005,-0.034,-0.024,-0.093,-0.102,-0.093,-0.083,-0.044
2.096,-0.029,-0.044,-0.015,0.039,-0.01,-0.029,-0.02,-0.093,-0.098,-0.098,-0.083,-0.044
2.098,-0.015,-0.029,-0.015,0.024,0.0,-0.024,-0.02,-0.093,-0.098,-0.093,-0.083,-0.039
2.1,-0.005,-0.024,-0.02,0.015,0.005,-0.024,-0.015,-0.088,-0.098,-0.083,-0.073,-0.039
2.102,-0.005,-0.029,-0.024,0.02,0.01,-0.029,-0.01,-0.083,-0.093,-0.078,-0.073,-0.039
2.104,0.0,-0.024,-0.024,0.015,0.01,-0.024,-0.01,-0.083,-0.098,-0.078,-0.068,-0.034
2.106,-0.029,-0.054,-0.024,0.044,-0.005,-0.039,-0.02,-0.093,-0.102,-0.083,-0.083,-0.044
2.108,-0.054,-0.059,-0.005,0.059,-0.024,-0.034,-0.015,-0.093,-0.107,-0.088,-0.083,-0.049
2.11,-0.044,-0.044,0.0,0.044,-0.024,-0.024,-0.01,-0.088,-0.102,-0.078,-0.088,-0.039
2.112,-0.039,-0.039,0.0,0.039,-0.02,-0.02,-0.02,-0.093,-0.107,-0.083,-0.088,-0.049
2.114,-0.039,-0.049,-0.01,0.044,-0.015,-0.029,-0.015,-0.088,-0.107,-0.078,-0.088,-0.049
2.116,-0.029,-0.039,-0.01,0.034,-0.01,-0.024,-0.015,-0.083,-0.098,-0.073,-0.078,-0.039
2.118,-0.034,-0.034,0.0,0.034,-0.02,-0.02,-0.02,-0.088,-0.102,-0.078,-0.088,-0.049
2.12,-0.029,-0.039,-0.01,0.034,-0.01,-0.024,-0.02,-0.093,-0.107,-0.078,-0.083,-0.049
2.122,-0.034,-0.044,-0.01,0.039,-0.015,-0.029,-0.015,-0.088,-0.102,-0.073,-0.083,-0.044
2.124,-0.029,-0.034,-0.005,0.034,-0.015,-0.02,-0.015,-0.083,-0.098,-0.078,-0.083,-0.044
2.126,-0.029,-0.029,0.0,0.029,-0.015,-0.015,-0.015,-0.078,-0.093,-0.068,-0.073,-0.039
2.128,-0.029,-0.039,-0.01,0.034,-0.01,-0.024,-0.02,-0.083,-0.098,-0.078,-0.078,-0.044
2.13,-0.029,-0.039,-0.01,0.034,-0.01,-0.024,-0.015,-0.073,-0.093,-0.068,-0.078,-0.034
2.132,-0.029,-0.039,-0.01,0.034,-0.01,-0.024,-0.015,-0.078,-0.098,-0.073,-0.073,-0.039
2.134,-0.034,-0.034,0.0,0.034,-0.02,-0.02,-0.02,-0.078,-0.088,-0.068,-0.073,-0.034
2.136,-0.024,-0.024,0.0,0.024,-0.015,-0.015,-0.02,-0.078,-0.088,-0.068,-0.068,-0.034
2.138,-0.024,-0.02,0.005,0.024,-0.015,-0.01,-0.015,-0.078,-0.088,-0.063,-0.068,-0.029
2.14,-0.029,-0.029,0.0,0.029,-0.015,-0.015,-0.02,-0.078,-0.093,-0.068,-0.073,-0.034
2.142,-0.039,-0.044,-0.005,0.044,-0.02,-0.024,-0.015,-0.068,-0.083,-0.063,-0.078,-0.034
2.144,-0.049,-0.039,0.01,0.044,-0.029,-0.015,-0.015,-0.073,-0.083,-0.068,-0.083,-0.044
2.146,-0.029,-0.015,0.015,0.024,-0.024,0.0,0.005,-0.054,-0.073,-0.059,-0.068,-0.034
2.148,-0.024,0.005,0.029,0.01,-0.029,0.015,0.024,-0.02,-0.049,-0.049,-0.063,-0.024
2.15,-0.049,0.0,0.049,0.024,-0.049,0.024,0.044,0.039,-0.015,-0.02,-0.049,-0.015
2.152,-0.054,0.02,0.073,0.02,-0.063,0.044,0.073,0.117,0.054,0.034,-0.01,0.015
2.154,-0.044,0.034,0.078,0.005,-0.063,0.054,0.107,0.215,0.146,0.102,0.034,0.034
2.156,-0.024,0.054,0.078,-0.015,-0.054,0.063,0.127,0.268,0.249,0.2,0.112,0.088
2.158,0.0,0.078,0.078,-0.039,-0.039,0.078,0.132,0.298,0.4,0.361,0.244,0.181
2.16,0.049,0.112,0.063,-0.078,-0.01,0.088,0.127,0.346,0.59,0.556,0.395,0.283
2.162,0.132,0.146,0.015,-0.137,0.059,0.078,0.137,0.356,0.771,0.752,0.547,0.395
2.164,0.19,0.181,-0.01,-0.185,0.098,0.083,0.093,0.273,0.893,0.932,0.703,0.498
2.166,0.254,0.21,-0.044,-0.229,0.146,0.083,0.0,0.132,1.02,1.132,0.869,0.61
2.168,0.317,0.259,-0.059,-0.288,0.185,0.098,-0.112,0.0,1.166,1.362,1.049,0.737
2.17,0.371,0.312,-0.059,-0.342,0.215,0.127,-0.239,-0.117,1.322,1.571,1.225,0.854
2.172,0.429,0.351,-0.078,-0.39,0.254,0.137,-0.356,-0.22,1.474,1.757,1.362,0.947
2.174,0.473,0.395,-0.078,-0.434,0.273,0.156,-0.444,-0.288,1.64,1.889,1.459,1.005
2.176,0.483,0.425,-0.059,-0.454,0.268,0.181,-0.512,-0.346,1.684,1.869,1.444,1.005
2.178,0.493,0.332,-0.161,-0.41,0.327,0.083,-0.581,-0.4,1.601,1.635,1.254,0.874
2.18,0.468,0.185,-0.283,-0.327,0.376,-0.049,-0.654,-0.459,1.44,1.337,1.015,0.693
2.182,0.425,0.122,-0.303,-0.273,0.361,-0.093,-0.678,-0.517,1.215,1.064,0.795,0.542
2.184,0.342,0.073,-0.268,-0.205,0.303,-0.098,-0.678,-0.542,0.937,0.766,0.566,0.381
2.186,0.244,0.039,-0.205,-0.142,0.224,-0.083,-0.712,-0.605,0.571,0.444,0.342,0.234
2.188,0.137,0.029,-0.107,-0.083,0.122,-0.039,-0.712,-0.693,0.078,0.102,0.117,0.112
2.19,0.068,0.059,-0.01,-0.063,0.039,0.024,-0.625,-0.683,-0.239,-0.117,-0.034,0.039
2.192,0.024,0.059,0.034,-0.039,-0.005,0.044,-0.527,-0.61,-0.332,-0.181,-0.098,-0.005
2.194,-0.015,0.039,0.054,-0.01,-0.034,0.044,-0.444,-0.532,-0.303,-0.166,-0.098,-0.015
2.196,-0.034,0.01,0.044,0.015,-0.039,0.024,-0.381,-0.473,-0.268,-0.146,-0.098,-0.029
2.198,-0.049,0.01,0.059,0.02,-0.054,0.034,-0.303,-0.405,-0.229,-0.122,-0.083,-0.024
2.2,-0.054,0.015,0.068,0.02,-0.063,0.039,-0.234,-0.337,-0.205,-0.112,-0.078,-0.024
2.202,-0.029,0.024,0.054,0.005,-0.044,0.039,-0.181,-0.268,-0.166,-0.102,-0.078,-0.024
2.204,-0.029,0.024,0.054,0.005,-0.044,0.039,-0.137,-0.205,-0.137,-0.088,-0.068,-0.024
2.206,-0.034,0.024,0.059,0.005,-0.049,0.039,-0.107,-0.166,-0.117,-0.083,-0.068,-0.029
2.208,-0.02,0.02,0.039,0.0,-0.029,0.029,-0.078,-0.127,-0.098,-0.078,-0.068,-0.024
2.21,-0.005,0.029,0.034,-0.01,-0.02,0.029,-0.054,-0.098,-0.083,-0.073,-0.068,-0.02
2.212,0.0,0.024,0.024,-0.01,-0.015,0.024,-0.039,-0.073,-0.078,-0.068,-0.068,-0.02
2.214,-0.01,0.01,0.02,0.0,-0.015,0.015,-0.029,-0.054,-0.068,-0.063,-0.063,-0.02
2.216,-0.024,-0.005,0.02,0.015,-0.024,0.005,-0.029,-0.059,-0.078,-0.083,-0.078,-0.034
2.218,-0.024,-0.01,0.015,0.02,-0.02,0.0,-0.034,-0.059,-0.083,-0.083,-0.083,-0.049
2.22,-0.005,0.005,0.01,0.0,-0.01,0.005,-0.015,-0.039,-0.073,-0.073,-0.073,-0.034
2.222,0.0,0.01,0.01,-0.005,-0.005,0.01,-0.01,-0.039,-0.068,-0.073,-0.073,-0.034
2.224,-0.01,-0.005,0.005,0.01,-0.01,0.0,-0.015,-0.044,-0.083,-0.083,-0.078,-0.039
2.226,-0.02,-0.015,0.005,0.02,-0.015,-0.005,-0.005,-0.044,-0.088,-0.088,-0.083,-0.044
2.228,-0.02,-0.024,-0.005,0.024,-0.01,-0.015,0.0,-0.039,-0.088,-0.088,-0.083,-0.039
2.23,-0.01,-0.024,-0.015,0.02,0.0,-0.02,0.0,-0.034,-0.093,-0.098,-0.083,-0.044
2.232,-0.005,-0.01,-0.005,0.01,0.0,-0.01,0.01,-0.024,-0.093,-0.098,-0.078,-0.044
2.234,0.0,-0.01,-0.01,0.005,0.005,-0.01,0.0,-0.034,-0.098,-0.098,-0.083,-0.049
2.236,-0.01,-0.005,0.005,0.01,-0.01,0.0,0.005,-0.024,-0.088,-0.093,-0.083,-0.039
2.238,-0.02,0.0,0.02,0.01,-0.02,0.01,0.01,-0.024,-0.083,-0.093,-0.073,-0.039
2.24,-0.034,-0.005,0.029,0.02,-0.034,0.01,0.01,-0.024,-0.088,-0.083,-0.078,-0.039
2.242,-0.02,0.0,0.02,0.01,-0.02,0.01,0.015,-0.029,-0.078,-0.078,-0.078,-0.034
2.244,-0.02,-0.015,0.005,0.02,-0.015,-0.005,0.015,-0.02,-0.083,-0.088,-0.088,-0.044
2.246,-0.01,-0.005,0.005,0.01,-0.01,0.0,0.024,-0.01,-0.078,-0.083,-0.078,-0.044
2.248,0.0,0.005,0.005,0.0,-0.005,0.005,0.029,-0.005,-0.068,-0.078,-0.073,-0.034
2.25,-0.005,-0.015,-0.01,0.01,0.0,-0.015,0.024,0.0,-0.068,-0.078,-0.078,-0.034
2.252,-0.01,-0.024,-0.015,0.02,0.0,-0.02,0.024,0.0,-0.073,-0.078,-0.078,-0.039
2.254,-0.015,-0.02,-0.005,0.02,-0.005,-0.015,0.029,0.0,-0.073,-0.068,-0.068,-0.029
2.256,0.0,-0.005,-0.005,0.005,0.0,-0.005,0.029,0.0,-0.068,-0.068,-0.068,-0.029
2.258,-0.01,-0.015,-0.005,0.015,-0.005,-0.01,0.024,-0.005,-0.073,-0.068,-0.068,-0.034
2.26,-0.01,-0.02,-0.01,0.015,0.0,-0.015,0.024,-0.005,-0.068,-0.073,-0.063,-0.029
2.262,-0.015,-0.015,0.0,0.015,-0.01,-0.01,0.029,-0.005,-0.063,-0.068,-0.059,-0.029
2.264,-0.015,-0.01,0.005,0.015,-0.01,-0.005,0.024,-0.005,-0.063,-0.078,-0.063,-0.029
2.266,-0.02,-0.015,0.005,0.02,-0.015,-0.005,0.029,0.0,-0.068,-0.073,-0.063,-0.034
2.268,-0.02,-0.015,0.005,0.02,-0.015,-0.005,0.034,0.0,-0.073,-0.078,-0.063,-0.034
2.27,-0.01,-0.01,0.0,0.01,-0.005,-0.005,0.034,0.0,-0.068,-0.083,-0.068,-0.039
2.272,-0.01,-0.015,-0.005,0.015,-0.005,-0.01,0.029,0.01,-0.078,-0.083,-0.073,-0.049
2.274,0.0,-0.005,-0.005,0.005,0.0,-0.005,0.029,0.005,-0.078,-0.078,-0.078,-0.044
2.276,0.005,0.0,-0.005,0.0,0.005,-0.005,0.029,0.0,-0.073,-0.073,-0.078,-0.044
2.278,-0.005,0.01,0.015,0.0,-0.01,0.01,0.029,0.005,-0.073,-0.073,-0.078,-0.049
2.28,-0.024,0.005,0.029,0.01,-0.029,0.015,0.029,0.005,-0.068,-0.068,-0.073,-0.049
2.282,-0.029,0.005,0.034,0.015,-0.034,0.02,0.024,-0.005,-0.068,-0.073,-0.083,-0.054
2.284,-0.015,0.01,0.024,0.005,-0.02,0.015,0.029,0.0,-0.068,-0.078,-0.088,-0.054
2.286,-0.005,0.015,0.02,-0.005,-0.015,0.015,0.039,0.01,-0.068,-0.073,-0.078,-0.054
2.288,-0.02,-0.005,0.015,0.015,-0.02,0.005,0.039,0.01,-0.073,-0.078,-0.083,-0.054
2.29,-0.02,-0.005,0.015,0.015,-0.02,0.005,0.054,0.015,-0.063,-0.078,-0.078,-0.044
2.292,-0.024,-0.015,0.01,0.02,-0.02,-0.005,0.049,0.02,-0.073,-0.083,-0.078,-0.039
2.294,-0.02,-0.005,0.015,0.015,-0.02,0.005,0.049,0.02,-0.068,-0.078,-0.073,-0.034
2.296,-0.005,0.005,0.01,0.0,-0.01,0.005,0.049,0.02,-0.063,-0.073,-0.068,-0.029
2.298,0.0,0.005,0.005,0.0,-0.005,0.005,0.049,0.02,-0.059,-0.073,-0.063,-0.029
2.3,0.0,0.01,0.01,-0.005,-0.005,0.01,0.049,0.02,-0.059,-0.063,-0.059,-0.02
2.302,-0.015,0.0,0.015,0.01,-0.015,0.005,0.049,0.015,-0.059,-0.063,-0.054,-0.024
2.304,-0.029,-0.01,0.02,0.02,-0.024,0.005,0.044,0.015,-0.059,-0.068,-0.054,-0.024
2.306,-0.02,-0.005,0.015,0.015,-0.02,0.005,0.049,0.024,-0.059,-0.063,-0.054,-0.024
2.308,-0.015,0.0,0.015,0.01,-0.015,0.005,0.044,0.024,-0.063,-0.059,-0.054,-0.024
2.31,-0.015,-0.01,0.005,0.015,-0.01,-0.005,0.049,0.029,-0.054,-0.063,-0.059,-0.02
2.312,-0.01,-0.005,0.005,0.01,-0.01,0.0,0.044,0.034,-0.059,-0.059,-0.059,-0.02
2.314,-0.015,-0.005,0.01,0.01,-0.015,0.0,0.049,0.039,-0.054,-0.054,-0.054,-0.02
2.316,-0.015,-0.005,0.01,0.01,-0.015,0.0,0.044,0.034,-0.054,-0.054,-0.054,-0.02
2.318,-0.029,-0.02,0.01,0.024,-0.02,-0.005,0.044,0.034,-0.054,-0.059,-0.059,-0.024
2.32,-0.02,-0.01,0.01,0.015,-0.015,0.0,0.039,0.029,-0.054,-0.054,-0.059,-0.024
2.322,-0.01,0.005,0.015,0.005,-0.015,0.01,0.049,0.034,-0.039,-0.044,-0.049,-0.015
2.324,0.0,0.015,0.015,-0.005,-0.01,0.015,0.049,0.039,-0.039,-0.044,-0.049,-0.015
2.326,0.01,0.015,0.005,-0.01,0.0,0.01,0.054,0.049,-0.039,-0.044,-0.049,-0.02
2.328,0.01,0.01,0.0,-0.01,0.005,0.005,0.059,0.049,-0.039,-0.044,-0.054,-0.02
2.33,-0.01,-0.005,0.005,0.01,-0.01,0.0,0.054,0.044,-0.044,-0.054,-0.063,-0.024
2.332,-0.01,-0.005,0.005,0.01,-0.01,0.0,0.049,0.044,-0.049,-0.054,-0.063,-0.034
2.334,-0.015,0.0,0.015,0.01,-0.015,0.005,0.054,0.049,-0.044,-0.049,-0.059,-0.029
2.336,-0.02,-0.005,0.015,0.015,-0.02,0.005,0.054,0.049,-0.049,-0.059,-0.059,-0.024
2.338,-0.015,0.005,0.02,0.005,-0.02,0.01,0.054,0.049,-0.049,-0.059,-0.059,-0.029
2.34,-0.005,0.0,0.005,0.005,-0.005,0.0,0.054,0.044,-0.054,-0.059,-0.059,-0.029
2.342,-0.01,0.0,0.01,0.005,-0.01,0.005,0.049,0.039,-0.049,-0.063,-0.054,-0.029
2.344,-0.01,0.01,0.02,0.0,-0.015,0.015,0.049,0.039,-0.054,-0.063,-0.063,-0.029
2.346,-0.005,0.01,0.015,0.0,-0.01,0.01,0.054,0.049,-0.049,-0.059,-0.059,-0.029
2.348,-0.005,0.0,0.005,0.005,-0.005,0.0,0.059,0.059,-0.039,-0.049,-0.054,-0.02
2.35,-0.01,0.005,0.015,0.005,-0.015,0.01,0.063,0.063,-0.039,-0.049,-0.049,-0.024
2.352,-0.01,0.005,0.015,0.005,-0.015,0.01,0.059,0.059,-0.049,-0.054,-0.059,-0.029
2.354,-0.005,0.005,0.01,0.0,-0.01,0.005,0.059,0.059,-0.044,-0.054,-0.063,-0.034
2.356,-0.01,0.005,0.015,0.005,-0.015,0.01,0.054,0.059,-0.044,-0.054,-0.063,-0.029
2.358,-0.005,0.01,0.015,0.0,-0.01,0.01,0.049,0.054,-0.049,-0.054,-0.063,-0.034
2.36,-0.005,-0.01,-0.005,0.01,0.0,-0.01,0.044,0.049,-0.049,-0.049,-0.063,-0.034
2.362,-0.01,-0.01,0.0,0.01,-0.005,-0.005,0.049,0.054,-0.034,-0.049,-0.059,-0.034
2.364,-0.005,0.0,0.005,0.005,-0.005,0.0,0.054,0.068,-0.029,-0.049,-0.063,-0.034
2.366,0.01,0.01,0.0,-0.01,0.005,0.005,0.059,0.073,-0.029,-0.044,-0.063,-0.034
2.368,0.015,0.0,-0.015,-0.005,0.015,-0.01,0.068,0.083,-0.024,-0.044,-0.059,-0.029
2.37,0.01,0.0,-0.01,-0.005,0.01,-0.005,0.073,0.093,-0.015,-0.039,-0.054,-0.024
2.372,-0.024,-0.015,0.01,0.02,-0.02,-0.005,0.078,0.098,-0.02,-0.039,-0.054,-0.024
2.374,-0.024,-0.01,0.015,0.02,-0.02,0.0,0.083,0.102,-0.015,-0.029,-0.049,-0.02
2.376,-0.005,0.0,0.005,0.005,-0.005,0.0,0.083,0.102,-0.02,-0.039,-0.049,-0.02
2.378,-0.01,0.01,0.02,0.0,-0.015,0.015,0.068,0.093,-0.024,-0.044,-0.049,-0.024
2.38,0.0,0.01,0.01,-0.005,-0.005,0.01,0.073,0.098,-0.015,-0.039,-0.044,-0.02
2.382,-0.01,0.0,0.01,0.005,-0.01,0.005,0.068,0.098,-0.015,-0.039,-0.049,-0.02
2.384,-0.015,0.0,0.015,0.01,-0.015,0.005,0.063,0.098,-0.02,-0.044,-0.054,-0.024
2.386,-0.005,0.015,0.02,-0.005,-0.015,0.015,0.083,0.107,-0.005,-0.034,-0.039,-0.015
2.388,0.015,0.02,0.005,-0.015,0.005,0.01,0.078,0.112,-0.01,-0.044,-0.049,-0.02
2.39,0.015,0.02,0.005,-0.015,0.005,0.01,0.078,0.127,-0.005,-0.044,-0.049,-0.02
2.392,0.01,0.01,0.0,-0.01,0.005,0.005,0.073,0.122,-0.015,-0.049,-0.054,-0.024
2.394,0.015,0.01,-0.005,-0.01,0.01,0.0,0.078,0.132,-0.01,-0.039,-0.044,-0.02
2.396,0.01,0.02,0.01,-0.015,0.0,0.015,0.083,0.137,0.0,-0.034,-0.039,-0.015
2.398,-0.01,0.015,0.024,0.0,-0.02,0.02,0.088,0.142,0.005,-0.029,-0.029,-0.005
2.4,-0.01,0.02,0.029,-0.005,-0.02,0.024,0.088,0.146,0.015,-0.024,-0.024,0.0
2.402,-0.01,0.02,0.029,-0.005,-0.02,0.024,0.088,0.151,0.015,-0.02,-0.024,0.0
2.404,-0.02,0.005,0.024,0.01,-0.024,0.015,0.088,0.146,0.005,-0.029,-0.034,-0.01
2.406,0.0,0.02,0.02,-0.01,-0.01,0.02,0.098,0.161,0.015,-0.024,-0.024,0.0
2.408,0.005,0.034,0.029,-0.02,-0.015,0.029,0.102,0.181,0.024,-0.015,-0.02,0.01
2.41,-0.01,0.02,0.029,-0.005,-0.02,0.024,0.102,0.181,0.015,-0.024,-0.029,0.0
2.412,0.0,0.02,0.02,-0.01,-0.01,0.02,0.093,0.185,0.01,-0.029,-0.029,-0.005
2.414,0.0,0.02,0.02,-0.01,-0.01,0.02,0.088,0.185,0.01,-0.02,-0.029,-0.005
2.416,0.005,0.039,0.034,-0.02,-0.015,0.034,0.098,0.195,0.024,-0.015,-0.024,0.0
2.418,0.0,0.039,0.039,-0.02,-0.02,0.039,0.093,0.2,0.034,-0.005,-0.015,0.0
2.42,0.0,0.034,0.034,-0.015,-0.02,0.034,0.098,0.21,0.044,0.0,-0.01,0.005
2.422,0.01,0.044,0.034,-0.024,-0.015,0.039,0.112,0.22,0.054,0.01,0.0,0.015
2.424,0.0,0.039,0.039,-0.02,-0.02,0.039,0.117,0.229,0.059,0.01,-0.005,0.015
2.426,-0.01,0.044,0.054,-0.015,-0.034,0.049,0.122,0.239,0.059,0.01,-0.005,0.01
2.428,0.005,0.044,0.039,-0.024,-0.02,0.039,0.127,0.244,0.063,0.02,0.0,0.024
2.43,0.01,0.034,0.024,-0.02,-0.01,0.029,0.117,0.244,0.059,0.015,-0.005,0.015
2.432,0.01,0.034,0.024,-0.02,-0.01,0.029,0.122,0.259,0.059,0.015,-0.005,0.015
2.434,0.024,0.059,0.034,-0.039,-0.005,0.044,0.137,0.273,0.078,0.029,0.015,0.029
2.436,0.01,0.049,0.039,-0.029,-0.015,0.044,0.132,0.273,0.078,0.024,0.005,0.034
2.438,-0.005,0.059,0.063,-0.024,-0.034,0.059,0.142,0.288,0.088,0.034,0.02,0.039
2.44,0.005,0.073,0.068,-0.039,-0.034,0.068,0.142,0.293,0.098,0.034,0.02,0.039
2.442,0.02,0.088,0.068,-0.054,-0.024,0.078,0.137,0.298,0.102,0.039,0.024,0.049
2.444,0.02,0.088,0.068,-0.054,-0.024,0.078,0.137,0.307,0.107,0.044,0.029,0.054
2.446,0.01,0.083,0.073,-0.044,-0.034,0.078,0.142,0.317,0.112,0.044,0.034,0.054
2.448,0.01,0.088,0.078,-0.049,-0.034,0.083,0.151,0.332,0.122,0.054,0.044,0.063
2.45,0.02,0.098,0.078,-0.059,-0.029,0.088,0.151,0.337,0.127,0.059,0.059,0.068
2.452,0.02,0.098,0.078,-0.059,-0.029,0.088,0.146,0.337,0.122,0.063,0.054,0.063
2.454,0.024,0.102,0.078,-0.063,-0.029,0.088,0.146,0.342,0.137,0.078,0.073,0.078
2.456,0.024,0.107,0.083,-0.063,-0.029,0.093,0.151,0.356,0.142,0.088,0.078,0.088
2.458,0.044,0.122,0.078,-0.083,-0.02,0.098,0.137,0.346,0.137,0.083,0.073,0.083
2.46,0.044,0.132,0.088,-0.088,-0.024,0.107,0.142,0.356,0.156,0.098,0.088,0.098
2.462,0.039,0.132,0.093,-0.083,-0.029,0.112,0.146,0.366,0.166,0.107,0.098,0.107
2.464,0.034,0.137,0.102,-0.083,-0.034,0.117,0.146,0.366,0.171,0.112,0.098,0.112
2.466,0.029,0.142,0.112,-0.083,-0.044,0.127,0.151,0.381,0.176,0.117,0.107,0.122
2.468,0.039,0.146,0.107,-0.093,-0.034,0.127,0.151,0.386,0.185,0.122,0.117,0.127
2.47,0.054,0.151,0.098,-0.102,-0.024,0.122,0.156,0.39,0.185,0.127,0.122,0.132
2.472,0.059,0.151,0.093,-0.102,-0.02,0.122,0.151,0.395,0.185,0.127,0.122,0.137
2.474,0.068,0.156,0.088,-0.112,-0.01,0.122,0.137,0.39,0.195,0.142,0.132,0.142
2.476,0.063,0.151,0.088,-0.107,-0.015,0.117,0.137,0.4,0.205,0.151,0.146,0.161
2.478,0.049,0.142,0.093,-0.093,-0.024,0.117,0.127,0.386,0.2,0.151,0.146,0.156
2.48,0.059,0.151,0.093,-0.102,-0.02,0.122,0.117,0.381,0.205,0.161,0.151,0.161
2.482,0.068,0.161,0.093,-0.112,-0.015,0.127,0.132,0.395,0.22,0.176,0.166,0.176
2.484,0.063,0.171,0.107,-0.117,-0.024,0.137,0.137,0.4,0.229,0.176,0.176,0.181
2.486,0.078,0.19,0.112,-0.132,-0.02,0.151,0.146,0.41,0.234,0.181,0.185,0.19
2.488,0.083,0.19,0.107,-0.137,-0.015,0.146,0.146,0.415,0.239,0.185,0.185,0.19
2.49,0.073,0.171,0.098,-0.122,-0.015,0.132,0.137,0.4,0.229,0.176,0.176,0.181
2.492,0.049,0.151,0.102,-0.098,-0.029,0.127,0.127,0.39,0.21,0.166,0.166,0.166
2.494,0.059,0.151,0.093,-0.102,-0.02,0.122,0.127,0.39,0.215,0.166,0.166,0.171
2.496,0.063,0.176,0.112,-0.117,-0.024,0.142,0.132,0.39,0.215,0.171,0.171,0.176
2.498,0.068,0.176,0.107,-0.122,-0.02,0.142,0.117,0.386,0.215,0.166,0.166,0.171
2.5,0.049,0.166,0.117,-0.107,-0.034,0.142,0.122,0.376,0.22,0.171,0.171,0.176
2.502,0.059,0.166,0.107,-0.112,-0.024,0.137,0.122,0.381,0.22,0.171,0.176,0.185
2.504,0.063,0.166,0.102,-0.112,-0.02,0.132,0.117,0.366,0.21,0.166,0.166,0.185
2.506,0.073,0.171,0.098,-0.122,-0.015,0.132,0.112,0.356,0.21,0.166,0.176,0.181
2.508,0.083,0.171,0.088,-0.127,-0.005,0.127,0.112,0.356,0.21,0.161,0.171,0.185
2.51,0.078,0.166,0.088,-0.122,-0.005,0.127,0.107,0.346,0.2,0.146,0.156,0.171
2.512,0.078,0.166,0.088,-0.122,-0.005,0.127,0.102,0.332,0.19,0.137,0.146,0.156
2.514,0.083,0.166,0.083,-0.122,0.0,0.122,0.107,0.327,0.205,0.146,0.151,0.161
2.516,0.073,0.151,0.078,-0.112,-0.005,0.112,0.107,0.322,0.195,0.142,0.142,0.161
2.518,0.078,0.146,0.068,-0.112,0.005,0.107,0.088,0.298,0.185,0.127,0.127,0.146
2.52,0.068,0.132,0.063,-0.098,0.0,0.098,0.088,0.288,0.19,0.132,0.132,0.146
2.522,0.054,0.107,0.054,-0.078,0.0,0.078,0.083,0.273,0.185,0.127,0.132,0.132
2.524,0.054,0.107,0.054,-0.078,0.0,0.078,0.088,0.264,0.176,0.122,0.122,0.127
2.526,0.063,0.102,0.039,-0.083,0.01,0.068,0.078,0.249,0.166,0.107,0.112,0.112
2.528,0.068,0.088,0.02,-0.078,0.024,0.054,0.083,0.244,0.161,0.107,0.107,0.112
2.53,0.078,0.093,0.015,-0.083,0.029,0.054,0.068,0.224,0.151,0.098,0.093,0.102
2.532,0.078,0.088,0.01,-0.083,0.034,0.049,0.068,0.215,0.146,0.093,0.088,0.098
2.534,0.078,0.088,0.01,-0.083,0.034,0.049,0.068,0.205,0.137,0.088,0.088,0.093
2.536,0.054,0.083,0.029,-0.068,0.01,0.054,0.059,0.185,0.132,0.083,0.078,0.088
2.538,0.044,0.073,0.029,-0.059,0.005,0.049,0.049,0.166,0.117,0.068,0.063,0.068
2.54,0.029,0.068,0.039,-0.049,-0.005,0.054,0.039,0.146,0.102,0.059,0.054,0.059
2.542,0.005,0.049,0.044,-0.024,-0.02,0.044,0.039,0.127,0.093,0.044,0.044,0.044
2.544,0.024,0.054,0.029,-0.039,-0.005,0.039,0.034,0.117,0.083,0.039,0.029,0.034
2.546,0.034,0.059,0.024,-0.044,0.005,0.039,0.034,0.112,0.078,0.039,0.024,0.024
2.548,0.024,0.049,0.024,-0.034,0.0,0.034,0.024,0.098,0.059,0.024,0.015,0.024
2.55,0.024,0.044,0.02,-0.034,0.0,0.029,0.024,0.088,0.049,0.01,0.0,0.015
2.552,0.02,0.029,0.01,-0.024,0.005,0.02,0.024,0.083,0.044,0.005,-0.005,0.01
2.554,-0.005,0.015,0.02,-0.005,-0.015,0.015,0.02,0.068,0.034,0.0,-0.01,0.005
2.556,0.005,0.01,0.005,-0.005,0.0,0.005,0.02,0.059,0.029,0.005,-0.015,0.0
2.558,0.01,0.015,0.005,-0.01,0.0,0.01,0.02,0.049,0.02,-0.005,-0.02,-0.01
2.56,0.029,0.015,-0.015,-0.02,0.02,0.0,0.02,0.044,0.02,0.005,-0.01,-0.005
2.562,0.015,0.0,-0.015,-0.005,0.015,-0.01,0.02,0.039,0.024,0.0,-0.01,0.0
2.564,-0.005,-0.01,-0.005,0.01,0.0,-0.01,0.015,0.029,0.005,-0.015,-0.024,-0.01
2.566,0.0,0.0,0.0,0.0,0.0,0.0,0.01,0.024,0.0,-0.02,-0.024,-0.015
2.568,-0.005,0.0,0.005,0.005,-0.005,0.0,0.02,0.024,-0.005,-0.02,-0.024,-0.005
2.57,-0.01,-0.005,0.005,0.01,-0.01,0.0,0.02,0.02,-0.01,-0.024,-0.034,-0.024
2.572,-0.005,-0.005,0.0,0.005,-0.005,-0.005,0.02,0.024,-0.01,-0.029,-0.039,-0.024
2.574,-0.015,0.0,0.015,0.01,-0.015,0.005,0.024,0.02,-0.01,-0.034,-0.039,-0.029
2.576,-0.005,0.0,0.005,0.005,-0.005,0.0,0.015,0.01,-0.015,-0.034,-0.044,-0.034
2.578,0.0,0.0,0.0,0.0,0.0,0.0,0.02,0.01,-0.015,-0.034,-0.049,-0.039
2.58,0.005,0.0,-0.005,0.0,0.005,-0.005,0.02,0.005,-0.02,-0.044,-0.049,-0.044
2.582,0.0,-0.01,-0.01,0.005,0.005,-0.01,0.015,-0.005,-0.024,-0.049,-0.059,-0.049
2.584,-0.01,-0.015,-0.005,0.015,-0.005,-0.01,0.01,-0.01,-0.039,-0.054,-0.068,-0.059
2.586,-0.015,-0.029,-0.015,0.024,0.0,-0.024,0.005,-0.015,-0.039,-0.054,-0.063,-0.063
2.588,-0.015,-0.02,-0.005,0.02,-0.005,-0.015,0.015,-0.005,-0.034,-0.049,-0.054,-0.049
2.59,-0.005,-0.015,-0.01,0.01,0.0,-0.015,0.005,-0.015,-0.044,-0.054,-0.059,-0.054
2.592,0.0,0.0,0.0,0.0,0.0,0.0,0.01,-0.005,-0.039,-0.049,-0.049,-0.044
2.594,-0.015,-0.005,0.01,0.01,-0.015,0.0,0.005,-0.015,-0.044,-0.049,-0.049,-0.044
2.596,-0.01,0.0,0.01,0.005,-0.01,0.005,0.005,-0.015,-0.039,-0.044,-0.044,-0.044
2.598,0.01,0.015,0.005,-0.01,0.0,0.01,0.005,-0.015,-0.034,-0.039,-0.044,-0.039
2.6,0.01,0.01,0.0,-0.01,0.005,0.005,0.01,-0.01,-0.029,-0.034,-0.039,-0.034
2.602,0.005,0.005,0.0,-0.005,0.0,0.0,0.01,-0.015,-0.029,-0.039,-0.044,-0.039
2.604,-0.015,-0.02,-0.005,0.02,-0.005,-0.015,0.005,-0.015,-0.029,-0.034,-0.059,-0.044
2.606,-0.024,-0.029,-0.005,0.029,-0.01,-0.02,0.01,-0.015,-0.034,-0.034,-0.054,-0.044
2.608,-0.015,-0.015,0.0,0.015,-0.01,-0.01,0.015,-0.01,-0.029,-0.034,-0.054,-0.044
2.61,0.0,-0.01,-0.01,0.005,0.005,-0.01,0.015,-0.01,-0.029,-0.034,-0.059,-0.049
2.612,-0.01,-0.02,-0.01,0.015,0.0,-0.015,0.015,-0.005,-0.034,-0.039,-0.063,-0.054
2.614,-0.01,-0.024,-0.015,0.02,0.0,-0.02,0.015,-0.01,-0.034,-0.049,-0.059,-0.054
2.616,-0.015,-0.034,-0.02,0.024,0.0,-0.029,0.005,-0.015,-0.039,-0.044,-0.063,-0.054
2.618,-0.01,-0.034,-0.024,0.024,0.005,-0.029,-0.005,-0.024,-0.044,-0.054,-0.059,-0.054
2.62,0.0,-0.024,-0.024,0.015,0.01,-0.024,-0.005,-0.02,-0.044,-0.054,-0.059,-0.049
2.622,-0.005,-0.024,-0.02,0.015,0.005,-0.024,-0.005,-0.02,-0.044,-0.054,-0.054,-0.044
2.624,-0.02,-0.005,0.015,0.015,-0.02,0.005,0.005,-0.01,-0.029,-0.044,-0.049,-0.034
2.626,-0.02,-0.02,0.0,0.02,-0.01,-0.01,0.01,-0.005,-0.029,-0.044,-0.049,-0.039
2.628,-0.02,-0.034,-0.015,0.029,-0.005,-0.024,0.01,-0.005,-0.034,-0.049,-0.054,-0.044
2.63,-0.015,-0.034,-0.02,0.024,0.0,-0.029,0.015,-0.005,-0.029,-0.039,-0.054,-0.049
2.632,-0.02,-0.034,-0.015,0.029,-0.005,-0.024,0.005,-0.01,-0.044,-0.049,-0.059,-0.059
2.634,-0.015,-0.039,-0.024,0.029,0.005,-0.034,0.005,-0.02,-0.039,-0.054,-0.063,-0.063
2.636,-0.015,-0.039,-0.024,0.029,0.005,-0.034,-0.005,-0.029,-0.049,-0.063,-0.068,-0.068
2.638,-0.029,-0.049,-0.02,0.039,-0.005,-0.034,-0.005,-0.024,-0.054,-0.068,-0.078,-0.073
2.64,-0.029,-0.044,-0.015,0.039,-0.01,-0.029,-0.01,-0.029,-0.059,-0.078,-0.083,-0.073
2.642,-0.015,-0.024,-0.01,0.02,-0.005,-0.02,-0.005,-0.024,-0.054,-0.073,-0.083,-0.068
2.644,0.005,0.005,0.0,-0.005,0.0,0.0,0.0,-0.02,-0.044,-0.063,-0.078,-0.063
2.646,0.005,-0.01,-0.015,0.005,0.01,-0.015,-0.005,-0.02,-0.044,-0.068,-0.078,-0.063
2.648,-0.015,-0.039,-0.024,0.029,0.005,-0.034,0.0,-0.015,-0.044,-0.068,-0.078,-0.063
2.65,-0.005,-0.034,-0.029,0.02,0.01,-0.034,0.005,-0.015,-0.049,-0.068,-0.073,-0.059
2.652,0.0,-0.024,-0.024,0.015,0.01,-0.024,0.005,-0.01,-0.049,-0.063,-0.068,-0.054
2.654,-0.015,-0.02,-0.005,0.02,-0.005,-0.015,0.02,-0.005,-0.034,-0.049,-0.054,-0.044
2.656,-0.02,-0.024,-0.005,0.024,-0.01,-0.015,0.02,-0.005,-0.039,-0.049,-0.059,-0.039
2.658,-0.01,-0.039,-0.029,0.024,0.01,-0.034,0.005,-0.015,-0.054,-0.063,-0.073,-0.059
2.66,-0.015,-0.039,-0.024,0.029,0.005,-0.034,0.005,-0.01,-0.049,-0.063,-0.068,-0.059
2.662,-0.01,-0.034,-0.024,0.024,0.005,-0.029,0.005,-0.01,-0.044,-0.063,-0.068,-0.054
2.664,-0.01,-0.02,-0.01,0.015,0.0,-0.015,0.005,-0.01,-0.054,-0.073,-0.078,-0.063
2.666,0.01,0.005,-0.005,-0.005,0.005,0.0,0.015,0.0,-0.044,-0.063,-0.073,-0.059
2.668,0.005,0.0,-0.005,0.0,0.005,-0.005,0.02,0.0,-0.044,-0.068,-0.073,-0.063
2.67,-0.01,-0.02,-0.01,0.015,0.0,-0.015,0.024,-0.005,-0.054,-0.073,-0.078,-0.068
2.672,-0.005,-0.034,-0.029,0.02,0.01,-0.034,0.02,-0.01,-0.068,-0.078,-0.083,-0.078
2.674,-0.015,-0.044,-0.029,0.029,0.005,-0.039,0.024,0.0,-0.054,-0.068,-0.073,-0.068
2.676,-0.034,-0.039,-0.005,0.039,-0.015,-0.024,0.024,0.005,-0.054,-0.059,-0.068,-0.059
2.678,-0.029,-0.029,0.0,0.029,-0.015,-0.015,0.024,0.0,-0.049,-0.059,-0.063,-0.059
2.68,-0.039,-0.049,-0.01,0.044,-0.015,-0.029,0.01,-0.01,-0.059,-0.068,-0.073,-0.068
2.682,-0.024,-0.034,-0.01,0.029,-0.01,-0.024,0.02,0.0,-0.054,-0.063,-0.063,-0.054
2.684,-0.015,-0.015,0.0,0.015,-0.01,-0.01,0.015,0.0,-0.059,-0.059,-0.063,-0.054
2.686,-0.024,-0.02,0.005,0.024,-0.015,-0.01,0.015,-0.005,-0.059,-0.063,-0.063,-0.054
2.688,-0.029,-0.029,0.0,0.029,-0.015,-0.015,0.02,0.005,-0.059,-0.063,-0.063,-0.049
2.69,-0.024,-0.034,-0.01,0.029,-0.01,-0.024,0.015,0.0,-0.063,-0.068,-0.073,-0.054
2.692,-0.01,-0.024,-0.015,0.02,0.0,-0.02,0.01,-0.005,-0.063,-0.068,-0.073,-0.054
2.694,-0.01,-0.02,-0.01,0.015,0.0,-0.015,0.02,0.005,-0.054,-0.059,-0.063,-0.049
2.696,-0.01,-0.015,-0.005,0.015,-0.005,-0.01,0.01,-0.005,-0.063,-0.068,-0.078,-0.063
2.698,-0.015,-0.015,0.0,0.015,-0.01,-0.01,0.015,-0.01,-0.054,-0.073,-0.078,-0.068
2.7,-0.024,-0.034,-0.01,0.029,-0.01,-0.024,0.015,-0.005,-0.054,-0.068,-0.073,-0.068
2.702,-0.029,-0.034,-0.005,0.034,-0.015,-0.02,0.015,-0.01,-0.059,-0.068,-0.073,-0.059
2.704,-0.01,-0.01,0.0,0.01,-0.005,-0.005,0.024,0.0,-0.054,-0.068,-0.068,-0.049
2.706,-0.02,-0.02,0.0,0.02,-0.01,-0.01,0.015,-0.005,-0.054,-0.068,-0.068,-0.054
2.708,-0.02,-0.024,-0.005,0.024,-0.01,-0.015,0.015,0.0,-0.059,-0.068,-0.068,-0.049
2.71,-0.015,-0.02,-0.005,0.02,-0.005,-0.015,0.02,0.0,-0.059,-0.068,-0.063,-0.044
2.712,-0.029,-0.024,0.005,0.029,-0.02,-0.01,0.02,0.005,-0.054,-0.063,-0.054,-0.049
2.714,-0.01,-0.015,-0.005,0.015,-0.005,-0.01,0.02,0.005,-0.049,-0.059,-0.049,-0.044
2.716,-0.01,-0.015,-0.005,0.015,-0.005,-0.01,0.02,0.0,-0.059,-0.059,-0.049,-0.044
2.718,-0.015,-0.02,-0.005,0.02,-0.005,-0.015,0.01,-0.01,-0.063,-0.059,-0.059,-0.054
2.72,-0.015,-0.02,-0.005,0.02,-0.005,-0.015,0.015,-0.005,-0.054,-0.049,-0.054,-0.049
2.722,-0.005,-0.01,-0.005,0.01,0.0,-0.01,0.02,0.0,-0.049,-0.044,-0.049,-0.039
2.724,-0.01,-0.01,0.0,0.01,-0.005,-0.005,0.015,0.0,-0.054,-0.049,-0.054,-0.044
2.726,-0.015,-0.015,0.0,0.015,-0.01,-0.01,0.015,0.0,-0.044,-0.049,-0.049,-0.044
2.728,-0.029,-0.029,0.0,0.029,-0.015,-0.015,0.015,0.0,-0.049,-0.054,-0.054,-0.044
2.73,-0.015,-0.015,0.0,0.015,-0.01,-0.01,0.02,0.0,-0.059,-0.059,-0.059,-0.044
2.732,-0.005,-0.005,0.0,0.005,-0.005,-0.005,0.015,-0.005,-0.059,-0.059,-0.063,-0.049
2.734,-0.005,-0.01,-0.005,0.01,0.0,-0.01,0.02,0.0,-0.054,-0.054,-0.054,-0.044
2.736,-0.005,0.0,0.005,0.005,-0.005,0.0,0.015,0.0,-0.054,-0.059,-0.054,-0.044
2.738,-0.015,0.0,0.015,0.01,-0.015,0.005,0.005,-0.01,-0.054,-0.049,-0.054,-0.044
2.74,-0.015,-0.01,0.005,0.015,-0.01,-0.005,0.0,-0.015,-0.049,-0.049,-0.049,-0.044
2.742,-0.015,-0.015,0.0,0.015,-0.01,-0.01,0.01,-0.005,-0.039,-0.044,-0.034,-0.034
2.744,-0.015,-0.015,0.0,0.015,-0.01,-0.01,0.01,-0.005,-0.039,-0.039,-0.039,-0.039
2.746,-0.005,-0.005,0.0,0.005,-0.005,-0.005,0.015,0.0,-0.029,-0.034,-0.029,-0.029
2.748,0.0,-0.01,-0.01,0.005,0.005,-0.01,0.015,0.005,-0.024,-0.029,-0.024,-0.024
2.75,-0.01,-0.024,-0.015,0.02,0.0,-0.02,0.015,0.0,-0.034,-0.039,-0.034,-0.029
2.752,-0.024,-0.034,-0.01,0.029,-0.01,-0.024,0.005,-0.005,-0.039,-0.039,-0.039,-0.034
2.754,-0.015,-0.034,-0.02,0.024,0.0,-0.029,0.0,-0.01,-0.039,-0.049,-0.039,-0.034
2.756,-0.005,-0.015,-0.01,0.01,0.0,-0.015,0.005,-0.01,-0.039,-0.044,-0.039,-0.029
2.758,0.0,-0.01,-0.01,0.005,0.005,-0.01,0.005,-0.01,-0.034,-0.039,-0.034,-0.034
2.76,-0.005,-0.015,-0.01,0.01,0.0,-0.015,0.0,-0.01,-0.029,-0.034,-0.029,-0.029
2.762,-0.005,-0.015,-0.01,0.01,0.0,-0.015,0.005,-0.01,-0.029,-0.034,-0.029,-0.02
2.764,-0.01,-0.02,-0.01,0.015,0.0,-0.015,0.005,-0.015,-0.034,-0.039,-0.029,-0.029
2.766,-0.015,-0.024,-0.01,0.02,-0.005,-0.02,-0.01,-0.02,-0.039,-0.044,-0.039,-0.039
2.768,-0.01,-0.024,-0.015,0.02,0.0,-0.02,-0.005,-0.015,-0.039,-0.044,-0.034,-0.029
2.77,0.0,-0.02,-0.02,0.01,0.01,-0.02,0.0,-0.015,-0.039,-0.044,-0.034,-0.029
2.772,-0.005,-0.01,-0.005,0.01,0.0,-0.01,-0.005,-0.015,-0.034,-0.039,-0.029,-0.029
2.774,-0.01,-0.02,-0.01,0.015,0.0,-0.015,-0.005,-0.01,-0.034,-0.039,-0.024,-0.029
2.776,-0.015,-0.02,-0.005,0.02,-0.005,-0.015,-0.01,-0.02,-0.049,-0.044,-0.029,-0.034
2.778,-0.01,-0.01,0.0,0.01,-0.005,-0.005,-0.01,-0.024,-0.049,-0.044,-0.034,-0.039
2.78,-0.005,-0.005,0.0,0.005,-0.005,-0.005,-0.01,-0.029,-0.044,-0.034,-0.029,-0.034
2.782,-0.005,-0.005,0.0,0.005,-0.005,-0.005,-0.005,-0.02,-0.039,-0.029,-0.029,-0.024
2.784,-0.01,0.0,0.01,0.005,-0.01,0.005,-0.01,-0.02,-0.044,-0.034,-0.029,-0.029
2.786,-0.015,-0.015,0.0,0.015,-0.01,-0.01,-0.01,-0.015,-0.034,-0.029,-0.024,-0.024
2.788,-0.005,-0.01,-0.005,0.01,0.0,-0.01,0.0,-0.01,-0.034,-0.024,-0.02,-0.02
2.79,0.0,-0.01,-0.01,0.005,0.005,-0.01,0.0,-0.01,-0.034,-0.024,-0.024,-0.02
2.792,0.0,-0.015,-0.015,0.01,0.005,-0.015,-0.01,-0.02,-0.039,-0.034,-0.034,-0.029
2.794,-0.005,-0.02,-0.015,0.015,0.005,-0.02,-0.005,-0.02,-0.034,-0.029,-0.029,-0.029
2.796,-0.005,-0.029,-0.024,0.02,0.01,-0.029,-0.01,-0.02,-0.039,-0.029,-0.029,-0.029
2.798,0.0,-0.024,-0.024,0.015,0.01,-0.024,-0.015,-0.029,-0.039,-0.029,-0.034,-0.034
2.8,-0.005,-0.02,-0.015,0.015,0.005,-0.02,-0.01,-0.024,-0.029,-0.024,-0.02,-0.029
2.802,0.0,-0.02,-0.02,0.01,0.01,-0.02,-0.005,-0.02,-0.034,-0.029,-0.024,-0.029
2.804,0.0,-0.01,-0.01,0.005,0.005,-0.01,-0.01,-0.024,-0.039,-0.034,-0.029,-0.029
2.806,0.01,-0.015,-0.024,0.005,0.015,-0.02,-0.01,-0.024,-0.039,-0.029,-0.024,-0.029
2.808,0.015,-0.015,-0.029,0.0,0.02,-0.024,-0.015,-0.029,-0.044,-0.034,-0.029,-0.039
2.81,0.0,-0.02,-0.02,0.01,0.01,-0.02,0.0,-0.015,-0.034,-0.024,-0.024,-0.024
2.812,-0.005,-0.024,-0.02,0.015,0.005,-0.024,-0.01,-0.024,-0.039,-0.039,-0.029,-0.034
2.814,-0.015,-0.034,-0.02,0.024,0.0,-0.029,-0.01,-0.024,-0.039,-0.039,-0.029,-0.034
2.816,-0.01,-0.029,-0.02,0.02,0.005,-0.024,-0.005,-0.024,-0.039,-0.039,-0.029,-0.029
2.818,-0.01,-0.029,-0.02,0.02,0.005,-0.024,-0.005,-0.024,-0.034,-0.039,-0.029,-0.029
2.82,-0.01,-0.024,-0.015,0.02,0.0,-0.02,-0.01,-0.029,-0.034,-0.034,-0.029,-0.034
2.822,-0.01,-0.02,-0.01,0.015,0.0,-0.015,0.0,-0.024,-0.034,-0.039,-0.029,-0.034
2.824,-0.02,-0.029,-0.01,0.024,-0.005,-0.02,-0.015,-0.034,-0.044,-0.044,-0.039,-0.039
2.826,-0.02,-0.024,-0.005,0.024,-0.01,-0.015,-0.015,-0.034,-0.044,-0.044,-0.034,-0.039
2.828,-0.02,-0.034,-0.015,0.029,-0.005,-0.024,-0.01,-0.034,-0.044,-0.044,-0.034,-0.039
2.83,-0.01,-0.02,-0.01,0.015,0.0,-0.015,-0.01,-0.029,-0.049,-0.049,-0.029,-0.044
2.832,-0.005,-0.01,-0.005,0.01,0.0,-0.01,-0.015,-0.029,-0.049,-0.044,-0.024,-0.029
2.834,-0.015,-0.029,-0.015,0.024,0.0,-0.024,-0.02,-0.039,-0.054,-0.044,-0.029,-0.034
2.836,-0.02,-0.029,-0.01,0.024,-0.005,-0.02,-0.024,-0.044,-0.059,-0.044,-0.034,-0.034
2.838,-0.015,-0.029,-0.015,0.024,0.0,-0.024,-0.024,-0.049,-0.049,-0.039,-0.034,-0.034
2.84,-0.01,-0.02,-0.01,0.015,0.0,-0.015,-0.02,-0.044,-0.044,-0.034,-0.024,-0.024
2.842,-0.01,-0.024,-0.015,0.02,0.0,-0.02,-0.02,-0.039,-0.044,-0.034,-0.02,-0.02
2.844,-0.01,-0.024,-0.015,0.02,0.0,-0.02,-0.02,-0.039,-0.044,-0.029,-0.02,-0.02
2.846,-0.01,-0.029,-0.02,0.02,0.005,-0.024,-0.015,-0.029,-0.039,-0.02,-0.01,-0.01
2.848,0.0,-0.029,-0.029,0.015,0.015,-0.029,-0.02,-0.034,-0.044,-0.024,-0.015,-0.01
2.85,-0.01,-0.029,-0.02,0.02,0.005,-0.024,-0.02,-0.034,-0.044,-0.034,-0.024,-0.024
2.852,-0.005,-0.02,-0.015,0.015,0.005,-0.02,-0.024,-0.044,-0.054,-0.034,-0.024,-0.024
2.854,0.0,-0.015,-0.015,0.01,0.005,-0.015,-0.02,-0.039,-0.049,-0.034,-0.02,-0.024
2.856,0.0,-0.01,-0.01,0.005,0.005,-0.01,-0.015,-0.029,-0.039,-0.029,-0.02,-0.024
2.858,-0.01,-0.024,-0.015,0.02,0.0,-0.02,-0.015,-0.029,-0.039,-0.029,-0.02,-0.029
2.86,-0.01,-0.02,-0.01,0.015,0.0,-0.015,-0.015,-0.039,-0.049,-0.034,-0.02,-0.034
2.862,0.0,-0.024,-0.024,0.015,0.01,-0.024,-0.01,-0.034,-0.044,-0.029,-0.02,-0.024
2.864,-0.01,-0.034,-0.024,0.024,0.005,-0.029,-0.02,-0.039,-0.049,-0.034,-0.02,-0.024
2.866,-0.02,-0.044,-0.024,0.034,0.0,-0.034,-0.02,-0.044,-0.054,-0.044,-0.029,-0.039
2.868,-0.01,-0.034,-0.024,0.024,0.005,-0.029,-0.02,-0.044,-0.054,-0.044,-0.029,-0.039
2.87,0.0,-0.029,-0.029,0.015,0.015,-0.029,-0.015,-0.039,-0.049,-0.044,-0.029,-0.039
2.872,0.0,-0.029,-0.029,0.015,0.015,-0.029,-0.015,-0.034,-0.049,-0.039,-0.024,-0.034
2.874,0.01,-0.029,-0.039,0.01,0.024,-0.034,-0.015,-0.039,-0.049,-0.044,-0.029,-0.039
2.876,0.005,-0.029,-0.034,0.015,0.02,-0.034,-0.015,-0.029,-0.044,-0.039,-0.024,-0.034
2.878,-0.01,-0.024,-0.015,0.02,0.0,-0.02,-0.01,-0.029,-0.039,-0.039,-0.024,-0.029
2.88,0.0,-0.024,-0.024,0.015,0.01,-0.024,-0.02,-0.029,-0.039,-0.039,-0.024,-0.029
2.882,-0.01,-0.049,-0.039,0.029,0.015,-0.044,-0.029,-0.039,-0.049,-0.049,-0.039,-0.044
2.884,-0.015,-0.039,-0.024,0.029,0.005,-0.034,-0.024,-0.034,-0.039,-0.034,-0.024,-0.034
2.886,-0.02,-0.029,-0.01,0.024,-0.005,-0.02,-0.02,-0.024,-0.034,-0.029,-0.02,-0.034
2.888,-0.015,-0.029,-0.015,0.024,0.0,-0.024,-0.02,-0.02,-0.034,-0.024,-0.015,-0.029
2.89,0.0,-0.029,-0.029,0.015,0.015,-0.029,-0.015,-0.02,-0.029,-0.02,-0.005,-0.02
2.892,-0.005,-0.034,-0.029,0.02,0.01,-0.034,-0.024,-0.02,-0.039,-0.02,-0.005,-0.02
2.894,-0.01,-0.044,-0.034,0.029,0.01,-0.039,-0.029,-0.024,-0.044,-0.029,-0.01,-0.024
2.896,-0.005,-0.034,-0.029,0.02,0.01,-0.034,-0.029,-0.024,-0.049,-0.024,-0.01,-0.02
2.898,-0.015,-0.039,-0.024,0.029,0.005,-0.034,-0.039,-0.039,-0.054,-0.034,-0.02,-0.029
2.9,-0.015,-0.044,-0.029,0.029,0.005,-0.039,-0.034,-0.034,-0.044,-0.029,-0.015,-0.029
2.902,-0.015,-0.039,-0.024,0.029,0.005,-0.034,-0.034,-0.039,-0.054,-0.039,-0.02,-0.039
2.904,-0.01,-0.039,-0.029,0.024,0.01,-0.034,-0.029,-0.034,-0.049,-0.034,-0.02,-0.034
2.906,-0.005,-0.034,-0.029,0.02,0.01,-0.034,-0.02,-0.029,-0.039,-0.029,-0.01,-0.029
2.908,-0.015,-0.034,-0.02,0.024,0.0,-0.029,-0.015,-0.024,-0.039,-0.024,0.0,-0.02
2.91,-0.005,-0.049,-0.044,0.029,0.02,-0.049,-0.02,-0.024,-0.049,-0.029,-0.01,-0.024
2.912,-0.02,-0.059,-0.039,0.039,0.01,-0.049,-0.024,-0.029,-0.044,-0.024,-0.005,-0.029
2.914,-0.029,-0.059,-0.029,0.044,0.0,-0.044,-0.024,-0.029,-0.044,-0.029,-0.01,-0.029
2.916,-0.015,-0.044,-0.029,0.029,0.005,-0.039,-0.024,-0.029,-0.044,-0.024,-0.01,-0.02
2.918,-0.01,-0.039,-0.029,0.024,0.01,-0.034,-0.02,-0.029,-0.039,-0.024,-0.005,-0.02
2.92,-0.015,-0.044,-0.029,0.029,0.005,-0.039,-0.029,-0.039,-0.039,-0.029,-0.01,-0.029
2.922,-0.01,-0.039,-0.029,0.024,0.01,-0.034,-0.029,-0.044,-0.049,-0.039,-0.015,-0.029
