time,I,II,III,aVR,aVL,aVF,V1,V2,V3,V4,V5,V6
0.0,0.059,0.107,0.049,-0.083,0.005,0.078,0.01,-0.303,0.224,0.068,0.117,0.088
0.002,0.059,0.107,0.049,-0.083,0.005,0.078,0.01,-0.303,0.224,0.068,0.117,0.088
0.004,0.059,0.107,0.049,-0.083,0.005,0.078,0.01,-0.303,0.224,0.068,0.117,0.088
0.006,0.059,0.107,0.049,-0.083,0.005,0.078,0.01,-0.303,0.224,0.068,0.117,0.088
0.008,0.049,0.093,0.044,-0.068,0.0,0.068,0.01,-0.317,0.2,0.044,0.088,0.063
0.01,0.039,0.078,0.039,-0.059,0.0,0.059,0.01,-0.332,0.185,0.02,0.068,0.049
0.012,0.029,0.063,0.034,-0.044,-0.005,0.049,0.01,-0.346,0.171,-0.005,0.049,0.034
0.014,0.02,0.049,0.029,-0.034,-0.005,0.039,0.01,-0.361,0.156,-0.029,0.029,0.02
0.016,0.01,0.044,0.034,-0.024,-0.015,0.039,0.005,-0.381,0.132,-0.054,0.01,-0.005
0.018,0.01,0.039,0.029,-0.024,-0.01,0.034,0.0,-0.39,0.117,-0.068,-0.01,-0.02
0.02,0.01,0.034,0.024,-0.02,-0.01,0.029,-0.005,-0.4,0.102,-0.083,-0.029,-0.034
0.022,0.01,0.029,0.02,-0.02,-0.005,0.024,-0.01,-0.41,0.088,-0.098,-0.049,-0.049
0.024,0.02,0.029,0.01,-0.024,0.005,0.02,-0.01,-0.42,0.083,-0.112,-0.059,-0.049
0.026,0.02,0.029,0.01,-0.024,0.005,0.02,-0.01,-0.42,0.078,-0.117,-0.059,-0.049
0.028,0.02,0.029,0.01,-0.024,0.005,0.02,-0.01,-0.42,0.073,-0.122,-0.059,-0.049
0.03,0.02,0.029,0.01,-0.024,0.005,0.02,-0.01,-0.42,0.068,-0.127,-0.059,-0.049
0.032,0.01,0.015,0.005,-0.01,0.0,0.01,-0.01,-0.434,0.054,-0.142,-0.068,-0.063
0.034,0.01,0.01,0.0,-0.01,0.005,0.005,-0.01,-0.439,0.049,-0.146,-0.078,-0.068
0.036,0.01,0.005,-0.005,-0.005,0.005,0.0,-0.01,-0.444,0.044,-0.151,-0.088,-0.073
0.038,0.01,0.0,-0.01,-0.005,0.01,-0.005,-0.01,-0.449,0.039,-0.156,-0.098,-0.078
0.04,0.02,0.0,-0.02,-0.01,0.02,-0.01,-0.02,-0.449,0.029,-0.166,-0.107,-0.083
0.042,0.02,0.0,-0.02,-0.01,0.02,-0.01,-0.02,-0.449,0.029,-0.166,-0.107,-0.088
0.044,0.02,0.0,-0.02,-0.01,0.02,-0.01,-0.02,-0.449,0.029,-0.166,-0.107,-0.093
0.046,0.02,0.0,-0.02,-0.01,0.02,-0.01,-0.02,-0.449,0.029,-0.166,-0.107,-0.098
0.048,0.005,-0.015,-0.02,0.005,0.01,-0.02,-0.029,-0.454,0.015,-0.171,-0.122,-0.107
0.05,0.0,-0.02,-0.02,0.01,0.01,-0.02,-0.029,-0.459,0.01,-0.176,-0.127,-0.107
0.052,-0.005,-0.024,-0.02,0.015,0.005,-0.024,-0.029,-0.464,0.005,-0.181,-0.132,-0.107
0.054,-0.01,-0.029,-0.02,0.02,0.005,-0.024,-0.029,-0.468,0.0,-0.185,-0.137,-0.107
0.056,-0.005,-0.029,-0.024,0.02,0.01,-0.029,-0.029,-0.459,0.0,-0.176,-0.127,-0.107
0.058,0.0,-0.029,-0.029,0.015,0.015,-0.029,-0.029,-0.459,0.0,-0.176,-0.127,-0.107
0.06,0.005,-0.029,-0.034,0.015,0.02,-0.034,-0.029,-0.459,0.0,-0.176,-0.127,-0.107
0.062,0.01,-0.029,-0.039,0.01,0.024,-0.034,-0.029,-0.459,0.0,-0.176,-0.127,-0.107
0.064,0.0,-0.029,-0.029,0.015,0.015,-0.029,-0.029,-0.459,0.0,-0.176,-0.127,-0.107
0.066,0.0,-0.029,-0.029,0.015,0.015,-0.029,-0.029,-0.459,0.0,-0.176,-0.127,-0.107
0.068,0.0,-0.029,-0.029,0.015,0.015,-0.029,-0.029,-0.459,0.0,-0.176,-0.127,-0.107
0.07,0.0,-0.029,-0.029,0.015,0.015,-0.029,-0.029,-0.459,0.0,-0.176,-0.127,-0.107
0.072,-0.01,-0.039,-0.029,0.024,0.01,-0.034,-0.02,-0.449,0.0,-0.185,-0.137,-0.107
0.074,-0.01,-0.039,-0.029,0.024,0.01,-0.034,-0.02,-0.449,0.0,-0.185,-0.137,-0.107
0.076,-0.01,-0.039,-0.029,0.024,0.01,-0.034,-0.02,-0.449,0.0,-0.185,-0.137,-0.107
0.078,-0.01,-0.039,-0.029,0.024,0.01,-0.034,-0.02,-0.449,0.0,-0.185,-0.137,-0.107
0.08,-0.005,-0.029,-0.024,0.02,0.01,-0.029,-0.02,-0.444,0.0,-0.176,-0.127,-0.107
0.082,0.0,-0.029,-0.029,0.015,0.015,-0.029,-0.02,-0.439,0.0,-0.176,-0.127,-0.107
0.084,0.005,-0.029,-0.034,0.015,0.02,-0.034,-0.02,-0.434,0.0,-0.176,-0.127,-0.107
0.086,0.01,-0.029,-0.039,0.01,0.024,-0.034,-0.02,-0.429,0.0,-0.176,-0.127,-0.107
0.088,0.0,-0.034,-0.034,0.02,0.015,-0.034,-0.029,-0.42,-0.01,-0.185,-0.137,-0.107
0.09,0.0,-0.039,-0.039,0.02,0.02,-0.039,-0.029,-0.42,-0.01,-0.185,-0.137,-0.107
0.092,0.0,-0.044,-0.044,0.024,0.02,-0.044,-0.029,-0.42,-0.01,-0.185,-0.137,-0.107
0.094,0.0,-0.049,-0.049,0.024,0.024,-0.049,-0.029,-0.42,-0.01,-0.185,-0.137,-0.107
0.096,0.01,-0.044,-0.054,0.02,0.029,-0.049,-0.02,-0.429,-0.01,-0.176,-0.127,-0.098
0.098,0.01,-0.039,-0.049,0.015,0.029,-0.044,-0.02,-0.429,-0.01,-0.176,-0.127,-0.098
0.1,0.01,-0.034,-0.044,0.015,0.024,-0.039,-0.02,-0.429,-0.01,-0.176,-0.127,-0.098
0.102,0.01,-0.029,-0.039,0.01,0.024,-0.034,-0.02,-0.429,-0.01,-0.176,-0.127,-0.098
0.104,0.0,-0.034,-0.034,0.02,0.015,-0.034,-0.01,-0.42,-0.005,-0.161,-0.127,-0.098
0.106,0.0,-0.039,-0.039,0.02,0.02,-0.039,-0.01,-0.42,0.0,-0.146,-0.127,-0.098
0.108,0.0,-0.044,-0.044,0.024,0.02,-0.044,-0.01,-0.42,0.005,-0.132,-0.127,-0.098
0.11,0.0,-0.049,-0.049,0.024,0.024,-0.049,-0.01,-0.42,0.01,-0.117,-0.127,-0.098
0.112,-0.005,-0.059,-0.054,0.034,0.024,-0.059,-0.024,-0.425,0.005,-0.093,-0.137,-0.102
0.114,-0.01,-0.059,-0.049,0.034,0.02,-0.054,-0.029,-0.429,0.0,-0.068,-0.137,-0.107
0.116,-0.015,-0.059,-0.044,0.039,0.015,-0.054,-0.034,-0.434,-0.005,-0.044,-0.137,-0.112
0.118,-0.02,-0.059,-0.039,0.039,0.01,-0.049,-0.039,-0.439,-0.01,-0.02,-0.137,-0.117
0.12,-0.005,-0.049,-0.044,0.029,0.02,-0.049,-0.024,-0.425,0.005,-0.015,-0.122,-0.102
0.122,0.0,-0.039,-0.039,0.02,0.02,-0.039,-0.02,-0.42,0.01,-0.01,-0.117,-0.098
0.124,0.005,-0.029,-0.034,0.015,0.02,-0.034,-0.015,-0.415,0.015,-0.005,-0.112,-0.093
0.126,0.01,-0.02,-0.029,0.005,0.02,-0.024,-0.01,-0.41,0.02,0.0,-0.107,-0.088
0.128,0.0,-0.034,-0.034,0.02,0.015,-0.034,-0.01,-0.42,0.02,-0.015,-0.117,-0.088
0.13,0.0,-0.039,-0.039,0.02,0.02,-0.039,-0.01,-0.42,0.02,-0.02,-0.117,-0.088
0.132,0.0,-0.044,-0.044,0.024,0.02,-0.044,-0.01,-0.42,0.02,-0.024,-0.117,-0.088
0.134,0.0,-0.049,-0.049,0.024,0.024,-0.049,-0.01,-0.42,0.02,-0.029,-0.117,-0.088
0.136,0.005,-0.039,-0.044,0.02,0.024,-0.044,-0.02,-0.41,0.029,-0.039,-0.107,-0.088
0.138,0.01,-0.029,-0.039,0.01,0.024,-0.034,-0.02,-0.41,0.029,-0.039,-0.107,-0.088
0.14,0.015,-0.02,-0.034,0.005,0.024,-0.029,-0.02,-0.41,0.029,-0.039,-0.107,-0.088
0.142,0.02,-0.01,-0.029,-0.005,0.024,-0.02,-0.02,-0.41,0.029,-0.039,-0.107,-0.088
0.144,0.01,-0.024,-0.034,0.01,0.02,-0.029,-0.02,-0.42,0.029,-0.039,-0.107,-0.078
0.146,0.0,-0.029,-0.029,0.015,0.015,-0.029,-0.02,-0.42,0.029,-0.039,-0.107,-0.078
0.148,-0.01,-0.034,-0.024,0.024,0.005,-0.029,-0.02,-0.42,0.029,-0.039,-0.107,-0.078
0.15,-0.02,-0.039,-0.02,0.029,0.0,-0.029,-0.02,-0.42,0.029,-0.039,-0.107,-0.078
0.152,-0.005,-0.024,-0.02,0.015,0.005,-0.024,-0.02,-0.41,0.029,-0.049,-0.107,-0.068
0.154,0.0,-0.02,-0.02,0.01,0.01,-0.02,-0.02,-0.41,0.029,-0.049,-0.107,-0.068
0.156,0.005,-0.015,-0.02,0.005,0.01,-0.02,-0.02,-0.41,0.029,-0.049,-0.107,-0.068
0.158,0.01,-0.01,-0.02,0.0,0.015,-0.015,-0.02,-0.41,0.029,-0.049,-0.107,-0.068
0.16,0.02,-0.015,-0.034,0.0,0.024,-0.024,-0.02,-0.4,0.02,-0.039,-0.098,-0.078
0.162,0.02,-0.02,-0.039,0.0,0.029,-0.029,-0.02,-0.4,0.02,-0.039,-0.098,-0.078
0.164,0.02,-0.024,-0.044,0.005,0.029,-0.034,-0.02,-0.4,0.02,-0.039,-0.098,-0.078
0.166,0.02,-0.029,-0.049,0.005,0.034,-0.039,-0.02,-0.4,0.02,-0.039,-0.098,-0.078
0.168,0.015,-0.029,-0.044,0.01,0.029,-0.039,-0.029,-0.4,0.029,-0.039,-0.098,-0.078
0.17,0.01,-0.029,-0.039,0.01,0.024,-0.034,-0.029,-0.4,0.029,-0.039,-0.098,-0.078
0.172,0.005,-0.029,-0.034,0.015,0.02,-0.034,-0.029,-0.4,0.029,-0.039,-0.098,-0.078
0.174,0.0,-0.029,-0.029,0.015,0.015,-0.029,-0.029,-0.4,0.029,-0.039,-0.098,-0.078
0.176,-0.005,-0.039,-0.034,0.024,0.015,-0.039,-0.039,-0.405,0.024,-0.044,-0.098,-0.078
0.178,-0.01,-0.039,-0.029,0.024,0.01,-0.034,-0.039,-0.41,0.02,-0.049,-0.098,-0.078
0.18,-0.015,-0.039,-0.024,0.029,0.005,-0.034,-0.039,-0.415,0.015,-0.054,-0.098,-0.078
0.182,-0.02,-0.039,-0.02,0.029,0.0,-0.029,-0.039,-0.42,0.01,-0.059,-0.098,-0.078
0.184,0.0,-0.02,-0.02,0.01,0.01,-0.02,-0.034,-0.41,0.015,-0.054,-0.098,-0.068
0.186,0.01,-0.01,-0.02,0.0,0.015,-0.015,-0.029,-0.41,0.02,-0.049,-0.098,-0.068
0.188,0.02,0.0,-0.02,-0.01,0.02,-0.01,-0.024,-0.41,0.024,-0.044,-0.098,-0.068
0.19,0.029,0.01,-0.02,-0.02,0.024,-0.005,-0.02,-0.41,0.029,-0.039,-0.098,-0.068
0.192,0.024,0.0,-0.024,-0.01,0.024,-0.015,-0.024,-0.415,0.024,-0.054,-0.107,-0.078
0.194,0.02,-0.01,-0.029,-0.005,0.024,-0.02,-0.029,-0.42,0.02,-0.059,-0.107,-0.078
0.196,0.015,-0.02,-0.034,0.005,0.024,-0.029,-0.034,-0.425,0.015,-0.063,-0.107,-0.078
0.198,0.01,-0.029,-0.039,0.01,0.024,-0.034,-0.039,-0.429,0.01,-0.068,-0.107,-0.078
0.2,0.0,-0.039,-0.039,0.02,0.02,-0.039,-0.039,-0.429,0.01,-0.068,-0.098,-0.068
0.202,0.0,-0.039,-0.039,0.02,0.02,-0.039,-0.039,-0.429,0.01,-0.068,-0.098,-0.068
0.204,0.0,-0.039,-0.039,0.02,0.02,-0.039,-0.039,-0.429,0.01,-0.068,-0.098,-0.068
0.206,0.0,-0.039,-0.039,0.02,0.02,-0.039,-0.039,-0.429,0.01,-0.068,-0.098,-0.068
0.208,0.005,-0.034,-0.039,0.015,0.02,-0.039,-0.029,-0.42,0.01,-0.068,-0.098,-0.068
0.21,0.01,-0.029,-0.039,0.01,0.024,-0.034,-0.029,-0.42,0.01,-0.068,-0.098,-0.068
0.212,0.015,-0.024,-0.039,0.005,0.024,-0.034,-0.029,-0.42,0.01,-0.068,-0.098,-0.068
0.214,0.02,-0.02,-0.039,0.0,0.029,-0.029,-0.029,-0.42,0.01,-0.068,-0.098,-0.068
0.216,0.029,-0.01,-0.039,-0.01,0.034,-0.024,-0.039,-0.42,0.0,-0.078,-0.107,-0.078
0.218,0.029,-0.01,-0.039,-0.01,0.034,-0.024,-0.039,-0.42,0.0,-0.078,-0.107,-0.078
0.22,0.029,-0.01,-0.039,-0.01,0.034,-0.024,-0.039,-0.42,0.0,-0.078,-0.107,-0.078
0.222,0.029,-0.01,-0.039,-0.01,0.034,-0.024,-0.039,-0.42,0.0,-0.078,-0.107,-0.078
0.224,0.02,-0.024,-0.044,0.005,0.029,-0.034,-0.039,-0.429,-0.01,-0.068,-0.107,-0.068
0.226,0.01,-0.029,-0.039,0.01,0.024,-0.034,-0.039,-0.429,-0.01,-0.068,-0.107,-0.068
0.228,0.0,-0.034,-0.034,0.02,0.015,-0.034,-0.039,-0.429,-0.01,-0.068,-0.107,-0.068
0.23,-0.01,-0.039,-0.029,0.024,0.01,-0.034,-0.039,-0.429,-0.01,-0.068,-0.107,-0.068
0.232,-0.005,-0.029,-0.024,0.02,0.01,-0.029,-0.039,-0.42,-0.01,-0.078,-0.107,-0.078
0.234,0.0,-0.029,-0.029,0.015,0.015,-0.029,-0.039,-0.42,-0.01,-0.078,-0.107,-0.078
0.236,0.005,-0.029,-0.034,0.015,0.02,-0.034,-0.039,-0.42,-0.01,-0.078,-0.107,-0.078
0.238,0.01,-0.029,-0.039,0.01,0.024,-0.034,-0.039,-0.42,-0.01,-0.078,-0.107,-0.078
0.24,0.01,-0.029,-0.039,0.01,0.024,-0.034,-0.039,-0.42,-0.02,-0.088,-0.117,-0.083
0.242,0.01,-0.029,-0.039,0.01,0.024,-0.034,-0.039,-0.42,-0.02,-0.088,-0.117,-0.088
0.244,0.01,-0.029,-0.039,0.01,0.024,-0.034,-0.039,-0.42,-0.02,-0.088,-0.117,-0.093
0.246,0.01,-0.029,-0.039,0.01,0.024,-0.034,-0.039,-0.42,-0.02,-0.088,-0.117,-0.098
0.248,0.0,-0.034,-0.034,0.02,0.015,-0.034,-0.039,-0.42,-0.02,-0.088,-0.117,-0.088
0.25,0.0,-0.039,-0.039,0.02,0.02,-0.039,-0.039,-0.42,-0.02,-0.088,-0.117,-0.088
0.252,0.0,-0.044,-0.044,0.024,0.02,-0.044,-0.039,-0.42,-0.02,-0.088,-0.117,-0.088
0.254,0.0,-0.049,-0.049,0.024,0.024,-0.049,-0.039,-0.42,-0.02,-0.088,-0.117,-0.088
0.256,0.015,-0.039,-0.054,0.015,0.034,-0.049,-0.039,-0.429,-0.02,-0.088,-0.117,-0.078
0.258,0.02,-0.029,-0.049,0.005,0.034,-0.039,-0.039,-0.429,-0.02,-0.088,-0.117,-0.078
0.26,0.024,-0.02,-0.044,0.0,0.034,-0.034,-0.039,-0.429,-0.02,-0.088,-0.117,-0.078
0.262,0.029,-0.01,-0.039,-0.01,0.034,-0.024,-0.039,-0.429,-0.02,-0.088,-0.117,-0.078
0.264,0.02,-0.02,-0.039,0.0,0.029,-0.029,-0.039,-0.429,-0.029,-0.088,-0.117,-0.088
0.266,0.02,-0.029,-0.049,0.005,0.034,-0.039,-0.039,-0.429,-0.029,-0.088,-0.117,-0.088
0.268,0.02,-0.039,-0.059,0.01,0.039,-0.049,-0.039,-0.429,-0.029,-0.088,-0.117,-0.088
0.27,0.02,-0.049,-0.068,0.015,0.044,-0.059,-0.039,-0.429,-0.029,-0.088,-0.117,-0.088
0.272,0.015,-0.059,-0.073,0.024,0.044,-0.068,-0.049,-0.439,-0.039,-0.093,-0.117,-0.098
0.274,0.01,-0.059,-0.068,0.024,0.039,-0.063,-0.049,-0.439,-0.039,-0.098,-0.117,-0.098
0.276,0.005,-0.059,-0.063,0.029,0.034,-0.063,-0.049,-0.439,-0.039,-0.102,-0.117,-0.098
0.278,0.0,-0.059,-0.059,0.029,0.029,-0.059,-0.049,-0.439,-0.039,-0.107,-0.117,-0.098
0.28,-0.005,-0.068,-0.063,0.039,0.029,-0.068,-0.049,-0.439,-0.039,-0.098,-0.112,-0.088
0.282,-0.01,-0.068,-0.059,0.039,0.024,-0.063,-0.049,-0.439,-0.039,-0.098,-0.107,-0.088
0.284,-0.015,-0.068,-0.054,0.044,0.02,-0.063,-0.049,-0.439,-0.039,-0.098,-0.102,-0.088
0.286,-0.02,-0.068,-0.049,0.044,0.015,-0.059,-0.049,-0.439,-0.039,-0.098,-0.098,-0.088
0.288,-0.01,-0.059,-0.049,0.034,0.02,-0.054,-0.044,-0.429,-0.029,-0.088,-0.088,-0.088
0.29,0.0,-0.049,-0.049,0.024,0.024,-0.049,-0.039,-0.429,-0.029,-0.088,-0.088,-0.088
0.292,0.01,-0.039,-0.049,0.015,0.029,-0.044,-0.034,-0.429,-0.029,-0.088,-0.088,-0.088
0.294,0.02,-0.029,-0.049,0.005,0.034,-0.039,-0.029,-0.429,-0.029,-0.088,-0.088,-0.088
0.296,0.01,-0.034,-0.044,0.015,0.024,-0.039,-0.034,-0.439,-0.034,-0.093,-0.098,-0.088
0.298,0.01,-0.039,-0.049,0.015,0.029,-0.044,-0.039,-0.439,-0.039,-0.098,-0.098,-0.088
0.3,0.01,-0.044,-0.054,0.02,0.029,-0.049,-0.044,-0.439,-0.044,-0.102,-0.098,-0.088
0.302,0.01,-0.049,-0.059,0.02,0.034,-0.054,-0.049,-0.439,-0.049,-0.107,-0.098,-0.088
0.304,0.015,-0.044,-0.059,0.015,0.034,-0.054,-0.039,-0.439,-0.039,-0.102,-0.088,-0.078
0.306,0.02,-0.039,-0.059,0.01,0.039,-0.049,-0.039,-0.439,-0.039,-0.098,-0.088,-0.078
0.308,0.024,-0.034,-0.059,0.005,0.039,-0.049,-0.039,-0.439,-0.039,-0.093,-0.088,-0.078
0.31,0.029,-0.029,-0.059,0.0,0.044,-0.044,-0.039,-0.439,-0.039,-0.088,-0.088,-0.078
0.312,0.02,-0.034,-0.054,0.01,0.034,-0.044,-0.029,-0.429,-0.029,-0.088,-0.078,-0.068
0.314,0.02,-0.039,-0.059,0.01,0.039,-0.049,-0.029,-0.429,-0.029,-0.088,-0.078,-0.068
0.316,0.02,-0.044,-0.063,0.015,0.039,-0.054,-0.029,-0.429,-0.029,-0.088,-0.078,-0.068
0.318,0.02,-0.049,-0.068,0.015,0.044,-0.059,-0.029,-0.429,-0.029,-0.088,-0.078,-0.068
0.32,0.015,-0.059,-0.073,0.024,0.044,-0.068,-0.044,-0.434,-0.034,-0.098,-0.083,-0.073
0.322,0.01,-0.059,-0.068,0.024,0.039,-0.063,-0.049,-0.439,-0.039,-0.098,-0.088,-0.078
0.324,0.005,-0.059,-0.063,0.029,0.034,-0.063,-0.054,-0.444,-0.044,-0.098,-0.093,-0.083
0.326,0.0,-0.059,-0.059,0.029,0.029,-0.059,-0.059,-0.449,-0.049,-0.098,-0.098,-0.088
0.328,0.01,-0.049,-0.059,0.02,0.034,-0.054,-0.054,-0.444,-0.044,-0.098,-0.093,-0.078
0.33,0.01,-0.049,-0.059,0.02,0.034,-0.054,-0.049,-0.439,-0.039,-0.098,-0.088,-0.078
0.332,0.01,-0.049,-0.059,0.02,0.034,-0.054,-0.044,-0.434,-0.034,-0.098,-0.083,-0.078
0.334,0.01,-0.049,-0.059,0.02,0.034,-0.054,-0.039,-0.429,-0.029,-0.098,-0.078,-0.078
0.336,0.02,-0.039,-0.059,0.01,0.039,-0.049,-0.039,-0.42,-0.029,-0.098,-0.088,-0.068
0.338,0.02,-0.039,-0.059,0.01,0.039,-0.049,-0.039,-0.42,-0.029,-0.098,-0.088,-0.068
0.34,0.02,-0.039,-0.059,0.01,0.039,-0.049,-0.039,-0.42,-0.029,-0.098,-0.088,-0.068
0.342,0.02,-0.039,-0.059,0.01,0.039,-0.049,-0.039,-0.42,-0.029,-0.098,-0.088,-0.068
0.344,0.005,-0.044,-0.049,0.02,0.024,-0.049,-0.049,-0.42,-0.039,-0.098,-0.088,-0.068
0.346,0.0,-0.049,-0.049,0.024,0.024,-0.049,-0.049,-0.42,-0.039,-0.098,-0.088,-0.068
0.348,-0.005,-0.054,-0.049,0.029,0.02,-0.054,-0.049,-0.42,-0.039,-0.098,-0.088,-0.068
0.35,-0.01,-0.059,-0.049,0.034,0.02,-0.054,-0.049,-0.42,-0.039,-0.098,-0.088,-0.068
0.352,-0.01,-0.068,-0.059,0.039,0.024,-0.063,-0.039,-0.42,-0.029,-0.098,-0.088,-0.078
0.354,-0.01,-0.068,-0.059,0.039,0.024,-0.063,-0.039,-0.42,-0.029,-0.098,-0.088,-0.078
0.356,-0.01,-0.068,-0.059,0.039,0.024,-0.063,-0.039,-0.42,-0.029,-0.098,-0.088,-0.078
0.358,-0.01,-0.068,-0.059,0.039,0.024,-0.063,-0.039,-0.42,-0.029,-0.098,-0.088,-0.078
0.36,0.005,-0.063,-0.068,0.029,0.034,-0.068,-0.039,-0.41,-0.039,-0.098,-0.078,-0.068
0.362,0.01,-0.059,-0.068,0.024,0.039,-0.063,-0.039,-0.41,-0.039,-0.098,-0.078,-0.068
0.364,0.015,-0.054,-0.068,0.02,0.039,-0.063,-0.039,-0.41,-0.039,-0.098,-0.078,-0.068
0.366,0.02,-0.049,-0.068,0.015,0.044,-0.059,-0.039,-0.41,-0.039,-0.098,-0.078,-0.068
0.368,0.015,-0.054,-0.068,0.02,0.039,-0.063,-0.029,-0.4,-0.034,-0.098,-0.078,-0.068
0.37,0.01,-0.059,-0.068,0.024,0.039,-0.063,-0.029,-0.4,-0.029,-0.098,-0.078,-0.068
0.372,0.005,-0.063,-0.068,0.029,0.034,-0.068,-0.029,-0.4,-0.024,-0.098,-0.078,-0.068
0.374,0.0,-0.068,-0.068,0.034,0.034,-0.068,-0.029,-0.4,-0.02,-0.098,-0.078,-0.068
0.376,0.005,-0.063,-0.068,0.029,0.034,-0.068,-0.029,-0.4,-0.029,-0.098,-0.088,-0.068
0.378,0.01,-0.059,-0.068,0.024,0.039,-0.063,-0.029,-0.4,-0.029,-0.098,-0.088,-0.068
0.38,0.015,-0.054,-0.068,0.02,0.039,-0.063,-0.029,-0.4,-0.029,-0.098,-0.088,-0.068
0.382,0.02,-0.049,-0.068,0.015,0.044,-0.059,-0.029,-0.4,-0.029,-0.098,-0.088,-0.068
0.384,0.01,-0.063,-0.073,0.029,0.039,-0.068,-0.039,-0.4,-0.039,-0.107,-0.078,-0.068
0.386,0.0,-0.068,-0.068,0.034,0.034,-0.068,-0.039,-0.4,-0.039,-0.107,-0.078,-0.068
0.388,-0.01,-0.073,-0.063,0.044,0.024,-0.068,-0.039,-0.4,-0.039,-0.107,-0.078,-0.068
0.39,-0.02,-0.078,-0.059,0.049,0.02,-0.068,-0.039,-0.4,-0.039,-0.107,-0.078,-0.068
0.392,-0.01,-0.063,-0.054,0.039,0.02,-0.059,-0.034,-0.395,-0.029,-0.098,-0.078,-0.059
0.394,0.0,-0.059,-0.059,0.029,0.029,-0.059,-0.029,-0.39,-0.029,-0.098,-0.078,-0.059
0.396,0.01,-0.054,-0.063,0.024,0.034,-0.059,-0.024,-0.386,-0.029,-0.098,-0.078,-0.059
0.398,0.02,-0.049,-0.068,0.015,0.044,-0.059,-0.02,-0.381,-0.029,-0.098,-0.078,-0.059
0.4,0.024,-0.044,-0.068,0.01,0.044,-0.059,-0.029,-0.381,-0.034,-0.107,-0.078,-0.068
0.402,0.029,-0.039,-0.068,0.005,0.049,-0.054,-0.029,-0.381,-0.039,-0.107,-0.078,-0.068
0.404,0.034,-0.034,-0.068,0.0,0.049,-0.054,-0.029,-0.381,-0.044,-0.107,-0.078,-0.068
0.406,0.039,-0.029,-0.068,-0.005,0.054,-0.049,-0.029,-0.381,-0.049,-0.107,-0.078,-0.068
0.408,0.029,-0.044,-0.073,0.01,0.049,-0.059,-0.02,-0.371,-0.039,-0.098,-0.078,-0.059
0.41,0.02,-0.049,-0.068,0.015,0.044,-0.059,-0.02,-0.371,-0.039,-0.098,-0.078,-0.059
0.412,0.01,-0.054,-0.063,0.024,0.034,-0.059,-0.02,-0.371,-0.039,-0.098,-0.078,-0.059
0.414,0.0,-0.059,-0.059,0.029,0.029,-0.059,-0.02,-0.371,-0.039,-0.098,-0.078,-0.059
0.416,-0.005,-0.068,-0.063,0.039,0.029,-0.068,-0.029,-0.376,-0.049,-0.102,-0.088,-0.068
0.418,-0.01,-0.068,-0.059,0.039,0.024,-0.063,-0.029,-0.381,-0.049,-0.107,-0.088,-0.068
0.42,-0.015,-0.068,-0.054,0.044,0.02,-0.063,-0.029,-0.386,-0.049,-0.112,-0.088,-0.068
0.422,-0.02,-0.068,-0.049,0.044,0.015,-0.059,-0.029,-0.39,-0.049,-0.117,-0.088,-0.068
0.424,-0.015,-0.059,-0.044,0.039,0.015,-0.054,-0.029,-0.381,-0.039,-0.112,-0.083,-0.063
0.426,-0.01,-0.059,-0.049,0.034,0.02,-0.054,-0.029,-0.381,-0.039,-0.107,-0.078,-0.059
0.428,-0.005,-0.059,-0.054,0.034,0.024,-0.059,-0.029,-0.381,-0.039,-0.102,-0.073,-0.054
0.43,0.0,-0.059,-0.059,0.029,0.029,-0.059,-0.029,-0.381,-0.039,-0.098,-0.068,-0.049
0.432,0.005,-0.044,-0.049,0.02,0.024,-0.049,-0.024,-0.381,-0.039,-0.098,-0.078,-0.049
0.434,0.01,-0.039,-0.049,0.015,0.029,-0.044,-0.02,-0.381,-0.039,-0.098,-0.078,-0.049
0.436,0.015,-0.034,-0.049,0.01,0.029,-0.044,-0.015,-0.381,-0.039,-0.098,-0.078,-0.049
0.438,0.02,-0.029,-0.049,0.005,0.034,-0.039,-0.01,-0.381,-0.039,-0.098,-0.078,-0.049
0.44,0.02,-0.044,-0.063,0.015,0.039,-0.054,-0.015,-0.381,-0.049,-0.102,-0.088,-0.054
0.442,0.02,-0.049,-0.068,0.015,0.044,-0.059,-0.02,-0.381,-0.049,-0.107,-0.088,-0.059
0.444,0.02,-0.054,-0.073,0.02,0.044,-0.063,-0.024,-0.381,-0.049,-0.112,-0.088,-0.063
0.446,0.02,-0.059,-0.078,0.02,0.049,-0.068,-0.029,-0.381,-0.049,-0.117,-0.088,-0.068
0.448,0.02,-0.054,-0.073,0.02,0.044,-0.063,-0.024,-0.371,-0.039,-0.112,-0.083,-0.063
0.45,0.02,-0.049,-0.068,0.015,0.044,-0.059,-0.02,-0.371,-0.039,-0.107,-0.078,-0.059
0.452,0.02,-0.044,-0.063,0.015,0.039,-0.054,-0.015,-0.371,-0.039,-0.102,-0.073,-0.054
0.454,0.02,-0.039,-0.059,0.01,0.039,-0.049,-0.01,-0.371,-0.039,-0.098,-0.068,-0.049
0.456,0.015,-0.044,-0.059,0.015,0.034,-0.054,-0.02,-0.371,-0.039,-0.098,-0.068,-0.049
0.458,0.01,-0.049,-0.059,0.02,0.034,-0.054,-0.02,-0.371,-0.039,-0.098,-0.068,-0.049
0.46,0.005,-0.054,-0.059,0.024,0.029,-0.059,-0.02,-0.371,-0.039,-0.098,-0.068,-0.049
0.462,0.0,-0.059,-0.059,0.029,0.029,-0.059,-0.02,-0.371,-0.039,-0.098,-0.068,-0.049
0.464,-0.01,-0.068,-0.059,0.039,0.024,-0.063,-0.029,-0.381,-0.044,-0.107,-0.073,-0.054
0.466,-0.01,-0.068,-0.059,0.039,0.024,-0.063,-0.029,-0.381,-0.049,-0.107,-0.078,-0.059
0.468,-0.01,-0.068,-0.059,0.039,0.024,-0.063,-0.029,-0.381,-0.054,-0.107,-0.083,-0.063
0.47,-0.01,-0.068,-0.059,0.039,0.024,-0.063,-0.029,-0.381,-0.059,-0.107,-0.088,-0.068
0.472,0.0,-0.054,-0.054,0.029,0.024,-0.054,-0.02,-0.371,-0.049,-0.098,-0.083,-0.063
0.474,0.01,-0.049,-0.059,0.02,0.034,-0.054,-0.02,-0.371,-0.049,-0.098,-0.078,-0.059
0.476,0.02,-0.044,-0.063,0.015,0.039,-0.054,-0.02,-0.371,-0.049,-0.098,-0.073,-0.054
0.478,0.029,-0.039,-0.068,0.005,0.049,-0.054,-0.02,-0.371,-0.049,-0.098,-0.068,-0.049
0.48,0.015,-0.044,-0.059,0.015,0.034,-0.054,-0.029,-0.371,-0.059,-0.107,-0.073,-0.059
0.482,0.01,-0.049,-0.059,0.02,0.034,-0.054,-0.029,-0.371,-0.059,-0.107,-0.078,-0.059
0.484,0.005,-0.054,-0.059,0.024,0.029,-0.059,-0.029,-0.371,-0.059,-0.107,-0.083,-0.059
0.486,0.0,-0.059,-0.059,0.029,0.029,-0.059,-0.029,-0.371,-0.059,-0.107,-0.088,-0.059
0.488,0.015,-0.049,-0.063,0.02,0.039,-0.059,-0.02,-0.371,-0.049,-0.098,-0.078,-0.049
0.49,0.02,-0.049,-0.068,0.015,0.044,-0.059,-0.02,-0.371,-0.049,-0.098,-0.078,-0.049
0.492,0.024,-0.049,-0.073,0.015,0.049,-0.063,-0.02,-0.371,-0.049,-0.098,-0.078,-0.049
0.494,0.029,-0.049,-0.078,0.01,0.054,-0.063,-0.02,-0.371,-0.049,-0.098,-0.078,-0.049
0.496,0.01,-0.054,-0.063,0.024,0.034,-0.059,-0.029,-0.381,-0.049,-0.098,-0.078,-0.059
0.498,0.0,-0.059,-0.059,0.029,0.029,-0.059,-0.029,-0.381,-0.049,-0.098,-0.078,-0.059
0.5,-0.01,-0.063,-0.054,0.039,0.02,-0.059,-0.029,-0.381,-0.049,-0.098,-0.078,-0.059
0.502,-0.02,-0.068,-0.049,0.044,0.015,-0.059,-0.029,-0.381,-0.049,-0.098,-0.078,-0.059
0.504,-0.005,-0.063,-0.059,0.034,0.024,-0.063,-0.02,-0.381,-0.049,-0.088,-0.078,-0.049
0.506,0.0,-0.059,-0.059,0.029,0.029,-0.059,-0.02,-0.381,-0.049,-0.088,-0.078,-0.049
0.508,0.005,-0.054,-0.059,0.024,0.029,-0.059,-0.02,-0.381,-0.049,-0.088,-0.078,-0.049
0.51,0.01,-0.049,-0.059,0.02,0.034,-0.054,-0.02,-0.381,-0.049,-0.088,-0.078,-0.049
0.512,0.0,-0.049,-0.049,0.024,0.024,-0.049,-0.01,-0.371,-0.049,-0.083,-0.068,-0.039
0.514,0.0,-0.049,-0.049,0.024,0.024,-0.049,-0.01,-0.371,-0.049,-0.078,-0.068,-0.039
0.516,0.0,-0.049,-0.049,0.024,0.024,-0.049,-0.01,-0.371,-0.049,-0.073,-0.068,-0.039
0.518,0.0,-0.049,-0.049,0.024,0.024,-0.049,-0.01,-0.371,-0.049,-0.068,-0.068,-0.039
0.52,0.01,-0.049,-0.059,0.02,0.034,-0.054,-0.02,-0.381,-0.059,-0.078,-0.068,-0.049
0.522,0.01,-0.049,-0.059,0.02,0.034,-0.054,-0.02,-0.381,-0.059,-0.078,-0.068,-0.049
0.524,0.01,-0.049,-0.059,0.02,0.034,-0.054,-0.02,-0.381,-0.059,-0.078,-0.068,-0.049
0.526,0.01,-0.049,-0.059,0.02,0.034,-0.054,-0.02,-0.381,-0.059,-0.078,-0.068,-0.049
0.528,0.0,-0.054,-0.054,0.029,0.024,-0.054,-0.02,-0.381,-0.068,-0.078,-0.078,-0.039
0.53,0.0,-0.059,-0.059,0.029,0.029,-0.059,-0.02,-0.381,-0.068,-0.078,-0.078,-0.039
0.532,0.0,-0.063,-0.063,0.034,0.029,-0.063,-0.02,-0.381,-0.068,-0.078,-0.078,-0.039
0.534,0.0,-0.068,-0.068,0.034,0.034,-0.068,-0.02,-0.381,-0.068,-0.078,-0.078,-0.039
0.536,0.005,-0.054,-0.059,0.024,0.029,-0.059,-0.01,-0.376,-0.063,-0.063,-0.063,-0.039
0.538,0.01,-0.049,-0.059,0.02,0.034,-0.054,-0.01,-0.371,-0.059,-0.059,-0.059,-0.039
0.54,0.015,-0.044,-0.059,0.015,0.034,-0.054,-0.01,-0.366,-0.054,-0.054,-0.054,-0.039
0.542,0.02,-0.039,-0.059,0.01,0.039,-0.049,-0.01,-0.361,-0.049,-0.049,-0.049,-0.039
0.544,0.015,-0.049,-0.063,0.02,0.039,-0.059,-0.02,-0.366,-0.059,-0.063,-0.059,-0.049
0.546,0.01,-0.049,-0.059,0.02,0.034,-0.054,-0.02,-0.371,-0.059,-0.068,-0.068,-0.049
0.548,0.005,-0.049,-0.054,0.024,0.029,-0.054,-0.02,-0.376,-0.059,-0.073,-0.078,-0.049
0.55,0.0,-0.049,-0.049,0.024,0.024,-0.049,-0.02,-0.381,-0.059,-0.078,-0.088,-0.049
0.552,-0.005,-0.054,-0.049,0.029,0.02,-0.054,-0.02,-0.371,-0.059,-0.068,-0.083,-0.039
0.554,-0.01,-0.059,-0.049,0.034,0.02,-0.054,-0.02,-0.371,-0.059,-0.068,-0.078,-0.039
0.556,-0.015,-0.063,-0.049,0.039,0.015,-0.059,-0.02,-0.371,-0.059,-0.068,-0.073,-0.039
0.558,-0.02,-0.068,-0.049,0.044,0.015,-0.059,-0.02,-0.371,-0.059,-0.068,-0.068,-0.039
0.56,-0.015,-0.054,-0.039,0.034,0.01,-0.049,-0.01,-0.381,-0.068,-0.078,-0.078,-0.049
0.562,-0.01,-0.049,-0.039,0.029,0.015,-0.044,-0.01,-0.381,-0.068,-0.078,-0.078,-0.049
0.564,-0.005,-0.044,-0.039,0.024,0.015,-0.044,-0.01,-0.381,-0.068,-0.078,-0.078,-0.049
0.566,0.0,-0.039,-0.039,0.02,0.02,-0.039,-0.01,-0.381,-0.068,-0.078,-0.078,-0.049
0.568,-0.005,-0.044,-0.039,0.024,0.015,-0.044,-0.01,-0.371,-0.059,-0.078,-0.078,-0.049
0.57,-0.01,-0.049,-0.039,0.029,0.015,-0.044,-0.01,-0.371,-0.059,-0.078,-0.078,-0.049
0.572,-0.015,-0.054,-0.039,0.034,0.01,-0.049,-0.01,-0.371,-0.059,-0.078,-0.078,-0.049
0.574,-0.02,-0.059,-0.039,0.039,0.01,-0.049,-0.01,-0.371,-0.059,-0.078,-0.078,-0.049
0.576,0.0,-0.044,-0.044,0.024,0.02,-0.044,0.0,-0.361,-0.049,-0.068,-0.073,-0.044
0.578,0.01,-0.039,-0.049,0.015,0.029,-0.044,0.0,-0.361,-0.049,-0.068,-0.068,-0.039
0.58,0.02,-0.034,-0.054,0.01,0.034,-0.044,0.0,-0.361,-0.049,-0.068,-0.063,-0.034
0.582,0.029,-0.029,-0.059,0.0,0.044,-0.044,0.0,-0.361,-0.049,-0.068,-0.059,-0.029
0.584,0.024,-0.039,-0.063,0.01,0.044,-0.054,-0.01,-0.371,-0.049,-0.068,-0.059,-0.029
0.586,0.02,-0.039,-0.059,0.01,0.039,-0.049,-0.01,-0.371,-0.049,-0.068,-0.059,-0.029
0.588,0.015,-0.039,-0.054,0.015,0.034,-0.049,-0.01,-0.371,-0.049,-0.068,-0.059,-0.029
0.59,0.01,-0.039,-0.049,0.015,0.029,-0.044,-0.01,-0.371,-0.049,-0.068,-0.059,-0.029
0.592,-0.015,-0.054,-0.039,0.034,0.01,-0.049,-0.02,-0.381,-0.054,-0.083,-0.063,-0.044
0.594,-0.029,-0.068,-0.039,0.049,0.005,-0.054,-0.02,-0.381,-0.059,-0.088,-0.068,-0.049
0.596,-0.044,-0.083,-0.039,0.063,-0.005,-0.063,-0.02,-0.381,-0.063,-0.093,-0.073,-0.054
0.598,-0.059,-0.098,-0.039,0.078,-0.01,-0.068,-0.02,-0.381,-0.068,-0.098,-0.078,-0.059
0.6,-0.034,-0.073,-0.039,0.054,0.0,-0.059,-0.01,-0.381,-0.063,-0.093,-0.068,-0.049
0.602,-0.015,-0.054,-0.039,0.034,0.01,-0.049,0.0,-0.371,-0.059,-0.088,-0.054,-0.034
0.604,0.015,-0.029,-0.044,0.01,0.029,-0.039,0.005,-0.371,-0.054,-0.073,-0.054,-0.029
0.606,0.029,-0.02,-0.049,-0.005,0.039,-0.034,0.01,-0.371,-0.054,-0.063,-0.054,-0.029
0.608,0.01,-0.01,-0.02,0.0,0.015,-0.015,0.01,-0.361,-0.049,-0.054,-0.039,-0.02
0.61,0.0,-0.01,-0.01,0.005,0.005,-0.01,0.01,-0.356,-0.039,-0.054,-0.039,-0.01
0.612,0.015,0.0,-0.015,-0.005,0.015,-0.01,0.02,-0.351,-0.024,-0.054,-0.029,-0.01
0.614,0.029,0.01,-0.02,-0.02,0.024,-0.005,0.024,-0.337,-0.01,-0.034,-0.024,0.0
0.616,0.039,0.029,-0.01,-0.034,0.024,0.01,0.034,-0.337,-0.02,-0.034,-0.02,-0.01
0.618,0.049,0.044,-0.005,-0.044,0.024,0.02,0.034,-0.337,-0.02,-0.034,-0.02,-0.01
0.62,0.049,0.054,0.005,-0.049,0.02,0.029,0.034,-0.332,-0.015,-0.034,-0.015,-0.005
0.622,0.044,0.039,-0.005,-0.039,0.024,0.015,0.034,-0.332,-0.015,-0.034,-0.015,-0.005
0.624,0.02,0.024,0.005,-0.02,0.005,0.015,0.034,-0.346,-0.02,-0.039,-0.029,0.0
0.626,0.015,0.02,0.005,-0.015,0.005,0.01,0.034,-0.346,-0.02,-0.044,-0.029,0.0
0.628,0.015,0.02,0.005,-0.015,0.005,0.01,0.039,-0.332,-0.01,-0.039,-0.02,0.005
0.63,0.01,0.015,0.005,-0.01,0.0,0.01,0.044,-0.332,-0.005,-0.039,-0.015,0.015
0.632,0.02,0.005,-0.015,-0.01,0.015,-0.005,0.054,-0.322,-0.005,-0.029,-0.005,0.015
0.634,0.029,0.01,-0.02,-0.02,0.024,-0.005,0.054,-0.312,0.005,-0.024,0.005,0.02
0.636,0.029,0.02,-0.01,-0.024,0.02,0.005,0.054,-0.307,0.01,-0.015,0.01,0.024
0.638,0.029,0.02,-0.01,-0.024,0.02,0.005,0.054,-0.307,0.015,-0.015,0.01,0.029
0.64,0.039,0.029,-0.01,-0.034,0.024,0.01,0.049,-0.307,0.015,-0.015,0.01,0.02
0.642,0.044,0.029,-0.015,-0.034,0.029,0.005,0.039,-0.307,0.015,-0.01,0.01,0.024
0.644,0.044,0.034,-0.01,-0.039,0.024,0.01,0.034,-0.307,0.015,-0.01,0.015,0.029
0.646,0.034,0.034,0.0,-0.034,0.015,0.015,0.024,-0.317,0.01,-0.005,0.015,0.034
0.648,0.039,0.044,0.005,-0.039,0.015,0.024,0.01,-0.332,0.005,-0.015,0.005,0.034
0.65,0.039,0.054,0.015,-0.044,0.01,0.034,0.0,-0.342,0.0,-0.024,0.0,0.024
0.652,0.034,0.054,0.02,-0.044,0.005,0.034,-0.02,-0.356,-0.02,-0.044,-0.01,0.015
0.654,0.024,0.034,0.01,-0.029,0.005,0.02,-0.039,-0.371,-0.034,-0.063,-0.02,0.005
0.656,0.015,0.044,0.029,-0.029,-0.01,0.034,-0.029,-0.371,-0.039,-0.054,-0.02,0.005
0.658,0.029,0.044,0.015,-0.034,0.005,0.029,-0.039,-0.376,-0.049,-0.063,-0.024,-0.005
0.66,0.029,0.039,0.01,-0.034,0.01,0.024,-0.039,-0.376,-0.059,-0.073,-0.034,-0.015
0.662,0.029,0.034,0.005,-0.029,0.01,0.02,-0.034,-0.376,-0.049,-0.063,-0.034,-0.005
0.664,0.02,0.02,0.0,-0.02,0.01,0.01,-0.02,-0.386,-0.059,-0.068,-0.029,0.005
0.666,0.02,0.01,-0.01,-0.015,0.015,0.0,-0.015,-0.386,-0.059,-0.068,-0.029,0.01
0.668,0.024,0.005,-0.02,-0.015,0.02,-0.01,-0.015,-0.381,-0.059,-0.068,-0.024,0.015
0.67,0.034,0.01,-0.024,-0.02,0.029,-0.01,-0.015,-0.381,-0.059,-0.068,-0.024,0.015
0.672,0.034,0.02,-0.015,-0.024,0.024,0.0,-0.015,-0.386,-0.059,-0.073,-0.024,0.015
0.674,0.02,0.005,-0.015,-0.01,0.015,-0.005,-0.015,-0.386,-0.054,-0.073,-0.029,0.015
0.676,0.02,-0.005,-0.024,-0.005,0.02,-0.015,-0.015,-0.386,-0.049,-0.073,-0.029,0.015
0.678,0.015,-0.01,-0.024,0.0,0.02,-0.02,-0.01,-0.381,-0.039,-0.068,-0.029,0.015
0.68,0.005,-0.02,-0.024,0.01,0.015,-0.024,-0.005,-0.366,-0.039,-0.059,-0.02,0.015
0.682,-0.005,-0.024,-0.02,0.015,0.005,-0.024,0.0,-0.361,-0.039,-0.068,-0.02,0.005
0.684,-0.005,-0.029,-0.024,0.02,0.01,-0.029,0.0,-0.356,-0.044,-0.068,-0.029,0.0
0.686,0.0,-0.034,-0.034,0.02,0.015,-0.034,0.0,-0.361,-0.049,-0.078,-0.034,0.0
0.688,0.01,-0.024,-0.034,0.01,0.02,-0.029,0.0,-0.371,-0.063,-0.083,-0.049,-0.015
0.69,-0.005,-0.034,-0.029,0.02,0.01,-0.034,0.0,-0.376,-0.063,-0.088,-0.059,-0.02
0.692,-0.005,-0.044,-0.039,0.024,0.015,-0.044,-0.005,-0.376,-0.073,-0.112,-0.063,-0.034
0.694,-0.005,-0.039,-0.034,0.024,0.015,-0.039,-0.005,-0.376,-0.078,-0.117,-0.073,-0.034
0.696,-0.015,-0.054,-0.039,0.034,0.01,-0.049,0.01,-0.366,-0.068,-0.112,-0.063,-0.034
0.698,-0.015,-0.059,-0.044,0.039,0.015,-0.054,0.01,-0.366,-0.073,-0.117,-0.063,-0.034
0.7,-0.015,-0.068,-0.054,0.044,0.02,-0.063,0.01,-0.371,-0.073,-0.117,-0.063,-0.029
0.702,-0.015,-0.073,-0.059,0.044,0.02,-0.068,0.01,-0.371,-0.073,-0.117,-0.063,-0.02
0.704,-0.01,-0.068,-0.059,0.039,0.024,-0.063,0.0,-0.376,-0.078,-0.132,-0.063,-0.024
0.706,-0.015,-0.083,-0.068,0.049,0.024,-0.078,-0.005,-0.386,-0.078,-0.137,-0.068,-0.029
0.708,-0.034,-0.107,-0.073,0.073,0.02,-0.093,-0.005,-0.39,-0.083,-0.142,-0.078,-0.039
0.71,-0.039,-0.112,-0.073,0.078,0.015,-0.093,0.0,-0.39,-0.083,-0.146,-0.083,-0.044
0.712,-0.024,-0.098,-0.073,0.063,0.024,-0.088,0.01,-0.386,-0.068,-0.142,-0.073,-0.044
0.714,-0.015,-0.088,-0.073,0.054,0.029,-0.083,0.01,-0.381,-0.068,-0.137,-0.073,-0.044
0.716,-0.015,-0.078,-0.063,0.049,0.024,-0.073,0.01,-0.371,-0.068,-0.132,-0.073,-0.039
0.718,0.005,-0.063,-0.068,0.029,0.034,-0.068,0.01,-0.366,-0.068,-0.127,-0.073,-0.039
0.72,0.0,-0.049,-0.049,0.024,0.024,-0.049,0.01,-0.366,-0.068,-0.137,-0.078,-0.049
0.722,-0.005,-0.063,-0.059,0.034,0.024,-0.063,0.015,-0.366,-0.068,-0.137,-0.078,-0.049
0.724,-0.01,-0.073,-0.063,0.044,0.024,-0.068,0.015,-0.366,-0.068,-0.137,-0.078,-0.049
0.726,-0.015,-0.078,-0.063,0.049,0.024,-0.073,0.015,-0.366,-0.068,-0.137,-0.078,-0.044
0.728,-0.01,-0.098,-0.088,0.054,0.039,-0.093,0.005,-0.376,-0.073,-0.137,-0.078,-0.034
0.73,-0.02,-0.093,-0.073,0.059,0.024,-0.083,0.01,-0.371,-0.073,-0.137,-0.073,-0.034
0.732,-0.015,-0.078,-0.063,0.049,0.024,-0.073,0.015,-0.371,-0.068,-0.132,-0.073,-0.034
0.734,-0.005,-0.073,-0.068,0.039,0.029,-0.073,0.015,-0.371,-0.068,-0.132,-0.073,-0.039
0.736,-0.01,-0.078,-0.068,0.044,0.029,-0.073,0.02,-0.371,-0.073,-0.122,-0.073,-0.044
0.738,-0.024,-0.088,-0.063,0.059,0.02,-0.078,0.02,-0.376,-0.083,-0.132,-0.078,-0.049
0.74,-0.029,-0.093,-0.063,0.063,0.015,-0.078,0.02,-0.376,-0.083,-0.132,-0.078,-0.049
0.742,-0.024,-0.088,-0.063,0.059,0.02,-0.078,0.02,-0.376,-0.078,-0.132,-0.073,-0.044
0.744,-0.029,-0.088,-0.059,0.059,0.015,-0.073,0.01,-0.386,-0.088,-0.142,-0.078,-0.044
0.746,-0.034,-0.088,-0.054,0.063,0.01,-0.073,0.0,-0.386,-0.088,-0.142,-0.078,-0.044
0.748,-0.034,-0.093,-0.059,0.063,0.01,-0.078,0.01,-0.381,-0.078,-0.137,-0.078,-0.044
0.75,-0.039,-0.098,-0.059,0.068,0.01,-0.078,0.015,-0.381,-0.078,-0.137,-0.073,-0.039
0.752,0.0,-0.068,-0.068,0.034,0.034,-0.068,0.024,-0.371,-0.068,-0.137,-0.063,-0.029
0.754,-0.02,-0.068,-0.049,0.044,0.015,-0.059,0.024,-0.371,-0.078,-0.137,-0.073,-0.039
0.756,-0.01,-0.063,-0.054,0.039,0.02,-0.059,0.024,-0.366,-0.078,-0.137,-0.083,-0.044
0.758,-0.005,-0.054,-0.049,0.029,0.02,-0.054,0.015,-0.366,-0.078,-0.146,-0.088,-0.044
0.76,-0.034,-0.049,-0.015,0.044,-0.01,-0.034,0.024,-0.376,-0.088,-0.151,-0.098,-0.044
0.762,-0.059,-0.049,0.01,0.054,-0.034,-0.02,0.029,-0.376,-0.088,-0.156,-0.098,-0.044
0.764,-0.059,-0.02,0.039,0.039,-0.049,0.01,0.044,-0.381,-0.102,-0.171,-0.102,-0.049
0.766,-0.039,0.024,0.063,0.01,-0.054,0.044,0.049,-0.395,-0.102,-0.185,-0.112,-0.049
0.768,-0.034,0.078,0.112,-0.02,-0.073,0.093,0.059,-0.39,-0.102,-0.19,-0.127,-0.044
0.77,-0.054,0.107,0.161,-0.024,-0.107,0.132,0.068,-0.4,-0.102,-0.2,-0.137,-0.039
0.772,-0.068,0.132,0.2,-0.029,-0.137,0.166,0.054,-0.42,-0.122,-0.22,-0.142,-0.034
0.774,-0.054,0.171,0.224,-0.059,-0.142,0.195,0.049,-0.41,-0.117,-0.224,-0.137,-0.015
0.776,-0.034,0.19,0.224,-0.078,-0.132,0.205,0.078,-0.371,-0.088,-0.185,-0.098,0.024
0.778,-0.029,0.166,0.195,-0.068,-0.112,0.181,0.088,-0.337,-0.054,-0.146,-0.044,0.073
0.78,-0.005,0.151,0.156,-0.073,-0.083,0.151,0.063,-0.317,-0.029,-0.112,0.005,0.112
0.782,0.02,0.185,0.166,-0.102,-0.073,0.176,0.073,-0.273,0.024,-0.049,0.078,0.19
0.784,0.034,0.224,0.19,-0.127,-0.078,0.205,0.107,-0.19,0.117,0.054,0.176,0.293
0.786,0.059,0.234,0.176,-0.146,-0.059,0.205,0.102,-0.122,0.205,0.156,0.293,0.39
0.788,0.083,0.21,0.127,-0.146,-0.024,0.166,0.093,-0.068,0.303,0.307,0.459,0.537
0.79,0.093,0.195,0.102,-0.142,-0.005,0.146,0.044,-0.044,0.39,0.483,0.673,0.712
0.792,0.151,0.249,0.098,-0.2,0.024,0.171,-0.078,-0.083,0.444,0.664,0.917,0.927
0.794,0.259,0.356,0.098,-0.307,0.078,0.224,-0.249,-0.146,0.508,0.888,1.205,1.166
0.796,0.376,0.425,0.049,-0.4,0.161,0.234,-0.39,-0.161,0.634,1.161,1.532,1.42
0.798,0.473,0.39,-0.083,-0.429,0.278,0.151,-0.473,-0.117,0.825,1.498,1.893,1.649
0.8,0.512,0.273,-0.239,-0.39,0.376,0.015,-0.547,-0.044,1.039,1.84,2.245,1.84
0.802,0.493,0.166,-0.327,-0.327,0.41,-0.083,-0.62,-0.005,1.171,2.094,2.503,1.976
0.804,0.473,0.156,-0.317,-0.312,0.395,-0.083,-0.669,-0.049,1.191,2.181,2.591,2.006
0.806,0.493,0.181,-0.312,-0.337,0.4,-0.068,-0.678,-0.093,1.171,2.196,2.582,1.942
0.808,0.468,0.088,-0.381,-0.278,0.425,-0.146,-0.659,-0.093,1.171,2.191,2.528,1.83
0.81,0.405,-0.015,-0.42,-0.195,0.41,-0.22,-0.649,-0.127,1.113,2.084,2.381,1.674
0.812,0.376,-0.039,-0.415,-0.166,0.395,-0.229,-0.644,-0.234,0.937,1.83,2.103,1.464
0.814,0.327,-0.039,-0.366,-0.142,0.346,-0.205,-0.61,-0.351,0.732,1.523,1.757,1.225
0.816,0.254,-0.049,-0.303,-0.102,0.278,-0.176,-0.561,-0.444,0.542,1.22,1.42,1.005
0.818,0.181,-0.049,-0.229,-0.063,0.205,-0.142,-0.542,-0.556,0.342,0.908,1.093,0.766
0.82,0.102,-0.107,-0.21,0.005,0.156,-0.161,-0.547,-0.698,0.068,0.517,0.712,0.508
0.822,0.015,-0.181,-0.195,0.083,0.102,-0.19,-0.532,-0.839,-0.22,0.098,0.298,0.234
0.824,0.0,-0.21,-0.21,0.107,0.102,-0.21,-0.503,-0.883,-0.405,-0.22,-0.02,0.034
0.826,-0.005,-0.229,-0.224,0.117,0.107,-0.229,-0.493,-0.874,-0.468,-0.376,-0.185,-0.102
0.828,-0.049,-0.283,-0.234,0.166,0.093,-0.259,-0.468,-0.834,-0.478,-0.454,-0.293,-0.205
0.83,-0.059,-0.298,-0.239,0.181,0.088,-0.268,-0.434,-0.791,-0.459,-0.464,-0.337,-0.254
0.832,-0.034,-0.273,-0.239,0.156,0.102,-0.259,-0.4,-0.737,-0.405,-0.425,-0.312,-0.244
0.834,-0.054,-0.312,-0.259,0.185,0.102,-0.288,-0.351,-0.693,-0.366,-0.371,-0.268,-0.21
0.836,-0.054,-0.312,-0.259,0.185,0.102,-0.288,-0.283,-0.634,-0.317,-0.322,-0.224,-0.176
0.838,-0.01,-0.264,-0.254,0.137,0.122,-0.259,-0.229,-0.576,-0.273,-0.283,-0.195,-0.156
0.84,0.015,-0.259,-0.273,0.122,0.142,-0.268,-0.19,-0.547,-0.239,-0.254,-0.181,-0.146
0.842,-0.005,-0.268,-0.264,0.137,0.127,-0.268,-0.156,-0.512,-0.205,-0.229,-0.156,-0.127
0.844,0.0,-0.215,-0.215,0.107,0.107,-0.215,-0.117,-0.478,-0.161,-0.2,-0.127,-0.107
0.846,0.005,-0.137,-0.142,0.068,0.073,-0.142,-0.078,-0.444,-0.112,-0.176,-0.098,-0.088
0.848,-0.005,-0.117,-0.112,0.063,0.054,-0.117,-0.039,-0.381,-0.039,-0.127,-0.059,-0.059
0.85,-0.024,-0.112,-0.088,0.068,0.029,-0.102,0.0,-0.332,0.005,-0.093,-0.029,-0.029
0.852,-0.024,-0.078,-0.054,0.054,0.015,-0.068,0.024,-0.307,0.02,-0.078,-0.015,-0.024
0.854,-0.01,-0.054,-0.044,0.034,0.015,-0.049,0.029,-0.298,0.02,-0.078,-0.024,-0.024
0.856,-0.015,-0.063,-0.049,0.039,0.015,-0.059,0.039,-0.288,0.01,-0.068,-0.015,-0.02
0.858,-0.024,-0.073,-0.049,0.049,0.01,-0.063,0.044,-0.288,0.005,-0.083,-0.024,-0.029
0.86,-0.029,-0.083,-0.054,0.059,0.01,-0.068,0.049,-0.288,0.0,-0.093,-0.034,-0.029
0.862,-0.034,-0.088,-0.054,0.063,0.01,-0.073,0.059,-0.288,0.0,-0.093,-0.034,-0.024
0.864,-0.029,-0.063,-0.034,0.049,0.0,-0.049,0.063,-0.283,0.01,-0.098,-0.029,-0.024
0.866,-0.015,-0.059,-0.044,0.039,0.015,-0.054,0.068,-0.283,0.02,-0.088,-0.024,-0.024
0.868,-0.02,-0.059,-0.039,0.039,0.01,-0.049,0.073,-0.283,0.034,-0.078,-0.015,-0.015
0.87,-0.024,-0.068,-0.044,0.049,0.01,-0.059,0.083,-0.283,0.034,-0.073,-0.015,-0.015
0.872,-0.02,-0.068,-0.049,0.044,0.015,-0.059,0.078,-0.283,0.034,-0.083,-0.02,-0.029
0.874,-0.01,-0.059,-0.049,0.034,0.02,-0.054,0.083,-0.268,0.034,-0.083,-0.02,-0.034
0.876,-0.01,-0.049,-0.039,0.029,0.015,-0.044,0.083,-0.264,0.034,-0.083,-0.024,-0.034
0.878,-0.01,-0.034,-0.024,0.024,0.005,-0.029,0.083,-0.259,0.034,-0.083,-0.034,-0.039
0.88,-0.005,-0.024,-0.02,0.015,0.005,-0.024,0.088,-0.254,0.039,-0.073,-0.029,-0.029
0.882,-0.005,-0.02,-0.015,0.015,0.005,-0.02,0.093,-0.254,0.039,-0.073,-0.024,-0.024
0.884,-0.01,-0.015,-0.005,0.015,-0.005,-0.01,0.098,-0.254,0.039,-0.078,-0.02,-0.024
0.886,-0.01,-0.024,-0.015,0.02,0.0,-0.02,0.102,-0.254,0.044,-0.078,-0.01,-0.024
0.888,-0.02,-0.024,-0.005,0.024,-0.01,-0.015,0.093,-0.244,0.059,-0.068,-0.015,-0.015
0.89,-0.005,-0.024,-0.02,0.015,0.005,-0.024,0.093,-0.244,0.063,-0.063,-0.005,-0.015
0.892,-0.005,-0.034,-0.029,0.02,0.01,-0.034,0.093,-0.244,0.063,-0.063,-0.005,-0.015
0.894,-0.015,-0.044,-0.029,0.029,0.005,-0.039,0.098,-0.239,0.063,-0.063,-0.005,-0.015
0.896,-0.015,-0.039,-0.024,0.029,0.005,-0.034,0.098,-0.234,0.063,-0.059,0.005,-0.01
0.898,0.0,-0.024,-0.024,0.015,0.01,-0.024,0.098,-0.234,0.063,-0.054,0.015,-0.01
0.9,0.0,-0.015,-0.015,0.01,0.005,-0.015,0.102,-0.234,0.068,-0.054,0.015,-0.005
0.902,-0.01,-0.015,-0.005,0.015,-0.005,-0.01,0.107,-0.229,0.068,-0.054,0.015,-0.005
0.904,-0.005,-0.01,-0.005,0.01,0.0,-0.01,0.112,-0.22,0.083,-0.044,0.024,0.005
0.906,-0.005,-0.015,-0.01,0.01,0.0,-0.015,0.112,-0.22,0.083,-0.044,0.024,0.005
0.908,-0.005,-0.01,-0.005,0.01,0.0,-0.01,0.112,-0.22,0.093,-0.034,0.029,0.01
0.91,0.0,0.0,0.0,0.0,0.0,0.0,0.112,-0.215,0.098,-0.029,0.039,0.01
0.912,0.005,-0.01,-0.015,0.005,0.01,-0.015,0.102,-0.224,0.088,-0.034,0.034,0.0
0.914,0.005,-0.01,-0.015,0.005,0.01,-0.015,0.107,-0.22,0.088,-0.029,0.029,0.0
0.916,-0.005,-0.01,-0.005,0.01,0.0,-0.01,0.107,-0.215,0.088,-0.029,0.029,-0.005
0.918,0.005,-0.005,-0.01,0.0,0.005,-0.01,0.107,-0.215,0.088,-0.029,0.024,-0.005
0.92,0.015,-0.005,-0.02,-0.005,0.015,-0.015,0.107,-0.224,0.078,-0.029,0.024,-0.005
0.922,0.015,0.0,-0.015,-0.005,0.015,-0.01,0.112,-0.22,0.093,-0.024,0.024,0.005
0.924,0.01,-0.005,-0.015,0.0,0.01,-0.01,0.112,-0.22,0.098,-0.024,0.034,0.015
0.926,-0.01,-0.01,0.0,0.01,-0.005,-0.005,0.107,-0.22,0.098,-0.024,0.034,0.015
0.928,-0.01,0.0,0.01,0.005,-0.01,0.005,0.098,-0.22,0.102,-0.02,0.024,0.02
0.93,-0.01,0.0,0.01,0.005,-0.01,0.005,0.098,-0.22,0.102,-0.02,0.029,0.015
0.932,-0.01,0.005,0.015,0.005,-0.015,0.01,0.093,-0.22,0.107,-0.01,0.029,0.015
0.934,-0.005,0.0,0.005,0.005,-0.005,0.0,0.083,-0.22,0.107,-0.01,0.029,0.01
0.936,0.005,0.005,0.0,-0.005,0.0,0.0,0.102,-0.21,0.112,0.0,0.044,0.01
0.938,0.015,0.029,0.015,-0.02,0.0,0.02,0.112,-0.195,0.112,0.0,0.044,0.015
0.94,0.034,0.034,0.0,-0.034,0.015,0.015,0.117,-0.19,0.112,0.005,0.049,0.024
0.942,0.034,0.039,0.005,-0.034,0.015,0.02,0.122,-0.185,0.117,0.005,0.054,0.039
0.944,0.005,0.024,0.02,-0.015,-0.01,0.02,0.122,-0.185,0.127,0.01,0.063,0.044
0.946,-0.005,0.015,0.02,-0.005,-0.015,0.015,0.122,-0.176,0.142,0.01,0.068,0.044
0.948,-0.01,0.0,0.01,0.005,-0.01,0.005,0.122,-0.176,0.146,0.024,0.073,0.044
0.95,-0.005,-0.015,-0.01,0.01,0.0,-0.015,0.122,-0.176,0.151,0.029,0.078,0.049
0.952,0.0,0.005,0.005,0.0,-0.005,0.005,0.102,-0.185,0.142,0.039,0.078,0.049
0.954,0.0,0.01,0.01,-0.005,-0.005,0.01,0.102,-0.181,0.142,0.039,0.078,0.044
0.956,-0.005,0.02,0.024,-0.005,-0.015,0.02,0.102,-0.181,0.142,0.044,0.078,0.034
0.958,0.01,0.044,0.034,-0.024,-0.015,0.039,0.102,-0.171,0.146,0.044,0.073,0.029
0.96,0.029,0.054,0.024,-0.039,0.0,0.039,0.117,-0.161,0.161,0.049,0.073,0.044
0.962,0.034,0.054,0.02,-0.044,0.005,0.034,0.122,-0.156,0.171,0.049,0.083,0.049
0.964,0.034,0.054,0.02,-0.044,0.005,0.034,0.127,-0.151,0.171,0.059,0.088,0.049
0.966,0.034,0.049,0.015,-0.039,0.01,0.029,0.132,-0.146,0.181,0.063,0.098,0.054
0.968,0.024,0.029,0.005,-0.024,0.01,0.015,0.132,-0.137,0.176,0.059,0.098,0.059
0.97,0.01,0.024,0.015,-0.015,-0.005,0.02,0.127,-0.137,0.176,0.063,0.102,0.059
0.972,0.015,0.024,0.01,-0.02,0.0,0.015,0.122,-0.142,0.181,0.068,0.112,0.059
0.974,0.01,0.024,0.015,-0.015,-0.005,0.02,0.112,-0.146,0.181,0.078,0.117,0.068
0.976,0.02,0.044,0.024,-0.029,-0.005,0.034,0.117,-0.137,0.185,0.083,0.122,0.073
0.978,0.024,0.063,0.039,-0.044,-0.01,0.049,0.122,-0.137,0.19,0.088,0.127,0.083
0.98,0.024,0.063,0.039,-0.044,-0.01,0.049,0.127,-0.132,0.2,0.102,0.137,0.083
0.982,0.015,0.059,0.044,-0.034,-0.015,0.049,0.132,-0.127,0.21,0.107,0.142,0.088
0.984,0.02,0.059,0.039,-0.039,-0.01,0.049,0.122,-0.132,0.21,0.102,0.146,0.088
0.986,0.015,0.054,0.039,-0.034,-0.015,0.044,0.122,-0.132,0.22,0.112,0.146,0.088
0.988,0.01,0.029,0.02,-0.02,-0.005,0.024,0.117,-0.132,0.224,0.117,0.146,0.083
0.99,-0.005,0.034,0.039,-0.015,-0.024,0.034,0.117,-0.122,0.224,0.127,0.151,0.078
0.992,0.024,0.059,0.034,-0.039,-0.005,0.044,0.107,-0.112,0.239,0.142,0.166,0.088
0.994,0.044,0.083,0.039,-0.063,0.0,0.059,0.107,-0.107,0.244,0.151,0.166,0.102
0.996,0.059,0.088,0.029,-0.073,0.015,0.059,0.112,-0.098,0.259,0.156,0.171,0.117
0.998,0.054,0.098,0.044,-0.073,0.005,0.068,0.112,-0.098,0.259,0.156,0.181,0.127
1.0,0.039,0.088,0.049,-0.063,-0.005,0.068,0.112,-0.088,0.268,0.176,0.2,0.132
1.002,0.029,0.088,0.059,-0.059,-0.015,0.073,0.112,-0.088,0.278,0.19,0.21,0.142
1.004,0.024,0.088,0.063,-0.054,-0.02,0.073,0.112,-0.083,0.288,0.2,0.215,0.146
1.006,0.02,0.093,0.073,-0.054,-0.029,0.083,0.112,-0.078,0.288,0.215,0.229,0.146
1.008,0.034,0.102,0.068,-0.068,-0.02,0.083,0.112,-0.063,0.303,0.224,0.239,0.161
1.01,0.039,0.107,0.068,-0.073,-0.015,0.088,0.112,-0.054,0.312,0.234,0.259,0.171
1.012,0.054,0.122,0.068,-0.088,-0.01,0.093,0.117,-0.049,0.322,0.244,0.264,0.181
1.014,0.059,0.122,0.063,-0.088,-0.005,0.093,0.117,-0.039,0.322,0.254,0.273,0.185
1.016,0.059,0.122,0.063,-0.088,-0.005,0.093,0.107,-0.039,0.342,0.273,0.288,0.195
1.018,0.059,0.127,0.068,-0.093,-0.005,0.098,0.102,-0.039,0.346,0.278,0.288,0.21
1.02,0.068,0.142,0.073,-0.102,-0.005,0.107,0.102,-0.034,0.361,0.293,0.307,0.22
1.022,0.083,0.156,0.073,-0.117,0.005,0.112,0.102,-0.02,0.371,0.317,0.327,0.239
1.024,0.068,0.171,0.102,-0.117,-0.02,0.137,0.122,-0.01,0.39,0.346,0.351,0.259
1.026,0.063,0.156,0.093,-0.107,-0.015,0.122,0.112,-0.005,0.405,0.356,0.371,0.273
1.028,0.059,0.151,0.093,-0.102,-0.02,0.122,0.112,0.01,0.42,0.371,0.39,0.293
1.03,0.063,0.156,0.093,-0.107,-0.015,0.122,0.112,0.024,0.434,0.386,0.415,0.307
1.032,0.083,0.185,0.102,-0.132,-0.01,0.142,0.102,0.029,0.454,0.41,0.434,0.312
1.034,0.098,0.2,0.102,-0.146,-0.005,0.151,0.098,0.034,0.464,0.429,0.454,0.337
1.036,0.102,0.229,0.127,-0.166,-0.015,0.176,0.083,0.034,0.478,0.444,0.473,0.342
1.038,0.122,0.254,0.132,-0.185,-0.005,0.19,0.073,0.039,0.488,0.464,0.493,0.356
1.04,0.112,0.249,0.137,-0.181,-0.015,0.19,0.073,0.054,0.512,0.493,0.522,0.381
1.042,0.117,0.254,0.137,-0.185,-0.01,0.195,0.073,0.059,0.532,0.512,0.547,0.395
1.044,0.117,0.249,0.132,-0.181,-0.01,0.19,0.073,0.068,0.542,0.537,0.566,0.415
1.046,0.117,0.254,0.137,-0.185,-0.01,0.195,0.078,0.073,0.566,0.566,0.59,0.439
1.048,0.122,0.244,0.122,-0.181,0.0,0.181,0.068,0.083,0.59,0.586,0.625,0.464
1.05,0.122,0.249,0.127,-0.185,-0.005,0.185,0.068,0.093,0.595,0.6,0.644,0.473
1.052,0.142,0.268,0.127,-0.205,0.005,0.195,0.063,0.107,0.62,0.634,0.664,0.498
1.054,0.142,0.283,0.142,-0.21,0.0,0.21,0.063,0.127,0.639,0.669,0.698,0.527
1.056,0.142,0.283,0.142,-0.21,0.0,0.21,0.054,0.117,0.654,0.673,0.717,0.547
1.058,0.146,0.288,0.142,-0.215,0.0,0.215,0.039,0.117,0.654,0.693,0.732,0.571
1.06,0.161,0.303,0.142,-0.229,0.01,0.22,0.034,0.132,0.669,0.727,0.761,0.595
1.062,0.161,0.312,0.151,-0.234,0.005,0.229,0.034,0.146,0.688,0.756,0.791,0.625
1.064,0.171,0.332,0.161,-0.249,0.005,0.244,0.044,0.151,0.703,0.776,0.82,0.644
1.066,0.181,0.346,0.166,-0.264,0.005,0.254,0.039,0.151,0.708,0.781,0.834,0.644
1.068,0.195,0.356,0.161,-0.273,0.015,0.259,0.039,0.156,0.727,0.8,0.849,0.654
1.07,0.205,0.376,0.171,-0.288,0.015,0.273,0.039,0.156,0.742,0.82,0.864,0.673
1.072,0.2,0.39,0.19,-0.293,0.005,0.288,0.029,0.146,0.732,0.825,0.864,0.669
1.074,0.19,0.376,0.185,-0.283,0.0,0.278,0.024,0.151,0.732,0.834,0.874,0.673
1.076,0.19,0.381,0.19,-0.283,0.0,0.283,0.015,0.151,0.732,0.844,0.874,0.688
1.078,0.205,0.405,0.2,-0.303,0.0,0.303,0.015,0.156,0.742,0.859,0.888,0.703
1.08,0.205,0.395,0.19,-0.298,0.005,0.293,0.024,0.156,0.747,0.864,0.908,0.722
1.082,0.205,0.386,0.181,-0.293,0.01,0.283,0.024,0.156,0.752,0.864,0.913,0.722
1.084,0.2,0.376,0.176,-0.288,0.01,0.273,0.024,0.151,0.752,0.854,0.913,0.722
1.086,0.2,0.366,0.166,-0.283,0.015,0.264,0.024,0.151,0.747,0.854,0.908,0.717
1.088,0.181,0.342,0.161,-0.259,0.01,0.249,0.01,0.146,0.737,0.839,0.898,0.703
1.09,0.171,0.342,0.171,-0.254,0.0,0.254,0.005,0.132,0.727,0.83,0.888,0.703
1.092,0.181,0.337,0.156,-0.259,0.01,0.244,0.005,0.122,0.717,0.82,0.869,0.683
1.094,0.181,0.337,0.156,-0.259,0.01,0.244,0.005,0.117,0.708,0.82,0.849,0.664
1.096,0.185,0.342,0.156,-0.264,0.015,0.249,0.005,0.102,0.683,0.8,0.834,0.639
1.098,0.185,0.342,0.156,-0.264,0.015,0.249,0.015,0.093,0.664,0.766,0.81,0.625
1.1,0.176,0.322,0.146,-0.249,0.015,0.234,0.024,0.093,0.649,0.727,0.771,0.595
1.102,0.151,0.303,0.151,-0.224,0.0,0.224,0.024,0.078,0.634,0.698,0.742,0.576
1.104,0.181,0.303,0.122,-0.239,0.029,0.21,0.049,0.054,0.6,0.669,0.708,0.542
1.106,0.166,0.298,0.132,-0.229,0.015,0.215,0.059,0.044,0.581,0.634,0.673,0.517
1.108,0.161,0.283,0.122,-0.22,0.02,0.2,0.059,0.029,0.556,0.595,0.634,0.498
1.11,0.146,0.264,0.117,-0.205,0.015,0.19,0.059,0.01,0.532,0.561,0.595,0.473
1.112,0.132,0.244,0.112,-0.185,0.01,0.176,0.049,-0.024,0.498,0.512,0.551,0.42
1.114,0.107,0.224,0.117,-0.166,-0.005,0.171,0.049,-0.054,0.464,0.468,0.508,0.381
1.116,0.098,0.21,0.112,-0.151,-0.01,0.161,0.049,-0.073,0.429,0.434,0.468,0.356
1.118,0.083,0.2,0.117,-0.142,-0.02,0.156,0.049,-0.083,0.4,0.405,0.434,0.332
1.12,0.073,0.185,0.112,-0.127,-0.02,0.146,0.049,-0.088,0.366,0.376,0.386,0.303
1.122,0.054,0.161,0.107,-0.107,-0.029,0.132,0.054,-0.107,0.351,0.337,0.356,0.288
1.124,0.044,0.151,0.107,-0.098,-0.034,0.127,0.063,-0.117,0.327,0.307,0.327,0.259
1.126,0.044,0.137,0.093,-0.088,-0.024,0.112,0.068,-0.132,0.303,0.283,0.298,0.234
1.128,0.044,0.098,0.054,-0.068,-0.005,0.073,0.068,-0.161,0.268,0.249,0.264,0.21
1.13,0.034,0.088,0.054,-0.059,-0.01,0.068,0.068,-0.176,0.254,0.224,0.234,0.176
1.132,0.034,0.088,0.054,-0.059,-0.01,0.068,0.063,-0.185,0.234,0.195,0.21,0.146
1.134,0.034,0.088,0.054,-0.059,-0.01,0.068,0.063,-0.21,0.205,0.166,0.176,0.132
1.136,0.024,0.068,0.044,-0.044,-0.01,0.054,0.044,-0.229,0.185,0.132,0.146,0.112
1.138,0.01,0.059,0.049,-0.034,-0.02,0.054,0.044,-0.234,0.176,0.112,0.122,0.083
1.14,-0.01,0.044,0.054,-0.015,-0.034,0.049,0.044,-0.244,0.156,0.098,0.107,0.068
1.142,0.0,0.034,0.034,-0.015,-0.02,0.034,0.049,-0.254,0.137,0.078,0.088,0.063
1.144,0.0,0.039,0.039,-0.02,-0.02,0.039,0.049,-0.273,0.117,0.063,0.068,0.039
1.146,0.0,0.044,0.044,-0.02,-0.024,0.044,0.049,-0.283,0.112,0.049,0.059,0.029
1.148,-0.01,0.039,0.049,-0.015,-0.029,0.044,0.054,-0.283,0.102,0.039,0.044,0.015
1.15,-0.015,0.039,0.054,-0.01,-0.034,0.044,0.054,-0.288,0.098,0.024,0.029,0.0
1.152,-0.024,0.024,0.049,0.0,-0.039,0.034,0.054,-0.298,0.073,0.0,0.01,-0.015
1.154,-0.039,0.0,0.039,0.02,-0.039,0.02,0.039,-0.307,0.059,-0.015,-0.005,-0.024
1.156,-0.049,-0.024,0.024,0.039,-0.039,0.0,0.034,-0.317,0.049,-0.029,-0.02,-0.029
1.158,-0.054,-0.044,0.01,0.049,-0.034,-0.02,0.034,-0.317,0.034,-0.034,-0.024,-0.029
1.16,-0.015,-0.02,-0.005,0.02,-0.005,-0.015,0.039,-0.303,0.039,-0.024,-0.015,-0.02
1.162,0.01,0.0,-0.01,-0.005,0.01,-0.005,0.049,-0.303,0.049,-0.02,-0.01,-0.02
1.164,0.015,-0.005,-0.02,-0.005,0.015,-0.015,0.054,-0.303,0.049,-0.02,-0.02,-0.024
1.166,0.024,0.005,-0.02,-0.015,0.02,-0.01,0.059,-0.298,0.054,-0.02,-0.029,-0.024
1.168,0.005,0.005,0.0,-0.005,0.0,0.0,0.049,-0.312,0.049,-0.029,-0.044,-0.039
1.17,-0.005,0.0,0.005,0.005,-0.005,0.0,0.049,-0.322,0.039,-0.039,-0.044,-0.039
1.172,-0.01,0.0,0.01,0.005,-0.01,0.005,0.044,-0.327,0.029,-0.049,-0.039,-0.049
1.174,-0.02,-0.005,0.015,0.015,-0.02,0.005,0.044,-0.337,0.024,-0.059,-0.039,-0.054
1.176,-0.02,-0.015,0.005,0.02,-0.015,-0.005,0.044,-0.327,0.034,-0.049,-0.049,-0.063
1.178,-0.034,-0.029,0.005,0.034,-0.02,-0.015,0.044,-0.332,0.02,-0.049,-0.054,-0.068
1.18,-0.01,0.0,0.01,0.005,-0.01,0.005,0.044,-0.332,0.02,-0.049,-0.054,-0.068
1.182,0.005,0.02,0.015,-0.01,-0.005,0.015,0.044,-0.327,0.024,-0.049,-0.054,-0.054
1.184,-0.01,0.0,0.01,0.005,-0.01,0.005,0.034,-0.327,0.024,-0.039,-0.049,-0.054
1.186,-0.024,-0.015,0.01,0.02,-0.02,-0.005,0.034,-0.327,0.024,-0.044,-0.049,-0.054
1.188,-0.029,-0.024,0.005,0.029,-0.02,-0.01,0.039,-0.327,0.024,-0.044,-0.044,-0.049
1.19,-0.029,-0.034,-0.005,0.034,-0.015,-0.02,0.039,-0.327,0.02,-0.044,-0.044,-0.044
1.192,-0.039,-0.029,0.01,0.034,-0.024,-0.01,0.049,-0.327,0.01,-0.049,-0.063,-0.059
1.194,-0.039,-0.034,0.005,0.039,-0.024,-0.015,0.034,-0.332,0.01,-0.054,-0.068,-0.063
1.196,-0.044,-0.034,0.01,0.039,-0.029,-0.015,0.034,-0.337,0.01,-0.059,-0.068,-0.068
1.198,-0.049,-0.039,0.01,0.044,-0.029,-0.015,0.039,-0.342,0.01,-0.063,-0.078,-0.073
1.2,-0.044,-0.049,-0.005,0.049,-0.02,-0.029,0.039,-0.342,0.02,-0.054,-0.068,-0.083
1.202,-0.024,-0.049,-0.024,0.039,0.0,-0.039,0.044,-0.337,0.02,-0.054,-0.068,-0.073
1.204,-0.02,-0.039,-0.02,0.029,0.0,-0.029,0.044,-0.332,0.02,-0.054,-0.068,-0.073
1.206,-0.02,-0.039,-0.02,0.029,0.0,-0.029,0.039,-0.327,0.02,-0.054,-0.063,-0.073
1.208,-0.02,-0.039,-0.02,0.029,0.0,-0.029,0.029,-0.327,0.02,-0.063,-0.063,-0.078
1.21,-0.015,-0.034,-0.02,0.024,0.0,-0.029,0.029,-0.327,0.02,-0.054,-0.068,-0.078
1.212,-0.005,-0.024,-0.02,0.015,0.005,-0.024,0.034,-0.332,0.024,-0.063,-0.073,-0.088
1.214,-0.02,-0.024,-0.005,0.024,-0.01,-0.015,0.034,-0.337,0.024,-0.063,-0.078,-0.093
1.216,-0.039,-0.039,0.0,0.039,-0.02,-0.02,0.034,-0.332,0.015,-0.059,-0.083,-0.093
1.218,-0.049,-0.039,0.01,0.044,-0.029,-0.015,0.034,-0.332,0.015,-0.059,-0.083,-0.093
1.22,-0.054,-0.039,0.015,0.049,-0.034,-0.015,0.034,-0.337,0.01,-0.063,-0.088,-0.098
1.222,-0.059,-0.044,0.015,0.054,-0.039,-0.015,0.039,-0.337,0.01,-0.063,-0.088,-0.098
1.224,-0.044,-0.054,-0.01,0.049,-0.02,-0.034,0.044,-0.327,0.015,-0.044,-0.088,-0.083
1.226,-0.039,-0.049,-0.01,0.044,-0.015,-0.029,0.044,-0.327,0.015,-0.044,-0.083,-0.078
1.228,-0.029,-0.049,-0.02,0.039,-0.005,-0.034,0.044,-0.327,0.01,-0.049,-0.083,-0.078
1.23,-0.024,-0.049,-0.024,0.039,0.0,-0.039,0.044,-0.327,0.01,-0.049,-0.078,-0.078
1.232,-0.005,-0.039,-0.034,0.024,0.015,-0.039,0.044,-0.327,0.015,-0.044,-0.068,-0.068
1.234,-0.005,-0.039,-0.034,0.024,0.015,-0.039,0.044,-0.327,0.024,-0.044,-0.073,-0.078
1.236,-0.01,-0.039,-0.029,0.024,0.01,-0.034,0.044,-0.327,0.024,-0.044,-0.073,-0.078
1.238,-0.015,-0.039,-0.024,0.029,0.005,-0.034,0.039,-0.327,0.024,-0.044,-0.073,-0.078
1.24,-0.024,-0.029,-0.005,0.029,-0.01,-0.02,0.029,-0.332,0.015,-0.054,-0.078,-0.093
1.242,-0.029,-0.024,0.005,0.029,-0.02,-0.01,0.029,-0.332,0.015,-0.054,-0.083,-0.098
1.244,-0.029,-0.02,0.01,0.024,-0.02,-0.005,0.034,-0.337,0.015,-0.049,-0.083,-0.102
1.246,-0.034,-0.024,0.01,0.029,-0.024,-0.01,0.034,-0.346,0.015,-0.049,-0.083,-0.102
1.248,-0.044,-0.024,0.02,0.034,-0.034,-0.005,0.049,-0.337,0.02,-0.049,-0.093,-0.107
1.25,-0.039,-0.024,0.015,0.034,-0.029,-0.005,0.049,-0.337,0.02,-0.049,-0.093,-0.107
1.252,-0.039,-0.024,0.015,0.034,-0.029,-0.005,0.049,-0.337,0.02,-0.049,-0.093,-0.107
1.254,-0.039,-0.024,0.015,0.034,-0.029,-0.005,0.049,-0.337,0.02,-0.049,-0.093,-0.107
1.256,-0.015,-0.039,-0.024,0.029,0.005,-0.034,0.059,-0.327,0.029,-0.039,-0.078,-0.098
1.258,-0.024,-0.044,-0.02,0.034,-0.005,-0.034,0.054,-0.337,0.029,-0.039,-0.073,-0.088
1.26,-0.024,-0.049,-0.024,0.039,0.0,-0.039,0.054,-0.337,0.029,-0.034,-0.068,-0.078
1.262,-0.024,-0.054,-0.029,0.039,0.0,-0.044,0.054,-0.337,0.029,-0.034,-0.063,-0.068
1.264,-0.029,-0.049,-0.02,0.039,-0.005,-0.034,0.044,-0.342,0.024,-0.034,-0.073,-0.083
1.266,-0.044,-0.049,-0.005,0.049,-0.02,-0.029,0.044,-0.346,0.024,-0.049,-0.078,-0.093
1.268,-0.049,-0.044,0.005,0.049,-0.029,-0.02,0.044,-0.346,0.024,-0.049,-0.083,-0.102
1.27,-0.044,-0.015,0.029,0.029,-0.039,0.005,0.044,-0.346,0.029,-0.049,-0.083,-0.112
1.272,-0.024,0.005,0.029,0.01,-0.029,0.015,0.059,-0.342,0.024,-0.049,-0.083,-0.102
1.274,-0.02,0.005,0.024,0.01,-0.024,0.015,0.059,-0.337,0.024,-0.039,-0.083,-0.093
1.276,-0.02,0.005,0.024,0.01,-0.024,0.015,0.054,-0.337,0.024,-0.039,-0.083,-0.093
1.278,-0.015,0.0,0.015,0.01,-0.015,0.005,0.054,-0.337,0.024,-0.039,-0.078,-0.098
1.28,-0.015,-0.01,0.005,0.015,-0.01,-0.005,0.044,-0.327,0.02,-0.039,-0.078,-0.093
1.282,-0.024,-0.044,-0.02,0.034,-0.005,-0.034,0.044,-0.337,0.02,-0.039,-0.078,-0.093
1.284,-0.024,-0.054,-0.029,0.039,0.0,-0.044,0.044,-0.342,0.02,-0.039,-0.078,-0.093
1.286,-0.02,-0.054,-0.034,0.039,0.005,-0.044,0.044,-0.342,0.02,-0.049,-0.088,-0.093
1.288,-0.024,-0.034,-0.01,0.029,-0.01,-0.024,0.044,-0.342,0.024,-0.029,-0.088,-0.093
1.29,-0.029,-0.024,0.005,0.029,-0.02,-0.01,0.044,-0.342,0.024,-0.029,-0.078,-0.088
1.292,-0.034,-0.039,-0.005,0.039,-0.015,-0.024,0.044,-0.337,0.02,-0.039,-0.073,-0.083
1.294,-0.039,-0.039,0.0,0.039,-0.02,-0.02,0.044,-0.337,0.02,-0.039,-0.073,-0.083
1.296,-0.029,-0.034,-0.005,0.034,-0.015,-0.02,0.039,-0.342,0.02,-0.034,-0.068,-0.078
1.298,-0.024,-0.02,0.005,0.024,-0.015,-0.01,0.039,-0.342,0.02,-0.029,-0.068,-0.078
1.3,-0.015,-0.01,0.005,0.015,-0.01,-0.005,0.039,-0.337,0.024,-0.029,-0.068,-0.068
1.302,-0.029,-0.005,0.024,0.02,-0.029,0.01,0.039,-0.337,0.024,-0.024,-0.059,-0.068
1.304,-0.039,-0.02,0.02,0.029,-0.029,0.0,0.024,-0.351,0.01,-0.034,-0.073,-0.078
1.306,-0.049,-0.034,0.015,0.044,-0.034,-0.01,0.024,-0.351,0.01,-0.034,-0.083,-0.083
1.308,-0.054,-0.044,0.01,0.049,-0.034,-0.02,0.029,-0.351,0.01,-0.034,-0.093,-0.088
1.31,-0.068,-0.049,0.02,0.059,-0.044,-0.015,0.029,-0.356,0.005,-0.039,-0.098,-0.098
1.312,-0.039,-0.029,0.01,0.034,-0.024,-0.01,0.034,-0.346,0.01,-0.029,-0.088,-0.098
1.314,-0.015,-0.01,0.005,0.015,-0.01,-0.005,0.034,-0.346,0.01,-0.029,-0.088,-0.098
1.316,0.005,0.0,-0.005,0.0,0.005,-0.005,0.034,-0.342,0.01,-0.034,-0.083,-0.098
1.318,0.0,0.01,0.01,-0.005,-0.005,0.01,0.034,-0.342,0.015,-0.034,-0.078,-0.098
1.32,-0.02,0.0,0.02,0.01,-0.02,0.01,0.034,-0.351,0.015,-0.029,-0.068,-0.088
1.322,-0.034,-0.02,0.015,0.029,-0.024,-0.005,0.034,-0.356,0.015,-0.029,-0.073,-0.088
1.324,-0.024,-0.015,0.01,0.02,-0.02,-0.005,0.034,-0.356,0.015,-0.029,-0.078,-0.088
1.326,-0.02,-0.015,0.005,0.02,-0.015,-0.005,0.034,-0.356,0.015,-0.034,-0.078,-0.088
1.328,-0.02,-0.01,0.01,0.015,-0.015,0.0,0.034,-0.356,0.0,-0.044,-0.088,-0.088
1.33,-0.015,-0.01,0.005,0.015,-0.01,-0.005,0.029,-0.356,-0.005,-0.049,-0.093,-0.098
1.332,-0.005,-0.01,-0.005,0.01,0.0,-0.01,0.029,-0.361,-0.005,-0.039,-0.098,-0.088
1.334,-0.005,-0.005,0.0,0.005,-0.005,-0.005,0.034,-0.361,-0.005,-0.044,-0.098,-0.078
1.336,-0.01,-0.005,0.005,0.01,-0.01,0.0,0.029,-0.361,-0.015,-0.039,-0.098,-0.093
1.338,-0.01,-0.005,0.005,0.01,-0.01,0.0,0.02,-0.361,-0.015,-0.044,-0.098,-0.093
1.34,-0.01,-0.01,0.0,0.01,-0.005,-0.005,0.015,-0.361,-0.015,-0.049,-0.093,-0.098
1.342,-0.01,-0.01,0.0,0.01,-0.005,-0.005,0.01,-0.366,-0.015,-0.049,-0.093,-0.107
1.344,-0.015,-0.029,-0.015,0.024,0.0,-0.024,0.02,-0.356,0.0,-0.039,-0.093,-0.112
1.346,-0.024,-0.029,-0.005,0.029,-0.01,-0.02,0.02,-0.356,0.0,-0.039,-0.093,-0.107
1.348,-0.044,-0.049,-0.005,0.049,-0.02,-0.029,0.02,-0.356,0.0,-0.039,-0.093,-0.112
1.35,-0.054,-0.049,0.005,0.054,-0.029,-0.024,0.015,-0.366,-0.01,-0.049,-0.093,-0.112
1.352,-0.049,-0.034,0.015,0.044,-0.034,-0.01,0.024,-0.376,-0.024,-0.059,-0.102,-0.102
1.354,-0.029,-0.029,0.0,0.029,-0.015,-0.015,0.024,-0.376,-0.024,-0.054,-0.102,-0.102
1.356,-0.02,-0.015,0.005,0.02,-0.015,-0.005,0.024,-0.371,-0.02,-0.049,-0.107,-0.102
1.358,-0.005,0.005,0.01,0.0,-0.01,0.005,0.024,-0.371,-0.02,-0.049,-0.107,-0.107
1.36,-0.01,0.005,0.015,0.005,-0.015,0.01,0.02,-0.381,-0.024,-0.044,-0.112,-0.117
1.362,-0.02,0.0,0.02,0.01,-0.02,0.01,0.015,-0.381,-0.024,-0.049,-0.107,-0.117
1.364,-0.029,-0.005,0.024,0.02,-0.029,0.01,0.01,-0.386,-0.024,-0.054,-0.107,-0.117
1.366,-0.034,-0.01,0.024,0.024,-0.029,0.005,0.005,-0.386,-0.024,-0.063,-0.107,-0.112
1.368,-0.039,-0.02,0.02,0.029,-0.029,0.0,0.01,-0.381,-0.024,-0.073,-0.122,-0.117
1.37,-0.044,-0.029,0.015,0.039,-0.029,-0.01,0.01,-0.381,-0.029,-0.078,-0.127,-0.117
1.372,-0.054,-0.039,0.015,0.049,-0.034,-0.015,0.005,-0.386,-0.034,-0.078,-0.132,-0.127
1.374,-0.063,-0.054,0.01,0.059,-0.039,-0.024,0.005,-0.386,-0.034,-0.078,-0.137,-0.127
1.376,-0.054,-0.044,0.01,0.049,-0.034,-0.02,0.015,-0.366,-0.029,-0.063,-0.132,-0.112
1.378,-0.044,-0.039,0.005,0.044,-0.024,-0.02,0.015,-0.376,-0.024,-0.059,-0.127,-0.112
1.38,-0.029,-0.029,0.0,0.029,-0.015,-0.015,0.015,-0.376,-0.024,-0.063,-0.122,-0.117
1.382,-0.02,-0.039,-0.02,0.029,0.0,-0.029,0.015,-0.376,-0.029,-0.068,-0.122,-0.122
1.384,-0.044,-0.049,-0.005,0.049,-0.02,-0.029,0.015,-0.381,-0.02,-0.068,-0.127,-0.122
1.386,-0.044,-0.044,0.0,0.044,-0.024,-0.024,0.015,-0.381,-0.02,-0.063,-0.132,-0.117
1.388,-0.02,-0.024,-0.005,0.024,-0.01,-0.015,0.02,-0.371,-0.02,-0.054,-0.132,-0.107
1.39,-0.02,-0.015,0.005,0.02,-0.015,-0.005,0.02,-0.371,-0.02,-0.054,-0.122,-0.107
1.392,-0.024,-0.02,0.005,0.024,-0.015,-0.01,0.01,-0.386,-0.024,-0.063,-0.142,-0.112
1.394,-0.029,-0.02,0.01,0.024,-0.02,-0.005,0.005,-0.386,-0.024,-0.073,-0.142,-0.117
1.396,-0.029,-0.029,0.0,0.029,-0.015,-0.015,0.005,-0.386,-0.029,-0.073,-0.137,-0.117
1.398,-0.024,-0.039,-0.015,0.034,-0.005,-0.029,0.0,-0.39,-0.029,-0.063,-0.137,-0.117
1.4,-0.024,-0.034,-0.01,0.029,-0.01,-0.024,0.005,-0.381,-0.029,-0.054,-0.137,-0.127
1.402,-0.02,-0.02,0.0,0.02,-0.01,-0.01,0.01,-0.376,-0.024,-0.059,-0.137,-0.127
1.404,-0.02,-0.01,0.01,0.015,-0.015,0.0,0.02,-0.376,-0.024,-0.068,-0.127,-0.117
1.406,-0.029,-0.005,0.024,0.02,-0.029,0.01,0.024,-0.376,-0.024,-0.059,-0.127,-0.117
1.408,-0.039,-0.029,0.01,0.034,-0.024,-0.01,0.015,-0.386,-0.024,-0.059,-0.127,-0.117
1.41,-0.044,-0.034,0.01,0.039,-0.029,-0.015,0.01,-0.395,-0.034,-0.063,-0.127,-0.122
1.412,-0.034,-0.034,0.0,0.034,-0.02,-0.02,0.01,-0.395,-0.039,-0.063,-0.137,-0.122
1.414,-0.049,-0.039,0.01,0.044,-0.029,-0.015,0.01,-0.395,-0.039,-0.068,-0.142,-0.127
1.416,-0.049,-0.034,0.015,0.044,-0.034,-0.01,0.0,-0.386,-0.049,-0.078,-0.151,-0.137
1.418,-0.044,-0.029,0.015,0.039,-0.029,-0.01,0.0,-0.386,-0.034,-0.078,-0.146,-0.137
1.42,-0.044,-0.029,0.015,0.039,-0.029,-0.01,0.005,-0.381,-0.034,-0.073,-0.142,-0.137
1.422,-0.044,-0.034,0.01,0.039,-0.029,-0.015,0.005,-0.381,-0.034,-0.073,-0.142,-0.142
1.424,-0.054,-0.024,0.029,0.039,-0.044,0.0,0.005,-0.371,-0.024,-0.059,-0.142,-0.127
1.426,-0.034,-0.02,0.015,0.029,-0.024,-0.005,0.005,-0.371,-0.024,-0.054,-0.142,-0.122
1.428,-0.029,-0.015,0.015,0.024,-0.024,0.0,0.005,-0.371,-0.024,-0.049,-0.137,-0.117
1.43,-0.024,-0.01,0.015,0.02,-0.02,0.0,-0.005,-0.376,-0.024,-0.049,-0.132,-0.112
1.432,-0.039,-0.02,0.02,0.029,-0.029,0.0,0.0,-0.39,-0.044,-0.059,-0.142,-0.122
1.434,-0.049,-0.02,0.029,0.034,-0.039,0.005,0.0,-0.395,-0.044,-0.073,-0.161,-0.137
1.436,-0.039,-0.029,0.01,0.034,-0.024,-0.01,0.005,-0.395,-0.044,-0.078,-0.166,-0.146
1.438,-0.029,-0.029,0.0,0.029,-0.015,-0.015,0.005,-0.39,-0.044,-0.083,-0.161,-0.156
1.44,-0.039,-0.039,0.0,0.039,-0.02,-0.02,0.005,-0.39,-0.044,-0.068,-0.151,-0.142
1.442,-0.049,-0.034,0.015,0.044,-0.034,-0.01,0.005,-0.39,-0.044,-0.068,-0.146,-0.127
1.444,-0.068,-0.039,0.029,0.054,-0.049,-0.005,0.005,-0.39,-0.044,-0.063,-0.146,-0.122
1.446,-0.078,-0.054,0.024,0.068,-0.054,-0.015,0.005,-0.39,-0.044,-0.063,-0.146,-0.122
1.448,-0.054,-0.044,0.01,0.049,-0.034,-0.02,0.005,-0.39,-0.044,-0.073,-0.142,-0.127
1.45,-0.039,-0.034,0.005,0.039,-0.024,-0.015,0.005,-0.39,-0.044,-0.083,-0.146,-0.127
1.452,-0.029,-0.02,0.01,0.024,-0.02,-0.005,0.005,-0.39,-0.044,-0.073,-0.146,-0.127
1.454,-0.02,-0.005,0.015,0.015,-0.02,0.005,0.005,-0.39,-0.044,-0.073,-0.146,-0.132
1.456,-0.029,-0.01,0.02,0.02,-0.024,0.005,0.01,-0.39,-0.044,-0.073,-0.156,-0.142
1.458,-0.029,-0.015,0.015,0.024,-0.024,0.0,0.01,-0.39,-0.044,-0.073,-0.161,-0.146
1.46,-0.024,-0.01,0.015,0.02,-0.02,0.0,0.01,-0.39,-0.044,-0.073,-0.161,-0.146
1.462,-0.024,-0.024,0.0,0.024,-0.015,-0.015,0.01,-0.386,-0.044,-0.073,-0.156,-0.142
1.464,-0.049,-0.02,0.029,0.034,-0.039,0.005,0.0,-0.386,-0.044,-0.068,-0.151,-0.132
1.466,-0.049,-0.02,0.029,0.034,-0.039,0.005,-0.005,-0.386,-0.044,-0.063,-0.151,-0.132
1.468,-0.049,-0.029,0.02,0.039,-0.034,-0.005,-0.005,-0.386,-0.044,-0.059,-0.151,-0.127
1.47,-0.044,-0.029,0.015,0.039,-0.029,-0.01,-0.005,-0.386,-0.044,-0.063,-0.146,-0.127
1.472,-0.044,-0.029,0.015,0.039,-0.029,-0.01,-0.005,-0.4,-0.054,-0.068,-0.151,-0.142
1.474,-0.049,-0.034,0.015,0.044,-0.034,-0.01,-0.01,-0.405,-0.059,-0.073,-0.166,-0.151
1.476,-0.054,-0.039,0.015,0.049,-0.034,-0.015,-0.01,-0.405,-0.059,-0.078,-0.171,-0.156
1.478,-0.059,-0.044,0.015,0.054,-0.039,-0.015,-0.005,-0.41,-0.049,-0.083,-0.176,-0.166
1.48,-0.049,-0.034,0.015,0.044,-0.034,-0.01,0.005,-0.405,-0.044,-0.078,-0.161,-0.151
1.482,-0.029,-0.029,0.0,0.029,-0.015,-0.015,0.015,-0.4,-0.044,-0.068,-0.161,-0.151
1.484,-0.029,-0.039,-0.01,0.034,-0.01,-0.024,0.005,-0.395,-0.049,-0.063,-0.161,-0.156
1.486,-0.02,-0.02,0.0,0.02,-0.01,-0.01,0.005,-0.39,-0.049,-0.063,-0.166,-0.156
1.488,-0.02,-0.024,-0.005,0.024,-0.01,-0.015,0.01,-0.39,-0.054,-0.063,-0.166,-0.146
1.49,-0.02,-0.02,0.0,0.02,-0.01,-0.01,0.01,-0.395,-0.054,-0.059,-0.156,-0.142
1.492,-0.02,-0.02,0.0,0.02,-0.01,-0.01,0.01,-0.405,-0.059,-0.059,-0.156,-0.142
1.494,-0.024,-0.034,-0.01,0.029,-0.01,-0.024,0.005,-0.41,-0.059,-0.068,-0.161,-0.146
1.496,-0.034,-0.024,0.01,0.029,-0.024,-0.01,0.005,-0.4,-0.049,-0.068,-0.161,-0.146
1.498,-0.034,-0.024,0.01,0.029,-0.024,-0.01,0.0,-0.4,-0.049,-0.063,-0.161,-0.146
1.5,-0.039,-0.034,0.005,0.039,-0.024,-0.015,0.0,-0.4,-0.049,-0.063,-0.166,-0.146
1.502,-0.044,-0.044,0.0,0.044,-0.024,-0.024,0.0,-0.4,-0.049,-0.068,-0.166,-0.146
1.504,-0.034,-0.034,0.0,0.034,-0.02,-0.02,-0.01,-0.405,-0.063,-0.068,-0.161,-0.151
1.506,-0.029,-0.02,0.01,0.024,-0.02,-0.005,-0.01,-0.405,-0.063,-0.068,-0.161,-0.151
1.508,-0.029,-0.02,0.01,0.024,-0.02,-0.005,-0.005,-0.405,-0.059,-0.068,-0.166,-0.156
1.51,-0.034,-0.02,0.015,0.029,-0.024,-0.005,-0.005,-0.41,-0.059,-0.068,-0.166,-0.161
1.512,-0.049,-0.029,0.02,0.039,-0.034,-0.005,-0.01,-0.42,-0.054,-0.068,-0.166,-0.156
1.514,-0.044,-0.044,0.0,0.044,-0.024,-0.024,-0.01,-0.42,-0.054,-0.068,-0.166,-0.156
1.516,-0.049,-0.034,0.015,0.044,-0.034,-0.01,-0.01,-0.42,-0.054,-0.068,-0.161,-0.156
1.518,-0.054,-0.034,0.02,0.044,-0.039,-0.01,-0.01,-0.425,-0.059,-0.068,-0.161,-0.161
1.52,-0.029,0.0,0.029,0.015,-0.029,0.015,-0.01,-0.415,-0.063,-0.078,-0.185,-0.176
1.522,-0.039,-0.02,0.02,0.029,-0.029,0.0,-0.01,-0.41,-0.049,-0.059,-0.176,-0.166
1.524,-0.044,-0.034,0.01,0.039,-0.029,-0.015,-0.01,-0.41,-0.059,-0.063,-0.176,-0.166
1.526,-0.049,-0.039,0.01,0.044,-0.029,-0.015,-0.01,-0.41,-0.059,-0.068,-0.176,-0.166
1.528,-0.054,-0.044,0.01,0.049,-0.034,-0.02,-0.01,-0.41,-0.059,-0.073,-0.176,-0.166
1.53,-0.059,-0.049,0.01,0.054,-0.034,-0.02,-0.01,-0.41,-0.059,-0.078,-0.176,-0.166
1.532,-0.044,-0.044,0.0,0.044,-0.024,-0.024,0.0,-0.41,-0.049,-0.073,-0.166,-0.156
1.534,-0.039,-0.039,0.0,0.039,-0.02,-0.02,0.0,-0.41,-0.049,-0.068,-0.166,-0.156
1.536,-0.034,-0.034,0.0,0.034,-0.02,-0.02,0.0,-0.41,-0.049,-0.063,-0.166,-0.156
1.538,-0.029,-0.029,0.0,0.029,-0.015,-0.015,0.0,-0.41,-0.049,-0.059,-0.166,-0.156
1.54,-0.044,-0.039,0.005,0.044,-0.024,-0.02,0.0,-0.42,-0.059,-0.063,-0.176,-0.161
1.542,-0.049,-0.039,0.01,0.044,-0.029,-0.015,0.0,-0.42,-0.059,-0.068,-0.176,-0.166
1.544,-0.054,-0.039,0.015,0.049,-0.034,-0.015,0.0,-0.42,-0.059,-0.073,-0.176,-0.171
1.546,-0.059,-0.039,0.02,0.049,-0.039,-0.01,0.0,-0.42,-0.059,-0.078,-0.176,-0.176
1.548,-0.068,-0.054,0.015,0.063,-0.044,-0.02,-0.01,-0.42,-0.059,-0.078,-0.176,-0.166
1.55,-0.068,-0.059,0.01,0.063,-0.039,-0.024,-0.01,-0.42,-0.059,-0.078,-0.176,-0.166
1.552,-0.068,-0.063,0.005,0.068,-0.039,-0.029,-0.01,-0.42,-0.059,-0.078,-0.176,-0.166
1.554,-0.068,-0.068,0.0,0.068,-0.034,-0.034,-0.01,-0.42,-0.059,-0.078,-0.176,-0.166
1.556,-0.049,-0.054,-0.005,0.054,-0.024,-0.029,0.0,-0.41,-0.049,-0.068,-0.166,-0.156
1.558,-0.039,-0.039,0.0,0.039,-0.02,-0.02,0.0,-0.41,-0.049,-0.068,-0.166,-0.156
1.56,-0.029,-0.024,0.005,0.029,-0.02,-0.01,0.0,-0.41,-0.049,-0.068,-0.166,-0.156
1.562,-0.02,-0.01,0.01,0.015,-0.015,0.0,0.0,-0.41,-0.049,-0.068,-0.166,-0.156
1.564,-0.029,-0.02,0.01,0.024,-0.02,-0.005,0.0,-0.41,-0.039,-0.059,-0.166,-0.156
1.566,-0.029,-0.02,0.01,0.024,-0.02,-0.005,0.0,-0.41,-0.039,-0.059,-0.166,-0.156
1.568,-0.029,-0.02,0.01,0.024,-0.02,-0.005,0.0,-0.41,-0.039,-0.059,-0.166,-0.156
1.57,-0.029,-0.02,0.01,0.024,-0.02,-0.005,0.0,-0.41,-0.039,-0.059,-0.166,-0.156
1.572,-0.039,-0.02,0.02,0.029,-0.029,0.0,-0.01,-0.42,-0.044,-0.063,-0.176,-0.156
1.574,-0.049,-0.02,0.029,0.034,-0.039,0.005,-0.01,-0.42,-0.049,-0.068,-0.176,-0.156
1.576,-0.059,-0.02,0.039,0.039,-0.049,0.01,-0.01,-0.42,-0.054,-0.073,-0.176,-0.156
1.578,-0.068,-0.02,0.049,0.044,-0.059,0.015,-0.01,-0.42,-0.059,-0.078,-0.176,-0.156
1.58,-0.059,-0.034,0.024,0.049,-0.044,-0.005,-0.01,-0.42,-0.059,-0.078,-0.185,-0.166
1.582,-0.049,-0.039,0.01,0.044,-0.029,-0.015,-0.01,-0.42,-0.059,-0.078,-0.185,-0.166
1.584,-0.039,-0.044,-0.005,0.044,-0.02,-0.024,-0.01,-0.42,-0.059,-0.078,-0.185,-0.166
1.586,-0.029,-0.049,-0.02,0.039,-0.005,-0.034,-0.01,-0.42,-0.059,-0.078,-0.185,-0.166
1.588,-0.034,-0.049,-0.015,0.044,-0.01,-0.034,0.0,-0.42,-0.049,-0.068,-0.185,-0.161
1.59,-0.039,-0.049,-0.01,0.044,-0.015,-0.029,0.0,-0.42,-0.049,-0.068,-0.185,-0.156
1.592,-0.044,-0.049,-0.005,0.049,-0.02,-0.029,0.0,-0.42,-0.049,-0.068,-0.185,-0.151
1.594,-0.049,-0.049,0.0,0.049,-0.024,-0.024,0.0,-0.42,-0.049,-0.068,-0.185,-0.146
1.596,-0.049,-0.034,0.015,0.044,-0.034,-0.01,-0.01,-0.429,-0.059,-0.073,-0.19,-0.151
1.598,-0.049,-0.029,0.02,0.039,-0.034,-0.005,-0.01,-0.429,-0.059,-0.078,-0.195,-0.156
1.6,-0.049,-0.024,0.024,0.039,-0.039,0.0,-0.01,-0.429,-0.059,-0.083,-0.2,-0.161
1.602,-0.049,-0.02,0.029,0.034,-0.039,0.005,-0.01,-0.429,-0.059,-0.088,-0.205,-0.166
1.604,-0.044,-0.02,0.024,0.034,-0.034,0.0,-0.01,-0.42,-0.049,-0.078,-0.195,-0.156
1.606,-0.039,-0.02,0.02,0.029,-0.029,0.0,-0.01,-0.42,-0.049,-0.078,-0.195,-0.156
1.608,-0.034,-0.02,0.015,0.029,-0.024,-0.005,-0.01,-0.42,-0.049,-0.078,-0.195,-0.156
1.61,-0.029,-0.02,0.01,0.024,-0.02,-0.005,-0.01,-0.42,-0.049,-0.078,-0.195,-0.156
1.612,-0.039,-0.029,0.01,0.034,-0.024,-0.01,0.0,-0.42,-0.049,-0.088,-0.205,-0.166
1.614,-0.039,-0.029,0.01,0.034,-0.024,-0.01,0.0,-0.42,-0.049,-0.088,-0.205,-0.166
1.616,-0.039,-0.029,0.01,0.034,-0.024,-0.01,0.0,-0.42,-0.049,-0.088,-0.205,-0.166
1.618,-0.039,-0.029,0.01,0.034,-0.024,-0.01,0.0,-0.42,-0.049,-0.088,-0.205,-0.166
1.62,-0.044,-0.039,0.005,0.044,-0.024,-0.02,-0.005,-0.429,-0.054,-0.078,-0.195,-0.156
1.622,-0.049,-0.039,0.01,0.044,-0.029,-0.015,-0.01,-0.429,-0.059,-0.078,-0.195,-0.156
1.624,-0.054,-0.039,0.015,0.049,-0.034,-0.015,-0.015,-0.429,-0.063,-0.078,-0.195,-0.156
1.626,-0.059,-0.039,0.02,0.049,-0.039,-0.01,-0.02,-0.429,-0.068,-0.078,-0.195,-0.156
1.628,-0.068,-0.049,0.02,0.059,-0.044,-0.015,-0.02,-0.439,-0.059,-0.083,-0.2,-0.166
1.63,-0.068,-0.049,0.02,0.059,-0.044,-0.015,-0.02,-0.439,-0.059,-0.088,-0.205,-0.176
1.632,-0.068,-0.049,0.02,0.059,-0.044,-0.015,-0.02,-0.439,-0.059,-0.093,-0.21,-0.185
1.634,-0.068,-0.049,0.02,0.059,-0.044,-0.015,-0.02,-0.439,-0.059,-0.098,-0.215,-0.195
1.636,-0.059,-0.034,0.024,0.049,-0.044,-0.005,-0.01,-0.434,-0.049,-0.088,-0.205,-0.185
1.638,-0.049,-0.029,0.02,0.039,-0.034,-0.005,-0.01,-0.429,-0.049,-0.088,-0.205,-0.176
1.64,-0.039,-0.024,0.015,0.034,-0.029,-0.005,-0.01,-0.425,-0.049,-0.088,-0.205,-0.166
1.642,-0.029,-0.02,0.01,0.024,-0.02,-0.005,-0.01,-0.42,-0.049,-0.088,-0.205,-0.156
1.644,-0.039,-0.02,0.02,0.029,-0.029,0.0,-0.02,-0.41,-0.039,-0.073,-0.2,-0.146
1.646,-0.039,-0.02,0.02,0.029,-0.029,0.0,-0.02,-0.41,-0.039,-0.068,-0.195,-0.146
1.648,-0.039,-0.02,0.02,0.029,-0.029,0.0,-0.02,-0.41,-0.039,-0.063,-0.19,-0.146
1.65,-0.039,-0.02,0.02,0.029,-0.029,0.0,-0.02,-0.41,-0.039,-0.059,-0.185,-0.146
1.652,-0.044,-0.029,0.015,0.039,-0.029,-0.01,-0.02,-0.425,-0.044,-0.068,-0.195,-0.156
1.654,-0.049,-0.029,0.02,0.039,-0.034,-0.005,-0.02,-0.429,-0.049,-0.078,-0.205,-0.166
1.656,-0.054,-0.029,0.024,0.044,-0.039,-0.005,-0.02,-0.434,-0.054,-0.088,-0.215,-0.176
1.658,-0.059,-0.029,0.029,0.044,-0.044,0.0,-0.02,-0.439,-0.059,-0.098,-0.224,-0.185
1.66,-0.044,-0.02,0.024,0.034,-0.034,0.0,-0.02,-0.429,-0.049,-0.088,-0.22,-0.181
1.662,-0.039,-0.02,0.02,0.029,-0.029,0.0,-0.02,-0.429,-0.049,-0.088,-0.215,-0.176
1.664,-0.034,-0.02,0.015,0.029,-0.024,-0.005,-0.02,-0.429,-0.049,-0.088,-0.21,-0.171
1.666,-0.029,-0.02,0.01,0.024,-0.02,-0.005,-0.02,-0.429,-0.049,-0.088,-0.205,-0.166
1.668,-0.034,-0.02,0.015,0.029,-0.024,-0.005,-0.02,-0.429,-0.039,-0.088,-0.205,-0.176
1.67,-0.039,-0.02,0.02,0.029,-0.029,0.0,-0.02,-0.429,-0.039,-0.088,-0.205,-0.176
1.672,-0.044,-0.02,0.024,0.034,-0.034,0.0,-0.02,-0.429,-0.039,-0.088,-0.205,-0.176
1.674,-0.049,-0.02,0.029,0.034,-0.039,0.005,-0.02,-0.429,-0.039,-0.088,-0.205,-0.176
1.676,-0.039,-0.02,0.02,0.029,-0.029,0.0,-0.029,-0.439,-0.044,-0.093,-0.21,-0.176
1.678,-0.039,-0.02,0.02,0.029,-0.029,0.0,-0.029,-0.439,-0.049,-0.098,-0.215,-0.176
1.68,-0.039,-0.02,0.02,0.029,-0.029,0.0,-0.029,-0.439,-0.054,-0.102,-0.22,-0.176
1.682,-0.039,-0.02,0.02,0.029,-0.029,0.0,-0.029,-0.439,-0.059,-0.107,-0.224,-0.176
1.684,-0.044,-0.029,0.015,0.039,-0.029,-0.01,-0.029,-0.449,-0.068,-0.098,-0.224,-0.176
1.686,-0.049,-0.029,0.02,0.039,-0.034,-0.005,-0.029,-0.449,-0.068,-0.098,-0.224,-0.176
1.688,-0.054,-0.029,0.024,0.044,-0.039,-0.005,-0.029,-0.449,-0.068,-0.098,-0.224,-0.176
1.69,-0.059,-0.029,0.029,0.044,-0.044,0.0,-0.029,-0.449,-0.068,-0.098,-0.224,-0.176
1.692,-0.044,-0.024,0.02,0.034,-0.034,-0.005,-0.024,-0.444,-0.063,-0.098,-0.215,-0.166
1.694,-0.039,-0.02,0.02,0.029,-0.029,0.0,-0.02,-0.439,-0.059,-0.098,-0.215,-0.166
1.696,-0.034,-0.015,0.02,0.024,-0.029,0.0,-0.015,-0.434,-0.054,-0.098,-0.215,-0.166
1.698,-0.029,-0.01,0.02,0.02,-0.024,0.005,-0.01,-0.429,-0.049,-0.098,-0.215,-0.166
1.7,-0.044,-0.015,0.029,0.029,-0.039,0.005,-0.02,-0.429,-0.054,-0.088,-0.215,-0.171
1.702,-0.044,-0.015,0.029,0.029,-0.039,0.005,-0.01,-0.42,-0.049,-0.088,-0.2,-0.161
1.704,-0.034,-0.01,0.024,0.024,-0.029,0.005,-0.005,-0.42,-0.044,-0.078,-0.2,-0.161
1.706,-0.039,-0.02,0.02,0.029,-0.029,0.0,0.0,-0.42,-0.044,-0.073,-0.2,-0.166
1.708,-0.054,-0.01,0.044,0.034,-0.049,0.015,-0.01,-0.429,-0.044,-0.073,-0.2,-0.171
1.71,-0.059,0.0,0.059,0.029,-0.059,0.029,-0.01,-0.425,-0.039,-0.073,-0.205,-0.166
1.712,-0.039,0.02,0.059,0.01,-0.049,0.039,0.0,-0.42,-0.029,-0.073,-0.2,-0.171
1.714,-0.02,0.039,0.059,-0.01,-0.039,0.049,0.005,-0.405,-0.02,-0.054,-0.2,-0.166
1.716,-0.01,0.039,0.049,-0.015,-0.029,0.044,0.024,-0.405,-0.01,-0.063,-0.185,-0.151
1.718,0.0,0.054,0.054,-0.024,-0.029,0.054,0.024,-0.405,-0.01,-0.063,-0.185,-0.146
1.72,0.0,0.063,0.063,-0.029,-0.034,0.063,0.024,-0.4,-0.005,-0.063,-0.181,-0.137
1.722,-0.005,0.049,0.054,-0.02,-0.029,0.049,0.024,-0.4,-0.005,-0.063,-0.181,-0.132
1.724,-0.005,0.039,0.044,-0.015,-0.024,0.039,0.015,-0.405,-0.015,-0.073,-0.195,-0.142
1.726,-0.005,0.039,0.044,-0.015,-0.024,0.039,0.015,-0.405,-0.02,-0.073,-0.195,-0.146
1.728,0.0,0.044,0.044,-0.02,-0.024,0.044,0.02,-0.39,-0.015,-0.063,-0.185,-0.146
1.73,0.0,0.044,0.044,-0.02,-0.024,0.044,0.024,-0.39,-0.015,-0.059,-0.181,-0.142
1.732,-0.015,0.039,0.054,-0.01,-0.034,0.044,0.024,-0.381,-0.005,-0.059,-0.19,-0.146
1.734,-0.01,0.039,0.049,-0.015,-0.029,0.044,0.024,-0.371,0.005,-0.054,-0.181,-0.146
1.736,-0.015,0.044,0.059,-0.015,-0.039,0.049,0.024,-0.366,0.01,-0.044,-0.176,-0.146
1.738,-0.02,0.039,0.059,-0.01,-0.039,0.049,0.024,-0.366,0.015,-0.044,-0.176,-0.146
1.74,-0.005,0.049,0.054,-0.02,-0.029,0.049,0.02,-0.366,0.015,-0.044,-0.166,-0.146
1.742,0.005,0.059,0.054,-0.029,-0.024,0.054,0.01,-0.366,0.015,-0.039,-0.166,-0.142
1.744,0.01,0.073,0.063,-0.039,-0.029,0.068,0.005,-0.366,0.015,-0.039,-0.161,-0.137
1.746,0.005,0.083,0.078,-0.044,-0.039,0.078,-0.005,-0.376,0.01,-0.034,-0.161,-0.132
1.748,0.005,0.073,0.068,-0.039,-0.034,0.068,-0.02,-0.386,0.005,-0.034,-0.171,-0.122
1.75,0.0,0.073,0.073,-0.034,-0.039,0.073,-0.029,-0.4,0.0,-0.044,-0.176,-0.132
1.752,-0.01,0.063,0.073,-0.024,-0.044,0.068,-0.049,-0.42,-0.02,-0.063,-0.185,-0.142
1.754,-0.024,0.034,0.059,-0.005,-0.044,0.044,-0.068,-0.439,-0.034,-0.083,-0.195,-0.151
1.756,-0.02,0.049,0.068,-0.015,-0.044,0.059,-0.059,-0.439,-0.039,-0.083,-0.195,-0.151
1.758,0.0,0.054,0.054,-0.024,-0.029,0.054,-0.068,-0.444,-0.049,-0.093,-0.2,-0.161
1.76,0.005,0.054,0.049,-0.029,-0.024,0.049,-0.068,-0.444,-0.059,-0.102,-0.21,-0.171
1.762,0.01,0.054,0.044,-0.029,-0.02,0.049,-0.063,-0.444,-0.049,-0.093,-0.21,-0.161
1.764,-0.01,0.044,0.054,-0.015,-0.034,0.049,-0.059,-0.454,-0.039,-0.088,-0.215,-0.176
1.766,-0.01,0.039,0.049,-0.015,-0.029,0.044,-0.054,-0.454,-0.039,-0.088,-0.215,-0.176
1.768,-0.005,0.039,0.044,-0.015,-0.024,0.039,-0.054,-0.449,-0.039,-0.088,-0.21,-0.176
1.77,0.005,0.049,0.044,-0.024,-0.02,0.044,-0.054,-0.449,-0.039,-0.088,-0.21,-0.181
1.772,-0.01,0.034,0.044,-0.01,-0.029,0.039,-0.054,-0.464,-0.049,-0.098,-0.22,-0.19
1.774,-0.029,0.015,0.044,0.01,-0.039,0.029,-0.054,-0.464,-0.054,-0.102,-0.224,-0.19
1.776,-0.034,0.0,0.034,0.02,-0.034,0.015,-0.054,-0.464,-0.059,-0.107,-0.224,-0.19
1.778,-0.044,-0.01,0.034,0.029,-0.039,0.01,-0.049,-0.459,-0.059,-0.107,-0.224,-0.19
1.78,-0.02,0.0,0.02,0.01,-0.02,0.01,-0.034,-0.454,-0.054,-0.102,-0.215,-0.185
1.782,-0.015,0.005,0.02,0.005,-0.02,0.01,-0.029,-0.449,-0.049,-0.107,-0.215,-0.19
1.784,0.0,0.01,0.01,-0.005,-0.005,0.01,-0.029,-0.444,-0.049,-0.102,-0.224,-0.19
1.786,0.02,0.015,-0.005,-0.015,0.01,0.005,-0.029,-0.449,-0.049,-0.107,-0.229,-0.185
1.788,0.01,0.02,0.01,-0.015,0.0,0.015,-0.029,-0.449,-0.044,-0.098,-0.224,-0.195
1.79,-0.015,0.005,0.02,0.005,-0.02,0.01,-0.029,-0.454,-0.044,-0.098,-0.234,-0.205
1.792,-0.024,-0.01,0.015,0.02,-0.02,0.0,-0.034,-0.454,-0.054,-0.117,-0.239,-0.224
1.794,-0.034,-0.01,0.024,0.024,-0.029,0.005,-0.034,-0.454,-0.059,-0.117,-0.249,-0.229
1.796,-0.039,-0.029,0.01,0.034,-0.024,-0.01,-0.029,-0.454,-0.073,-0.127,-0.254,-0.234
1.798,-0.044,-0.039,0.005,0.044,-0.024,-0.02,-0.029,-0.454,-0.083,-0.137,-0.259,-0.239
1.8,-0.049,-0.054,-0.005,0.054,-0.024,-0.029,-0.029,-0.459,-0.088,-0.142,-0.264,-0.239
1.802,-0.054,-0.063,-0.01,0.059,-0.024,-0.039,-0.029,-0.459,-0.093,-0.146,-0.268,-0.234
1.804,-0.034,-0.044,-0.01,0.039,-0.015,-0.029,-0.029,-0.459,-0.078,-0.146,-0.264,-0.244
1.806,-0.034,-0.054,-0.02,0.044,-0.01,-0.039,-0.034,-0.464,-0.078,-0.146,-0.264,-0.244
1.808,-0.049,-0.073,-0.024,0.063,-0.015,-0.049,-0.034,-0.464,-0.083,-0.146,-0.268,-0.249
1.81,-0.049,-0.073,-0.024,0.063,-0.015,-0.049,-0.029,-0.459,-0.083,-0.146,-0.268,-0.249
1.812,-0.039,-0.054,-0.015,0.049,-0.015,-0.034,-0.039,-0.468,-0.088,-0.137,-0.268,-0.259
1.814,-0.034,-0.049,-0.015,0.044,-0.01,-0.034,-0.039,-0.468,-0.088,-0.137,-0.268,-0.259
1.816,-0.039,-0.044,-0.005,0.044,-0.02,-0.024,-0.039,-0.464,-0.088,-0.137,-0.268,-0.254
1.818,-0.024,-0.034,-0.01,0.029,-0.01,-0.024,-0.039,-0.464,-0.088,-0.137,-0.268,-0.254
1.82,-0.039,-0.024,0.015,0.034,-0.029,-0.005,-0.029,-0.464,-0.078,-0.137,-0.264,-0.254
1.822,-0.044,-0.034,0.01,0.039,-0.029,-0.015,-0.024,-0.464,-0.078,-0.137,-0.264,-0.254
1.824,-0.049,-0.039,0.01,0.044,-0.029,-0.015,-0.024,-0.464,-0.078,-0.137,-0.264,-0.254
1.826,-0.054,-0.039,0.015,0.049,-0.034,-0.015,-0.024,-0.464,-0.078,-0.137,-0.264,-0.249
1.828,-0.049,-0.054,-0.005,0.054,-0.024,-0.029,-0.034,-0.473,-0.083,-0.146,-0.273,-0.259
1.83,-0.059,-0.054,0.005,0.059,-0.034,-0.024,-0.029,-0.468,-0.083,-0.146,-0.268,-0.259
1.832,-0.054,-0.044,0.01,0.049,-0.034,-0.02,-0.024,-0.468,-0.078,-0.142,-0.268,-0.259
1.834,-0.044,-0.044,0.0,0.044,-0.024,-0.024,-0.024,-0.468,-0.078,-0.142,-0.268,-0.264
1.836,-0.049,-0.059,-0.01,0.054,-0.02,-0.034,-0.024,-0.459,-0.073,-0.132,-0.273,-0.264
1.838,-0.063,-0.068,-0.005,0.068,-0.029,-0.039,-0.02,-0.464,-0.083,-0.142,-0.273,-0.264
1.84,-0.068,-0.073,-0.005,0.073,-0.034,-0.039,-0.015,-0.464,-0.083,-0.142,-0.268,-0.259
1.842,-0.063,-0.068,-0.005,0.068,-0.029,-0.039,-0.01,-0.464,-0.078,-0.142,-0.259,-0.249
1.844,-0.063,-0.054,0.01,0.059,-0.039,-0.024,-0.015,-0.464,-0.068,-0.142,-0.259,-0.254
1.846,-0.063,-0.049,0.015,0.059,-0.039,-0.02,-0.029,-0.464,-0.068,-0.142,-0.264,-0.259
1.848,-0.059,-0.049,0.01,0.054,-0.034,-0.02,-0.024,-0.459,-0.059,-0.137,-0.268,-0.264
1.85,-0.059,-0.049,0.01,0.054,-0.034,-0.02,-0.024,-0.459,-0.059,-0.137,-0.268,-0.264
1.852,-0.049,-0.039,0.01,0.044,-0.029,-0.015,-0.024,-0.468,-0.078,-0.146,-0.268,-0.264
1.854,-0.059,-0.029,0.029,0.044,-0.044,0.0,-0.015,-0.468,-0.078,-0.137,-0.268,-0.264
1.856,-0.059,-0.024,0.034,0.044,-0.049,0.005,0.005,-0.444,-0.068,-0.127,-0.259,-0.249
1.858,-0.054,-0.024,0.029,0.039,-0.044,0.0,-0.005,-0.454,-0.078,-0.146,-0.273,-0.268
1.86,-0.034,0.0,0.034,0.02,-0.034,0.015,0.005,-0.454,-0.078,-0.151,-0.283,-0.278
1.862,-0.049,0.01,0.059,0.02,-0.054,0.034,0.02,-0.454,-0.068,-0.166,-0.303,-0.278
1.864,-0.078,0.01,0.088,0.034,-0.083,0.049,0.034,-0.459,-0.073,-0.171,-0.307,-0.283
1.866,-0.059,0.044,0.102,0.01,-0.083,0.073,0.049,-0.473,-0.083,-0.176,-0.317,-0.293
1.868,-0.054,0.088,0.142,-0.015,-0.098,0.112,0.059,-0.478,-0.083,-0.19,-0.322,-0.298
1.87,-0.073,0.127,0.2,-0.024,-0.137,0.161,0.068,-0.478,-0.073,-0.181,-0.312,-0.283
1.872,-0.029,0.19,0.22,-0.078,-0.127,0.205,0.073,-0.468,-0.073,-0.171,-0.298,-0.249
1.874,0.015,0.229,0.215,-0.122,-0.102,0.22,0.088,-0.449,-0.068,-0.166,-0.293,-0.229
1.876,-0.034,0.2,0.234,-0.083,-0.137,0.215,0.107,-0.429,-0.049,-0.156,-0.273,-0.21
1.878,-0.059,0.156,0.215,-0.049,-0.137,0.185,0.098,-0.395,-0.024,-0.117,-0.229,-0.171
1.88,-0.024,0.171,0.195,-0.073,-0.112,0.181,0.093,-0.366,0.02,-0.073,-0.171,-0.093
1.882,0.0,0.205,0.205,-0.102,-0.102,0.205,0.102,-0.312,0.083,-0.01,-0.107,-0.015
1.884,0.034,0.224,0.19,-0.127,-0.078,0.205,0.107,-0.249,0.166,0.073,-0.01,0.059
1.886,0.068,0.234,0.166,-0.151,-0.049,0.2,0.112,-0.171,0.264,0.195,0.117,0.166
1.888,0.073,0.229,0.156,-0.151,-0.044,0.19,0.112,-0.088,0.381,0.356,0.293,0.303
1.89,0.093,0.244,0.151,-0.166,-0.029,0.195,0.102,-0.044,0.478,0.532,0.488,0.468
1.892,0.19,0.327,0.137,-0.259,0.024,0.229,0.02,-0.063,0.542,0.722,0.742,0.703
1.894,0.278,0.425,0.146,-0.351,0.063,0.283,-0.112,-0.127,0.615,0.947,1.049,0.991
1.896,0.337,0.425,0.088,-0.381,0.122,0.254,-0.254,-0.142,0.712,1.21,1.357,1.244
1.898,0.386,0.312,-0.073,-0.346,0.229,0.117,-0.366,-0.127,0.844,1.498,1.698,1.474
1.9,0.405,0.176,-0.229,-0.288,0.317,-0.029,-0.449,-0.083,1.01,1.81,2.05,1.693
1.902,0.405,0.127,-0.278,-0.264,0.342,-0.078,-0.503,-0.063,1.132,2.035,2.289,1.85
1.904,0.425,0.156,-0.268,-0.288,0.346,-0.059,-0.551,-0.127,1.132,2.123,2.386,1.879
1.906,0.415,0.151,-0.264,-0.283,0.337,-0.059,-0.59,-0.229,1.093,2.147,2.406,1.825
1.908,0.342,0.068,-0.273,-0.205,0.307,-0.102,-0.571,-0.288,1.064,2.123,2.372,1.732
1.91,0.288,0.034,-0.254,-0.161,0.268,-0.112,-0.542,-0.342,0.986,2.015,2.225,1.557
1.912,0.288,0.02,-0.268,-0.151,0.278,-0.127,-0.537,-0.429,0.81,1.771,1.937,1.308
1.914,0.239,-0.01,-0.249,-0.112,0.244,-0.132,-0.522,-0.527,0.595,1.454,1.591,1.03
1.916,0.166,-0.02,-0.185,-0.073,0.176,-0.102,-0.493,-0.6,0.415,1.152,1.235,0.771
1.918,0.083,-0.039,-0.122,-0.02,0.102,-0.083,-0.473,-0.673,0.224,0.83,0.888,0.512
1.92,0.005,-0.078,-0.083,0.039,0.044,-0.083,-0.449,-0.776,0.01,0.459,0.498,0.244
1.922,-0.054,-0.122,-0.068,0.088,0.005,-0.098,-0.434,-0.878,-0.249,0.068,0.093,-0.02
1.924,-0.078,-0.171,-0.093,0.127,0.005,-0.132,-0.434,-0.942,-0.425,-0.22,-0.215,-0.22
1.926,-0.073,-0.2,-0.127,0.137,0.024,-0.166,-0.425,-0.942,-0.468,-0.346,-0.371,-0.346
1.928,-0.088,-0.244,-0.156,0.166,0.034,-0.2,-0.42,-0.932,-0.488,-0.415,-0.468,-0.449
1.93,-0.098,-0.278,-0.181,0.19,0.039,-0.229,-0.434,-0.927,-0.498,-0.454,-0.532,-0.508
1.932,-0.073,-0.303,-0.229,0.19,0.078,-0.268,-0.42,-0.903,-0.473,-0.425,-0.508,-0.488
1.934,-0.073,-0.303,-0.229,0.19,0.078,-0.268,-0.371,-0.839,-0.415,-0.361,-0.454,-0.444
1.936,-0.073,-0.273,-0.2,0.176,0.063,-0.239,-0.312,-0.771,-0.376,-0.332,-0.429,-0.42
1.938,-0.029,-0.205,-0.176,0.117,0.073,-0.19,-0.259,-0.712,-0.351,-0.332,-0.429,-0.429
1.94,-0.024,-0.2,-0.176,0.112,0.073,-0.19,-0.21,-0.673,-0.298,-0.312,-0.415,-0.42
1.942,-0.063,-0.229,-0.166,0.146,0.049,-0.2,-0.166,-0.639,-0.254,-0.278,-0.39,-0.4
1.944,-0.068,-0.224,-0.156,0.146,0.044,-0.19,-0.146,-0.615,-0.229,-0.259,-0.371,-0.371
1.946,-0.034,-0.166,-0.132,0.102,0.049,-0.151,-0.127,-0.6,-0.19,-0.224,-0.342,-0.342
1.948,-0.005,-0.127,-0.122,0.068,0.059,-0.127,-0.088,-0.566,-0.127,-0.166,-0.293,-0.303
1.95,-0.005,-0.093,-0.088,0.049,0.039,-0.093,-0.049,-0.517,-0.073,-0.122,-0.254,-0.273
1.952,-0.024,-0.088,-0.063,0.059,0.02,-0.078,-0.015,-0.473,-0.039,-0.088,-0.239,-0.259
1.954,-0.049,-0.073,-0.024,0.063,-0.015,-0.049,0.02,-0.425,0.0,-0.059,-0.21,-0.239
1.956,-0.039,-0.059,-0.02,0.049,-0.01,-0.039,0.034,-0.41,0.0,-0.068,-0.22,-0.249
1.958,-0.044,-0.054,-0.01,0.049,-0.02,-0.034,0.044,-0.405,-0.005,-0.083,-0.229,-0.264
1.96,-0.044,-0.049,-0.005,0.049,-0.02,-0.029,0.054,-0.4,-0.01,-0.093,-0.239,-0.268
1.962,-0.044,-0.039,0.005,0.044,-0.024,-0.02,0.068,-0.395,-0.01,-0.093,-0.239,-0.268
1.964,-0.044,-0.029,0.015,0.039,-0.029,-0.01,0.078,-0.39,-0.01,-0.088,-0.234,-0.259
1.966,-0.034,-0.029,0.005,0.034,-0.02,-0.015,0.078,-0.39,0.0,-0.078,-0.229,-0.259
1.968,-0.044,-0.034,0.01,0.039,-0.029,-0.015,0.078,-0.39,0.015,-0.068,-0.22,-0.249
1.97,-0.054,-0.049,0.005,0.054,-0.029,-0.024,0.083,-0.39,0.015,-0.063,-0.22,-0.249
1.972,-0.039,-0.039,0.0,0.039,-0.02,-0.02,0.093,-0.39,0.024,-0.054,-0.22,-0.259
1.974,-0.029,-0.029,0.0,0.029,-0.015,-0.015,0.102,-0.376,0.024,-0.054,-0.215,-0.259
1.976,-0.029,-0.02,0.01,0.024,-0.02,-0.005,0.107,-0.371,0.024,-0.054,-0.215,-0.254
1.978,-0.029,-0.005,0.024,0.02,-0.029,0.01,0.112,-0.366,0.024,-0.054,-0.22,-0.254
1.98,-0.02,0.01,0.029,0.005,-0.024,0.02,0.127,-0.351,0.029,-0.044,-0.21,-0.244
1.982,-0.024,0.01,0.034,0.01,-0.029,0.02,0.132,-0.351,0.029,-0.044,-0.21,-0.239
1.984,-0.034,0.01,0.044,0.015,-0.039,0.024,0.137,-0.351,0.029,-0.049,-0.21,-0.239
1.986,-0.039,-0.005,0.034,0.024,-0.039,0.015,0.142,-0.351,0.034,-0.049,-0.205,-0.239
1.988,-0.054,-0.015,0.039,0.034,-0.049,0.01,0.142,-0.356,0.039,-0.039,-0.21,-0.229
1.99,-0.044,-0.015,0.029,0.029,-0.039,0.005,0.142,-0.361,0.044,-0.034,-0.2,-0.229
1.992,-0.049,-0.024,0.024,0.039,-0.039,0.0,0.142,-0.366,0.044,-0.034,-0.2,-0.229
1.994,-0.063,-0.034,0.029,0.049,-0.049,-0.005,0.146,-0.366,0.044,-0.034,-0.2,-0.229
1.996,-0.044,-0.01,0.034,0.029,-0.039,0.01,0.151,-0.351,0.044,-0.029,-0.21,-0.234
1.998,-0.02,0.015,0.034,0.005,-0.029,0.024,0.156,-0.351,0.044,-0.024,-0.2,-0.234
2.0,-0.01,0.034,0.044,-0.01,-0.029,0.039,0.166,-0.351,0.049,-0.024,-0.2,-0.229
2.002,-0.01,0.044,0.054,-0.015,-0.034,0.049,0.176,-0.346,0.049,-0.024,-0.2,-0.229
2.004,-0.029,0.029,0.059,0.0,-0.044,0.044,0.176,-0.351,0.039,-0.029,-0.21,-0.239
2.006,-0.034,0.015,0.049,0.01,-0.044,0.029,0.171,-0.356,0.034,-0.034,-0.21,-0.239
2.008,-0.039,0.01,0.049,0.015,-0.044,0.029,0.166,-0.361,0.039,-0.029,-0.205,-0.234
2.01,-0.039,0.01,0.049,0.015,-0.044,0.029,0.161,-0.361,0.039,-0.029,-0.195,-0.234
2.012,-0.034,0.01,0.044,0.015,-0.039,0.024,0.161,-0.351,0.044,-0.015,-0.19,-0.229
2.014,-0.034,0.01,0.044,0.015,-0.039,0.024,0.166,-0.346,0.049,-0.01,-0.185,-0.224
2.016,-0.044,0.01,0.054,0.02,-0.049,0.029,0.166,-0.342,0.054,-0.01,-0.176,-0.224
2.018,-0.034,0.015,0.049,0.01,-0.044,0.029,0.166,-0.342,0.059,-0.01,-0.171,-0.22
2.02,-0.02,0.02,0.039,0.0,-0.029,0.029,0.166,-0.342,0.039,-0.02,-0.181,-0.229
2.022,-0.015,0.029,0.044,-0.005,-0.029,0.034,0.171,-0.337,0.054,-0.015,-0.181,-0.22
2.024,-0.015,0.029,0.044,-0.005,-0.029,0.034,0.171,-0.337,0.059,-0.015,-0.171,-0.21
2.026,-0.029,0.029,0.059,0.0,-0.044,0.044,0.166,-0.337,0.059,-0.015,-0.171,-0.21
2.028,-0.029,0.024,0.054,0.005,-0.044,0.039,0.176,-0.337,0.063,0.0,-0.166,-0.2
2.03,-0.029,0.02,0.049,0.005,-0.039,0.034,0.176,-0.337,0.063,0.0,-0.156,-0.2
2.032,-0.029,0.02,0.049,0.005,-0.039,0.034,0.171,-0.337,0.068,0.01,-0.151,-0.195
2.034,-0.024,0.01,0.034,0.01,-0.029,0.02,0.161,-0.337,0.068,0.01,-0.146,-0.195
2.036,-0.034,0.0,0.034,0.02,-0.034,0.015,0.176,-0.322,0.073,0.02,-0.151,-0.19
2.038,-0.034,0.02,0.054,0.01,-0.044,0.034,0.181,-0.312,0.073,0.02,-0.151,-0.181
2.04,-0.024,0.02,0.044,0.005,-0.034,0.029,0.181,-0.312,0.073,0.024,-0.146,-0.166
2.042,-0.034,0.02,0.054,0.01,-0.044,0.034,0.181,-0.312,0.078,0.024,-0.142,-0.146
2.044,-0.034,0.024,0.059,0.005,-0.049,0.039,0.171,-0.322,0.068,0.024,-0.142,-0.156
2.046,-0.034,0.034,0.068,0.0,-0.054,0.049,0.171,-0.312,0.083,0.02,-0.137,-0.161
2.048,-0.029,0.039,0.068,-0.005,-0.049,0.054,0.171,-0.312,0.088,0.029,-0.132,-0.166
2.05,-0.015,0.044,0.059,-0.015,-0.039,0.049,0.171,-0.312,0.093,0.029,-0.127,-0.166
2.052,-0.005,0.044,0.049,-0.02,-0.029,0.044,0.171,-0.312,0.093,0.039,-0.107,-0.166
2.054,-0.01,0.039,0.049,-0.015,-0.029,0.044,0.171,-0.307,0.093,0.039,-0.107,-0.171
2.056,-0.02,0.039,0.059,-0.01,-0.039,0.049,0.171,-0.307,0.093,0.044,-0.107,-0.181
2.058,-0.01,0.054,0.063,-0.02,-0.039,0.059,0.171,-0.298,0.098,0.044,-0.112,-0.185
2.06,-0.01,0.054,0.063,-0.02,-0.039,0.059,0.171,-0.303,0.098,0.039,-0.117,-0.19
2.062,-0.005,0.054,0.059,-0.024,-0.034,0.054,0.171,-0.303,0.102,0.039,-0.112,-0.185
2.064,-0.005,0.054,0.059,-0.024,-0.034,0.054,0.171,-0.303,0.098,0.049,-0.112,-0.185
2.066,-0.005,0.049,0.054,-0.02,-0.029,0.049,0.171,-0.303,0.102,0.054,-0.107,-0.181
2.068,-0.01,0.039,0.049,-0.015,-0.029,0.044,0.166,-0.298,0.107,0.059,-0.098,-0.171
2.07,-0.02,0.044,0.063,-0.01,-0.044,0.054,0.166,-0.293,0.107,0.063,-0.093,-0.166
2.072,-0.01,0.054,0.063,-0.02,-0.039,0.059,0.166,-0.293,0.112,0.068,-0.083,-0.161
2.074,-0.01,0.063,0.073,-0.024,-0.044,0.068,0.161,-0.293,0.112,0.078,-0.078,-0.146
2.076,0.005,0.063,0.059,-0.034,-0.029,0.059,0.171,-0.283,0.112,0.078,-0.078,-0.156
2.078,0.005,0.073,0.068,-0.039,-0.034,0.068,0.171,-0.283,0.112,0.078,-0.078,-0.151
2.08,0.0,0.063,0.063,-0.029,-0.034,0.063,0.171,-0.278,0.117,0.088,-0.073,-0.156
2.082,-0.015,0.049,0.063,-0.015,-0.039,0.054,0.171,-0.273,0.122,0.088,-0.073,-0.156
2.084,-0.015,0.063,0.078,-0.024,-0.049,0.068,0.161,-0.278,0.117,0.083,-0.073,-0.142
2.086,-0.015,0.063,0.078,-0.024,-0.049,0.068,0.161,-0.278,0.122,0.093,-0.068,-0.137
2.088,-0.015,0.044,0.059,-0.015,-0.039,0.049,0.156,-0.278,0.122,0.098,-0.063,-0.137
2.09,-0.024,0.054,0.078,-0.015,-0.054,0.063,0.156,-0.268,0.117,0.107,-0.054,-0.137
2.092,0.01,0.083,0.073,-0.044,-0.034,0.078,0.156,-0.259,0.137,0.122,-0.024,-0.117
2.094,0.024,0.102,0.078,-0.063,-0.029,0.088,0.156,-0.254,0.146,0.132,-0.02,-0.102
2.096,0.034,0.102,0.068,-0.068,-0.02,0.083,0.161,-0.244,0.166,0.137,-0.01,-0.088
2.098,0.024,0.107,0.083,-0.063,-0.029,0.093,0.161,-0.244,0.171,0.137,0.005,-0.078
2.1,0.02,0.107,0.088,-0.063,-0.034,0.098,0.161,-0.244,0.161,0.137,0.005,-0.068
2.102,0.01,0.107,0.098,-0.059,-0.044,0.102,0.161,-0.244,0.171,0.151,0.015,-0.063
2.104,0.005,0.107,0.102,-0.054,-0.049,0.102,0.161,-0.239,0.181,0.161,0.02,-0.063
2.106,0.0,0.112,0.112,-0.054,-0.059,0.112,0.161,-0.234,0.181,0.176,0.034,-0.068
2.108,0.024,0.117,0.093,-0.068,-0.034,0.102,0.151,-0.229,0.185,0.185,0.054,-0.049
2.11,0.029,0.127,0.098,-0.078,-0.034,0.112,0.151,-0.22,0.195,0.195,0.073,-0.034
2.112,0.044,0.146,0.102,-0.093,-0.029,0.122,0.156,-0.215,0.205,0.205,0.078,-0.02
2.114,0.049,0.151,0.102,-0.098,-0.029,0.127,0.156,-0.205,0.205,0.215,0.088,-0.01
2.116,0.024,0.137,0.112,-0.078,-0.044,0.122,0.146,-0.205,0.224,0.224,0.093,-0.01
2.118,0.02,0.137,0.117,-0.078,-0.049,0.127,0.142,-0.205,0.229,0.229,0.093,0.005
2.12,0.024,0.146,0.122,-0.083,-0.049,0.132,0.142,-0.2,0.244,0.244,0.112,0.015
2.122,0.034,0.156,0.122,-0.093,-0.044,0.137,0.142,-0.185,0.254,0.268,0.132,0.034
2.124,0.039,0.19,0.151,-0.112,-0.059,0.171,0.146,-0.195,0.259,0.278,0.146,0.044
2.126,0.044,0.185,0.142,-0.112,-0.049,0.161,0.132,-0.19,0.268,0.288,0.166,0.059
2.128,0.049,0.19,0.142,-0.117,-0.049,0.166,0.127,-0.176,0.278,0.303,0.185,0.078
2.13,0.063,0.205,0.142,-0.132,-0.039,0.171,0.122,-0.161,0.288,0.317,0.21,0.093
2.132,0.054,0.2,0.146,-0.127,-0.049,0.171,0.127,-0.161,0.317,0.342,0.234,0.122
2.134,0.059,0.2,0.142,-0.127,-0.044,0.171,0.127,-0.151,0.327,0.361,0.259,0.151
2.136,0.054,0.215,0.161,-0.132,-0.054,0.185,0.117,-0.146,0.342,0.376,0.283,0.161
2.138,0.063,0.224,0.161,-0.142,-0.049,0.19,0.112,-0.137,0.351,0.395,0.307,0.181
2.14,0.068,0.244,0.176,-0.156,-0.054,0.21,0.098,-0.142,0.361,0.42,0.317,0.205
2.142,0.078,0.254,0.176,-0.166,-0.049,0.215,0.093,-0.137,0.376,0.434,0.342,0.22
2.144,0.083,0.254,0.171,-0.166,-0.044,0.21,0.088,-0.127,0.381,0.454,0.361,0.239
2.146,0.088,0.264,0.176,-0.176,-0.044,0.22,0.088,-0.122,0.4,0.478,0.386,0.264
2.148,0.102,0.268,0.166,-0.185,-0.034,0.215,0.083,-0.132,0.405,0.493,0.41,0.288
2.15,0.102,0.278,0.176,-0.19,-0.039,0.224,0.078,-0.122,0.41,0.503,0.429,0.298
2.152,0.122,0.303,0.181,-0.21,-0.029,0.239,0.068,-0.107,0.434,0.532,0.449,0.322
2.154,0.122,0.322,0.2,-0.22,-0.039,0.259,0.063,-0.088,0.454,0.561,0.483,0.351
2.156,0.122,0.332,0.21,-0.224,-0.044,0.268,0.063,-0.098,0.468,0.571,0.503,0.366
2.158,0.127,0.337,0.21,-0.229,-0.044,0.273,0.049,-0.098,0.468,0.586,0.517,0.386
2.16,0.142,0.351,0.21,-0.244,-0.034,0.278,0.044,-0.083,0.483,0.615,0.547,0.405
2.162,0.142,0.361,0.22,-0.249,-0.039,0.288,0.044,-0.068,0.503,0.639,0.576,0.429
2.164,0.137,0.361,0.224,-0.249,-0.044,0.293,0.034,-0.078,0.498,0.639,0.59,0.439
2.166,0.142,0.366,0.224,-0.254,-0.044,0.293,0.029,-0.083,0.493,0.634,0.6,0.439
2.168,0.151,0.366,0.215,-0.259,-0.034,0.288,0.029,-0.083,0.503,0.644,0.61,0.449
2.17,0.156,0.376,0.22,-0.264,-0.034,0.298,0.029,-0.088,0.508,0.654,0.62,0.468
2.172,0.151,0.386,0.234,-0.268,-0.044,0.307,0.02,-0.088,0.498,0.654,0.62,0.468
2.174,0.142,0.366,0.224,-0.254,-0.044,0.293,0.015,-0.083,0.498,0.659,0.63,0.468
2.176,0.142,0.366,0.224,-0.254,-0.044,0.293,0.005,-0.083,0.498,0.664,0.63,0.478
2.178,0.156,0.386,0.229,-0.268,-0.039,0.307,0.005,-0.078,0.508,0.673,0.644,0.488
2.18,0.161,0.395,0.234,-0.278,-0.039,0.312,0.015,-0.078,0.512,0.688,0.664,0.508
2.182,0.156,0.395,0.239,-0.273,-0.044,0.317,0.015,-0.078,0.517,0.688,0.669,0.508
2.184,0.146,0.395,0.249,-0.268,-0.054,0.322,0.015,-0.083,0.517,0.678,0.669,0.508
2.186,0.142,0.395,0.254,-0.268,-0.059,0.322,0.015,-0.083,0.512,0.678,0.664,0.503
2.188,0.137,0.39,0.254,-0.264,-0.059,0.322,0.015,-0.083,0.503,0.669,0.654,0.498
2.19,0.132,0.39,0.259,-0.259,-0.063,0.322,0.015,-0.093,0.493,0.654,0.644,0.498
2.192,0.146,0.386,0.239,-0.264,-0.049,0.312,0.02,-0.098,0.483,0.639,0.625,0.478
2.194,0.151,0.386,0.234,-0.268,-0.044,0.307,0.024,-0.098,0.473,0.634,0.605,0.459
2.196,0.137,0.376,0.239,-0.254,-0.054,0.307,0.015,-0.102,0.464,0.61,0.586,0.444
2.198,0.137,0.371,0.234,-0.254,-0.049,0.303,0.024,-0.112,0.449,0.581,0.566,0.429
2.2,0.127,0.346,0.22,-0.234,-0.049,0.283,0.034,-0.112,0.439,0.547,0.532,0.4
2.202,0.102,0.322,0.22,-0.21,-0.059,0.268,0.034,-0.127,0.429,0.522,0.508,0.381
2.204,0.132,0.327,0.195,-0.229,-0.034,0.259,0.054,-0.137,0.395,0.488,0.468,0.346
2.206,0.117,0.327,0.21,-0.22,-0.049,0.268,0.068,-0.142,0.376,0.459,0.439,0.322
2.208,0.112,0.317,0.205,-0.215,-0.049,0.259,0.073,-0.151,0.351,0.425,0.405,0.303
2.21,0.098,0.303,0.205,-0.2,-0.054,0.254,0.078,-0.166,0.327,0.395,0.371,0.278
2.212,0.083,0.288,0.205,-0.185,-0.063,0.244,0.078,-0.181,0.303,0.356,0.327,0.234
2.214,0.068,0.264,0.195,-0.166,-0.063,0.229,0.078,-0.2,0.278,0.312,0.283,0.195
2.216,0.068,0.244,0.176,-0.156,-0.054,0.21,0.078,-0.21,0.254,0.278,0.244,0.171
2.218,0.063,0.229,0.166,-0.146,-0.054,0.195,0.078,-0.21,0.234,0.249,0.21,0.146
2.22,0.049,0.224,0.176,-0.137,-0.063,0.2,0.088,-0.22,0.22,0.224,0.176,0.117
2.222,0.034,0.2,0.166,-0.117,-0.068,0.181,0.093,-0.234,0.205,0.19,0.151,0.102
2.224,0.029,0.19,0.161,-0.107,-0.068,0.176,0.102,-0.239,0.181,0.166,0.127,0.073
2.226,0.034,0.176,0.142,-0.102,-0.054,0.156,0.107,-0.249,0.156,0.146,0.102,0.049
2.228,0.02,0.146,0.127,-0.083,-0.054,0.137,0.112,-0.259,0.132,0.112,0.063,0.015
2.23,0.005,0.137,0.132,-0.068,-0.063,0.132,0.117,-0.273,0.117,0.088,0.029,-0.02
2.232,0.0,0.137,0.137,-0.068,-0.068,0.137,0.117,-0.283,0.098,0.059,0.0,-0.049
2.234,-0.005,0.137,0.142,-0.063,-0.073,0.137,0.122,-0.307,0.068,0.029,-0.039,-0.063
2.236,-0.005,0.112,0.117,-0.054,-0.063,0.112,0.112,-0.312,0.059,0.01,-0.044,-0.059
2.238,-0.02,0.098,0.117,-0.039,-0.068,0.107,0.112,-0.312,0.059,-0.005,-0.063,-0.083
2.24,-0.039,0.078,0.117,-0.02,-0.078,0.098,0.112,-0.317,0.049,-0.015,-0.073,-0.093
2.242,-0.029,0.063,0.093,-0.015,-0.063,0.078,0.117,-0.322,0.039,-0.029,-0.088,-0.093
2.244,-0.029,0.054,0.083,-0.01,-0.059,0.068,0.117,-0.322,0.02,-0.044,-0.098,-0.102
2.246,-0.029,0.054,0.083,-0.01,-0.059,0.068,0.117,-0.332,0.015,-0.059,-0.107,-0.107
2.248,-0.039,0.044,0.083,0.0,-0.063,0.063,0.122,-0.332,0.005,-0.068,-0.122,-0.117
2.25,-0.044,0.039,0.083,0.005,-0.063,0.059,0.122,-0.337,0.0,-0.083,-0.137,-0.127
2.252,-0.049,0.044,0.093,0.005,-0.073,0.068,0.122,-0.356,-0.024,-0.107,-0.156,-0.156
2.254,-0.059,0.029,0.088,0.015,-0.073,0.059,0.107,-0.366,-0.039,-0.122,-0.171,-0.171
2.256,-0.063,0.015,0.078,0.024,-0.073,0.044,0.102,-0.376,-0.049,-0.137,-0.185,-0.181
2.258,-0.063,0.005,0.068,0.029,-0.068,0.034,0.102,-0.376,-0.063,-0.142,-0.19,-0.185
2.26,-0.039,0.02,0.059,0.01,-0.049,0.039,0.102,-0.361,-0.059,-0.142,-0.19,-0.176
2.262,-0.029,0.029,0.059,0.0,-0.044,0.044,0.107,-0.361,-0.049,-0.137,-0.185,-0.176
2.264,-0.039,0.015,0.054,0.015,-0.049,0.034,0.107,-0.361,-0.049,-0.137,-0.195,-0.181
2.266,-0.044,0.015,0.059,0.015,-0.054,0.034,0.107,-0.356,-0.044,-0.137,-0.205,-0.181
2.268,-0.044,0.01,0.054,0.02,-0.049,0.029,0.117,-0.366,-0.054,-0.151,-0.2,-0.185
2.27,-0.044,0.01,0.054,0.02,-0.049,0.029,0.117,-0.371,-0.059,-0.156,-0.2,-0.185
2.272,-0.039,0.015,0.054,0.015,-0.049,0.034,0.112,-0.371,-0.063,-0.161,-0.195,-0.195
2.274,-0.039,0.015,0.054,0.015,-0.049,0.034,0.112,-0.376,-0.063,-0.166,-0.195,-0.2
2.276,-0.039,0.005,0.044,0.02,-0.044,0.024,0.102,-0.366,-0.054,-0.166,-0.205,-0.21
2.278,-0.054,-0.01,0.044,0.034,-0.049,0.015,0.102,-0.371,-0.068,-0.166,-0.21,-0.215
2.28,-0.029,0.02,0.049,0.005,-0.039,0.034,0.102,-0.371,-0.068,-0.166,-0.21,-0.215
2.282,-0.015,0.039,0.054,-0.01,-0.034,0.044,0.102,-0.366,-0.063,-0.166,-0.21,-0.2
2.284,-0.039,0.02,0.059,0.01,-0.049,0.039,0.102,-0.356,-0.054,-0.166,-0.215,-0.215
2.286,-0.054,0.005,0.059,0.024,-0.059,0.029,0.102,-0.356,-0.054,-0.171,-0.215,-0.22
2.288,-0.059,-0.005,0.054,0.034,-0.059,0.024,0.107,-0.356,-0.054,-0.171,-0.21,-0.22
2.29,-0.059,-0.015,0.044,0.039,-0.054,0.015,0.107,-0.356,-0.059,-0.171,-0.21,-0.22
2.292,-0.049,-0.005,0.044,0.029,-0.049,0.02,0.117,-0.361,-0.059,-0.181,-0.21,-0.229
2.294,-0.049,-0.005,0.044,0.029,-0.049,0.02,0.102,-0.361,-0.059,-0.181,-0.215,-0.229
2.296,-0.054,0.0,0.054,0.029,-0.054,0.024,0.102,-0.361,-0.059,-0.181,-0.215,-0.229
2.298,-0.059,0.0,0.059,0.029,-0.059,0.029,0.107,-0.361,-0.059,-0.181,-0.224,-0.229
2.3,-0.054,-0.01,0.044,0.034,-0.049,0.015,0.098,-0.356,-0.059,-0.171,-0.224,-0.229
2.302,-0.034,-0.01,0.024,0.024,-0.029,0.005,0.102,-0.356,-0.059,-0.171,-0.224,-0.22
2.304,-0.029,0.0,0.029,0.015,-0.029,0.015,0.102,-0.356,-0.059,-0.171,-0.224,-0.22
2.306,-0.029,0.0,0.029,0.015,-0.029,0.015,0.098,-0.356,-0.059,-0.171,-0.22,-0.22
2.308,-0.044,-0.005,0.039,0.024,-0.044,0.015,0.107,-0.351,-0.059,-0.181,-0.215,-0.224
2.31,-0.044,-0.005,0.039,0.024,-0.044,0.015,0.107,-0.346,-0.059,-0.171,-0.215,-0.224
2.312,-0.039,0.0,0.039,0.02,-0.039,0.02,0.112,-0.346,-0.054,-0.181,-0.215,-0.234
2.314,-0.059,-0.005,0.054,0.034,-0.059,0.024,0.112,-0.346,-0.054,-0.181,-0.215,-0.239
2.316,-0.059,-0.01,0.049,0.034,-0.054,0.02,0.102,-0.342,-0.044,-0.176,-0.22,-0.239
2.318,-0.059,-0.01,0.049,0.034,-0.054,0.02,0.102,-0.342,-0.044,-0.176,-0.22,-0.239
2.32,-0.054,-0.01,0.044,0.034,-0.049,0.015,0.102,-0.346,-0.049,-0.181,-0.224,-0.244
2.322,-0.049,-0.015,0.034,0.034,-0.044,0.01,0.107,-0.346,-0.049,-0.181,-0.224,-0.244
2.324,-0.059,-0.015,0.044,0.039,-0.054,0.015,0.122,-0.342,-0.039,-0.166,-0.22,-0.22
2.326,-0.059,-0.01,0.049,0.034,-0.054,0.02,0.122,-0.337,-0.034,-0.161,-0.21,-0.215
2.328,-0.054,-0.01,0.044,0.034,-0.049,0.015,0.122,-0.332,-0.034,-0.161,-0.205,-0.215
2.33,-0.054,-0.01,0.044,0.034,-0.049,0.015,0.122,-0.327,-0.029,-0.156,-0.195,-0.215
2.332,-0.049,0.01,0.059,0.02,-0.054,0.034,0.112,-0.322,-0.029,-0.161,-0.205,-0.224
2.334,-0.054,0.01,0.063,0.024,-0.059,0.034,0.112,-0.327,-0.024,-0.161,-0.21,-0.234
2.336,-0.063,0.01,0.073,0.029,-0.068,0.039,0.112,-0.332,-0.029,-0.161,-0.21,-0.234
2.338,-0.073,0.01,0.083,0.034,-0.078,0.044,0.107,-0.337,-0.034,-0.161,-0.21,-0.234
2.34,-0.068,0.01,0.078,0.029,-0.073,0.044,0.107,-0.327,-0.039,-0.161,-0.2,-0.229
2.342,-0.068,0.005,0.073,0.034,-0.073,0.039,0.107,-0.322,-0.034,-0.161,-0.2,-0.224
2.344,-0.063,0.0,0.063,0.034,-0.063,0.029,0.112,-0.322,-0.029,-0.156,-0.195,-0.22
2.346,-0.063,-0.015,0.049,0.039,-0.059,0.015,0.112,-0.327,-0.024,-0.156,-0.19,-0.21
2.348,-0.054,-0.015,0.039,0.034,-0.049,0.01,0.107,-0.327,-0.02,-0.156,-0.2,-0.215
2.35,-0.049,-0.015,0.034,0.034,-0.044,0.01,0.107,-0.327,-0.02,-0.156,-0.2,-0.215
2.352,-0.049,-0.015,0.034,0.034,-0.044,0.01,0.107,-0.327,-0.02,-0.156,-0.2,-0.215
2.354,-0.049,-0.015,0.034,0.034,-0.044,0.01,0.107,-0.327,-0.02,-0.156,-0.2,-0.215
2.356,-0.044,-0.005,0.039,0.024,-0.044,0.015,0.098,-0.327,-0.029,-0.166,-0.2,-0.224
2.358,-0.054,-0.005,0.049,0.029,-0.054,0.02,0.093,-0.337,-0.029,-0.166,-0.2,-0.224
2.36,-0.054,-0.005,0.049,0.029,-0.054,0.02,0.093,-0.337,-0.029,-0.161,-0.2,-0.224
2.362,-0.054,-0.005,0.049,0.029,-0.054,0.02,0.093,-0.337,-0.029,-0.161,-0.2,-0.224
2.364,-0.063,-0.015,0.049,0.039,-0.059,0.015,0.102,-0.332,-0.029,-0.156,-0.195,-0.224
2.366,-0.073,-0.02,0.054,0.049,-0.063,0.015,0.102,-0.337,-0.024,-0.166,-0.195,-0.22
2.368,-0.073,-0.02,0.054,0.049,-0.063,0.015,0.102,-0.337,-0.02,-0.161,-0.195,-0.215
2.37,-0.063,0.005,0.068,0.029,-0.068,0.034,0.102,-0.337,-0.01,-0.156,-0.19,-0.21
2.372,-0.044,0.024,0.068,0.01,-0.059,0.044,0.098,-0.322,-0.015,-0.166,-0.19,-0.21
2.374,-0.039,0.024,0.063,0.01,-0.054,0.044,0.098,-0.317,-0.015,-0.156,-0.19,-0.2
2.376,-0.039,0.024,0.063,0.01,-0.054,0.044,0.093,-0.317,-0.015,-0.156,-0.19,-0.2
2.378,-0.034,0.02,0.054,0.01,-0.044,0.034,0.093,-0.317,-0.015,-0.156,-0.185,-0.205
2.38,-0.034,0.029,0.063,0.005,-0.049,0.044,0.102,-0.303,-0.015,-0.146,-0.181,-0.195
2.382,-0.044,0.005,0.049,0.02,-0.049,0.024,0.102,-0.307,-0.01,-0.146,-0.176,-0.2
2.384,-0.044,0.005,0.049,0.02,-0.049,0.024,0.102,-0.307,-0.005,-0.146,-0.171,-0.205
2.386,-0.039,0.015,0.054,0.015,-0.049,0.034,0.102,-0.303,0.0,-0.156,-0.176,-0.21
2.388,-0.044,0.015,0.059,0.015,-0.054,0.034,0.093,-0.307,0.0,-0.151,-0.19,-0.22
2.39,-0.049,0.024,0.073,0.015,-0.063,0.049,0.093,-0.312,-0.005,-0.156,-0.185,-0.215
2.392,-0.054,0.01,0.063,0.024,-0.059,0.034,0.093,-0.312,-0.015,-0.171,-0.185,-0.21
2.394,-0.059,0.01,0.068,0.024,-0.063,0.039,0.093,-0.317,-0.02,-0.176,-0.19,-0.21
2.396,-0.054,0.02,0.073,0.02,-0.063,0.044,0.098,-0.312,-0.015,-0.166,-0.176,-0.21
2.398,-0.044,0.029,0.073,0.01,-0.059,0.049,0.098,-0.312,-0.01,-0.156,-0.176,-0.205
2.4,-0.029,0.034,0.063,0.0,-0.049,0.049,0.098,-0.307,0.0,-0.151,-0.176,-0.19
2.402,-0.039,0.034,0.073,0.005,-0.059,0.054,0.098,-0.307,0.005,-0.142,-0.166,-0.185
2.404,-0.044,0.044,0.088,0.0,-0.068,0.063,0.102,-0.303,0.0,-0.151,-0.166,-0.19
2.406,-0.049,0.034,0.083,0.01,-0.068,0.059,0.102,-0.303,0.0,-0.151,-0.171,-0.19
2.408,-0.049,0.029,0.078,0.01,-0.063,0.054,0.107,-0.303,0.0,-0.151,-0.176,-0.19
2.41,-0.059,0.029,0.088,0.015,-0.073,0.059,0.107,-0.307,-0.005,-0.156,-0.176,-0.195
2.412,-0.054,0.015,0.068,0.02,-0.063,0.039,0.098,-0.312,-0.01,-0.166,-0.185,-0.195
2.414,-0.044,0.02,0.063,0.015,-0.054,0.039,0.093,-0.317,-0.01,-0.166,-0.185,-0.195
2.416,-0.039,0.015,0.054,0.015,-0.049,0.034,0.088,-0.317,-0.01,-0.171,-0.181,-0.195
2.418,-0.059,0.01,0.068,0.024,-0.063,0.039,0.083,-0.322,-0.005,-0.171,-0.176,-0.195
2.42,-0.068,0.005,0.073,0.034,-0.073,0.039,0.093,-0.317,-0.005,-0.166,-0.166,-0.185
2.422,-0.083,-0.01,0.073,0.049,-0.078,0.029,0.093,-0.317,-0.005,-0.166,-0.171,-0.185
2.424,-0.073,0.0,0.073,0.039,-0.073,0.034,0.093,-0.312,-0.005,-0.166,-0.176,-0.185
2.426,-0.068,0.005,0.073,0.034,-0.073,0.039,0.093,-0.307,-0.005,-0.171,-0.176,-0.185
2.428,-0.068,0.02,0.088,0.024,-0.078,0.054,0.093,-0.307,-0.01,-0.176,-0.166,-0.195
2.43,-0.063,0.02,0.083,0.024,-0.073,0.049,0.088,-0.307,-0.015,-0.176,-0.171,-0.205
2.432,-0.054,0.02,0.073,0.02,-0.063,0.044,0.088,-0.312,-0.015,-0.161,-0.176,-0.195
2.434,-0.054,0.024,0.078,0.015,-0.068,0.049,0.093,-0.312,-0.015,-0.161,-0.176,-0.185
2.436,-0.059,0.015,0.073,0.024,-0.068,0.044,0.083,-0.312,-0.015,-0.176,-0.185,-0.19
2.438,-0.059,0.015,0.073,0.024,-0.068,0.044,0.078,-0.312,-0.015,-0.181,-0.185,-0.19
2.44,-0.059,0.01,0.068,0.024,-0.063,0.039,0.078,-0.312,-0.015,-0.185,-0.181,-0.195
2.442,-0.059,0.01,0.068,0.024,-0.063,0.039,0.078,-0.317,-0.015,-0.185,-0.181,-0.205
2.444,-0.049,0.01,0.059,0.02,-0.054,0.034,0.088,-0.317,-0.01,-0.176,-0.185,-0.21
2.446,-0.054,0.01,0.063,0.024,-0.059,0.034,0.088,-0.317,-0.01,-0.176,-0.181,-0.205
2.448,-0.068,-0.01,0.059,0.039,-0.063,0.024,0.088,-0.317,-0.01,-0.176,-0.176,-0.21
2.45,-0.073,-0.01,0.063,0.044,-0.068,0.024,0.083,-0.327,-0.02,-0.185,-0.171,-0.21
2.452,-0.073,0.0,0.073,0.039,-0.073,0.034,0.083,-0.327,-0.024,-0.19,-0.19,-0.21
2.454,-0.059,0.0,0.059,0.029,-0.059,0.029,0.083,-0.327,-0.024,-0.19,-0.19,-0.21
2.456,-0.054,0.01,0.063,0.024,-0.059,0.034,0.083,-0.322,-0.02,-0.19,-0.195,-0.21
2.458,-0.044,0.024,0.068,0.01,-0.059,0.044,0.083,-0.322,-0.02,-0.195,-0.195,-0.215
2.46,-0.054,0.01,0.063,0.024,-0.059,0.034,0.093,-0.312,-0.024,-0.195,-0.19,-0.21
2.462,-0.059,0.0,0.059,0.029,-0.059,0.029,0.093,-0.312,-0.024,-0.195,-0.185,-0.205
2.464,-0.063,-0.01,0.054,0.039,-0.059,0.02,0.093,-0.317,-0.024,-0.195,-0.185,-0.2
2.466,-0.063,-0.02,0.044,0.044,-0.054,0.01,0.093,-0.317,-0.024,-0.2,-0.185,-0.19
2.468,-0.063,-0.005,0.059,0.034,-0.063,0.024,0.088,-0.322,-0.024,-0.21,-0.195,-0.19
2.47,-0.063,0.0,0.063,0.034,-0.063,0.029,0.088,-0.322,-0.029,-0.215,-0.195,-0.195
2.472,-0.068,0.005,0.073,0.034,-0.073,0.039,0.083,-0.327,-0.034,-0.215,-0.195,-0.21
2.474,-0.073,0.005,0.078,0.034,-0.078,0.039,0.083,-0.327,-0.034,-0.215,-0.195,-0.215
2.476,-0.063,-0.005,0.059,0.034,-0.063,0.024,0.083,-0.317,-0.029,-0.205,-0.185,-0.2
2.478,-0.063,0.0,0.063,0.034,-0.063,0.029,0.083,-0.327,-0.024,-0.205,-0.185,-0.2
2.48,-0.059,0.01,0.068,0.024,-0.063,0.039,0.083,-0.327,-0.024,-0.215,-0.185,-0.205
2.482,-0.059,0.0,0.059,0.029,-0.059,0.029,0.083,-0.327,-0.029,-0.224,-0.19,-0.21
2.484,-0.088,-0.024,0.063,0.059,-0.078,0.02,0.073,-0.342,-0.039,-0.224,-0.195,-0.22
2.486,-0.093,-0.024,0.068,0.059,-0.083,0.02,0.073,-0.342,-0.039,-0.22,-0.2,-0.215
2.488,-0.073,-0.01,0.063,0.044,-0.068,0.024,0.078,-0.332,-0.039,-0.21,-0.2,-0.205
2.49,-0.078,-0.005,0.073,0.044,-0.078,0.034,0.078,-0.332,-0.039,-0.21,-0.19,-0.205
2.492,-0.063,0.005,0.068,0.029,-0.068,0.034,0.088,-0.332,-0.034,-0.21,-0.2,-0.2
2.494,-0.059,0.01,0.068,0.024,-0.063,0.039,0.083,-0.327,-0.034,-0.22,-0.2,-0.205
2.496,-0.049,0.005,0.054,0.024,-0.054,0.029,0.083,-0.322,-0.039,-0.22,-0.195,-0.205
2.498,-0.034,0.0,0.034,0.02,-0.034,0.015,0.078,-0.322,-0.039,-0.21,-0.195,-0.205
2.5,-0.039,0.0,0.039,0.02,-0.039,0.02,0.088,-0.312,-0.029,-0.2,-0.195,-0.215
2.502,-0.039,0.01,0.049,0.015,-0.044,0.029,0.088,-0.307,-0.024,-0.205,-0.195,-0.215
2.504,-0.044,0.015,0.059,0.015,-0.054,0.034,0.093,-0.307,-0.024,-0.215,-0.185,-0.205
2.506,-0.059,0.015,0.073,0.024,-0.068,0.044,0.093,-0.307,-0.024,-0.205,-0.185,-0.205
2.508,-0.063,0.005,0.068,0.029,-0.068,0.034,0.083,-0.317,-0.034,-0.21,-0.195,-0.215
2.51,-0.063,0.005,0.068,0.029,-0.068,0.034,0.078,-0.327,-0.044,-0.22,-0.195,-0.22
2.512,-0.049,0.01,0.059,0.02,-0.054,0.034,0.078,-0.327,-0.049,-0.224,-0.205,-0.22
2.514,-0.059,0.01,0.068,0.024,-0.063,0.039,0.078,-0.327,-0.049,-0.234,-0.21,-0.224
2.516,-0.059,0.01,0.068,0.024,-0.063,0.039,0.088,-0.322,-0.039,-0.224,-0.205,-0.21
2.518,-0.054,0.01,0.063,0.024,-0.059,0.034,0.088,-0.317,-0.024,-0.224,-0.195,-0.205
2.52,-0.054,0.005,0.059,0.024,-0.059,0.029,0.093,-0.307,-0.024,-0.22,-0.185,-0.2
2.522,-0.054,-0.005,0.049,0.029,-0.054,0.02,0.093,-0.303,-0.024,-0.22,-0.181,-0.2
2.524,-0.088,-0.01,0.078,0.049,-0.083,0.034,0.093,-0.312,-0.029,-0.229,-0.185,-0.2
2.526,-0.073,-0.01,0.063,0.044,-0.068,0.024,0.093,-0.312,-0.034,-0.229,-0.19,-0.2
2.528,-0.073,-0.01,0.063,0.044,-0.068,0.024,0.093,-0.312,-0.039,-0.229,-0.19,-0.2
2.53,-0.073,-0.01,0.063,0.044,-0.068,0.024,0.083,-0.317,-0.044,-0.234,-0.19,-0.2
2.532,-0.073,0.0,0.073,0.039,-0.073,0.034,0.068,-0.312,-0.044,-0.229,-0.185,-0.2
2.534,-0.078,0.0,0.078,0.039,-0.078,0.039,0.068,-0.317,-0.044,-0.239,-0.2,-0.205
2.536,-0.063,-0.01,0.054,0.039,-0.059,0.02,0.073,-0.317,-0.044,-0.239,-0.2,-0.205
2.538,-0.049,-0.01,0.039,0.029,-0.044,0.015,0.073,-0.312,-0.044,-0.239,-0.19,-0.205
2.54,-0.059,-0.01,0.049,0.034,-0.054,0.02,0.073,-0.322,-0.054,-0.239,-0.195,-0.21
2.542,-0.059,-0.005,0.054,0.034,-0.059,0.024,0.073,-0.322,-0.054,-0.244,-0.195,-0.205
2.544,-0.068,-0.01,0.059,0.039,-0.063,0.024,0.073,-0.322,-0.054,-0.244,-0.2,-0.21
2.546,-0.068,-0.024,0.044,0.049,-0.059,0.01,0.073,-0.322,-0.054,-0.249,-0.205,-0.22
2.548,-0.073,-0.02,0.054,0.049,-0.063,0.015,0.073,-0.312,-0.044,-0.239,-0.205,-0.215
2.55,-0.068,-0.015,0.054,0.044,-0.063,0.02,0.073,-0.312,-0.044,-0.249,-0.205,-0.215
2.552,-0.068,-0.005,0.063,0.039,-0.068,0.029,0.073,-0.312,-0.044,-0.239,-0.2,-0.215
2.554,-0.068,0.005,0.073,0.034,-0.073,0.039,0.073,-0.312,-0.044,-0.239,-0.195,-0.22
2.556,-0.068,-0.005,0.063,0.039,-0.068,0.029,0.088,-0.303,-0.034,-0.239,-0.195,-0.215
2.558,-0.068,-0.005,0.063,0.039,-0.068,0.029,0.088,-0.303,-0.034,-0.239,-0.2,-0.215
2.56,-0.063,0.005,0.068,0.029,-0.068,0.034,0.088,-0.303,-0.034,-0.239,-0.2,-0.21
2.562,-0.063,-0.005,0.059,0.034,-0.063,0.024,0.088,-0.298,-0.034,-0.239,-0.195,-0.2
2.564,-0.063,0.0,0.063,0.034,-0.063,0.029,0.088,-0.298,-0.044,-0.229,-0.181,-0.2
2.566,-0.059,0.0,0.059,0.029,-0.059,0.029,0.083,-0.298,-0.044,-0.229,-0.181,-0.2
2.568,-0.054,-0.01,0.044,0.034,-0.049,0.015,0.083,-0.298,-0.044,-0.229,-0.181,-0.195
2.57,-0.044,-0.01,0.034,0.029,-0.039,0.01,0.083,-0.298,-0.044,-0.239,-0.176,-0.195
2.572,-0.054,-0.015,0.039,0.034,-0.049,0.01,0.073,-0.317,-0.054,-0.234,-0.181,-0.21
2.574,-0.059,-0.015,0.044,0.039,-0.054,0.015,0.068,-0.317,-0.059,-0.239,-0.195,-0.21
2.576,-0.063,-0.015,0.049,0.039,-0.059,0.015,0.068,-0.312,-0.059,-0.244,-0.2,-0.205
2.578,-0.068,-0.015,0.054,0.044,-0.063,0.02,0.073,-0.312,-0.049,-0.249,-0.205,-0.205
2.58,-0.068,-0.01,0.059,0.039,-0.063,0.024,0.073,-0.303,-0.044,-0.249,-0.19,-0.21
2.582,-0.059,-0.01,0.049,0.034,-0.054,0.02,0.083,-0.303,-0.044,-0.244,-0.19,-0.21
2.584,-0.068,-0.024,0.044,0.049,-0.059,0.01,0.073,-0.303,-0.049,-0.244,-0.19,-0.215
2.586,-0.068,-0.01,0.059,0.039,-0.063,0.024,0.073,-0.303,-0.049,-0.249,-0.195,-0.215
2.588,-0.049,0.005,0.054,0.024,-0.054,0.029,0.068,-0.298,-0.044,-0.239,-0.185,-0.205
2.59,-0.049,0.01,0.059,0.02,-0.054,0.034,0.068,-0.298,-0.044,-0.234,-0.176,-0.2
2.592,-0.049,0.01,0.059,0.02,-0.054,0.034,0.068,-0.303,-0.049,-0.234,-0.176,-0.2
2.594,-0.054,-0.005,0.049,0.029,-0.054,0.02,0.063,-0.303,-0.049,-0.244,-0.181,-0.205
2.596,-0.063,-0.015,0.049,0.039,-0.059,0.015,0.073,-0.312,-0.059,-0.254,-0.185,-0.215
2.598,-0.063,-0.015,0.049,0.039,-0.059,0.015,0.068,-0.312,-0.059,-0.249,-0.19,-0.215
2.6,-0.068,-0.024,0.044,0.049,-0.059,0.01,0.068,-0.312,-0.059,-0.249,-0.2,-0.215
2.602,-0.073,-0.034,0.039,0.054,-0.059,0.0,0.068,-0.312,-0.059,-0.254,-0.205,-0.215
2.604,-0.063,-0.015,0.049,0.039,-0.059,0.015,0.068,-0.312,-0.054,-0.244,-0.195,-0.205
2.606,-0.059,0.0,0.059,0.029,-0.059,0.029,0.068,-0.307,-0.054,-0.244,-0.19,-0.2
2.608,-0.059,0.0,0.059,0.029,-0.059,0.029,0.073,-0.303,-0.049,-0.244,-0.19,-0.2
2.61,-0.063,0.0,0.063,0.034,-0.063,0.029,0.073,-0.303,-0.049,-0.244,-0.185,-0.2
2.612,-0.059,0.005,0.063,0.029,-0.063,0.034,0.059,-0.312,-0.044,-0.244,-0.185,-0.205
2.614,-0.044,-0.005,0.039,0.024,-0.044,0.015,0.059,-0.312,-0.044,-0.244,-0.185,-0.205
2.616,-0.039,0.01,0.049,0.015,-0.044,0.029,0.059,-0.312,-0.044,-0.244,-0.181,-0.205
2.618,-0.034,0.015,0.049,0.01,-0.044,0.029,0.059,-0.317,-0.049,-0.244,-0.181,-0.21
2.62,-0.078,-0.02,0.059,0.049,-0.068,0.02,0.068,-0.307,-0.044,-0.254,-0.195,-0.205
2.622,-0.117,-0.049,0.068,0.083,-0.093,0.01,0.068,-0.303,-0.049,-0.244,-0.185,-0.195
2.624,-0.098,-0.034,0.063,0.068,-0.083,0.015,0.068,-0.303,-0.049,-0.254,-0.185,-0.205
2.626,-0.088,-0.029,0.059,0.059,-0.073,0.015,0.068,-0.303,-0.049,-0.254,-0.185,-0.205
2.628,-0.078,-0.024,0.054,0.054,-0.068,0.015,0.068,-0.303,-0.049,-0.254,-0.185,-0.205
2.63,-0.068,-0.02,0.049,0.044,-0.059,0.015,0.068,-0.303,-0.049,-0.254,-0.185,-0.205
2.632,-0.063,-0.01,0.054,0.039,-0.059,0.02,0.059,-0.312,-0.059,-0.264,-0.195,-0.215
2.634,-0.059,-0.01,0.049,0.034,-0.054,0.02,0.059,-0.312,-0.059,-0.264,-0.195,-0.215
2.636,-0.054,-0.01,0.044,0.034,-0.049,0.015,0.059,-0.312,-0.059,-0.264,-0.195,-0.215
2.638,-0.049,-0.01,0.039,0.029,-0.044,0.015,0.059,-0.312,-0.059,-0.264,-0.195,-0.215
2.64,-0.049,0.0,0.049,0.024,-0.049,0.024,0.068,-0.307,-0.049,-0.254,-0.185,-0.205
2.642,-0.049,0.0,0.049,0.024,-0.049,0.024,0.068,-0.303,-0.049,-0.254,-0.185,-0.205
2.644,-0.049,0.0,0.049,0.024,-0.049,0.024,0.068,-0.298,-0.049,-0.254,-0.185,-0.205
2.646,-0.049,0.0,0.049,0.024,-0.049,0.024,0.068,-0.293,-0.049,-0.254,-0.185,-0.205
2.648,-0.059,-0.01,0.049,0.034,-0.054,0.02,0.059,-0.298,-0.059,-0.264,-0.195,-0.215
2.65,-0.059,-0.01,0.049,0.034,-0.054,0.02,0.059,-0.303,-0.059,-0.264,-0.195,-0.215
2.652,-0.059,-0.01,0.049,0.034,-0.054,0.02,0.059,-0.307,-0.059,-0.264,-0.195,-0.215
2.654,-0.059,-0.01,0.049,0.034,-0.054,0.02,0.059,-0.312,-0.059,-0.264,-0.195,-0.215
2.656,-0.054,-0.015,0.039,0.034,-0.049,0.01,0.068,-0.303,-0.049,-0.254,-0.185,-0.205
2.658,-0.049,-0.02,0.029,0.034,-0.039,0.005,0.068,-0.303,-0.049,-0.254,-0.185,-0.205
2.66,-0.044,-0.024,0.02,0.034,-0.034,-0.005,0.068,-0.303,-0.049,-0.254,-0.185,-0.205
2.662,-0.039,-0.029,0.01,0.034,-0.024,-0.01,0.068,-0.303,-0.049,-0.254,-0.185,-0.205
2.664,-0.049,-0.024,0.024,0.039,-0.039,0.0,0.059,-0.293,-0.039,-0.264,-0.176,-0.205
2.666,-0.049,-0.02,0.029,0.034,-0.039,0.005,0.059,-0.293,-0.039,-0.264,-0.176,-0.205
2.668,-0.049,-0.015,0.034,0.034,-0.044,0.01,0.059,-0.293,-0.039,-0.264,-0.176,-0.205
2.67,-0.049,-0.01,0.039,0.029,-0.044,0.015,0.059,-0.293,-0.039,-0.264,-0.176,-0.205
2.672,-0.059,-0.015,0.044,0.039,-0.054,0.015,0.059,-0.283,-0.049,-0.264,-0.176,-0.195
2.674,-0.059,-0.02,0.039,0.039,-0.049,0.01,0.059,-0.283,-0.049,-0.264,-0.176,-0.195
2.676,-0.059,-0.024,0.034,0.044,-0.049,0.005,0.059,-0.283,-0.049,-0.264,-0.176,-0.195
2.678,-0.059,-0.029,0.029,0.044,-0.044,0.0,0.059,-0.283,-0.049,-0.264,-0.176,-0.195
2.68,-0.059,-0.02,0.039,0.039,-0.049,0.01,0.059,-0.283,-0.039,-0.264,-0.185,-0.195
2.682,-0.059,-0.02,0.039,0.039,-0.049,0.01,0.059,-0.283,-0.039,-0.264,-0.185,-0.195
2.684,-0.059,-0.02,0.039,0.039,-0.049,0.01,0.059,-0.283,-0.039,-0.264,-0.185,-0.195
2.686,-0.059,-0.02,0.039,0.039,-0.049,0.01,0.059,-0.283,-0.039,-0.264,-0.185,-0.195
2.688,-0.044,-0.01,0.034,0.029,-0.039,0.01,0.049,-0.293,-0.049,-0.268,-0.185,-0.205
2.69,-0.039,-0.01,0.029,0.024,-0.034,0.01,0.049,-0.293,-0.049,-0.273,-0.185,-0.205
2.692,-0.034,-0.01,0.024,0.024,-0.029,0.005,0.049,-0.293,-0.049,-0.278,-0.185,-0.205
2.694,-0.029,-0.01,0.02,0.02,-0.024,0.005,0.049,-0.293,-0.049,-0.283,-0.185,-0.205
2.696,-0.039,-0.02,0.02,0.029,-0.029,0.0,0.054,-0.283,-0.039,-0.278,-0.181,-0.19
2.698,-0.039,-0.02,0.02,0.029,-0.029,0.0,0.059,-0.283,-0.039,-0.273,-0.176,-0.185
2.7,-0.039,-0.02,0.02,0.029,-0.029,0.0,0.063,-0.283,-0.039,-0.268,-0.171,-0.181
2.702,-0.039,-0.02,0.02,0.029,-0.029,0.0,0.068,-0.283,-0.039,-0.264,-0.166,-0.176
2.704,-0.039,-0.01,0.029,0.024,-0.034,0.01,0.059,-0.293,-0.049,-0.273,-0.171,-0.19
2.706,-0.039,-0.01,0.029,0.024,-0.034,0.01,0.059,-0.293,-0.049,-0.273,-0.176,-0.195
2.708,-0.039,-0.01,0.029,0.024,-0.034,0.01,0.059,-0.293,-0.049,-0.273,-0.181,-0.2
2.71,-0.039,-0.01,0.029,0.024,-0.034,0.01,0.059,-0.293,-0.049,-0.273,-0.185,-0.205
2.712,-0.044,-0.02,0.024,0.034,-0.034,0.0,0.049,-0.293,-0.059,-0.283,-0.185,-0.205
2.714,-0.049,-0.02,0.029,0.034,-0.039,0.005,0.049,-0.293,-0.059,-0.283,-0.185,-0.205
2.716,-0.054,-0.02,0.034,0.039,-0.044,0.005,0.049,-0.293,-0.059,-0.283,-0.185,-0.205
2.718,-0.059,-0.02,0.039,0.039,-0.049,0.01,0.049,-0.293,-0.059,-0.283,-0.185,-0.205
2.72,-0.049,-0.02,0.029,0.034,-0.039,0.005,0.054,-0.283,-0.049,-0.273,-0.176,-0.195
2.722,-0.049,-0.02,0.029,0.034,-0.039,0.005,0.059,-0.283,-0.049,-0.273,-0.176,-0.195
2.724,-0.049,-0.02,0.029,0.034,-0.039,0.005,0.063,-0.283,-0.049,-0.273,-0.176,-0.195
2.726,-0.049,-0.02,0.029,0.034,-0.039,0.005,0.068,-0.283,-0.049,-0.273,-0.176,-0.195
2.728,-0.049,-0.01,0.039,0.029,-0.044,0.015,0.059,-0.293,-0.049,-0.283,-0.166,-0.185
2.73,-0.049,-0.01,0.039,0.029,-0.044,0.015,0.059,-0.293,-0.049,-0.283,-0.166,-0.185
2.732,-0.049,-0.01,0.039,0.029,-0.044,0.015,0.059,-0.293,-0.049,-0.283,-0.166,-0.185
2.734,-0.049,-0.01,0.039,0.029,-0.044,0.015,0.059,-0.293,-0.049,-0.283,-0.166,-0.185
2.736,-0.049,-0.02,0.029,0.034,-0.039,0.005,0.068,-0.288,-0.039,-0.283,-0.166,-0.185
2.738,-0.049,-0.02,0.029,0.034,-0.039,0.005,0.068,-0.283,-0.039,-0.283,-0.166,-0.185
2.74,-0.049,-0.02,0.029,0.034,-0.039,0.005,0.068,-0.278,-0.039,-0.283,-0.166,-0.185
2.742,-0.049,-0.02,0.029,0.034,-0.039,0.005,0.068,-0.273,-0.039,-0.283,-0.166,-0.185
2.744,-0.059,-0.029,0.029,0.044,-0.044,0.0,0.063,-0.288,-0.044,-0.288,-0.171,-0.19
2.746,-0.059,-0.029,0.029,0.044,-0.044,0.0,0.059,-0.293,-0.049,-0.293,-0.176,-0.195
2.748,-0.059,-0.029,0.029,0.044,-0.044,0.0,0.054,-0.298,-0.054,-0.298,-0.181,-0.2
2.75,-0.059,-0.029,0.029,0.044,-0.044,0.0,0.049,-0.303,-0.059,-0.303,-0.185,-0.205
2.752,-0.063,-0.039,0.024,0.054,-0.044,-0.01,0.049,-0.293,-0.059,-0.303,-0.176,-0.195
2.754,-0.068,-0.039,0.029,0.054,-0.049,-0.005,0.049,-0.293,-0.059,-0.303,-0.176,-0.195
2.756,-0.073,-0.039,0.034,0.059,-0.054,-0.005,0.049,-0.293,-0.059,-0.303,-0.176,-0.195
2.758,-0.078,-0.039,0.039,0.059,-0.059,0.0,0.049,-0.293,-0.059,-0.303,-0.176,-0.195
2.76,-0.063,-0.039,0.024,0.054,-0.044,-0.01,0.059,-0.283,-0.049,-0.293,-0.176,-0.195
2.762,-0.059,-0.039,0.02,0.049,-0.039,-0.01,0.059,-0.283,-0.049,-0.293,-0.176,-0.195
2.764,-0.054,-0.039,0.015,0.049,-0.034,-0.015,0.059,-0.283,-0.049,-0.293,-0.176,-0.195
2.766,-0.049,-0.039,0.01,0.044,-0.029,-0.015,0.059,-0.283,-0.049,-0.293,-0.176,-0.195
2.768,-0.049,-0.029,0.02,0.039,-0.034,-0.005,0.059,-0.283,-0.049,-0.293,-0.166,-0.185
2.77,-0.049,-0.029,0.02,0.039,-0.034,-0.005,0.059,-0.283,-0.049,-0.293,-0.166,-0.185
2.772,-0.049,-0.029,0.02,0.039,-0.034,-0.005,0.059,-0.283,-0.049,-0.293,-0.166,-0.185
2.774,-0.049,-0.029,0.02,0.039,-0.034,-0.005,0.059,-0.283,-0.049,-0.293,-0.166,-0.185
2.776,-0.049,-0.034,0.015,0.044,-0.034,-0.01,0.059,-0.293,-0.059,-0.303,-0.166,-0.185
2.778,-0.049,-0.039,0.01,0.044,-0.029,-0.015,0.059,-0.293,-0.059,-0.303,-0.166,-0.185
2.78,-0.049,-0.044,0.005,0.049,-0.029,-0.02,0.059,-0.293,-0.059,-0.303,-0.166,-0.185
2.782,-0.049,-0.049,0.0,0.049,-0.024,-0.024,0.059,-0.293,-0.059,-0.303,-0.166,-0.185
2.784,-0.054,-0.044,0.01,0.049,-0.034,-0.02,0.054,-0.293,-0.059,-0.293,-0.176,-0.195
2.786,-0.059,-0.039,0.02,0.049,-0.039,-0.01,0.049,-0.293,-0.059,-0.293,-0.176,-0.195
2.788,-0.063,-0.034,0.029,0.049,-0.049,-0.005,0.044,-0.293,-0.059,-0.293,-0.176,-0.195
2.79,-0.068,-0.029,0.039,0.049,-0.054,0.005,0.039,-0.293,-0.059,-0.293,-0.176,-0.195
2.792,-0.059,-0.024,0.034,0.044,-0.049,0.005,0.049,-0.288,-0.049,-0.283,-0.166,-0.19
2.794,-0.049,-0.02,0.029,0.034,-0.039,0.005,0.049,-0.283,-0.049,-0.283,-0.166,-0.185
2.796,-0.039,-0.015,0.024,0.029,-0.034,0.005,0.049,-0.278,-0.049,-0.283,-0.166,-0.181
2.798,-0.029,-0.01,0.02,0.02,-0.024,0.005,0.049,-0.273,-0.049,-0.283,-0.166,-0.176
2.8,-0.029,-0.02,0.01,0.024,-0.02,-0.005,0.049,-0.283,-0.059,-0.283,-0.166,-0.181
2.802,-0.029,-0.02,0.01,0.024,-0.02,-0.005,0.049,-0.283,-0.059,-0.283,-0.166,-0.185
2.804,-0.029,-0.02,0.01,0.024,-0.02,-0.005,0.049,-0.283,-0.059,-0.283,-0.166,-0.19
2.806,-0.029,-0.02,0.01,0.024,-0.02,-0.005,0.049,-0.283,-0.059,-0.283,-0.166,-0.195
2.808,-0.034,-0.029,0.005,0.034,-0.02,-0.015,0.039,-0.283,-0.068,-0.293,-0.176,-0.195
2.81,-0.039,-0.029,0.01,0.034,-0.024,-0.01,0.039,-0.283,-0.068,-0.293,-0.176,-0.195
2.812,-0.044,-0.029,0.015,0.039,-0.029,-0.01,0.039,-0.283,-0.068,-0.293,-0.176,-0.195
2.814,-0.049,-0.029,0.02,0.039,-0.034,-0.005,0.039,-0.283,-0.068,-0.293,-0.176,-0.195
2.816,-0.039,-0.029,0.01,0.034,-0.024,-0.01,0.039,-0.293,-0.068,-0.283,-0.166,-0.195
2.818,-0.039,-0.029,0.01,0.034,-0.024,-0.01,0.039,-0.293,-0.068,-0.283,-0.166,-0.195
2.82,-0.039,-0.029,0.01,0.034,-0.024,-0.01,0.039,-0.293,-0.068,-0.283,-0.166,-0.195
2.822,-0.039,-0.029,0.01,0.034,-0.024,-0.01,0.039,-0.293,-0.068,-0.283,-0.166,-0.195
2.824,-0.054,-0.02,0.034,0.039,-0.044,0.005,0.039,-0.293,-0.068,-0.283,-0.176,-0.185
2.826,-0.059,-0.02,0.039,0.039,-0.049,0.01,0.039,-0.293,-0.068,-0.283,-0.176,-0.185
2.828,-0.063,-0.02,0.044,0.044,-0.054,0.01,0.039,-0.293,-0.068,-0.283,-0.176,-0.185
2.83,-0.068,-0.02,0.049,0.044,-0.059,0.015,0.039,-0.293,-0.068,-0.283,-0.176,-0.185
2.832,-0.068,-0.029,0.039,0.049,-0.054,0.005,0.039,-0.283,-0.068,-0.283,-0.176,-0.195
2.834,-0.068,-0.029,0.039,0.049,-0.054,0.005,0.039,-0.283,-0.068,-0.283,-0.176,-0.195
2.836,-0.068,-0.029,0.039,0.049,-0.054,0.005,0.039,-0.283,-0.068,-0.283,-0.176,-0.195
2.838,-0.068,-0.029,0.039,0.049,-0.054,0.005,0.039,-0.283,-0.068,-0.283,-0.176,-0.195
2.84,-0.068,-0.039,0.029,0.054,-0.049,-0.005,0.034,-0.293,-0.078,-0.283,-0.176,-0.205
2.842,-0.068,-0.039,0.029,0.054,-0.049,-0.005,0.029,-0.293,-0.078,-0.283,-0.176,-0.205
2.844,-0.068,-0.034,0.034,0.054,-0.054,0.0,0.024,-0.293,-0.073,-0.283,-0.176,-0.2
2.846,-0.063,-0.024,0.039,0.044,-0.054,0.005,0.029,-0.283,-0.068,-0.283,-0.161,-0.19
2.848,-0.049,-0.005,0.044,0.029,-0.049,0.02,0.044,-0.273,-0.054,-0.273,-0.161,-0.181
2.85,-0.049,0.0,0.049,0.024,-0.049,0.024,0.049,-0.273,-0.054,-0.268,-0.161,-0.185
2.852,-0.068,0.005,0.073,0.034,-0.073,0.039,0.049,-0.273,-0.054,-0.268,-0.156,-0.185
2.854,-0.078,0.01,0.088,0.034,-0.083,0.049,0.049,-0.268,-0.049,-0.268,-0.156,-0.176
2.856,-0.049,0.024,0.073,0.015,-0.063,0.049,0.059,-0.254,-0.039,-0.268,-0.146,-0.176
2.858,-0.02,0.039,0.059,-0.01,-0.039,0.049,0.063,-0.239,-0.029,-0.249,-0.142,-0.166
2.86,-0.005,0.054,0.059,-0.024,-0.034,0.054,0.073,-0.239,-0.029,-0.249,-0.137,-0.166
2.862,0.02,0.073,0.054,-0.044,-0.02,0.063,0.073,-0.239,-0.029,-0.249,-0.137,-0.166
2.864,-0.005,0.073,0.078,-0.034,-0.044,0.073,0.083,-0.244,-0.024,-0.239,-0.122,-0.151
2.866,-0.024,0.049,0.073,-0.01,-0.049,0.059,0.083,-0.244,-0.024,-0.239,-0.122,-0.151
2.868,-0.049,0.029,0.078,0.01,-0.063,0.054,0.083,-0.249,-0.029,-0.239,-0.127,-0.156
2.87,-0.063,0.02,0.083,0.024,-0.073,0.049,0.083,-0.249,-0.029,-0.239,-0.127,-0.156
2.872,-0.054,0.029,0.083,0.015,-0.068,0.054,0.078,-0.234,-0.01,-0.22,-0.117,-0.151
2.874,-0.049,0.034,0.083,0.01,-0.068,0.059,0.083,-0.234,-0.005,-0.215,-0.112,-0.142
2.876,-0.044,0.039,0.083,0.005,-0.063,0.059,0.083,-0.234,-0.005,-0.215,-0.112,-0.142
2.878,-0.029,0.049,0.078,-0.01,-0.054,0.063,0.083,-0.224,0.005,-0.21,-0.102,-0.137
2.88,-0.029,0.049,0.078,-0.01,-0.054,0.063,0.083,-0.22,0.0,-0.205,-0.098,-0.142
2.882,-0.029,0.049,0.078,-0.01,-0.054,0.063,0.083,-0.22,0.005,-0.21,-0.098,-0.137
2.884,-0.029,0.049,0.078,-0.01,-0.054,0.063,0.068,-0.22,0.005,-0.215,-0.098,-0.137
2.886,-0.024,0.049,0.073,-0.01,-0.049,0.059,0.059,-0.22,0.005,-0.215,-0.098,-0.132
2.888,-0.015,0.068,0.083,-0.024,-0.049,0.073,0.063,-0.21,0.015,-0.205,-0.083,-0.117
2.89,-0.024,0.073,0.098,-0.024,-0.063,0.083,0.054,-0.22,0.01,-0.2,-0.083,-0.112
2.892,-0.01,0.078,0.088,-0.034,-0.049,0.083,0.044,-0.224,0.005,-0.2,-0.083,-0.112
2.894,-0.01,0.093,0.102,-0.039,-0.059,0.098,0.039,-0.234,0.0,-0.21,-0.088,-0.122
2.896,-0.024,0.083,0.107,-0.029,-0.068,0.093,0.015,-0.259,-0.02,-0.229,-0.107,-0.132
2.898,-0.034,0.054,0.088,-0.01,-0.063,0.068,0.0,-0.273,-0.034,-0.249,-0.117,-0.142
