time,I,II,III,aVR,aVL,aVF,V1,V2,V3,V4,V5,V6
0.0,-0.044,-0.054,-0.01,0.049,-0.02,-0.034,0.029,0.185,-0.015,-0.02,-0.049,-0.049
0.002,-0.02,-0.024,-0.005,0.024,-0.01,-0.015,0.039,0.19,0.0,-0.015,-0.039,-0.039
0.004,-0.02,-0.02,0.0,0.02,-0.01,-0.01,0.039,0.185,0.0,-0.015,-0.044,-0.039
0.006,-0.039,-0.039,0.0,0.039,-0.02,-0.02,0.044,0.176,0.0,-0.01,-0.044,-0.044
0.008,-0.034,-0.034,0.0,0.034,-0.02,-0.02,0.034,0.166,-0.005,-0.015,-0.054,-0.049
0.01,-0.039,-0.029,0.01,0.034,-0.024,-0.01,0.029,0.171,-0.005,-0.02,-0.059,-0.044
0.012,-0.039,-0.029,0.01,0.034,-0.024,-0.01,0.034,0.185,-0.005,-0.024,-0.054,-0.044
0.014,-0.02,-0.015,0.005,0.02,-0.015,-0.005,0.039,0.21,0.005,-0.01,-0.044,-0.039
0.016,-0.034,-0.01,0.024,0.024,-0.029,0.005,0.049,0.224,0.01,-0.005,-0.034,-0.034
0.018,-0.024,-0.02,0.005,0.024,-0.015,-0.01,0.049,0.234,0.015,-0.01,-0.039,-0.034
0.02,-0.02,-0.015,0.005,0.02,-0.015,-0.005,0.039,0.239,0.005,-0.01,-0.039,-0.039
0.022,-0.024,-0.024,0.0,0.024,-0.015,-0.015,0.044,0.234,0.01,-0.01,-0.039,-0.044
0.024,-0.024,-0.024,0.0,0.024,-0.015,-0.015,0.044,0.229,0.01,-0.02,-0.044,-0.044
0.026,-0.029,-0.029,0.0,0.029,-0.015,-0.015,0.044,0.224,0.005,-0.02,-0.049,-0.049
0.028,-0.049,-0.029,0.02,0.039,-0.034,-0.005,0.044,0.21,0.01,-0.02,-0.049,-0.039
0.03,-0.029,-0.02,0.01,0.024,-0.02,-0.005,0.054,0.22,0.02,-0.01,-0.044,-0.034
0.032,-0.049,-0.034,0.015,0.044,-0.034,-0.01,0.044,0.224,0.01,-0.02,-0.054,-0.044
0.034,-0.034,-0.015,0.02,0.024,-0.029,0.0,0.049,0.249,0.02,-0.01,-0.039,-0.039
0.036,-0.029,0.0,0.029,0.015,-0.029,0.015,0.054,0.268,0.024,0.0,-0.029,-0.024
0.038,-0.029,-0.02,0.01,0.024,-0.02,-0.005,0.054,0.264,0.02,-0.01,-0.039,-0.034
0.04,-0.024,-0.015,0.01,0.02,-0.02,-0.005,0.054,0.273,0.024,-0.005,-0.029,-0.029
0.042,-0.034,-0.015,0.02,0.024,-0.029,0.0,0.049,0.268,0.024,-0.01,-0.029,-0.034
0.044,-0.015,-0.005,0.01,0.01,-0.015,0.0,0.054,0.259,0.024,-0.01,-0.039,-0.034
0.046,-0.01,-0.01,0.0,0.01,-0.005,-0.005,0.054,0.254,0.024,-0.01,-0.039,-0.034
0.048,-0.029,-0.02,0.01,0.024,-0.02,-0.005,0.049,0.239,0.015,-0.015,-0.044,-0.039
0.05,-0.024,-0.015,0.01,0.02,-0.02,-0.005,0.044,0.244,0.02,-0.015,-0.049,-0.039
0.052,-0.02,0.005,0.024,0.01,-0.024,0.015,0.063,0.268,0.024,0.0,-0.024,-0.02
0.054,-0.054,-0.039,0.015,0.049,-0.034,-0.015,0.039,0.259,0.01,-0.02,-0.039,-0.039
0.056,-0.059,-0.034,0.024,0.049,-0.044,-0.005,0.039,0.264,0.015,-0.02,-0.039,-0.034
0.058,-0.054,-0.029,0.024,0.044,-0.039,-0.005,0.049,0.293,0.029,0.0,-0.024,-0.024
0.06,-0.034,-0.015,0.02,0.024,-0.029,0.0,0.049,0.303,0.029,0.01,-0.015,-0.015
0.062,-0.029,-0.02,0.01,0.024,-0.02,-0.005,0.049,0.293,0.029,0.0,-0.024,-0.02
0.064,-0.039,-0.024,0.015,0.034,-0.029,-0.005,0.044,0.288,0.029,-0.005,-0.02,-0.024
0.066,-0.029,-0.015,0.015,0.024,-0.024,0.0,0.054,0.283,0.029,0.0,-0.024,-0.02
0.068,-0.02,-0.005,0.015,0.015,-0.02,0.005,0.044,0.273,0.024,-0.01,-0.029,-0.024
0.07,-0.02,-0.01,0.01,0.015,-0.015,0.0,0.034,0.254,0.02,-0.02,-0.039,-0.034
0.072,-0.024,-0.005,0.02,0.015,-0.024,0.005,0.034,0.264,0.015,-0.015,-0.029,-0.029
0.074,-0.029,-0.01,0.02,0.02,-0.024,0.005,0.034,0.268,0.015,-0.02,-0.029,-0.029
0.076,-0.034,-0.015,0.02,0.024,-0.029,0.0,0.029,0.278,0.015,-0.02,-0.024,-0.029
0.078,-0.024,0.0,0.024,0.015,-0.024,0.01,0.039,0.307,0.029,0.0,-0.01,-0.015
0.08,-0.029,-0.02,0.01,0.024,-0.02,-0.005,0.034,0.307,0.024,0.0,-0.01,-0.01
0.082,-0.024,-0.005,0.02,0.015,-0.024,0.005,0.049,0.312,0.039,-0.005,-0.005,-0.005
0.084,-0.02,-0.005,0.015,0.015,-0.02,0.005,0.039,0.298,0.024,-0.01,-0.015,-0.02
0.086,-0.039,-0.029,0.01,0.034,-0.024,-0.01,0.029,0.278,0.01,-0.024,-0.029,-0.034
0.088,-0.02,-0.01,0.01,0.015,-0.015,0.0,0.039,0.283,0.02,-0.015,-0.024,-0.02
0.09,0.0,0.02,0.02,-0.01,-0.01,0.02,0.044,0.288,0.024,-0.01,-0.02,-0.015
0.092,-0.015,0.005,0.02,0.005,-0.02,0.01,0.034,0.293,0.015,-0.015,-0.02,-0.02
0.094,-0.024,0.0,0.024,0.015,-0.024,0.01,0.029,0.298,0.01,-0.024,-0.029,-0.024
0.096,-0.029,-0.015,0.015,0.024,-0.024,0.0,0.024,0.307,0.005,-0.029,-0.029,-0.029
0.098,-0.024,-0.015,0.01,0.02,-0.02,-0.005,0.029,0.327,0.015,-0.024,-0.024,-0.024
0.1,-0.01,0.0,0.01,0.005,-0.01,0.005,0.039,0.346,0.015,-0.02,-0.015,-0.01
0.102,-0.02,-0.005,0.015,0.015,-0.02,0.005,0.034,0.346,0.02,-0.02,-0.02,-0.015
0.104,-0.015,-0.015,0.0,0.015,-0.01,-0.01,0.029,0.342,0.01,-0.024,-0.024,-0.02
0.106,-0.02,-0.02,0.0,0.02,-0.01,-0.01,0.029,0.332,0.0,-0.034,-0.034,-0.029
0.108,-0.015,-0.005,0.01,0.01,-0.015,0.0,0.034,0.327,0.005,-0.029,-0.029,-0.02
0.11,-0.01,0.0,0.01,0.005,-0.01,0.005,0.029,0.337,0.005,-0.034,-0.029,-0.024
0.112,-0.005,0.005,0.01,0.0,-0.01,0.005,0.034,0.346,-0.005,-0.034,-0.024,-0.024
0.114,0.005,0.01,0.005,-0.005,0.0,0.005,0.039,0.371,0.0,-0.034,-0.024,-0.02
0.116,0.01,0.015,0.005,-0.01,0.0,0.01,0.034,0.386,-0.005,-0.029,-0.02,-0.02
0.118,-0.01,-0.005,0.005,0.01,-0.01,0.0,0.029,0.4,-0.005,-0.029,-0.024,-0.024
0.12,-0.015,-0.015,0.0,0.015,-0.01,-0.01,0.034,0.41,-0.005,-0.029,-0.024,-0.02
0.122,-0.034,-0.039,-0.005,0.039,-0.015,-0.024,0.024,0.4,-0.015,-0.044,-0.034,-0.034
0.124,-0.034,-0.039,-0.005,0.039,-0.015,-0.024,0.024,0.395,-0.02,-0.044,-0.034,-0.034
0.126,-0.01,-0.01,0.0,0.01,-0.005,-0.005,0.039,0.405,-0.005,-0.039,-0.024,-0.029
0.128,-0.029,-0.029,0.0,0.029,-0.015,-0.015,0.034,0.395,-0.015,-0.054,-0.034,-0.034
0.13,-0.01,-0.015,-0.005,0.015,-0.005,-0.01,0.029,0.405,-0.01,-0.049,-0.034,-0.034
0.132,-0.01,-0.005,0.005,0.01,-0.01,0.0,0.034,0.415,-0.015,-0.044,-0.024,-0.029
0.134,-0.063,-0.054,0.01,0.059,-0.039,-0.024,0.02,0.42,-0.034,-0.059,-0.044,-0.044
0.136,-0.044,-0.029,0.015,0.039,-0.029,-0.01,0.02,0.434,-0.024,-0.059,-0.039,-0.039
0.138,-0.029,-0.024,0.005,0.029,-0.02,-0.01,0.029,0.449,-0.02,-0.059,-0.034,-0.034
0.14,-0.024,-0.02,0.005,0.024,-0.015,-0.01,0.034,0.468,-0.024,-0.054,-0.029,-0.034
0.142,-0.015,-0.02,-0.005,0.02,-0.005,-0.015,0.034,0.468,-0.02,-0.049,-0.039,-0.029
0.144,-0.034,-0.034,0.0,0.034,-0.02,-0.02,0.024,0.449,-0.034,-0.063,-0.049,-0.044
0.146,-0.034,-0.039,-0.005,0.039,-0.015,-0.024,0.029,0.439,-0.034,-0.063,-0.049,-0.044
0.148,-0.024,-0.024,0.0,0.024,-0.015,-0.015,0.034,0.439,-0.029,-0.068,-0.049,-0.034
0.15,-0.029,-0.02,0.01,0.024,-0.02,-0.005,0.034,0.439,-0.029,-0.063,-0.049,-0.039
0.152,-0.034,-0.015,0.02,0.024,-0.029,0.0,0.034,0.449,-0.029,-0.063,-0.044,-0.039
0.154,-0.029,-0.02,0.01,0.024,-0.02,-0.005,0.029,0.464,-0.029,-0.063,-0.049,-0.044
0.156,-0.029,-0.02,0.01,0.024,-0.02,-0.005,0.029,0.473,-0.034,-0.063,-0.049,-0.039
0.158,-0.024,-0.015,0.01,0.02,-0.02,-0.005,0.039,0.493,-0.024,-0.054,-0.034,-0.029
0.16,-0.01,-0.015,-0.005,0.015,-0.005,-0.01,0.039,0.483,-0.029,-0.063,-0.039,-0.034
0.162,-0.015,-0.024,-0.01,0.02,-0.005,-0.02,0.034,0.483,-0.029,-0.063,-0.044,-0.039
0.164,-0.034,-0.029,0.005,0.034,-0.02,-0.015,0.034,0.468,-0.039,-0.068,-0.044,-0.039
0.166,-0.034,-0.039,-0.005,0.039,-0.015,-0.024,0.029,0.454,-0.039,-0.073,-0.049,-0.044
0.168,-0.029,-0.034,-0.005,0.034,-0.015,-0.02,0.024,0.439,-0.044,-0.083,-0.059,-0.044
0.17,-0.039,-0.044,-0.005,0.044,-0.02,-0.024,0.029,0.429,-0.049,-0.083,-0.063,-0.054
0.172,-0.029,-0.034,-0.005,0.034,-0.015,-0.02,0.029,0.429,-0.054,-0.088,-0.063,-0.059
0.174,-0.01,-0.02,-0.01,0.015,0.0,-0.015,0.029,0.449,-0.044,-0.078,-0.054,-0.054
0.176,-0.02,-0.024,-0.005,0.024,-0.01,-0.015,0.029,0.454,-0.049,-0.073,-0.054,-0.049
0.178,-0.01,-0.01,0.0,0.01,-0.005,-0.005,0.034,0.468,-0.039,-0.063,-0.049,-0.044
0.18,-0.02,-0.015,0.005,0.02,-0.015,-0.005,0.039,0.468,-0.039,-0.063,-0.049,-0.039
0.182,-0.029,-0.02,0.01,0.024,-0.02,-0.005,0.044,0.464,-0.034,-0.059,-0.044,-0.039
0.184,-0.039,-0.029,0.01,0.034,-0.024,-0.01,0.044,0.444,-0.044,-0.063,-0.049,-0.039
0.186,-0.044,-0.034,0.01,0.039,-0.029,-0.015,0.034,0.42,-0.049,-0.073,-0.059,-0.054
0.188,-0.039,-0.039,0.0,0.039,-0.02,-0.02,0.029,0.395,-0.059,-0.078,-0.068,-0.054
0.19,-0.044,-0.054,-0.01,0.049,-0.02,-0.034,0.029,0.39,-0.059,-0.078,-0.068,-0.059
0.192,-0.029,-0.034,-0.005,0.034,-0.015,-0.02,0.029,0.386,-0.059,-0.073,-0.063,-0.054
0.194,-0.024,-0.024,0.0,0.024,-0.015,-0.015,0.034,0.4,-0.049,-0.068,-0.059,-0.049
0.196,-0.024,-0.02,0.005,0.024,-0.015,-0.01,0.044,0.41,-0.039,-0.063,-0.049,-0.039
0.198,-0.029,-0.039,-0.01,0.034,-0.01,-0.024,0.039,0.415,-0.039,-0.063,-0.049,-0.039
0.2,-0.034,-0.044,-0.01,0.039,-0.015,-0.029,0.029,0.405,-0.049,-0.068,-0.063,-0.044
0.202,-0.039,-0.044,-0.005,0.044,-0.02,-0.024,0.039,0.39,-0.044,-0.068,-0.054,-0.049
0.204,-0.029,-0.039,-0.01,0.034,-0.01,-0.024,0.039,0.371,-0.039,-0.073,-0.054,-0.044
0.206,-0.044,-0.049,-0.005,0.049,-0.02,-0.029,0.039,0.351,-0.049,-0.078,-0.063,-0.054
0.208,-0.034,-0.034,0.0,0.034,-0.02,-0.02,0.029,0.322,-0.063,-0.088,-0.073,-0.059
0.21,-0.015,-0.01,0.005,0.015,-0.01,-0.005,0.044,0.327,-0.049,-0.078,-0.059,-0.049
0.212,-0.039,-0.039,0.0,0.039,-0.02,-0.02,0.024,0.312,-0.063,-0.088,-0.073,-0.059
0.214,-0.059,-0.054,0.005,0.059,-0.034,-0.024,0.029,0.312,-0.059,-0.088,-0.073,-0.063
0.216,-0.073,-0.059,0.015,0.068,-0.044,-0.024,0.034,0.312,-0.054,-0.083,-0.063,-0.049
0.218,-0.063,-0.063,0.0,0.063,-0.034,-0.034,0.039,0.317,-0.049,-0.078,-0.059,-0.049
0.22,-0.029,-0.024,0.005,0.029,-0.02,-0.01,0.044,0.317,-0.044,-0.078,-0.054,-0.044
0.222,-0.024,-0.029,-0.005,0.029,-0.01,-0.02,0.044,0.303,-0.044,-0.078,-0.054,-0.044
0.224,-0.034,-0.039,-0.005,0.039,-0.015,-0.024,0.039,0.278,-0.049,-0.083,-0.059,-0.054
0.226,-0.024,-0.029,-0.005,0.029,-0.01,-0.02,0.044,0.264,-0.054,-0.083,-0.059,-0.049
0.228,-0.024,-0.024,0.0,0.024,-0.015,-0.015,0.039,0.239,-0.063,-0.088,-0.068,-0.054
0.23,-0.029,-0.034,-0.005,0.034,-0.015,-0.02,0.029,0.215,-0.073,-0.102,-0.078,-0.068
0.232,-0.029,-0.029,0.0,0.029,-0.015,-0.015,0.039,0.224,-0.068,-0.088,-0.073,-0.054
0.234,-0.029,-0.02,0.01,0.024,-0.02,-0.005,0.039,0.224,-0.059,-0.093,-0.063,-0.049
0.236,-0.044,-0.039,0.005,0.044,-0.024,-0.02,0.039,0.229,-0.059,-0.088,-0.068,-0.054
0.238,-0.039,-0.039,0.0,0.039,-0.02,-0.02,0.034,0.22,-0.059,-0.088,-0.068,-0.059
0.24,-0.034,-0.029,0.005,0.034,-0.02,-0.015,0.039,0.224,-0.054,-0.083,-0.068,-0.049
0.242,-0.024,-0.024,0.0,0.024,-0.015,-0.015,0.044,0.205,-0.054,-0.083,-0.063,-0.054
0.244,-0.034,-0.034,0.0,0.034,-0.02,-0.02,0.039,0.185,-0.059,-0.088,-0.068,-0.059
0.246,-0.034,-0.039,-0.005,0.039,-0.015,-0.024,0.044,0.166,-0.059,-0.093,-0.073,-0.059
0.248,-0.039,-0.034,0.005,0.039,-0.024,-0.015,0.034,0.142,-0.073,-0.102,-0.088,-0.063
0.25,-0.029,-0.034,-0.005,0.034,-0.015,-0.02,0.034,0.127,-0.073,-0.098,-0.083,-0.068
0.252,-0.029,-0.02,0.01,0.024,-0.02,-0.005,0.034,0.132,-0.073,-0.098,-0.083,-0.063
0.254,-0.039,-0.039,0.0,0.039,-0.02,-0.02,0.034,0.132,-0.068,-0.098,-0.083,-0.059
0.256,-0.024,-0.024,0.0,0.024,-0.015,-0.015,0.039,0.132,-0.063,-0.093,-0.068,-0.054
0.258,-0.005,-0.02,-0.015,0.015,0.005,-0.02,0.044,0.142,-0.059,-0.083,-0.063,-0.054
0.26,-0.044,-0.059,-0.015,0.054,-0.015,-0.039,0.034,0.132,-0.068,-0.102,-0.073,-0.068
0.262,-0.044,-0.049,-0.005,0.049,-0.02,-0.029,0.049,0.127,-0.054,-0.093,-0.063,-0.054
0.264,-0.029,-0.034,-0.005,0.034,-0.015,-0.02,0.044,0.112,-0.063,-0.098,-0.068,-0.059
0.266,-0.044,-0.044,0.0,0.044,-0.024,-0.024,0.044,0.083,-0.068,-0.102,-0.073,-0.063
0.268,-0.059,-0.059,0.0,0.059,-0.029,-0.029,0.039,0.073,-0.068,-0.107,-0.078,-0.059
0.27,-0.034,-0.029,0.005,0.034,-0.02,-0.015,0.049,0.068,-0.059,-0.102,-0.068,-0.054
0.272,-0.01,-0.005,0.005,0.01,-0.01,0.0,0.049,0.068,-0.063,-0.098,-0.068,-0.054
0.274,-0.034,-0.029,0.005,0.034,-0.02,-0.015,0.039,0.068,-0.068,-0.112,-0.068,-0.059
0.276,-0.044,-0.059,-0.015,0.054,-0.015,-0.039,0.029,0.059,-0.073,-0.117,-0.083,-0.068
0.278,-0.059,-0.059,0.0,0.059,-0.029,-0.029,0.034,0.063,-0.068,-0.112,-0.073,-0.063
0.28,-0.034,-0.029,0.005,0.034,-0.02,-0.015,0.039,0.068,-0.063,-0.107,-0.068,-0.059
0.282,-0.02,-0.034,-0.015,0.029,-0.005,-0.024,0.049,0.063,-0.054,-0.102,-0.063,-0.054
0.284,-0.034,-0.039,-0.005,0.039,-0.015,-0.024,0.044,0.044,-0.068,-0.107,-0.078,-0.063
0.286,-0.039,-0.044,-0.005,0.044,-0.02,-0.024,0.049,0.034,-0.068,-0.117,-0.073,-0.059
0.288,-0.029,-0.044,-0.015,0.039,-0.01,-0.029,0.039,0.015,-0.078,-0.122,-0.088,-0.063
0.29,-0.039,-0.02,0.02,0.029,-0.029,0.0,0.054,0.02,-0.063,-0.112,-0.068,-0.054
0.292,-0.049,-0.034,0.015,0.044,-0.034,-0.01,0.039,0.005,-0.083,-0.122,-0.083,-0.063
0.294,-0.049,-0.034,0.015,0.044,-0.034,-0.01,0.044,0.02,-0.073,-0.112,-0.073,-0.054
0.296,-0.044,-0.02,0.024,0.034,-0.034,0.0,0.049,0.039,-0.063,-0.102,-0.068,-0.049
0.298,-0.044,-0.024,0.02,0.034,-0.034,-0.005,0.049,0.044,-0.063,-0.102,-0.068,-0.054
0.3,-0.02,-0.01,0.01,0.015,-0.015,0.0,0.054,0.049,-0.059,-0.098,-0.073,-0.049
0.302,-0.039,-0.029,0.01,0.034,-0.024,-0.01,0.054,0.044,-0.059,-0.107,-0.073,-0.054
0.304,-0.063,-0.068,-0.005,0.068,-0.029,-0.039,0.039,0.015,-0.073,-0.117,-0.083,-0.063
0.306,-0.054,-0.049,0.005,0.054,-0.029,-0.024,0.049,0.01,-0.068,-0.117,-0.083,-0.059
0.308,-0.049,-0.044,0.005,0.049,-0.029,-0.02,0.044,-0.01,-0.073,-0.122,-0.088,-0.063
0.31,-0.034,-0.034,0.0,0.034,-0.02,-0.02,0.049,-0.015,-0.073,-0.122,-0.088,-0.063
0.312,-0.02,-0.005,0.015,0.015,-0.02,0.005,0.049,0.0,-0.068,-0.117,-0.083,-0.054
0.314,-0.034,-0.02,0.015,0.029,-0.024,-0.005,0.044,0.005,-0.063,-0.117,-0.083,-0.059
0.316,-0.029,-0.015,0.015,0.024,-0.024,0.0,0.049,0.015,-0.063,-0.112,-0.078,-0.059
0.318,-0.044,-0.024,0.02,0.034,-0.034,-0.005,0.054,0.024,-0.059,-0.102,-0.068,-0.049
0.32,-0.044,-0.034,0.01,0.039,-0.029,-0.015,0.049,0.034,-0.059,-0.107,-0.073,-0.049
0.322,-0.029,-0.024,0.005,0.029,-0.02,-0.01,0.054,0.024,-0.059,-0.107,-0.073,-0.059
0.324,-0.039,-0.039,0.0,0.039,-0.02,-0.02,0.049,0.01,-0.063,-0.112,-0.078,-0.059
0.326,-0.049,-0.044,0.005,0.049,-0.029,-0.02,0.049,0.0,-0.068,-0.112,-0.078,-0.054
0.328,-0.039,-0.034,0.005,0.039,-0.024,-0.015,0.044,-0.015,-0.073,-0.112,-0.083,-0.063
0.33,-0.044,-0.029,0.015,0.039,-0.029,-0.01,0.054,-0.02,-0.068,-0.112,-0.083,-0.059
0.332,-0.039,-0.029,0.01,0.034,-0.024,-0.01,0.049,-0.02,-0.078,-0.117,-0.088,-0.059
0.334,-0.054,-0.049,0.005,0.054,-0.029,-0.024,0.039,-0.005,-0.078,-0.112,-0.088,-0.068
0.336,-0.044,-0.034,0.01,0.039,-0.029,-0.015,0.049,0.01,-0.063,-0.102,-0.073,-0.054
0.338,-0.044,-0.029,0.015,0.039,-0.029,-0.01,0.054,0.034,-0.054,-0.093,-0.068,-0.044
0.34,-0.044,-0.029,0.015,0.039,-0.029,-0.01,0.049,0.034,-0.059,-0.098,-0.068,-0.049
0.342,-0.039,-0.029,0.01,0.034,-0.024,-0.01,0.054,0.039,-0.054,-0.088,-0.063,-0.049
0.344,-0.049,-0.039,0.01,0.044,-0.029,-0.015,0.044,0.015,-0.068,-0.102,-0.073,-0.059
0.346,-0.063,-0.059,0.005,0.063,-0.034,-0.029,0.039,0.005,-0.073,-0.107,-0.083,-0.063
0.348,-0.059,-0.044,0.015,0.054,-0.039,-0.015,0.039,0.0,-0.073,-0.102,-0.078,-0.059
0.35,-0.044,-0.039,0.005,0.044,-0.024,-0.02,0.039,-0.015,-0.073,-0.107,-0.088,-0.063
0.352,-0.024,-0.029,-0.005,0.029,-0.01,-0.02,0.039,-0.01,-0.078,-0.112,-0.088,-0.063
0.354,-0.024,-0.024,0.0,0.024,-0.015,-0.015,0.044,0.01,-0.063,-0.102,-0.073,-0.059
0.356,-0.034,-0.024,0.01,0.029,-0.024,-0.01,0.044,0.024,-0.059,-0.093,-0.063,-0.049
0.358,-0.034,-0.024,0.01,0.029,-0.024,-0.01,0.054,0.044,-0.054,-0.088,-0.059,-0.039
0.36,-0.044,-0.024,0.02,0.034,-0.034,-0.005,0.049,0.049,-0.059,-0.098,-0.063,-0.044
0.362,-0.044,-0.039,0.005,0.044,-0.024,-0.02,0.044,0.044,-0.063,-0.098,-0.063,-0.054
0.364,-0.024,-0.024,0.0,0.024,-0.015,-0.015,0.049,0.034,-0.059,-0.098,-0.059,-0.044
0.366,-0.015,-0.024,-0.01,0.02,-0.005,-0.02,0.044,0.02,-0.068,-0.102,-0.073,-0.049
0.368,-0.029,-0.029,0.0,0.029,-0.015,-0.015,0.039,-0.005,-0.073,-0.112,-0.083,-0.059
0.37,-0.059,-0.049,0.01,0.054,-0.034,-0.02,0.039,-0.01,-0.073,-0.112,-0.083,-0.059
0.372,-0.054,-0.044,0.01,0.049,-0.034,-0.02,0.039,-0.005,-0.073,-0.107,-0.083,-0.063
0.374,-0.024,-0.02,0.005,0.024,-0.015,-0.01,0.039,0.01,-0.063,-0.098,-0.073,-0.059
0.376,-0.039,-0.039,0.0,0.039,-0.02,-0.02,0.039,0.02,-0.068,-0.098,-0.073,-0.059
0.378,-0.063,-0.059,0.005,0.063,-0.034,-0.029,0.039,0.029,-0.068,-0.102,-0.073,-0.054
0.38,-0.049,-0.039,0.01,0.044,-0.029,-0.015,0.044,0.044,-0.054,-0.093,-0.063,-0.049
0.382,-0.034,-0.029,0.005,0.034,-0.02,-0.015,0.049,0.039,-0.054,-0.093,-0.059,-0.044
0.384,-0.029,-0.034,-0.005,0.034,-0.015,-0.02,0.044,0.015,-0.063,-0.098,-0.068,-0.054
0.386,-0.015,-0.015,0.0,0.015,-0.01,-0.01,0.044,0.005,-0.063,-0.098,-0.073,-0.049
0.388,-0.039,-0.029,0.01,0.034,-0.024,-0.01,0.039,-0.01,-0.063,-0.093,-0.073,-0.059
0.39,-0.044,-0.029,0.015,0.039,-0.029,-0.01,0.039,-0.024,-0.068,-0.098,-0.078,-0.054
0.392,-0.039,-0.02,0.02,0.029,-0.029,0.0,0.049,-0.01,-0.059,-0.093,-0.073,-0.054
0.394,-0.054,-0.039,0.015,0.049,-0.034,-0.015,0.044,-0.01,-0.059,-0.088,-0.073,-0.054
0.396,-0.049,-0.044,0.005,0.049,-0.029,-0.02,0.039,-0.01,-0.059,-0.088,-0.073,-0.054
0.398,-0.029,-0.015,0.015,0.024,-0.024,0.0,0.049,0.01,-0.049,-0.088,-0.068,-0.049
0.4,-0.039,-0.024,0.015,0.034,-0.029,-0.005,0.049,0.01,-0.054,-0.088,-0.063,-0.049
0.402,-0.02,-0.024,-0.005,0.024,-0.01,-0.015,0.049,0.005,-0.054,-0.083,-0.068,-0.049
0.404,-0.024,-0.005,0.02,0.015,-0.024,0.005,0.063,0.005,-0.044,-0.078,-0.059,-0.039
0.406,-0.029,0.0,0.029,0.015,-0.029,0.015,0.078,-0.005,-0.039,-0.078,-0.054,-0.044
0.408,-0.034,0.005,0.039,0.015,-0.039,0.02,0.078,-0.015,-0.034,-0.073,-0.054,-0.044
0.41,-0.024,0.015,0.039,0.005,-0.034,0.024,0.093,-0.005,-0.024,-0.068,-0.044,-0.029
0.412,-0.029,0.02,0.049,0.005,-0.039,0.034,0.102,0.01,-0.015,-0.063,-0.039,-0.029
0.414,-0.039,0.005,0.044,0.02,-0.044,0.024,0.107,0.02,-0.02,-0.063,-0.034,-0.029
0.416,-0.024,0.01,0.034,0.01,-0.029,0.02,0.117,0.024,-0.015,-0.054,-0.034,-0.024
0.418,-0.029,0.005,0.034,0.015,-0.034,0.02,0.122,0.049,0.0,-0.054,-0.029,-0.024
0.42,-0.034,0.01,0.044,0.015,-0.039,0.024,0.137,0.063,0.01,-0.044,-0.015,-0.02
0.422,-0.02,0.024,0.044,0.0,-0.034,0.034,0.142,0.059,0.024,-0.024,-0.01,-0.01
0.424,-0.02,0.02,0.039,0.0,-0.029,0.029,0.132,0.044,0.015,-0.034,-0.02,-0.02
0.426,-0.029,0.005,0.034,0.015,-0.034,0.02,0.122,0.034,0.01,-0.044,-0.024,-0.024
0.428,-0.015,0.02,0.034,0.0,-0.024,0.024,0.117,0.02,0.015,-0.034,-0.015,-0.02
0.43,-0.039,0.01,0.049,0.015,-0.044,0.029,0.102,0.015,0.005,-0.044,-0.024,-0.024
0.432,-0.034,0.015,0.049,0.01,-0.044,0.029,0.088,0.01,0.005,-0.049,-0.02,-0.02
0.434,0.0,0.029,0.029,-0.015,-0.015,0.029,0.073,0.01,-0.005,-0.049,-0.015,-0.02
0.436,-0.01,0.024,0.034,-0.005,-0.024,0.029,0.054,0.01,-0.01,-0.049,-0.02,-0.02
0.438,-0.02,0.015,0.034,0.005,-0.029,0.024,0.039,0.015,-0.005,-0.049,-0.02,-0.015
0.44,-0.034,-0.005,0.029,0.02,-0.034,0.01,0.024,0.005,-0.015,-0.049,-0.024,-0.024
0.442,-0.034,-0.015,0.02,0.024,-0.029,0.0,0.005,-0.02,-0.034,-0.059,-0.034,-0.024
0.444,-0.005,0.005,0.01,0.0,-0.01,0.005,0.0,-0.039,-0.034,-0.063,-0.039,-0.02
0.446,-0.02,-0.01,0.01,0.015,-0.015,0.0,-0.02,-0.078,-0.059,-0.083,-0.054,-0.034
0.448,-0.015,0.005,0.02,0.005,-0.02,0.01,-0.005,-0.093,-0.063,-0.078,-0.054,-0.034
0.45,-0.029,0.0,0.029,0.015,-0.029,0.015,-0.005,-0.102,-0.068,-0.083,-0.059,-0.034
0.452,-0.015,0.0,0.015,0.01,-0.015,0.005,0.0,-0.102,-0.078,-0.093,-0.059,-0.039
0.454,-0.01,0.015,0.024,0.0,-0.02,0.02,-0.005,-0.098,-0.078,-0.093,-0.059,-0.034
0.456,-0.015,0.005,0.02,0.005,-0.02,0.01,0.0,-0.088,-0.078,-0.088,-0.049,-0.039
0.458,-0.02,0.0,0.02,0.01,-0.02,0.01,0.005,-0.078,-0.078,-0.088,-0.049,-0.034
0.46,-0.02,-0.005,0.015,0.015,-0.02,0.005,0.005,-0.068,-0.068,-0.078,-0.044,-0.029
0.462,-0.02,-0.015,0.005,0.02,-0.015,-0.005,-0.01,-0.088,-0.083,-0.088,-0.054,-0.034
0.464,-0.02,-0.02,0.0,0.02,-0.01,-0.01,-0.005,-0.102,-0.078,-0.083,-0.054,-0.029
0.466,-0.02,-0.015,0.005,0.02,-0.015,-0.005,0.0,-0.107,-0.078,-0.088,-0.059,-0.024
0.468,-0.01,-0.01,0.0,0.01,-0.005,-0.005,0.005,-0.107,-0.073,-0.083,-0.054,-0.029
0.47,-0.01,-0.024,-0.015,0.02,0.0,-0.02,-0.005,-0.127,-0.083,-0.093,-0.063,-0.034
0.472,-0.029,-0.049,-0.02,0.039,-0.005,-0.034,-0.01,-0.117,-0.088,-0.102,-0.073,-0.044
0.474,-0.024,-0.039,-0.015,0.034,-0.005,-0.029,-0.005,-0.093,-0.078,-0.093,-0.063,-0.034
0.476,-0.039,-0.049,-0.01,0.044,-0.015,-0.029,-0.01,-0.088,-0.083,-0.083,-0.059,-0.034
0.478,0.0,-0.015,-0.015,0.01,0.005,-0.015,0.0,-0.078,-0.078,-0.083,-0.049,-0.024
0.48,0.015,0.0,-0.015,-0.005,0.015,-0.01,0.0,-0.063,-0.073,-0.083,-0.044,-0.02
0.482,-0.01,-0.029,-0.02,0.02,0.005,-0.024,-0.005,-0.083,-0.088,-0.088,-0.059,-0.024
0.484,-0.015,-0.029,-0.015,0.024,0.0,-0.024,-0.005,-0.098,-0.088,-0.093,-0.063,-0.034
0.486,-0.005,-0.02,-0.015,0.015,0.005,-0.02,0.01,-0.088,-0.078,-0.088,-0.059,-0.029
0.488,-0.02,-0.029,-0.01,0.024,-0.005,-0.02,0.0,-0.107,-0.088,-0.102,-0.073,-0.044
0.49,-0.029,-0.034,-0.005,0.034,-0.015,-0.02,0.01,-0.112,-0.088,-0.098,-0.073,-0.044
0.492,-0.044,-0.029,0.015,0.039,-0.029,-0.01,0.02,-0.088,-0.073,-0.088,-0.068,-0.039
0.494,-0.059,-0.049,0.01,0.054,-0.034,-0.02,0.02,-0.068,-0.078,-0.093,-0.068,-0.044
0.496,-0.049,-0.029,0.02,0.039,-0.034,-0.005,0.034,-0.049,-0.068,-0.083,-0.063,-0.039
0.498,-0.059,-0.039,0.02,0.049,-0.039,-0.01,0.039,-0.029,-0.068,-0.083,-0.059,-0.039
0.5,-0.049,-0.044,0.005,0.049,-0.029,-0.02,0.034,-0.034,-0.073,-0.093,-0.073,-0.059
0.502,-0.044,-0.049,-0.005,0.049,-0.02,-0.029,0.029,-0.039,-0.088,-0.098,-0.073,-0.063
0.504,-0.049,-0.054,-0.005,0.054,-0.024,-0.029,0.034,-0.039,-0.078,-0.093,-0.078,-0.063
0.506,-0.049,-0.039,0.01,0.044,-0.029,-0.015,0.039,-0.049,-0.078,-0.093,-0.078,-0.063
0.508,-0.049,-0.049,0.0,0.049,-0.024,-0.024,0.039,-0.059,-0.073,-0.093,-0.078,-0.063
0.51,-0.044,-0.059,-0.015,0.054,-0.015,-0.039,0.034,-0.068,-0.088,-0.102,-0.093,-0.068
0.512,-0.054,-0.054,0.0,0.054,-0.029,-0.029,0.039,-0.059,-0.083,-0.102,-0.088,-0.068
0.514,-0.049,-0.044,0.005,0.049,-0.029,-0.02,0.039,-0.044,-0.083,-0.098,-0.083,-0.068
0.516,-0.049,-0.044,0.005,0.049,-0.029,-0.02,0.034,-0.029,-0.083,-0.098,-0.078,-0.063
0.518,-0.049,-0.034,0.015,0.044,-0.034,-0.01,0.044,0.0,-0.073,-0.088,-0.068,-0.054
0.52,-0.054,-0.044,0.01,0.049,-0.034,-0.02,0.054,0.015,-0.063,-0.083,-0.063,-0.054
0.522,-0.044,-0.039,0.005,0.044,-0.024,-0.02,0.054,0.01,-0.068,-0.083,-0.063,-0.054
0.524,-0.034,-0.029,0.005,0.034,-0.02,-0.015,0.049,-0.005,-0.073,-0.088,-0.078,-0.063
0.526,-0.063,-0.054,0.01,0.059,-0.039,-0.024,0.054,-0.005,-0.068,-0.083,-0.078,-0.068
0.528,-0.044,-0.044,0.0,0.044,-0.024,-0.024,0.044,-0.02,-0.078,-0.088,-0.083,-0.073
0.53,-0.039,-0.049,-0.01,0.044,-0.015,-0.029,0.039,-0.024,-0.088,-0.098,-0.088,-0.078
0.532,-0.044,-0.054,-0.01,0.049,-0.02,-0.034,0.044,-0.02,-0.083,-0.102,-0.088,-0.073
0.534,-0.039,-0.049,-0.01,0.044,-0.015,-0.029,0.049,0.005,-0.073,-0.093,-0.073,-0.063
0.536,-0.054,-0.059,-0.005,0.059,-0.024,-0.034,0.049,0.02,-0.068,-0.088,-0.073,-0.063
0.538,-0.054,-0.063,-0.01,0.059,-0.024,-0.039,0.054,0.034,-0.068,-0.083,-0.078,-0.059
0.54,-0.054,-0.059,-0.005,0.059,-0.024,-0.034,0.059,0.044,-0.054,-0.073,-0.063,-0.054
0.542,-0.044,-0.049,-0.005,0.049,-0.02,-0.029,0.054,0.049,-0.059,-0.073,-0.068,-0.059
0.544,-0.02,-0.02,0.0,0.02,-0.01,-0.01,0.063,0.044,-0.049,-0.063,-0.063,-0.049
0.546,-0.034,-0.034,0.0,0.034,-0.02,-0.02,0.059,0.034,-0.059,-0.073,-0.068,-0.063
0.548,-0.068,-0.068,0.0,0.068,-0.034,-0.034,0.039,0.01,-0.073,-0.088,-0.083,-0.078
0.55,-0.034,-0.049,-0.015,0.044,-0.01,-0.034,0.044,0.015,-0.073,-0.083,-0.083,-0.073
0.552,-0.044,-0.049,-0.005,0.049,-0.02,-0.029,0.049,0.024,-0.059,-0.073,-0.068,-0.063
0.554,-0.044,-0.044,0.0,0.044,-0.024,-0.024,0.059,0.049,-0.054,-0.068,-0.063,-0.059
0.556,-0.029,-0.034,-0.005,0.034,-0.015,-0.02,0.054,0.063,-0.049,-0.063,-0.063,-0.059
0.558,-0.029,-0.034,-0.005,0.034,-0.015,-0.02,0.063,0.093,-0.039,-0.059,-0.059,-0.054
0.56,-0.059,-0.073,-0.015,0.068,-0.024,-0.044,0.068,0.102,-0.039,-0.068,-0.073,-0.078
0.562,-0.059,-0.068,-0.01,0.063,-0.024,-0.039,0.093,0.137,-0.02,-0.054,-0.083,-0.083
0.564,-0.088,-0.078,0.01,0.083,-0.049,-0.034,0.117,0.161,-0.005,-0.068,-0.102,-0.107
0.566,-0.102,-0.063,0.039,0.083,-0.073,-0.015,0.146,0.2,0.02,-0.068,-0.112,-0.122
0.568,-0.102,-0.049,0.054,0.078,-0.078,0.0,0.161,0.215,0.063,-0.029,-0.088,-0.117
0.57,-0.088,-0.039,0.049,0.063,-0.068,0.005,0.156,0.249,0.142,0.068,-0.005,-0.083
0.572,-0.068,-0.049,0.02,0.059,-0.044,-0.015,0.142,0.303,0.234,0.19,0.122,-0.034
0.574,-0.034,-0.063,-0.029,0.049,-0.005,-0.049,0.127,0.4,0.361,0.332,0.268,0.029
0.576,0.005,-0.044,-0.049,0.02,0.024,-0.049,0.127,0.522,0.532,0.542,0.478,0.137
0.578,0.039,-0.01,-0.049,-0.015,0.044,-0.029,0.112,0.63,0.712,0.791,0.737,0.278
0.58,0.132,0.063,-0.068,-0.098,0.098,-0.005,0.088,0.688,0.908,1.064,1.02,0.444
0.582,0.195,0.117,-0.078,-0.156,0.137,0.02,0.054,0.62,1.039,1.298,1.264,0.59
0.584,0.229,0.151,-0.078,-0.19,0.151,0.034,-0.039,0.381,1.088,1.493,1.503,0.752
0.586,0.332,0.224,-0.107,-0.278,0.22,0.059,-0.185,0.044,1.049,1.596,1.693,0.898
0.588,0.415,0.273,-0.142,-0.342,0.278,0.063,-0.288,-0.288,0.927,1.508,1.679,0.961
0.59,0.415,0.249,-0.166,-0.332,0.288,0.039,-0.346,-0.615,0.625,1.088,1.347,0.888
0.592,0.42,0.21,-0.21,-0.312,0.312,0.0,-0.395,-0.917,0.234,0.556,0.883,0.752
0.594,0.41,0.21,-0.2,-0.307,0.303,0.005,-0.425,-1.196,-0.146,0.068,0.434,0.615
0.596,0.361,0.205,-0.156,-0.283,0.259,0.024,-0.473,-1.503,-0.527,-0.317,0.063,0.493
0.598,0.293,0.195,-0.098,-0.244,0.195,0.049,-0.547,-1.737,-0.849,-0.59,-0.215,0.371
0.6,0.2,0.146,-0.054,-0.171,0.127,0.044,-0.576,-1.864,-1.113,-0.8,-0.454,0.205
0.602,0.142,0.102,-0.039,-0.122,0.088,0.029,-0.595,-1.864,-1.244,-0.893,-0.581,0.088
0.604,0.122,0.078,-0.044,-0.098,0.083,0.015,-0.634,-1.791,-1.254,-0.883,-0.6,0.029
0.606,0.117,0.078,-0.039,-0.098,0.078,0.02,-0.644,-1.654,-1.166,-0.795,-0.537,0.02
0.608,0.107,0.088,-0.02,-0.098,0.063,0.034,-0.625,-1.469,-1.039,-0.688,-0.464,0.034
0.61,0.122,0.098,-0.024,-0.107,0.073,0.034,-0.59,-1.279,-0.917,-0.605,-0.41,0.024
0.612,0.117,0.078,-0.039,-0.098,0.078,0.02,-0.527,-1.064,-0.795,-0.522,-0.356,0.01
0.614,0.098,0.063,-0.034,-0.078,0.063,0.015,-0.444,-0.849,-0.669,-0.449,-0.307,-0.005
0.616,0.059,0.049,-0.01,-0.054,0.034,0.02,-0.346,-0.649,-0.527,-0.366,-0.244,0.0
0.618,0.049,0.049,0.0,-0.049,0.024,0.024,-0.254,-0.483,-0.415,-0.293,-0.2,-0.01
0.62,0.039,0.034,-0.005,-0.034,0.02,0.015,-0.195,-0.381,-0.346,-0.239,-0.176,-0.024
0.622,0.005,0.01,0.005,-0.005,0.0,0.005,-0.142,-0.298,-0.278,-0.205,-0.156,-0.029
0.624,-0.005,0.015,0.02,-0.005,-0.015,0.015,-0.083,-0.229,-0.21,-0.156,-0.122,-0.029
0.626,-0.024,0.0,0.024,0.015,-0.024,0.01,-0.044,-0.171,-0.166,-0.122,-0.102,-0.029
0.628,-0.039,-0.015,0.024,0.029,-0.034,0.005,-0.01,-0.142,-0.137,-0.107,-0.093,-0.039
0.63,-0.049,-0.024,0.024,0.039,-0.039,0.0,0.01,-0.122,-0.112,-0.107,-0.093,-0.049
0.632,-0.049,-0.039,0.01,0.044,-0.029,-0.015,0.02,-0.098,-0.107,-0.102,-0.093,-0.054
0.634,-0.039,-0.02,0.02,0.029,-0.029,0.0,0.034,-0.059,-0.088,-0.088,-0.088,-0.049
0.636,-0.044,-0.02,0.024,0.034,-0.034,0.0,0.049,-0.024,-0.059,-0.068,-0.068,-0.039
0.638,-0.034,-0.01,0.024,0.024,-0.029,0.005,0.059,0.01,-0.039,-0.054,-0.059,-0.034
0.64,-0.029,-0.01,0.02,0.02,-0.024,0.005,0.059,0.01,-0.044,-0.054,-0.059,-0.034
0.642,-0.034,-0.029,0.005,0.034,-0.02,-0.015,0.063,0.01,-0.039,-0.063,-0.063,-0.044
0.644,0.005,-0.01,-0.015,0.005,0.01,-0.015,0.063,-0.005,-0.029,-0.054,-0.063,-0.044
0.646,-0.015,-0.02,-0.005,0.02,-0.005,-0.015,0.073,-0.005,-0.029,-0.054,-0.063,-0.039
0.648,-0.044,-0.034,0.01,0.039,-0.029,-0.015,0.068,-0.029,-0.034,-0.059,-0.073,-0.049
0.65,-0.054,-0.034,0.02,0.044,-0.039,-0.01,0.063,-0.049,-0.034,-0.063,-0.073,-0.054
0.652,-0.054,-0.034,0.02,0.044,-0.039,-0.01,0.068,-0.039,-0.029,-0.059,-0.068,-0.054
0.654,-0.024,-0.005,0.02,0.015,-0.024,0.005,0.083,-0.024,-0.02,-0.049,-0.054,-0.049
0.656,-0.054,-0.029,0.024,0.044,-0.039,-0.005,0.073,-0.029,-0.024,-0.054,-0.059,-0.054
0.658,-0.063,-0.034,0.029,0.049,-0.049,-0.005,0.073,-0.015,-0.015,-0.049,-0.054,-0.054
0.66,-0.044,-0.024,0.02,0.034,-0.034,-0.005,0.078,-0.01,-0.01,-0.044,-0.054,-0.049
0.662,-0.029,-0.015,0.015,0.024,-0.024,0.0,0.093,-0.015,0.0,-0.044,-0.049,-0.044
0.664,-0.029,-0.02,0.01,0.024,-0.02,-0.005,0.093,-0.034,-0.005,-0.039,-0.049,-0.039
0.666,-0.039,-0.029,0.01,0.034,-0.024,-0.01,0.093,-0.049,-0.005,-0.044,-0.049,-0.044
0.668,-0.039,-0.029,0.01,0.034,-0.024,-0.01,0.088,-0.083,-0.01,-0.049,-0.059,-0.054
0.67,-0.049,-0.034,0.015,0.044,-0.034,-0.01,0.088,-0.093,-0.005,-0.044,-0.054,-0.049
0.672,-0.034,-0.02,0.015,0.029,-0.024,-0.005,0.088,-0.088,0.0,-0.049,-0.049,-0.049
0.674,-0.029,-0.015,0.015,0.024,-0.024,0.0,0.093,-0.078,0.0,-0.044,-0.044,-0.039
0.676,-0.034,-0.02,0.015,0.029,-0.024,-0.005,0.088,-0.078,0.005,-0.039,-0.044,-0.039
0.678,-0.039,-0.024,0.015,0.034,-0.029,-0.005,0.088,-0.063,0.01,-0.034,-0.039,-0.034
0.68,-0.034,-0.034,0.0,0.034,-0.02,-0.02,0.088,-0.059,0.005,-0.034,-0.044,-0.044
0.682,-0.039,-0.034,0.005,0.039,-0.024,-0.015,0.088,-0.063,0.01,-0.039,-0.044,-0.039
0.684,-0.024,-0.024,0.0,0.024,-0.015,-0.015,0.093,-0.068,0.02,-0.029,-0.039,-0.029
0.686,-0.044,-0.049,-0.005,0.049,-0.02,-0.029,0.093,-0.078,0.005,-0.044,-0.044,-0.039
0.688,-0.049,-0.044,0.005,0.049,-0.029,-0.02,0.093,-0.098,0.005,-0.044,-0.049,-0.044
0.69,-0.063,-0.044,0.02,0.054,-0.044,-0.015,0.093,-0.107,0.01,-0.044,-0.044,-0.044
0.692,-0.044,-0.024,0.02,0.034,-0.034,-0.005,0.093,-0.102,0.01,-0.039,-0.039,-0.044
0.694,-0.044,-0.024,0.02,0.034,-0.034,-0.005,0.098,-0.088,0.01,-0.039,-0.039,-0.039
0.696,-0.039,-0.024,0.015,0.034,-0.029,-0.005,0.098,-0.083,0.02,-0.029,-0.034,-0.039
0.698,-0.024,-0.015,0.01,0.02,-0.02,-0.005,0.093,-0.073,0.015,-0.029,-0.034,-0.039
0.7,-0.029,-0.02,0.01,0.024,-0.02,-0.005,0.093,-0.059,0.015,-0.029,-0.034,-0.039
0.702,-0.024,-0.024,0.0,0.024,-0.015,-0.015,0.093,-0.068,0.015,-0.029,-0.034,-0.039
0.704,-0.02,-0.015,0.005,0.02,-0.015,-0.005,0.098,-0.068,0.024,-0.02,-0.029,-0.039
0.706,-0.024,-0.02,0.005,0.024,-0.015,-0.01,0.093,-0.078,0.015,-0.029,-0.039,-0.039
0.708,-0.02,-0.029,-0.01,0.024,-0.005,-0.02,0.093,-0.098,0.01,-0.039,-0.039,-0.044
0.71,-0.024,-0.015,0.01,0.02,-0.02,-0.005,0.093,-0.102,0.015,-0.034,-0.034,-0.044
0.712,-0.049,-0.024,0.024,0.039,-0.039,0.0,0.078,-0.107,0.005,-0.039,-0.044,-0.049
0.714,-0.029,-0.01,0.02,0.02,-0.024,0.005,0.088,-0.093,0.015,-0.039,-0.034,-0.044
0.716,-0.024,-0.005,0.02,0.015,-0.024,0.005,0.093,-0.078,0.02,-0.024,-0.024,-0.039
0.718,-0.024,-0.005,0.02,0.015,-0.024,0.005,0.093,-0.068,0.024,-0.024,-0.024,-0.039
0.72,-0.02,-0.01,0.01,0.015,-0.015,0.0,0.093,-0.059,0.024,-0.02,-0.024,-0.034
0.722,-0.029,-0.02,0.01,0.024,-0.02,-0.005,0.098,-0.068,0.029,-0.02,-0.024,-0.029
0.724,-0.029,-0.01,0.02,0.02,-0.024,0.005,0.102,-0.068,0.039,-0.015,-0.02,-0.024
0.726,-0.029,-0.005,0.024,0.02,-0.029,0.01,0.102,-0.078,0.034,-0.02,-0.015,-0.024
0.728,-0.029,-0.02,0.01,0.024,-0.02,-0.005,0.093,-0.112,0.029,-0.024,-0.029,-0.039
0.73,-0.034,-0.015,0.02,0.024,-0.029,0.0,0.088,-0.117,0.029,-0.024,-0.029,-0.039
0.732,-0.01,0.015,0.024,0.0,-0.02,0.02,0.098,-0.112,0.034,-0.01,-0.015,-0.029
0.734,-0.029,0.0,0.029,0.015,-0.029,0.015,0.093,-0.107,0.034,-0.015,-0.015,-0.029
0.736,-0.034,-0.005,0.029,0.02,-0.034,0.01,0.093,-0.102,0.039,-0.01,-0.015,-0.029
0.738,-0.044,-0.015,0.029,0.029,-0.039,0.005,0.088,-0.088,0.039,-0.015,-0.024,-0.034
0.74,-0.039,-0.015,0.024,0.029,-0.034,0.005,0.098,-0.083,0.044,-0.005,-0.015,-0.02
0.742,-0.015,-0.005,0.01,0.01,-0.015,0.0,0.098,-0.088,0.049,-0.005,-0.01,-0.02
0.744,-0.029,-0.02,0.01,0.024,-0.02,-0.005,0.088,-0.107,0.049,-0.01,-0.015,-0.024
0.746,-0.024,-0.01,0.015,0.02,-0.02,0.0,0.093,-0.117,0.049,0.0,-0.015,-0.02
0.748,-0.005,-0.005,0.0,0.005,-0.005,-0.005,0.098,-0.132,0.049,0.0,-0.01,-0.024
0.75,-0.024,-0.02,0.005,0.024,-0.015,-0.01,0.083,-0.146,0.044,-0.01,-0.02,-0.029
0.752,-0.029,-0.015,0.015,0.024,-0.024,0.0,0.083,-0.142,0.044,0.0,-0.015,-0.024
0.754,-0.02,-0.005,0.015,0.015,-0.02,0.005,0.093,-0.122,0.054,0.015,0.0,-0.015
0.756,-0.029,-0.01,0.02,0.02,-0.024,0.005,0.093,-0.107,0.063,0.02,0.01,-0.01
0.758,-0.02,-0.005,0.015,0.015,-0.02,0.005,0.093,-0.093,0.068,0.02,0.005,-0.015
0.76,-0.02,-0.005,0.015,0.015,-0.02,0.005,0.093,-0.083,0.068,0.024,0.005,-0.015
0.762,-0.005,-0.005,0.0,0.005,-0.005,-0.005,0.093,-0.083,0.068,0.02,0.005,-0.005
0.764,-0.015,-0.01,0.005,0.015,-0.01,-0.005,0.093,-0.088,0.073,0.029,0.01,-0.005
0.766,-0.024,-0.02,0.005,0.024,-0.015,-0.01,0.093,-0.098,0.073,0.024,0.01,-0.005
0.768,-0.039,-0.029,0.01,0.034,-0.024,-0.01,0.093,-0.112,0.068,0.02,0.005,-0.01
0.77,-0.039,-0.034,0.005,0.039,-0.024,-0.015,0.078,-0.122,0.063,0.015,0.0,-0.02
0.772,-0.005,0.005,0.01,0.0,-0.01,0.005,0.098,-0.102,0.073,0.034,0.015,-0.005
0.774,-0.005,0.005,0.01,0.0,-0.01,0.005,0.093,-0.083,0.083,0.039,0.02,0.0
0.776,-0.005,0.005,0.01,0.0,-0.01,0.005,0.088,-0.073,0.088,0.044,0.02,0.0
0.778,-0.005,0.015,0.02,-0.005,-0.015,0.015,0.093,-0.039,0.102,0.054,0.034,0.01
0.78,0.01,0.02,0.01,-0.015,0.0,0.015,0.093,-0.034,0.098,0.059,0.034,0.01
0.782,0.015,0.01,-0.005,-0.01,0.01,0.0,0.088,-0.098,0.098,0.049,0.029,0.005
0.784,0.01,0.01,0.0,-0.01,0.005,0.005,0.083,-0.161,0.102,0.059,0.029,0.005
0.786,-0.005,-0.005,0.0,0.005,-0.005,-0.005,0.083,-0.19,0.098,0.049,0.024,0.0
0.788,-0.005,-0.005,0.0,0.005,-0.005,-0.005,0.083,-0.21,0.098,0.054,0.024,0.0
0.79,-0.015,0.0,0.015,0.01,-0.015,0.005,0.078,-0.22,0.098,0.059,0.029,0.0
0.792,0.005,0.015,0.01,-0.01,-0.005,0.01,0.088,-0.205,0.102,0.068,0.039,0.01
0.794,0.02,0.039,0.02,-0.029,0.0,0.029,0.093,-0.185,0.117,0.083,0.059,0.024
0.796,0.01,0.029,0.02,-0.02,-0.005,0.024,0.083,-0.181,0.117,0.083,0.049,0.02
0.798,0.02,0.034,0.015,-0.024,0.0,0.024,0.083,-0.166,0.122,0.083,0.054,0.024
0.8,0.034,0.044,0.01,-0.039,0.01,0.024,0.083,-0.146,0.132,0.102,0.068,0.034
0.802,0.02,0.029,0.01,-0.024,0.005,0.02,0.078,-0.151,0.132,0.098,0.063,0.029
0.804,0.024,0.024,0.0,-0.024,0.01,0.01,0.073,-0.161,0.127,0.098,0.059,0.029
0.806,0.015,0.02,0.005,-0.015,0.005,0.01,0.068,-0.176,0.127,0.098,0.059,0.029
0.808,0.01,0.01,0.0,-0.01,0.005,0.005,0.059,-0.195,0.117,0.093,0.054,0.024
0.81,0.02,0.024,0.005,-0.02,0.005,0.015,0.063,-0.19,0.127,0.102,0.059,0.029
0.812,0.029,0.039,0.01,-0.034,0.01,0.024,0.063,-0.176,0.132,0.107,0.068,0.039
0.814,0.02,0.029,0.01,-0.024,0.005,0.02,0.059,-0.171,0.132,0.107,0.073,0.039
0.816,0.024,0.029,0.005,-0.024,0.01,0.015,0.054,-0.161,0.132,0.107,0.073,0.039
0.818,0.034,0.034,0.0,-0.034,0.015,0.015,0.054,-0.142,0.146,0.117,0.083,0.049
0.82,0.049,0.044,-0.005,-0.044,0.024,0.02,0.054,-0.127,0.151,0.122,0.098,0.059
0.822,0.044,0.049,0.005,-0.044,0.02,0.024,0.063,-0.122,0.161,0.132,0.098,0.063
0.824,0.039,0.039,0.0,-0.039,0.02,0.02,0.054,-0.127,0.161,0.137,0.093,0.063
0.826,0.034,0.039,0.005,-0.034,0.015,0.02,0.054,-0.142,0.156,0.137,0.098,0.068
0.828,0.039,0.039,0.0,-0.039,0.02,0.02,0.044,-0.161,0.151,0.132,0.088,0.063
0.83,0.059,0.063,0.005,-0.059,0.024,0.034,0.054,-0.156,0.161,0.142,0.102,0.078
0.832,0.054,0.054,0.0,-0.054,0.024,0.024,0.044,-0.146,0.161,0.137,0.102,0.078
0.834,0.044,0.049,0.005,-0.044,0.02,0.024,0.034,-0.146,0.161,0.142,0.112,0.083
0.836,0.059,0.068,0.01,-0.063,0.024,0.039,0.034,-0.127,0.171,0.151,0.112,0.088
0.838,0.063,0.068,0.005,-0.063,0.029,0.034,0.034,-0.102,0.181,0.156,0.122,0.098
0.84,0.073,0.073,0.0,-0.073,0.034,0.034,0.029,-0.093,0.181,0.171,0.137,0.112
0.842,0.059,0.063,0.005,-0.059,0.024,0.034,0.024,-0.093,0.181,0.166,0.142,0.112
0.844,0.063,0.059,-0.005,-0.059,0.034,0.024,0.024,-0.102,0.185,0.171,0.137,0.112
0.846,0.088,0.078,-0.01,-0.083,0.049,0.034,0.029,-0.098,0.185,0.181,0.146,0.122
0.848,0.093,0.098,0.005,-0.093,0.044,0.049,0.024,-0.112,0.185,0.181,0.146,0.122
0.85,0.059,0.078,0.02,-0.068,0.02,0.049,0.02,-0.117,0.185,0.176,0.146,0.122
0.852,0.088,0.083,-0.005,-0.083,0.044,0.039,0.02,-0.107,0.19,0.176,0.146,0.127
0.854,0.102,0.107,0.005,-0.102,0.049,0.054,0.024,-0.093,0.195,0.19,0.166,0.146
0.856,0.098,0.098,0.0,-0.098,0.049,0.049,0.015,-0.083,0.195,0.19,0.166,0.146
0.858,0.098,0.088,-0.01,-0.093,0.054,0.039,0.015,-0.063,0.2,0.195,0.171,0.151
0.86,0.078,0.073,-0.005,-0.073,0.039,0.034,0.0,-0.063,0.19,0.185,0.166,0.146
0.862,0.117,0.107,-0.01,-0.112,0.063,0.049,0.005,-0.059,0.2,0.195,0.176,0.161
0.864,0.107,0.098,-0.01,-0.102,0.059,0.044,0.0,-0.068,0.19,0.195,0.176,0.161
0.866,0.102,0.102,0.0,-0.102,0.049,0.049,0.0,-0.068,0.19,0.2,0.176,0.166
0.868,0.107,0.122,0.015,-0.112,0.044,0.068,0.005,-0.078,0.195,0.21,0.181,0.176
0.87,0.107,0.132,0.024,-0.117,0.039,0.078,0.0,-0.083,0.19,0.2,0.181,0.171
0.872,0.117,0.137,0.02,-0.127,0.049,0.078,-0.005,-0.078,0.195,0.205,0.19,0.176
0.874,0.112,0.137,0.024,-0.122,0.044,0.078,-0.005,-0.059,0.195,0.205,0.2,0.19
0.876,0.107,0.122,0.015,-0.112,0.044,0.068,-0.015,-0.063,0.19,0.2,0.19,0.185
0.878,0.102,0.127,0.024,-0.112,0.039,0.073,-0.01,-0.039,0.2,0.21,0.205,0.2
0.88,0.102,0.117,0.015,-0.107,0.044,0.063,-0.015,-0.024,0.2,0.21,0.21,0.2
0.882,0.102,0.112,0.01,-0.107,0.044,0.059,-0.029,-0.039,0.185,0.205,0.2,0.195
0.884,0.122,0.127,0.005,-0.122,0.059,0.063,-0.02,-0.039,0.195,0.215,0.205,0.205
0.886,0.122,0.132,0.01,-0.127,0.054,0.068,-0.02,-0.049,0.19,0.215,0.205,0.205
0.888,0.117,0.132,0.015,-0.122,0.049,0.073,-0.029,-0.063,0.181,0.21,0.2,0.205
0.89,0.117,0.132,0.015,-0.122,0.049,0.073,-0.029,-0.059,0.181,0.21,0.2,0.205
0.892,0.146,0.156,0.01,-0.151,0.068,0.083,-0.034,-0.059,0.176,0.21,0.195,0.205
0.894,0.132,0.151,0.02,-0.142,0.054,0.083,-0.029,-0.034,0.181,0.215,0.205,0.205
0.896,0.122,0.137,0.015,-0.127,0.054,0.073,-0.039,-0.034,0.176,0.21,0.2,0.2
0.898,0.127,0.137,0.01,-0.132,0.059,0.073,-0.029,-0.01,0.185,0.215,0.21,0.215
0.9,0.132,0.142,0.01,-0.137,0.059,0.073,-0.029,0.0,0.185,0.215,0.215,0.22
0.902,0.102,0.122,0.02,-0.112,0.039,0.068,-0.024,0.0,0.185,0.215,0.21,0.215
0.904,0.093,0.117,0.024,-0.102,0.034,0.068,-0.024,-0.01,0.185,0.215,0.205,0.215
0.906,0.117,0.132,0.015,-0.122,0.049,0.073,-0.02,-0.01,0.185,0.215,0.21,0.215
0.908,0.112,0.127,0.015,-0.117,0.049,0.068,-0.024,-0.029,0.176,0.21,0.195,0.205
0.91,0.127,0.146,0.02,-0.137,0.054,0.083,-0.015,-0.024,0.181,0.21,0.195,0.205
0.912,0.093,0.122,0.029,-0.107,0.029,0.073,-0.029,-0.029,0.166,0.195,0.185,0.195
0.914,0.098,0.127,0.029,-0.112,0.034,0.078,-0.029,-0.024,0.161,0.195,0.185,0.185
0.916,0.107,0.122,0.015,-0.112,0.044,0.068,-0.029,-0.01,0.166,0.205,0.181,0.195
0.918,0.107,0.132,0.024,-0.117,0.039,0.078,-0.015,0.02,0.176,0.205,0.19,0.2
0.92,0.088,0.132,0.044,-0.107,0.02,0.088,-0.005,0.029,0.176,0.21,0.195,0.2
0.922,0.078,0.102,0.024,-0.088,0.024,0.063,-0.01,0.024,0.171,0.2,0.19,0.185
0.924,0.083,0.088,0.005,-0.083,0.039,0.044,-0.015,-0.005,0.161,0.19,0.171,0.176
0.926,0.068,0.088,0.02,-0.078,0.024,0.054,-0.005,-0.01,0.161,0.185,0.171,0.176
0.928,0.073,0.098,0.024,-0.083,0.024,0.059,0.0,-0.02,0.151,0.181,0.161,0.171
0.93,0.073,0.102,0.029,-0.088,0.02,0.063,0.0,-0.034,0.151,0.176,0.156,0.156
0.932,0.073,0.107,0.034,-0.088,0.02,0.068,0.0,-0.029,0.146,0.171,0.156,0.156
0.934,0.068,0.098,0.029,-0.083,0.02,0.063,0.0,-0.024,0.146,0.166,0.146,0.146
0.936,0.063,0.088,0.024,-0.073,0.02,0.054,0.005,-0.02,0.146,0.166,0.146,0.146
0.938,0.059,0.083,0.024,-0.068,0.015,0.054,0.005,-0.01,0.146,0.166,0.146,0.146
0.94,0.054,0.073,0.02,-0.063,0.015,0.044,0.005,-0.02,0.137,0.156,0.142,0.127
0.942,0.073,0.083,0.01,-0.078,0.029,0.044,0.01,-0.024,0.132,0.156,0.137,0.132
0.944,0.063,0.068,0.005,-0.063,0.029,0.034,0.01,-0.054,0.132,0.151,0.127,0.127
0.946,0.029,0.034,0.005,-0.029,0.01,0.02,0.005,-0.083,0.107,0.127,0.107,0.098
0.948,0.049,0.054,0.005,-0.049,0.02,0.029,0.01,-0.098,0.107,0.127,0.098,0.093
0.95,0.029,0.044,0.015,-0.034,0.005,0.029,0.015,-0.117,0.102,0.122,0.093,0.088
0.952,0.015,0.049,0.034,-0.029,-0.01,0.039,0.02,-0.117,0.102,0.122,0.098,0.093
0.954,0.02,0.044,0.024,-0.029,-0.005,0.034,0.015,-0.127,0.088,0.107,0.088,0.073
0.956,0.02,0.044,0.024,-0.029,-0.005,0.034,0.02,-0.122,0.098,0.112,0.088,0.078
0.958,0.044,0.063,0.02,-0.054,0.01,0.039,0.029,-0.102,0.098,0.117,0.093,0.083
0.96,0.029,0.039,0.01,-0.034,0.01,0.024,0.02,-0.117,0.093,0.107,0.078,0.063
0.962,0.02,0.024,0.005,-0.02,0.005,0.015,0.024,-0.137,0.078,0.098,0.078,0.059
0.964,0.02,0.02,0.0,-0.02,0.01,0.01,0.02,-0.161,0.073,0.088,0.063,0.049
0.966,0.01,0.024,0.015,-0.015,-0.005,0.02,0.024,-0.181,0.068,0.088,0.059,0.044
0.968,0.0,0.015,0.015,-0.005,-0.01,0.015,0.02,-0.205,0.054,0.073,0.044,0.034
0.97,0.0,0.015,0.015,-0.005,-0.01,0.015,0.024,-0.22,0.054,0.073,0.044,0.039
0.972,-0.02,0.01,0.029,0.005,-0.024,0.02,0.02,-0.229,0.044,0.063,0.039,0.034
0.974,-0.015,0.02,0.034,0.0,-0.024,0.024,0.029,-0.224,0.049,0.063,0.044,0.034
0.976,-0.005,0.015,0.02,-0.005,-0.015,0.015,0.029,-0.22,0.049,0.059,0.039,0.034
0.978,-0.015,0.0,0.015,0.01,-0.015,0.005,0.029,-0.21,0.039,0.059,0.044,0.034
0.98,-0.015,0.01,0.024,0.005,-0.02,0.015,0.039,-0.21,0.039,0.063,0.044,0.034
0.982,-0.029,0.0,0.029,0.015,-0.029,0.015,0.044,-0.22,0.049,0.063,0.039,0.039
0.984,-0.01,0.005,0.015,0.005,-0.015,0.01,0.044,-0.244,0.049,0.063,0.034,0.029
0.986,-0.01,0.005,0.015,0.005,-0.015,0.01,0.039,-0.254,0.034,0.049,0.024,0.02
0.988,-0.039,-0.02,0.02,0.029,-0.029,0.0,0.034,-0.288,0.024,0.034,0.01,0.005
0.99,-0.029,-0.005,0.024,0.02,-0.029,0.01,0.039,-0.298,0.02,0.029,0.01,0.01
0.992,-0.024,0.0,0.024,0.015,-0.024,0.01,0.039,-0.298,0.02,0.024,0.005,0.005
0.994,-0.039,-0.015,0.024,0.029,-0.034,0.005,0.034,-0.303,0.01,0.02,0.005,0.005
0.996,-0.039,-0.01,0.029,0.024,-0.034,0.01,0.044,-0.283,0.02,0.029,0.01,0.015
0.998,-0.029,0.0,0.029,0.015,-0.029,0.015,0.049,-0.273,0.024,0.034,0.02,0.02
1.0,-0.015,0.0,0.015,0.01,-0.015,0.005,0.044,-0.273,0.02,0.034,0.01,0.005
1.002,-0.01,-0.005,0.005,0.01,-0.01,0.0,0.044,-0.288,0.02,0.034,0.0,0.01
1.004,-0.01,0.005,0.015,0.005,-0.015,0.01,0.059,-0.307,0.029,0.034,0.005,0.015
1.006,-0.034,-0.01,0.024,0.024,-0.029,0.005,0.054,-0.317,0.02,0.034,0.005,0.01
1.008,-0.063,-0.029,0.034,0.049,-0.049,0.0,0.044,-0.351,0.005,0.02,-0.01,-0.005
1.01,-0.059,-0.015,0.044,0.039,-0.054,0.015,0.039,-0.366,0.005,0.015,-0.015,-0.005
1.012,-0.068,-0.02,0.049,0.044,-0.059,0.015,0.044,-0.356,0.005,0.015,-0.015,-0.01
1.014,-0.049,-0.015,0.034,0.034,-0.044,0.01,0.039,-0.356,0.0,0.01,-0.015,-0.01
1.016,-0.029,0.0,0.029,0.015,-0.029,0.015,0.044,-0.346,0.005,0.01,-0.015,-0.005
1.018,-0.024,0.0,0.024,0.015,-0.024,0.01,0.049,-0.327,0.01,0.015,-0.005,-0.005
1.02,-0.039,-0.015,0.024,0.029,-0.034,0.005,0.049,-0.327,0.01,0.02,-0.01,-0.005
1.022,-0.059,-0.029,0.029,0.044,-0.044,0.0,0.049,-0.327,0.01,0.015,-0.015,0.0
1.024,-0.068,-0.039,0.029,0.054,-0.049,-0.005,0.054,-0.351,0.01,0.01,-0.02,-0.01
1.026,-0.02,-0.01,0.01,0.015,-0.015,0.0,0.054,-0.356,0.005,0.01,-0.024,-0.015
1.028,-0.024,0.0,0.024,0.015,-0.024,0.01,0.054,-0.366,0.005,0.005,-0.029,-0.01
1.03,-0.059,-0.01,0.049,0.034,-0.054,0.02,0.054,-0.361,0.01,0.005,-0.024,-0.015
1.032,-0.059,-0.015,0.044,0.039,-0.054,0.015,0.049,-0.361,0.005,0.0,-0.029,-0.02
1.034,-0.049,-0.01,0.039,0.029,-0.044,0.015,0.049,-0.351,0.0,0.0,-0.029,-0.024
1.036,-0.039,-0.005,0.034,0.024,-0.039,0.015,0.049,-0.342,0.005,-0.005,-0.034,-0.024
1.038,-0.044,-0.01,0.034,0.029,-0.039,0.01,0.054,-0.322,0.01,0.005,-0.02,-0.02
1.04,-0.054,-0.02,0.034,0.039,-0.044,0.005,0.054,-0.307,0.01,0.01,-0.024,-0.015
1.042,-0.039,-0.02,0.02,0.029,-0.029,0.0,0.054,-0.317,0.01,0.01,-0.029,-0.015
1.044,-0.049,-0.034,0.015,0.044,-0.034,-0.01,0.054,-0.322,0.01,0.0,-0.034,-0.024
1.046,-0.044,-0.029,0.015,0.039,-0.029,-0.01,0.054,-0.327,0.005,-0.005,-0.039,-0.029
1.048,-0.049,-0.015,0.034,0.034,-0.044,0.01,0.059,-0.327,0.015,0.0,-0.034,-0.02
1.05,-0.054,-0.01,0.044,0.034,-0.049,0.015,0.063,-0.322,0.015,0.0,-0.034,-0.015
1.052,-0.059,-0.005,0.054,0.034,-0.059,0.024,0.059,-0.322,0.02,0.0,-0.029,-0.024
1.054,-0.054,0.0,0.054,0.029,-0.054,0.024,0.059,-0.298,0.01,0.005,-0.024,-0.02
1.056,-0.059,-0.01,0.049,0.034,-0.054,0.02,0.059,-0.283,0.015,0.0,-0.029,-0.029
1.058,-0.044,-0.01,0.034,0.029,-0.039,0.01,0.059,-0.268,0.015,0.005,-0.029,-0.029
1.06,-0.044,-0.015,0.029,0.029,-0.039,0.005,0.054,-0.264,0.015,0.0,-0.034,-0.034
1.062,-0.068,-0.029,0.039,0.049,-0.054,0.005,0.059,-0.268,0.02,0.0,-0.039,-0.024
1.064,-0.049,-0.005,0.044,0.029,-0.049,0.02,0.073,-0.268,0.034,0.005,-0.034,-0.02
1.066,-0.054,-0.015,0.039,0.034,-0.049,0.01,0.068,-0.278,0.024,0.005,-0.034,-0.024
1.068,-0.054,-0.02,0.034,0.039,-0.044,0.005,0.059,-0.298,0.02,0.0,-0.044,-0.034
1.07,-0.049,0.0,0.049,0.024,-0.049,0.024,0.068,-0.298,0.024,0.0,-0.044,-0.024
1.072,-0.063,-0.005,0.059,0.034,-0.063,0.024,0.068,-0.288,0.029,-0.005,-0.039,-0.029
1.074,-0.059,-0.005,0.054,0.034,-0.059,0.024,0.063,-0.273,0.02,-0.005,-0.039,-0.029
1.076,-0.059,0.0,0.059,0.029,-0.059,0.029,0.063,-0.259,0.029,0.0,-0.039,-0.024
1.078,-0.063,-0.005,0.059,0.034,-0.063,0.024,0.073,-0.239,0.039,0.015,-0.029,-0.02
1.08,-0.039,0.0,0.039,0.02,-0.039,0.02,0.078,-0.234,0.039,0.015,-0.029,-0.02
1.082,-0.054,-0.02,0.034,0.039,-0.044,0.005,0.073,-0.254,0.029,0.005,-0.039,-0.024
1.084,-0.063,-0.029,0.034,0.049,-0.049,0.0,0.078,-0.264,0.039,0.01,-0.034,-0.024
1.086,-0.034,0.0,0.034,0.02,-0.034,0.015,0.083,-0.268,0.044,0.015,-0.024,-0.015
1.088,-0.049,-0.02,0.029,0.034,-0.039,0.005,0.073,-0.298,0.029,0.0,-0.039,-0.024
1.09,-0.078,-0.039,0.039,0.059,-0.059,0.0,0.073,-0.312,0.024,-0.005,-0.049,-0.029
1.092,-0.054,-0.01,0.044,0.034,-0.049,0.015,0.073,-0.298,0.034,0.01,-0.029,-0.024
1.094,-0.054,-0.015,0.039,0.034,-0.049,0.01,0.073,-0.283,0.029,0.01,-0.029,-0.024
1.096,-0.049,0.005,0.054,0.024,-0.054,0.029,0.078,-0.273,0.039,0.015,-0.024,-0.02
1.098,-0.059,0.0,0.059,0.029,-0.059,0.029,0.088,-0.259,0.044,0.02,-0.015,-0.02
1.1,-0.049,-0.01,0.039,0.029,-0.044,0.015,0.083,-0.254,0.044,0.024,-0.02,-0.02
1.102,-0.049,-0.015,0.034,0.034,-0.044,0.01,0.083,-0.264,0.049,0.024,-0.02,-0.01
1.104,-0.063,-0.02,0.044,0.044,-0.054,0.01,0.083,-0.283,0.049,0.015,-0.02,-0.015
1.106,-0.063,-0.015,0.049,0.039,-0.059,0.015,0.083,-0.298,0.044,0.024,-0.02,-0.015
1.108,-0.039,0.0,0.039,0.02,-0.039,0.02,0.088,-0.312,0.044,0.02,-0.024,-0.015
1.11,-0.054,-0.01,0.044,0.034,-0.049,0.015,0.073,-0.322,0.034,0.01,-0.034,-0.024
1.112,-0.049,-0.005,0.044,0.029,-0.049,0.02,0.063,-0.317,0.034,0.015,-0.024,-0.024
1.114,-0.068,-0.015,0.054,0.044,-0.063,0.02,0.073,-0.298,0.029,0.015,-0.02,-0.02
1.116,-0.049,-0.01,0.039,0.029,-0.044,0.015,0.073,-0.293,0.039,0.01,-0.024,-0.02
1.118,-0.044,-0.01,0.034,0.029,-0.039,0.01,0.073,-0.273,0.034,0.015,-0.02,-0.02
1.12,-0.049,-0.005,0.044,0.029,-0.049,0.02,0.083,-0.268,0.044,0.029,-0.005,-0.01
1.122,-0.039,0.0,0.039,0.02,-0.039,0.02,0.083,-0.273,0.044,0.02,-0.01,-0.005
1.124,-0.039,0.0,0.039,0.02,-0.039,0.02,0.078,-0.288,0.044,0.02,-0.015,-0.015
1.126,-0.059,-0.034,0.024,0.049,-0.044,-0.005,0.068,-0.312,0.024,0.005,-0.02,-0.024
1.128,-0.029,-0.01,0.02,0.02,-0.024,0.005,0.068,-0.317,0.029,0.005,-0.024,-0.015
1.13,-0.039,-0.01,0.029,0.024,-0.034,0.01,0.063,-0.327,0.024,0.0,-0.029,-0.024
1.132,-0.039,-0.005,0.034,0.024,-0.039,0.015,0.063,-0.317,0.02,0.0,-0.024,-0.024
1.134,-0.039,0.0,0.039,0.02,-0.039,0.02,0.068,-0.298,0.02,0.015,-0.015,-0.01
1.136,-0.034,-0.005,0.029,0.02,-0.034,0.01,0.063,-0.283,0.024,0.005,-0.02,-0.015
1.138,-0.034,0.0,0.034,0.02,-0.034,0.015,0.063,-0.264,0.024,0.01,-0.015,-0.015
1.14,-0.039,-0.005,0.034,0.024,-0.039,0.015,0.068,-0.259,0.029,0.024,-0.005,-0.01
1.142,-0.02,-0.005,0.015,0.015,-0.02,0.005,0.063,-0.264,0.024,0.01,-0.015,-0.015
1.144,-0.029,-0.005,0.024,0.02,-0.029,0.01,0.063,-0.268,0.024,0.005,-0.024,-0.015
1.146,-0.015,-0.005,0.01,0.01,-0.015,0.0,0.063,-0.268,0.015,0.005,-0.024,-0.015
1.148,-0.029,-0.02,0.01,0.024,-0.02,-0.005,0.059,-0.283,0.005,-0.005,-0.034,-0.02
1.15,-0.054,-0.024,0.029,0.039,-0.044,0.0,0.054,-0.283,0.0,-0.015,-0.034,-0.024
1.152,-0.063,-0.029,0.034,0.049,-0.049,0.0,0.063,-0.259,0.01,0.005,-0.024,-0.015
1.154,-0.049,-0.015,0.034,0.034,-0.044,0.01,0.063,-0.234,0.005,0.005,-0.02,-0.01
1.156,-0.059,-0.029,0.029,0.044,-0.044,0.0,0.054,-0.22,0.005,-0.005,-0.029,-0.02
1.158,-0.068,-0.034,0.034,0.054,-0.054,0.0,0.049,-0.2,0.005,0.0,-0.024,-0.02
1.16,-0.039,-0.02,0.02,0.029,-0.029,0.0,0.059,-0.185,0.01,0.005,-0.015,-0.01
1.162,-0.034,-0.02,0.015,0.029,-0.024,-0.005,0.059,-0.181,0.005,-0.005,-0.02,-0.015
1.164,-0.044,-0.029,0.015,0.039,-0.029,-0.01,0.059,-0.19,0.0,-0.005,-0.024,-0.02
1.166,-0.024,-0.005,0.02,0.015,-0.024,0.005,0.063,-0.181,0.0,0.0,-0.02,-0.01
1.168,-0.02,0.0,0.02,0.01,-0.02,0.01,0.063,-0.19,0.0,0.0,-0.024,-0.015
1.17,-0.059,-0.024,0.034,0.044,-0.049,0.005,0.049,-0.185,-0.015,-0.015,-0.039,-0.024
1.172,-0.039,-0.015,0.024,0.029,-0.034,0.005,0.049,-0.176,-0.01,-0.01,-0.034,-0.024
1.174,-0.034,-0.02,0.015,0.029,-0.024,-0.005,0.054,-0.156,-0.01,-0.01,-0.024,-0.024
1.176,-0.049,-0.015,0.034,0.034,-0.044,0.01,0.049,-0.132,-0.01,-0.01,-0.029,-0.02
1.178,-0.059,-0.02,0.039,0.039,-0.049,0.01,0.059,-0.112,-0.005,0.0,-0.024,-0.015
1.18,-0.059,-0.029,0.029,0.044,-0.044,0.0,0.059,-0.102,-0.005,0.0,-0.02,-0.015
1.182,-0.063,-0.049,0.015,0.059,-0.039,-0.02,0.054,-0.102,-0.005,-0.01,-0.024,-0.015
1.184,-0.049,-0.034,0.015,0.044,-0.034,-0.01,0.054,-0.107,-0.005,-0.01,-0.029,-0.02
1.186,-0.034,-0.02,0.015,0.029,-0.024,-0.005,0.063,-0.102,-0.005,-0.005,-0.02,-0.015
1.188,-0.039,-0.015,0.024,0.029,-0.034,0.005,0.049,-0.112,-0.01,-0.01,-0.029,-0.024
1.19,-0.039,-0.02,0.02,0.029,-0.029,0.0,0.039,-0.112,-0.02,-0.015,-0.044,-0.029
1.192,-0.034,-0.02,0.015,0.029,-0.024,-0.005,0.044,-0.102,-0.024,-0.015,-0.039,-0.029
1.194,-0.039,-0.02,0.02,0.029,-0.029,0.0,0.039,-0.078,-0.024,-0.015,-0.039,-0.029
1.196,-0.044,-0.015,0.029,0.029,-0.039,0.005,0.044,-0.063,-0.015,-0.01,-0.034,-0.024
1.198,-0.029,-0.005,0.024,0.02,-0.029,0.01,0.049,-0.034,-0.01,-0.005,-0.029,-0.02
1.2,-0.044,-0.024,0.02,0.034,-0.034,-0.005,0.049,-0.039,-0.01,-0.005,-0.024,-0.02
1.202,-0.068,-0.054,0.015,0.063,-0.044,-0.02,0.044,-0.049,-0.015,-0.01,-0.029,-0.024
1.204,-0.054,-0.044,0.01,0.049,-0.034,-0.02,0.044,-0.054,-0.015,-0.015,-0.034,-0.024
1.206,-0.049,-0.029,0.02,0.039,-0.034,-0.005,0.044,-0.059,-0.015,-0.015,-0.029,-0.02
1.208,-0.039,-0.024,0.015,0.034,-0.029,-0.005,0.039,-0.063,-0.02,-0.015,-0.039,-0.029
1.21,-0.059,-0.039,0.02,0.049,-0.039,-0.01,0.034,-0.078,-0.029,-0.024,-0.049,-0.039
1.212,-0.029,-0.015,0.015,0.024,-0.024,0.0,0.039,-0.063,-0.024,-0.01,-0.044,-0.034
1.214,-0.029,-0.005,0.024,0.02,-0.029,0.01,0.044,-0.044,-0.02,-0.01,-0.034,-0.029
1.216,-0.044,-0.024,0.02,0.034,-0.034,-0.005,0.034,-0.039,-0.024,-0.015,-0.039,-0.039
1.218,-0.034,-0.02,0.015,0.029,-0.024,-0.005,0.044,-0.015,-0.02,-0.01,-0.034,-0.029
1.22,-0.034,-0.024,0.01,0.029,-0.024,-0.01,0.044,-0.015,-0.015,-0.01,-0.034,-0.029
1.222,-0.044,-0.029,0.015,0.039,-0.029,-0.01,0.054,-0.02,-0.015,0.0,-0.034,-0.029
1.224,-0.034,-0.029,0.005,0.034,-0.02,-0.015,0.034,-0.039,-0.02,-0.015,-0.034,-0.034
1.226,-0.044,-0.049,-0.005,0.049,-0.02,-0.029,0.029,-0.054,-0.029,-0.024,-0.044,-0.044
1.228,-0.059,-0.044,0.015,0.054,-0.039,-0.015,0.039,-0.063,-0.024,-0.02,-0.044,-0.039
1.23,-0.063,-0.034,0.029,0.049,-0.049,-0.005,0.039,-0.059,-0.02,-0.015,-0.044,-0.029
1.232,-0.063,-0.029,0.034,0.049,-0.049,0.0,0.039,-0.063,-0.02,-0.015,-0.039,-0.039
1.234,-0.039,-0.015,0.024,0.029,-0.034,0.005,0.039,-0.044,-0.024,-0.02,-0.039,-0.034
1.236,-0.049,-0.029,0.02,0.039,-0.034,-0.005,0.029,-0.029,-0.029,-0.02,-0.049,-0.039
1.238,-0.049,-0.029,0.02,0.039,-0.034,-0.005,0.034,-0.024,-0.029,-0.02,-0.044,-0.034
1.24,-0.029,-0.024,0.005,0.029,-0.02,-0.01,0.034,-0.02,-0.029,-0.024,-0.044,-0.029
1.242,-0.063,-0.063,0.0,0.063,-0.034,-0.034,0.024,-0.029,-0.034,-0.029,-0.049,-0.039
1.244,-0.054,-0.049,0.005,0.054,-0.029,-0.024,0.029,-0.039,-0.029,-0.024,-0.044,-0.034
1.246,-0.044,-0.044,0.0,0.044,-0.024,-0.024,0.034,-0.049,-0.029,-0.024,-0.049,-0.034
1.248,-0.034,-0.039,-0.005,0.039,-0.015,-0.024,0.029,-0.068,-0.039,-0.034,-0.059,-0.039
1.25,-0.024,-0.02,0.005,0.024,-0.015,-0.01,0.034,-0.063,-0.029,-0.024,-0.054,-0.039
1.252,-0.024,-0.02,0.005,0.024,-0.015,-0.01,0.029,-0.059,-0.029,-0.024,-0.049,-0.039
1.254,-0.044,-0.044,0.0,0.044,-0.024,-0.024,0.024,-0.054,-0.039,-0.034,-0.063,-0.049
1.256,-0.044,-0.039,0.005,0.044,-0.024,-0.02,0.015,-0.039,-0.039,-0.029,-0.063,-0.049
1.258,-0.054,-0.029,0.024,0.044,-0.039,-0.005,0.024,-0.015,-0.029,-0.02,-0.049,-0.039
1.26,-0.049,-0.029,0.02,0.039,-0.034,-0.005,0.029,-0.01,-0.024,-0.02,-0.044,-0.029
1.262,-0.039,-0.024,0.015,0.034,-0.029,-0.005,0.039,-0.005,-0.02,-0.01,-0.039,-0.029
1.264,-0.049,-0.034,0.015,0.044,-0.034,-0.01,0.029,-0.029,-0.024,-0.024,-0.044,-0.039
1.266,-0.049,-0.049,0.0,0.049,-0.024,-0.024,0.024,-0.044,-0.034,-0.034,-0.054,-0.049
1.268,-0.073,-0.063,0.01,0.068,-0.044,-0.029,0.024,-0.063,-0.039,-0.039,-0.059,-0.049
1.27,-0.063,-0.049,0.015,0.059,-0.039,-0.02,0.024,-0.068,-0.039,-0.029,-0.063,-0.054
1.272,-0.034,-0.029,0.005,0.034,-0.02,-0.015,0.029,-0.059,-0.034,-0.024,-0.059,-0.044
1.274,-0.044,-0.039,0.005,0.044,-0.024,-0.02,0.024,-0.044,-0.039,-0.024,-0.059,-0.054
1.276,-0.044,-0.034,0.01,0.039,-0.029,-0.015,0.024,-0.029,-0.029,-0.024,-0.054,-0.044
1.278,-0.049,-0.024,0.024,0.039,-0.039,0.0,0.024,-0.01,-0.024,-0.01,-0.044,-0.039
1.28,-0.034,-0.034,0.0,0.034,-0.02,-0.02,0.024,-0.01,-0.024,-0.015,-0.049,-0.039
1.282,-0.01,-0.024,-0.015,0.02,0.0,-0.02,0.024,-0.02,-0.034,-0.02,-0.054,-0.044
1.284,-0.039,-0.039,0.0,0.039,-0.02,-0.02,0.02,-0.034,-0.034,-0.024,-0.054,-0.049
1.286,-0.059,-0.063,-0.005,0.063,-0.029,-0.034,0.015,-0.054,-0.039,-0.034,-0.063,-0.059
1.288,-0.029,-0.029,0.0,0.029,-0.015,-0.015,0.024,-0.059,-0.034,-0.024,-0.063,-0.054
1.29,-0.039,-0.039,0.0,0.039,-0.02,-0.02,0.02,-0.068,-0.039,-0.024,-0.063,-0.054
1.292,-0.044,-0.039,0.005,0.044,-0.024,-0.02,0.01,-0.063,-0.044,-0.029,-0.068,-0.054
1.294,-0.044,-0.039,0.005,0.044,-0.024,-0.02,0.015,-0.044,-0.039,-0.024,-0.059,-0.054
1.296,-0.039,-0.034,0.005,0.039,-0.024,-0.015,0.01,-0.039,-0.039,-0.029,-0.063,-0.054
1.298,-0.034,-0.029,0.005,0.034,-0.02,-0.015,0.02,-0.015,-0.029,-0.015,-0.049,-0.044
1.3,-0.034,-0.039,-0.005,0.039,-0.015,-0.024,0.02,-0.01,-0.039,-0.02,-0.054,-0.044
1.302,-0.029,-0.039,-0.01,0.034,-0.01,-0.024,0.015,-0.01,-0.034,-0.02,-0.049,-0.044
1.304,-0.039,-0.039,0.0,0.039,-0.02,-0.02,0.02,-0.015,-0.034,-0.02,-0.054,-0.044
1.306,-0.073,-0.073,0.0,0.073,-0.039,-0.039,0.015,-0.029,-0.044,-0.024,-0.059,-0.054
1.308,-0.049,-0.054,-0.005,0.054,-0.024,-0.029,0.02,-0.044,-0.044,-0.029,-0.063,-0.049
1.31,-0.034,-0.029,0.005,0.034,-0.02,-0.015,0.01,-0.039,-0.049,-0.029,-0.063,-0.049
1.312,-0.034,-0.034,0.0,0.034,-0.02,-0.02,0.01,-0.034,-0.049,-0.029,-0.063,-0.054
1.314,-0.02,-0.029,-0.01,0.024,-0.005,-0.02,0.01,-0.01,-0.049,-0.024,-0.059,-0.054
1.316,-0.029,-0.039,-0.01,0.034,-0.01,-0.024,0.01,-0.005,-0.044,-0.029,-0.063,-0.059
1.318,-0.034,-0.034,0.0,0.034,-0.02,-0.02,0.005,0.015,-0.049,-0.029,-0.059,-0.054
1.32,-0.034,-0.034,0.0,0.034,-0.02,-0.02,0.015,0.029,-0.039,-0.02,-0.054,-0.049
1.322,-0.059,-0.054,0.005,0.059,-0.034,-0.024,0.01,0.029,-0.039,-0.02,-0.049,-0.054
1.324,-0.049,-0.044,0.005,0.049,-0.029,-0.02,0.015,0.02,-0.039,-0.02,-0.054,-0.049
1.326,-0.044,-0.039,0.005,0.044,-0.024,-0.02,0.005,0.015,-0.049,-0.024,-0.063,-0.054
1.328,-0.044,-0.049,-0.005,0.049,-0.02,-0.029,0.01,-0.005,-0.054,-0.029,-0.068,-0.059
1.33,-0.039,-0.039,0.0,0.039,-0.02,-0.02,0.0,-0.005,-0.059,-0.034,-0.078,-0.063
1.332,-0.029,-0.029,0.0,0.029,-0.015,-0.015,-0.005,0.0,-0.059,-0.039,-0.073,-0.063
1.334,-0.024,-0.029,-0.005,0.029,-0.01,-0.02,0.0,0.02,-0.054,-0.034,-0.068,-0.059
1.336,-0.015,-0.024,-0.01,0.02,-0.005,-0.02,0.01,0.044,-0.039,-0.024,-0.054,-0.049
1.338,-0.039,-0.039,0.0,0.039,-0.02,-0.02,0.01,0.059,-0.039,-0.024,-0.054,-0.049
1.34,-0.024,-0.039,-0.015,0.034,-0.005,-0.029,0.015,0.054,-0.039,-0.024,-0.059,-0.044
1.342,-0.034,-0.054,-0.02,0.044,-0.01,-0.039,0.005,0.054,-0.044,-0.029,-0.059,-0.054
1.344,-0.039,-0.049,-0.01,0.044,-0.015,-0.029,0.005,0.039,-0.044,-0.024,-0.063,-0.054
1.346,-0.034,-0.044,-0.01,0.039,-0.015,-0.029,0.0,0.034,-0.054,-0.024,-0.063,-0.059
1.348,-0.049,-0.054,-0.005,0.054,-0.024,-0.029,0.0,0.02,-0.059,-0.029,-0.068,-0.059
1.35,-0.039,-0.034,0.005,0.039,-0.024,-0.015,0.005,0.024,-0.049,-0.029,-0.063,-0.054
1.352,-0.029,-0.029,0.0,0.029,-0.015,-0.015,0.0,0.029,-0.049,-0.024,-0.063,-0.054
1.354,-0.034,-0.034,0.0,0.034,-0.02,-0.02,0.01,0.049,-0.049,-0.02,-0.054,-0.059
1.356,-0.02,-0.02,0.0,0.02,-0.01,-0.01,0.01,0.054,-0.034,-0.02,-0.054,-0.044
1.358,-0.044,-0.044,0.0,0.044,-0.024,-0.024,-0.01,0.063,-0.044,-0.024,-0.059,-0.049
1.36,-0.049,-0.059,-0.01,0.054,-0.02,-0.034,-0.005,0.059,-0.044,-0.02,-0.059,-0.054
1.362,-0.024,-0.034,-0.01,0.029,-0.01,-0.024,0.005,0.063,-0.039,-0.02,-0.054,-0.054
1.364,-0.034,-0.059,-0.024,0.049,-0.005,-0.044,-0.005,0.039,-0.054,-0.029,-0.059,-0.063
1.366,-0.029,-0.059,-0.029,0.044,0.0,-0.044,-0.01,0.024,-0.063,-0.029,-0.068,-0.068
1.368,-0.044,-0.054,-0.01,0.049,-0.02,-0.034,0.005,0.02,-0.059,-0.024,-0.063,-0.059
1.37,-0.034,-0.044,-0.01,0.039,-0.015,-0.029,-0.01,0.01,-0.063,-0.029,-0.068,-0.068
1.372,-0.02,-0.034,-0.015,0.029,-0.005,-0.024,-0.005,0.02,-0.059,-0.024,-0.063,-0.059
1.374,-0.034,-0.039,-0.005,0.039,-0.015,-0.024,-0.015,0.034,-0.063,-0.029,-0.068,-0.068
1.376,-0.044,-0.049,-0.005,0.049,-0.02,-0.029,-0.015,0.039,-0.063,-0.029,-0.063,-0.063
1.378,-0.02,-0.029,-0.01,0.024,-0.005,-0.02,-0.005,0.063,-0.049,-0.02,-0.054,-0.054
1.38,-0.044,-0.059,-0.015,0.054,-0.015,-0.039,-0.005,0.054,-0.054,-0.024,-0.059,-0.059
1.382,-0.044,-0.059,-0.015,0.054,-0.015,-0.039,-0.005,0.054,-0.054,-0.029,-0.059,-0.059
1.384,-0.039,-0.059,-0.02,0.049,-0.01,-0.039,-0.01,0.039,-0.054,-0.029,-0.068,-0.063
1.386,-0.044,-0.059,-0.015,0.054,-0.015,-0.039,-0.005,0.034,-0.054,-0.024,-0.059,-0.059
1.388,-0.024,-0.049,-0.024,0.039,0.0,-0.039,-0.01,0.01,-0.059,-0.029,-0.068,-0.063
1.39,-0.044,-0.049,-0.005,0.049,-0.02,-0.029,-0.015,0.015,-0.059,-0.029,-0.068,-0.063
1.392,-0.039,-0.044,-0.005,0.044,-0.02,-0.024,-0.015,0.024,-0.054,-0.024,-0.063,-0.059
1.394,-0.02,-0.029,-0.01,0.024,-0.005,-0.02,-0.01,0.049,-0.059,-0.024,-0.063,-0.063
1.396,-0.034,-0.039,-0.005,0.039,-0.015,-0.024,-0.01,0.059,-0.054,-0.024,-0.059,-0.059
1.398,-0.015,-0.024,-0.01,0.02,-0.005,-0.02,-0.005,0.088,-0.039,-0.015,-0.044,-0.049
1.4,-0.01,-0.02,-0.01,0.015,0.0,-0.015,0.0,0.098,-0.039,-0.01,-0.049,-0.044
1.402,-0.02,-0.024,-0.005,0.024,-0.01,-0.015,0.0,0.098,-0.044,-0.015,-0.049,-0.049
1.404,-0.015,-0.039,-0.024,0.029,0.005,-0.034,-0.01,0.073,-0.049,-0.02,-0.054,-0.054
1.406,-0.029,-0.049,-0.02,0.039,-0.005,-0.034,-0.015,0.068,-0.054,-0.024,-0.059,-0.059
1.408,-0.029,-0.044,-0.015,0.039,-0.01,-0.029,-0.01,0.049,-0.059,-0.024,-0.073,-0.063
1.41,-0.039,-0.054,-0.015,0.049,-0.015,-0.034,-0.024,0.044,-0.063,-0.039,-0.078,-0.073
1.412,-0.044,-0.049,-0.005,0.049,-0.02,-0.029,-0.02,0.049,-0.059,-0.029,-0.073,-0.068
1.414,-0.024,-0.034,-0.01,0.029,-0.01,-0.024,-0.015,0.078,-0.063,-0.029,-0.068,-0.068
1.416,-0.02,-0.034,-0.015,0.029,-0.005,-0.024,-0.02,0.083,-0.063,-0.024,-0.063,-0.063
1.418,-0.02,-0.034,-0.015,0.029,-0.005,-0.024,-0.024,0.102,-0.054,-0.02,-0.059,-0.063
1.42,-0.034,-0.039,-0.005,0.039,-0.015,-0.024,-0.01,0.112,-0.049,-0.01,-0.049,-0.054
1.422,-0.034,-0.034,0.0,0.034,-0.02,-0.02,-0.015,0.112,-0.049,-0.015,-0.054,-0.059
1.424,-0.034,-0.034,0.0,0.034,-0.02,-0.02,-0.015,0.093,-0.054,-0.01,-0.049,-0.059
1.426,0.005,-0.015,-0.02,0.005,0.01,-0.02,-0.01,0.078,-0.054,-0.015,-0.059,-0.054
1.428,-0.054,-0.063,-0.01,0.059,-0.024,-0.039,-0.024,0.049,-0.073,-0.029,-0.078,-0.073
1.43,-0.049,-0.059,-0.01,0.054,-0.02,-0.034,-0.024,0.034,-0.073,-0.034,-0.078,-0.068
1.432,-0.029,-0.029,0.0,0.029,-0.015,-0.015,-0.015,0.054,-0.063,-0.015,-0.059,-0.059
1.434,-0.034,-0.034,0.0,0.034,-0.02,-0.02,-0.02,0.059,-0.068,-0.015,-0.063,-0.059
1.436,-0.015,-0.034,-0.02,0.024,0.0,-0.029,-0.029,0.059,-0.063,-0.024,-0.068,-0.063
1.438,-0.034,-0.044,-0.01,0.039,-0.015,-0.029,-0.029,0.068,-0.063,-0.015,-0.059,-0.054
1.44,-0.044,-0.049,-0.005,0.049,-0.02,-0.029,-0.024,0.073,-0.063,-0.015,-0.059,-0.059
1.442,-0.034,-0.049,-0.015,0.044,-0.01,-0.034,-0.029,0.078,-0.063,-0.02,-0.059,-0.059
1.444,-0.029,-0.054,-0.024,0.044,-0.005,-0.039,-0.029,0.068,-0.059,-0.024,-0.059,-0.068
1.446,-0.01,-0.024,-0.015,0.02,0.0,-0.02,-0.01,0.068,-0.049,-0.01,-0.049,-0.054
1.448,-0.02,-0.029,-0.01,0.024,-0.005,-0.02,-0.02,0.044,-0.059,-0.015,-0.059,-0.059
1.45,-0.02,-0.024,-0.005,0.024,-0.01,-0.015,-0.015,0.044,-0.049,-0.015,-0.054,-0.054
1.452,-0.02,-0.02,0.0,0.02,-0.01,-0.01,0.0,0.054,-0.044,-0.01,-0.049,-0.049
1.454,-0.02,-0.01,0.01,0.015,-0.015,0.0,0.01,0.078,-0.039,-0.01,-0.039,-0.049
1.456,-0.01,-0.005,0.005,0.01,-0.01,0.0,0.02,0.088,-0.029,0.0,-0.039,-0.044
1.458,-0.02,-0.01,0.01,0.015,-0.015,0.0,0.034,0.112,-0.015,0.01,-0.024,-0.034
1.46,-0.024,-0.01,0.015,0.02,-0.02,0.0,0.044,0.112,-0.015,0.02,-0.024,-0.044
1.462,0.01,0.024,0.015,-0.015,-0.005,0.02,0.059,0.122,0.0,0.029,-0.015,-0.034
1.464,0.005,0.005,0.0,-0.005,0.0,0.0,0.059,0.098,0.005,0.034,-0.02,-0.034
1.466,0.005,0.0,-0.005,0.0,0.005,-0.005,0.059,0.083,-0.005,0.024,-0.024,-0.044
1.468,0.005,0.005,0.0,-0.005,0.0,0.0,0.049,0.063,-0.005,0.024,-0.029,-0.044
1.47,0.01,0.015,0.005,-0.01,0.0,0.01,0.044,0.063,0.0,0.024,-0.024,-0.034
1.472,-0.015,-0.005,0.01,0.01,-0.015,0.0,0.044,0.068,-0.005,0.024,-0.029,-0.034
1.474,-0.005,0.015,0.02,-0.005,-0.015,0.015,0.039,0.073,-0.005,0.029,-0.02,-0.034
1.476,0.005,0.02,0.015,-0.01,-0.005,0.015,0.024,0.078,0.0,0.029,-0.015,-0.029
1.478,0.0,0.005,0.005,0.0,-0.005,0.005,-0.005,0.078,-0.005,0.029,-0.015,-0.029
1.48,0.0,0.005,0.005,0.0,-0.005,0.005,-0.015,0.063,-0.01,0.029,-0.015,-0.029
1.482,0.0,0.005,0.005,0.0,-0.005,0.005,-0.029,0.039,-0.01,0.034,-0.015,-0.024
1.484,0.005,0.0,-0.005,0.0,0.005,-0.005,-0.044,0.015,-0.02,0.02,-0.02,-0.024
1.486,0.0,-0.01,-0.01,0.005,0.005,-0.01,-0.068,-0.02,-0.044,0.01,-0.034,-0.039
1.488,0.01,-0.005,-0.015,0.0,0.01,-0.01,-0.078,-0.049,-0.049,0.0,-0.039,-0.044
1.49,0.02,0.01,-0.01,-0.015,0.015,0.0,-0.088,-0.054,-0.049,0.0,-0.039,-0.034
1.492,-0.005,-0.015,-0.01,0.01,0.0,-0.015,-0.098,-0.068,-0.078,-0.015,-0.054,-0.049
1.494,-0.01,-0.01,0.0,0.01,-0.005,-0.005,-0.102,-0.059,-0.083,-0.015,-0.049,-0.054
1.496,-0.01,-0.02,-0.01,0.015,0.0,-0.015,-0.102,-0.059,-0.088,-0.024,-0.059,-0.059
1.498,-0.005,-0.01,-0.005,0.01,0.0,-0.01,-0.093,-0.044,-0.078,-0.015,-0.049,-0.049
1.5,0.005,-0.02,-0.024,0.01,0.015,-0.024,-0.083,-0.044,-0.078,-0.01,-0.044,-0.049
1.502,0.015,-0.02,-0.034,0.005,0.024,-0.029,-0.088,-0.059,-0.083,-0.015,-0.049,-0.049
1.504,0.0,-0.039,-0.039,0.02,0.02,-0.039,-0.098,-0.078,-0.093,-0.024,-0.054,-0.059
1.506,0.015,-0.029,-0.044,0.01,0.029,-0.039,-0.098,-0.088,-0.088,-0.02,-0.054,-0.049
1.508,0.024,-0.02,-0.044,0.0,0.034,-0.034,-0.098,-0.107,-0.093,-0.02,-0.059,-0.059
1.51,0.01,-0.02,-0.029,0.005,0.02,-0.024,-0.102,-0.098,-0.093,-0.02,-0.054,-0.049
1.512,0.0,-0.029,-0.029,0.015,0.015,-0.029,-0.102,-0.083,-0.093,-0.024,-0.054,-0.049
1.514,0.0,-0.029,-0.029,0.015,0.015,-0.029,-0.102,-0.063,-0.098,-0.02,-0.049,-0.049
1.516,0.015,-0.024,-0.039,0.005,0.024,-0.034,-0.093,-0.044,-0.088,-0.02,-0.049,-0.044
1.518,0.01,-0.034,-0.044,0.015,0.024,-0.039,-0.093,-0.02,-0.083,-0.01,-0.044,-0.039
1.52,0.029,-0.024,-0.054,0.0,0.039,-0.039,-0.088,-0.024,-0.083,-0.005,-0.044,-0.039
1.522,0.01,-0.044,-0.054,0.02,0.029,-0.049,-0.102,-0.044,-0.088,-0.015,-0.049,-0.044
1.524,0.015,-0.054,-0.068,0.02,0.039,-0.063,-0.107,-0.063,-0.102,-0.024,-0.059,-0.054
1.526,0.01,-0.049,-0.059,0.02,0.034,-0.054,-0.107,-0.083,-0.107,-0.034,-0.063,-0.054
1.528,0.015,-0.034,-0.049,0.01,0.029,-0.044,-0.098,-0.088,-0.102,-0.034,-0.068,-0.054
1.53,0.005,-0.034,-0.039,0.015,0.02,-0.039,-0.098,-0.078,-0.098,-0.034,-0.068,-0.049
1.532,-0.015,-0.044,-0.029,0.029,0.005,-0.039,-0.098,-0.059,-0.102,-0.034,-0.068,-0.054
1.534,-0.01,-0.044,-0.034,0.029,0.01,-0.039,-0.098,-0.039,-0.107,-0.039,-0.068,-0.059
1.536,-0.01,-0.039,-0.029,0.024,0.01,-0.034,-0.083,-0.01,-0.098,-0.029,-0.059,-0.054
1.538,-0.01,-0.039,-0.029,0.024,0.01,-0.034,-0.078,0.024,-0.088,-0.024,-0.059,-0.054
1.54,-0.02,-0.054,-0.034,0.039,0.005,-0.044,-0.068,0.024,-0.093,-0.024,-0.059,-0.063
1.542,-0.02,-0.059,-0.039,0.039,0.01,-0.049,-0.078,0.01,-0.098,-0.034,-0.068,-0.073
1.544,-0.02,-0.073,-0.054,0.049,0.015,-0.063,-0.068,0.005,-0.102,-0.034,-0.073,-0.083
1.546,-0.02,-0.068,-0.049,0.044,0.015,-0.059,-0.068,-0.005,-0.098,-0.029,-0.073,-0.078
1.548,-0.029,-0.068,-0.039,0.049,0.005,-0.054,-0.073,-0.015,-0.102,-0.039,-0.083,-0.093
1.55,-0.029,-0.068,-0.039,0.049,0.005,-0.054,-0.083,-0.01,-0.107,-0.049,-0.093,-0.088
1.552,-0.024,-0.068,-0.044,0.049,0.01,-0.059,-0.083,0.01,-0.107,-0.044,-0.088,-0.088
1.554,-0.02,-0.054,-0.034,0.039,0.005,-0.044,-0.078,0.044,-0.107,-0.039,-0.083,-0.093
1.556,-0.039,-0.073,-0.034,0.059,-0.005,-0.054,-0.083,0.059,-0.107,-0.044,-0.083,-0.088
1.558,-0.01,-0.049,-0.039,0.029,0.015,-0.044,-0.073,0.083,-0.093,-0.034,-0.073,-0.078
1.56,-0.01,-0.054,-0.044,0.034,0.015,-0.049,-0.073,0.102,-0.093,-0.024,-0.068,-0.083
1.562,-0.015,-0.059,-0.044,0.039,0.015,-0.054,-0.078,0.088,-0.093,-0.039,-0.068,-0.088
1.564,-0.024,-0.078,-0.054,0.054,0.015,-0.068,-0.083,0.078,-0.102,-0.044,-0.078,-0.088
1.566,-0.049,-0.102,-0.054,0.078,0.0,-0.078,-0.088,0.068,-0.117,-0.049,-0.093,-0.107
1.568,-0.01,-0.073,-0.063,0.044,0.024,-0.068,-0.088,0.059,-0.112,-0.049,-0.093,-0.102
1.57,0.005,-0.044,-0.049,0.02,0.024,-0.049,-0.073,0.083,-0.102,-0.039,-0.088,-0.083
1.572,-0.024,-0.059,-0.034,0.044,0.005,-0.049,-0.083,0.088,-0.107,-0.039,-0.088,-0.088
1.574,-0.015,-0.054,-0.039,0.034,0.01,-0.049,-0.083,0.117,-0.102,-0.034,-0.083,-0.093
1.576,-0.024,-0.059,-0.034,0.044,0.005,-0.049,-0.083,0.142,-0.102,-0.039,-0.078,-0.088
1.578,-0.024,-0.068,-0.044,0.049,0.01,-0.059,-0.083,0.166,-0.098,-0.029,-0.073,-0.083
1.58,-0.015,-0.063,-0.049,0.039,0.015,-0.059,-0.078,0.171,-0.098,-0.029,-0.073,-0.088
1.582,0.005,-0.049,-0.054,0.024,0.029,-0.054,-0.083,0.176,-0.093,-0.034,-0.078,-0.093
1.584,0.0,-0.049,-0.049,0.024,0.024,-0.049,-0.073,0.171,-0.083,-0.034,-0.078,-0.083
1.586,-0.024,-0.068,-0.044,0.049,0.01,-0.059,-0.078,0.171,-0.088,-0.034,-0.083,-0.093
1.588,-0.024,-0.063,-0.039,0.044,0.005,-0.054,-0.083,0.146,-0.093,-0.039,-0.088,-0.098
1.59,-0.024,-0.054,-0.029,0.039,0.0,-0.044,-0.073,0.166,-0.088,-0.034,-0.078,-0.083
1.592,-0.01,-0.054,-0.044,0.034,0.015,-0.049,-0.078,0.166,-0.093,-0.029,-0.078,-0.088
1.594,-0.02,-0.059,-0.039,0.039,0.01,-0.049,-0.083,0.185,-0.088,-0.029,-0.078,-0.088
1.596,-0.02,-0.059,-0.039,0.039,0.01,-0.049,-0.078,0.2,-0.088,-0.024,-0.073,-0.083
1.598,0.0,-0.039,-0.039,0.02,0.02,-0.039,-0.073,0.224,-0.078,-0.015,-0.063,-0.078
1.6,0.01,-0.044,-0.054,0.02,0.029,-0.049,-0.063,0.224,-0.073,-0.015,-0.059,-0.078
1.602,-0.005,-0.054,-0.049,0.029,0.02,-0.054,-0.068,0.229,-0.073,-0.02,-0.063,-0.083
1.604,-0.024,-0.078,-0.054,0.054,0.015,-0.068,-0.063,0.224,-0.073,-0.024,-0.073,-0.102
1.606,-0.029,-0.073,-0.044,0.054,0.005,-0.059,-0.044,0.239,-0.059,-0.02,-0.078,-0.107
1.608,-0.029,-0.073,-0.044,0.054,0.005,-0.059,-0.02,0.254,-0.049,-0.029,-0.093,-0.117
1.61,-0.054,-0.068,-0.015,0.063,-0.02,-0.044,0.01,0.293,-0.029,-0.034,-0.112,-0.137
1.612,-0.073,-0.059,0.015,0.068,-0.044,-0.024,0.039,0.356,0.0,-0.01,-0.107,-0.137
1.614,-0.093,-0.068,0.024,0.083,-0.059,-0.024,0.044,0.39,0.059,0.044,-0.059,-0.127
1.616,-0.063,-0.063,0.0,0.063,-0.034,-0.034,0.034,0.434,0.132,0.142,0.039,-0.078
1.618,-0.015,-0.059,-0.044,0.039,0.015,-0.054,0.02,0.503,0.229,0.264,0.161,-0.029
1.62,0.029,-0.049,-0.078,0.01,0.054,-0.063,0.029,0.62,0.381,0.429,0.327,0.054
1.622,0.073,-0.015,-0.088,-0.029,0.078,-0.054,0.02,0.712,0.537,0.63,0.532,0.171
1.624,0.112,0.015,-0.098,-0.063,0.102,-0.044,-0.005,0.771,0.708,0.864,0.776,0.303
1.626,0.166,0.054,-0.112,-0.107,0.137,-0.029,-0.039,0.786,0.874,1.093,1.025,0.454
1.628,0.224,0.112,-0.112,-0.166,0.166,0.0,-0.093,0.673,0.966,1.288,1.249,0.595
1.63,0.307,0.185,-0.122,-0.244,0.215,0.029,-0.195,0.425,0.986,1.449,1.474,0.761
1.632,0.41,0.249,-0.161,-0.327,0.283,0.044,-0.342,0.107,0.932,1.498,1.606,0.888
1.634,0.449,0.259,-0.19,-0.351,0.317,0.034,-0.42,-0.195,0.752,1.308,1.479,0.898
1.636,0.483,0.249,-0.234,-0.366,0.356,0.005,-0.459,-0.512,0.425,0.864,1.103,0.8
1.638,0.464,0.185,-0.278,-0.322,0.371,-0.049,-0.508,-0.82,0.034,0.356,0.639,0.639
1.64,0.395,0.142,-0.254,-0.268,0.322,-0.059,-0.547,-1.122,-0.337,-0.073,0.224,0.498
1.642,0.366,0.176,-0.19,-0.268,0.278,-0.01,-0.576,-1.425,-0.664,-0.366,-0.078,0.4
1.644,0.293,0.156,-0.137,-0.224,0.215,0.01,-0.639,-1.645,-0.956,-0.605,-0.327,0.249
1.646,0.19,0.088,-0.102,-0.137,0.146,-0.01,-0.664,-1.742,-1.186,-0.791,-0.537,0.083
1.648,0.166,0.078,-0.088,-0.122,0.127,-0.005,-0.688,-1.713,-1.254,-0.834,-0.615,-0.005
1.65,0.156,0.068,-0.088,-0.112,0.122,-0.01,-0.722,-1.596,-1.225,-0.795,-0.59,-0.034
1.652,0.166,0.083,-0.083,-0.122,0.122,0.0,-0.732,-1.42,-1.113,-0.703,-0.517,-0.029
1.654,0.151,0.088,-0.063,-0.117,0.107,0.01,-0.712,-1.196,-1.0,-0.6,-0.439,-0.015
1.656,0.122,0.049,-0.073,-0.083,0.098,-0.015,-0.688,-1.005,-0.888,-0.537,-0.4,-0.039
1.658,0.127,0.054,-0.073,-0.088,0.098,-0.01,-0.61,-0.781,-0.752,-0.449,-0.337,-0.039
1.66,0.112,0.039,-0.073,-0.073,0.093,-0.02,-0.517,-0.566,-0.615,-0.366,-0.283,-0.029
1.662,0.083,0.02,-0.063,-0.049,0.073,-0.024,-0.425,-0.425,-0.503,-0.303,-0.244,-0.039
1.664,0.054,-0.01,-0.063,-0.02,0.059,-0.039,-0.351,-0.307,-0.415,-0.249,-0.224,-0.059
1.666,0.059,0.0,-0.059,-0.029,0.059,-0.029,-0.283,-0.21,-0.342,-0.2,-0.185,-0.059
1.668,0.034,0.005,-0.029,-0.02,0.029,-0.015,-0.22,-0.127,-0.268,-0.151,-0.151,-0.054
1.67,0.02,-0.005,-0.024,-0.005,0.02,-0.015,-0.181,-0.059,-0.22,-0.122,-0.132,-0.063
1.672,0.02,0.01,-0.01,-0.015,0.015,0.0,-0.142,0.024,-0.171,-0.083,-0.107,-0.059
1.674,0.015,0.015,0.0,-0.015,0.005,0.005,-0.107,0.093,-0.127,-0.063,-0.088,-0.054
1.676,0.01,0.0,-0.01,-0.005,0.01,-0.005,-0.088,0.142,-0.107,-0.049,-0.078,-0.059
1.678,0.005,0.0,-0.005,0.0,0.005,-0.005,-0.078,0.171,-0.093,-0.049,-0.078,-0.063
1.68,0.005,-0.01,-0.015,0.005,0.01,-0.015,-0.059,0.2,-0.078,-0.034,-0.068,-0.054
1.682,0.01,-0.024,-0.034,0.01,0.02,-0.029,-0.059,0.185,-0.073,-0.044,-0.078,-0.063
1.684,0.01,-0.024,-0.034,0.01,0.02,-0.029,-0.054,0.19,-0.063,-0.039,-0.078,-0.063
1.686,0.015,-0.015,-0.029,0.0,0.02,-0.024,-0.049,0.176,-0.068,-0.039,-0.078,-0.063
1.688,0.01,-0.029,-0.039,0.01,0.024,-0.034,-0.044,0.171,-0.063,-0.039,-0.083,-0.063
1.69,0.0,-0.029,-0.029,0.015,0.015,-0.029,-0.044,0.171,-0.063,-0.034,-0.078,-0.073
1.692,-0.024,-0.029,-0.005,0.029,-0.01,-0.02,-0.049,0.185,-0.059,-0.039,-0.073,-0.073
1.694,-0.02,-0.02,0.0,0.02,-0.01,-0.01,-0.034,0.205,-0.049,-0.024,-0.063,-0.068
1.696,-0.02,-0.039,-0.02,0.029,0.0,-0.029,-0.034,0.205,-0.054,-0.039,-0.073,-0.078
1.698,-0.015,-0.02,-0.005,0.02,-0.005,-0.015,-0.029,0.224,-0.039,-0.02,-0.054,-0.068
1.7,0.0,-0.01,-0.01,0.005,0.005,-0.01,-0.024,0.229,-0.029,-0.02,-0.054,-0.059
1.702,-0.005,-0.029,-0.024,0.02,0.01,-0.029,-0.029,0.205,-0.029,-0.024,-0.063,-0.068
1.704,-0.01,-0.039,-0.029,0.024,0.01,-0.034,-0.034,0.181,-0.034,-0.034,-0.068,-0.078
1.706,-0.005,-0.049,-0.044,0.029,0.02,-0.049,-0.034,0.166,-0.034,-0.029,-0.073,-0.083
1.708,-0.015,-0.044,-0.029,0.029,0.005,-0.039,-0.029,0.146,-0.034,-0.034,-0.078,-0.083
1.71,-0.01,-0.044,-0.034,0.029,0.01,-0.039,-0.024,0.142,-0.039,-0.034,-0.078,-0.083
1.712,-0.005,-0.029,-0.024,0.02,0.01,-0.029,-0.02,0.151,-0.034,-0.029,-0.068,-0.078
1.714,-0.015,-0.029,-0.015,0.024,0.0,-0.024,-0.02,0.171,-0.02,-0.015,-0.049,-0.068
1.716,-0.01,-0.015,-0.005,0.015,-0.005,-0.01,-0.005,0.181,-0.005,-0.01,-0.039,-0.049
1.718,-0.024,-0.029,-0.005,0.029,-0.01,-0.02,-0.02,0.185,-0.02,-0.015,-0.044,-0.059
1.72,-0.029,-0.049,-0.02,0.039,-0.005,-0.034,-0.024,0.166,-0.02,-0.02,-0.054,-0.063
1.722,-0.01,-0.034,-0.024,0.024,0.005,-0.029,-0.02,0.161,-0.015,-0.01,-0.049,-0.059
1.724,-0.005,-0.039,-0.034,0.024,0.015,-0.039,-0.024,0.132,-0.015,-0.015,-0.054,-0.068
1.726,-0.02,-0.044,-0.024,0.034,0.0,-0.034,-0.029,0.117,-0.024,-0.02,-0.068,-0.073
1.728,-0.02,-0.054,-0.034,0.039,0.005,-0.044,-0.029,0.093,-0.029,-0.039,-0.073,-0.073
1.73,-0.005,-0.039,-0.034,0.024,0.015,-0.039,-0.024,0.088,-0.029,-0.039,-0.073,-0.073
1.732,-0.024,-0.039,-0.015,0.034,-0.005,-0.029,-0.024,0.098,-0.024,-0.034,-0.063,-0.073
1.734,-0.015,-0.029,-0.015,0.024,0.0,-0.024,-0.02,0.122,-0.015,-0.024,-0.059,-0.063
1.736,-0.029,-0.049,-0.02,0.039,-0.005,-0.034,-0.024,0.127,-0.01,-0.02,-0.054,-0.063
1.738,-0.02,-0.034,-0.015,0.029,-0.005,-0.024,-0.024,0.151,-0.01,-0.015,-0.049,-0.059
1.74,-0.005,-0.02,-0.015,0.015,0.005,-0.02,-0.02,0.151,0.0,-0.01,-0.044,-0.049
1.742,-0.015,-0.034,-0.02,0.024,0.0,-0.029,-0.02,0.142,0.0,-0.015,-0.049,-0.049
1.744,-0.015,-0.029,-0.015,0.024,0.0,-0.024,-0.024,0.132,0.005,-0.005,-0.044,-0.044
1.746,-0.029,-0.044,-0.015,0.039,-0.01,-0.029,-0.039,0.122,-0.01,-0.02,-0.049,-0.059
1.748,-0.034,-0.049,-0.015,0.044,-0.01,-0.034,-0.044,0.102,-0.01,-0.024,-0.059,-0.063
1.75,0.0,-0.01,-0.01,0.005,0.005,-0.01,-0.034,0.117,-0.01,-0.015,-0.049,-0.054
1.752,-0.024,-0.029,-0.005,0.029,-0.01,-0.02,-0.044,0.117,-0.02,-0.02,-0.054,-0.063
1.754,-0.029,-0.034,-0.005,0.034,-0.015,-0.02,-0.044,0.132,-0.015,-0.02,-0.054,-0.063
1.756,-0.024,-0.024,0.0,0.024,-0.015,-0.015,-0.039,0.146,-0.005,-0.01,-0.044,-0.049
1.758,-0.024,-0.029,-0.005,0.029,-0.01,-0.02,-0.049,0.156,-0.005,-0.005,-0.039,-0.059
1.76,-0.015,-0.029,-0.015,0.024,0.0,-0.024,-0.049,0.156,0.0,-0.01,-0.044,-0.054
1.762,-0.01,-0.015,-0.005,0.015,-0.005,-0.01,-0.039,0.151,0.005,-0.01,-0.039,-0.049
1.764,0.005,0.0,-0.005,0.0,0.005,-0.005,-0.024,0.146,0.015,0.0,-0.034,-0.039
1.766,0.005,-0.005,-0.01,0.0,0.005,-0.01,-0.034,0.132,0.005,-0.01,-0.044,-0.054
1.768,0.0,-0.01,-0.01,0.005,0.005,-0.01,-0.039,0.112,0.005,-0.015,-0.049,-0.063
1.77,-0.01,-0.01,0.0,0.01,-0.005,-0.005,-0.044,0.112,0.0,-0.01,-0.049,-0.068
1.772,-0.029,-0.029,0.0,0.029,-0.015,-0.015,-0.049,0.117,0.0,-0.01,-0.049,-0.073
1.774,-0.01,0.0,0.01,0.005,-0.01,0.005,-0.039,0.142,0.015,-0.005,-0.034,-0.059
1.776,-0.005,0.0,0.005,0.005,-0.005,0.0,-0.029,0.151,0.02,0.005,-0.029,-0.049
1.778,-0.015,-0.015,0.0,0.015,-0.01,-0.01,-0.044,0.166,0.015,0.005,-0.029,-0.049
1.78,-0.01,-0.015,-0.005,0.015,-0.005,-0.01,-0.044,0.161,0.024,0.015,-0.024,-0.044
1.782,-0.015,-0.015,0.0,0.015,-0.01,-0.01,-0.034,0.156,0.029,0.02,-0.015,-0.029
1.784,-0.02,-0.024,-0.005,0.024,-0.01,-0.015,-0.044,0.146,0.024,0.01,-0.029,-0.039
1.786,-0.01,-0.02,-0.01,0.015,0.0,-0.015,-0.034,0.137,0.02,0.01,-0.029,-0.044
1.788,-0.01,-0.01,0.0,0.01,-0.005,-0.005,-0.034,0.132,0.02,0.01,-0.029,-0.044
1.79,-0.029,-0.024,0.005,0.029,-0.02,-0.01,-0.039,0.122,0.01,0.005,-0.034,-0.054
1.792,-0.029,-0.02,0.01,0.024,-0.02,-0.005,-0.049,0.137,0.02,0.01,-0.029,-0.049
1.794,-0.029,-0.015,0.015,0.024,-0.024,0.0,-0.044,0.146,0.029,0.02,-0.02,-0.044
1.796,-0.02,-0.015,0.005,0.02,-0.015,-0.005,-0.039,0.156,0.034,0.02,-0.015,-0.039
1.798,-0.015,-0.01,0.005,0.015,-0.01,-0.005,-0.034,0.171,0.029,0.02,-0.01,-0.039
1.8,-0.024,-0.02,0.005,0.024,-0.015,-0.01,-0.029,0.181,0.034,0.029,-0.01,-0.029
1.802,-0.02,-0.02,0.0,0.02,-0.01,-0.01,-0.034,0.166,0.039,0.029,-0.01,-0.029
1.804,-0.029,-0.024,0.005,0.029,-0.02,-0.01,-0.034,0.156,0.039,0.029,-0.01,-0.024
1.806,-0.015,-0.02,-0.005,0.02,-0.005,-0.015,-0.044,0.146,0.034,0.029,-0.01,-0.024
1.808,-0.005,-0.01,-0.005,0.01,0.0,-0.01,-0.044,0.142,0.034,0.029,-0.01,-0.024
1.81,0.015,0.01,-0.005,-0.01,0.01,0.0,-0.034,0.142,0.044,0.034,0.0,-0.02
1.812,-0.01,-0.005,0.005,0.01,-0.01,0.0,-0.044,0.146,0.044,0.034,0.0,-0.024
1.814,-0.02,-0.01,0.01,0.015,-0.015,0.0,-0.054,0.156,0.044,0.029,0.0,-0.024
1.816,-0.02,-0.005,0.015,0.015,-0.02,0.005,-0.049,0.171,0.054,0.039,0.01,-0.024
1.818,-0.01,0.0,0.01,0.005,-0.01,0.005,-0.044,0.181,0.054,0.044,0.015,-0.015
1.82,-0.02,-0.015,0.005,0.02,-0.015,-0.005,-0.049,0.181,0.059,0.039,0.01,-0.02
1.822,0.01,-0.015,-0.024,0.005,0.015,-0.02,-0.044,0.166,0.063,0.039,0.005,-0.02
1.824,0.0,-0.01,-0.01,0.005,0.005,-0.01,-0.044,0.161,0.068,0.044,0.01,-0.02
1.826,0.005,0.0,-0.005,0.0,0.005,-0.005,-0.049,0.146,0.063,0.039,0.005,-0.02
1.828,0.0,0.005,0.005,0.0,-0.005,0.005,-0.049,0.137,0.068,0.044,0.01,-0.01
1.83,0.0,-0.01,-0.01,0.005,0.005,-0.01,-0.059,0.122,0.063,0.039,0.015,-0.015
1.832,-0.005,-0.01,-0.005,0.01,0.0,-0.01,-0.059,0.127,0.054,0.034,0.005,-0.02
1.834,0.01,0.01,0.0,-0.01,0.005,0.005,-0.049,0.137,0.059,0.039,0.02,-0.01
1.836,0.02,0.02,0.0,-0.02,0.01,0.01,-0.049,0.151,0.068,0.049,0.029,-0.01
1.838,0.015,0.005,-0.01,-0.01,0.01,-0.005,-0.063,0.151,0.068,0.059,0.029,-0.01
1.84,0.01,0.02,0.01,-0.015,0.0,0.015,-0.049,0.161,0.088,0.068,0.039,0.005
1.842,-0.01,0.01,0.02,0.0,-0.015,0.015,-0.044,0.151,0.098,0.073,0.044,0.01
1.844,0.015,0.015,0.0,-0.015,0.005,0.005,-0.044,0.127,0.093,0.063,0.039,0.01
1.846,0.034,0.024,-0.01,-0.029,0.02,0.005,-0.049,0.112,0.083,0.063,0.034,0.01
1.848,0.005,0.0,-0.005,0.0,0.005,-0.005,-0.059,0.083,0.078,0.049,0.024,0.0
1.85,0.0,0.0,0.0,0.0,0.0,0.0,-0.059,0.078,0.088,0.063,0.039,0.015
1.852,0.005,0.015,0.01,-0.01,-0.005,0.01,-0.059,0.093,0.093,0.073,0.044,0.02
1.854,0.024,0.029,0.005,-0.024,0.01,0.015,-0.054,0.112,0.102,0.078,0.059,0.034
1.856,0.044,0.039,-0.005,-0.039,0.024,0.015,-0.054,0.122,0.107,0.083,0.068,0.034
1.858,0.039,0.039,0.0,-0.039,0.02,0.02,-0.063,0.132,0.102,0.083,0.068,0.034
1.86,0.044,0.034,-0.01,-0.039,0.024,0.01,-0.068,0.122,0.102,0.078,0.068,0.034
1.862,0.034,0.024,-0.01,-0.029,0.02,0.005,-0.073,0.117,0.107,0.078,0.068,0.039
1.864,0.039,0.024,-0.015,-0.029,0.024,0.005,-0.068,0.093,0.102,0.073,0.068,0.039
1.866,0.039,0.029,-0.01,-0.034,0.024,0.01,-0.068,0.088,0.098,0.073,0.063,0.039
1.868,0.029,0.024,-0.005,-0.024,0.015,0.01,-0.068,0.068,0.112,0.078,0.063,0.044
1.87,0.034,0.029,-0.005,-0.029,0.02,0.01,-0.073,0.068,0.112,0.078,0.068,0.049
1.872,0.034,0.029,-0.005,-0.029,0.02,0.01,-0.088,0.068,0.112,0.083,0.073,0.049
1.874,0.083,0.073,-0.01,-0.078,0.044,0.029,-0.068,0.107,0.132,0.107,0.093,0.068
1.876,0.073,0.068,-0.005,-0.068,0.039,0.029,-0.068,0.117,0.142,0.107,0.102,0.073
1.878,0.063,0.059,-0.005,-0.059,0.034,0.024,-0.078,0.137,0.132,0.102,0.102,0.068
1.88,0.054,0.054,0.0,-0.054,0.024,0.024,-0.088,0.137,0.142,0.112,0.112,0.078
1.882,0.078,0.068,-0.01,-0.073,0.044,0.029,-0.093,0.137,0.151,0.122,0.127,0.093
1.884,0.073,0.054,-0.02,-0.063,0.044,0.015,-0.098,0.112,0.142,0.117,0.117,0.083
1.886,0.068,0.054,-0.015,-0.059,0.039,0.02,-0.093,0.107,0.137,0.117,0.117,0.083
1.888,0.059,0.049,-0.01,-0.054,0.034,0.02,-0.088,0.088,0.142,0.117,0.117,0.088
1.89,0.063,0.049,-0.015,-0.054,0.039,0.015,-0.102,0.078,0.127,0.102,0.112,0.088
1.892,0.073,0.059,-0.015,-0.063,0.044,0.02,-0.102,0.093,0.132,0.117,0.117,0.102
1.894,0.098,0.093,-0.005,-0.093,0.049,0.044,-0.098,0.117,0.146,0.132,0.137,0.112
1.896,0.093,0.083,-0.01,-0.088,0.049,0.034,-0.102,0.117,0.151,0.137,0.137,0.117
1.898,0.107,0.093,-0.015,-0.098,0.059,0.039,-0.102,0.137,0.151,0.137,0.151,0.122
1.9,0.117,0.102,-0.015,-0.107,0.063,0.044,-0.102,0.146,0.151,0.146,0.156,0.127
1.902,0.137,0.132,-0.005,-0.132,0.068,0.063,-0.098,0.156,0.171,0.161,0.176,0.146
1.904,0.098,0.098,0.0,-0.098,0.049,0.049,-0.107,0.132,0.156,0.142,0.161,0.142
1.906,0.088,0.088,0.0,-0.088,0.044,0.044,-0.127,0.107,0.142,0.127,0.146,0.127
1.908,0.112,0.107,-0.005,-0.107,0.059,0.049,-0.117,0.098,0.142,0.137,0.151,0.137
1.91,0.093,0.083,-0.01,-0.088,0.049,0.034,-0.127,0.078,0.142,0.127,0.146,0.132
1.912,0.083,0.073,-0.01,-0.078,0.044,0.029,-0.127,0.088,0.137,0.137,0.151,0.146
1.914,0.122,0.127,0.005,-0.122,0.059,0.063,-0.122,0.107,0.151,0.151,0.171,0.166
1.916,0.112,0.112,0.0,-0.112,0.054,0.054,-0.122,0.112,0.146,0.151,0.166,0.166
1.918,0.112,0.102,-0.01,-0.107,0.059,0.044,-0.122,0.122,0.151,0.151,0.185,0.176
1.92,0.142,0.122,-0.02,-0.132,0.078,0.049,-0.127,0.132,0.146,0.156,0.185,0.176
1.922,0.122,0.112,-0.01,-0.117,0.063,0.049,-0.127,0.122,0.146,0.156,0.185,0.176
1.924,0.127,0.127,0.0,-0.127,0.063,0.063,-0.122,0.117,0.156,0.156,0.19,0.185
1.926,0.132,0.122,-0.01,-0.127,0.068,0.054,-0.142,0.098,0.142,0.146,0.181,0.176
1.928,0.107,0.117,0.01,-0.112,0.049,0.063,-0.146,0.088,0.142,0.146,0.171,0.181
1.93,0.127,0.137,0.01,-0.132,0.059,0.073,-0.137,0.088,0.146,0.151,0.181,0.19
1.932,0.127,0.127,0.0,-0.127,0.063,0.063,-0.151,0.088,0.137,0.142,0.176,0.185
1.934,0.122,0.127,0.005,-0.122,0.059,0.063,-0.156,0.102,0.137,0.151,0.176,0.185
1.936,0.146,0.146,0.0,-0.146,0.073,0.073,-0.151,0.122,0.142,0.151,0.181,0.19
1.938,0.132,0.142,0.01,-0.137,0.059,0.073,-0.156,0.137,0.142,0.146,0.185,0.185
1.94,0.122,0.127,0.005,-0.122,0.059,0.063,-0.146,0.151,0.142,0.151,0.19,0.19
1.942,0.117,0.132,0.015,-0.122,0.049,0.073,-0.142,0.156,0.142,0.151,0.185,0.19
1.944,0.117,0.127,0.01,-0.122,0.054,0.068,-0.146,0.146,0.137,0.142,0.181,0.19
1.946,0.142,0.142,0.0,-0.142,0.068,0.068,-0.146,0.142,0.137,0.142,0.185,0.195
1.948,0.137,0.137,0.0,-0.137,0.068,0.068,-0.146,0.122,0.127,0.137,0.171,0.185
1.95,0.132,0.142,0.01,-0.137,0.059,0.073,-0.142,0.122,0.132,0.142,0.176,0.181
1.952,0.127,0.151,0.024,-0.137,0.049,0.088,-0.142,0.142,0.142,0.146,0.19,0.195
1.954,0.127,0.156,0.029,-0.142,0.049,0.093,-0.142,0.156,0.142,0.151,0.195,0.195
1.956,0.122,0.146,0.024,-0.132,0.049,0.083,-0.132,0.171,0.137,0.151,0.19,0.2
1.958,0.107,0.132,0.024,-0.117,0.039,0.078,-0.137,0.185,0.132,0.137,0.185,0.185
1.96,0.122,0.137,0.015,-0.127,0.054,0.073,-0.132,0.181,0.127,0.137,0.181,0.181
1.962,0.117,0.142,0.024,-0.127,0.044,0.083,-0.132,0.181,0.132,0.142,0.181,0.176
1.964,0.088,0.127,0.039,-0.107,0.024,0.083,-0.137,0.161,0.127,0.132,0.171,0.176
1.966,0.093,0.127,0.034,-0.107,0.029,0.078,-0.127,0.166,0.132,0.132,0.171,0.176
1.968,0.093,0.127,0.034,-0.107,0.029,0.078,-0.122,0.151,0.127,0.127,0.156,0.161
1.97,0.098,0.122,0.024,-0.107,0.034,0.073,-0.127,0.142,0.117,0.117,0.146,0.146
1.972,0.107,0.127,0.02,-0.117,0.044,0.073,-0.122,0.146,0.112,0.112,0.146,0.146
1.974,0.088,0.112,0.024,-0.098,0.029,0.068,-0.117,0.176,0.117,0.117,0.151,0.142
1.976,0.073,0.102,0.029,-0.088,0.02,0.063,-0.117,0.176,0.107,0.107,0.137,0.132
1.978,0.054,0.083,0.029,-0.068,0.01,0.054,-0.117,0.19,0.107,0.102,0.142,0.127
1.98,0.059,0.083,0.024,-0.068,0.015,0.054,-0.112,0.185,0.112,0.107,0.142,0.117
1.982,0.083,0.098,0.015,-0.088,0.034,0.054,-0.098,0.185,0.112,0.102,0.137,0.122
1.984,0.063,0.088,0.024,-0.073,0.02,0.054,-0.098,0.161,0.107,0.093,0.122,0.122
1.986,0.054,0.068,0.015,-0.059,0.02,0.039,-0.102,0.142,0.102,0.083,0.117,0.107
1.988,0.054,0.063,0.01,-0.059,0.02,0.034,-0.102,0.122,0.088,0.078,0.098,0.107
1.99,0.063,0.073,0.01,-0.068,0.024,0.039,-0.102,0.117,0.083,0.063,0.088,0.098
1.992,0.063,0.078,0.015,-0.068,0.024,0.044,-0.093,0.107,0.083,0.068,0.088,0.098
1.994,0.034,0.059,0.024,-0.044,0.005,0.039,-0.098,0.122,0.078,0.063,0.083,0.088
1.996,0.049,0.078,0.029,-0.063,0.01,0.054,-0.093,0.122,0.078,0.063,0.083,0.083
1.998,0.044,0.073,0.029,-0.059,0.005,0.049,-0.088,0.137,0.083,0.059,0.078,0.078
2.0,0.044,0.059,0.015,-0.049,0.015,0.034,-0.083,0.127,0.073,0.054,0.073,0.068
2.002,0.054,0.063,0.01,-0.059,0.02,0.034,-0.078,0.112,0.068,0.054,0.068,0.068
2.004,0.054,0.054,0.0,-0.054,0.024,0.024,-0.078,0.088,0.054,0.039,0.059,0.059
2.006,0.02,0.024,0.005,-0.02,0.005,0.015,-0.078,0.073,0.044,0.029,0.049,0.049
2.008,0.024,0.029,0.005,-0.024,0.01,0.015,-0.078,0.039,0.044,0.034,0.039,0.044
2.01,0.034,0.044,0.01,-0.039,0.01,0.024,-0.088,0.029,0.039,0.024,0.034,0.034
2.012,0.01,0.024,0.015,-0.015,-0.005,0.02,-0.088,0.029,0.024,0.005,0.024,0.029
2.014,0.02,0.029,0.01,-0.024,0.005,0.02,-0.088,0.034,0.02,0.0,0.02,0.02
2.016,0.029,0.044,0.015,-0.034,0.005,0.029,-0.078,0.044,0.024,0.01,0.024,0.024
2.018,0.015,0.024,0.01,-0.02,0.0,0.015,-0.083,0.054,0.02,0.0,0.02,0.015
2.02,0.005,0.024,0.02,-0.015,-0.01,0.02,-0.073,0.054,0.02,0.005,0.029,0.02
2.022,-0.005,0.034,0.039,-0.015,-0.024,0.034,-0.063,0.059,0.024,0.015,0.029,0.024
2.024,0.005,0.024,0.02,-0.015,-0.01,0.02,-0.063,0.034,0.02,0.01,0.024,0.02
2.026,0.015,0.015,0.0,-0.015,0.005,0.005,-0.078,0.01,0.0,-0.015,0.01,0.005
2.028,0.01,0.005,-0.005,-0.005,0.005,0.0,-0.078,-0.024,-0.01,-0.024,-0.01,-0.01
2.03,-0.005,0.01,0.015,0.0,-0.01,0.01,-0.083,-0.034,-0.01,-0.024,-0.015,-0.005
2.032,0.0,0.015,0.015,-0.005,-0.01,0.015,-0.073,-0.024,-0.005,-0.02,-0.005,0.0
2.034,-0.01,0.005,0.015,0.005,-0.015,0.01,-0.073,-0.024,-0.02,-0.029,-0.015,-0.01
2.036,-0.005,0.02,0.024,-0.005,-0.015,0.02,-0.063,-0.005,-0.02,-0.029,-0.015,-0.01
2.038,0.0,0.02,0.02,-0.01,-0.01,0.02,-0.063,0.0,-0.01,-0.024,-0.015,-0.01
2.04,0.01,0.024,0.015,-0.015,-0.005,0.02,-0.059,0.005,-0.005,-0.015,-0.01,-0.005
2.042,0.01,0.01,0.0,-0.01,0.005,0.005,-0.063,-0.015,-0.015,-0.034,-0.024,-0.02
2.044,0.005,-0.005,-0.01,0.0,0.005,-0.01,-0.054,-0.02,-0.015,-0.039,-0.029,-0.024
2.046,-0.005,-0.005,0.0,0.005,-0.005,-0.005,-0.059,-0.039,-0.02,-0.044,-0.029,-0.029
2.048,-0.034,-0.01,0.024,0.024,-0.029,0.005,-0.059,-0.054,-0.024,-0.039,-0.034,-0.024
2.05,-0.02,-0.01,0.01,0.015,-0.015,0.0,-0.059,-0.068,-0.02,-0.044,-0.034,-0.02
2.052,-0.005,0.0,0.005,0.005,-0.005,0.0,-0.054,-0.059,-0.02,-0.039,-0.029,-0.02
2.054,-0.015,-0.005,0.01,0.01,-0.015,0.0,-0.059,-0.054,-0.02,-0.039,-0.029,-0.02
2.056,-0.024,-0.005,0.02,0.015,-0.024,0.005,-0.044,-0.034,-0.015,-0.029,-0.024,-0.015
2.058,-0.01,0.01,0.02,0.0,-0.015,0.015,-0.034,-0.01,-0.01,-0.024,-0.015,-0.01
2.06,-0.02,-0.01,0.01,0.015,-0.015,0.0,-0.049,-0.015,-0.02,-0.034,-0.029,-0.015
2.062,-0.015,-0.01,0.005,0.015,-0.01,-0.005,-0.049,-0.029,-0.029,-0.044,-0.039,-0.024
2.064,-0.01,-0.005,0.005,0.01,-0.01,0.0,-0.044,-0.029,-0.024,-0.039,-0.034,-0.02
2.066,-0.02,0.0,0.02,0.01,-0.02,0.01,-0.049,-0.049,-0.024,-0.044,-0.039,-0.024
2.068,-0.005,-0.005,0.0,0.005,-0.005,-0.005,-0.059,-0.068,-0.039,-0.059,-0.054,-0.034
2.07,-0.024,-0.015,0.01,0.02,-0.02,-0.005,-0.059,-0.073,-0.039,-0.068,-0.059,-0.039
2.072,-0.054,-0.039,0.015,0.049,-0.034,-0.015,-0.059,-0.068,-0.039,-0.068,-0.063,-0.039
2.074,-0.044,-0.029,0.015,0.039,-0.029,-0.01,-0.054,-0.049,-0.034,-0.059,-0.049,-0.034
2.076,-0.01,-0.005,0.005,0.01,-0.01,0.0,-0.039,-0.024,-0.029,-0.044,-0.044,-0.029
2.078,-0.005,-0.005,0.0,0.005,-0.005,-0.005,-0.039,-0.005,-0.029,-0.049,-0.039,-0.034
2.08,-0.02,-0.02,0.0,0.02,-0.01,-0.01,-0.039,0.005,-0.02,-0.044,-0.039,-0.029
2.082,-0.02,-0.02,0.0,0.02,-0.01,-0.01,-0.034,0.005,-0.02,-0.044,-0.039,-0.024
2.084,-0.02,-0.02,0.0,0.02,-0.01,-0.01,-0.029,0.0,-0.024,-0.054,-0.044,-0.034
2.086,-0.039,-0.029,0.01,0.034,-0.024,-0.01,-0.039,-0.015,-0.029,-0.063,-0.054,-0.044
2.088,-0.029,-0.01,0.02,0.02,-0.024,0.005,-0.029,-0.02,-0.029,-0.059,-0.059,-0.039
2.09,-0.015,-0.005,0.01,0.01,-0.015,0.0,-0.029,-0.02,-0.029,-0.054,-0.063,-0.044
2.092,-0.015,0.005,0.02,0.005,-0.02,0.01,-0.024,-0.01,-0.029,-0.049,-0.063,-0.044
2.094,-0.024,0.0,0.024,0.015,-0.024,0.01,-0.029,0.005,-0.024,-0.054,-0.059,-0.054
2.096,-0.039,-0.02,0.02,0.029,-0.029,0.0,-0.034,0.02,-0.024,-0.049,-0.059,-0.049
2.098,-0.029,-0.015,0.015,0.024,-0.024,0.0,-0.024,0.034,-0.015,-0.044,-0.049,-0.044
2.1,-0.024,-0.01,0.015,0.02,-0.02,0.0,-0.02,0.044,-0.02,-0.044,-0.054,-0.044
2.102,-0.034,-0.024,0.01,0.029,-0.024,-0.01,-0.015,0.044,-0.015,-0.044,-0.044,-0.039
2.104,-0.015,-0.015,0.0,0.015,-0.01,-0.01,-0.015,0.029,-0.01,-0.039,-0.049,-0.034
2.106,-0.015,-0.015,0.0,0.015,-0.01,-0.01,-0.02,0.02,-0.01,-0.054,-0.054,-0.039
2.108,-0.024,-0.015,0.01,0.02,-0.02,-0.005,-0.024,0.005,-0.02,-0.063,-0.063,-0.044
2.11,-0.015,-0.01,0.005,0.015,-0.01,-0.005,-0.024,0.0,-0.02,-0.063,-0.068,-0.044
2.112,-0.039,-0.024,0.015,0.034,-0.029,-0.005,-0.029,0.0,-0.02,-0.059,-0.068,-0.049
2.114,-0.029,-0.01,0.02,0.02,-0.024,0.005,-0.024,0.015,-0.015,-0.049,-0.054,-0.044
2.116,-0.034,-0.02,0.015,0.029,-0.024,-0.005,-0.024,0.02,-0.015,-0.049,-0.059,-0.049
2.118,-0.044,-0.029,0.015,0.039,-0.029,-0.01,-0.02,0.039,-0.01,-0.044,-0.049,-0.044
2.12,-0.039,-0.024,0.015,0.034,-0.029,-0.005,-0.02,0.044,0.0,-0.044,-0.049,-0.044
2.122,-0.029,-0.029,0.0,0.029,-0.015,-0.015,-0.015,0.029,0.0,-0.039,-0.049,-0.039
2.124,-0.039,-0.029,0.01,0.034,-0.024,-0.01,-0.015,0.01,0.0,-0.039,-0.054,-0.044
2.126,-0.024,-0.024,0.0,0.024,-0.015,-0.015,-0.02,0.0,0.0,-0.044,-0.059,-0.044
2.128,-0.015,-0.01,0.005,0.015,-0.01,-0.005,-0.02,-0.029,-0.005,-0.049,-0.068,-0.049
2.13,-0.015,-0.005,0.01,0.01,-0.015,0.0,-0.015,-0.024,-0.005,-0.039,-0.068,-0.044
2.132,-0.024,-0.01,0.015,0.02,-0.02,0.0,-0.01,-0.024,-0.005,-0.039,-0.063,-0.044
2.134,-0.029,-0.005,0.024,0.02,-0.029,0.01,-0.01,-0.015,0.0,-0.034,-0.059,-0.044
2.136,-0.029,0.0,0.029,0.015,-0.029,0.015,0.0,-0.005,0.01,-0.02,-0.049,-0.034
2.138,-0.02,-0.005,0.015,0.015,-0.02,0.005,-0.01,0.005,0.01,-0.029,-0.044,-0.039
2.14,-0.024,-0.015,0.01,0.02,-0.02,-0.005,-0.005,-0.005,0.005,-0.029,-0.049,-0.039
2.142,-0.044,-0.02,0.024,0.034,-0.034,0.0,0.0,-0.015,0.01,-0.024,-0.044,-0.029
2.144,-0.02,-0.01,0.01,0.015,-0.015,0.0,0.0,-0.034,0.015,-0.024,-0.044,-0.034
2.146,-0.024,-0.015,0.01,0.02,-0.02,-0.005,-0.005,-0.054,0.015,-0.02,-0.039,-0.034
2.148,-0.024,-0.015,0.01,0.02,-0.02,-0.005,-0.01,-0.083,0.005,-0.029,-0.054,-0.039
2.15,-0.029,-0.015,0.015,0.024,-0.024,0.0,-0.01,-0.093,0.0,-0.029,-0.059,-0.044
2.152,-0.029,0.0,0.029,0.015,-0.029,0.015,-0.005,-0.083,0.005,-0.024,-0.049,-0.044
2.154,-0.024,0.005,0.029,0.01,-0.029,0.015,0.0,-0.068,0.005,-0.02,-0.039,-0.029
2.156,-0.034,0.005,0.039,0.015,-0.039,0.02,-0.005,-0.073,0.01,-0.015,-0.034,-0.029
2.158,-0.029,0.005,0.034,0.015,-0.034,0.02,-0.005,-0.063,0.01,-0.015,-0.029,-0.029
2.16,-0.02,0.005,0.024,0.01,-0.024,0.015,0.0,-0.063,0.01,-0.015,-0.029,-0.024
2.162,-0.029,-0.005,0.024,0.02,-0.029,0.01,-0.005,-0.073,0.015,-0.015,-0.024,-0.024
2.164,-0.039,-0.02,0.02,0.029,-0.029,0.0,-0.005,-0.098,0.005,-0.015,-0.029,-0.034
2.166,-0.034,-0.024,0.01,0.029,-0.024,-0.01,-0.01,-0.122,0.0,-0.024,-0.034,-0.029
2.168,-0.015,0.005,0.02,0.005,-0.02,0.01,0.005,-0.132,0.01,-0.015,-0.034,-0.015
2.17,-0.034,-0.01,0.024,0.024,-0.029,0.005,0.0,-0.151,0.005,-0.02,-0.039,-0.02
2.172,-0.044,-0.039,0.005,0.044,-0.024,-0.02,-0.02,-0.166,-0.015,-0.034,-0.059,-0.039
2.174,-0.015,-0.01,0.005,0.015,-0.01,-0.005,-0.015,-0.156,-0.015,-0.039,-0.054,-0.039
2.176,-0.029,-0.01,0.02,0.02,-0.024,0.005,-0.005,-0.142,-0.015,-0.034,-0.049,-0.034
2.178,-0.02,0.01,0.029,0.005,-0.024,0.02,0.0,-0.127,-0.005,-0.02,-0.029,-0.029
2.18,-0.015,0.01,0.024,0.005,-0.02,0.015,0.0,-0.132,0.005,-0.02,-0.029,-0.024
2.182,-0.044,-0.02,0.024,0.034,-0.034,0.0,-0.005,-0.146,0.0,-0.024,-0.039,-0.029
2.184,-0.029,-0.01,0.02,0.02,-0.024,0.005,-0.01,-0.156,-0.005,-0.024,-0.039,-0.039
2.186,-0.029,-0.015,0.015,0.024,-0.024,0.0,-0.01,-0.176,-0.01,-0.029,-0.039,-0.034
2.188,-0.029,-0.01,0.02,0.02,-0.024,0.005,-0.005,-0.19,-0.015,-0.029,-0.044,-0.029
2.19,-0.039,-0.005,0.034,0.024,-0.039,0.015,-0.005,-0.205,-0.024,-0.034,-0.049,-0.029
2.192,-0.039,-0.015,0.024,0.029,-0.034,0.005,-0.015,-0.205,-0.034,-0.044,-0.059,-0.034
2.194,-0.034,-0.015,0.02,0.024,-0.029,0.0,-0.005,-0.2,-0.029,-0.044,-0.054,-0.034
2.196,-0.024,0.0,0.024,0.015,-0.024,0.01,0.0,-0.181,-0.029,-0.039,-0.049,-0.034
2.198,-0.02,-0.01,0.01,0.015,-0.015,0.0,0.0,-0.171,-0.034,-0.044,-0.044,-0.039
2.2,0.0,0.0,0.0,0.0,0.0,0.0,0.0,-0.166,-0.029,-0.034,-0.039,-0.039
2.202,-0.029,-0.02,0.01,0.024,-0.02,-0.005,0.0,-0.161,-0.029,-0.034,-0.034,-0.039
2.204,-0.024,-0.029,-0.005,0.029,-0.01,-0.02,-0.005,-0.181,-0.039,-0.039,-0.039,-0.049
2.206,0.005,-0.005,-0.01,0.0,0.005,-0.01,0.0,-0.185,-0.034,-0.029,-0.034,-0.034
2.208,-0.034,-0.034,0.0,0.034,-0.02,-0.02,-0.005,-0.22,-0.039,-0.039,-0.044,-0.034
2.21,-0.039,-0.044,-0.005,0.044,-0.02,-0.024,-0.02,-0.224,-0.049,-0.049,-0.059,-0.039
2.212,-0.029,-0.02,0.01,0.024,-0.02,-0.005,-0.015,-0.22,-0.039,-0.034,-0.044,-0.029
2.214,-0.034,-0.02,0.015,0.029,-0.024,-0.005,-0.015,-0.22,-0.039,-0.039,-0.039,-0.034
2.216,-0.049,-0.024,0.024,0.039,-0.039,0.0,-0.005,-0.215,-0.039,-0.044,-0.044,-0.029
2.218,-0.02,-0.01,0.01,0.015,-0.015,0.0,0.005,-0.185,-0.034,-0.039,-0.029,-0.024
2.22,-0.015,-0.01,0.005,0.015,-0.01,-0.005,0.005,-0.166,-0.029,-0.034,-0.029,-0.024
2.222,-0.015,-0.005,0.01,0.01,-0.015,0.0,0.01,-0.146,-0.029,-0.034,-0.029,-0.024
2.224,-0.005,-0.01,-0.005,0.01,0.0,-0.01,0.01,-0.161,-0.039,-0.044,-0.039,-0.034
2.226,-0.024,-0.034,-0.01,0.029,-0.01,-0.024,0.005,-0.176,-0.049,-0.049,-0.049,-0.049
2.228,-0.034,-0.029,0.005,0.034,-0.02,-0.015,0.005,-0.181,-0.044,-0.044,-0.044,-0.039
2.23,-0.02,-0.01,0.01,0.015,-0.015,0.0,0.0,-0.19,-0.049,-0.049,-0.049,-0.034
2.232,-0.02,-0.01,0.01,0.015,-0.015,0.0,0.0,-0.195,-0.054,-0.054,-0.054,-0.039
2.234,-0.034,-0.034,0.0,0.034,-0.02,-0.02,-0.01,-0.19,-0.059,-0.059,-0.063,-0.044
2.236,-0.015,-0.024,-0.01,0.02,-0.005,-0.02,0.005,-0.181,-0.049,-0.054,-0.059,-0.034
2.238,-0.01,-0.015,-0.005,0.015,-0.005,-0.01,0.01,-0.156,-0.044,-0.049,-0.044,-0.024
2.24,-0.029,-0.029,0.0,0.029,-0.015,-0.015,0.005,-0.151,-0.044,-0.049,-0.049,-0.029
2.242,-0.005,-0.02,-0.015,0.015,0.005,-0.02,0.005,-0.151,-0.049,-0.049,-0.049,-0.029
2.244,-0.015,-0.02,-0.005,0.02,-0.005,-0.015,0.015,-0.156,-0.049,-0.049,-0.054,-0.034
2.246,-0.063,-0.059,0.005,0.063,-0.034,-0.029,0.005,-0.161,-0.054,-0.059,-0.063,-0.044
2.248,-0.029,-0.039,-0.01,0.034,-0.01,-0.024,0.005,-0.176,-0.059,-0.059,-0.068,-0.044
2.25,-0.02,-0.029,-0.01,0.024,-0.005,-0.02,0.005,-0.181,-0.068,-0.068,-0.073,-0.049
2.252,-0.034,-0.034,0.0,0.034,-0.02,-0.02,0.005,-0.176,-0.073,-0.063,-0.068,-0.054
2.254,-0.024,-0.024,0.0,0.024,-0.015,-0.015,0.01,-0.161,-0.068,-0.063,-0.063,-0.049
2.256,-0.015,-0.024,-0.01,0.02,-0.005,-0.02,0.01,-0.146,-0.059,-0.059,-0.054,-0.039
2.258,-0.024,-0.034,-0.01,0.029,-0.01,-0.024,0.005,-0.127,-0.059,-0.054,-0.049,-0.044
2.26,-0.034,-0.034,0.0,0.034,-0.02,-0.02,0.015,-0.107,-0.049,-0.044,-0.044,-0.044
2.262,-0.039,-0.054,-0.015,0.049,-0.015,-0.034,0.02,-0.112,-0.044,-0.049,-0.054,-0.044
2.264,-0.024,-0.029,-0.005,0.029,-0.01,-0.02,0.024,-0.112,-0.044,-0.049,-0.049,-0.049
2.266,-0.02,-0.024,-0.005,0.024,-0.01,-0.015,0.029,-0.122,-0.049,-0.049,-0.049,-0.044
2.268,-0.049,-0.059,-0.01,0.054,-0.02,-0.034,0.024,-0.137,-0.059,-0.059,-0.059,-0.049
2.27,-0.049,-0.059,-0.01,0.054,-0.02,-0.034,0.02,-0.146,-0.063,-0.068,-0.068,-0.054
2.272,-0.029,-0.044,-0.015,0.039,-0.01,-0.029,0.029,-0.137,-0.063,-0.063,-0.068,-0.049
2.274,-0.024,-0.034,-0.01,0.029,-0.01,-0.024,0.029,-0.117,-0.059,-0.059,-0.054,-0.034
2.276,-0.049,-0.054,-0.005,0.054,-0.024,-0.029,0.029,-0.112,-0.054,-0.049,-0.054,-0.034
2.278,-0.049,-0.044,0.005,0.049,-0.029,-0.02,0.039,-0.078,-0.039,-0.039,-0.039,-0.029
2.28,-0.029,-0.039,-0.01,0.034,-0.01,-0.024,0.039,-0.073,-0.044,-0.049,-0.044,-0.034
2.282,-0.029,-0.054,-0.024,0.044,-0.005,-0.039,0.034,-0.073,-0.049,-0.049,-0.054,-0.039
2.284,-0.034,-0.063,-0.029,0.049,-0.005,-0.049,0.029,-0.093,-0.059,-0.054,-0.059,-0.054
2.286,-0.02,-0.063,-0.044,0.044,0.01,-0.054,0.034,-0.102,-0.059,-0.054,-0.059,-0.054
2.288,-0.024,-0.059,-0.034,0.044,0.005,-0.049,0.034,-0.112,-0.059,-0.059,-0.063,-0.049
2.29,-0.029,-0.054,-0.024,0.044,-0.005,-0.039,0.044,-0.112,-0.063,-0.068,-0.063,-0.049
2.292,-0.039,-0.054,-0.015,0.049,-0.015,-0.034,0.039,-0.102,-0.063,-0.068,-0.063,-0.044
2.294,-0.034,-0.044,-0.01,0.039,-0.015,-0.029,0.039,-0.098,-0.063,-0.063,-0.063,-0.049
2.296,-0.02,-0.034,-0.015,0.029,-0.005,-0.024,0.049,-0.078,-0.054,-0.054,-0.054,-0.034
2.298,-0.02,-0.02,0.0,0.02,-0.01,-0.01,0.049,-0.054,-0.054,-0.059,-0.049,-0.034
2.3,-0.024,-0.034,-0.01,0.029,-0.01,-0.024,0.039,-0.063,-0.063,-0.068,-0.059,-0.049
2.302,-0.015,-0.034,-0.02,0.024,0.0,-0.029,0.034,-0.063,-0.063,-0.073,-0.063,-0.049
2.304,-0.024,-0.049,-0.024,0.039,0.0,-0.039,0.029,-0.083,-0.068,-0.078,-0.068,-0.059
2.306,-0.024,-0.034,-0.01,0.029,-0.01,-0.024,0.039,-0.083,-0.063,-0.073,-0.063,-0.049
2.308,-0.029,-0.044,-0.015,0.039,-0.01,-0.029,0.044,-0.098,-0.073,-0.073,-0.068,-0.049
2.31,-0.02,-0.039,-0.02,0.029,0.0,-0.029,0.044,-0.112,-0.078,-0.078,-0.073,-0.054
2.312,-0.015,-0.029,-0.015,0.024,0.0,-0.024,0.044,-0.102,-0.073,-0.068,-0.063,-0.049
2.314,-0.029,-0.039,-0.01,0.034,-0.01,-0.024,0.039,-0.098,-0.078,-0.073,-0.068,-0.049
2.316,-0.044,-0.054,-0.01,0.049,-0.02,-0.034,0.054,-0.088,-0.068,-0.068,-0.063,-0.044
2.318,-0.01,-0.029,-0.02,0.02,0.005,-0.024,0.059,-0.073,-0.054,-0.059,-0.049,-0.044
2.32,-0.02,-0.034,-0.015,0.029,-0.005,-0.024,0.063,-0.059,-0.054,-0.054,-0.049,-0.044
2.322,-0.039,-0.039,0.0,0.039,-0.02,-0.02,0.063,-0.063,-0.049,-0.054,-0.054,-0.039
2.324,-0.059,-0.059,0.0,0.059,-0.029,-0.029,0.059,-0.083,-0.049,-0.054,-0.054,-0.039
2.326,-0.02,-0.044,-0.024,0.034,0.0,-0.034,0.049,-0.102,-0.063,-0.073,-0.063,-0.049
2.328,0.005,-0.024,-0.029,0.01,0.015,-0.029,0.049,-0.112,-0.059,-0.063,-0.063,-0.044
2.33,-0.005,-0.02,-0.015,0.015,0.005,-0.02,0.044,-0.127,-0.054,-0.059,-0.059,-0.044
2.332,-0.059,-0.078,-0.02,0.068,-0.02,-0.049,0.024,-0.151,-0.078,-0.078,-0.078,-0.063
2.334,-0.039,-0.054,-0.015,0.049,-0.015,-0.034,0.044,-0.142,-0.073,-0.083,-0.078,-0.054
2.336,-0.029,-0.049,-0.02,0.039,-0.005,-0.034,0.059,-0.127,-0.068,-0.073,-0.073,-0.044
2.338,-0.01,-0.034,-0.024,0.024,0.005,-0.029,0.063,-0.112,-0.059,-0.068,-0.059,-0.044
2.34,-0.024,-0.034,-0.01,0.029,-0.01,-0.024,0.063,-0.098,-0.054,-0.059,-0.054,-0.044
2.342,-0.039,-0.063,-0.024,0.054,-0.01,-0.044,0.059,-0.098,-0.063,-0.068,-0.063,-0.049
2.344,-0.029,-0.063,-0.034,0.049,0.0,-0.049,0.063,-0.122,-0.073,-0.083,-0.073,-0.063
2.346,-0.034,-0.059,-0.024,0.049,-0.005,-0.044,0.059,-0.132,-0.078,-0.088,-0.078,-0.068
2.348,-0.039,-0.059,-0.02,0.049,-0.01,-0.039,0.059,-0.142,-0.068,-0.078,-0.073,-0.059
2.35,-0.02,-0.049,-0.029,0.034,0.005,-0.039,0.049,-0.171,-0.083,-0.083,-0.093,-0.068
2.352,-0.024,-0.054,-0.029,0.039,0.0,-0.044,0.054,-0.171,-0.078,-0.078,-0.078,-0.059
2.354,-0.049,-0.054,-0.005,0.054,-0.024,-0.029,0.063,-0.156,-0.063,-0.068,-0.073,-0.044
2.356,-0.029,-0.044,-0.015,0.039,-0.01,-0.029,0.063,-0.151,-0.068,-0.068,-0.073,-0.044
2.358,-0.02,-0.039,-0.02,0.029,0.0,-0.029,0.068,-0.137,-0.063,-0.063,-0.063,-0.044
2.36,-0.039,-0.054,-0.015,0.049,-0.015,-0.034,0.073,-0.122,-0.068,-0.063,-0.063,-0.049
2.362,-0.044,-0.059,-0.015,0.054,-0.015,-0.039,0.073,-0.127,-0.059,-0.063,-0.059,-0.049
2.364,-0.034,-0.059,-0.024,0.049,-0.005,-0.044,0.073,-0.137,-0.059,-0.063,-0.063,-0.049
2.366,-0.029,-0.054,-0.024,0.044,-0.005,-0.039,0.063,-0.156,-0.068,-0.083,-0.073,-0.063
2.368,-0.015,-0.044,-0.029,0.029,0.005,-0.039,0.068,-0.161,-0.068,-0.083,-0.073,-0.054
2.37,-0.024,-0.044,-0.02,0.034,-0.005,-0.034,0.059,-0.176,-0.073,-0.088,-0.078,-0.054
2.372,-0.024,-0.049,-0.024,0.039,0.0,-0.039,0.054,-0.181,-0.078,-0.088,-0.083,-0.059
2.374,-0.039,-0.049,-0.01,0.044,-0.015,-0.029,0.068,-0.171,-0.068,-0.088,-0.073,-0.049
2.376,-0.059,-0.068,-0.01,0.063,-0.024,-0.039,0.083,-0.161,-0.063,-0.078,-0.068,-0.049
2.378,-0.044,-0.059,-0.015,0.054,-0.015,-0.039,0.102,-0.137,-0.059,-0.068,-0.059,-0.044
2.38,-0.034,-0.049,-0.015,0.044,-0.01,-0.034,0.102,-0.122,-0.059,-0.068,-0.054,-0.044
2.382,-0.02,-0.039,-0.02,0.029,0.0,-0.029,0.098,-0.122,-0.054,-0.063,-0.054,-0.044
2.384,-0.005,-0.034,-0.029,0.02,0.01,-0.034,0.098,-0.127,-0.049,-0.063,-0.054,-0.039
2.386,-0.024,-0.044,-0.02,0.034,-0.005,-0.034,0.093,-0.137,-0.059,-0.068,-0.059,-0.044
2.388,-0.044,-0.059,-0.015,0.054,-0.015,-0.039,0.093,-0.151,-0.063,-0.073,-0.063,-0.049
2.39,-0.034,-0.054,-0.02,0.044,-0.01,-0.039,0.083,-0.161,-0.068,-0.088,-0.073,-0.054
2.392,-0.029,-0.039,-0.01,0.034,-0.01,-0.024,0.088,-0.151,-0.068,-0.088,-0.073,-0.049
2.394,-0.039,-0.054,-0.015,0.049,-0.015,-0.034,0.093,-0.146,-0.068,-0.078,-0.068,-0.049
2.396,-0.034,-0.059,-0.024,0.049,-0.005,-0.044,0.088,-0.137,-0.063,-0.068,-0.063,-0.049
2.398,-0.02,-0.044,-0.024,0.034,0.0,-0.034,0.083,-0.107,-0.059,-0.073,-0.059,-0.044
2.4,-0.02,-0.039,-0.02,0.029,0.0,-0.029,0.088,-0.093,-0.059,-0.063,-0.059,-0.039
2.402,-0.044,-0.054,-0.01,0.049,-0.02,-0.034,0.078,-0.088,-0.054,-0.063,-0.059,-0.039
2.404,-0.049,-0.063,-0.015,0.059,-0.02,-0.039,0.073,-0.093,-0.054,-0.063,-0.054,-0.044
2.406,-0.015,-0.039,-0.024,0.029,0.005,-0.034,0.078,-0.093,-0.054,-0.063,-0.054,-0.039
2.408,-0.005,-0.039,-0.034,0.024,0.015,-0.039,0.073,-0.107,-0.063,-0.073,-0.068,-0.049
2.41,-0.024,-0.049,-0.024,0.039,0.0,-0.039,0.068,-0.112,-0.068,-0.078,-0.073,-0.054
2.412,-0.015,-0.039,-0.024,0.029,0.005,-0.034,0.083,-0.098,-0.063,-0.068,-0.068,-0.044
2.414,-0.044,-0.054,-0.01,0.049,-0.02,-0.034,0.073,-0.088,-0.068,-0.068,-0.068,-0.044
2.416,-0.059,-0.073,-0.015,0.068,-0.024,-0.044,0.073,-0.073,-0.073,-0.078,-0.078,-0.049
2.418,-0.034,-0.044,-0.01,0.039,-0.015,-0.029,0.093,-0.039,-0.054,-0.063,-0.063,-0.039
2.42,-0.039,-0.054,-0.015,0.049,-0.015,-0.034,0.088,-0.024,-0.059,-0.059,-0.063,-0.044
2.422,-0.02,-0.049,-0.029,0.034,0.005,-0.039,0.083,-0.029,-0.054,-0.059,-0.059,-0.039
2.424,-0.039,-0.073,-0.034,0.059,-0.005,-0.054,0.073,-0.034,-0.059,-0.068,-0.063,-0.054
2.426,-0.044,-0.088,-0.044,0.068,0.0,-0.068,0.068,-0.044,-0.073,-0.073,-0.073,-0.059
2.428,-0.024,-0.059,-0.034,0.044,0.005,-0.049,0.059,-0.054,-0.073,-0.083,-0.078,-0.054
2.43,-0.034,-0.054,-0.02,0.044,-0.01,-0.039,0.054,-0.054,-0.068,-0.088,-0.083,-0.054
2.432,-0.039,-0.054,-0.015,0.049,-0.015,-0.034,0.063,-0.049,-0.063,-0.078,-0.078,-0.054
2.434,-0.029,-0.039,-0.01,0.034,-0.01,-0.024,0.059,-0.039,-0.068,-0.073,-0.068,-0.049
2.436,-0.02,-0.029,-0.01,0.024,-0.005,-0.02,0.068,-0.015,-0.059,-0.068,-0.054,-0.039
2.438,-0.024,-0.029,-0.005,0.029,-0.01,-0.02,0.078,0.005,-0.054,-0.073,-0.054,-0.044
2.44,-0.029,-0.044,-0.015,0.039,-0.01,-0.029,0.083,0.015,-0.054,-0.063,-0.059,-0.049
2.442,-0.02,-0.044,-0.024,0.034,0.0,-0.034,0.083,0.024,-0.049,-0.054,-0.054,-0.039
2.444,-0.015,-0.044,-0.029,0.029,0.005,-0.039,0.088,0.01,-0.054,-0.063,-0.059,-0.039
2.446,-0.029,-0.044,-0.015,0.039,-0.01,-0.029,0.073,0.0,-0.059,-0.068,-0.063,-0.049
2.448,-0.02,-0.049,-0.029,0.034,0.005,-0.039,0.073,-0.015,-0.063,-0.068,-0.073,-0.044
2.45,-0.02,-0.054,-0.034,0.039,0.005,-0.044,0.054,-0.024,-0.073,-0.083,-0.088,-0.059
2.452,-0.034,-0.054,-0.02,0.044,-0.01,-0.039,0.063,-0.02,-0.068,-0.078,-0.073,-0.054
2.454,-0.039,-0.049,-0.01,0.044,-0.015,-0.029,0.073,-0.005,-0.073,-0.078,-0.068,-0.049
2.456,-0.024,-0.039,-0.015,0.034,-0.005,-0.029,0.073,0.005,-0.063,-0.068,-0.063,-0.044
2.458,-0.044,-0.044,0.0,0.044,-0.024,-0.024,0.073,0.02,-0.059,-0.059,-0.054,-0.044
2.46,-0.029,-0.044,-0.015,0.039,-0.01,-0.029,0.068,0.034,-0.059,-0.059,-0.054,-0.044
2.462,-0.039,-0.059,-0.02,0.049,-0.01,-0.039,0.059,0.024,-0.063,-0.054,-0.059,-0.059
2.464,-0.034,-0.054,-0.02,0.044,-0.01,-0.039,0.068,0.01,-0.049,-0.054,-0.054,-0.054
2.466,-0.044,-0.059,-0.015,0.054,-0.015,-0.039,0.063,0.0,-0.059,-0.063,-0.059,-0.054
2.468,-0.039,-0.063,-0.024,0.054,-0.01,-0.044,0.054,-0.024,-0.063,-0.068,-0.068,-0.054
2.47,-0.054,-0.083,-0.029,0.068,-0.015,-0.059,0.049,-0.049,-0.068,-0.073,-0.073,-0.049
2.472,-0.01,-0.029,-0.02,0.02,0.005,-0.024,0.073,-0.034,-0.054,-0.063,-0.068,-0.034
2.474,-0.029,-0.049,-0.02,0.039,-0.005,-0.034,0.059,-0.034,-0.063,-0.073,-0.078,-0.044
2.476,-0.024,-0.049,-0.024,0.039,0.0,-0.039,0.059,-0.024,-0.063,-0.063,-0.073,-0.039
2.478,-0.015,-0.029,-0.015,0.024,0.0,-0.024,0.063,-0.01,-0.054,-0.054,-0.059,-0.034
2.48,-0.034,-0.044,-0.01,0.039,-0.015,-0.029,0.054,-0.01,-0.054,-0.054,-0.059,-0.034
2.482,-0.039,-0.044,-0.005,0.044,-0.02,-0.024,0.059,-0.005,-0.049,-0.049,-0.054,-0.034
2.484,-0.034,-0.034,0.0,0.034,-0.02,-0.02,0.073,-0.02,-0.044,-0.039,-0.049,-0.039
2.486,-0.015,-0.01,0.005,0.015,-0.01,-0.005,0.083,-0.034,-0.039,-0.039,-0.049,-0.029
2.488,-0.024,-0.029,-0.005,0.029,-0.01,-0.02,0.088,-0.059,-0.049,-0.049,-0.059,-0.039
2.49,-0.029,-0.015,0.015,0.024,-0.024,0.0,0.102,-0.068,-0.034,-0.039,-0.054,-0.029
2.492,-0.029,-0.01,0.02,0.02,-0.024,0.005,0.112,-0.063,-0.024,-0.039,-0.049,-0.029
2.494,-0.034,-0.01,0.024,0.024,-0.029,0.005,0.117,-0.049,-0.02,-0.034,-0.044,-0.024
2.496,-0.024,0.0,0.024,0.015,-0.024,0.01,0.122,-0.039,-0.005,-0.02,-0.024,-0.015
2.498,-0.02,0.01,0.029,0.005,-0.024,0.02,0.132,-0.015,-0.005,-0.01,-0.015,-0.01
2.5,-0.039,-0.015,0.024,0.029,-0.034,0.005,0.127,-0.005,0.005,-0.005,-0.02,-0.01
2.502,-0.024,0.0,0.024,0.015,-0.024,0.01,0.146,0.005,0.015,0.005,-0.02,-0.005
2.504,-0.015,0.015,0.029,0.0,-0.024,0.02,0.151,-0.005,0.02,0.005,-0.015,0.0
2.506,-0.01,0.015,0.024,0.0,-0.02,0.02,0.137,-0.034,0.01,-0.005,-0.024,-0.005
2.508,-0.024,-0.005,0.02,0.015,-0.024,0.005,0.132,-0.059,0.005,-0.005,-0.034,-0.02
2.51,-0.029,0.005,0.034,0.015,-0.034,0.02,0.127,-0.083,0.005,-0.005,-0.029,-0.015
2.512,-0.024,0.01,0.034,0.01,-0.029,0.02,0.112,-0.093,-0.005,-0.01,-0.024,-0.02
2.514,-0.015,0.02,0.034,0.0,-0.024,0.024,0.088,-0.093,-0.005,-0.005,-0.024,-0.01
2.516,-0.015,0.015,0.029,0.0,-0.024,0.02,0.073,-0.102,-0.015,-0.01,-0.024,-0.005
2.518,-0.005,0.024,0.029,-0.01,-0.02,0.024,0.059,-0.098,-0.015,-0.015,-0.024,-0.005
2.52,-0.01,0.015,0.024,0.0,-0.02,0.02,0.049,-0.098,-0.015,-0.015,-0.02,-0.01
2.522,0.0,0.005,0.005,0.0,-0.005,0.005,0.029,-0.112,-0.024,-0.015,-0.029,-0.015
2.524,-0.005,-0.015,-0.01,0.01,0.0,-0.015,0.015,-0.132,-0.029,-0.02,-0.034,-0.024
2.526,-0.024,-0.015,0.01,0.02,-0.02,-0.005,0.0,-0.156,-0.044,-0.024,-0.044,-0.024
2.528,-0.034,-0.029,0.005,0.034,-0.02,-0.015,0.0,-0.19,-0.054,-0.034,-0.054,-0.024
2.53,-0.02,-0.01,0.01,0.015,-0.015,0.0,0.005,-0.215,-0.059,-0.034,-0.059,-0.024
2.532,-0.005,0.015,0.02,-0.005,-0.015,0.015,0.0,-0.22,-0.068,-0.049,-0.063,-0.029
2.534,-0.01,0.0,0.01,0.005,-0.01,0.005,-0.02,-0.239,-0.088,-0.063,-0.073,-0.039
2.536,-0.005,0.0,0.005,0.005,-0.005,0.0,-0.02,-0.229,-0.088,-0.054,-0.068,-0.034
2.538,-0.024,-0.01,0.015,0.02,-0.02,0.0,-0.015,-0.22,-0.073,-0.044,-0.054,-0.024
2.54,0.0,0.005,0.005,0.0,-0.005,0.005,-0.02,-0.21,-0.073,-0.044,-0.049,-0.02
2.542,-0.01,-0.005,0.005,0.01,-0.01,0.0,-0.005,-0.21,-0.068,-0.039,-0.044,-0.01
2.544,0.0,-0.005,-0.005,0.005,0.0,-0.005,-0.01,-0.22,-0.073,-0.044,-0.049,-0.015
2.546,0.01,0.005,-0.005,-0.005,0.005,0.0,0.0,-0.234,-0.073,-0.039,-0.049,-0.01
2.548,0.005,0.0,-0.005,0.0,0.005,-0.005,-0.01,-0.259,-0.083,-0.044,-0.063,-0.029
2.55,0.005,0.005,0.0,-0.005,0.0,0.0,-0.02,-0.273,-0.083,-0.049,-0.063,-0.029
2.552,-0.005,-0.005,0.0,0.005,-0.005,-0.005,-0.029,-0.278,-0.088,-0.059,-0.068,-0.034
2.554,-0.005,-0.01,-0.005,0.01,0.0,-0.01,-0.015,-0.264,-0.078,-0.054,-0.059,-0.024
2.556,0.0,-0.02,-0.02,0.01,0.01,-0.02,-0.005,-0.259,-0.078,-0.059,-0.063,-0.034
2.558,-0.005,-0.034,-0.029,0.02,0.01,-0.034,-0.01,-0.244,-0.078,-0.059,-0.059,-0.024
2.56,-0.005,-0.039,-0.034,0.024,0.015,-0.039,-0.005,-0.239,-0.073,-0.054,-0.054,-0.02
2.562,0.0,-0.044,-0.044,0.024,0.02,-0.044,-0.005,-0.229,-0.073,-0.054,-0.049,-0.02
2.564,-0.005,-0.054,-0.049,0.029,0.02,-0.054,-0.005,-0.244,-0.088,-0.063,-0.063,-0.024
2.566,0.01,-0.034,-0.044,0.015,0.024,-0.039,-0.005,-0.254,-0.088,-0.059,-0.054,-0.02
2.568,-0.01,-0.039,-0.029,0.024,0.01,-0.034,-0.005,-0.264,-0.093,-0.059,-0.063,-0.015
2.57,-0.029,-0.049,-0.02,0.039,-0.005,-0.034,-0.005,-0.278,-0.088,-0.059,-0.068,-0.024
2.572,-0.015,-0.029,-0.015,0.024,0.0,-0.024,0.005,-0.268,-0.088,-0.059,-0.068,-0.02
2.574,0.01,-0.005,-0.015,0.0,0.01,-0.01,0.005,-0.244,-0.083,-0.063,-0.068,-0.029
2.576,-0.02,-0.049,-0.029,0.034,0.005,-0.039,-0.005,-0.239,-0.088,-0.078,-0.083,-0.049
2.578,-0.024,-0.039,-0.015,0.034,-0.005,-0.029,0.015,-0.2,-0.078,-0.063,-0.073,-0.039
2.58,-0.029,-0.044,-0.015,0.039,-0.01,-0.029,0.02,-0.195,-0.078,-0.063,-0.073,-0.044
2.582,-0.044,-0.054,-0.01,0.049,-0.02,-0.034,0.02,-0.185,-0.078,-0.063,-0.073,-0.049
2.584,-0.039,-0.059,-0.02,0.049,-0.01,-0.039,0.02,-0.181,-0.078,-0.063,-0.068,-0.049
2.586,-0.029,-0.063,-0.034,0.049,0.0,-0.049,0.02,-0.19,-0.088,-0.073,-0.088,-0.059
2.588,-0.029,-0.059,-0.029,0.044,0.0,-0.044,0.02,-0.205,-0.093,-0.078,-0.093,-0.063
2.59,-0.015,-0.039,-0.024,0.029,0.005,-0.034,0.02,-0.205,-0.088,-0.078,-0.093,-0.054
2.592,-0.005,-0.029,-0.024,0.02,0.01,-0.029,0.029,-0.195,-0.083,-0.078,-0.093,-0.054
2.594,0.0,-0.029,-0.029,0.015,0.015,-0.029,0.024,-0.181,-0.083,-0.078,-0.093,-0.054
2.596,-0.049,-0.068,-0.02,0.059,-0.015,-0.044,0.015,-0.166,-0.088,-0.078,-0.088,-0.059
2.598,-0.054,-0.054,0.0,0.054,-0.029,-0.029,0.024,-0.132,-0.078,-0.068,-0.078,-0.049
2.6,-0.059,-0.054,0.005,0.059,-0.034,-0.024,0.034,-0.112,-0.073,-0.059,-0.068,-0.044
2.602,-0.044,-0.054,-0.01,0.049,-0.02,-0.034,0.029,-0.117,-0.078,-0.063,-0.073,-0.049
2.604,-0.039,-0.059,-0.02,0.049,-0.01,-0.039,0.024,-0.117,-0.088,-0.073,-0.078,-0.054
2.606,-0.049,-0.059,-0.01,0.054,-0.02,-0.034,0.024,-0.127,-0.093,-0.073,-0.088,-0.059
2.608,-0.059,-0.073,-0.015,0.068,-0.024,-0.044,0.024,-0.142,-0.088,-0.073,-0.088,-0.063
2.61,-0.039,-0.059,-0.02,0.049,-0.01,-0.039,0.015,-0.146,-0.093,-0.083,-0.093,-0.068
2.612,-0.029,-0.044,-0.015,0.039,-0.01,-0.029,0.015,-0.142,-0.088,-0.078,-0.093,-0.059
2.614,-0.039,-0.039,0.0,0.039,-0.02,-0.02,0.01,-0.127,-0.093,-0.078,-0.093,-0.063
2.616,-0.039,-0.044,-0.005,0.044,-0.02,-0.024,0.02,-0.107,-0.078,-0.073,-0.083,-0.059
2.618,-0.044,-0.049,-0.005,0.049,-0.02,-0.029,0.015,-0.078,-0.073,-0.063,-0.078,-0.059
2.62,-0.039,-0.049,-0.01,0.044,-0.015,-0.029,0.02,-0.063,-0.068,-0.063,-0.078,-0.054
2.622,-0.039,-0.059,-0.02,0.049,-0.01,-0.039,0.02,-0.063,-0.073,-0.059,-0.073,-0.059
2.624,-0.029,-0.059,-0.029,0.044,0.0,-0.044,0.015,-0.068,-0.063,-0.054,-0.068,-0.054
2.626,-0.039,-0.054,-0.015,0.049,-0.015,-0.034,0.015,-0.088,-0.073,-0.059,-0.078,-0.059
2.628,-0.044,-0.059,-0.015,0.054,-0.015,-0.039,0.015,-0.107,-0.073,-0.063,-0.083,-0.063
2.63,-0.034,-0.054,-0.02,0.044,-0.01,-0.039,0.015,-0.112,-0.073,-0.063,-0.083,-0.059
2.632,-0.044,-0.063,-0.02,0.054,-0.015,-0.044,0.005,-0.112,-0.073,-0.063,-0.083,-0.059
2.634,-0.024,-0.039,-0.015,0.034,-0.005,-0.029,0.01,-0.098,-0.063,-0.054,-0.068,-0.049
2.636,-0.024,-0.044,-0.02,0.034,-0.005,-0.034,0.015,-0.078,-0.059,-0.059,-0.063,-0.049
2.638,-0.044,-0.059,-0.015,0.054,-0.015,-0.039,0.01,-0.059,-0.063,-0.063,-0.068,-0.059
2.64,-0.024,-0.044,-0.02,0.034,-0.005,-0.034,0.029,-0.034,-0.044,-0.049,-0.063,-0.049
2.642,-0.024,-0.049,-0.024,0.039,0.0,-0.039,0.049,0.0,-0.029,-0.049,-0.068,-0.063
2.644,-0.049,-0.063,-0.015,0.059,-0.02,-0.039,0.073,0.024,-0.01,-0.039,-0.073,-0.078
2.646,-0.049,-0.063,-0.015,0.059,-0.02,-0.039,0.093,0.044,0.01,-0.044,-0.098,-0.102
2.648,-0.063,-0.068,-0.005,0.068,-0.029,-0.039,0.122,0.063,0.029,-0.054,-0.117,-0.117
2.65,-0.078,-0.078,0.0,0.078,-0.039,-0.039,0.132,0.073,0.063,-0.02,-0.098,-0.122
2.652,-0.063,-0.068,-0.005,0.068,-0.029,-0.039,0.127,0.107,0.142,0.088,0.0,-0.088
2.654,-0.034,-0.063,-0.029,0.049,-0.005,-0.049,0.102,0.142,0.22,0.205,0.132,-0.029
2.656,0.005,-0.059,-0.063,0.029,0.034,-0.063,0.088,0.259,0.371,0.386,0.317,0.059
2.658,0.039,-0.034,-0.073,0.0,0.054,-0.054,0.083,0.381,0.527,0.605,0.547,0.181
2.66,0.093,0.0,-0.093,-0.044,0.093,-0.049,0.059,0.478,0.688,0.854,0.82,0.327
2.662,0.171,0.063,-0.107,-0.117,0.137,-0.024,0.029,0.532,0.864,1.132,1.108,0.488
2.664,0.21,0.098,-0.112,-0.151,0.161,-0.01,-0.005,0.473,0.971,1.347,1.357,0.634
2.666,0.254,0.166,-0.088,-0.21,0.171,0.039,-0.073,0.264,1.0,1.532,1.615,0.805
2.668,0.342,0.234,-0.107,-0.288,0.224,0.063,-0.2,-0.054,0.971,1.615,1.791,0.966
2.67,0.395,0.254,-0.142,-0.322,0.268,0.054,-0.293,-0.4,0.815,1.454,1.698,0.991
2.672,0.42,0.249,-0.171,-0.332,0.293,0.039,-0.346,-0.727,0.512,0.996,1.303,0.898
2.674,0.405,0.22,-0.185,-0.312,0.293,0.015,-0.371,-1.035,0.156,0.478,0.81,0.756
2.676,0.4,0.234,-0.166,-0.317,0.283,0.034,-0.381,-1.303,-0.171,0.029,0.351,0.63
2.678,0.317,0.239,-0.078,-0.278,0.195,0.078,-0.4,-1.61,-0.522,-0.322,-0.01,0.517
2.68,0.234,0.239,0.005,-0.234,0.112,0.122,-0.425,-1.825,-0.825,-0.581,-0.283,0.386
2.682,0.171,0.22,0.049,-0.195,0.059,0.132,-0.429,-1.913,-1.059,-0.776,-0.503,0.215
2.684,0.088,0.132,0.044,-0.107,0.02,0.088,-0.473,-1.952,-1.23,-0.888,-0.644,0.073
2.686,0.054,0.093,0.039,-0.073,0.005,0.063,-0.542,-1.893,-1.249,-0.878,-0.634,0.02
2.688,0.073,0.122,0.049,-0.098,0.01,0.083,-0.556,-1.732,-1.127,-0.756,-0.542,0.034
2.69,0.078,0.142,0.063,-0.107,0.005,0.102,-0.561,-1.552,-1.005,-0.639,-0.454,0.054
2.692,0.068,0.112,0.044,-0.088,0.01,0.078,-0.542,-1.371,-0.883,-0.561,-0.405,0.034
2.694,0.059,0.083,0.024,-0.068,0.015,0.054,-0.512,-1.166,-0.766,-0.488,-0.346,0.02
2.696,0.049,0.059,0.01,-0.054,0.02,0.034,-0.439,-0.956,-0.649,-0.42,-0.298,0.015
2.698,0.029,0.034,0.005,-0.029,0.01,0.02,-0.361,-0.766,-0.522,-0.337,-0.244,0.005
2.7,0.029,0.034,0.005,-0.029,0.01,0.02,-0.273,-0.6,-0.4,-0.254,-0.195,0.0
2.702,0.01,0.02,0.01,-0.015,0.0,0.015,-0.22,-0.508,-0.327,-0.21,-0.166,-0.01
2.704,0.0,0.01,0.01,-0.005,-0.005,0.01,-0.161,-0.429,-0.268,-0.181,-0.151,-0.024
2.706,0.015,0.034,0.02,-0.024,-0.005,0.024,-0.098,-0.351,-0.205,-0.132,-0.117,-0.015
2.708,-0.005,0.015,0.02,-0.005,-0.015,0.015,-0.059,-0.327,-0.161,-0.107,-0.107,-0.024
2.71,-0.02,0.0,0.02,0.01,-0.02,0.01,-0.029,-0.298,-0.132,-0.093,-0.102,-0.039
2.712,-0.024,-0.01,0.015,0.02,-0.02,0.0,-0.01,-0.278,-0.112,-0.098,-0.102,-0.049
2.714,-0.024,0.0,0.024,0.015,-0.024,0.01,0.01,-0.249,-0.093,-0.078,-0.088,-0.034
2.716,-0.029,-0.02,0.01,0.024,-0.02,-0.005,0.02,-0.234,-0.093,-0.083,-0.088,-0.049
2.718,-0.049,-0.039,0.01,0.044,-0.029,-0.015,0.024,-0.21,-0.078,-0.078,-0.088,-0.049
2.72,-0.029,-0.034,-0.005,0.034,-0.015,-0.02,0.029,-0.185,-0.059,-0.063,-0.073,-0.034
2.722,-0.01,-0.029,-0.02,0.02,0.005,-0.024,0.034,-0.181,-0.044,-0.054,-0.068,-0.034
2.724,-0.01,-0.029,-0.02,0.02,0.005,-0.024,0.029,-0.2,-0.044,-0.049,-0.063,-0.044
2.726,0.01,-0.015,-0.024,0.005,0.015,-0.02,0.034,-0.215,-0.034,-0.044,-0.059,-0.034
2.728,-0.02,-0.029,-0.01,0.024,-0.005,-0.02,0.034,-0.239,-0.039,-0.049,-0.059,-0.039
2.73,-0.02,-0.029,-0.01,0.024,-0.005,-0.02,0.029,-0.268,-0.049,-0.059,-0.068,-0.049
2.732,-0.02,-0.024,-0.005,0.024,-0.01,-0.015,0.034,-0.273,-0.044,-0.059,-0.073,-0.049
2.734,-0.02,-0.024,-0.005,0.024,-0.01,-0.015,0.039,-0.273,-0.039,-0.059,-0.068,-0.054
2.736,-0.02,-0.024,-0.005,0.024,-0.01,-0.015,0.034,-0.264,-0.039,-0.059,-0.068,-0.059
2.738,-0.024,-0.029,-0.005,0.029,-0.01,-0.02,0.034,-0.259,-0.029,-0.054,-0.068,-0.063
2.74,-0.039,-0.039,0.0,0.039,-0.02,-0.02,0.049,-0.249,-0.02,-0.049,-0.068,-0.054
2.742,-0.054,-0.049,0.005,0.054,-0.029,-0.024,0.049,-0.239,-0.015,-0.039,-0.063,-0.049
2.744,-0.029,-0.029,0.0,0.029,-0.015,-0.015,0.054,-0.249,-0.015,-0.039,-0.063,-0.049
2.746,0.0,-0.024,-0.024,0.015,0.01,-0.024,0.059,-0.273,-0.01,-0.044,-0.063,-0.049
2.748,-0.024,-0.034,-0.01,0.029,-0.01,-0.024,0.063,-0.288,-0.005,-0.039,-0.054,-0.039
2.75,-0.044,-0.049,-0.005,0.049,-0.02,-0.029,0.054,-0.312,-0.02,-0.049,-0.068,-0.049
2.752,-0.02,-0.029,-0.01,0.024,-0.005,-0.02,0.059,-0.322,-0.02,-0.044,-0.059,-0.054
2.754,-0.024,-0.039,-0.015,0.034,-0.005,-0.029,0.059,-0.317,-0.015,-0.044,-0.063,-0.054
2.756,-0.029,-0.044,-0.015,0.039,-0.01,-0.029,0.063,-0.298,-0.01,-0.044,-0.059,-0.049
2.758,-0.02,-0.024,-0.005,0.024,-0.01,-0.015,0.059,-0.278,-0.01,-0.039,-0.054,-0.039
2.76,-0.044,-0.054,-0.01,0.049,-0.02,-0.034,0.054,-0.268,-0.005,-0.034,-0.059,-0.044
2.762,-0.049,-0.054,-0.005,0.054,-0.024,-0.029,0.059,-0.264,0.0,-0.029,-0.054,-0.044
2.764,-0.034,-0.039,-0.005,0.039,-0.015,-0.024,0.054,-0.288,-0.01,-0.044,-0.059,-0.049
2.766,-0.005,-0.02,-0.015,0.015,0.005,-0.02,0.073,-0.278,0.0,-0.029,-0.054,-0.039
2.768,0.01,0.005,-0.005,-0.005,0.005,0.0,0.078,-0.283,0.015,-0.024,-0.044,-0.029
2.77,-0.034,-0.044,-0.01,0.039,-0.015,-0.029,0.044,-0.312,-0.015,-0.049,-0.063,-0.054
2.772,-0.054,-0.063,-0.01,0.059,-0.024,-0.039,0.034,-0.322,-0.02,-0.059,-0.073,-0.059
2.774,-0.024,-0.029,-0.005,0.029,-0.01,-0.02,0.049,-0.288,-0.005,-0.044,-0.054,-0.044
2.776,-0.02,-0.02,0.0,0.02,-0.01,-0.01,0.049,-0.273,0.0,-0.039,-0.054,-0.044
2.778,-0.02,-0.02,0.0,0.02,-0.01,-0.01,0.059,-0.249,0.005,-0.029,-0.049,-0.034
2.78,-0.02,-0.015,0.005,0.02,-0.015,-0.005,0.063,-0.224,0.01,-0.024,-0.044,-0.029
2.782,-0.024,-0.02,0.005,0.024,-0.015,-0.01,0.063,-0.215,0.01,-0.024,-0.044,-0.034
2.784,-0.005,-0.015,-0.01,0.01,0.0,-0.015,0.059,-0.224,0.01,-0.034,-0.049,-0.039
2.786,-0.01,-0.02,-0.01,0.015,0.0,-0.015,0.063,-0.229,0.005,-0.034,-0.044,-0.039
2.788,-0.024,-0.024,0.0,0.024,-0.015,-0.015,0.054,-0.254,-0.005,-0.039,-0.054,-0.044
2.79,-0.015,-0.024,-0.01,0.02,-0.005,-0.02,0.054,-0.268,-0.005,-0.044,-0.059,-0.049
2.792,-0.015,-0.024,-0.01,0.02,-0.005,-0.02,0.049,-0.283,-0.005,-0.049,-0.063,-0.063
2.794,-0.015,-0.02,-0.005,0.02,-0.005,-0.015,0.054,-0.259,-0.005,-0.039,-0.054,-0.063
2.796,-0.024,-0.02,0.005,0.024,-0.015,-0.01,0.054,-0.244,0.005,-0.034,-0.039,-0.054
2.798,-0.029,-0.029,0.0,0.029,-0.015,-0.015,0.049,-0.239,0.005,-0.034,-0.039,-0.049
2.8,-0.029,-0.015,0.015,0.024,-0.024,0.0,0.063,-0.205,0.02,-0.02,-0.029,-0.039
2.802,-0.02,0.0,0.02,0.01,-0.02,0.01,0.068,-0.195,0.029,-0.015,-0.024,-0.034
2.804,-0.015,-0.01,0.005,0.015,-0.01,-0.005,0.068,-0.21,0.024,-0.015,-0.024,-0.029
2.806,0.0,-0.02,-0.02,0.01,0.01,-0.02,0.059,-0.224,0.015,-0.02,-0.034,-0.034
2.808,-0.02,-0.029,-0.01,0.024,-0.005,-0.02,0.059,-0.244,0.01,-0.024,-0.039,-0.039
2.81,-0.024,-0.029,-0.005,0.029,-0.01,-0.02,0.059,-0.259,0.01,-0.024,-0.034,-0.039
2.812,-0.02,-0.024,-0.005,0.024,-0.01,-0.015,0.049,-0.268,0.015,-0.02,-0.029,-0.034
2.814,-0.029,-0.024,0.005,0.029,-0.02,-0.01,0.049,-0.254,0.015,-0.024,-0.029,-0.029
2.816,-0.015,-0.005,0.01,0.01,-0.015,0.0,0.044,-0.239,0.02,-0.034,-0.029,-0.029
2.818,-0.005,-0.005,0.0,0.005,-0.005,-0.005,0.044,-0.215,0.029,-0.02,-0.02,-0.024
2.82,-0.015,-0.02,-0.005,0.02,-0.005,-0.015,0.044,-0.2,0.034,-0.01,-0.02,-0.029
2.822,-0.005,-0.02,-0.015,0.015,0.005,-0.02,0.054,-0.19,0.039,0.0,-0.005,-0.024
2.824,0.0,-0.015,-0.015,0.01,0.005,-0.015,0.049,-0.2,0.039,-0.005,-0.015,-0.029
2.826,0.01,-0.005,-0.015,0.0,0.01,-0.01,0.054,-0.21,0.034,-0.005,-0.02,-0.029
2.828,0.005,0.0,-0.005,0.0,0.005,-0.005,0.059,-0.224,0.039,-0.01,-0.024,-0.029
2.83,0.0,0.0,0.0,0.0,0.0,0.0,0.063,-0.244,0.029,-0.02,-0.029,-0.024
2.832,-0.02,-0.01,0.01,0.015,-0.015,0.0,0.063,-0.254,0.029,-0.02,-0.029,-0.034
2.834,-0.024,-0.01,0.015,0.02,-0.02,0.0,0.063,-0.249,0.02,-0.02,-0.029,-0.039
2.836,-0.015,-0.01,0.005,0.015,-0.01,-0.005,0.078,-0.234,0.039,-0.01,-0.015,-0.029
2.838,-0.02,-0.02,0.0,0.02,-0.01,-0.01,0.083,-0.215,0.039,-0.01,-0.01,-0.024
2.84,-0.015,-0.024,-0.01,0.02,-0.005,-0.02,0.078,-0.205,0.044,-0.005,-0.01,-0.029
2.842,0.0,-0.005,-0.005,0.005,0.0,-0.005,0.088,-0.185,0.049,0.005,0.005,-0.02
2.844,0.01,0.0,-0.01,-0.005,0.01,-0.005,0.088,-0.19,0.059,0.005,0.01,-0.02
2.846,-0.01,-0.01,0.0,0.01,-0.005,-0.005,0.088,-0.205,0.054,0.015,0.005,-0.024
2.848,0.01,0.01,0.0,-0.01,0.005,0.005,0.093,-0.215,0.063,0.015,0.01,-0.015
2.85,0.01,0.015,0.005,-0.01,0.0,0.01,0.088,-0.229,0.054,0.005,0.0,-0.02
2.852,0.024,0.02,-0.005,-0.02,0.015,0.005,0.088,-0.239,0.059,0.005,0.0,-0.02
2.854,-0.01,-0.015,-0.005,0.015,-0.005,-0.01,0.073,-0.239,0.049,0.0,-0.005,-0.029
2.856,-0.005,-0.005,0.0,0.005,-0.005,-0.005,0.083,-0.224,0.059,0.01,0.005,-0.02
2.858,0.005,0.015,0.01,-0.01,-0.005,0.01,0.088,-0.2,0.078,0.029,0.024,-0.005
2.86,-0.005,0.005,0.01,0.0,-0.01,0.005,0.083,-0.185,0.083,0.034,0.024,-0.005
2.862,-0.015,-0.015,0.0,0.015,-0.01,-0.01,0.078,-0.176,0.073,0.029,0.02,-0.01
2.864,0.01,0.0,-0.01,-0.005,0.01,-0.005,0.083,-0.181,0.083,0.024,0.015,-0.005
2.866,0.01,0.005,-0.005,-0.005,0.005,0.0,0.083,-0.19,0.078,0.02,0.024,0.0
2.868,0.02,0.01,-0.01,-0.015,0.015,0.0,0.083,-0.205,0.073,0.02,0.015,-0.005
2.87,0.0,0.005,0.005,0.0,-0.005,0.005,0.083,-0.21,0.073,0.02,0.02,-0.005
2.872,-0.005,0.02,0.024,-0.005,-0.015,0.02,0.078,-0.215,0.088,0.029,0.029,0.005
2.874,0.02,0.039,0.02,-0.029,0.0,0.029,0.078,-0.195,0.088,0.034,0.044,0.01
2.876,0.034,0.024,-0.01,-0.029,0.02,0.005,0.063,-0.2,0.078,0.029,0.029,0.0
2.878,0.02,0.029,0.01,-0.024,0.005,0.02,0.073,-0.176,0.093,0.034,0.044,0.01
2.88,0.015,0.034,0.02,-0.024,-0.005,0.024,0.078,-0.146,0.107,0.049,0.059,0.029
2.882,0.015,0.015,0.0,-0.015,0.005,0.005,0.068,-0.142,0.102,0.044,0.054,0.02
2.884,0.02,0.005,-0.015,-0.01,0.015,-0.005,0.059,-0.151,0.102,0.039,0.049,0.02
2.886,0.029,0.01,-0.02,-0.02,0.024,-0.005,0.049,-0.161,0.098,0.054,0.054,0.02
2.888,0.024,0.02,-0.005,-0.02,0.015,0.005,0.059,-0.171,0.107,0.068,0.063,0.029
2.89,0.02,0.029,0.01,-0.024,0.005,0.02,0.063,-0.171,0.107,0.068,0.073,0.039
2.892,0.01,0.015,0.005,-0.01,0.0,0.01,0.054,-0.181,0.098,0.039,0.049,0.024
2.894,0.049,0.044,-0.005,-0.044,0.024,0.02,0.078,-0.142,0.117,0.063,0.078,0.044
2.896,0.049,0.049,0.0,-0.049,0.024,0.024,0.078,-0.127,0.122,0.068,0.073,0.044
2.898,0.044,0.054,0.01,-0.049,0.015,0.029,0.073,-0.107,0.122,0.063,0.078,0.049
2.9,0.054,0.049,-0.005,-0.049,0.029,0.02,0.063,-0.088,0.122,0.068,0.083,0.054
2.902,0.054,0.044,-0.01,-0.049,0.029,0.015,0.063,-0.073,0.127,0.073,0.088,0.049
2.904,0.054,0.039,-0.015,-0.044,0.034,0.01,0.054,-0.068,0.127,0.068,0.083,0.054
2.906,0.049,0.029,-0.02,-0.039,0.034,0.005,0.054,-0.073,0.122,0.068,0.078,0.049
2.908,0.059,0.044,-0.015,-0.049,0.034,0.015,0.054,-0.088,0.127,0.068,0.083,0.049
2.91,0.068,0.059,-0.01,-0.063,0.039,0.024,0.049,-0.088,0.127,0.073,0.088,0.059
2.912,0.073,0.068,-0.005,-0.068,0.039,0.029,0.049,-0.073,0.132,0.078,0.093,0.063
2.914,0.073,0.063,-0.01,-0.068,0.039,0.024,0.054,-0.054,0.142,0.093,0.107,0.068
2.916,0.073,0.063,-0.01,-0.068,0.039,0.024,0.054,-0.029,0.151,0.098,0.122,0.083
2.918,0.068,0.068,0.0,-0.068,0.034,0.034,0.054,0.005,0.161,0.102,0.132,0.093
2.92,0.059,0.054,-0.005,-0.054,0.029,0.024,0.049,0.024,0.156,0.102,0.122,0.083
