time,I,II,III,aVR,aVL,aVF,V1,V2,V3,V4,V5,V6
0.0,0.00010969810344232086,-0.002566935620550308,-0.0026766337239926287,0.001294437620619386,0.0013821961033732427,-0.0026766337239926287,0.0036419770342850525,0.0042782260342505134,-0.002150082827469489,-0.0016015923102578845,-0.00021939620688464173,-0.00043879241376928345
0.002,0.0010953712410036712,-0.01782118207439266,-0.01891655331539633,0.008822671575100518,0.00987448553341117,-0.018697157108511688,0.025330695995024403,0.029577645606753137,-0.014799631634378847,-0.011187643187879945,-0.0015325538613534173,-0.0030651077227068346
0.004,0.005009357712077882,-0.055253237054015275,-0.06028453438678162,0.02649814414714886,0.0320344401713947,-0.05864228242198588,0.07891598301546832,0.09136654537318162,-0.04557354185466803,-0.03519893266741747,-0.004916442564260836,-0.00992064361127553
0.006,0.013652694202538134,-0.10185749251950474,-0.11566344210817822,0.04640732103917858,0.06313621895371235,-0.11020011882012531,0.14677477480728127,0.16776783996976685,-0.08327587004649648,-0.06637659797993291,-0.009689375451834823,-0.02010147055165334
0.008,0.024013634093315576,-0.1274639056293333,-0.15193627454804226,0.054076893034523614,0.0857498508756493,-0.14148577883059396,0.18502755207984223,0.20742193412041393,-0.10157618647138798,-0.08480812391134658,-0.013334996741465984,-0.02935896819793609
0.01,0.026024341405090735,-0.12363661867435022,-0.15043292397645414,0.050292509276843714,0.08636364629340938,-0.13890049741759097,0.17488002871476294,0.19111485415262705,-0.09008642739598724,-0.08026572943470166,-0.013881677439155178,-0.03410894006888675
0.012,0.009202966828727134,-0.11489093031116585,-0.12490335879308714,0.0534850065826361,0.06647714797933123,-0.1215672769787592,0.14319779570750837,0.1541208044246544,-0.06575941283396365,-0.06260792677356401,-0.01092665315502454,-0.033764548784153615
0.014,-0.023926742511482194,-0.12171678392359035,-0.09834732768328609,0.07333196250869745,0.03775056890555406,-0.11137676932994138,0.1247655621037424,0.13769508893139468,-0.04808695993015441,-0.04546289930455562,-0.003922972510117036,-0.02877663094972309
0.016,-0.05211629307278927,-0.13394900185161496,-0.08208384392838752,0.09396293595237892,0.01569643303482031,-0.10918592662517458,0.12631924355192553,0.1449466931411162,-0.03901347715852732,-0.0316720612138937,0.007480544801470257,-0.0194137491238275
0.018,-0.05212848559837644,-0.13065588625038893,-0.07855198938579762,0.09273265391012989,0.01334751315010133,-0.10573841504900967,0.13261748650536925,0.15210543040623445,-0.030701771815603924,-0.01835899806170677,0.020517061181028313,-0.007029463757266277
0.02,-0.024164886105109123,-0.11037697820811143,-0.08601607746667328,0.06869498510135655,0.030342863303158447,-0.09914464101932852,0.13249947917588958,0.14551115980638002,-0.01965771371822004,-0.005205242763458469,0.030003437714844323,0.005678943863155172
0.022,0.008178857642408726,-0.09077977475767314,-0.09845664921069291,0.04259668219001034,0.05227166378074266,-0.09521853763859545,0.12876147975991997,0.13329124578003004,-0.009021608063178884,0.00630999264113704,0.032641152589339605,0.015109002332146574
0.024,0.02421563370711304,-0.08693031254422713,-0.11039128572568582,0.03258942313207274,0.06620522124740687,-0.09917899905141042,0.12713660042988797,0.12628787437517172,-0.0036041976353638283,0.014990679260211286,0.029060002704306934,0.01714109736853157
0.026,0.02394331741934064,-0.09730438602181837,-0.12058824280686284,0.03793242454224579,0.07152042231849422,-0.10978384137426886,0.12691181072971186,0.12352815474895486,-0.004433121212835858,0.019795112148997315,0.02309114500172645,0.010636817810382181
0.028,0.020055947595799074,-0.1087728505152964,-0.12861042502609515,0.045407894915674464,0.07402327489535039,-0.1197219777681157,0.1250476975512839,0.11902651612565489,-0.00645339276484989,0.02162543516521772,0.019624033120842866,0.0007797390762200021
0.03,0.02041546877055785,-0.11339490599823487,-0.13395556883556833,0.046970704027782924,0.07684167132324699,-0.12456747738399439,0.12126364325371584,0.11124950819221856,-0.0037495233714655643,0.02371447735935763,0.020340900918119055,-0.005790074944365679
0.032,0.022044526991317575,-0.11678791628710876,-0.13890192096371742,0.04729463288991107,0.07935903284381406,-0.12887099481056902,0.11534333044227191,0.10184088910668636,0.002712181667839215,0.02742471047965776,0.021799443325417184,-0.00900461584765075
0.034,0.018805366420303112,-0.12505125851112403,-0.14354472787147568,0.05301235719632082,0.07899158635027588,-0.1358369285356464,0.106535832632746,0.09259923841002167,0.007442053494551455,0.031072107238743506,0.02070318349638099,-0.013355954794360832
0.036,0.010668061477834109,-0.1296172643117651,-0.1397638927678033,0.059918867532275356,0.07255092604359491,-0.13621519320026207,0.09874573387066772,0.08691723679556293,0.01036063377973872,0.03528669365689962,0.019543711317099446,-0.018551817792365723
0.038,0.003695575927822503,-0.11745156129925288,-0.12083564193143641,0.058010203717478774,0.060119727958204666,-0.11974121852235067,0.09907580790489964,0.08883564552908353,0.01760467875490772,0.044349354771050856,0.02344590073721609,-0.01852076930181738
0.04,0.00038149591556555954,-0.09412213115224442,-0.09455596898439815,0.04828143971734777,0.046293656538152865,-0.0939775963133162,0.10817116042349956,0.09759617672009367,0.031157385417062408,0.058751385252618304,0.03255938621519361,-0.010659487611224665
0.042,-0.004563576437741878,-0.08101420451487802,-0.07663954654410736,0.04390699117225027,0.03555612068862275,-0.07837311438009369,0.11844396997560919,0.10670603025881528,0.044274298198361865,0.07207265195203758,0.04137844372129675,0.00010356422475266385
0.044,-0.013629045485893021,-0.08756805165149394,-0.07403022196989463,0.05127228663015567,0.02998363639100106,-0.0811009055033125,0.12354273490836097,0.11061345296885963,0.05001644744914881,0.07874463817611241,0.045757011217340285,0.008529958097059602
0.046,-0.019768783794625634,-0.10192365801979325,-0.08221944792878526,0.06149276856676665,0.03091723097079578,-0.09338976409655031,0.1233781962391109,0.10902843641842257,0.04846119103124883,0.07903442165549164,0.04642197157647586,0.013933708764627347
0.048,-0.01729433464854362,-0.11190488327573683,-0.09486840331313204,0.06551564059693553,0.038132345642517926,-0.10530536298386736,0.11956678258269218,0.1034863914161427,0.043005031306284996,0.07449572857806629,0.04437368696442481,0.01554363689804852
0.05,-0.01013390573834192,-0.11861629345879467,-0.10892973969575162,0.06529359509022324,0.04857059696247007,-0.11558493338323003,0.11262373227437233,0.09457028506837312,0.03643652913233819,0.06584476334491383,0.03890182964803052,0.01116302605894689
0.052,-0.0028276003005546536,-0.12445742235169344,-0.12205583029680249,0.06434755895597301,0.058941243512303246,-0.124741033633091,0.10470142520861286,0.08508218970227996,0.03276035994306496,0.05687314842802983,0.03285144173111324,0.0037867739670054265
0.054,0.005297225466597387,-0.12445352552652748,-0.13006966307359494,0.060402983092896594,0.06679322888398306,-0.12875356514413622,0.10006605502707072,0.08074010681620258,0.035858373130464485,0.053628388587552214,0.03249961774337955,0.0014714670940352758
0.056,0.012010476280523744,-0.11667671145980468,-0.12895084880301075,0.05370683875277029,0.06863722690151416,-0.12449169906002966,0.10086542782672057,0.08331587631302306,0.04427192026575944,0.05791334408025807,0.038798974412524403,0.007305369242692557
0.058,0.010814958595504574,-0.10908321811142328,-0.12007486045911879,0.051071721925650515,0.06290498165303973,-0.11639073168533517,0.10403272970003813,0.08668713076347118,0.05120677314169055,0.06491165915639363,0.04480278696417531,0.015157617989908114
0.06,-0.0009873033665930351,-0.11178061381067761,-0.11081347069121482,0.0586210744991937,0.05293991415364204,-0.113426680380563,0.10450906395650245,0.0843638574268801,0.05115854564143427,0.06837760029431794,0.044181308412070484,0.01741848691769919
0.062,-0.019990921275440336,-0.12725394147343835,-0.10718203528264528,0.07581286653395684,0.042823879522107734,-0.11991606831701686,0.10208033826297531,0.07851709089298098,0.04601568038641667,0.06733133625563612,0.03848142876588242,0.01387904267629384
0.064,-0.03503027778827023,-0.1448246840450657,-0.10973752215281787,0.09168611167551438,0.03698247022820372,-0.13031559966198683,0.10173208703695073,0.07675379590298413,0.04266449185345262,0.06586203396042238,0.03420822403666182,0.01087805789526105
0.066,-0.030208737762182716,-0.14603736346086188,-0.11582062178923816,0.08944022900440361,0.041791447373094585,-0.13351139225542197,0.10624980248057038,0.08177054542818656,0.0443342739257161,0.0666130201563665,0.034931381462520485,0.012750700138791898
0.068,-0.004328015356147363,-0.12502923526208023,-0.12060749183110372,0.06600218037716823,0.056505616443052416,-0.1241223674143694,0.11225675790088775,0.0885524225238017,0.04777838970744986,0.0677221382445274,0.03828839888909589,0.016975281292206695
0.07,0.020544749756737517,-0.09947146025702683,-0.11972144751443077,0.040911256602726556,0.06871804526432368,-0.1095371548395259,0.11413618725584168,0.09062083355350647,0.04860285532521729,0.06690341698248496,0.03997724442296747,0.018354273511695385
0.072,0.02215998497350932,-0.09115534998128137,-0.11303073548285289,0.035719416490696994,0.06692845978804002,-0.10160907853372701,0.11005204472785803,0.08680640102444027,0.046143322943069685,0.06558993119443866,0.038842902966313445,0.015848279124952513
0.074,0.0016048660652553384,-0.10207889335951555,-0.10387382342595584,0.05126020654360313,0.05245484900772929,-0.10314822878623386,0.10368665269246179,0.08175992709578708,0.04314668467074176,0.06616746178665994,0.036700521535919815,0.012987559443757398
0.076,-0.02124504918350665,-0.11872475224055576,-0.09825743330893677,0.0712067175659757,0.037873565920927416,-0.1093659410111465,0.10018489246004592,0.07983605569398869,0.04199522897008191,0.06703601058222865,0.03433624804959537,0.011925648926105847
0.078,-0.027807347805196114,-0.12980364065629196,-0.10282836505897348,0.08010681076283072,0.03637629913277211,-0.11705336026551343,0.10231123311598403,0.08078885371251252,0.04277583039503546,0.0654993414222983,0.031530273563914996,0.011165238480506604
0.08,-0.013499487622104131,-0.12925665545053777,-0.116053024796404,0.07221794097673506,0.050010528167773544,-0.12275863937800051,0.11033004631889813,0.08297640159739185,0.045217322984308125,0.06382840434042729,0.0307144135164616,0.01039764234201378
0.082,0.011236416584906385,-0.11427594587194814,-0.12529165180127064,0.05182507243622667,0.06691333651429243,-0.1197447217353436,0.12196324925613261,0.08705023410406625,0.04988264684065801,0.06680913694670954,0.03546538781895049,0.012674700167679185
0.084,0.028272023657035013,-0.09204781931377166,-0.1200514129419985,0.03203450914685901,0.07248620148780265,-0.10671390426337755,0.13265747791134305,0.09318882123984652,0.05613967733892267,0.07428771836361402,0.04415458163485714,0.01877078316196216
0.086,0.027166105708203655,-0.07768736707740069,-0.10483449073981982,0.025400086692789977,0.06413168255621976,-0.09285394776832197,0.13830812858582742,0.09763308580138787,0.06068937144366917,0.0797368113511457,0.04904689338784375,0.022994088476251576
0.088,0.015272546293728224,-0.0778489639787059,-0.09325542763733753,0.03136597222446072,0.05250879768536347,-0.08765229908396727,0.13774659074885254,0.09649799557157583,0.06007026947987328,0.07661993739100302,0.044228558237692,0.018774630505696645
0.09,0.006539492680354588,-0.08495457795041951,-0.09156866617360249,0.03944379610342405,0.047426257628555735,-0.09053360586240672,0.1335004041726641,0.09187605779668778,0.05484966177464244,0.06604247785161005,0.03325813145728958,0.007749062165735976
0.092,0.0031306755353313126,-0.08932040802849939,-0.09241418899640971,0.04385240396613693,0.046175049549200126,-0.09329129643385344,0.13120816396825605,0.09049520314873738,0.05052384937363724,0.05744006774519994,0.026802413524977642,-4.727552434564291e-07
0.094,-0.0033754879852322096,-0.08811080344153188,-0.08469908361336012,0.04687902432035637,0.039042970601137206,-0.08885708649232221,0.13598009793471869,0.09628257351687265,0.05310642102311352,0.05940388390601352,0.031340458169822484,0.003702680945252313
0.096,-0.01533217854579884,-0.08314861253896452,-0.06794008160123113,0.050144874579637955,0.02465780699930332,-0.0775237081416006,0.1472138278298559,0.10588881096233654,0.06246445707027573,0.06989889484991765,0.041632282607174595,0.01642069988556467
0.098,-0.0236709251479782,-0.07825164914850277,-0.054936199267225816,0.05150725272738689,0.014089037162554791,-0.06752202905151136,0.1585908432728742,0.11231831188962874,0.07103404284268329,0.07855791775162081,0.04756051311826967,0.02879531511002269
0.1,-0.021050338781219584,-0.07771544119643703,-0.05710528637330982,0.05032975561813498,0.016546433268314658,-0.06726532772679683,0.16450969641168034,0.11249150906968124,0.07156502367083994,0.0783335452967824,0.04605553639607386,0.034610354348265024
0.102,-0.012505107757490674,-0.0823067343314624,-0.07005025386301675,0.04947596390323769,0.026916388999087562,-0.07564023454947484,0.1651303969151347,0.10967272889784643,0.06535504210939758,0.07199342405334674,0.04186948055568114,0.03467836063088141
0.104,-0.00697966035687907,-0.08731523221419828,-0.08029700432752596,0.05008851390521656,0.03415106464711697,-0.08357219676875949,0.16504333408403954,0.10864683782863949,0.06058003207170277,0.06750758295058593,0.04018852478207855,0.03367607681858429
0.106,-0.004322556085415365,-0.08597604597125155,-0.08152724709640721,0.04810179271097089,0.035775821862624894,-0.08391939851201458,0.16835383705359622,0.11060934320193161,0.06303577442759155,0.06898903462555975,0.0421424725301578,0.03539176142281747
0.108,-0.0007684882059564157,-0.07565555782672269,-0.07496106662516046,0.04064704855210789,0.03449402797592122,-0.07562972126512518,0.17522803368279002,0.11393229924878763,0.0712541896595076,0.07391628074817078,0.045286849091658615,0.0397495988462928
0.11,-0.00017557893913999973,-0.06064015750952882,-0.06084224618455457,0.03228577532848061,0.02816304370958805,-0.06124629677222444,0.1831293764824859,0.11828579155584404,0.0809896787082106,0.07958858396647434,0.0482557362646611,0.04502715515930276
0.112,-0.005944529285961576,-0.04752347899128988,-0.0420567224128443,0.028136106745891537,0.016180622506651275,-0.045717721119124755,0.1887192258347263,0.12349274105104364,0.08923202736227506,0.0866443809747974,0.05320400660208938,0.051036663274328264
0.114,-0.010517735977848363,-0.04017440727390086,-0.029911528008571435,0.026378210243682993,0.00797054353563294,-0.03622617347426938,0.1862084153127368,0.1237922937738134,0.09159857233417484,0.09261328151129442,0.05945806527501217,0.05593286083322718
0.116,-0.006141183432620305,-0.03939226124933421,-0.03319512218795373,0.02352069762616559,0.011941424425685779,-0.037276939243788165,0.16997592464975553,0.11061018721290067,0.08320635917006572,0.0901025479566587,0.05997552219106497,0.054723591932415036
0.118,0.00245427191148036,-0.042834121597128544,-0.04512850807893113,0.020650075071880134,0.022432321892287256,-0.04470707293506424,0.1429763080347668,0.08441487235832666,0.065941914438524,0.07707780465879022,0.05039551231755563,0.04602857218224277
0.12,0.00455529382032604,-0.04695061183202653,-0.05147440685265,0.02141122657370193,0.027100611333406303,-0.04988925312376756,0.11630799260650657,0.05742473359129598,0.048983949568349054,0.06180274887813876,0.03590158119146455,0.03470024761211697
0.122,-0.0033406238696793602,-0.05100565248987374,-0.04785482620386184,0.027489817846830068,0.021908909511450383,-0.050033019089053526,0.09887682951244936,0.04175151892484848,0.04038773512660905,0.05358173156307514,0.02502535867537738,0.02555515694926867
0.124,-0.013696746576172796,-0.053664617308055704,-0.040352272413316036,0.03460336222668463,0.01322152246390196,-0.047555581961729494,0.09278623994984551,0.03966242341168264,0.042063317013972916,0.05457411611362799,0.021992815202130495,0.02023801913575
0.126,-0.013892568096685947,-0.04826906772769855,-0.034794795720235194,0.032653847255324046,0.010202241362889542,-0.042323103041938544,0.09605602629958931,0.04522495197810453,0.051110238201589615,0.061489310977677465,0.025945114158040086,0.019713141432708813
0.128,0.0008423061346041862,-0.03216484114797246,-0.033251623577574975,0.0172172507802281,0.016703425710275742,-0.033877714298791696,0.10326308676029221,0.0503774259158627,0.06158880062149056,0.06935365656337282,0.03272660557637767,0.024086419102991564
0.13,0.016752065416081,-0.016996542853672757,-0.03384083998607392,0.0010505200766967792,0.02485858695060247,-0.026797210433759686,0.10679339730032744,0.05055868091945867,0.06780615160967231,0.07401653659762139,0.038198175771950095,0.031054250102379343
0.132,0.01292234524688882,-0.016430575466080843,-0.029524190118327222,0.0023204179550333965,0.020160532780342716,-0.024435697881779857,0.10311052359067283,0.04748556616014098,0.06944108985720465,0.07493495219779259,0.04232500022521063,0.03864127281387758
0.134,-0.011628897747320397,-0.025842142753963484,-0.01445416471594494,0.01981348246879434,-0.0006307276359162852,-0.02168769005216561,0.09532456935215171,0.04497165444679817,0.07036257659278569,0.07500592262057415,0.04779472412657004,0.047359992882375156
0.136,-0.03440685973462311,-0.02725760177858539,0.0071751934973918255,0.03279683521866945,-0.023274470870862877,-0.011745185409399674,0.08799962600036575,0.043182430660645595,0.07211451544434186,0.07727090992418448,0.05476038062232491,0.05723434382282718
0.138,-0.03611136848724818,-0.01405942775977053,0.02245089986705383,0.02713569120626587,-0.03147522413175875,0.002177570575786099,0.08292255640091616,0.039975749871022766,0.0730019056899049,0.08232046576761068,0.060102151745167864,0.06561546956600608
0.14,-0.018872625603186123,0.00032750142908163145,0.019602591537748095,0.010302980276629056,-0.021193033883508725,0.007640949849205052,0.07900599467969838,0.0350788045827077,0.07177820585557347,0.0874813681810787,0.06073696529125615,0.06951578268153195
0.142,0.0026320417802993593,0.0002472547936381297,-0.0022980025700463334,-0.0012818003629333256,0.00028521651145932024,-0.003224831470760395,0.07347788263324852,0.030077957719537137,0.06810716926533582,0.08863627504656946,0.05576700057775853,0.06823787439907672
0.144,0.019380613581466682,-0.0125314075895313,-0.031960208197562075,-0.0027871262263266788,0.023296462272276997,-0.02361296516804424,0.06534453886238135,0.026547383169524985,0.06222014207867421,0.08425427420135724,0.047412396091215094,0.063532229952245
0.146,0.03357917115099869,-0.02162720495022594,-0.05500753763753414,-0.004113553198503372,0.04227595677049308,-0.038478576779958126,0.05806275343089668,0.025505452583216348,0.056788150855058714,0.07719845818227591,0.040590995205033856,0.058413224864796644
0.148,0.04717546349117348,-0.017630178674030137,-0.06435011458822232,-0.012436985620847756,0.05440617955915819,-0.040333003960640906,0.05562477457037353,0.027590175551852364,0.05655483615648358,0.07235870504890018,0.039636450658285964,0.05578071067309775
0.15,0.05442016684102161,-0.009600023761968994,-0.06365708026391813,-0.020585082559818925,0.05789462189943201,-0.03602425231458877,0.056886330351330644,0.0330866281243268,0.06425425998420632,0.07313679950361127,0.04528151973856984,0.05754912205625072
0.152,0.05227166253819974,-0.009890712147187591,-0.06203341370914674,-0.01999617736882394,0.055500960400416265,-0.03620494254353192,0.056776929743634026,0.0409034261513654,0.07727388463239727,0.0793525823121649,0.05505670179848559,0.06400623460969114
0.154,0.047291830091589555,-0.016024619697630024,-0.06314831055340381,-0.01487336739745382,0.052910247464123795,-0.04096963075491426,0.05236435071316301,0.047973736220124026,0.08941425039203289,0.08775305568196415,0.06519068641043443,0.07286239984250632
0.156,0.046144339391765175,-0.017781684368721143,-0.06346495469236213,-0.013755905223245433,0.052331304331900176,-0.04268803150978478,0.04539883068866618,0.05173107291464334,0.0963318610028091,0.09457560597060985,0.07203521800338968,0.08005800159097319
0.158,0.04816160236853287,-0.015355059642861085,-0.06288241597397512,-0.015836249835374083,0.05345888849258869,-0.04107868903754492,0.03922210670433063,0.05284526832539274,0.09791012043359457,0.09702321300720369,0.07316768086203788,0.08285427638313089
0.16,0.048785606587087665,-0.01790990618172144,-0.06622353431963054,-0.014190466809854464,0.05608364234416564,-0.04376027842759336,0.0358275755045137,0.05427098243941469,0.09616812793014581,0.0939280623809835,0.06851374504386507,0.08079929227570105
0.162,0.045635173149133026,-0.027617403289139017,-0.07313458752740183,-0.007492747296062686,0.05846478077389791,-0.05225265110433808,0.03684465993102377,0.058525714539093665,0.09317777397004882,0.08774379520859416,0.06072352081185608,0.0738607967595375
0.164,0.04257668074056725,-0.037250671926994,-0.07993116712537669,-0.0019402599067167283,0.06048085798794903,-0.06076013859669011,0.04385676034115102,0.06591963421986513,0.08971130478566273,0.08373965888400521,0.052982738701601986,0.062384908192001765
0.166,0.04526778960414516,-0.043129001544572054,-0.08840918709228417,-0.0014758699026337788,0.06574772147683919,-0.06792079433801858,0.05510554130190161,0.07466474969357514,0.08536575350141948,0.08431605738946435,0.04626846474764278,0.04891245783466775
0.168,0.04943662543124616,-0.05032870509016723,-0.09956648412302911,-0.00031452101503648357,0.072708317362422,-0.07700599234805047,0.06510736730930262,0.08319541739511555,0.08143160733265188,0.08632693575592867,0.040345392789821556,0.03772305673892485
0.17,0.04231055883511242,-0.06358431843213974,-0.10573478647282017,0.010572620728745576,0.07158078758196217,-0.08662305935062853,0.0698566178217964,0.09072781962361902,0.08032181879029575,0.08531678650760555,0.03568955634288935,0.031305656310036276
0.172,0.020484752952778112,-0.08013628397841104,-0.10075855983719813,0.030995848133465245,0.05804741407289572,-0.09186645280110922,0.0704581708423479,0.09486017832499877,0.08052563450827946,0.0799994735559538,0.03232835588705131,0.028251565523955746
0.174,-0.0032911342468147165,-0.09421983658971453,-0.09123083565367904,0.050827435433298124,0.04190378322590206,-0.0931100249511394,0.07085186607564774,0.09268711383277085,0.07755002148635991,0.0725722311841861,0.02926664773876311,0.02623350574609709
0.176,-0.016767044200107405,-0.10435087487442486,-0.0877299353044009,0.06243762567755965,0.03434059505779894,-0.09565737534674343,0.07314919694696838,0.08526915299382246,0.07086886430704795,0.06675337410807791,0.026661692862669662,0.025502895415644603
0.178,-0.023567496086331966,-0.11297026673626316,-0.08932118838206611,0.06904649869634863,0.0324071421809932,-0.1009552818366946,0.07693080388281384,0.07777229938826101,0.06514738978665383,0.06523650424421563,0.02677732225249489,0.027713388765797816
0.18,-0.033199281845104206,-0.12160045574400537,-0.08825620574137155,0.07744504619707737,0.026759502178314028,-0.10567518165451056,0.08173963654124437,0.07409167107332978,0.06353707470809576,0.06681158076625014,0.030562885712941235,0.032174743363176744
0.182,-0.041750520733530395,-0.1289401331749927,-0.08704093356441805,0.08598592301607487,0.020920114237680847,-0.1095598593696952,0.08594944529092219,0.07288433404715096,0.06297035194140024,0.06605468151941693,0.0337176780708918,0.03441335905285052
0.184,-0.03558970356855861,-0.1310297069682028,-0.09514898935156356,0.08516367006883396,0.02759896383805648,-0.11495669787933575,0.08618570812974517,0.0708791057732913,0.058968468679974455,0.059254517171075424,0.030653039705674172,0.030883301839433285
0.186,-0.012680803008250635,-0.12347279902695496,-0.11027565429796958,0.07023014006410948,0.0470508065001211,-0.11887348966421771,0.08312401791062017,0.06863897323200596,0.0531902268848017,0.050689988164471844,0.02312931357815853,0.025378313176237483
0.188,0.011345620537578418,-0.10830838142533063,-0.11903536059362295,0.049871608247102545,0.064052471305712,-0.11585826334526186,0.0826571574976828,0.06966882895586991,0.05183810911409478,0.04852050497661872,0.019170757383978863,0.025869977190637515
0.19,0.020539337843691642,-0.09574635544312389,-0.1157523347392079,0.03857499854187463,0.06713361422899229,-0.10781750180579079,0.08726959893469181,0.0745965039703331,0.057505768000093785,0.053975121187143864,0.022333783249673753,0.03401436557449276
0.192,0.014577004621311115,-0.09322432855152095,-0.10749005239408373,0.0408325990882306,0.05955172388124883,-0.1018355864277741,0.09231393398837331,0.07921883769018383,0.0663427696616229,0.05964683415427992,0.027652384678757327,0.042571684218755665
0.194,0.004470125180213605,-0.0975387586482257,-0.10201474680306191,0.048391911017883885,0.05103906107847726,-0.10078435878990388,0.09251626501714551,0.07885290698140218,0.07215049733793227,0.0594340689849472,0.028646267415834346,0.043417318735945586
0.196,-0.0018118093315423666,-0.10347232330253639,-0.10193601774587469,0.05374161743846658,0.047689616148777834,-0.1038120852839445,0.08611426448659491,0.0717181244893682,0.06987463915307358,0.05364950018978799,0.022513069918505938,0.03379117096290641
0.198,-0.007335107888246986,-0.11493412088497793,-0.10786263976712178,0.06111906118460492,0.04880922187960863,-0.11262063750024026,0.07377807413625596,0.057606004268784004,0.05772461353165008,0.04379383360554893,0.009262395334511361,0.016125985343684493
0.2,-0.02208439296919669,-0.13857817317254828,-0.11642834153904517,0.08009127292830903,0.047077009531570096,-0.12830470450146578,0.060625592507019405,0.040066938615941516,0.041396302534960336,0.031824765722038156,-0.006878181130732736,-0.002091796973075993
0.202,-0.0497219832280042,-0.16765792474834085,-0.11749761901633912,0.10919757128247808,0.034412674354233994,-0.14289379971775606,0.05658239265104758,0.03000313212734475,0.03286238286733145,0.024827210370388247,-0.01613735029619502,-0.009868635047526324
0.204,-0.07919047445264858,-0.18366247846334774,-0.10395573888894669,0.1326234920740236,0.012570484109913089,-0.14415018853483236,0.06694944638152843,0.03638742777457906,0.038195079335402636,0.02973413092972933,-0.010875167879094153,-0.001454661251675717
0.206,-0.09138139744066848,-0.17693439896851662,-0.08530998916621087,0.13542257802933924,-0.003373158243532217,-0.13188524825276488,0.08381364302590882,0.05269757315168664,0.049190089309773984,0.04230928137808556,0.004528121617530502,0.016049276049230034
0.208,-0.07556878213178272,-0.15700466919216688,-0.08151816067262309,0.1176757715155983,0.002327108580036993,-0.12048480239457887,0.09237714857792398,0.06218679924653988,0.052663146695165745,0.04984139564467502,0.0163781928087,0.028180245128225458
0.21,-0.0412375294174935,-0.13871188731300008,-0.09761866809544759,0.09210572798978144,0.027082518344650454,-0.11951214365638362,0.08727241844237067,0.057834264294815745,0.04677675073948263,0.04689736977736627,0.016790092973665405,0.02798438135483587
0.212,-0.009109200244470409,-0.1239782851250264,-0.11478002070004999,0.06939623861998198,0.051022238283760166,-0.12033477401961702,0.07856245705922547,0.04954166443801925,0.04236025004512232,0.04166349172853137,0.01236568640320954,0.02312162825158381
0.214,0.009629933224145163,-0.10503608068411974,-0.11427131030311224,0.05044957315238003,0.05982588478623865,-0.11028963945450267,0.07781857465490537,0.048982520651128826,0.04677282975609925,0.04346396247920709,0.013580020080146261,0.024647765264161244
0.216,0.015744092624861133,-0.08295762634594964,-0.098224018601161,0.03549072527410919,0.055254206814977634,-0.09178772269288156,0.08360143729926586,0.0547224320028048,0.053872461446913975,0.050586182270112814,0.020535873028393853,0.03253414320154873
0.218,0.009990477799793309,-0.07148838843743568,-0.08123333382842628,0.031623190154104606,0.04424013603126642,-0.07867895449462114,0.08655474632884358,0.05754157278289137,0.054351169997563335,0.05520580543624607,0.025441004189533108,0.038612050483347815
0.22,-0.00624395517416453,-0.08097965524577497,-0.07477412956610552,0.04400989521276301,0.0324962778606033,-0.0805870540276978,0.08335943001973833,0.05417963892161647,0.04883168569535027,0.05485577569418937,0.024356142124893728,0.039035894217043225
0.222,-0.02371873488263706,-0.10544154803363565,-0.08174840309292117,0.06548620822261655,0.02663050788139732,-0.09546349426029417,0.07878587444051775,0.04888195209130616,0.044142450221017884,0.05272407906230956,0.019608820777317557,0.03594023031530853
0.224,-0.03108773995962797,-0.1272161018781203,-0.09585054979197982,0.08112169265824606,0.03019728495315773,-0.11227274361826707,0.07689371478019531,0.04474809512617002,0.041600152678292306,0.049783946758057994,0.013481248326488945,0.03056534234168881
0.226,-0.026675226724081534,-0.1340398404195919,-0.1068833226694807,0.08274442661902569,0.03891180391817347,-0.12072186523849858,0.07666920167207567,0.040666372738950525,0.03694871398107505,0.04389673916295397,0.006156529663882103,0.022814866633297983
0.228,-0.019460717276444557,-0.13065526172818978,-0.11086207500036176,0.07673968703055516,0.04524375265772425,-0.12100507874397867,0.07581512569805704,0.035738042245756114,0.02958976110190831,0.035706957807549476,-0.0010518461220324568,0.014959544764285683
0.23,-0.01905293589071728,-0.12998576575140844,-0.11083256017665644,0.07544912578145017,0.04511338144110706,-0.12055085260505832,0.07372692111051865,0.030849068929215434,0.024370905015644956,0.029418091062216854,-0.005813094203779423,0.009090438367217669
0.232,-0.026223931179198096,-0.13464931755514747,-0.10827618802278346,0.0816790233537594,0.03909015060563506,-0.12139083864975356,0.07081801540996405,0.02669230733134806,0.024498731876495667,0.028018710635249917,-0.007551728046603257,0.004488647467319362
0.234,-0.03333781897205373,-0.13588150979227334,-0.10219685454055194,0.08664036338797954,0.031399454922505815,-0.11905851290523248,0.06812328791995334,0.02368873154291024,0.0272645608186613,0.03055052141864917,-0.007326075604366138,0.0011324293227617352
0.236,-0.03536272208494916,-0.1310810497912966,-0.09540497748275603,0.08507865601381713,0.026639821605965845,-0.11396571631379929,0.06681867608086361,0.022183603585704155,0.027407957291416252,0.0331514104880824,-0.006640996001962663,0.00016708766720659575
0.238,-0.0374429122792605,-0.12953415713097746,-0.09204807745327982,0.0840651500271036,0.024236462640001427,-0.11258448971113479,0.06692701151424087,0.021717741583408206,0.023296192376464003,0.0324371341354519,-0.006738461165232193,0.0009193508324555396
0.24,-0.044096634380459666,-0.1347411994476776,-0.0907886406475831,0.08889064186681343,0.020777703606280996,-0.11531518495540938,0.06822116011114789,0.022300141526781978,0.01922313901764748,0.029605184389472967,-0.006616644603670254,0.003504590801643222
0.242,-0.04615422497579134,-0.13480987362924296,-0.08875545874262623,0.08990561889169656,0.01909717195541374,-0.1143391278960906,0.07200571210813556,0.025556283895382993,0.02071864769202926,0.030302317143671265,-0.003658625426176449,0.010335646080753403
0.244,-0.03391387061568552,-0.12240675668005005,-0.08846517216872846,0.07814604873952206,0.025369646010024127,-0.10732368598616122,0.07890917666905302,0.0317929465433862,0.027130351529933063,0.03737906685112994,0.0010006496668782535,0.01929689726798122
0.246,-0.017933406029768534,-0.11060296608509386,-0.09260198664088963,0.06456819930350126,0.03592527306158623,-0.10242516973321918,0.08600935571971628,0.03798879240198799,0.03219298611476293,0.04575916607036101,0.0021183130246120742,0.022378552436415268
0.248,-0.015634467385104506,-0.11149065745178154,-0.09583865750587198,0.06371457704054662,0.03937719787649548,-0.10351490716348558,0.08990561135879134,0.04203839992439289,0.03376448531156849,0.04945587798095188,-0.0011769292142683203,0.016832485813305733
0.25,-0.023500412778833798,-0.11332736580157406,-0.08985530415147627,0.06833509189003865,0.032766484064163555,-0.10132490166372396,0.0908464255438193,0.04544957137852968,0.03659689200462113,0.04997550078695863,-0.0029425804406674897,0.010221144449011328
0.252,-0.02538656764014117,-0.09935402589760509,-0.07399056497619644,0.06231047061144201,0.02329131217472457,-0.08743835465607001,0.09107252142723013,0.04921498190146282,0.043263995807717955,0.05173775626618554,0.00022910929066715762,0.009927738993415888
0.254,-0.02033516837472137,-0.07412327507809126,-0.05378369035336161,0.04743677800281508,0.014480851440969566,-0.06604639684485347,0.09292807580459445,0.053291706603005556,0.05157944365372561,0.05529968033750156,0.005374302653237352,0.015228470337003745
0.256,-0.020606760157921303,-0.05165488238501222,-0.03103340974069496,0.036799392378096166,0.0020281595026701597,-0.04380094484676245,0.10003146215791339,0.06179734455564585,0.06268157211689242,0.06081680466245002,0.010320976757734171,0.02234438396326834
0.258,-0.030317172500975428,-0.03346564908466826,-0.0031219195720897067,0.033322682580235685,-0.01681302049652665,-0.019921714260074247,0.11468426915493243,0.08027362982266661,0.08151376777911883,0.07121554851117404,0.016176300528793885,0.029908685229170295
0.26,-0.043888432487829435,-0.016283803673484556,0.027730122050650008,0.03248896553907666,-0.038181391405483975,0.005034301638894909,0.13266992165696823,0.10598033154851677,0.10764558026596935,0.08747689548190378,0.02236383552159176,0.03726499247679946
0.262,-0.05696046143342989,-0.007107025719823148,0.05017555410994696,0.03505206568297183,-0.05469904360830127,0.0207284185419582,0.1447838828696594,0.12821502403480164,0.13369844866654923,0.10572510731509616,0.026327273741495523,0.04246288879156154
0.264,-0.06434772265078452,-0.013054946721474352,0.05171602674055127,0.041461821920601064,-0.05837499231296817,0.017434769717201603,0.14442632167634964,0.13968680176245582,0.15539179240818227,0.12291992640293813,0.029465526724848208,0.045003180950078214
0.266,-0.057271288714038575,-0.025549911450347774,0.03198011895872835,0.04329531457732524,-0.04538968412396888,0.0005271816086955034,0.13113884919532262,0.14167683933468397,0.1792247893246481,0.14489777809663928,0.04010290016941486,0.04987892547821989
0.268,-0.03403084443887059,-0.02794703303535362,0.00605931459725738,0.03233438497645827,-0.02213219491776715,-0.01307428744301258,0.10645326981114597,0.13678333002412846,0.21754222077436394,0.18537857360783472,0.06868767873824282,0.06618798474725053
0.27,-0.0038020812445095104,-0.012796687037355235,-0.009163526858405628,0.009995741865243407,-0.0003217581345695161,-0.01156202403013421,0.06914954861781071,0.12220339964442954,0.27599823043946664,0.25359249981643534,0.11932333744947235,0.09914576454403654
0.272,0.0278423524664614,0.01679170808816898,-0.01124638392293104,-0.02003057117962222,0.016988461438434355,0.0033274705972486138,0.01672341791334024,0.09367640775422377,0.3468553014129506,0.34371971088279724,0.18564092400327536,0.1444707560800496
0.274,0.07003239972916146,0.05769574502575557,-0.012639813909325575,-0.06171508155887351,0.04024847626771375,0.022876277545007023,-0.0485303406034603,0.055756671806338115,0.4161991409416494,0.4395115949378689,0.2559324996152382,0.19338431213462845
0.276,0.13348990434300712,0.1077224548803112,-0.026264259627577176,-0.1193107440896127,0.08013846248989984,0.040074929560623994,-0.11770999782066034,0.023907072656932538,0.47705089582482013,0.5290245655553718,0.3227931553584183,0.24158846194385136
0.278,0.20765092036166505,0.15474254421123748,-0.05348888192775566,-0.18075464044698833,0.13122037177303644,0.049470282778144845,-0.18502807112078712,0.0046612259471394794,0.531442819533751,0.6113510130136399,0.386651670956344,0.2901031066174706
0.28,0.2673276695504492,0.17940962798545887,-0.08834481717190557,-0.22332514621045926,0.17783331978475578,0.04469035080965108,-0.2599566322798477,-0.029593672338642976,0.5790046151344028,0.6881687842520892,0.4501658981681269,0.3392871953739168
0.282,0.3054862609197861,0.1772510196778084,-0.1283605771978116,-0.24120566802711874,0.21571229404820008,0.02386424495692193,-0.36200975780037786,-0.1268414690148017,0.6101880230965963,0.7549726746417221,0.5109660369316135,0.38564013083571475
0.284,0.3406538437937109,0.16666926396903933,-0.1738868705123234,-0.25300966179148754,0.255214817813814,-0.004433484416725709,-0.4991286338928888,-0.30183162173081757,0.6183589850598679,0.8079535943452988,0.5631646752161571,0.4252584847876277
0.286,0.39211008202092157,0.16922324067419037,-0.22277445968891585,-0.2794987241681722,0.30570311927661176,-0.0278956989084673,-0.6561533539931614,-0.5090601336760482,0.6171964994131253,0.8579918488248474,0.6089253316247174,0.4607536082160915
0.288,0.4655772330478882,0.19288608512121314,-0.27268309047843703,-0.3277311327094469,0.36840955240178,-0.04106693210766331,-0.8088920701473471,-0.6858546821571542,0.6358491011699428,0.9290985039779578,0.6649772985705665,0.5039641505099263
0.29,0.558031628459398,0.2369761170571992,-0.32108819890925644,-0.39577669485190087,0.4390722140025181,-0.04315890405909582,-0.9475217976898653,-0.8183701504254122,0.6904482738342619,1.037860220929547,0.7514389080114171,0.5691278893587269
0.292,0.6608342573544004,0.2998388566394176,-0.3608726716320999,-0.47857454234380603,0.5093122067087089,-0.03163607093051086,-1.0819478078265534,-0.9496007808403282,0.764237401112205,1.1745075673533634,0.8717693411723276,0.6602796470284813
0.294,0.7612123820541997,0.3761336305539199,-0.38462711521943943,-0.5673498454603065,0.570297865887462,-0.005708646560468223,-1.2221908912607522,-1.1197164927901109,0.8207966862198699,1.3035587851517572,1.0037430172537178,0.7639148869573839
0.296,0.8474171147910473,0.454084350202832,-0.3926904402041908,-0.6501117474953948,0.6175928555126516,0.028534708968877186,-1.3561662454199945,-1.3131186863133546,0.8349735496461687,1.3842971619063562,1.1126935202750055,0.8562398277424668
0.298,0.9099140677238099,0.5158233640097599,-0.3937367912634525,-0.712495448838579,0.650417279706116,0.058258317335196805,-1.4517815915901824,-1.4700330443646952,0.8072093031779901,1.3940498706709328,1.1734169666315148,0.9174173056050767
0.3,0.9400502875936462,0.538538891635515,-0.4017154813161415,-0.7387096703876721,0.6700136613139628,0.06556530917936242,-1.4805672583567633,-1.5352444738829896,0.7518111405678637,1.3309355645491783,1.174444329434683,0.9347508622951896
0.302,0.934709970890496,0.5053910308012807,-0.42975310345414824,-0.7193011833424857,0.6806984743401615,0.03556006095545345,-1.4339976446253728,-1.488159139898575,0.6790676689386075,1.196504161028484,1.1065735383991702,0.8970909229376105
0.304,0.897715505777499,0.42040670375438216,-0.47748936521378255,-0.6583216492844848,0.6849928768413298,-0.030010017320747265,-1.3202571743605174,-1.345385743971423,0.5865770077999513,0.9877265932008833,0.962108377035701,0.7982312903843106
0.306,0.8277256901358653,0.3049135849749241,-0.5226562264615803,-0.5655147555782346,0.6723918193321399,-0.1100959140903039,-1.1558236245904836,-1.1515394269941506,0.4629139375545206,0.7154412514903478,0.7508504195680881,0.6482398384501982
0.308,0.7115148226213125,0.17705477051163712,-0.534140050480283,-0.4433359392938869,0.621166713941371,-0.18015723574578754,-0.9600780327775136,-0.9545121395642073,0.3052134862909273,0.4233825822508884,0.50987624756696,0.47477008176186725
0.31,0.5453359133499818,0.04452363633231359,-0.5003434766163625,-0.29397732113047276,0.5228184177900502,-0.229643924427278,-0.7511801723623893,-0.7743342770302923,0.13575289861706424,0.17203582804707668,0.28886320011807626,0.3097602788195906
0.312,0.36304602714488776,-0.07460779510183199,-0.43698933568720594,-0.14342995198861355,0.4008492444971894,-0.2569830962588023,-0.5458396399117985,-0.6028818931358825,-0.007207066971954161,0.0004354047615914556,0.12399365981956927,0.17646450894267027
0.314,0.22128713388736374,-0.1415142696773783,-0.3621698419560792,-0.03921342224359102,0.2920441608079467,-0.2527681704811444,-0.36135324198971003,-0.43642286886757037,-0.09874983396733338,-0.09091502175774915,0.023938608762752604,0.08461239569152296
0.316,0.14545075114017916,-0.13478274945378058,-0.27997937182735194,-0.0047070881546592835,0.21160423146488577,-0.20905938822248948,-0.2131262181121969,-0.2926618549996822,-0.14307314708307106,-0.1276828999681129,-0.027836587081133308,0.02773736566803061
0.318,0.10790532586379437,-0.08776378416146137,-0.1958035973377449,-0.009624515148339945,0.14938622815929517,-0.14446404339222083,-0.10847081197506069,-0.19022172742322657,-0.1597490606982345,-0.14000712675728513,-0.05816337084289886,-0.01216024766927245
0.32,0.06913690745286144,-0.05717523626912964,-0.12651671916402207,-0.00577116725788003,0.09488233263111574,-0.09474369463625842,-0.04369789013426072,-0.1263868471600047,-0.16139966045019266,-0.1451344380454065,-0.08334761755074375,-0.04689342079720883
0.322,0.022222041581189532,-0.06042065073563453,-0.08269977295009462,0.019420570039146177,0.050082346728135455,-0.07394362290365288,-0.007595638078554374,-0.0839550132475684,-0.1495088601308407,-0.14447519208186213,-0.10138967836405925,-0.07152139807498176
0.324,-0.013185109259250833,-0.06787928761930954,-0.05473399017749095,0.04152275501497227,0.01937470577238369,-0.0630089453146649,0.012038452661718525,-0.051041610400363924,-0.12611662907944482,-0.13612574193015153,-0.1054375038254234,-0.0778600437156547
0.326,-0.024969512047174795,-0.05135947094334665,-0.026654221310096177,0.040094726970388225,-0.0001383646366483202,-0.040004381996535304,0.02377101117026246,-0.02676307231522265,-0.10010875796037949,-0.12473920506779784,-0.0987977072468755,-0.07115069767717176
0.328,-0.022130924426709983,-0.016497626038823602,0.005213401202532121,0.02189314744066583,-0.014991794268454123,-0.006034927474436424,0.03223319365252738,-0.012287438949303226,-0.08054069812777823,-0.11640156672313576,-0.09183877008974048,-0.06405356596334678
0.33,-0.019852462979757943,0.014463493976261323,0.03414823294421789,0.005207974395516228,-0.02852170830020152,0.024026083505260178,0.04088504813136331,-0.002681699243321762,-0.06835920156611522,-0.11025652597614445,-0.0882404500759207,-0.06007689200679918
0.332,-0.023360134816385332,0.032587589243870584,0.05629051772706678,-0.0028135821919537925,-0.04088170694411012,0.04382926526210784,0.05322843529389555,0.010623013364362992,-0.057760648131550026,-0.10094447063832981,-0.0822753774239507,-0.0530300026353418
0.334,-0.030186618412242353,0.04366839297027029,0.07444220673042796,-0.005590808286817581,-0.05288267879575317,0.05811838242380779,0.06913394317773146,0.02968737193886927,-0.045472127841261784,-0.08791527174019632,-0.07108614881911225,-0.0411234341401967
0.336,-0.041270382803495764,0.049926195307510426,0.0915299248165339,-0.0030678375157956756,-0.06710747132218976,0.06956615286667438,0.08244998075902146,0.04622777114380765,-0.03559574347389025,-0.07763381213632703,-0.061887818591712496,-0.03279840526302951
0.338,-0.05833119736530558,0.048332941409796874,0.10658904943051982,0.006816396032980847,-0.08384482147129285,0.07609817253334067,0.08771326507888609,0.05203466324532212,-0.0330274480445056,-0.07512080437093521,-0.062176862928899575,-0.035607369033400046
0.34,-0.07251523617366296,0.04468817534976818,0.11699166598241491,0.0158136252519671,-0.09691949255625049,0.07951950436259925,0.08730312365550066,0.04959594151120413,-0.03618877490211233,-0.07782141287842916,-0.0690573090228915,-0.045582671675981144
0.342,-0.07078470627987987,0.05020361726635429,0.12094212750578098,0.011551131741467085,-0.09833017437362464,0.08474277827451143,0.08649568518614924,0.04652948177416532,-0.040859231059130086,-0.080937110522916,-0.07436285484207115,-0.05298557984801911
0.344,-0.0537698686114474,0.06383711682437644,0.11779598056892346,-0.004529427790405757,-0.0877077049496399,0.0904926527149384,0.08455018550702158,0.043101896113366525,-0.047615209439073165,-0.08546118504691733,-0.0770574964682553,-0.055513551173072544
0.346,-0.03713287889998842,0.07194543553604281,0.10932757517282213,-0.01708619931564411,-0.0741942709697528,0.09004096936323445,0.07701199712882029,0.03352088430156268,-0.06000492939458961,-0.09664804991450454,-0.08408903993174391,-0.06016680486596445
0.348,-0.0349495775308209,0.06660900427147742,0.1015152783444719,-0.014996021896476391,-0.06852937916117903,0.08252644920718925,0.06532633303333452,0.018869373533840533,-0.07627227693807316,-0.11423246369311202,-0.09782105277187135,-0.07131289278680365
0.35,-0.043765860151580904,0.05784842828998157,0.10107555357927722,-0.005468183032805877,-0.07254254663472842,0.07743892967952033,0.0584024307796532,0.00990032211091611,-0.08784672807853755,-0.1285686689190372,-0.10876242882884025,-0.08252758831910718
0.352,-0.046315309383482266,0.06278414918736391,0.10835648001285006,-0.006141980768704279,-0.07768213813076598,0.08403533493473408,0.06321680620187167,0.014191952759136846,-0.08835346139106874,-0.13038956627726775,-0.10656296261949598,-0.08517892464081457
0.354,-0.033903550806464504,0.08313249585867906,0.11656691091178112,-0.02242127655754412,-0.0761451703091769,0.09906359750469199,0.07651144203880446,0.02701847986767514,-0.08080962095682569,-0.12152001405023523,-0.09454299712746142,-0.08057779583839261
0.356,-0.018045373878982772,0.10238895119932409,0.1203415231900045,-0.040553477878267456,-0.0707540809023469,0.11070000204758942,0.0878494519002289,0.03792085377767428,-0.07327272044928222,-0.11186532935168186,-0.08597586789108619,-0.07726661522785627
0.358,-0.01657171161970192,0.10675871796283591,0.12333656480405418,-0.04460789385550834,-0.07192500803342285,0.11374109942776141,0.09030546845084138,0.04149245055034556,-0.07020106892334282,-0.10810388055043625,-0.08787719222511715,-0.08012129829573018
0.36,-0.033811039175160505,0.0991967476137739,0.13275814183482038,-0.03299334410251458,-0.08532656859429694,0.11401924516261658,0.0858781337372531,0.039210673566509174,-0.07057674396179374,-0.1092351057259832,-0.09590171906148803,-0.0877229277526022
0.362,-0.055873048053407766,0.09237267000180399,0.14754095753088523,-0.018284698126166177,-0.10345722327310464,0.11829006887350153,0.08043536594358562,0.0342565561241206,-0.07241910129171795,-0.1118376377966753,-0.10379776331822255,-0.09707022714913438
0.364,-0.06501385714298308,0.095181232896234,0.15924657948386253,-0.014200637644865961,-0.11334198226564153,0.12677564099290548,0.07661147723378932,0.027741150060657083,-0.07604549439825219,-0.11545317903750349,-0.11036092475945995,-0.1064397933970328
0.366,-0.06003682609900321,0.10517733741152384,0.16462638760339376,-0.020885605836590805,-0.11333002185122831,0.1355730995340591,0.07266825732053121,0.01939550381474189,-0.0827457635835581,-0.1219446551050387,-0.11708650090644562,-0.1148556099489618
0.368,-0.058219021013529534,0.11172968335053071,0.17013655052622176,-0.02455874037090394,-0.11571441589495476,0.14169001300643003,0.06653584441234561,0.010521968754844888,-0.09149770794885792,-0.1313615661460547,-0.12364850561293206,-0.12031029812678715
0.37,-0.06970037576986716,0.11084594750067112,0.18123228295004715,-0.01797412871212354,-0.12770885131461754,0.14590572301303417,0.05979127500949653,0.00506165006274385,-0.09808761872369873,-0.13993651106105418,-0.12706803650993514,-0.11971694304076066
0.372,-0.07822810458277177,0.11373681405695643,0.19254768529293292,-0.014926763488318123,-0.13762237405697145,0.15198159495130772,0.056729392599831056,0.00578896768485701,-0.09881256005355835,-0.14332495460423308,-0.1253466155054492,-0.11286647975444825
0.374,-0.06441173397834733,0.13107434362972936,0.19576083821565504,-0.030726185987014796,-0.1318071235999189,0.16203535056678986,0.05997402326496662,0.010653274791538351,-0.09411926104044026,-0.14061217217855604,-0.12020733913338022,-0.10435180070767663
0.376,-0.0387163088735792,0.15353377263399576,0.1924102022590973,-0.055599039597418534,-0.11714989169482244,0.17220633503815863,0.06749721405446138,0.015626890168433202,-0.08771696253828061,-0.13434589425455967,-0.11474488667652072,-0.09879908605407141
0.378,-0.029289771276399236,0.15971738652596829,0.18915806910327054,-0.06451406315155514,-0.1110262303329701,0.17416553973949658,0.07267399913661764,0.018553029323465097,-0.08419921067899247,-0.1293885975049949,-0.11142161014050231,-0.09767447247309119
0.38,-0.04514306984565015,0.1423851088283638,0.18759198082035114,-0.04877500578126849,-0.11789560992831596,0.1645109733579126,0.06933359473458632,0.018219981137663706,-0.0867718384602709,-0.13092374033874915,-0.1128079711680938,-0.10141357409630865
0.382,-0.07138928096045316,0.1178405147808239,0.18918358099443824,-0.023518620806177417,-0.1310761629788824,0.1525699221630327,0.05888300225610739,0.013688795119673643,-0.09462822797489738,-0.13979004730550226,-0.11969125005329706,-0.10910751345465229
0.384,-0.09414385815628198,0.10623489457355982,0.20031468319848295,-0.005822466138082417,-0.1478923354282144,0.15213970461732473,0.048541522101042345,0.005880712321450137,-0.10399042611446568,-0.15104749843050544,-0.12866700894648506,-0.11686381405357762
0.386,-0.1095600356856818,0.11190055351426761,0.22143020447325176,-0.00024451412884251384,-0.16708171703637079,0.16563240255957895,0.04249149587398084,-0.002493110920023683,-0.11183553688684848,-0.15874743431769758,-0.1348325506396753,-0.12102177158204762
0.388,-0.11051132709464224,0.1298331150752072,0.24024395122775435,-0.00833015060415645,-0.17806334087217296,0.18416492407745677,0.0407993198243726,-0.00756327859544578,-0.11546157449520662,-0.15977706027044555,-0.1354023193664307,-0.12043862217035038
0.39,-0.08778839281868836,0.1575860604928315,0.24506673335023252,-0.0336700722281811,-0.16946951740702038,0.20043030732969513,0.04434635674664736,-0.005275480304972189,-0.11173192413713148,-0.1542387698354267,-0.1304837430415663,-0.11525587876647293
0.392,-0.05037980529585362,0.189100037825768,0.2390719076641048,-0.06863308634928983,-0.14750977845437424,0.21283783424878788,0.05287876605333409,0.004215000814982641,-0.1022166297057713,-0.14609207761903886,-0.12358247549813917,-0.10858613653417637
0.394,-0.026880139602385368,0.20971351387495832,0.23645520795413483,-0.0912747840467956,-0.13425872830775132,0.22124115641961592,0.06157339782409719,0.014500493972212779,-0.09436493687055751,-0.14117441709532713,-0.11978220649012333,-0.10615417274522218
0.396,-0.03675377846251811,0.21029954406390566,0.2474035720121209,-0.0867844467968933,-0.1447348996585442,0.2266189433814462,0.06628339086626435,0.019466470769533492,-0.09262539940463298,-0.1406690138052097,-0.11998669923236015,-0.10847219099161125
0.398,-0.06765321177577963,0.1992174611573935,0.26742353117016837,-0.06505938578328208,-0.17010032194034452,0.23133845490148514,0.06830204354370435,0.01969483917369595,-0.09388888785726819,-0.13993869771482176,-0.11980135011804001,-0.10901102229462194
0.4,-0.09098592617265158,0.19008747434448559,0.281265447792811,-0.04746830739255816,-0.18817133770871478,0.2344476416689468,0.0691641566670314,0.018467173608494807,-0.09546826562531607,-0.13740399371039508,-0.117456408802771,-0.10538252741218879
0.402,-0.09502442345421534,0.18499589797284338,0.2796198097799464,-0.04197134149358939,-0.18880807837838878,0.23185091934210755,0.06535509083262664,0.0141875507433173,-0.10170158548386456,-0.13982647522662667,-0.11849256073478259,-0.1051157951683514
0.404,-0.09069646037530962,0.18069684035954758,0.2707653511273515,-0.04231693504253226,-0.18196877240225104,0.22571980578034764,0.053657153683866685,0.0033588659339952153,-0.11699067547349484,-0.15319824513224262,-0.12756173746152477,-0.11447472662935111
0.406,-0.08994535030859561,0.1805564713506093,0.2702020524981657,-0.04388586408588466,-0.18099608190650618,0.22524832976218898,0.038432900984305594,-0.010081098983148582,-0.13575958156754556,-0.17197445487509821,-0.14009059946445807,-0.1284440902883602
0.408,-0.09152794933749356,0.1872794090398998,0.2790414131567399,-0.04753436662446088,-0.18552814282352925,0.23233291213019167,0.027684729297222738,-0.016903559139700552,-0.14663490715154887,-0.1845862197600416,-0.1479922363319535,-0.13743753074286275
0.41,-0.0876823026368276,0.19514624202408315,0.28337456403685335,-0.05365821591542052,-0.18549139150056607,0.2376178645032036,0.024345579156540318,-0.013820429967773402,-0.145401444069666,-0.18730393558144628,-0.14926463547788085,-0.13816447283887046
0.412,-0.07668652327088316,0.19954703204275115,0.2766905608222881,-0.06114256304098056,-0.17757191186051374,0.23604506379269516,0.026239835719291397,-0.005871900528863959,-0.13768148484345696,-0.18557921486579132,-0.14719402378509575,-0.13414717310864166
0.414,-0.06475847536206754,0.20414003146237494,0.2689337444542625,-0.06927738509938176,-0.16906346742398132,0.23459218067230805,0.03096008563693619,0.0006554985149308109,-0.1308211073212413,-0.1846079662807288,-0.1448870900150977,-0.1304111142125247
0.416,-0.057655598204248634,0.2139104720201247,0.27113984294015014,-0.07788404154331796,-0.16667856648899135,0.24129457278362768,0.03668081845520568,0.0038871088801895617,-0.12791142355961516,-0.1848610155258579,-0.14394602379335406,-0.12986118710513225
0.418,-0.05471843142268459,0.2284128888613293,0.28259808079841703,-0.08683737107656542,-0.16950029767339272,0.25524075620022196,0.04133553217743939,0.006108434660846602,-0.1281247819286169,-0.18487875107070206,-0.1450711230259478,-0.13261080597780384
0.42,-0.05322777310320356,0.24169186082124916,0.29477826265459245,-0.09404557928944883,-0.17349024494173693,0.2683590496802361,0.04313300251513461,0.008249178002915554,-0.13043737965485008,-0.18482597816647367,-0.14855558183320783,-0.13793848342403217
0.422,-0.05551251898510701,0.24594123064448192,0.30188969870316995,-0.09438556441049714,-0.17811924705560866,0.2735301464155376,0.04076158583379425,0.006394383018924326,-0.13600889003301794,-0.18735637476434577,-0.15468996015889888,-0.145055785919522
0.424,-0.06531773732076278,0.23869369458779982,0.30474950954958896,-0.08546819029957801,-0.18510029907536107,0.270805982729396,0.03407261697562814,-0.0030666019326445687,-0.14560852584770012,-0.19511238324727184,-0.1627687729292785,-0.15191080445520677
0.426,-0.07942338494871745,0.22610617680459355,0.306161210293394,-0.07253287406236361,-0.19305988480803193,0.2655385860084907,0.02531565538268196,-0.017205974755963922,-0.1567312658449415,-0.20753285308770206,-0.17123115323755553,-0.15742970949723115
0.428,-0.09027348646581541,0.2172289912700904,0.3078255574023509,-0.0634048463857525,-0.19899120205882237,0.26262306091056564,0.018407914773720335,-0.02855814869976669,-0.16550560783126017,-0.22031001045424145,-0.17920403255924727,-0.16340458562443155
0.43,-0.0924125402315015,0.2189119182194105,0.3113724716223126,-0.06347429139925051,-0.20192239466449893,0.26513362183933953,0.016490722566031426,-0.031834426491230056,-0.16959420065255498,-0.22770916912407194,-0.1849174942801347,-0.16945454035232188
0.432,-0.08274479451750648,0.23507827584969618,0.3177445919890134,-0.07621808103630226,-0.20127600169614449,0.27524479109895594,0.020417484368047516,-0.027342349154560023,-0.16848057131457983,-0.22663146229757783,-0.18478445562906323,-0.1704989945979126
0.434,-0.06408514486886924,0.2626360381214002,0.32666001948580337,-0.09913333664288969,-0.19762449924597014,0.2921736288535551,0.02868310919430991,-0.018894679695639568,-0.16346935246062233,-0.2195717982560583,-0.17833618932538955,-0.16422727384340352
0.436,-0.0496059778661153,0.2877175419701666,0.33732943001610866,-0.1189076548011049,-0.19620614438746775,0.30954442696849455,0.03731982478075368,-0.010501383093077677,-0.15848085769136078,-0.2130495488119631,-0.17133460096799336,-0.15635250151239524
0.438,-0.05200774378871009,0.2953702757629838,0.3473894484655052,-0.1216129039737698,-0.2020243713746701,0.3189245802142194,0.04184613089701208,-0.004756396040471386,-0.15776950635630638,-0.21196428618953211,-0.1700309125152597,-0.15384110566346648
0.44,-0.0662256837016424,0.28700303128459315,0.35308821666844087,-0.11035263704204588,-0.21112351343631186,0.31877965460668045,0.04214435880013961,-0.0018214550850354702,-0.1614548038097315,-0.21549011956510614,-0.17444709789921573,-0.1567837196751744
0.442,-0.07328000208771428,0.2803967517689713,0.3532062916322886,-0.10328531160418114,-0.2140542987735069,0.3167270547687214,0.04169919147301491,-0.0010730280748894245,-0.16724810540066362,-0.22046778328203662,-0.18082073151608777,-0.16155052520646426
0.444,-0.06493837862938384,0.28769252854732746,0.35186845037365144,-0.11034174050406162,-0.20934835227196624,0.32023980862863166,0.040338071546283626,-0.0043131583271003296,-0.17584352016801041,-0.2275402009181884,-0.18826764810448307,-0.16813064542579706
0.446,-0.05425425316564218,0.3013532548295411,0.35492981871669677,-0.12141606373609068,-0.20624585561382724,0.3281975072355646,0.03442277367326603,-0.013151603516347107,-0.18845477967364233,-0.23940780126722974,-0.1984106816868093,-0.17864920353892105
0.448,-0.05567710691103112,0.3070500629835503,0.362504286764505,-0.12277905418748922,-0.21102968333597483,0.33370143372563316,0.02471953098369001,-0.023591813881541926,-0.20102251327824808,-0.2542672746546428,-0.20969147105220604,-0.19100262633397758
0.45,-0.0663574399136165,0.30163394921074554,0.36816594007785697,-0.11476979302636522,-0.2187855158236837,0.33262961563225446,0.01682622051914125,-0.028986846842106815,-0.20776994246842373,-0.26656902514635183,-0.21685511618575487,-0.19925502121219474
0.452,-0.07698157811726095,0.2905126975486775,0.3677009485851691,-0.10457740914614821,-0.2236493343655465,0.3264610711569883,0.01350696725855693,-0.028190915675542782,-0.20912332099969871,-0.27410775195364007,-0.21760447038482944,-0.2012651314674731
0.454,-0.08812627268914829,0.27659847835785956,0.3647390390032682,-0.09271418138135139,-0.228075021179228,0.3187591419113591,0.011876733980174645,-0.025437795434452383,-0.210398233234948,-0.27921307634609144,-0.2166558296531596,-0.20279206494755678
0.456,-0.1019114168527667,0.2633583427688703,0.3651890915307555,-0.07938292585678768,-0.2351750314964627,0.31338900894107374,0.008832512497206098,-0.02322914041354621,-0.21366289858708395,-0.28320814087586227,-0.2199102466100945,-0.21032797069908057
0.458,-0.11130421444959207,0.2597935372073786,0.3711719863743662,-0.07268383371433335,-0.24209108686454048,0.3149099172092885,0.006116482324358386,-0.020399372813096537,-0.21555245668098397,-0.28452150762011835,-0.22609627773152474,-0.22087200033576032
0.46,-0.11169600269772517,0.27122716014649834,0.3832787747051989,-0.07804811608067866,-0.2477455030064587,0.3263568413177923,0.008380745314864622,-0.015885739522876644,-0.2128979478362929,-0.2819913336188196,-0.2283020577633839,-0.22394310980700854
0.462,-0.10812891373614003,0.2925822831076511,0.4011782658756697,-0.0908473418588657,-0.2552501789348469,0.3457266717574056,0.016063900183226874,-0.011356143542368444,-0.2082387760505861,-0.2782709498972902,-0.22426475340117133,-0.21529677505866654
0.464,-0.10252752391820684,0.31534965060663867,0.4181385845379924,-0.10566098319895141,-0.26181327645900093,0.36562261413017616,0.02179692575434427,-0.010497589044248612,-0.20913761495354385,-0.2804809383044844,-0.22103373811305863,-0.20416566840051892
0.466,-0.09094685210895533,0.33360793574017894,0.4244857390207562,-0.12077140787139158,-0.2597249624128703,0.3781254986572286,0.01814418509453736,-0.015043894339541827,-0.2208212001371851,-0.29375949117828914,-0.2267000925755488,-0.20314351995665966
0.468,-0.07720292050673182,0.3441324591526594,0.4210448321832175,-0.13241811176056992,-0.25075054865349944,0.3818610050155096,0.008444900852251748,-0.021383087162880527,-0.23940830161673649,-0.3123254993381235,-0.23974978647082157,-0.21316486556320613
0.47,-0.07157372553229847,0.348626173398971,0.41979260422189624,-0.13678664700438523,-0.2463867995101485,0.3833066296588386,0.0037438184353300644,-0.023432515337036063,-0.2544199696737305,-0.323533983283522,-0.24969382845117596,-0.2227043099568743
0.472,-0.07396216873264591,0.35371157105705114,0.4271758012170592,-0.137726351923339,-0.2509107036883906,0.388976366893104,0.009008696891369058,-0.01910480000882875,-0.2586312468567322,-0.32263460899305485,-0.24873794884770337,-0.22199257824086052
0.474,-0.07464020548344956,0.3613780972504717,0.43549358586581816,-0.14133400472171112,-0.25623720356042495,0.396635733031441,0.018240157676640847,-0.012343594340545544,-0.2548001491964245,-0.317432539349159,-0.2411712691887765,-0.21463275389978814
0.476,-0.07242421738135861,0.36255762777715594,0.43458256936229706,-0.14354961850533296,-0.2560389883970853,0.3970804619532425,0.023382349831230168,-0.008740041170243084,-0.2523470766072551,-0.3177927916124829,-0.2381986072917631,-0.21225768726714062
0.478,-0.0762397003862584,0.3494785933873307,0.425553856727099,-0.13542674680377426,-0.25410469863662466,0.38673436320033877,0.02355196386982646,-0.009835604868970917,-0.2570098151021647,-0.325339789803018,-0.24394338604773202,-0.21928486707221995
0.48,-0.08759712633522,0.331615389514169,0.41915572601209294,-0.12065834925475102,-0.2560916703432934,0.37524906677494974,0.023416898355415917,-0.012623497031610809,-0.2654828282667177,-0.33500756176533936,-0.25229473088588006,-0.22871708251498638
0.482,-0.0955716824784189,0.3277284683258852,0.42308339322763155,-0.11472402416697469,-0.26107061930155695,0.3753666620813936,0.024248150534185074,-0.015259635031226688,-0.27318223435859706,-0.3443633481970327,-0.25834057548975636,-0.23413152216151129
0.484,-0.09170548529838544,0.3432173947051858,0.4345201553752732,-0.1249391650508256,-0.2643634791584759,0.3881041771253639,0.02117658467440026,-0.01994863935031098,-0.28275365438970895,-0.3568569083930575,-0.2649919952527743,-0.23842063990151596
0.486,-0.07946159957120962,0.3663736707733819,0.445531687801234,-0.14291657817950484,-0.263959137205861,0.4042786323737433,0.01160121868017566,-0.026975206938274668,-0.2975283658566398,-0.37401388255164747,-0.27523324648241204,-0.24687989053296608
0.488,-0.06751710140611068,0.38433771134300176,0.4518466538227455,-0.15720163770099663,-0.2615742307510554,0.4164764318473683,0.0008883754887029879,-0.03104047683716194,-0.31252935037678226,-0.390591846155922,-0.2854747305067342,-0.2581939786319074
0.49,-0.06289624103216764,0.39149460076163983,0.4545243672842357,-0.16215893236876885,-0.26068830387328573,0.42232731137958196,-0.004891945111342474,-0.028107785976717384,-0.32099324863204204,-0.4018806868552496,-0.2908532968396727,-0.2664559459115539
0.492,-0.06883597641751195,0.3881015481154523,0.4568923738883137,-0.1574272651203302,-0.2644141832441281,0.42212303351338465,-0.005916799557831231,-0.020081734988432822,-0.32294367536663676,-0.40889626842510507,-0.29067142542360447,-0.26741821436421753
0.494,-0.07944548314162633,0.3831631053406303,0.46224072954886275,-0.1504322620971997,-0.27183849416353867,0.4213662966406994,-0.0040774982363200735,-0.009531271141402313,-0.3205768865995278,-0.41221815144686985,-0.2856465189924229,-0.26039902912057405
0.496,-0.08196176490635025,0.3908797328914315,0.47235268684525955,-0.1535262862756504,-0.27796674373067154,0.42936582422134084,0.0012026667735513463,0.003242124105398087,-0.3138141731616195,-0.40880412691800344,-0.2763108384638215,-0.24808124516234714
0.498,-0.07443551169504652,0.41194120026374104,0.48613317553158536,-0.16746537390441776,-0.2812259501881083,0.44726579738986666,0.00846981893725737,0.014974214017292114,-0.30592690177528753,-0.39967899205419294,-0.2666261278103074,-0.23676603040688565
0.5,-0.07074227855193856,0.4273266575714502,0.4982571586107592,-0.1765706682126952,-0.28543316819452674,0.46228420472720416,0.011467084593993655,0.01816748774902741,-0.30587735255409515,-0.39420442375275816,-0.2639853834206857,-0.23403106525029788
0.502,-0.07670572839090102,0.4235809619068347,0.5007802433984676,-0.17200065869468592,-0.2894150865838102,0.4621427062167064,0.005437538420986346,0.009792137781138174,-0.3190800591673236,-0.40080443441689495,-0.2718233081342341,-0.24200764828759663
0.504,-0.07720852416990763,0.4137544499291432,0.49144148311264985,-0.1676301444139755,-0.2849446204049236,0.4519695331769467,-0.00600766184018371,-0.0030773659965325517,-0.33938075913003685,-0.4165510512526043,-0.2842059970357927,-0.2538151294432938
0.506,-0.060891264988018515,0.4185621142959919,0.47964820574719724,-0.17879466844245143,-0.27132452997413053,0.4479388066786168,-0.014513734420143618,-0.011126350334776994,-0.355074193693677,-0.4312793128318586,-0.2921038849439545,-0.2610566607912728
0.508,-0.03883595058307111,0.43870242360708656,0.47745330642648065,-0.19976780447778436,-0.2597452940856061,0.4571785283002702,-0.017050483370942057,-0.013142268900239569,-0.3611603368285248,-0.43976515068360034,-0.29378215755832143,-0.26300120938138566
0.51,-0.025507784894568092,0.45996077999328955,0.4853271437361598,-0.21611758904275782,-0.25730542301347276,0.47238609452090835,-0.0182752170799513,-0.014498504587854465,-0.36173761309892016,-0.44455672165885407,-0.2943699968475928,-0.264142201070534
0.512,-0.019881889381770677,0.4744031077218137,0.49423419356122333,-0.22499737975813588,-0.25893432452923637,0.48417524649101673,-0.02271360263847254,-0.01847533824403892,-0.36219956575886003,-0.44875803082900534,-0.2972719632411063,-0.2665933157066168
0.514,-0.015548462482272622,0.48441356111755907,0.49989085592385957,-0.23178974119108023,-0.2592033159365023,0.4913789574230475,-0.028690339383623743,-0.023098612246128976,-0.36336688772358,-0.45134452742262393,-0.30056578275763496,-0.26896387613495715
0.516,-0.01506068126278209,0.49019017649026986,0.5049897647554075,-0.23559146354585417,-0.26094726769979404,0.4961651022398048,-0.03164102857055278,-0.024720247665111883,-0.3623863101282333,-0.4495590769322824,-0.3002371136943516,-0.26880201122409236
0.518,-0.02536310142969077,0.48459663229209593,0.5096572151664122,-0.22851681629809048,-0.2684393186064807,0.4956273597480321,-0.03086175288136821,-0.022083271120540662,-0.35660481085958856,-0.44295676447214993,-0.2942699950459821,-0.2637534417701285
0.52,-0.043566236023469075,0.46806293901703083,0.5116716177368894,-0.21132794492021484,-0.27939365639582814,0.488657907905981,-0.030695415994483013,-0.018080451597486058,-0.347771618527968,-0.43452005890047996,-0.28495011431446404,-0.2539982454512394
0.522,-0.055977360570611,0.4586983037297019,0.5151160122933013,-0.1999885260417718,-0.2882484241933434,0.48599668155390724,-0.035106973194322384,-0.0174980210402725,-0.34191322645992245,-0.42775766191439674,-0.27719043226686546,-0.24362909321368553
0.524,-0.05488191879363884,0.4726669888293128,0.5279625014008108,-0.2072143948227055,-0.2942746532383554,0.49961720172866714,-0.04287150374668874,-0.021891176219770707,-0.34217070406507255,-0.4230162740742967,-0.27318579736573306,-0.23653066104246392
0.526,-0.0468083103856851,0.5019161860128368,0.5487722141229436,-0.22625692802974084,-0.29994473188618653,0.5246784693917186,-0.050888817039942566,-0.029501080406240957,-0.34537042119368744,-0.41944436301541976,-0.2714421612367451,-0.2333532528705014
0.528,-0.039012051567602256,0.5251185712699937,0.5639368681121365,-0.24243188485903572,-0.30260891114120203,0.5437244702132175,-0.06007151933605175,-0.03969062393362325,-0.3474743127590356,-0.4186833631100467,-0.27084889543854984,-0.23338875959497885
0.53,-0.02914805701826905,0.5348527729950547,0.5638747706664942,-0.2523497580800067,-0.2969012933060308,0.5484792607315728,-0.07193707025903645,-0.05191304579452048,-0.3462049297552672,-0.4205879086183475,-0.2702951942319495,-0.23448923896722335
0.532,-0.014597795859967016,0.5415611139526405,0.5562227471352588,-0.2624278420529672,-0.2857619318231552,0.5481300487714852,-0.08223553369768821,-0.06229224204304412,-0.3394615439512565,-0.41856868000483893,-0.2665230743357659,-0.23268001411591047
0.534,-0.0039884447345361635,0.5525915440241616,0.5567998458222462,-0.27274930564299044,-0.281491417776757,0.5540246611056752,-0.08541455675720952,-0.06704760496447931,-0.32790953724559374,-0.40674408691132385,-0.2584163856758252,-0.22715076718425325
0.536,-0.011360835610198985,0.5596449260730649,0.5713529928030557,-0.27272026525307863,-0.2934827266023615,0.5644531730858606,-0.08304921357796477,-0.06771398732388512,-0.3166137643102084,-0.38952452214307154,-0.25042418200721017,-0.22264333548575227
0.538,-0.03766141510711961,0.552336436520443,0.5903598309961801,-0.2564866301884994,-0.3165680405955248,0.5696142700399067,-0.08203145147716888,-0.06979667602054458,-0.30937864848311447,-0.3773682907284574,-0.24686941893584932,-0.22278770284909835
0.54,-0.06293069146718526,0.5371529031994895,0.6001785382261555,-0.23656573738219652,-0.3334356518277292,0.5666942310211511,-0.08596253838394564,-0.07660636820458616,-0.30403731140007534,-0.37344919459222,-0.24546918895327602,-0.2245191810059045
0.542,-0.06408370072751059,0.5336045601570478,0.5973422751149737,-0.23389517678714206,-0.33130573813181585,0.5640037630953165,-0.09250603414951933,-0.08571902850913597,-0.29663088944850374,-0.3706018143329953,-0.2406270748461524,-0.22274349430429002
0.544,-0.04048740308264702,0.5516351026964856,0.5915734702601724,-0.2541866396995179,-0.3159307058828333,0.5709115989265504,-0.09887018147851528,-0.0933481156665924,-0.28803832684283076,-0.36255410082430395,-0.2317947027044529,-0.2176960249026919
0.546,-0.014677838923703994,0.5801903579877866,0.5945548123566152,-0.2810906760539241,-0.30507637014447947,0.5872004863660011,-0.10629755255557757,-0.10119912742951574,-0.28289687291694865,-0.3528720891103595,-0.22515822761509652,-0.21450553669590638
0.548,-0.007328731355427674,0.5997560635979887,0.6071705361123308,-0.29432382628548065,-0.3087811989770289,0.6032161748046362,-0.11717673956742175,-0.11416537828153958,-0.2826428018412439,-0.34949047007334594,-0.2262332609239397,-0.21706785413520768
0.55,-0.01773191509607469,0.6023429688670953,0.6204016613651252,-0.29003987901539086,-0.3210209402570585,0.6104569193672668,-0.12956922126307638,-0.13115779022960422,-0.28245141318714007,-0.35277233178654505,-0.23209411555372997,-0.2234016946553453
0.552,-0.028461894335343272,0.597875668863878,0.626709560540591,-0.2823568744354612,-0.3292463552530543,0.6106489584455057,-0.13789669308925212,-0.14425310400052724,-0.2761300765863155,-0.3535689042264945,-0.23378116286967487,-0.2266751022326924
0.554,-0.026231919439406098,0.6010276887042492,0.6274793922833243,-0.28569697095425467,-0.3282033727728526,0.6122785128265336,-0.13901859750122758,-0.14801222090920654,-0.2628953179650969,-0.3435968068842122,-0.22670869305149915,-0.22192656329745086
0.556,-0.017757899170726198,0.6134659709457951,0.6311035925965442,-0.2970476374604422,-0.32566384445753327,0.6201632595256439,-0.13545714181079682,-0.14536023215746674,-0.24800893066147528,-0.3248767021404377,-0.21512109215016048,-0.2113595333767614
0.558,-0.021287538327437832,0.6227018976822609,0.643699431562151,-0.30011282108362874,-0.33360551581020664,0.6307533927734326,-0.13312485381393482,-0.14437747719634703,-0.23810148090077893,-0.3082589131700138,-0.20676401824237362,-0.20243166718713773
0.56,-0.041765220387422294,0.6184709711641786,0.6603342142913121,-0.2871547944567194,-0.35204863241699397,0.6366127187587918,-0.13690428587197806,-0.15162083567747284,-0.23658080333614762,-0.30261308000706205,-0.20641164932281295,-0.20179833789724852
0.562,-0.0622914014583752,0.605873201580768,0.6688937486880824,-0.26995425855287775,-0.3665412514935515,0.634698869633943,-0.14730664187386217,-0.16743714708061097,-0.24114726417924864,-0.30582375675612417,-0.21296653944904845,-0.20997083107714287
0.564,-0.06428434513006408,0.5993629702609228,0.6645031968648554,-0.26569509140674863,-0.3651022699223793,0.6298796962749964,-0.160513572042462,-0.1864558883019549,-0.24579285698526518,-0.3085857796178607,-0.22079765069570415,-0.22080963116700233
0.566,-0.04861445402252126,0.6066225480728257,0.6555706384236946,-0.27761522985594195,-0.3522526870922954,0.6297061763539316,-0.1717673104931249,-0.20241191650358575,-0.24670817780752743,-0.3060121615565933,-0.2250086158798311,-0.22736252515261268
0.568,-0.030894095296558878,0.6230627766794384,0.6537415994410489,-0.2950292633964233,-0.3421085255502264,0.6372570259631145,-0.1781523361574356,-0.21126936220221115,-0.2439423495264397,-0.3009316470022387,-0.22455751968742316,-0.22737852221725402
0.57,-0.022410526428136218,0.6384231568228614,0.6605254435233906,-0.30697463038973194,-0.3416144021211649,0.648263172992251,-0.17727554876696916,-0.2100197606454705,-0.23665941164104404,-0.2953708306936544,-0.21868512569808926,-0.22176171898141583
0.572,-0.021424466208491765,0.6381480822744585,0.6593888096428269,-0.307241637787671,-0.34145061965193413,0.6474187008864656,-0.16520454276045143,-0.19585683371842763,-0.22081047639024837,-0.28429360639779,-0.20346190121654842,-0.20942526602383305
0.574,-0.019683458344259223,0.6015576518635408,0.6208985927932034,-0.28975228214933546,-0.3220846570700209,0.6096148045936252,-0.13898670487197717,-0.16800001827528913,-0.1928490006085517,-0.26047453646866353,-0.17530713238374818,-0.18656245561934223
0.576,-0.013714220568520086,0.5182930447123691,0.5312088156551688,-0.25124674823931625,-0.27455531777340475,0.5227591920638549,-0.10149905749884004,-0.12971309692913788,-0.15434403987126216,-0.22296775816070044,-0.1365465422248915,-0.1522745942558026
0.578,-0.008025693298509275,0.40985549521391956,0.41681843784246125,-0.2003713218114259,-0.2146479312177061,0.4111197618820481,-0.062255672407954765,-0.08931072967807467,-0.1135196692922516,-0.18025818339384952,-0.09631804034722839,-0.11357652605882151
0.58,-0.007816527502517658,0.31625741221906933,0.32322824166700176,-0.1540372542190488,-0.16784574073219055,0.3176506410110649,-0.03221057501048962,-0.05786089836990448,-0.0815943614317444,-0.14584671096228619,-0.06632907148590757,-0.08224692906146117
0.582,-0.012562149548070322,0.25675053538716447,0.26889084215299364,-0.12143530120886475,-0.14273095288536486,0.2611173377410081,-0.01729298622076717,-0.04275708793329828,-0.06495922662364013,-0.12875223206780242,-0.0536279785481808,-0.0660638502986972
0.584,-0.01731405575394453,0.21797489775370626,0.2351298479113087,-0.09872097981565603,-0.12729485835112964,0.22528178490103418,-0.015671198788202233,-0.04246897105030059,-0.06028213058972899,-0.12669903262898097,-0.055410355363588175,-0.06321990772813446
0.586,-0.01676203835804505,0.18255016564482712,0.1992389515599894,-0.0809295554837496,-0.10828402061310184,0.1900040950939337,-0.018300022477122115,-0.04665302359030912,-0.05752257120586326,-0.12811926768644213,-0.060558391324647444,-0.06395191841821919
0.588,-0.008227351217614148,0.15200729306758293,0.16023647069574562,-0.07039276418928324,-0.08492912370738172,0.15540606880008015,-0.013614530759377668,-0.04255751245963182,-0.048341447892008345,-0.1214565731929538,-0.05719539957549408,-0.05809406833963483
0.59,0.0054688537681399935,0.13376093813699047,0.12845081556581778,-0.0687452418462751,-0.06358967601547258,0.1300101972682804,0.003092849000411569,-0.02578808205596073,-0.03291114941628696,-0.10468424899448386,-0.04174555528457491,-0.043422116257098096
0.592,0.015618860200334346,0.12170203312153181,0.10641988650930381,-0.06819142626083717,-0.048338054512832254,0.11220591608196627,0.025372768793109002,-0.00433221196551225,-0.017489883381704183,-0.08538004032035196,-0.02133109857934034,-0.02587217665696645
0.594,0.013073003811884941,0.10208938784459143,0.08928839122283204,-0.05735740291245354,-0.04042590307275929,0.09352953279690904,0.04335601709366019,0.011743228604544301,-0.005274693424024022,-0.07061331347405238,-0.005437221275241117,-0.01140842128876191
0.596,-0.004295320838973385,0.07029225583122084,0.0743685864386045,-0.03274684043281857,-0.04043535810942672,0.07054755448846388,0.05329058078152923,0.020979676967058977,0.006039661133711843,-0.06027561885755276,0.0027911133032087806,-0.0015598689906405755
0.598,-0.028720547161399282,0.03534111982270104,0.06327661047379442,-0.002575554022859846,-0.04645073454586896,0.04793315817139705,0.05781092044570531,0.026930512974747488,0.017448958364253496,-0.05178063888846703,0.005555323661986251,0.003552389385581672
0.6,-0.04748429551304234,0.010858113013879924,0.05752249097053287,0.019505274231755285,-0.05285105304121884,0.03298721393635005,0.06065020645895274,0.030227088760727782,0.025107567630683284,-0.04599973512189631,0.0052984685365359925,0.003327677191196153
0.602,-0.05211927167095128,0.00243516973294757,0.05426839187686497,0.025762786649551516,-0.05346229888149218,0.02740015595643081,0.06332980598162333,0.030010448256280957,0.025278527954438017,-0.04482181254228489,0.0036665490530397114,-0.0009035020131625666
0.604,-0.044061151487272764,0.003554427568973475,0.04781241998055054,0.020433513938300663,-0.04622610578906429,0.02501125472422919,0.06503698233035994,0.02836916445603687,0.019170340025878852,-0.04688196825959873,0.0026410142030693137,-0.004907470544874352
0.606,-0.03458226781615765,0.001881810354703744,0.03659492431112652,0.016188362414599644,-0.03624623009613424,0.01854554880495341,0.06492565471052755,0.02866639498623565,0.011841541898870073,-0.04964069949458881,0.003783519404818697,-0.00527633876915322
0.608,-0.03668993381345856,-0.010887499553389614,0.025492056234913022,0.023838842473541094,-0.032064914690034,0.006399517044633492,0.06456024706481603,0.031819965223992386,0.00861750922737022,-0.05208998332945432,0.007509182417078088,-0.002634525220512897
0.61,-0.05039447070793343,-0.031168870886813763,0.01867156988058697,0.041035191821548855,-0.03531103774720942,-0.007311053019586724,0.06656717031390896,0.03582006232703628,0.011689389114137479,-0.05278821783312584,0.013908669347115,0.0012012322405376401
0.612,-0.06163221326212042,-0.04627433789385647,0.01502998876243898,0.05415885616604944,-0.03876910657758083,-0.0168601208390063,0.07185719308235078,0.038411280280510225,0.018776864877417306,-0.04897463485302483,0.022607951699821282,0.007050820579315031
0.614,-0.06179433611382914,-0.0490600707212454,0.012796547686006444,0.05575135944317832,-0.03787912151637004,-0.01941899938431404,0.08060017521019149,0.04064921375190421,0.026766679223551304,-0.039385870907308086,0.03184291931963894,0.015712248714909824
0.616,-0.05859674219754851,-0.04673285410154769,0.012088431683585546,0.05357661475862167,-0.03644780144928924,-0.018196542819861824,0.09321498102772065,0.04602672108520607,0.03545259210223698,-0.02644016887383252,0.03881999508681288,0.023770986137017454
0.618,-0.06196968890443107,-0.04994989541860747,0.012221497492175448,0.0575377622709309,-0.038368070235789795,-0.019237393583989255,0.10783248858601102,0.05509116038949792,0.045699099875607434,-0.014917133388817057,0.041893930948340784,0.027224186867542913
0.62,-0.06871319781365048,-0.05676679933024172,0.012200139099670746,0.06466391265424644,-0.04120368442569698,-0.022939151977479737,0.12055158709086912,0.06467285393623534,0.0561423065555067,-0.008180455783461762,0.042885426300969545,0.027602321578915193
0.622,-0.06686537887128777,-0.05635023692952619,0.01086426306422474,0.06377724553196666,-0.03897006585849858,-0.024506900504355302,0.12915083000837912,0.07197130097783629,0.0626212551729109,-0.007030480663017122,0.04428132185306168,0.02836437883008047
0.624,-0.050616162180766644,-0.04545894758014665,0.005417475483558523,0.05051382389405836,-0.028097476829666245,-0.02277220637734321,0.13309147116484388,0.07484531136182572,0.06038248289436067,-0.011969735079394299,0.0438908435594537,0.02765935955868
0.626,-0.027497881077562073,-0.03058179613253858,-0.0030673838805944558,0.031470041077316754,-0.012966149353825973,-0.019739961092466042,0.13214087135922228,0.07178866698784064,0.04937573323452901,-0.021973686021054782,0.03831751836284128,0.022301936032742626
0.628,-0.011680052531716308,-0.018735958011173025,-0.007206061054144515,0.01700688215160033,-0.00397823276368311,-0.015378472396845307,0.1283427641271982,0.06627707443121778,0.03764885901497698,-0.03114465815870716,0.03147600362168083,0.016136132282718575
0.63,-0.010965972694482054,-0.015053868337088999,-0.004297042831859159,0.014140260970889908,-0.005959324985005909,-0.011432096053655546,0.12601656740040937,0.0654367462783819,0.034928574901607036,-0.03283777028560319,0.03206155831988377,0.016373305608689187
0.632,-0.02167947182074563,-0.023553885789911463,-0.0021722716158070897,0.02365396824583948,-0.012747561572909736,-0.014142913178223571,0.12737301026965345,0.07064223994981894,0.04182199921798591,-0.027780983083289995,0.04137549164376747,0.022844544399112595
0.634,-0.0366881415961188,-0.04370246374950444,-0.007358507354255862,0.041545650690199665,-0.017239421038877472,-0.026419949918383877,0.13106168266298185,0.07581970003514343,0.05043210916452671,-0.02221031254551086,0.050565208020268496,0.027392716873131245
0.636,-0.05213814617293632,-0.06584246283642398,-0.013817309877562784,0.060507223740148,-0.020597883004879435,-0.04041941725119713,0.13617896052492937,0.07786058020489262,0.056499869179794944,-0.01733445339191673,0.053338554256458164,0.025279616369008315
0.638,-0.06295072221223791,-0.07346067828530475,-0.010182170954376537,0.06967894854882582,-0.026550902850583254,-0.0427070894371594,0.1434368643250745,0.08071138935662843,0.06383824809895212,-0.007798842042129443,0.05452728210200161,0.02237936136624598
0.64,-0.06118378503767156,-0.05766972987405769,0.004064241745262294,0.06091725477891954,-0.032255298171238206,-0.02879241729905622,0.15003420172395382,0.08579722241189858,0.0743810713095483,0.0075244897220408035,0.06045588892433266,0.026569160062315845
0.642,-0.04486572456235688,-0.028244778704160943,0.016944793724171674,0.03813378077289561,-0.03106652192247537,-0.008701290646262103,0.148109036022216,0.08678992290318402,0.08172029034703752,0.02055998469978293,0.067620296780528,0.03514686249188736
0.644,-0.02238652233137453,-0.002877055594015669,0.01947196857561641,0.01433615549682895,-0.022038985920533598,0.005318379038495375,0.1324984643107637,0.07771469806181973,0.07885811819545227,0.022454329304969996,0.0673833750628966,0.0376967698219038
0.646,-0.003711380482929456,0.01167966649287958,0.015323275807310667,-0.0020416335808462064,-0.011054897327777374,0.011686936320664594,0.10784716576565304,0.06124957704740937,0.06706071411800923,0.012372912699150883,0.05786490426650414,0.03057004222830031
0.648,0.009008597877190216,0.022034971052378713,0.013283162204355011,-0.01350139005126701,-0.003280076983149147,0.01697094163012577,0.08531967593262832,0.04669358650685576,0.05426568779518132,-0.0023275047101985174,0.04678036949184338,0.022125132871339284
0.65,0.017135090944389527,0.03332656915055883,0.016663663611277604,-0.023589857898267702,-0.00030423735661413114,0.02460275137341554,0.07326883382503131,0.040657880118369585,0.04794375275633205,-0.012036627111969893,0.04310019248454671,0.022688212127524976
0.652,0.016031643073536102,0.0386004801837609,0.022765651751730225,-0.026089660252218212,-0.003971662722171344,0.029948019437263676,0.07148578176212188,0.04071448751921315,0.049359660809606694,-0.012781830829820482,0.04726862802085753,0.032585627111174846
0.654,-0.0006283645964378648,0.028865245109178102,0.029136565579853314,-0.012849201265558136,-0.016277655047497768,0.027650549766077767,0.07271464493993114,0.03957119262029167,0.05304971067481636,-0.009366339940374521,0.051293896758605705,0.042002348849863945
0.656,-0.027328638864133496,0.00884613475029585,0.03556502794382918,0.010617374775137063,-0.03363700514079357,0.020178953032812436,0.06991967637547211,0.03463810749845358,0.05360518130532726,-0.008602815877023683,0.0493680215491938,0.04291579400381825
0.658,-0.04636580624879636,-0.006423215559013628,0.03960624500178254,0.027541597666317915,-0.04546370909930988,0.014356138188245854,0.06351383040140744,0.03065179583226456,0.05219119784135419,-0.010441161107447838,0.045423217429636654,0.038530980400470524
0.66,-0.044378727062877286,-0.006741742146955505,0.03772292926867346,0.026775984178690464,-0.04323032724721904,0.013840910605487852,0.06013202809640375,0.032876936311409165,0.053669991229531026,-0.008521763268285236,0.047424021399621694,0.03827863300398609
0.662,-0.02465693253249148,0.008461621287039207,0.03333711496449369,0.010195430949914682,-0.030351015993758317,0.01992108954368846,0.06292055939222782,0.040025441887412916,0.05873780651021798,0.0007709603536659293,0.05650238503958185,0.045337770185630885
0.664,-0.0019712147979485343,0.03214490000004875,0.034203522117671054,-0.012220922055550998,-0.01846729597856393,0.03214306441804063,0.06606518862010745,0.044445949317590376,0.06150524754327817,0.01136027842427727,0.06475742604040381,0.05249495791036011
0.666,0.010867202978523083,0.04992195967910867,0.039101460582060855,-0.02814798551063177,-0.014137174066018447,0.04299455953859416,0.062070422466339085,0.039906041947184064,0.05586304249273567,0.012163244070370394,0.06381414377332388,0.051317635184578006
0.668,0.012689846375440789,0.050221239511803004,0.03778278649022258,-0.030883896064914543,-0.013228986197230877,0.04215068997758288,0.051297221777293935,0.02953863557773737,0.043879388956400346,0.0006230498506413234,0.054444196680791805,0.042602631252900126
0.67,0.012066264935093387,0.03835682768564871,0.02672262296045909,-0.025553456829132574,-0.009000232392022111,0.0304038994280574,0.0400860214381676,0.022730227535538338,0.03492946249929052,-0.012508735363127072,0.04591974739424078,0.0347263578933308
0.672,0.014531328497073887,0.027820023660776284,0.013590083430917591,-0.020607683822742386,-0.001359602118935193,0.01816575670522957,0.03209658891035534,0.02327298848681599,0.03480219564373506,-0.016178332992588917,0.04493890708974899,0.03373330104689735
0.674,0.01644184685727882,0.021452576439607483,0.005023732945151137,-0.016866446062083568,0.004555235209960077,0.010469782121178104,0.02617216714110602,0.026219209982335408,0.03996958396525242,-0.011434317452591242,0.04904914533352271,0.038673648205948236
0.676,0.014067084105256391,0.01597678649776692,0.0018782157697535048,-0.012806629967440229,0.005182261148939364,0.006379726327399804,0.021447863167466656,0.027832388021312514,0.04571632892548179,-0.00510307106747807,0.05420511350799403,0.04615080286431236
0.678,0.010930795569613414,0.01578875752471738,0.005104915715307148,-0.012390947575992049,0.0011060023966211632,0.008496701505647242,0.019174472410997883,0.0310225292660247,0.05362943199998464,0.0014734456312900607,0.06199857613313154,0.054914798984773326
0.68,0.011268472706507009,0.02567868727814028,0.014901930371381503,-0.018401895149717233,-0.004780014600725586,0.01898548066430275,0.018603986966377054,0.03767690306134034,0.0656380061218104,0.009694670999478483,0.07272975973808193,0.06326702890692089
0.682,0.012785459834245665,0.03770017508884056,0.025389839439382257,-0.02505686598050831,-0.009352552236082013,0.03056470230409732,0.01614698921785465,0.04316200064194972,0.07700322282837126,0.016668779685868818,0.07879560503460736,0.06660673179879059
0.684,0.01094085616909007,0.0395884664074326,0.029086997759771548,-0.024912002046704067,-0.010888604844176888,0.03338419332455955,0.010329437807848042,0.04317263798274815,0.08236246937461433,0.01860955865547519,0.07349319069066815,0.06281638256638566
0.686,0.005026815309696604,0.031328232181144604,0.02689455979652616,-0.018066179140386066,-0.01132077277435222,0.02830586693538044,0.004138887917501053,0.040734151887539344,0.08434886226498058,0.017146216081707782,0.06087243831073803,0.05630133898054589
0.688,-0.001145531657895285,0.02357698665464876,0.025449540071677962,-0.011166240189936925,-0.013273813337206467,0.024129219978615554,0.0014767579709658234,0.04171106656004337,0.08851046881186511,0.016327174351206324,0.049683275550217024,0.05098408743226654
0.69,-0.0006780104076827862,0.022961755815150746,0.024252003269953054,-0.010767031425669796,-0.012844523462276719,0.023563290430325796,0.003120807719280513,0.046799400765107135,0.09249657985560567,0.015805711763913745,0.042642666571583526,0.04409513918530509
0.692,0.008667212062241194,0.025212122066439,0.016867161014465608,-0.016184786841632014,-0.004643588722098888,0.020869213332989255,0.0070962857297901735,0.053051717959760734,0.08916079236087263,0.01308330110018399,0.03823699622286934,0.03373573890666519
0.694,0.01797558458941108,0.02213393685954811,0.0042311880349836925,-0.018798667665383434,0.0064636336044664915,0.01250484063280158,0.011858626365853789,0.05984205636909614,0.07817398906917877,0.009548137019482244,0.03700482473502319,0.025156551710417897
0.696,0.017749698107158738,0.010441587115163563,-0.007256126141073806,-0.012048410975277599,0.011664351762125373,0.0006030919098255194,0.01691966043054758,0.06679334291374045,0.0655756284772771,0.006746235250159286,0.03868208124910001,0.021247229357765678
0.698,0.008440929007359812,-0.009385512515901731,-0.017562120403147544,0.003096429588877188,0.011264716968791963,-0.014271112384372118,0.021224585452733223,0.06987812587285133,0.055265615858045916,0.0015983726272477733,0.039172768789479714,0.016332445696217238
0.7,-0.0072508900185663215,-0.03716937882750295,-0.029490061888336843,0.024513082369389497,0.00930046502499955,-0.033877616724189326,0.023511915067170836,0.06613740184432321,0.047732698819584904,-0.0076064497430897975,0.03609238442718723,0.00722030889235648
0.702,-0.028924617368336285,-0.06803547949814627,-0.03884275507219554,0.04974207277434992,0.004233279355767764,-0.05416965073582894,0.02389971699249702,0.05912311653303144,0.04293729224230536,-0.016463935035414073,0.03254683015764096,0.0009067541681059901
0.704,-0.04943517944169113,-0.08790072767694088,-0.038609193588464506,0.06912734504885358,-0.0052900272269567825,-0.06450251238923625,0.02441526545447578,0.0556042961529242,0.04132774066375371,-0.019370662770647515,0.03324906693433822,0.005114208427488173
0.706,-0.05631064456125055,-0.08526587997064021,-0.029440536755387176,0.07118149007358872,-0.0138832042046156,-0.05900347550847711,0.02794767471221695,0.05793822524395436,0.04349290219577688,-0.015088751959531728,0.03880080707996924,0.01710716850905642
0.708,-0.04655434688140429,-0.06742566701504722,-0.021370070551688273,0.057564203540629744,-0.014293349636044495,-0.046015624807692286,0.03492906006078013,0.06118587275976239,0.04726895461826211,-0.008192189273990838,0.04344289485445006,0.02597776185437579
0.71,-0.029772320415145142,-0.05488575418177573,-0.02532242939612246,0.04279439598760547,-0.004399192758900102,-0.041430392089900535,0.04109479619807849,0.05863889771987937,0.04673285530024878,-0.006313459127061023,0.04019145066089211,0.02427634414451896
0.712,-0.017763597361038486,-0.05856068721903761,-0.040707761747577564,0.03836305100687344,0.009793222328436265,-0.05092585007759835,0.041551423601108195,0.04988030282053878,0.03866203560316362,-0.01305248604844554,0.029009073868652677,0.014633421311015513
0.714,-0.01612864483373162,-0.06959729889446264,-0.05331747204972489,0.04302141533020069,0.01733258811075744,-0.06319947997008545,0.037210305779054924,0.04174636609346747,0.028592385339718647,-0.023447190297753807,0.016746867213664262,0.0048934594849429375
0.716,-0.01858685500800361,-0.07112766092221556,-0.052509604601669785,0.045234299980430506,0.015479404665585818,-0.0640106864731902,0.03369529644050637,0.04083287338600809,0.02570837229370462,-0.02885234724416699,0.009456914536735151,-0.00011212013721983646
0.718,-0.011621484349709056,-0.056821576998329085,-0.04526445013165257,0.034844071987866716,0.01518767265172219,-0.05291830683196522,0.03380971651032088,0.04621586101869625,0.03130238753055816,-0.026680445503273767,0.007237279654919944,-0.001189507144135813
0.72,0.003747126365505727,-0.0388062997732757,-0.04260109848772184,0.018324544995180114,0.022122657548912048,-0.04167420692122016,0.035028826415617095,0.05108939504610432,0.03620672284734991,-0.023487715677468993,0.005459096852479094,-0.002697535981434559
0.722,0.006174337355626558,-0.03461254482793944,-0.040774925453289014,0.015195615602344035,0.02312871979070667,-0.03836913734840024,0.0342610069815281,0.05066301300869475,0.03122735204474557,-0.027195386678542807,-0.00020838372090396562,-0.009140155132557776
0.724,-0.015945509054808127,-0.04598371759229803,-0.03000663213714285,0.032131876156494314,0.006552852089027138,-0.03941172351756902,0.031606297360271124,0.04594101185481768,0.017331545250544162,-0.037922429281728044,-0.009182734768442679,-0.020790442189611954
0.726,-0.04418335238930908,-0.058310761196279204,-0.014118852699856747,0.05245628170240658,-0.016186247821661896,-0.03825196641705978,0.029191642481810602,0.04056441764426506,0.004134695530197588,-0.04864520688501507,-0.01662659490789487,-0.03210947775460389
0.728,-0.054777662263094454,-0.06256617410159326,-0.007801637835341503,0.05954913392151848,-0.024787392174704808,-0.03668791660108995,0.027211655380223097,0.036367225738315544,-0.0005942111623944025,-0.05412514068955161,-0.01965191023148858,-0.03787046737709413
0.73,-0.04842228394967371,-0.06643174106757227,-0.01802038921785573,0.05764065027634014,-0.016020006745371677,-0.042755752794580416,0.02293397976114785,0.03278368576615769,0.0017630095193347912,-0.055762419350375035,-0.020676238513966487,-0.03959484834393808
0.732,-0.040595611983924695,-0.07582251676335758,-0.03522496348123812,0.05807827176073224,-0.00330373891452994,-0.05612867757795441,0.016819583748515908,0.030795713775495708,0.005607368674179038,-0.056128140097629786,-0.0219979075542622,-0.04102821010303691
0.734,-0.036568480739216744,-0.07800507389129276,-0.04142970090724632,0.057661137969351496,0.0013512344903068077,-0.06152844927448955,0.015750643771415662,0.03484772452061057,0.009983828988728407,-0.053417022275657394,-0.02044142488211228,-0.04023647025125241
0.736,-0.03129081408223483,-0.05821608803856894,-0.026901101945288258,0.045851675731082085,-0.0037626164129386814,-0.04514171135333286,0.024150442423790032,0.047147523567677936,0.016688663592263262,-0.04526820258864448,-0.011928031897028284,-0.0323997753807875
0.738,-0.024413705142297095,-0.02437099383921683,0.0001713321337456714,0.025429429618200466,-0.013661675303384259,-0.01392876429174637,0.03682435572807021,0.0623632680100226,0.02294553755500758,-0.03397650330223848,0.001424787076635379,-0.017868144790771937
0.74,-0.021931960258237793,6.49942405992962e-05,0.022321868087653945,0.011332636355584036,-0.02280036186977555,0.010709008094568002,0.04560695661560458,0.07206013689609728,0.02365176948636292,-0.024670445284059633,0.0127099978759685,-0.0030568459289358144
0.742,-0.025250303867266736,0.0031333483879833497,0.028806531424211183,0.011371522086682665,-0.02736690391750731,0.015669442006624255,0.047626826407429934,0.0723047621596265,0.01884392571047876,-0.021131456504967987,0.016669713646366685,0.005026101304212738
0.744,-0.02851395239379442,-0.00856553357356035,0.020227397260143193,0.019784426695247034,-0.024963709778246742,0.004305200359529572,0.04402769778809831,0.06412727902259838,0.012397763253498366,-0.02409738005561996,0.012714344692633184,0.003625765868951454
0.746,-0.02769585280030747,-0.02485817202443746,0.0029219495534948572,0.028675947575584115,-0.01611707016546803,-0.013716560662168354,0.036315056452225256,0.05067534465662971,0.0054666762896146154,-0.031215454022368812,0.0035445844132274257,-0.00469927692231064
0.748,-0.02495060456575359,-0.0393346265890678,-0.014334262513313956,0.034764665126185576,-0.006080960164203112,-0.02967535122238386,0.027340723809288474,0.037771122399467574,-0.003422870784774643,-0.03852268775165872,-0.007136621574408265,-0.014527599926444453
0.75,-0.02524476382564384,-0.04659608836173171,-0.021319924382062053,0.037715365693558996,-0.00294768039553608,-0.0360024324325437,0.021860122983008396,0.03266566861116004,-0.013084536965435045,-0.042726367456725,-0.01496029147382869,-0.02055833527037218
0.752,-0.033029528435652815,-0.046126652771478475,-0.01321803275566235,0.040682196218904614,-0.011361382685197067,-0.03089085366367441,0.023081403148237627,0.038022660647349,-0.017937350829574997,-0.041803669837850714,-0.014777277771512179,-0.01880201003258788
0.754,-0.047795761508054674,-0.04480988791937689,0.00276140151841501,0.04776337430072113,-0.026802478042604008,-0.02181105634222522,0.03004312339416177,0.04896883950278085,-0.013194447967917827,-0.035487392281774784,-0.00563221137152599,-0.009368978433352953
0.756,-0.06223828171257152,-0.04701678441466048,0.015103675624390803,0.05671488456460843,-0.03977183956810973,-0.016521905576454065,0.03812666037886409,0.05724856521381452,-0.001462145956901561,-0.026885838690249582,0.0037848359668420243,0.00041627921063393757
0.758,-0.06733650920372053,-0.046357156928372084,0.021032217726480992,0.05845081517033032,-0.04505836287205768,-0.01306886307029763,0.041279201444388285,0.0583357439917772,0.00896602261481254,-0.020836342764410896,0.0025864647715077944,0.0019782173343596094
0.76,-0.05732404322118132,-0.0334201265253172,0.02399781498093838,0.045546083830673594,-0.041754696096318204,-0.005235253784287822,0.0361753348310947,0.05437139165452284,0.012163014556056062,-0.019755143373458583,-0.009605824963342452,-0.005460996792503005
0.762,-0.033356004950655826,-0.010132570332240775,0.023242542131985646,0.021229630260674502,-0.02950023209027313,0.00558759036836598,0.02517374913952393,0.048925856131121194,0.007265651074860282,-0.023156269238569158,-0.024958740823547015,-0.01770345958388903
0.764,-0.007252033238414754,0.008956895783219053,0.016189247055066355,-0.00032406687763470495,-0.012619765081174157,0.011204500455356889,0.013668431810444541,0.041361477619215825,-0.004586612227469096,-0.029859860671394182,-0.03784708901420843,-0.03211428685902634
0.766,0.002888457511793134,0.01073372703057942,0.00794604105030239,-0.0045824133933742035,-0.0031314865791346696,0.007914168527624535,0.005439320172976086,0.0303899715340884,-0.020611900574849473,-0.03846657823328532,-0.045770464835370395,-0.04511749366540873
0.768,-0.012481336932956505,-0.004221542068214208,0.00859519074488377,0.011094276751447207,-0.011091428860557041,0.0010158799652937058,0.0015968105825795594,0.02035863969828526,-0.03455893268696946,-0.04615078974239254,-0.04636206069519294,-0.050633448970419645
0.77,-0.04299919112460382,-0.024092445302318716,0.01934980906942903,0.03533956846898775,-0.03175372609777241,-0.0031671067800630778,0.001908691014112455,0.018029369263711393,-0.03956794997053195,-0.04863728837405111,-0.039589330272115496,-0.046467266064754674
0.772,-0.06616162581408036,-0.0373234554905469,0.029099141656044308,0.05266655283671403,-0.04835733278671411,-0.004757909142255659,0.005579179134665765,0.024237884365525843,-0.03440223191866449,-0.04347995483604168,-0.029204905850306558,-0.03714967476085339
0.774,-0.06820784222671208,-0.03896357125029653,0.029231973570747645,0.05469712313946938,-0.049829754817563146,-0.005914010317041063,0.011461693240238276,0.03418257754012066,-0.024006356324066995,-0.03304025148618761,-0.019466828218052477,-0.028069230021442335
0.776,-0.054124960246453156,-0.030705575138727497,0.023397851047871433,0.043780668194389534,-0.040149816842507825,-0.0052933079402447255,0.01808746865141227,0.044367341585565594,-0.013215937057357154,-0.021836530773979776,-0.011796708209559312,-0.019866831720783046
0.778,-0.03861042218418024,-0.02083976339113414,0.01801422625629379,0.030395992433029748,-0.029414610019964278,-0.003015278155205162,0.023957232657255214,0.053822603583314456,-0.0032916644145065434,-0.012309304848154522,-0.005204512496416508,-0.010422755383592964
0.78,-0.033052647627656064,-0.018569389426071246,0.01482514909329942,0.025653815870359746,-0.024367479492592676,-0.0028987703394230233,0.028447530645900037,0.060844107736448064,0.005156643702920315,-0.005573775913309825,-0.000225311046375604,-0.00206617085032267
0.782,-0.03938386947350355,-0.02262856347358268,0.01674127026526243,0.031105996768710915,-0.028216579673594977,-0.0039060718699090976,0.032174547241926435,0.06419641479121277,0.010595512460987297,-0.003233799050850786,-0.0009258789386729564,-0.003178100827609
0.784,-0.04948117917819343,-0.020720345890035675,0.028312955905607274,0.0362838780117523,-0.03957366746264109,0.0020388496743999796,0.03666962780888665,0.06711207158920343,0.013989424668784393,-0.0049564454346386995,-0.00961952943503816,-0.018370307220148294
0.786,-0.05191552065844794,-0.0040218906542614135,0.04746106904698402,0.030014332405057347,-0.051196106561034294,0.019316977181727004,0.04386974093876329,0.07639500044428188,0.02098891502087362,-0.005968733674564676,-0.02061395341845489,-0.039638983195146055
0.788,-0.044737310424541335,0.021369237808265745,0.06605387519563562,0.013817729603282357,-0.05746429589299491,0.041693924897638075,0.05428515993089588,0.09578514657628774,0.038776945384628295,0.0013146097530845598,-0.023401561700854098,-0.05168206435898223
0.79,-0.036585587576606744,0.041388382478292435,0.07817568997536388,-0.0009254419582328299,-0.05973549198421536,0.05862874972694303,0.06527137068780113,0.1217121276612162,0.07174625301496791,0.023940932495867314,-0.011470042235547255,-0.04453867625655491
0.792,-0.030189795073188388,0.051773030918050314,0.08209538823764309,-0.010140962606889986,-0.05872349649498611,0.06608654287767599,0.07235818186144845,0.14692375561754614,0.12060500063783482,0.06602064069051197,0.01528898709670311,-0.019390525219508622
0.794,-0.015513012345378871,0.06274916226055859,0.07824097623545537,-0.023200693845614757,-0.04964185406972583,0.06932926832791061,0.07117043827493706,0.16485625557647426,0.18300954330521044,0.12791244035420143,0.05513812925495924,0.015915380899182107
0.796,0.012266551025091,0.08195628254204752,0.06972836567150235,-0.04644018369106595,-0.03154735925107378,0.07422864472752967,0.05672277838371715,0.16879155849859126,0.25288641658260586,0.20678127803752414,0.10690417440212176,0.05495129107204594
0.798,0.03947485649164653,0.1003609301083289,0.061192380098906436,-0.06934320536447673,-0.01356486973152609,0.07868484154457506,0.023711251402992378,0.15284845796838042,0.3218583334073506,0.29721518198983227,0.16818990607398562,0.09629577241378671
0.8,0.05235586521253415,0.10538416198889522,0.053491226462487856,-0.078906734994133,-0.0030104099859316804,0.07683468326815046,-0.02897582935593298,0.11843974637280677,0.3841936161298702,0.3917742925709952,0.2348622044215204,0.1410543834576063
0.802,0.0626872074808635,0.10210664259031416,0.039705749321381205,-0.08271765167710621,0.009538088995563642,0.06811991673444978,-0.09507284977538245,0.07738499699284361,0.4389207599382268,0.48250467742132613,0.30233533372700183,0.18832114033946407
0.804,0.09836430799078945,0.10676346506708355,0.008366195580097102,-0.10230808333531145,0.04382372902019527,0.05522055125408498,-0.16551106867261728,0.04337929243962688,0.4866723035041612,0.5630057833064205,0.3653953053825629,0.23302243055493238
0.806,0.16870137967932658,0.1222460355361415,-0.04662140796954524,-0.14443133994894813,0.10724755356994697,0.036152022581866776,-0.23787919407608416,0.01356263293717513,0.525998562894648,0.6308325069411281,0.4194818758442729,0.27045715907046397
0.808,0.2530352007421259,0.13558331443703586,-0.1174988656141336,-0.19306325999335938,0.18507365232492073,0.007507348174190963,-0.32042653336817506,-0.04109928558073318,0.5530699547048412,0.6897396737724012,0.4662753825971441,0.30428464479772493
0.81,0.3246666433144306,0.1400138841502422,-0.1844669782766903,-0.231280551393405,0.253999158621141,-0.02437087095372068,-0.42329207350293424,-0.15276985935604412,0.5667560940170346,0.7483480724508912,0.5156525783832203,0.34487849713396274
0.812,0.3777124554805985,0.14710782426325925,-0.23021370046257222,-0.2613421004598228,0.30289363136274766,-0.044228776524582486,-0.5448841380013103,-0.31570976602646983,0.5768198337460307,0.8161528824325398,0.5781827528254402,0.39789724420388733
0.814,0.42961771119196357,0.17244247898989978,-0.2567296867618397,-0.29959919007857116,0.34181903976518335,-0.04445412365698373,-0.6712118808283632,-0.4814402396032079,0.6041008186271472,0.9023688360453707,0.6576897270813257,0.46075910981068524
0.816,0.5008723189202502,0.2165478861132431,-0.283993547104836,-0.3567303004538709,0.3910266582303529,-0.034991596120970664,-0.7919817389701133,-0.6102569484451091,0.6638103870192961,1.0141461278028254,0.7529373944960593,0.5310420920783335
0.818,0.5939760332988947,0.26730702480184554,-0.326515377476429,-0.42819573666197713,0.4589494530287911,-0.030140977021887564,-0.9144461401599294,-0.7209529235476522,0.7456767185359167,1.1493469125174316,0.8624930766817502,0.6115279011187584
0.82,0.6929365363660372,0.3177762341805695,-0.37520038389904126,-0.5027829934109289,0.5329161327015353,-0.029436558141558055,-1.0543031233368012,-0.8692827764198952,0.8169313983493746,1.2904456884080668,0.9821307802080192,0.703480824622995
0.822,0.7825108434501248,0.37412818333919,-0.40859875063283957,-0.5761327387005827,0.5943335504538624,-0.01884169141708051,-1.2103875765764407,-1.0760956440173042,0.8483855379383273,1.40617653382615,1.0964068643310154,0.796208398827322
0.824,0.8608877593013463,0.4428649732590351,-0.4182568381866858,-0.6506201803641501,0.6378808616616264,0.009743768302355769,-1.353312739326268,-1.2941064379707603,0.8344085172862415,1.462524146212828,1.1793007877302881,0.8681572866318148
0.826,0.9260595399081323,0.5085062856991943,-0.4176242088163898,-0.7171009932056902,0.6695228127862082,0.04239428537230373,-1.4426734155722836,-1.4462890769967234,0.7868599143897486,1.4378790501723597,1.2074053880979438,0.9006692277763436
0.828,0.9576028109003147,0.5284193967760605,-0.4291246375143613,-0.743249438639259,0.6909743934232114,0.04678250783037172,-1.4539948409610182,-1.4823333599891209,0.7162552748966291,1.3277539589944796,1.1680718759140234,0.8853517525150697
0.83,0.9293001113273817,0.46436637263951863,-0.4649832812066385,-0.6965352183181406,0.6956375414754896,-0.0024090558502941374,-1.3885226421147192,-1.4011825854385926,0.6237959745525694,1.1367140529183535,1.055700867564301,0.8187944923490074
0.832,0.8412851715286543,0.3269591748141731,-0.5146552775587809,-0.5830926560851708,0.6776983643453213,-0.09487219334004293,-1.262801142344998,-1.2409800192911207,0.5056773533285889,0.875969619892749,0.8725453565378068,0.70160090946407
0.834,0.7218672610334222,0.17523506893470014,-0.547121769638033,-0.4473876212842048,0.6348096188226541,-0.1862632653760807,-1.095223772529022,-1.0534809304751234,0.36119737138457514,0.5761885585165845,0.641098353958475,0.5478378474284211
0.836,0.5934953585269418,0.05871316369363537,-0.5351678487042199,-0.32515851137850077,0.5642909349866897,-0.23900506494299847,-0.899566410636557,-0.8708057238242795,0.20352672275409178,0.29370643926121837,0.40790784059000224,0.3879542971429163
0.838,0.4587654966060968,-0.02484116840231989,-0.48376257291173974,-0.21593484752229922,0.4705025977838226,-0.25648684616722883,-0.6877578960248384,-0.6914292184121387,0.060352754625092715,0.08437659464674803,0.2213209525853806,0.25382174398116564
0.84,0.3235030833696791,-0.09914799340402428,-0.4225822333941174,-0.11071670514052434,0.3719733802201482,-0.26414795225371196,-0.48046479317380036,-0.5089308900947528,-0.04734203795926871,-0.03520552945225447,0.10114830791970485,0.16013360719984346
0.842,0.2070226423069759,-0.16220527107031904,-0.3689968367886663,-0.02073480328091483,0.287139263594816,-0.2688053201035668,-0.30740537832522413,-0.3434806426731209,-0.12276299070221493,-0.09216719808751303,0.032681372924854776,0.10020780468456879
0.844,0.12286878893716945,-0.19411714956583487,-0.31673847752207257,0.03675908340843369,0.21904294238935657,-0.2576303202226238,-0.1873388903342193,-0.22396861986275948,-0.17860960356690825,-0.12310502087293854,-0.01163225768692064,0.05578825997463039
0.846,0.06733216098149215,-0.19232312724105377,-0.25946526913425194,0.0626090268134511,0.16240007643087892,-0.22691056095399612,-0.1136600803681254,-0.15042412237469582,-0.21308480328754276,-0.14360260997566693,-0.04813157671078759,0.01267135603030248
0.848,0.030543011651383723,-0.17421788605069366,-0.20451539161200546,0.0713948331339838,0.11628113403834803,-0.18973515321498302,-0.06711524032576496,-0.09787743218585251,-0.21482685743513527,-0.14987659045776688,-0.0765178054281494,-0.028052680040603697
0.85,0.009211284984055003,-0.1531148056972031,-0.1619791448594038,0.07198108790111656,0.08425122488071635,-0.1583296130911243,-0.035196069868489,-0.0502150420027209,-0.18550600637898404,-0.13779929699691534,-0.09119267918260147,-0.05507749044261306
0.852,0.004638054153340378,-0.1283226651336633,-0.1326778038876842,0.06288601309874997,0.06723976487760301,-0.1325225157707452,-0.01217105346455642,-0.009546852797599878,-0.14249812630312866,-0.11185704816825018,-0.0916629448001572,-0.062011438502529465
0.854,0.010645391902599131,-0.09760550833516655,-0.10810185487061028,0.04508790364976775,0.05790710687931159,-0.10589348783530596,0.009598119766992165,0.022460478242306035,-0.10135338386789777,-0.07948530075583385,-0.08151438615415105,-0.05208000949108347
0.856,0.00998785242558524,-0.06919643442955382,-0.07898465578251286,0.030990856002625168,0.04304328608887912,-0.0771553447133831,0.03517381772063041,0.05157772382037898,-0.0677794324333694,-0.0468770965696677,-0.0647674686844331,-0.03239778641559309
0.858,-0.01121723822253793,-0.05734095387177221,-0.04577926198822084,0.03525336871252938,0.0157668628059301,-0.0538538638858467,0.058604856115968954,0.07862035028406682,-0.04554532877343656,-0.02285363800189163,-0.04833148900513638,-0.012476039699556319
0.86,-0.04821052861212996,-0.06728900978008172,-0.01879375224386589,0.05862186557103992,-0.01637100188118454,-0.04432838516530467,0.07043334025496811,0.09591135503345163,-0.039095539833938917,-0.016593585415486004,-0.04222437140480329,-0.003322752759717283
0.862,-0.08176755185224534,-0.08696092409030151,-0.005184520670518068,0.08522487172682051,-0.039732242838931515,-0.04645870588988557,0.07115920736764832,0.09923850494269634,-0.045510938456310296,-0.025976615015650927,-0.05062788545693777,-0.008730343237093168
0.864,-0.09396664729199673,-0.09609456531854665,-0.0023716689601762627,0.09577432200076058,-0.04658754305276906,-0.04911535692179888,0.06931121784106095,0.09368861493860933,-0.0545469682344921,-0.03773220967894814,-0.06584729032138288,-0.020532937218772675
0.866,-0.07899721462396891,-0.08496410389672371,-0.006229477153170059,0.08293135331876945,-0.036743214936083256,-0.045721712931067346,0.0699363867658251,0.0870077529961451,-0.059656464941233896,-0.042892492395607426,-0.07621675612259124,-0.027765965329180364
0.868,-0.04794407109621903,-0.06301640962148251,-0.015008350145527495,0.05720078401186652,-0.016891168665340586,-0.04009381044254305,0.07166926292208682,0.0840715390852678,-0.06179827877740139,-0.04277333124771439,-0.07730578803264454,-0.027817059403249085
0.87,-0.023122220739055795,-0.04721208352194732,-0.023533949773441983,0.037509331688058464,-0.00031031033475813923,-0.03735096406067457,0.07177735211393924,0.08676936435621498,-0.06286672255386323,-0.04009352488723127,-0.07230205850768957,-0.02566658992919164
0.872,-0.017690298330769533,-0.04245638142352574,-0.024047744885066953,0.032195633901525356,0.0027518481309281987,-0.03525566901667291,0.07032234406624173,0.0945287852260839,-0.06131783784402679,-0.034083460905661195,-0.06488088760892355,-0.02438314616581294
0.874,-0.02291406788414578,-0.038781971790783826,-0.015540617433845319,0.032388476977210305,-0.004230801385113959,-0.028478494829828803,0.07142494670750024,0.10501649421435905,-0.054505149023929216,-0.024031262662979183,-0.05573787441325475,-0.021051058594045245
0.876,-0.023512068568292573,-0.029638647404529206,-0.0063866970991311445,0.028012305205827277,-0.009541551968909677,-0.018651935497783607,0.07970819451716693,0.11512066077338892,-0.04371907452800908,-0.01232389906321836,-0.04609494940174027,-0.013765068723615733
0.878,-0.02072913086883762,-0.023660689037102233,-0.003487585570313764,0.02390722201334288,-0.009727200349115752,-0.013926468118096752,0.09370094059620894,0.12202565540038669,-0.03530301029981198,-0.003506079763522336,-0.04045627877904123,-0.007490449330016763
0.88,-0.028983739621122814,-0.03130999512688387,-0.0026776478712287185,0.03191728714281418,-0.013623084193934999,-0.017520536379347494,0.10582467012092203,0.12514910932023368,-0.03443029963647031,-3.3143941166998304e-05,-0.04198798558729214,-0.008133966100798508
0.882,-0.0504960491067947,-0.048292274887737324,0.002379933663054694,0.05092103464233887,-0.026091306983793094,-0.024023051826090856,0.11016683826179416,0.12586343168891523,-0.0397650578114815,3.0239779667033212e-05,-0.04836762971883326,-0.014481859259769565
0.884,-0.06829732208813769,-0.0614850383497794,0.007321355577298327,0.06612313552518814,-0.037433513009526076,-0.02873118627602862,0.10735580719480284,0.1239815193388856,-0.046703952223868195,-0.0014876657848890422,-0.056230653240256785,-0.02098113385827474
0.886,-0.0695557371869947,-0.06563145373712471,0.004177449575677259,0.06848856801164821,-0.037331356794940124,-0.032570706547418456,0.1021312883156023,0.11781604290158537,-0.05255240030301369,-0.006720115663888742,-0.06578644516245506,-0.025906647143522032
0.888,-0.062226525467370904,-0.06571599832391023,-0.003832378079573392,0.06450455174708655,-0.03054934960971341,-0.036175942301585856,0.09922118806985913,0.1095214551045413,-0.05603428262905252,-0.01649576492654545,-0.07679632224627274,-0.03167732023575932
0.89,-0.06340469774615749,-0.0662415112064992,-0.0034674857294603595,0.0653077934135578,-0.031723371459765996,-0.035568100629853765,0.10110647150524565,0.10548453753817771,-0.05507970055812098,-0.024746027728205524,-0.08386597280338211,-0.03767017480626997
0.892,-0.08019396337140641,-0.06665266133804032,0.013187330834260928,0.07433157969512816,-0.04863656378625297,-0.027335702292345696,0.10613745945944549,0.10785850609354733,-0.04911537321029552,-0.02542674779457405,-0.08199041012700237,-0.03854915052493773
0.894,-0.1036127072201046,-0.06725362025328437,0.03644765769380076,0.08684313108061312,-0.07223003241843519,-0.01664471187575517,0.10837626134979562,0.11071091457544846,-0.04283525491188226,-0.022460028988878757,-0.07489216981590709,-0.03193365194304921
0.896,-0.11750150192420575,-0.07163483393252261,0.04611789903469162,0.09596790644629172,-0.08403021986679267,-0.014632336855502498,0.10303385117262452,0.10844017634562977,-0.04395961973029236,-0.024763442999222285,-0.07112035115574858,-0.022866030541103977
0.898,-0.11456551542339176,-0.08031655187204481,0.03444943793904915,0.0981231510108487,-0.07626593092149984,-0.02483709954458939,0.09246426920494347,0.10303006477863823,-0.05549653812123692,-0.033788033755851266,-0.07292998405511512,-0.017940358091091773
0.9,-0.10128308694398189,-0.08600330331347018,0.015518516222318502,0.09346722996925837,-0.05967747711077315,-0.036920567273378974,0.08395940525581373,0.10026458719008578,-0.07101577238222237,-0.042577060302842695,-0.07461553901379886,-0.017795541310713942
0.902,-0.08512105255798563,-0.08004349648830078,0.005398241995530692,0.08230345027938724,-0.04654835556959602,-0.03909734512034678,0.08166361981397224,0.1021013978271431,-0.08019622367061462,-0.045540784333847686,-0.07174046045483623,-0.01804621053826979
0.904,-0.06756223430985048,-0.06558338676031307,0.0020909226948508585,0.06704302513977047,-0.036286725723523997,-0.03371812111209603,0.08235458508069204,0.10392114741600982,-0.08045252164690266,-0.0451613909441747,-0.06797550437464536,-0.017135548681824854
0.906,-0.05277314100645585,-0.05679726610887462,-0.004460368953582912,0.05587467622713848,-0.025408831614328897,-0.032332498640793815,0.0803575781840736,0.09994438800128787,-0.07846538210281151,-0.04752296342969611,-0.06988662527706725,-0.018884725756399115
0.908,-0.04821814523107761,-0.05960445913176248,-0.012264473972162139,0.05477548165695351,-0.01875709535843694,-0.03702515188113287,0.07568180591986429,0.09189709002160776,-0.07809980574699071,-0.05180541050630888,-0.07646206567502097,-0.024777671474184977
0.91,-0.05301734360445022,-0.0633461116085179,-0.011087958558135854,0.05856687027033191,-0.021333011733414734,-0.037983942834768275,0.07452084738891902,0.08861553967542818,-0.0747814696129387,-0.049420961046313085,-0.07866940619324585,-0.028828462328002437
0.912,-0.057448169340248094,-0.05715736223025415,0.00011086266432639081,0.05784243847741706,-0.029003880245716294,-0.029619159021354514,0.08210231042743868,0.09547202390484352,-0.06503192042898417,-0.036846392133742877,-0.07071672769664741,-0.024767343148817685
0.914,-0.056716965485657404,-0.04525520040159665,0.01184397059589576,0.0521287195765492,-0.034968749374605715,-0.018510454374579204,0.09638839281864214,0.10760378530019511,-0.05378119075397953,-0.023207848994602896,-0.05862882198229432,-0.015799549173572715
0.916,-0.05694705754213656,-0.04028204574462969,0.01734532938172567,0.05000387612289673,-0.038937078463830654,-0.01367911352019119,0.10806678185736826,0.11476592135838536,-0.04960997333362424,-0.020227629602533468,-0.05504520165825532,-0.012944923676234265
0.918,-0.06458559510155948,-0.046479122320164455,0.01884836935333677,0.056687972590036315,-0.04455518418059363,-0.015771231578813705,0.10877653860254392,0.11163720598398749,-0.05645508335828523,-0.0295164628137639,-0.06552699078970667,-0.02285814027090965
0.92,-0.07809988691213805,-0.05772852056434904,0.02092806302021417,0.06896326249907204,-0.052665502155005754,-0.019756816456133846,0.10000215687806861,0.10226440840380839,-0.07043369644337893,-0.04416703651325071,-0.08304301050485353,-0.04031449146377249
0.922,-0.09152499600028248,-0.06926210608851477,0.022460829979208508,0.08179269608690994,-0.05976216520153668,-0.024321196461793943,0.08994492577428628,0.09318388077042777,-0.08452982487985326,-0.058533652900993174,-0.09729174450427831,-0.05486126053714345
0.924,-0.09661579960517813,-0.07774978500927342,0.018843924228661362,0.0890952448954569,-0.05977551651439013,-0.0303479545695393,0.08378993187009091,0.08557227877187934,-0.09502772678589536,-0.07074491965731086,-0.10461873803409365,-0.06126523497048783
0.926,-0.08602168060284719,-0.0745331757630481,0.011523947048335183,0.08252880160655898,-0.04994632781968757,-0.0327430902055226,0.08209782532122366,0.07845716102243798,-0.10117330145629409,-0.07820698090164749,-0.10650774702604653,-0.06066457425494585
0.928,-0.06450119827165121,-0.05702712157691005,0.007553458751138201,0.06315861435079863,-0.03653538287573184,-0.026277747615096127,0.08450958078946001,0.07473383195725557,-0.10218131100840609,-0.07736515721735363,-0.10392237015106169,-0.055323943932535015
0.93,-0.048338538685154586,-0.040426997461241766,0.007821276716618612,0.046845076903543136,-0.02871260620851195,-0.01746619047537874,0.08958830724492607,0.07793182373333081,-0.09805895696102311,-0.06849580557619964,-0.0967890352838613,-0.04555730796056921
0.932,-0.047634344084629125,-0.04092723074459861,0.006471487277645224,0.04673747200284865,-0.028590574685968845,-0.01736160598737979,0.0941136209450934,0.08652122513438326,-0.09065188043195904,-0.056998293569839424,-0.0864302754209558,-0.031162151351851772
0.934,-0.05944035602258841,-0.05577335810763563,0.003527275089063072,0.0597959099610435,-0.033842862126111206,-0.025688383759831346,0.09612519910486493,0.09543706046265965,-0.08315569117416323,-0.04931863189302417,-0.07622998266838157,-0.015876897790310623
0.936,-0.07842803597464139,-0.07155380711992472,0.006922721216370324,0.07657387160422441,-0.0449541047398339,-0.03265248189620555,0.09658200346315127,0.10071754176725714,-0.08014067211129336,-0.048931522270909335,-0.07033151504101397,-0.00868633208407947
0.938,-0.10107309166368522,-0.08084870290695288,0.020328131080705688,0.09192492227922903,-0.06198978171694326,-0.0319425594418624,0.09713975421452627,0.1016728195774034,-0.0843815546429172,-0.05488885670406755,-0.07099543175228154,-0.015131944516186225
0.94,-0.11924702887748191,-0.08320428061158425,0.03604699789386342,0.10194741041525658,-0.07780776071398166,-0.02559404926460384,0.0991115743994022,0.10100678950277944,-0.09146140650704555,-0.06241842190510679,-0.07605982096940246,-0.02815092248906571
0.942,-0.12230181642570852,-0.08002610009986744,0.04210078958602918,0.1021001044764806,-0.08206880759279256,-0.019929002108976586,0.10303819531070721,0.10142165872732581,-0.09365104989119317,-0.0668045444252905,-0.0810942789250156,-0.03576436013071032
0.944,-0.10725402188316652,-0.07289693312809291,0.03399431147939898,0.09154731388819734,-0.07133241802964965,-0.01915807743982328,0.10596413254462343,0.10062832564167948,-0.09135156275035564,-0.06822384991277612,-0.08554025653941393,-0.03664492846246312
0.946,-0.08023866462316515,-0.0618916570859577,0.017931165683842336,0.07295605281625096,-0.05096421761527369,-0.021422481074873833,0.10340256457279383,0.0946409515001454,-0.09324222182138037,-0.07077464645597784,-0.09319709597411058,-0.03935486410949828
