time,I,II,III,aVR,aVL,aVF,V1,V2,V3,V4,V5,V6
0.0,-0.003115426137761912,0.0008556452068501026,0.003971071344612015,0.0011847395171770653,-0.0035322789308427317,0.0023475394136656664,0.0020403847240271678,0.0016015923102578845,0.0014918942068155637,0.0013821961033732427,0.0009653433102924235,0.0009653433102924235
0.002,-0.019721880107191354,0.005340711059312866,0.025062591166504222,0.00752984374790067,-0.02232657775412435,0.01479673400622368,0.012958313289967393,0.009915145187949023,0.009258566360714636,0.008272893223153286,0.004922248472812509,0.004922248472812509
0.004,-0.05389332232959381,0.012590606785567095,0.06648392911516092,0.021601382166668463,-0.060024916192404104,0.03842353402573564,0.0346953123933346,0.025015682650948272,0.023268889247773407,0.019332963156010734,0.0070472824749948605,0.007135040957748717
0.006,-0.08235791923926801,0.009970676780976814,0.09232859602024485,0.03786264014812612,-0.08714292483191154,0.049280284683785425,0.04912137550688442,0.030113600945854302,0.027124599829844314,0.01780145705672559,-0.009499608513439783,-0.008974345451652276
0.008,-0.07455244794531056,-0.013413068788499963,0.061139379156810586,0.04614345924697374,-0.06778380109809946,0.021640341851125736,0.034969367298159075,0.00863383313320661,0.00431811833940609,-0.010508779954339896,-0.05190163578607992,-0.05059195954629389
0.01,-0.03607449562030044,-0.04170430635154724,-0.005607871110558374,0.041083230211641994,-0.015398888704568908,-0.025684341507073088,0.0032578285937211243,-0.025116726809359093,-0.031010537355256655,-0.04824253544131655,-0.09474885168699135,-0.0930584308214786
0.012,-0.007093117683897997,-0.0461404696758657,-0.03889409660583239,0.028325232019062604,0.015670976621817916,-0.04399620864088053,-0.010706820902221283,-0.03759587848884034,-0.04444660414653662,-0.06056156883237928,-0.10366290289216022,-0.10264074020668397
0.014,-0.021008017599326984,-0.025983210744693314,-0.004516458319972931,0.024536195062752685,-0.008307106183220135,-0.016207149258844096,0.009286487805425995,-0.01722877640527049,-0.023433530363110962,-0.037468970991824224,-0.07630893437038269,-0.07641162821093334
0.016,-0.07023858086958329,-0.009482059668870522,0.0615065454770375,0.04062693340085781,-0.06584391745666648,0.02523860171781324,0.04317103090375629,0.014073073336347127,0.009399278475979564,-0.003833667096996003,-0.04228122295026723,-0.04297410748042449
0.018,-0.10676636759816485,-0.017828647254121942,0.0896158662317902,0.06335761547223175,-0.09849086132615442,0.03480408608663482,0.056506312269581985,0.024844630715915198,0.021521150926698342,0.007932058391963717,-0.031895346749809275,-0.03291448652135308
0.02,-0.09207537239460188,-0.04853046572610203,0.04377477387973124,0.0718250164270701,-0.0688517004078374,-0.004297504206029364,0.03312742369332568,0.0022228776935043675,0.0007006807223885668,-0.013478365615887939,-0.05284993187378182,-0.055068784423548074
0.022,-0.04651552737221573,-0.08254086463229232,-0.036196807326893024,0.06619357824290799,-0.006598889317583462,-0.06221845126652312,-0.007255768070609873,-0.03519432220666702,-0.03355380194700198,-0.04895088952398767,-0.08551885234701803,-0.0896998792657861
0.024,-0.0197695458984939,-0.08960307621041795,-0.07006448224950805,0.056014746924169634,0.02340382479283377,-0.08301562266095334,-0.02299729309778962,-0.05008616478191156,-0.0449914957432975,-0.06266562434514918,-0.09610546482176495,-0.10101494690333264
0.026,-0.02006794514105871,-0.045272376482477505,-0.025352832896921706,0.03339559252346245,0.0006745605029269035,-0.03794740181744562,0.008500972250069039,-0.02217495153623806,-0.01518453483749611,-0.03455613576417561,-0.0666519314765869,-0.06937613800769792
0.028,-0.01207040001848523,0.031181792823030102,0.04302732202425201,-0.009308372788306788,-0.02956273779002493,0.03548956963553797,0.06015772618321043,0.02426600713511715,0.031236232103871612,0.012461267611195426,-0.020229852801598603,-0.01907438408949753
0.03,0.01759453150850362,0.07425090128354289,0.05629234401954824,-0.045755004527934025,-0.021114659191026435,0.06444544083431558,0.07872330238715042,0.040995217678602223,0.04664188461228798,0.029905381319059576,-0.0032306885184947842,9.10499425619618e-05
0.032,0.03415676247410694,0.04223282485818823,0.007793077046002583,-0.037614428269928,0.01188809173695013,0.024296429506887696,0.04773536616795622,0.012356886068608571,0.01600618193578541,0.0011802920042800482,-0.03077761074568517,-0.02863523114349854
0.034,0.005770054485478196,-0.02476153105804082,-0.030550836279672748,0.010932389789007364,0.01746684030730343,-0.028911802342926115,0.009675008186653847,-0.02384308852848871,-0.02160103114464178,-0.03495119560585618,-0.06539581457546811,-0.065825788498974
0.036,-0.04798869118741045,-0.052904191910073436,-0.004776201633701335,0.0527683714723733,-0.021740624086664023,-0.030854362631638738,0.010630235634088804,-0.02515849769830449,-0.022494623460165293,-0.03546148047636443,-0.06576266996097896,-0.0676969346147416
0.038,-0.07549803130231572,-0.026466806319018238,0.04911582763243109,0.05351660823182241,-0.06214496362908233,0.008977307851392306,0.04158849211863603,0.0013778091932310178,0.005861144054641452,-0.008853548813214427,-0.04042796699713511,-0.0425406181543194
0.04,-0.050395073739356304,0.004601490896402615,0.05496418931675427,0.02476587569925885,-0.05253322642137626,0.027766246694908344,0.056162046931555056,0.013255176809305458,0.019639562998621077,0.002025385463791694,-0.031591550993535555,-0.03325336214167922
0.042,-0.000150902354389306,-0.002129054674201221,-0.0020616106992573315,0.0020694078274381125,0.0007879466367146509,-0.0037485959641679273,0.03385166811509766,-0.009450411486969807,-0.0014611644887815153,-0.02099246914283998,-0.056271381048343484,-0.05707527967803025
0.044,0.025093140867022034,-0.034677857143796585,-0.05991441614342988,0.005118751087131708,0.041662613805454676,-0.04919415144205368,0.0012917825564396418,-0.04230608994408359,-0.03293742878390817,-0.052893530510722125,-0.08774131311898521,-0.0876308185155719
0.046,0.008668143094104819,-0.053399528792849975,-0.06236744988782537,0.02257784208162377,0.03391273852358599,-0.06034094984418362,-0.007192532266829167,-0.05193087515966276,-0.04211926037563923,-0.06198734621310653,-0.09392396655531592,-0.09357090322773348
0.048,-0.023028019037069945,-0.04248253786691491,-0.01985731901903134,0.03330898894348096,-0.003468948085743212,-0.0338404018105665,0.010894226163054143,-0.03458257321062181,-0.025687425165063383,-0.045931954349485306,-0.07440137501423578,-0.0748592424905719
0.05,-0.0485125062451236,-0.023325504055450863,0.024925855857301032,0.037014863935596304,-0.03846861403222425,-0.0015459273828888097,0.03338309191720033,-0.011921096099857573,-0.004094078323949454,-0.02545903539902558,-0.05268976055392757,-0.054468383511423996
0.052,-0.08082878315467537,-0.021843446672166904,0.05897559154296167,0.05273360858845233,-0.07185588371014925,0.016858360871389463,0.0458288843207552,0.0005629293783446491,0.008265865393101004,-0.013776844454522933,-0.043641254232070235,-0.04592979281625462
0.054,-0.12668561714809642,-0.03652937340559259,0.09014540585183166,0.08293403818413272,-0.11106051198540806,0.025697729687882403,0.05011810889795183,0.004559868411885526,0.01213476655178659,-0.008196617537964348,-0.04336460703259562,-0.04465084501971482
0.056,-0.1422767032637107,-0.04602729662033164,0.09585962825318853,0.09527412302313146,-0.12211023904696915,0.02402523850792814,0.046173873096106835,0.0009748270355791344,0.0070319120690264985,-0.009368711019978757,-0.04851971360914223,-0.04830039029858002
0.058,-0.08323641626793965,-0.03834943541595564,0.04411735210891588,0.0618428427776309,-0.06616097386456138,0.001681981241250176,0.029543236338687707,-0.014591186049336808,-0.011380249401244026,-0.024070439596592306,-0.06285596875557575,-0.062078892486624154
0.06,0.012567668239334109,-0.02230902245394662,-0.03548088153093822,0.0061801716992668934,0.02287004661902235,-0.030727775858779994,0.009143758077409676,-0.03429699924567027,-0.034105500474650836,-0.04448860323214184,-0.08025096690693236,-0.07996145919155057
0.062,0.0555730674788532,-0.01532129821410798,-0.07080192767285987,-0.018250843340401408,0.063236940056446,-0.045352128215726505,0.002874255786608403,-0.040638401444630254,-0.04188208140262992,-0.05044162326226232,-0.08456006322038916,-0.08491737447832015
0.064,0.015095261979829359,-0.025926501064525466,-0.04039897802282647,0.007654965227022212,0.027873600394207058,-0.035449651472740075,0.013037546040663275,-0.030414586086386544,-0.03040606200677425,-0.037193012576722716,-0.07165079550451056,-0.07246223248022497
0.066,-0.050544595117109736,-0.04435059668782072,0.006696992770006212,0.04941466960543205,-0.02972469940993277,-0.02073948676729069,0.024725541895466056,-0.01789474294205846,-0.015134746590855511,-0.020769636597621037,-0.054544413618094395,-0.05584561967511627
0.068,-0.07353743461038903,-0.05029574971285257,0.023356646350053568,0.06335071725929824,-0.05106329158335624,-0.014787154296216385,0.028196569488994034,-0.013755915622989634,-0.008658197260117692,-0.013736108619268035,-0.04455877166632757,-0.04608973003599013
0.07,-0.05167576805224051,-0.03680565182521079,0.014936482153338015,0.04539693772316882,-0.03643501745929312,-0.011666988918035585,0.02791908275544969,-0.014694796830486804,-0.00826687261994019,-0.012619961779029413,-0.040513434748874214,-0.041464063467370284
0.072,-0.034986785248379976,-0.024418188964479906,0.010867574543725916,0.030580642436330876,-0.025317431918900946,-0.007338682045579541,0.028041469066293703,-0.015999376310678503,-0.009739369432939432,-0.013015839468283151,-0.03991971028933543,-0.03997947418316405
0.074,-0.057167172260912565,-0.03938652312950493,0.018115823722576276,0.0485851901148785,-0.038878402678035495,-0.011633113191750174,0.0230816909790637,-0.02188395636157854,-0.017899463868354566,-0.02071389104238836,-0.048083416915947856,-0.04822101353875236
0.076,-0.09648600852044208,-0.07354356426237005,0.023022006921780913,0.0849812888683545,-0.060343371931490954,-0.02704901024166508,0.011549063517402137,-0.03435554564443463,-0.03337127302333849,-0.03729374944844213,-0.06637156490754878,-0.06775767291791299
0.078,-0.10096131818114057,-0.08268952970855631,0.01813320361166019,0.09214686517000434,-0.06024159322973443,-0.03468952357452559,0.0067784499395950005,-0.041705260866331646,-0.042305776858968955,-0.048744721174525,-0.08192415797507704,-0.08418756643900421
0.08,-0.05086547790112953,-0.043549933306132355,0.007220459850959425,0.048074257134415564,-0.03016846579133023,-0.020490614476483357,0.019515511596745434,-0.032424703673830886,-0.03360748158409692,-0.042937609054948526,-0.08237182151750683,-0.08385787035339219
0.082,0.005278859846265391,0.003981240211901778,-0.001149802347395814,-0.0036219663829896403,0.0019623295101388167,-0.00012327318585284898,0.03840314226461617,-0.014619481365916424,-0.016947401490451656,-0.028108305473701717,-0.07316039423404623,-0.07305102424513918
0.084,0.0017217866560450526,0.00417139251784787,0.0028266963480700186,-0.0017882174713075329,-0.0015539137534535895,0.0027247380265161616,0.04388291317779895,-0.006952784572683181,-0.010475508950429393,-0.021490560713793246,-0.06859358800682185,-0.06776058276675338
0.086,-0.0529340176555477,-0.03721126423460348,0.016039621697803857,0.046946086102762484,-0.03556202197249728,-0.011191820313753082,0.03434516464292385,-0.014691947448494449,-0.018139932961640636,-0.02783680440608043,-0.07292108056342456,-0.07254495734796278
0.088,-0.08038412708074301,-0.06301120463963376,0.01725239292092383,0.07419323423345794,-0.0506949143027939,-0.02379869849412264,0.02421001571354761,-0.02678342128947889,-0.029170366202803524,-0.038124721153026654,-0.07940564601472054,-0.0797740052383569
0.09,-0.04484532157989423,-0.04500323289005049,-0.0007422806600720648,0.046880326173562144,-0.024748471973795257,-0.02430802619232418,0.023563217524420886,-0.031258103200000546,-0.03246475227390717,-0.04198522959957372,-0.08086727026551237,-0.08174236274121363
0.092,-0.003294295026305352,-0.013066998555814729,-0.0103683457610817,0.0088435472076645,0.0009739365992933051,-0.0137403349729835,0.030798899904212515,-0.02512027467983493,-0.02497340418234438,-0.03591665159937814,-0.07508453320972382,-0.07597290044301261
0.094,-0.013138367013622086,-0.004107138249848862,0.00891393121783912,0.00875430475921669,-0.012529297696791035,-8.99713523143198e-05,0.038177835600278244,-0.014929463244872656,-0.013200969471828925,-0.02575232978182763,-0.06620637454007124,-0.06585575319506477
0.096,-0.04849618168193827,-0.01756892834924796,0.031270694015297515,0.033882643481024315,-0.040372133780884466,0.00416051422814846,0.03800856164110032,-0.011205740199464314,-0.008678653504583677,-0.0218470207944245,-0.06232442840369257,-0.05976125797770556
0.098,-0.04896653363634659,-0.030060874046867386,0.019169823751017886,0.04143084866333898,-0.03423625568945128,-0.008099570980000075,0.028757897091831894,-0.01793154076112662,-0.016522043809508512,-0.02756523330640755,-0.06648920978879366,-0.06310718755793145
0.1,-0.009525934064342708,-0.02969385930832335,-0.02042524054334709,0.02209629257983816,0.00518144763393797,-0.02750960343046784,0.01853421717943407,-0.027525401399172828,-0.02850818357421595,-0.03469327633815564,-0.07109785283130803,-0.06970814590909924
0.102,0.014360705495769713,-0.024276804657680267,-0.03922868092922925,0.007398001455604177,0.026380245190133957,-0.03374944919112049,0.01901268849037758,-0.02825454055701419,-0.030160707444081534,-0.03170773844999211,-0.06512515816030245,-0.06643720410044228
0.104,-0.01896767715473037,-0.02803246720243802,-0.009443835116179052,0.025512723583236998,-0.005375430745811847,-0.02001739747668157,0.030465959399132374,-0.018819925286332424,-0.018141543984304478,-0.017990794760564557,-0.05022042269787026,-0.052279688419529145
0.106,-0.07928620409432485,-0.04646775979922848,0.032851881038040334,0.06443675515987572,-0.056810144821867796,-0.007573671910295797,0.03662841428915059,-0.013573660151354748,-0.008265897041011399,-0.009237532023418994,-0.04567440467562092,-0.04722316492847863
0.108,-0.10131395628533309,-0.06810278051319861,0.03330673338883864,0.08622367934470258,-0.06786052371000284,-0.018532684146753027,0.025392132932676763,-0.02401362664285925,-0.01566780507733551,-0.019219878867465193,-0.06537683582933464,-0.06725399314679108
0.11,-0.0689656492534929,-0.07360394516090313,-0.004879727140959297,0.07321933477081645,-0.032331572317888975,-0.04150464011176507,0.008056579956556906,-0.039872111540107794,-0.03240566842572648,-0.03874797103841798,-0.09472754757060418,-0.09723877813497582
0.112,-0.027313906526913984,-0.05898267544134212,-0.03217071617935539,0.0453563583925175,0.0018975621058874967,-0.04867648388752354,0.003623341472547451,-0.04335177181482383,-0.03997470016890228,-0.04756225087262038,-0.10773807591092344,-0.10942681102980976
0.114,-0.017674771867644535,-0.042608611220863894,-0.02527406814377535,0.03203093734004488,0.0025320129366168667,-0.036860000185860144,0.012666202639765254,-0.03485978865604401,-0.036051694739988725,-0.042014752361284616,-0.10093336604120383,-0.10072803963757714
0.116,-0.034472339390930924,-0.04173875245236349,-0.007238292165061572,0.03955414480923726,-0.015362163514359544,-0.02662717001855103,0.02051444280534836,-0.029217829129354653,-0.03320003694593248,-0.03561779676844341,-0.09258734388595918,-0.09097096937623256
0.118,-0.04673604405829495,-0.05127139447167129,-0.004342326484413625,0.05045301711604056,-0.02281548536081651,-0.029401876495173677,0.01876095678273945,-0.03338283596363602,-0.037771072406213184,-0.037270895211603365,-0.09455609615197282,-0.09246085673768518
0.12,-0.04199392856717183,-0.05577536942576293,-0.013697005628382553,0.05054907690404433,-0.01573935938328338,-0.03611963404759829,0.012940188799115026,-0.04039154173557784,-0.043234593600468225,-0.04202876245151501,-0.10076927496667935,-0.09894313668382444
0.122,-0.039030577163385656,-0.05213963583122638,-0.013148866965481785,0.04728522307151481,-0.015127860123962255,-0.033638055260015155,0.01330287470786419,-0.040399222345198826,-0.04084358005530674,-0.04038954676301925,-0.09977836001282951,-0.09888832592633062
0.124,-0.05821261381686002,-0.04776632888814508,0.010502149582105918,0.05457188141981411,-0.037130906866552134,-0.01915809184154428,0.024243222334448953,-0.0303468697805164,-0.028733683435983197,-0.028517271081830203,-0.08791280927140564,-0.08807238187747739
0.126,-0.08842333051420428,-0.04470666461754763,0.044041355804341924,0.06800893017179112,-0.0687706560240789,-0.0011419914553716052,0.04038311989316872,-0.016143678230241893,-0.013131428164194834,-0.011660927699353726,-0.07201201286333603,-0.07243547307982118
0.128,-0.0970561066429071,-0.038448543212058456,0.05906988882941267,0.06905462423516495,-0.07970124075611314,0.008351245228246838,0.05067757871728736,-0.008115670838037381,-0.004320027999658668,-0.000533735374511707,-0.0633600635647161,-0.06301864779724531
0.13,-0.07485531803139309,-0.03005607576895604,0.045075242155945,0.05353075971202115,-0.06082053587851219,0.004722976831465327,0.04876340354167599,-0.011591794112738774,-0.007841030082567327,-0.0009980019076839845,-0.06635465470126757,-0.06519739496133654
0.132,-0.05326791337778316,-0.02999646492320965,0.02321195039988382,0.04248253631913621,-0.038886314463391296,-0.005636057853617096,0.03904552484798661,-0.02193148423319536,-0.018649016286367406,-0.008484545589548875,-0.07429961372511833,-0.07351796892675384
0.134,-0.058022976540560295,-0.04478151454450334,0.012947514550810122,0.05244218178716679,-0.03632945792070785,-0.016844048836441652,0.02870434268676126,-0.032275955243246626,-0.02943834382342233,-0.017676845542030143,-0.08145204198460604,-0.08163167992417085
0.136,-0.06398138828336464,-0.06329856658948596,0.00031257106262580416,0.06527522565822529,-0.033173453619851474,-0.031922946389135794,0.017939474934561665,-0.04237305608389447,-0.04105440396505188,-0.030433068556325663,-0.09193856236399849,-0.09181418765053796
0.138,-0.03728735471557057,-0.06763386014384672,-0.030583221564334268,0.05439076596209006,-0.004361673415902354,-0.05043720019870354,0.006079241590883546,-0.05265503341819484,-0.054651207578124555,-0.04510277207789482,-0.10669896217587309,-0.10523699571527978
0.14,-0.002038907474835923,-0.05912414078944232,-0.056952055027573334,0.03214267385595013,0.026495399977453118,-0.06061542645537001,-0.0008027061548883617,-0.05761658747809764,-0.06250731020368884,-0.05106574278832441,-0.11417300957071133,-0.1125580870603317
0.142,-0.009774901577378597,-0.05788520570081986,-0.04766214034863883,0.0347274114040672,0.017956698266719563,-0.05564337156299767,0.0021638254126774043,-0.05369243522543503,-0.05850843511175592,-0.044013296711761025,-0.106428134842048,-0.10651291400876016
0.144,-0.05686163478954727,-0.06916651364211106,-0.01193689848658874,0.06333754448736106,-0.023321758918950008,-0.04248620639341159,0.0126746352600997,-0.0441431608111177,-0.04674474996858505,-0.031661419840292505,-0.09076072802729701,-0.09230675569590899
0.146,-0.08384530631340924,-0.07031461209809207,0.013552368442393966,0.07709635376193628,-0.049184284359053095,-0.028948831036340657,0.026907897680020623,-0.03305879682683136,-0.03401103312016545,-0.02059370963552197,-0.07788996691137402,-0.07831943534864126
0.148,-0.05905154124580315,-0.0488869703051356,0.009983249818842502,0.054205359581942114,-0.03488342137969532,-0.019194879102159734,0.04006502877452839,-0.024767773106941168,-0.02569672476865028,-0.013097742645307615,-0.07237709840095201,-0.06984500402609774
0.15,-0.018543408774707185,-0.030924544155909246,-0.012487051013779395,0.02587103965963536,-0.004048753126684353,-0.021422973160526354,0.04293136149924842,-0.026170168059237487,-0.02841624564061363,-0.014653235675635772,-0.07691623669531616,-0.0730369930527005
0.152,-0.005903143003650815,-0.0430097456311114,-0.03706186875283042,0.026753450538955444,0.013554582693107322,-0.04010982749807551,0.030680908565832714,-0.03843828359881226,-0.043894637329718385,-0.028335853578930592,-0.09190787277097356,-0.08988826638042409
0.154,-0.014946949583085525,-0.06623723013180248,-0.05121137650850269,0.043541421617402105,0.015827220761247845,-0.05920630521456837,0.015160134269342616,-0.049056542660501135,-0.06007506942649894,-0.04288587827157703,-0.10697803695390942,-0.10764754960201034
0.156,-0.01649077576680763,-0.061532735865202165,-0.04505023834980077,0.04178346993411734,0.012623057339131485,-0.054223361021788825,0.015551496502253037,-0.04360093463832338,-0.06056006325505429,-0.04134579741122943,-0.10657495250653755,-0.1079012175025727
0.158,-0.008698344135616988,-0.03115809228468298,-0.022649368388448936,0.02193297189183097,0.005806955338509638,-0.028232411346806378,0.03242326290184833,-0.026890481936965995,-0.046871843409714,-0.024742171506888344,-0.09146163955537193,-0.0913000682416021
0.16,-0.013832650407839734,-0.01852644007168352,-0.005177340490226275,0.017175340435831597,-0.005848082022124238,-0.013240145007238958,0.04430518757164116,-0.01991872578533596,-0.03914100512517448,-0.0131443667780923,-0.08106001184175116,-0.07906143023357332
0.162,-0.037227920263738244,-0.043068812112609385,-0.006561003704553347,0.04027519784578334,-0.01725204642122568,-0.025799482929332547,0.03669150055541047,-0.0313504978412809,-0.048792128491793596,-0.017714651801399205,-0.08652167617960078,-0.0836989317702205
0.164,-0.05538066471144581,-0.07320882707623586,-0.018335709732591087,0.06411416417810191,-0.020157957462736843,-0.046244419472234725,0.02016685687698231,-0.04674537057855885,-0.06418043614877882,-0.026774360672939715,-0.09673732822506154,-0.09416423504672095
0.166,-0.04959917735832475,-0.07573793273248235,-0.025927894552109535,0.06288929783134023,-0.013173811649538078,-0.051286955005297,0.012614693968646772,-0.05128820446444994,-0.06969110091644524,-0.026250300234877545,-0.09780268967006382,-0.09609227843602731
0.168,-0.03227929069984624,-0.05821557599595868,-0.025153691812882385,0.04627084099289017,-0.005420769195163562,-0.042681133946018246,0.016403641161240566,-0.04775018159114571,-0.06553433522855454,-0.019033192686134355,-0.09114447179947195,-0.09065593743055719
0.17,-0.030777386530024473,-0.048073445117739776,-0.016742088379420404,0.04107861699840796,-0.009790922208960749,-0.03389172686485819,0.022109389315015368,-0.045228452860288565,-0.06123042668937145,-0.015425583583549816,-0.08536491014908405,-0.0862851647915519
0.172,-0.05751214592158552,-0.05315707113942565,0.004180806374088218,0.057050005792876814,-0.03389262368372599,-0.025969545551957757,0.027350584233793045,-0.04208356746702599,-0.058800511903781834,-0.014779333094749167,-0.0805553643431069,-0.08262826667686204
0.174,-0.0985601816834606,-0.059685991881042504,0.03834844000167233,0.08044975462413388,-0.07081246519460258,-0.011944609650897779,0.03798309934546363,-0.03147084249170074,-0.05293581714415071,-0.00886272435664855,-0.0711462615512302,-0.0733619415620985
0.176,-0.12041520792368955,-0.057887959906896255,0.062286393980203726,0.09003969776033255,-0.09270678757381076,0.0008859398801168291,0.0500997588492173,-0.019202638401013165,-0.04577404959282527,-0.00032239365060734624,-0.061918883913940154,-0.06302243385054326
0.178,-0.0998142344437276,-0.05210380519458354,0.04786501433318269,0.07657015287746069,-0.07469022791195336,-0.0035219797101294988,0.050045968648168106,-0.01908590464597402,-0.04686142321824035,-0.0010302814112570864,-0.06541626653436287,-0.06514865950376453
0.18,-0.052804751553705155,-0.048704246123971985,0.004331802290092094,0.05131494377238283,-0.02961103918309807,-0.02316080217073594,0.03596874491851705,-0.031527088541276706,-0.05747042103264093,-0.01237544190935781,-0.08181305901606142,-0.08122036180876706
0.182,-0.008943225210992849,-0.048417588967917466,-0.03930194002338334,0.02959839572543128,0.013631092160575082,-0.043968027561341896,0.018885696513569698,-0.04622750741324831,-0.07132619884416258,-0.026380593401334744,-0.09988829396562633,-0.10031680231074289
0.184,0.02215962461947975,-0.0505595067907169,-0.0723648145048933,0.015862831679258785,0.04540684712373923,-0.06112874801487916,0.0061993593026767645,-0.05843971635522185,-0.08446341762636783,-0.03895412709158046,-0.11275519032309371,-0.11465047898327442
0.186,0.028438216755386592,-0.05524223652884256,-0.08299099229374787,0.01572021983275556,0.05400656984781455,-0.06929104709785518,0.0024941382848821664,-0.06439246600668283,-0.08991792708858208,-0.044457627284532425,-0.11512102069139332,-0.11748136053324774
0.188,-0.007714289470178233,-0.060583164221470094,-0.05216284204300458,0.03664853939409512,0.020880000940907962,-0.05748801624868743,0.012897459661492396,-0.057372839007884695,-0.0796203446719556,-0.03461916540427929,-0.10123631622492664,-0.10249321287855065
0.19,-0.06279835949451881,-0.06267699092281787,0.0003975776090006486,0.0651354220738607,-0.032868719707674326,-0.03275037813407687,0.03094522342731451,-0.04226684261890646,-0.061761554850214506,-0.01595166950678853,-0.08023644799184064,-0.07996392943201917
0.192,-0.07885047352918,-0.058803042950059496,0.019882889098856816,0.07126409913811291,-0.05105325983237185,-0.020823850383207762,0.03882197581786516,-0.03585303924441164,-0.05677330806416526,-0.00870576071328472,-0.07417974441044485,-0.07339326875011352
0.194,-0.03816010181477707,-0.05095973169053669,-0.01305255426756911,0.04715234281200672,-0.014710674007447383,-0.032847187292111696,0.02910525384274502,-0.04519853186541017,-0.0710878531605547,-0.021200430964878503,-0.09099061913939456,-0.09061595216635727
0.196,0.007832438700722585,-0.04751348624833144,-0.05553054123130364,0.022154896221732036,0.029719027731922577,-0.052235952804185026,0.013685885598875186,-0.05963510788043642,-0.09017043118312451,-0.04032552831722417,-0.11469836819547581,-0.11421849447132652
0.198,0.0049862306272102554,-0.05502310629858422,-0.06036035179788874,0.02643188509723868,0.03159061565558566,-0.05882510877990183,0.006937547802200623,-0.06585545463273437,-0.09824379309908968,-0.04998436768018553,-0.12635165744626747,-0.12433881463518207
0.2,-0.03329221748955675,-0.06563785822049949,-0.03302682536523886,0.050030715172637144,-0.0006286284479370791,-0.05103131410092353,0.010636597783339766,-0.06120141335631019,-0.09349900285465591,-0.04750580102387069,-0.12244579447424192,-0.11867545538294878
0.202,-0.0525389877298232,-0.06356336309344829,-0.011727887467802964,0.05845787859411407,-0.021254864427139475,-0.039576426582062264,0.018368383497720454,-0.05138255448098162,-0.08286934335048056,-0.03940386691305816,-0.11085132692658066,-0.10718874121149484
0.204,-0.03785177398259355,-0.04656778225837134,-0.008995406091413053,0.0429809880353936,-0.015829245346979694,-0.029494497014177026,0.026866662132907393,-0.041022675428240084,-0.07027725463992675,-0.02932825587035998,-0.09784942584027423,-0.09597710027962487
0.206,-0.025326797306873622,-0.02980380822242686,-0.00431537288081746,0.028762571718074215,-0.011700956305702035,-0.018612186244072532,0.036758901573419586,-0.03102924520421712,-0.05624995221519519,-0.01711566125635482,-0.08444586296422936,-0.08372279588418109
0.208,-0.035591741872088106,-0.026448195638123957,0.009374866569459215,0.032436380599973974,-0.02303155103650832,-0.010514989525680907,0.043889252707235905,-0.024554931691478467,-0.04606896788638458,-0.007014623451444038,-0.0731854535545833,-0.07207107085023305
0.21,-0.041591168897742614,-0.031934847650500885,0.009711360937962597,0.03807453365407496,-0.026028451362014666,-0.013803414064125148,0.04054376724320776,-0.026699366173826188,-0.04749679431858732,-0.006483479918131074,-0.07018012123875994,-0.06844026186867873
0.212,-0.020080142386452723,-0.03417691353240472,-0.01405058774782027,0.028190744976567695,-0.003760497896346654,-0.027091510045618376,0.028792123030859713,-0.03556636275805898,-0.058518363493874404,-0.014959541752413319,-0.07605425607324498,-0.07465450056608573
0.214,-0.001701530662880612,-0.0406990196594377,-0.03863017218187097,0.022346883306159384,0.017574311914903308,-0.042299705750705095,0.018601811820775475,-0.04467877951501846,-0.069640241486084,-0.025338511058406565,-0.08496512629622656,-0.08490901363591467
0.216,-0.03482238592909323,-0.07559197655012297,-0.04012617435317723,0.05680613223346708,0.002183523431437388,-0.05986309536285008,0.011252262955376475,-0.05389555120713617,-0.07849940863586745,-0.03607688890696422,-0.09551158817192908,-0.09681146914154391
0.218,-0.10644055536188629,-0.1310230525512652,-0.024182205717568742,0.12043656454708734,-0.041360240943988914,-0.07905835360358186,0.002781721857698574,-0.06395292676323644,-0.08700816084775459,-0.04716383634938809,-0.10817089485664562,-0.10947549283662251
0.22,-0.13765391077158073,-0.15048228950904377,-0.013010909155724573,0.14518858687703845,-0.06327972962211596,-0.08286820247100625,0.00046019303974009133,-0.06555926485529852,-0.08776818407090729,-0.04915651868504907,-0.11367818607885236,-0.11337328454416447
0.222,-0.0817997021513647,-0.0980913693777212,-0.016740825185045393,0.09044015831471953,-0.03461150068502098,-0.05832053006017522,0.014258018546150095,-0.051088038331006655,-0.07231753648010354,-0.03437436565147028,-0.1023355845557286,-0.10027008164931595
0.224,0.004423039521255397,-0.020184346323580352,-0.024828806743870564,0.00826428842618544,0.012198824353605262,-0.023223289766696707,0.03555172137704059,-0.03175645330205099,-0.05011518975527195,-0.014076525002438913,-0.08237507494845954,-0.08044722864102484
0.226,0.03183208561089707,0.00867985325357163,-0.023128522896901517,-0.01967041992644185,0.025483162352979646,-0.007826507966489461,0.04492270708241992,-0.025968972512602797,-0.04031946143521886,-0.007143227316314862,-0.0720697207176171,-0.07248196063193857
0.228,-0.008630970812759077,-0.018987279335178107,-0.010375750154429491,0.014515076510657716,-0.0007925732172647387,-0.015212942006301,0.03889092031371172,-0.03402850392522639,-0.04591426311849391,-0.015060720986983618,-0.07553686885261895,-0.07816803990403315
0.23,-0.05631666522349442,-0.04953316405083155,0.006703582173268593,0.05344134086146201,-0.03319530487186765,-0.02197978595932392,0.03191478965241149,-0.03987697602588426,-0.052578844039064376,-0.02266960957187296,-0.08018668626468194,-0.08295610588843104
0.232,-0.07062273031094946,-0.04914490988987113,0.02155642074445789,0.059960152157043874,-0.04788247741692863,-0.014808352346703026,0.033881660603615325,-0.035566233289832376,-0.051307031187070036,-0.021055789574021152,-0.07730741493334845,-0.07903082253077977
0.234,-0.05783199495144102,-0.03280367725946733,0.025258711107558868,0.04515695383928853,-0.043391926977779896,-0.005453953498734355,0.0392397392975898,-0.03004027371595771,-0.047682947560092066,-0.01690738193870297,-0.07299231371272018,-0.07403944399992038
0.236,-0.0401749804810846,-0.025941987309259357,0.014398891016844275,0.033150726931616616,-0.02895683816680123,-0.00749530647377222,0.03947786733130285,-0.03228586200576151,-0.0483999103261383,-0.01812815009425351,-0.07457273353195407,-0.07525678423811832
0.238,-0.03530109146111077,-0.03381354242917784,0.001575374867680423,0.034993342782099104,-0.019719961139505318,-0.01721710129246749,0.03510636219348879,-0.038510750353875974,-0.05122511089696148,-0.022188219929570426,-0.07784243040249743,-0.07810371863943266
0.24,-0.04014129104981969,-0.04583584721813449,-0.005470806129614321,0.043395176790761415,-0.018514261736994997,-0.02658711191632394,0.029049072099480624,-0.04308340932134707,-0.053772367879356346,-0.025417371356478504,-0.07781347815355083,-0.0781974386814374
0.242,-0.03094706879248301,-0.05093231067975591,-0.01959153863213786,0.04125530488157996,-0.00717029312644003,-0.036963448726860346,0.020055107829714834,-0.04855479607799936,-0.05924258278680583,-0.03049628154430021,-0.0786424051511156,-0.08003055288500123
0.244,-0.004011884805982535,-0.04731751983425898,-0.043007824711279896,0.026350415925480524,0.01794563693302897,-0.04743196506418031,0.011356166174451978,-0.054657514066384076,-0.0655581915098285,-0.0356289640518505,-0.08076767889674573,-0.0828952203111043
0.246,0.00798257993661134,-0.04235352719511658,-0.0503475219316387,0.018365495023995385,0.02819768615038158,-0.04790065540144026,0.01210536547975519,-0.05304171608291652,-0.06362178055815815,-0.03205263115181404,-0.07540098674377929,-0.07682095544898025
0.248,-0.01751067855088534,-0.04455606016980194,-0.027328123242487387,0.03220231334081739,0.004634297883309104,-0.03613263953064421,0.022676672199270338,-0.042969800473973155,-0.05332273778948814,-0.020528157099472723,-0.06353306540079523,-0.06335687209794906
0.25,-0.057047420138084434,-0.05633655101888927,0.0003197519850299047,0.05755431651602735,-0.028799098774960775,-0.027647958569659646,0.029933924365302372,-0.03841684604229916,-0.04856675288702908,-0.0161947012919552,-0.06341083606528161,-0.06197790475502809
0.252,-0.06655980558915439,-0.06951834820006687,-0.003211351996859516,0.06890150212415601,-0.032188554069525956,-0.0363983651123435,0.02351317692791485,-0.04954080296953451,-0.05947653804316821,-0.028756187538922885,-0.08564554756336147,-0.08363599284005539
0.254,-0.03251269639053637,-0.06745993216980656,-0.034810363762208196,0.05114721600138517,0.00012426221297674934,-0.05143507763239701,0.01127975883864017,-0.06502215133465561,-0.07555305366417607,-0.045722269339236836,-0.11171623540836916,-0.1098326895607248
0.256,0.011836059403038767,-0.04330860844642531,-0.054685958154677104,0.016904000961518152,0.032123991407273365,-0.049051373300949656,0.009770576470666191,-0.06527528674021268,-0.07696124116303259,-0.04670139971717885,-0.11441769901839292,-0.1133425664089148
0.258,0.02577184196281599,-0.016526616246046715,-0.04194939535409394,-0.0040778105915804976,0.03298964079958517,-0.029317654168926444,0.02045125599078251,-0.050290042981447784,-0.06236206277541288,-0.03204871864243203,-0.09518074308110282,-0.09459063149217554
0.26,0.004134911504482196,-0.01530307657355855,-0.01953000131793213,0.005411883575776584,0.010863982331868615,-0.018362203253556263,0.02829455490960886,-0.039203758063693916,-0.05069504071299634,-0.02231579119931093,-0.08121671453974776,-0.07962603611185039
0.262,-0.02727650353985404,-0.040681366226932365,-0.01378599562767456,0.03393962430214966,-0.00861955180982851,-0.02916184774052997,0.024636542949699903,-0.04271397741825206,-0.05341536793837612,-0.028415292726840832,-0.08691315260125486,-0.08371729392387746
0.264,-0.04529146516469657,-0.06423906216827224,-0.01914811742567095,0.055854595620889964,-0.015996020976047007,-0.04352340052414367,0.01820873448371645,-0.05055775722645739,-0.060525369593735105,-0.03764465652034067,-0.09769859208343329,-0.09465264279547758
0.266,-0.05096622091013236,-0.06492498269356566,-0.013744661857224443,0.060084151121413576,-0.021810988652494923,-0.04011079730315949,0.02112498424199349,-0.04830428449887152,-0.05727401813913566,-0.033412573553960004,-0.09417686621316189,-0.09383651870096239
0.268,-0.06104934325276382,-0.05293486276834907,0.008475380714894008,0.05911258682184139,-0.03746017303680871,-0.022357713466923626,0.03291998608797407,-0.03636740277731314,-0.04384493317374718,-0.017714077504927723,-0.07713607752262225,-0.0802601715099107
0.27,-0.08139060269911268,-0.05058082581402965,0.030920739349905562,0.06755661682035476,-0.05828620714508399,-0.010307062962946784,0.042565617709946095,-0.027450782890824182,-0.03359130860128298,-0.00681991877406423,-0.06300490374405805,-0.06787878458277403
0.272,-0.09483422044163842,-0.06184107003044922,0.03274204061194463,0.08000609329093808,-0.0656735157512641,-0.015671209219282077,0.04172500874156083,-0.030232156851252554,-0.03617367525771453,-0.010777741861921061,-0.06318083137780964,-0.06730586174164226
0.274,-0.07818031335494495,-0.07078518154208978,0.006955567118133005,0.07682519393300688,-0.04426605391129154,-0.03330717522460837,0.03158306924891537,-0.04166134581896529,-0.04792780433873046,-0.02495175764653557,-0.07466499890158051,-0.07694877993936308
0.276,-0.034418722428526415,-0.0656407742612185,-0.03151515747638015,0.0524795242183355,-0.0027148037762312243,-0.04973842162500497,0.020468985186180833,-0.05201987974875662,-0.05745110905712625,-0.03740051325985058,-0.08604372647013023,-0.0870154506755965
0.278,-0.0020954138194519112,-0.05423254144923599,-0.05201539167866422,0.02963516146819726,0.02434261855871852,-0.05363328847611441,0.017494302552294318,-0.053027453199328715,-0.056935406307951984,-0.038953128685060484,-0.08751853227314597,-0.08788755003259523
0.28,-0.012250459215663326,-0.05160504408823888,-0.03902404031604149,0.03215669857054284,0.013318588170957726,-0.045115882246373064,0.02331587173726331,-0.04519625826523189,-0.04973402160569998,-0.030728302167754,-0.07951603493160644,-0.07952171916121047
0.282,-0.04380996509554269,-0.058960347938185234,-0.015229845596445949,0.05133267873852956,-0.014405573647492089,-0.03672052204209254,0.028334060533412482,-0.0380549833951294,-0.046529658835165064,-0.023206019336772694,-0.07276784658114492,-0.07269179828067258
0.284,-0.05033856007775132,-0.06303496414363202,-0.013438788921618096,0.057513410365634676,-0.01949211984127059,-0.038484789684725795,0.025716371851798817,-0.038559920505110305,-0.051695181410926265,-0.023706077782826174,-0.07564982304266812,-0.0761781208999437
0.286,-0.02415340206988171,-0.056790973528088054,-0.03350989753204191,0.04233244840013455,0.0023218993213153126,-0.046396105926779514,0.020353798346092314,-0.04332010207153893,-0.058165343697929764,-0.028445912175411286,-0.08478577862398874,-0.08644948419334401
0.288,-0.004362322549029153,-0.05110198086500611,-0.04707392432589865,0.02978402931610965,0.018227899520294525,-0.05098817634754956,0.01988653303887863,-0.04608030499721546,-0.05807953264553349,-0.030215924534269616,-0.09136431236121934,-0.09356024476421429
0.29,-0.018946518621373372,-0.05669211905574615,-0.03749971578686298,0.039180001219902276,0.006299676573660746,-0.04910799393764659,0.02490000200583963,-0.04539412782149803,-0.051858643955504526,-0.027600715861528537,-0.09061305416123405,-0.09191768292939721
0.292,-0.04758804950608976,-0.06605491588813162,-0.018066704397600098,0.05741549634619887,-0.01700135034794928,-0.04401354950197153,0.03076455690553382,-0.04296467241434205,-0.045859162143688195,-0.02479365317181885,-0.08429601612171685,-0.08413588994352139
0.294,-0.05808528771936509,-0.06717170527779198,-0.00884048134064439,0.06320797461614132,-0.025931541733837805,-0.03989654714309254,0.032924381170354816,-0.04101416494815504,-0.04553110596899953,-0.026272966225648724,-0.07871635277202152,-0.07795748402806635
0.296,-0.05496480201544209,-0.06143722775838928,-0.0063877659739707375,0.05949935947277396,-0.024729958547323943,-0.03559456851045246,0.031884155249184414,-0.03942604296394233,-0.04875132960831948,-0.03029773255925442,-0.07748642395164958,-0.07717331296659405
0.298,-0.06348241353678655,-0.05567857017535874,0.007880960766720084,0.06161446185535152,-0.03570793646052123,-0.025408222122039636,0.034013299264307864,-0.03440989646041585,-0.04706218816950845,-0.029306481910371097,-0.07685834091251707,-0.0771066891439186
0.3,-0.07825361776953885,-0.05129090051943477,0.02714119989310145,0.06694669569854451,-0.053077260353312686,-0.013776388565523897,0.03988628339240288,-0.027977703716060936,-0.040208875186179695,-0.023355644357408844,-0.0753170764542221,-0.07560600418528582
0.302,-0.06848772025392222,-0.0515042419828676,0.01715993672440982,0.06153405950399384,-0.044001661920087455,-0.019112998078464213,0.037121922461785015,-0.03290203555066028,-0.04190875273769759,-0.02598142748114337,-0.08064903504853385,-0.08065345177327451
0.304,-0.0371566551513898,-0.06336389750476241,-0.0262937328757561,0.0506792193855629,-0.006910944533039164,-0.046368233249248214,0.018847004289139452,-0.05366518405205341,-0.05902857172418278,-0.04377403786995255,-0.09557197665293485,-0.0954171665455576
0.306,-0.02185914916032546,-0.07955805126694167,-0.05822372281936132,0.050241196791223665,0.01738267035442819,-0.06944303012093804,0.0008140446576400526,-0.07212164554443155,-0.07578902824943358,-0.05989575103818125,-0.10643069989696664,-0.10635435541762268
0.308,-0.027217765410487014,-0.07558480908529719,-0.049189522767944666,0.050963042093947857,0.011104988809779727,-0.06227303082045378,0.0033582276105933425,-0.06889648516945553,-0.07391555243389221,-0.0546115569161363,-0.09984137899764321,-0.0997796038591892
0.31,-0.017345070960743406,-0.04250539624514789,-0.025839754342024023,0.030446646248250057,0.004369361480921039,-0.03429356220390182,0.023759952508876653,-0.04909162712841842,-0.058256173473790876,-0.0329800849040258,-0.08145730164354688,-0.08097494010758009
0.312,0.017317360466858705,-0.00595265151260536,-0.023461303350922787,-0.004150844064131924,0.019369212194422246,-0.01550600777345141,0.04069608359251057,-0.03320842566885496,-0.048123708736935666,-0.016704544600469783,-0.06722264476411084,-0.06624679377198063
0.314,0.041356613456808196,0.003749610815444858,-0.03741616823762933,-0.020841759612048483,0.03707524806230958,-0.01800699427309119,0.040823760792395594,-0.03182874089454175,-0.05167578238263268,-0.01645483965051703,-0.0638953221150212,-0.06338641477225948
0.316,0.02808091339524036,-0.01410207841986942,-0.04196371252801308,-0.005573422318734142,0.03255674532505353,-0.02923381964378809,0.030536351787488952,-0.03929060920718634,-0.06092593827169452,-0.024579958559258593,-0.06647606128757291,-0.06729308810375333
0.318,-0.007146175502890142,-0.037342013631213616,-0.03006356530146264,0.023861777997061594,0.01022644239201324,-0.035057236288812736,0.02403118683971374,-0.04555103332327143,-0.06636064223365237,-0.02976356029647954,-0.06861931426612414,-0.07003464182353002
0.32,-0.03564631635746472,-0.05034550266242695,-0.014475661281160158,0.045122810038205126,-0.010286254118885604,-0.034027656796343245,0.0272429877849193,-0.0461205555118291,-0.06625830487649714,-0.029217408710974918,-0.06852703752363865,-0.06914205914153851
0.322,-0.053024816294852145,-0.05596624271931912,-0.0025692476813114875,0.05635527034986295,-0.024319566373917863,-0.03066342932816048,0.03502893011804242,-0.04201634709450158,-0.0630302311302682,-0.026614856071496888,-0.06702898977754278,-0.06661791455818925
0.324,-0.07262058289891185,-0.06307599108951491,0.009810265718385995,0.06864481742625603,-0.040730127058679545,-0.027384788992678693,0.03987192942393748,-0.0364464680319969,-0.058844747562400414,-0.024779526728395743,-0.06555411703614342,-0.06500040101711829
0.326,-0.09179324962432076,-0.0725367157843908,0.019164170423975273,0.08227925166590928,-0.05566024187573611,-0.027257775033350223,0.03781271022056418,-0.03533124565214804,-0.05839989181114374,-0.025884945020834518,-0.06827677351957583,-0.06822099545888922
0.328,-0.08459626018589472,-0.07680022303937337,0.00745704033432688,0.08113878208262801,-0.0464621127469186,-0.03580960529011975,0.027831201196694404,-0.04531820297564445,-0.06876126064119378,-0.03425949002818747,-0.08084664180845492,-0.08111967004001075
0.33,-0.03905852494197217,-0.06931742567628359,-0.030439185082869344,0.05551332022143004,-0.0045707803301793205,-0.05168264926918781,0.013561912472971588,-0.06346284374286361,-0.08849990567364621,-0.04934575222007512,-0.10018072274840706,-0.10034275597135073
0.332,0.009107991799382079,-0.054029013949193544,-0.06293584104865241,0.024608374840947456,0.0358664324077242,-0.06041292677756279,0.005124095161818327,-0.07417085067232732,-0.10261314298445186,-0.05898247583902107,-0.11106300858076776,-0.11088245036945621
0.334,0.007850914225958997,-0.04363675435344604,-0.05114384139650355,0.020409856677257733,0.028907369299255175,-0.0486768434445547,0.0112140459598174,-0.06535479344199938,-0.09787971624268389,-0.05126149918453248,-0.10207520921332977,-0.10129646415158078
0.336,-0.04548094378287362,-0.045465985951039775,0.00014676475579025869,0.047697367236147585,-0.0241210410376349,-0.022843708412831898,0.029100866522779278,-0.04304467249523722,-0.07902993893972152,-0.03106163015276026,-0.08008058713030997,-0.07831405079629832
0.338,-0.10483200751169422,-0.05391964256325645,0.05082328549262517,0.08088945921188719,-0.07938878825938332,-0.0009799254595384882,0.04824488409500083,-0.022336292650596962,-0.06065308034974007,-0.013380217229180143,-0.060253323367583024,-0.05754092251036353
0.34,-0.13594310194334802,-0.059823135802081984,0.0761219789352862,0.09887885728239768,-0.1072573274354231,0.008651651206224324,0.060585675559681286,-0.011148727727286973,-0.05004852789833717,-0.005031998962984113,-0.048786479337725404,-0.04601947243973505
0.342,-0.13166141131894538,-0.06072071867581136,0.07124185159510589,0.09711352493619942,-0.1023252791085644,0.005317997728969849,0.060811078936872716,-0.01176393196362504,-0.048923735743761444,-0.005761730509283719,-0.04580056321540657,-0.04445946429687668
0.344,-0.09167318143114225,-0.06014006157309232,0.03189240142567501,0.0768699685069085,-0.06260644958718294,-0.014275966240844554,0.04613275088398504,-0.025894368815126523,-0.05990798678263489,-0.016870780192698148,-0.05366717644796433,-0.05472854586900996
0.346,-0.037563008561798186,-0.05928764423716872,-0.021761443346853027,0.049222308427514294,-0.008834126708713839,-0.040777096833204095,0.026678558105969592,-0.04445002255497401,-0.07616363956727364,-0.03222260788941977,-0.0669422211242967,-0.06938420054593737
0.348,-0.014598625628483441,-0.052085434438018184,-0.03797723101988685,0.03398943958964649,0.010464248092146532,-0.04570775272961592,0.02308273551096081,-0.04723676339702129,-0.07903723456480767,-0.03455762392160766,-0.06826629620267005,-0.06939772384897039
0.35,-0.0382046085980568,-0.03713660168318628,0.0005065859279607342,0.03867985547435672,-0.0212379277334166,-0.019497127044877032,0.03876394813362522,-0.03088051456170829,-0.06431995595102352,-0.020167032467328008,-0.05391755716066353,-0.052194960944562996
0.352,-0.06620030589541605,-0.029034689929643056,0.03679792731522082,0.04933353867079332,-0.05406322060222935,0.002593493539679368,0.04801732132537773,-0.021824186241637344,-0.05603803008230663,-0.012937801588566486,-0.04777877091374139,-0.044583317569839104
0.354,-0.0533815729322305,-0.03949706554269908,0.01366821834510314,0.04836183774387776,-0.036012202336305414,-0.014210821677181573,0.030470796138491938,-0.04009112659055004,-0.07339660085547682,-0.03189655298703999,-0.06715811247852198,-0.06476774921584307
0.356,-0.01695991668335329,-0.05714319753359613,-0.04028888708850135,0.03838049327446653,0.01006701643596495,-0.05050554302411288,0.00424447954806085,-0.06566712673654579,-0.09877672119254029,-0.05877200008092781,-0.09153858082285092,-0.0902150035087961
0.358,-0.011077398221053126,-0.06296753696301816,-0.05180291651575151,0.03761013189771606,0.019362683295448983,-0.059905327666594475,0.0021307718892414357,-0.06570295663146802,-0.10126761194844645,-0.061871367032282236,-0.09037620310635257,-0.08872408099051263
0.36,-0.04159579596132928,-0.053465991387059875,-0.0116207250774338,0.04798247377493684,-0.0164636814621317,-0.03519054043081423,0.025350985388658064,-0.04188792767924896,-0.07997288862549297,-0.04033456410909338,-0.0668922839410943,-0.06432018351134865
0.362,-0.05646326258551831,-0.039717028613703284,0.01688620248809696,0.04913750489530426,-0.0388741547268568,-0.013392859643079246,0.04418550165317278,-0.026158251368675056,-0.06272422302488286,-0.022118020833895424,-0.05089635443192018,-0.048372896893796404
0.364,-0.026415576226370387,-0.033920658422805935,-0.007676810020237514,0.031848591446663986,-0.011377938377204612,-0.022220065566261965,0.03882858963053831,-0.036910482707478896,-0.06809401145523523,-0.025650091040107095,-0.05967124139783691,-0.058074574081780635
0.366,0.013577311960448467,-0.04015571754889808,-0.05401886532612688,0.01470734723255785,0.03255134085493284,-0.04880572262060322,0.020257783885527077,-0.059522805262893275,-0.08591334901765543,-0.041491575209502383,-0.08347493952845117,-0.08221779335872348
0.368,0.013735244817186028,-0.052690313441891935,-0.06642487589354627,0.019752990483305352,0.03913439388920484,-0.061714046080278175,0.012067504675628454,-0.06825378806570676,-0.09432398544611681,-0.0488324314867542,-0.10039584746439138,-0.09835895295493488
0.37,-0.03646912570184026,-0.06249490496112899,-0.025606447377719454,0.048855441278617545,-0.006388230625095628,-0.04565095215914175,0.024455460043270157,-0.05419544450859642,-0.08372262674285401,-0.038388276345930665,-0.09547823955398688,-0.092684698846552
0.372,-0.11003994281112364,-0.06901228316937692,0.04156980153300384,0.0892108359317786,-0.07626354585640993,-0.014208845529901436,0.04594927543081473,-0.03141616505620243,-0.06393948402165331,-0.02076683787917799,-0.07396811812312282,-0.0716558831840343
0.374,-0.16346498956904676,-0.07832924372098415,0.08540136795263123,0.12193224760597936,-0.12409294985971822,0.0031880129459506143,0.0556585381720942,-0.02120728440384591,-0.054454429949707894,-0.016116069920567248,-0.05834970643841413,-0.05757819778915794
0.376,-0.1496668871445592,-0.08244269926014262,0.06713860340332418,0.1184304451747159,-0.10800914832856387,-0.00900406053564101,0.044844625592259414,-0.030497276790052305,-0.06555566838391941,-0.032139061739658845,-0.06467350469457062,-0.06510059597523382
0.378,-0.05613885802646753,-0.062207964533268746,-0.006227318125673182,0.062047707656002565,-0.025452473861043528,-0.03632069310815181,0.025403944683181124,-0.04697261120263317,-0.08741272727943944,-0.05492150632749404,-0.08494752429596121,-0.08496544177296506
0.38,0.05316718256621203,-0.023544616035179877,-0.07660562297143245,-0.01217542317404958,0.0636917019182545,-0.05203689556654974,0.016087144748426936,-0.05432196904649186,-0.09982225765442793,-0.06422337659244239,-0.09759013956514549,-0.09589074719949868
0.382,0.08608610816135898,0.0008884588912070612,-0.08466635042943176,-0.041255505454669286,0.08457246029179087,-0.043568445697007754,0.02433445091929215,-0.046914969688339796,-0.09193567085770218,-0.05266506885390033,-0.08963323073109543,-0.08728847228611583
0.384,0.0308258691542147,-0.003444102109534245,-0.03345969611802154,-0.011873363927380632,0.032216622124114296,-0.02012395985338523,0.04106057211858465,-0.0323019463983201,-0.07227255118700128,-0.030827346488656232,-0.06752770376558613,-0.0678103446709667
0.386,-0.03332342038306098,-0.01906253860373807,0.014928600700767281,0.027424588672701086,-0.023782134537871896,-0.003506857501933774,0.049068219896508725,-0.025220093654348387,-0.060501222531343296,-0.018275588525667217,-0.051129395716690736,-0.05536317755857201
0.388,-0.04313555467808949,-0.030698629123230983,0.012629083558134668,0.03773014842835628,-0.027963273625332897,-0.009970789131436817,0.03861742183654716,-0.035254624397603046,-0.06852241251077638,-0.026341490423551137,-0.055451117289859804,-0.06005679507623915
0.39,-0.01847632003347049,-0.04143947948178836,-0.023146949514812304,0.031129440960260796,0.0017837508690693221,-0.03327098210919673,0.018173683460532483,-0.05563594691740882,-0.08929491885238264,-0.04672705304324709,-0.0747690312711269,-0.07496433747670492
0.392,-0.00973935060206892,-0.052440558568095076,-0.04291748494243789,0.03300200300961299,0.015746390599963845,-0.04942566415549476,0.006441329247848877,-0.06848068357031571,-0.10542392791933604,-0.06046524299563713,-0.08858872128191973,-0.08378958093333679
0.394,-0.02536720789531798,-0.054838677520824754,-0.029606145209703637,0.04187742421840818,0.0009129506852076484,-0.044407338990253974,0.011498780069002727,-0.06447177097234057,-0.10801551846772485,-0.05861246461058233,-0.08573698707501834,-0.0793875954582857
0.396,-0.038786386959748044,-0.04728257374786732,-0.00872250971711495,0.04352736309560693,-0.016697320104033856,-0.029632928130596044,0.02356459217776424,-0.05236646432449873,-0.1037061227532996,-0.04958784188355465,-0.07571879603593903,-0.07144371992825793
0.398,-0.038920307385714704,-0.0425981025806572,-0.00405000421291548,0.04007958540588485,-0.019449766577290722,-0.024235046339685363,0.029795637610654974,-0.0464069361313054,-0.10294539677593863,-0.04659787638366956,-0.07383989699595363,-0.07288991212798514
0.4,-0.039736093259379976,-0.05021158076173386,-0.010761588849931563,0.044255575699843244,-0.01656747293470924,-0.03136796343784303,0.02820016835981855,-0.049905527036615216,-0.10682210613539231,-0.053081694828168144,-0.08327346225654496,-0.08436386360528438
0.402,-0.04740039262995744,-0.062065429205811734,-0.014681309903082675,0.05469077386241599,-0.018019207067274546,-0.03934274310571407,0.024527365276015237,-0.05506981786091422,-0.10871184858704144,-0.0617572375059675,-0.0952786569767113,-0.09627826296292549
0.404,-0.04947122500377882,-0.06396196987466278,-0.014348323174157086,0.05707717770746767,-0.01845788723838312,-0.039535061285890565,0.022795467934599394,-0.05509105005439163,-0.10495053227616762,-0.06460818290438074,-0.10079947857091373,-0.10075921349653286
0.406,-0.038904636515839475,-0.05380259640131366,-0.014835430184177531,0.04656450599635342,-0.012613170464341824,-0.03407276879123257,0.02316346476572943,-0.050863587779498676,-0.09885364236882498,-0.060168639351735664,-0.09719179696166222,-0.09676709055534853
0.408,-0.025070180280600655,-0.04068965480217451,-0.015784933369345257,0.03291313924066055,-0.00593517544450625,-0.028514830371629822,0.024611628925311147,-0.04698808239501036,-0.09568085362569909,-0.052302380182975644,-0.08755083413236137,-0.08786465568123487
0.41,-0.019711715987589605,-0.034004312286917575,-0.014682305736725855,0.027314921669326725,-0.005000754177403486,-0.026002509288907443,0.025269712842062673,-0.04667212917128151,-0.098101080828972,-0.046474293525436854,-0.07862997198975245,-0.0797868838828242
0.412,-0.028329415909584765,-0.03684284226065657,-0.008947537791668748,0.034130910360294815,-0.01272465127974004,-0.02516447317089775,0.024581783314661647,-0.048798806667810855,-0.10407280235176158,-0.04470266249981417,-0.07496510139650935,-0.07565106796789627
0.414,-0.05320575976177807,-0.043112264347967416,0.00986630164229463,0.05071054286690799,-0.03408512735895817,-0.017963432800902467,0.027711298662476947,-0.04664254075400412,-0.10613192914222443,-0.04140213713374504,-0.0720410078358527,-0.07120976510339824
0.416,-0.08420655591923742,-0.04429842950917527,0.039953616716399465,0.06681960383978061,-0.06365643931266735,-0.002077151273515154,0.03728848631619293,-0.03753023297354299,-0.10093162488225979,-0.03316061851388548,-0.06546465794550861,-0.06383640609997443
0.418,-0.08896463193024078,-0.040483440572644504,0.04862100275488022,0.0664230388781215,-0.0696076017729248,0.004717751678470309,0.04138025893495055,-0.03343921668029224,-0.09940288766706759,-0.03111283456552301,-0.06505125551604629,-0.06362847197978636
0.42,-0.050203724337127456,-0.03784201537398588,0.012411258151356585,0.04515704407473453,-0.03194190940378937,-0.012683380068809515,0.02890954839113671,-0.045129397125032035,-0.11134723279229998,-0.04530155451054278,-0.08064679156521412,-0.07869100948508695
0.422,-0.00852551231502895,-0.039954577492708365,-0.03147845675698665,0.025843690268251045,0.010539056966508692,-0.03669425635946494,0.01236160691157653,-0.06057829785654981,-0.12519863989285746,-0.06241014227539324,-0.09955616346635501,-0.09563355287487091
0.424,-0.014936112189952335,-0.04625454447456452,-0.03136895132487031,0.03305036854382688,0.007051214669148298,-0.04033817079209238,0.011604741895104938,-0.06105970406951925,-0.12446103732681477,-0.06277340655796411,-0.10132283681538264,-0.0956934218293457
0.426,-0.052324140475212,-0.05181816648161834,0.0005303499479543143,0.054742473723139916,-0.027196745850898273,-0.027186900756305032,0.024024961938079688,-0.04980014541506394,-0.11442272752100718,-0.05052915628208193,-0.08755253918837827,-0.08224811044420269
0.428,-0.06038601004126659,-0.04850205253846039,0.012043855711660006,0.0565143250002638,-0.03615020658386798,-0.01961325842261877,0.03223642138849542,-0.04375970497232937,-0.11166998330330342,-0.04402002446874159,-0.07642715180692895,-0.07306496651406351
0.43,-0.025165522832702732,-0.03353915955322379,-0.008033896986597892,0.030594011060408485,-0.00820451073453712,-0.021830495550677197,0.031284077159682046,-0.04671513940228881,-0.11761364846370113,-0.04661239835508908,-0.07480119884415576,-0.07313795963058754
0.432,0.005003703291244822,-0.015468345814882685,-0.020059138150767316,0.005995705386571704,0.01195495762215182,-0.018364572663797808,0.03123583315735996,-0.04744053839652031,-0.11941700675938159,-0.046210299532982765,-0.07269651267927112,-0.0716574680478884
0.434,-0.010271888138112908,-0.006785566662183425,0.0037305148275467003,0.009194649144875205,-0.009085163433939109,-0.0022621764573503103,0.03815537022409648,-0.039483440367108186,-0.11150058342698756,-0.03742286514001652,-0.0634031019116975,-0.0626778102374334
0.436,-0.051173818079657284,-0.011926756112505868,0.03919931911608095,0.032302149752118814,-0.04791508821815236,0.011881389089051442,0.044427971141731054,-0.0309777178247366,-0.10377525682975518,-0.030194724875302614,-0.05576187528700592,-0.0556208054629853
0.438,-0.06772074993193625,-0.025226293907040606,0.04222347325057548,0.04750298908971402,-0.05704511096401584,0.005663864064442159,0.039573970703416,-0.03360821955183431,-0.10747581200752583,-0.03591822244052476,-0.061769009978560586,-0.06197221736416903
0.44,-0.04752260354350101,-0.04220893811509611,0.004904089375585181,0.04624483221498438,-0.027268192916740566,-0.021588887331335013,0.023233018468866357,-0.048930954070602876,-0.12150861811545749,-0.05350302154738238,-0.08077165980531179,-0.08037732448868443
0.442,-0.028803744552521365,-0.06585152673030098,-0.03757942574409169,0.048742678337825,0.003902000576151425,-0.05370192512978701,0.004298004984770317,-0.06817853179022992,-0.13666799315588382,-0.07210177034006424,-0.10126822785893293,-0.09959922457176297
0.444,-0.03898070868208804,-0.09006593544582146,-0.05174563385491201,0.0656641501330375,0.006124721686345817,-0.07174552496930478,-0.006117989795987212,-0.07938128523200383,-0.14518452590628492,-0.08095744143056928,-0.11096035803591756,-0.10868891216063872
0.446,-0.05281169984795208,-0.09020558140374003,-0.03813818491478907,0.07263590093265543,-0.0075448142990398835,-0.06448536750291083,-0.00024383413006579847,-0.07424536944424334,-0.14296853103597437,-0.07468527203775321,-0.10338596945779722,-0.10204819143503657
0.448,-0.03604159217452663,-0.054632142660659334,-0.019260573309554753,0.04692633499628652,-0.008866130829714668,-0.03733826210066761,0.018734243841576934,-0.05609560791029784,-0.13198124405962192,-0.057344032730052286,-0.08399930063825098,-0.08429449452660262
0.45,0.003107306354066762,-0.012277983908279702,-0.01576264349526098,0.006548406831498875,0.008683673240587978,-0.01467666539229393,0.03432684334055806,-0.041296782325159584,-0.12318973325641326,-0.04418768928020542,-0.07000448549742323,-0.07155983354342224
0.452,0.03144082789831713,-0.001522579284538706,-0.03292480245885883,-0.013041442673816283,0.03176075884552013,-0.01839454276908836,0.031877966411865126,-0.044032112695061645,-0.12758806198511577,-0.04941155162412158,-0.07408616183414193,-0.07669352719516709
0.454,0.025800729598294325,-0.023665055089024722,-0.04913412977705605,0.000826716250537758,0.03785005347304313,-0.03846617507583006,0.017946144135523433,-0.05771999015547462,-0.14055177874644584,-0.0666897638984854,-0.08754532023959814,-0.09103088873009367
0.456,-0.02395001045215434,-0.04769557323312488,-0.023448305585366445,0.03801805236953822,0.0006374979553912079,-0.03838183386024524,0.01639839533489406,-0.058861629471544163,-0.1420150012938981,-0.07057448366141487,-0.08776858366814407,-0.09086232876479675
0.458,-0.10720626991519944,-0.050532592107627644,0.05671484694540502,0.0813077093197547,-0.081191732176916,0.00023989925681294929,0.040060378584652896,-0.034739731443866974,-0.11921191534276984,-0.04600815728548969,-0.0650487965555315,-0.06619871092410749
0.46,-0.17053642691100082,-0.0372247547507339,0.13318234870709528,0.1060573686427428,-0.15144061489283145,0.04562855724071292,0.06973267594723698,-0.004673209424101181,-0.08883516802948589,-0.013083811658727242,-0.038564966887545946,-0.03786920922779679
0.462,-0.14657043849273818,-0.02539644569251547,0.12108488865875598,0.08755376807501579,-0.13362648892461587,0.046075801317563524,0.07178142950368296,-0.0025792849344960316,-0.08449713911904211,-0.008834796980824766,-0.03840924262736089,-0.03744103932637958
0.464,-0.04116260946920937,-0.02383994752269935,0.017369343880274966,0.03378891753044923,-0.029371705918993414,-0.00454363244986629,0.0401072672397851,-0.03401876806674902,-0.11482228320628186,-0.040190550894384836,-0.06825252094964142,-0.06811571304807808
0.466,0.0482678923101473,-0.030613571208462222,-0.07869018784264822,-0.0071656408206623445,0.06257418646160447,-0.0555655697466313,0.006263058603931633,-0.06678014516128239,-0.14961493300781337,-0.07284734177078524,-0.09778430774372808,-0.09834029671038248
0.468,0.046266150311436986,-0.039584382236039016,-0.08552965454873099,-0.0012381757347728656,0.06389856572448581,-0.06326255660701108,0.00044590585810482756,-0.07188978806337624,-0.1579808372714193,-0.0753312565056322,-0.09998710846922503,-0.1009328827045142
0.47,-0.01444576074023488,-0.04339990640367751,-0.028688067664807335,0.030766189720289546,0.00450389736664649,-0.03716105785018601,0.01885510777430037,-0.054735167743486066,-0.1425301653499047,-0.054220849255615794,-0.08133434633268924,-0.0827809505176505
0.472,-0.061806223178069546,-0.04092647494187636,0.020787444319011455,0.052463186818516715,-0.043569613879982656,-0.012191519632637758,0.037624977319998025,-0.03806812721815916,-0.12602224020343303,-0.03615776185310062,-0.06618015211782968,-0.06756178745168938
0.474,-0.07754560715302289,-0.04111098988479358,0.035990327604696684,0.06001300377381739,-0.058107955755186784,-0.005394564840362811,0.042223699621881786,-0.03363742841119106,-0.12198624010011212,-0.034384798620728775,-0.06633037889523138,-0.06625592950432836
0.476,-0.07694725220177324,-0.047567647190132754,0.02899131258238798,0.06298639369185419,-0.053577461150601545,-0.011792851006641833,0.03482271796097561,-0.038149585010108115,-0.12768783027410222,-0.04350246003185297,-0.07523636656778282,-0.07350964984002448
0.478,-0.058406557541356076,-0.04602088441200395,0.012352184107195435,0.05305619845002246,-0.035766028399899626,-0.01829888266222905,0.02632691658008543,-0.04199667303424706,-0.13223125491388218,-0.05158338612785402,-0.07999906627597776,-0.07820534721118721
0.48,-0.017428952028234336,-0.023108857301833097,-0.005471221303554391,0.02143009652040879,-0.006500908592847674,-0.014911559471212548,0.026486873453730696,-0.03693100292752203,-0.1265402180678409,-0.04966742298872555,-0.07305370603202768,-0.07216556424075028
0.482,0.02650136880712525,0.007603157413137459,-0.018651948493685275,-0.015194308276918882,0.021504471639980757,-0.0058807404031670524,0.0340625588904935,-0.024339533623379535,-0.11307189362085804,-0.03925774761806858,-0.05912131148790212,-0.05825274385754116
0.484,0.04289974630008847,0.017172043539291186,-0.025443663135348505,-0.027723597889534986,0.03216651358414848,-0.004639775705538104,0.03920474561615331,-0.014290555058777405,-0.10288725882129825,-0.030300591806353815,-0.049498535179249535,-0.047908743602974584
0.486,0.02272578602500501,-0.000865856656735312,-0.023252222371643455,-0.008989825760338457,0.020410900258141355,-0.013125886472517395,0.03834331192615461,-0.012145225153192262,-0.10082746909425318,-0.02781669977404142,-0.04764230008884402,-0.04621001021153608
0.488,-0.00859102229203408,-0.021495577286792175,-0.012687398942112089,0.016211872724192417,-8.463730379683142e-05,-0.01910820016583089,0.03826209502507979,-0.012926468348174501,-0.10178308475601663,-0.027302790648811057,-0.046897549202395736,-0.04655804796859748
0.49,-0.01740548526710558,-0.0198539850991129,-0.0025900572812002647,0.019458284439460745,-0.008482702252621984,-0.01402163944054265,0.04422618336871602,-0.010261856739571171,-0.10078077602559761,-0.02348966153033585,-0.041445921220375326,-0.04143006942383458
0.492,0.002195796492925883,0.0012972834748092197,-0.001476228620166799,-0.0005783816638234543,0.0016298186817486461,-0.0030103471052368783,0.05166638638604316,-0.004520814347106923,-0.09895944098805953,-0.01738736137557966,-0.03337514078451258,-0.032097035148149905
0.494,0.02799042609339037,0.019815883690778018,-0.008995349269085236,-0.022090484907708208,0.018677843227464,0.0028482107819171373,0.05254369671103424,-0.0005697081200299414,-0.09972138008260682,-0.014428453040460823,-0.028786912304319942,-0.025819913467440815
0.496,0.03835683953587159,0.02207573526077102,-0.016931360839336187,-0.02798453665579285,0.027710171036950892,0.0005418138024941323,0.047040010896492304,0.00018938362727198704,-0.10238735350715418,-0.016998893155837982,-0.02953285801244451,-0.025785300728735604
0.498,0.03009352853355184,0.013586387718798955,-0.016685172727417225,-0.019783283718812866,0.022862322826991986,-0.0028273455835007497,0.04319278396745585,0.0016353895874649325,-0.10270340694008183,-0.021460856481643274,-0.03274208772025686,-0.02935880448737819
0.5,0.012413466864523442,0.0038937491519707,-0.008338322214835074,-0.006854076411197311,0.009172461776290521,-0.002804252946024156,0.044340824565464884,0.0055429473070911384,-0.09991684024268661,-0.024294347392377073,-0.03810223956586614,-0.03598766714105482
0.502,-0.007580476115767199,-0.006520038017902756,0.0012460539676245853,0.007594102855090877,-0.005851034697195339,-0.0033321294127573427,0.04532336018466114,0.008561883469619636,-0.09680089600118272,-0.025617806107255444,-0.04667006841811629,-0.04620037812767888
0.504,-0.03594763571013323,-0.0231041450881133,0.012865926411313438,0.029955513855152938,-0.025452741445342982,-0.006609238763345848,0.04321176881664295,0.009763772486254011,-0.09204435840177051,-0.024382551734089757,-0.05189701577430452,-0.05248175490205986
0.506,-0.0777790537669846,-0.04504539264273628,0.03276725376489904,0.062098151729485934,-0.055627341930298425,-0.007847791961120742,0.04219023673021035,0.014521362982801374,-0.08158762178057283,-0.017107109350394466,-0.04406357601609009,-0.04461405098729559
0.508,-0.09897891736453283,-0.054104310484168285,0.045154797709338855,0.07710730714500584,-0.07214301446562497,-0.0053533363816173065,0.04434824686392777,0.025917348654447624,-0.06822466365063237,-0.004806100384447844,-0.025734122926020273,-0.02572256041471869
0.51,-0.04752213474410244,-0.030852236270125327,0.017122737197647654,0.039427121440761714,-0.033034397428207594,-0.006955343775545324,0.043376043417716975,0.03707362276576896,-0.061546341559574294,0.0038712711119134333,-0.01208560212161597,-0.011792442465326581
0.512,0.05420732848924701,0.008434385409807819,-0.045499279449318523,-0.03080862240963235,0.04798251232896,-0.018871804171042554,0.03215969233326786,0.038597033606313884,-0.06607863138002733,0.0014551958119169764,-0.012844813491800342,-0.012709603433107662
0.514,0.10966540477571024,0.020927174313310065,-0.08891450558919854,-0.06391274215632296,0.09676690185823007,-0.03533853262042684,0.012447235126298627,0.030817477762826898,-0.07606560650018099,-0.008906553606737295,-0.021961069858604968,-0.022054263363001606
0.516,0.07787975006955679,-0.0055249386473518606,-0.08405172962937378,-0.03412362857295438,0.07883527710580572,-0.04688042462997592,-0.006552755700147118,0.02222058172919153,-0.08433857218752606,-0.017789761006808093,-0.02832834965068623,-0.028446071246940284
0.518,0.02240925883496897,-0.03718684604390936,-0.06055192734396883,0.009405469918295323,0.04022861881581151,-0.050673480469054365,-0.016070152952058585,0.019376647322776355,-0.0880691278128046,-0.019637425972870114,-0.028184070430461478,-0.02818952728430517
0.52,0.007671530131833561,-0.042648377889516205,-0.05127350017432099,0.019063690471623006,0.02870510443285174,-0.047677713044927225,-0.013873381713380322,0.023016077295723487,-0.08521263189653303,-0.014579215503572478,-0.0233699659488784,-0.02322067552770482
0.522,0.026579333951756327,-0.026694612900822496,-0.05386106279735714,0.0015528381019848656,0.03936264897774238,-0.04028470568727393,-0.006619149707817331,0.027809745049592,-0.07706279519630611,-0.006592993534376356,-0.017128720629502457,-0.016571114265059902
0.524,0.04415354536929453,-0.012723546922308263,-0.056957921296027905,-0.013618758127670912,0.04945880670882967,-0.035298236275379015,-0.004275309257290446,0.0235364468506394,-0.07308475945210967,-0.0029006083090938103,-0.014677308782652637,-0.01338575830026673
0.526,0.047317372215654914,-0.01296559670189735,-0.060082250565656595,-0.014348922135188284,0.05250490269554291,-0.0380004023403044,-0.008654049564059374,0.00463303862071534,-0.0814906667674067,-0.008841547916890648,-0.01966118564627029,-0.017997068136545193
0.528,0.04288935896331283,-0.020614861628439906,-0.06333738988912685,-0.00810304135123446,0.05186654402375504,-0.04391597676060792,-0.01181247816722257,-0.020811844437053098,-0.09842721134859728,-0.022699685121838384,-0.029688734632190638,-0.028669243093141634
0.53,0.041590816180374905,-0.023914547840295602,-0.06538151677723254,-0.006141015296620306,0.05215174011799187,-0.04628193068038314,-0.008781261408757008,-0.03946805467871972,-0.11458109797910673,-0.03916580712053256,-0.040068466749078865,-0.0401580823774005
0.532,0.04465375416649364,-0.023794294711039526,-0.06807947159421313,-0.008205547957923914,0.055115816452992794,-0.047241420348084324,-0.004918384966161507,-0.04816054934983899,-0.12681702362048888,-0.05493170268228979,-0.04924020663253719,-0.049815688718519525
0.534,0.041521057502132544,-0.03014446278627926,-0.07094293483526021,-0.003705928309047643,0.05531256019934162,-0.051980247678840984,-0.005977945004153211,-0.05355283541169212,-0.13726269583161269,-0.06827559197058079,-0.0579338172611099,-0.058190137221428094
0.536,0.027206425542424365,-0.04278175127049116,-0.06925253549166588,0.00985826343990463,0.04754786395723778,-0.057757244859413075,-0.008213921327235491,-0.05992954252998319,-0.14577460279786256,-0.07677224182231282,-0.06578518012450044,-0.06560651617819238
0.538,0.011419038066478315,-0.05144288781186851,-0.06246891943538527,0.022349793801979014,0.03620449034241138,-0.0588772511826868,-0.005193775548941115,-0.06483616409438733,-0.14941521586043488,-0.07908923517568775,-0.07139714922995131,-0.07117238631744692
0.54,0.0032359359712956165,-0.053772170034089774,-0.05685633670191891,0.027782638016949773,0.0290918858439132,-0.05729050176854532,0.0013488784265170096,-0.06544620726628045,-0.14798745266299593,-0.07809027416296352,-0.07489620482867392,-0.07488479950853037
0.542,-0.003266504395266174,-0.05915763723914382,-0.05567493800295573,0.033498558565715555,0.024876458766091757,-0.05924835177159156,0.005029348602373867,-0.063231151480132,-0.14521274401111356,-0.07858169766635928,-0.07779146924322342,-0.07801777506001834
0.544,-0.019214306722535445,-0.07245800402761346,-0.052880876547081665,0.047432709435985126,0.015027337312288438,-0.06432179974193855,0.005113803378719374,-0.06115360270500513,-0.14389870268768223,-0.08134639071213917,-0.07994642464246042,-0.08066491646428035
0.546,-0.035494851063070675,-0.08096845613263796,-0.045062079127774726,0.05913575724067919,0.002851220511530106,-0.06485485181303298,0.005973638772069664,-0.059906830806463786,-0.14343641398577828,-0.08249563068395177,-0.07896969320091267,-0.0805728011978621
0.548,-0.021945736394846024,-0.06708771372453463,-0.04479934330944214,0.04508630600510793,0.009944785030231055,-0.058093797006843584,0.008235181480804737,-0.059284733676964324,-0.14327858426639603,-0.08005594274080617,-0.07439787943234097,-0.07635121332930142
0.55,0.02691515778269692,-0.0364155498999266,-0.06316631330856913,0.005085219971285688,0.044067730707998215,-0.05175990723224556,0.008116695051679581,-0.06001649263764197,-0.1445865661204262,-0.07720605270255124,-0.07018781015735406,-0.07071584375231338
0.552,0.0629999583157248,-0.017522623043877847,-0.08055123541359556,-0.02276566496788998,0.07063526963301694,-0.050604431053859825,0.006161815274685519,-0.06087018599062347,-0.1456581139736051,-0.07592880731936343,-0.06935898103805345,-0.06709298758808702
0.554,0.04043892356295526,-0.025162846052866505,-0.06569937979688104,-0.007886271644882075,0.05100116819370295,-0.04718393729490673,0.007762895814126412,-0.0584382748765408,-0.1419054310731933,-0.07377371102115975,-0.07013120246148266,-0.06599423935969229
0.556,-0.013895068445830081,-0.04147068712901984,-0.027591890547585197,0.027639612545838278,0.0038673476440165564,-0.0369526760311853,0.012382819573678703,-0.0542101974618864,-0.13478594713578854,-0.0717261267300602,-0.0723031075121353,-0.06901243998799457
0.558,-0.028943643972452176,-0.042717849534146,-0.013632908677140175,0.03637254355572108,-0.010781780957515115,-0.03075709568002656,0.011806948852237688,-0.05605460018263381,-0.13344747884952912,-0.07667123485311543,-0.08050092621143126,-0.07982665840818041
0.56,0.015678649536831693,-0.02926157496236599,-0.04470813204577707,0.007980378733455454,0.027577618519939742,-0.03883662123140969,0.0029676642227322355,-0.06701853994541221,-0.1418298036602756,-0.08994543815612453,-0.09479242600312639,-0.0960141081292544
0.562,0.05925095314344843,-0.021979370074099124,-0.08113499730617778,-0.017092821761495385,0.0682336375892815,-0.052668029901412707,-0.005461025690712211,-0.07798470960781219,-0.15060693247745746,-0.10126317776579094,-0.10560578367158775,-0.1072873484561593
0.564,0.03325023577957886,-0.03664600409046485,-0.07010467326091936,0.0033248282413324455,0.05026453072118719,-0.05450058733503461,-0.0027166158948430117,-0.07694234269963429,-0.14717758408901213,-0.09931995602215925,-0.10354400198610408,-0.10571532615576279
0.566,-0.056123759381451845,-0.06492657781248676,-0.009202763093479343,0.06218704745184322,-0.02463949462553059,-0.03847976579780185,0.012049047708374816,-0.0629444799043168,-0.13004555175294663,-0.08462066198233677,-0.08973685391472001,-0.09294258037464521
0.568,-0.1282229072436464,-0.08157140463252194,0.04634139303700353,0.10635275714240873,-0.08860047045490825,-0.018944781140125832,0.02658144461170643,-0.049915029983350734,-0.11280571674749407,-0.07171324907381088,-0.07700414303931676,-0.08020003727272222
0.57,-0.11022492377342806,-0.07247723193685192,0.037743106662765376,0.09210905013513923,-0.07540286648393632,-0.0185089376933235,0.024469643583282817,-0.05524371478648065,-0.11339014078575431,-0.07770355322362517,-0.08098117384870679,-0.08233219971466338
0.572,-0.0232814230252282,-0.05046558783095582,-0.02692920149150935,0.03680208600130991,0.0006761509440699482,-0.039992830753133465,0.004524078801423882,-0.07867680416886132,-0.13286529550228193,-0.10139310891466037,-0.10179401054426758,-0.10102901200017346
0.574,0.0350261320758781,-0.037026742147033366,-0.07189682796181808,0.0005219293522621474,0.05262703941223383,-0.05608134213915731,-0.012358965997003177,-0.0973652105137759,-0.14923562470276194,-0.11894923202250235,-0.11833354411620535,-0.11661843615815617
0.576,0.007070413812371565,-0.03798181359706145,-0.04531602685167538,0.015093953849937754,0.025141402643743753,-0.04344426813704808,-0.007513247935778597,-0.09264466478898736,-0.14367599309528709,-0.11285607796668314,-0.11369178880691157,-0.11185267950141821
0.578,-0.06271477672989745,-0.04885094811316393,0.013328062145340751,0.05591750137773568,-0.039807270892338646,-0.019504582862045684,0.00847950821108227,-0.07668203789918605,-0.12776574978090635,-0.09851350071462893,-0.10077395001280905,-0.09923505256996648
0.58,-0.09614432963618386,-0.06855162462638809,0.02724389874034577,0.08335567759164805,-0.06393467022176051,-0.022159738652577615,0.008804709770324734,-0.0778173636550074,-0.12923883187101926,-0.10486574588252669,-0.10581424767310363,-0.10552656281482431
0.582,-0.07073474401980837,-0.08737421753287104,-0.01659974049837619,0.08114526334588049,-0.028805976218523766,-0.0533325623423088,-0.009770255530759287,-0.09942226406659696,-0.1510363778119546,-0.13162827132107727,-0.12845369702087836,-0.13012766052125951
0.584,-0.02071923348183826,-0.0797948742626471,-0.05887272038814006,0.05300230251010995,0.018316075817231405,-0.07072740812466008,-0.019823833631304497,-0.11228565962423863,-0.1639797108719843,-0.1466849345837969,-0.13882137161978483,-0.14152623252419713
0.586,0.014908600248942212,-0.038207478682491955,-0.05303300735636776,0.014103690481301116,0.03356617396664842,-0.046859146971108656,-0.0030143897243389505,-0.09651463301679923,-0.1479956649375533,-0.13031107243016765,-0.11965790096181837,-0.12171936936190214
0.588,0.018353489363135495,0.0026894232424781307,-0.015731736346869765,-0.008927564841220698,0.01627282094780358,-0.007349192591605866,0.023414911317336244,-0.07045583014768256,-0.12026051991656993,-0.101307893549148,-0.09058059805002709,-0.0916263643816299
0.59,-0.007290856367743402,0.006144277127630215,0.01335761108198568,0.001668337208249499,-0.011242373191414272,0.008869138152602358,0.033003994563511885,-0.061973051886878835,-0.1083502161545689,-0.08843046280127285,-0.0789787277142912,-0.07973488907569862
0.592,-0.04115655079772621,-0.018798262063122326,0.02235778991965439,0.03121289955130786,-0.03224486482521855,0.0003362530953152604,0.024994601875560123,-0.07063722576155973,-0.11430306479307924,-0.0944233983748319,-0.08580741102511658,-0.08648748328915215
0.594,-0.05883590151635291,-0.03688027662908255,0.02199753474811196,0.049260532659005214,-0.04063710157978127,-0.008926852728563112,0.01687130047723842,-0.07792695154182662,-0.12187739727166723,-0.10319253828194433,-0.09508854928576613,-0.09542505517261735
0.596,-0.05294584561442045,-0.03380788653324691,0.019136306941856716,0.04459697092098796,-0.03668227764358329,-0.008040252052761697,0.01718451186383671,-0.07710116776929066,-0.12261277205356663,-0.10572858575254758,-0.09907926715466189,-0.0993864552665909
0.598,-0.03485439966780252,-0.019681943615825835,0.015027978928328654,0.02834478200126258,-0.026111580141616398,-0.0024713054781486995,0.02132184842491108,-0.07450170979822486,-0.11883382642069003,-0.10332722945741453,-0.09875823390201906,-0.09947217016668836
0.6,-0.01626831653067989,-0.005777506909349796,0.010146039817911222,0.01245322026519821,-0.014424453177034334,0.001701370100963777,0.022514528285962176,-0.07590646759407553,-0.11476952167433649,-0.0998614770991851,-0.09604492283225784,-0.09640245805666185
0.602,0.0018010036629576703,0.00017599560880526474,-0.002048718494115178,0.0011388188363892272,0.0007589219734122445,-0.0019543835019999313,0.01622839365360363,-0.08385833183201806,-0.11570932792903968,-0.10168786292701144,-0.09622372122096776,-0.09487269917019929
0.604,0.017206646856574262,-0.008400248962427546,-0.025853496644293403,-0.0019778076670895436,0.02021794959655094,-0.018004902474693617,0.003412268348070511,-0.09651574812113277,-0.12407332394151763,-0.1116753399696689,-0.10355942724347578,-0.10058974821670254
0.606,0.01197366295718268,-0.02793895369900551,-0.039882070216939715,0.00978956053518851,0.02485259917300345,-0.0342150236683572,-0.004888678944987074,-0.10329452283185535,-0.13084981459703665,-0.11919873247063739,-0.10988702793386851,-0.10702247511527313
0.608,-0.03299207289423715,-0.043739350162399805,-0.010604031733526269,0.03922706295875407,-0.011479550352812057,-0.027352843057155615,0.004423781863108406,-0.09195583016349909,-0.12188269277991172,-0.10954640319773165,-0.1006349568236147,-0.09905379974490418
0.61,-0.0961975819631481,-0.045722346714109664,0.050534573174882004,0.07169814163168416,-0.07329847102054565,0.0016673844317352704,0.02720721828279057,-0.06686137951562005,-0.09877870019150443,-0.08711109074985915,-0.07747763308951482,-0.07650949975637959
0.612,-0.1140918889080849,-0.03837872640193288,0.07566657253809564,0.07768423549584326,-0.09547545057649315,0.01739177991705638,0.03950202653788685,-0.05243852046585962,-0.08436106800023549,-0.07698984953084677,-0.06400708185865804,-0.0627041482838843
0.614,-0.0617115386769609,-0.03214393904131347,0.029513077765622456,0.04867335896460915,-0.046907430832136464,-0.0024462467910788084,0.027310990270568877,-0.06394849299057472,-0.09403806456943653,-0.09255227256392255,-0.07613319729771229,-0.0749178047123057
0.616,-0.004014140273667914,-0.03031968649710121,-0.026306550455550227,0.018289019809739095,0.010211250863030824,-0.029123865236088797,0.009551372131080944,-0.08196393384641157,-0.11065994717339084,-0.11310667477952592,-0.09741126489893602,-0.0971423287008502
0.618,-0.007343742578211794,-0.027545694574953802,-0.020172828528889408,0.017985052188568846,0.0064476594816769055,-0.024805235835629238,0.01175382598542244,-0.07846516245877941,-0.10878471048786767,-0.11301494257201346,-0.10521587904373407,-0.10572091378217614
0.62,-0.040603202120213185,-0.018107806480380097,0.02250985228971421,0.0300847106405914,-0.03125515806084363,0.0009735933462333287,0.029677174246026134,-0.05762446888904464,-0.09188190981098655,-0.09893708027326928,-0.10677209023514986,-0.10719597666809064
0.622,-0.03440419788314543,-0.003297763674721411,0.03109746494283544,0.020012123694261627,-0.03326956602836847,0.01290542346754868,0.04190904760129707,-0.04384330016886866,-0.08114021872580467,-0.09410463993920204,-0.12028277354099601,-0.12022513863444069
0.624,0.007558145715473341,0.008747350319510317,0.0011770379307996274,-0.007121454649402861,0.0016214686789878718,0.004384985511792547,0.04356061089353086,-0.04351777216105873,-0.08227195465181598,-0.10167565794275003,-0.1384608736489792,-0.1382026128760595
0.626,0.02638660265646744,0.009990317131612206,-0.016419141928682778,-0.01779452655064675,0.01936722507222739,-0.004125361443148181,0.04482392281866996,-0.04538410375032406,-0.08657218242689205,-0.10818354746371305,-0.14217894932314976,-0.14208520671663652
0.628,-0.002464813868589901,-0.002041884610682799,0.0002978143107310587,0.0023728209472670295,-0.003299260089548213,-0.002859080593846263,0.048403305285258706,-0.04627005004029673,-0.09193446266105626,-0.10988162422807737,-0.13410829213128617,-0.1342037322532983
0.63,-0.0536942406566961,-0.02528971788408579,0.028102505181409953,0.040326385087286004,-0.042447908225409794,-0.0012715788154133805,0.04754736136054276,-0.05406609699690642,-0.1041027285796311,-0.1153220995848589,-0.1331421339301096,-0.1332388652901081
0.632,-0.09526913187001751,-0.05112438154767051,0.04382979089777394,0.07522570312433464,-0.07071492472776371,-0.005911401650122448,0.04188335829614873,-0.06973629003433308,-0.12305735276352228,-0.12834818531596265,-0.14608987933578868,-0.14608408890422248
0.634,-0.10981804755743385,-0.05990764077618946,0.0498482537259864,0.08742367073469097,-0.08071792890345977,-0.006301890899135061,0.04278504336845937,-0.07990946967138628,-0.13873030919038123,-0.14092698355979932,-0.16095941678238715,-0.16090389533554708
0.636,-0.09924947122336862,-0.038045089313687906,0.06132488867758957,0.07071485264527548,-0.08113445188919387,0.011152935444329609,0.059225428043788574,-0.07100371761519929,-0.1407235991910832,-0.14306103877355797,-0.16444494122374656,-0.16442158098260362
0.638,-0.08654511426659134,-0.0038543936360261374,0.08267076616058411,0.04657647290250657,-0.08586805577095089,0.03928264186679383,0.08280521202708811,-0.0464615645216339,-0.12983547288786654,-0.13538641293994308,-0.15806653765546583,-0.1581953726379305
0.64,-0.08758521020760049,0.010129768028022533,0.09751973937506132,0.03995192889144644,-0.09451509619755966,0.053587158516496876,0.09527510006577726,-0.021622689703960675,-0.11631488654527856,-0.1276615994369557,-0.15410817520526385,-0.15467694348054373
0.642,-0.08199375753041004,0.0027938685197203645,0.0847523636062102,0.04089102705269298,-0.08563821645448587,0.04302958725775487,0.09065501998147853,-0.0010324848711483832,-0.10542186458575112,-0.123959627390051,-0.15748766101829667,-0.1584681887851424
0.644,-0.04202000176260556,0.003597509417449879,0.04597049004765332,0.02037901436863583,-0.04574965941642667,0.02367072288122904,0.07993535312447349,0.028652304632512414,-0.0892773885426495,-0.11417725822419972,-0.15599856674962023,-0.15646255858932895
0.646,0.018967745643766333,0.02808131642641392,0.009643250014879421,-0.02228973921811541,0.0038096969603101816,0.017780823892630977,0.07342382580726549,0.08097498687946683,-0.05414216798148924,-0.08207818567662743,-0.12783943344347526,-0.12699840192984496
0.648,0.060036985949687816,0.06163637980102376,0.0018951049043220848,-0.0591723252123586,0.028840433843508866,0.030655432774113617,0.06690659830459228,0.15314649901053487,0.008127812169014224,-0.017479851873905036,-0.05589379036732308,-0.05449150823527498
0.65,0.07108178604204693,0.08466650444042753,0.01352029835063051,-0.07617186703812809,0.0285627705753345,0.047605438302076024,0.043241990521025855,0.22565626061531122,0.09349649035936518,0.07887529593206855,0.061781411717969685,0.0623771024344787
0.652,0.08938790532196701,0.09127450076800002,0.0017001521155131016,-0.08947414810763402,0.04303551731154569,0.044593346434178,-0.017843098535844423,0.271565077051037,0.18571911689579795,0.19598047498858587,0.21002708430895206,0.20950419675545298
0.654,0.15372861691974163,0.09091859965584094,-0.06289358427445874,-0.12244245148179353,0.10680233685122538,0.0120564286795233,-0.12083293904160239,0.27459996751660737,0.2694035993724903,0.3219195718104313,0.37043961380866397,0.36912916030581217
0.656,0.2655272963522345,0.11274447159655818,-0.15284509126661824,-0.18926098337886482,0.20766167994079388,-0.02171579239878835,-0.23796816182455344,0.24653022801833327,0.34872967222007273,0.4601606242880881,0.5445337215162325,0.5421022211819895
0.658,0.4022006360063715,0.1897726941201522,-0.21268885085901695,-0.2951753611515311,0.30663855786791344,-0.012913904304376077,-0.32996758350972927,0.21545862193127427,0.4419400366944141,0.6254655131698664,0.7517898660685296,0.7477850315241117
0.66,0.5391822928797018,0.31249571259536474,-0.22711470498915223,-0.42432675460687963,0.3828715733275622,0.04108739053434049,-0.39178673252094626,0.1922149166830478,0.5525438752215356,0.8149288755593131,0.9946952458806967,0.9900428752710048
0.662,0.6479919777142011,0.42258935652425295,-0.2256969427935979,-0.5339689482906518,0.43626812219266614,0.09686070316969365,-0.456201099855145,0.16271025946374526,0.6622457936388757,1.00075474790065,1.2428009263388053,1.2393427271301447
0.664,0.706566629606717,0.4795817719331437,-0.226974694207495,-0.5920848535685381,0.46540297278462367,0.12536561335300395,-0.5453937747754328,0.11453675621642102,0.756691774517186,1.161637376588396,1.4637468810533065,1.462371699476029
0.666,0.7247538131315666,0.5074634928905062,-0.21713078750814443,-0.6149519958543647,0.46898054314621046,0.144904052438567,-0.6420846007449413,0.05426503269643129,0.8399176279127418,1.3027931820678191,1.6526870424672702,1.6526838889955515
0.668,0.734912966795832,0.5531397385178816,-0.18169499418131996,-0.6428402700978574,0.45641595518896333,0.18536709967532225,-0.7157741617917266,-0.005044246180019871,0.9191809063387918,1.4364161976290268,1.81955874035546,1.819372633135327
0.67,0.7540766582007213,0.6248947353977393,-0.12922837516469707,-0.6890155658871142,0.44058796793974625,0.24693104284074624,-0.7572754909900482,-0.061540429998235814,0.9921456677931358,1.5595719894766744,1.9631354378096357,1.961439469682936
0.672,0.7723757447630514,0.6913247576538533,-0.08111575440364095,-0.7321573859910259,0.4267804757146324,0.3041078561023988,-0.7769294083132908,-0.12451000528224959,1.0521499901599591,1.6593269409141698,2.069810418903154,2.066239317657311
0.674,0.7707306451660848,0.7179315982682642,-0.0528050196849155,-0.7444216758860913,0.41236682861371937,0.3319791434554551,-0.7810556603307616,-0.1986013919640056,1.0903189164151674,1.7203619803596282,2.124078783924024,2.1192725119040676
0.676,0.7356096557867993,0.683722113133041,-0.05185520128354822,-0.7085814241086993,0.3938568786595745,0.3155008761583969,-0.7630657855968672,-0.27121622335466816,1.0859258598323698,1.710871680477177,2.1026230188662467,2.097987944179442
0.678,0.6699460200310239,0.5823242558072182,-0.08760305911608292,-0.6240499600628157,0.377623525428207,0.24649045202716863,-0.7170927009669751,-0.3237293337309667,1.0092500344558168,1.5826533726347238,1.9700045266705497,1.9672792995608634
0.68,0.5961649590738419,0.43650083008804663,-0.15969476467453905,-0.514276863995817,0.37563955979405067,0.13696427940078187,-0.6489093945949465,-0.3571849990190739,0.8504074150896361,1.322416205786193,1.7117586899462516,1.7118888631260858
0.682,0.5277208724649827,0.3021346811178658,-0.22573186177333787,-0.4134648397405539,0.37444258510817413,0.03653045834207006,-0.5659525381924587,-0.395431264279234,0.6392773674898822,0.9964965717673071,1.3763583441057936,1.3782826290471666
0.684,0.4474627939080053,0.2267864885117865,-0.2210277750507855,-0.3358495569304886,0.3332141758289383,0.0013082139417780322,-0.4711630199505388,-0.46262172002537044,0.4145550854134284,0.7007620004271643,1.0500287292758803,1.0512062145631278
0.686,0.3474842511031921,0.20066760080294554,-0.14738568645896513,-0.27246277500677984,0.24778880236424058,0.025257857285858554,-0.3803590435308044,-0.5684205149807732,0.17280582666664404,0.45609501602291963,0.768898081153701,0.7679368657567525
0.688,0.258654722551921,0.1690993341018494,-0.0902652525233664,-0.21192955589431467,0.17497459673642168,0.03815641347238709,-0.3213066349768393,-0.7015948447543858,-0.11641931161628749,0.19870156145622736,0.49092808213072875,0.48909378059342906
0.69,0.1989347654413486,0.09620855902699839,-0.10347411396204441,-0.14566388572770494,0.1504835804062917,-0.004897885728927499,-0.296922282778043,-0.8188930283559431,-0.4274085988214601,-0.10056905504738536,0.18818465527006545,0.18733643890032278
0.692,0.14399273237384774,0.0005847573860601348,-0.1440748198275153,-0.07080927053080634,0.14201678576223956,-0.07318458146050177,-0.2796276005406983,-0.8606432327858916,-0.651866242174843,-0.3562280801242631,-0.0741131671921252,-0.07419168483256026
0.694,0.08219812186441477,-0.07342514907969688,-0.1561179778392638,-0.0033654476450813695,0.11718683635493701,-0.11640594236629764,-0.2561556725590366,-0.8040405153490446,-0.6977681141339777,-0.45604789530703277,-0.203229154056401,-0.20405634686943078
0.696,0.03765177441026609,-0.10544352072244739,-0.1433911288640181,0.03494331018374465,0.08970706940161069,-0.12597732273540735,-0.24515756506951844,-0.6903910850560996,-0.5942682012304525,-0.39855439997710634,-0.19700090370447215,-0.19842261644197234
0.698,0.023254267537180056,-0.10999945183218354,-0.13335563510045406,0.045108161861621206,0.07813646748493155,-0.1228864600667987,-0.25916834579452463,-0.58290108568862,-0.4593333823276103,-0.29131572866577293,-0.14353292319149694,-0.143536426443544
0.7,0.02413679989131363,-0.10439642596443852,-0.12849291642307428,0.04277169766464849,0.07533236649755039,-0.11723856991797293,-0.2762853174402148,-0.5059606805663767,-0.3749273269820664,-0.22613148252686796,-0.11602750619558694,-0.11386985994611035
0.702,0.02743084719751008,-0.08792147794394534,-0.11528017147252295,0.03310059496601335,0.0691059336719603,-0.10197211083759225,-0.26474951541978736,-0.43927837789429586,-0.3314151468639622,-0.20403011473778956,-0.11477269683853315,-0.11200453935247229
0.704,0.02890536226959614,-0.060251174428793054,-0.08913675911603117,0.017477352390985013,0.056722396112888714,-0.07466455182868767,-0.22180358760501592,-0.36256291488097814,-0.28580714496354975,-0.1811442795377922,-0.10831851755521334,-0.106338152891284
0.706,0.019441217573112478,-0.035136342131078364,-0.054604768124544734,0.007969706396064244,0.03608513132155955,-0.04468087612570581,-0.17209074621915366,-0.2831171079683768,-0.22734416597421897,-0.14012060459308368,-0.08684358317060376,-0.08578276853594378
0.708,-0.0016284382601867613,-0.01916209184610439,-0.017579414572498467,0.009598350277123364,0.008473274950807023,-0.018456833037152107,-0.13332230076181634,-0.2170050054541226,-0.17367904955740304,-0.09791888907881037,-0.06329903715878063,-0.06346246053576933
0.71,-0.012081216085560887,-0.00019965232619939544,0.011753347448353695,0.005909052167055364,-0.011008985681158805,0.005002517807780986,-0.10112542259757325,-0.16579088512517584,-0.13670802250954853,-0.07216472286999243,-0.049463873172386076,-0.05171203488742371
0.712,0.00352548521456444,0.02455015768028259,0.020711607797798532,-0.01278823483631201,-0.00816144491885163,0.020931565510794684,-0.06837152768611819,-0.1242575891321433,-0.11483180012336676,-0.06448108808419659,-0.047678533669624684,-0.051707629545642925
0.714,0.021725656711070133,0.03416177105229706,0.012018678284572171,-0.025471903025926983,0.004730735489916007,0.02062401918313162,-0.04022888074069679,-0.09430788090208611,-0.10369403671425834,-0.067289977806619,-0.05469497244781661,-0.05827980113392356
0.716,0.005588229598345098,0.016982200347926423,0.011133083473358922,-0.008683822422517124,-0.0030177121421401413,0.011601878471633768,-0.021577696391777815,-0.07646688216498827,-0.0967318688050857,-0.06962533135236075,-0.06171552783197137,-0.06271098495975895
0.718,-0.04052070941100033,-0.005532660783842218,0.03503029263452937,0.024713424896243466,-0.037826248131342846,0.013237904273988046,-0.006197686829504549,-0.061971280741915505,-0.08537235394403021,-0.062488794376684746,-0.05920185708005813,-0.057561424726084554
0.72,-0.06637484562563274,-0.007002727210718315,0.059649583651176084,0.03739878135544,-0.06291949225849414,0.025784420281466446,0.009906179628943983,-0.04673743372982417,-0.07127826097225992,-0.05007109714124874,-0.05018435295214344,-0.047464041757605414
0.722,-0.03844228138419013,0.006047727825354074,0.044883741695617776,0.016941989794405084,-0.04164236929815531,0.024834664390333303,0.017436362318028212,-0.040517760836661754,-0.06842269679071794,-0.0488871236734774,-0.050924978229571816,-0.048776619705516264
0.724,0.015270506741264676,0.004113802085172611,-0.010778942543425884,-0.0080966546127123,0.012862315772376164,-0.004919834024536788,0.008071668538828182,-0.05090877875222328,-0.08417261995986092,-0.0679516618063124,-0.07170822624906788,-0.07098800422040043
0.726,0.04228848144853988,-0.020387553320254985,-0.06249992785983241,-0.009033135069621431,0.051978533773724224,-0.04368971400174522,-0.007715784362245685,-0.06656850658555967,-0.10589017686254802,-0.09510062109759153,-0.10161323170712763,-0.10202861720701262
0.728,0.026984044670129704,-0.041467668958657236,-0.06859014044669248,0.008342546695134418,0.04683071175506827,-0.05724636803381409,-0.00978781173813757,-0.06738627853075109,-0.11423914741766353,-0.10981013047149643,-0.11923026595520358,-0.11990453242070793
0.73,-0.0019876659597815767,-0.038003416820464445,-0.036328038709555574,0.0201056109858257,0.015361963879042421,-0.03924835278851456,0.005633849061838612,-0.04966578343906274,-0.10622142629110715,-0.10684577487564151,-0.11748367196734069,-0.11822192838048469
0.732,-0.011111012887361903,-0.02044491503973574,-0.009476319004869295,0.015868939193497765,-0.0032250796057522986,-0.01692283941916996,0.020944835711774506,-0.03107821258142889,-0.09657906261624905,-0.09990925635976118,-0.11044723840576819,-0.11172166156279525
0.734,0.003378365628778776,-0.011828660941603442,-0.015002337974318613,0.005106864365651927,0.007047083450520608,-0.014702619273617063,0.020545359175070086,-0.028515241023038682,-0.09767417153396243,-0.10239545036254082,-0.11476711515364096,-0.11594889754883159
0.736,0.014126963898249283,-0.0213983562281009,-0.03517852744588675,0.004917098142178758,0.0235317956323202,-0.028360833877667548,0.009474813610189464,-0.03908559094245542,-0.1056786098519989,-0.11099048060321608,-0.1296130707280418,-0.12854469032860136
0.738,-0.013322737057454922,-0.04374184049224961,-0.030166965722881994,0.02924578377024665,0.008280884499888976,-0.03619221563807483,0.0053275484425232885,-0.045829087701075924,-0.10646809972224697,-0.11046551879774667,-0.13696232479309156,-0.13254389907755057
0.74,-0.08522726273881465,-0.06502636970829777,0.020422399996348387,0.07525379615971513,-0.05281513589142872,-0.02173922080114059,0.018654636650682486,-0.03583801172067435,-0.09065364047903449,-0.09164825560061048,-0.12144906878962665,-0.11571670633323385
0.742,-0.1526405733013221,-0.0630143646028145,0.08994988433004882,0.10852245162381974,-0.12197343059426868,0.013109744810319516,0.04418247469852151,-0.011168049711738647,-0.06386922416726537,-0.0625213099492885,-0.08911024379067432,-0.08537022279089586
0.744,-0.1438058932279083,-0.025375306234330125,0.11883630394456303,0.0866660997985566,-0.132786592125576,0.04547049739291812,0.06594153143236772,0.012429918221357203,-0.044451934373996194,-0.04261382399286841,-0.06417921608486846,-0.06329484574352048
0.746,-0.05311942425977722,0.02402323198281134,0.07763970020420528,0.017260764585579246,-0.06718742610105201,0.04919290725273396,0.07041971009771339,0.019109305859252305,-0.04700724031937805,-0.045521224138932954,-0.06542912976843003,-0.06525767478838879
0.748,0.037726711727119014,0.0425538793099071,0.005463873369681052,-0.03839252160376537,0.014338789241027949,0.022562503953261467,0.057610789760097564,0.008092760771034005,-0.0677733190647452,-0.06707404421303802,-0.0891602263351818,-0.08789803263794876
0.75,0.05729334377176041,0.01730664053485417,-0.039412966870227925,-0.03721929513795101,0.0466610071710447,-0.012156979340008117,0.038405714857318814,-0.008747056602898326,-0.09093828147974284,-0.0922442813977941,-0.11753158060870905,-0.11591589638309975
0.752,0.017383345192261507,-0.022232390864028177,-0.039497954153407254,0.0017368299195497253,0.02665949851087214,-0.03202855845180413,0.02554385878316149,-0.01929051874643256,-0.10371217812472118,-0.10737928218219896,-0.1341297786503274,-0.133647234063853
0.754,-0.02583906922677307,-0.039119456264331984,-0.013725210980537642,0.032493139068499155,-0.00820795026843029,-0.028025415795290595,0.02700830721691446,-0.017442407895340163,-0.10224706686655659,-0.10610829971486495,-0.13138449015373466,-0.13189420335823132
0.756,-0.03373323429352072,-0.024979342943736285,0.008137983665887583,0.030718879297574404,-0.02322142668471425,-0.010182574749731577,0.03801488572949205,-0.008146614850403269,-0.09314707748680091,-0.09460420740178646,-0.11622358145531338,-0.11616139886277153
0.758,-0.007829241166152428,-0.0010261998431185665,0.006508563949467907,0.006489105789106724,-0.00873520562352705,0.0014443777222724998,0.04423577100080556,-0.004867828485605626,-0.08787240312926094,-0.08681164442817829,-0.10421589882333418,-0.10254021851083275
0.76,0.015117128143712247,0.009463153121892198,-0.005522821173731034,-0.0108560281701465,0.009977604153497164,0.001302405034695771,0.04164526932084869,-0.011867543681520374,-0.08840788429770187,-0.08649404987634879,-0.09995532796745099,-0.097390489470582
0.762,0.002901467464541435,0.002577006788072127,3.5997840517891576e-05,-0.002706793036902591,0.0016714297282545256,0.0008034441068224788,0.04038001928328472,-0.018448956721303127,-0.08711147612695683,-0.08524905310181179,-0.09559144026615689,-0.09340329969852465
0.764,-0.02757647831768279,-0.010857951512874844,0.017224749021216436,0.018333141484420005,-0.022689955152165285,0.002367576372521346,0.04383981886766475,-0.0181700350426294,-0.08369936675691526,-0.08155426897027769,-0.09135894092687505,-0.08931075093776332
0.766,-0.034921442243290926,-0.021544813112794867,0.014039652886194161,0.02760488810412633,-0.02551952378407634,-0.004693850259143373,0.042744059615265104,-0.01820174199784759,-0.08759996559001888,-0.08472040808802658,-0.09907393681957787,-0.0961873931789483
0.768,-0.019873183450263,-0.028691064238987197,-0.008207107507743353,0.024674635091063393,-0.006966965236823228,-0.018947156579970106,0.03463197940749156,-0.02277733356925752,-0.1001578472643626,-0.09680652662545404,-0.12131922454150795,-0.11824503793100365
0.77,-0.020623226471699282,-0.034041963393424045,-0.013173984536517483,0.02858353577358049,-0.004784047307940775,-0.023788942200322356,0.030821645790402304,-0.02386161015889371,-0.10945151111788916,-0.10686231549091949,-0.1428637438999529,-0.1415202597041152
0.772,-0.04056267456358503,-0.03375160996020356,0.006683313774789322,0.03842285731041634,-0.025256508846222474,-0.014383641812729612,0.038203792082068366,-0.016071862615503394,-0.10713211035948281,-0.10683983777686326,-0.14844144631078676,-0.14963806786390688
0.774,-0.03866785907694359,-0.022058677992683347,0.01641292685782641,0.030932804972134846,-0.029859182758791677,-0.004886061511550492,0.048408882969228816,-0.007127083367675785,-0.09853042843089253,-0.10108144517758617,-0.13943881378141879,-0.14213328472460257
0.776,-0.004465346417888558,-0.003986061603485431,0.0004444543928132364,0.004348870580647695,-0.004365296530357177,-0.004306994148747936,0.051240889382423674,-0.00572248274404812,-0.0919415262140892,-0.09671225037167824,-0.12822219296626453,-0.13048923886362454
0.778,0.016955336709691543,0.005364364218337145,-0.01150385527073016,-0.010514747552753232,0.01373920102738257,-0.00502501628505274,0.04815504210386814,-0.009531954007738513,-0.0875187056922568,-0.09415049655327908,-0.12287640462345173,-0.122953518642662
0.78,-0.003232176864431058,-0.0005938418657857309,0.0026992273144328897,0.003498445364104397,-0.002424385477761545,-0.00010700095394599284,0.045984280181916026,-0.011636876046081619,-0.08214090097042556,-0.09124918638658042,-0.12270219928752606,-0.11992752021882447
0.782,-0.0338375740417628,-0.01120098283329298,0.022618671385666263,0.02444999899643217,-0.02804500090395397,0.005041059056078275,0.04601581520670022,-0.010694071555312138,-0.07777841121455953,-0.08928852876912749,-0.1238083308684124,-0.11939514852079176
0.784,-0.035955653840992745,-0.01356630063382568,0.022347716093499802,0.026447363422457168,-0.030324365080266355,0.004102075842547886,0.0461105850129945,-0.00924243094927387,-0.07819237881205317,-0.09007390069352116,-0.12348979235945821,-0.12000614939768782
0.786,-0.015839186914451017,-0.008156520404444288,0.007672541166346775,0.013462340647835322,-0.01394451179972017,-0.00017920921889505708,0.04636768722152028,-0.007787819345954603,-0.08261444802054392,-0.09242024480214688,-0.12162175243914249,-0.12077376431695215
0.788,-0.0027678850904635454,-0.003655690431972867,-0.0008480054210158573,0.00445608223202652,-0.002846988885952771,-0.002049045445698122,0.04729595203794565,-0.004909230992423729,-0.08751527072219505,-0.09449075938460474,-0.12080694255371544,-0.12185849433339828
0.79,-0.004270161519005398,-0.002075154081091283,0.0023403730924319876,0.0039757710180378415,-0.004103882824674259,0.0002758028324348228,0.04840766736789492,0.0002338216163365336,-0.0899384403622798,-0.09539280152078598,-0.12267226683025295,-0.12375730346923763
0.792,-0.006516846746317076,0.0008649051654188777,0.007706136149348574,0.0032992803236745775,-0.0074210810242335765,0.004321812278613184,0.04989491095202256,0.006748771512898784,-0.088618237392824,-0.09460164171163454,-0.12473955750114137,-0.12534303043007575
0.794,-0.007395438611752422,0.002214606267353214,0.010023534369266408,0.003039429297357323,-0.009503672232416603,0.005875078395861915,0.05190325215373659,0.012066278753942393,-0.08485032564984817,-0.09243851137144939,-0.12388388655158297,-0.12498012397558562
0.796,-0.024049593279098433,-0.005509909737040646,0.018792526518348788,0.015103283419548974,-0.022738565810146806,0.005861520219458123,0.0553079911589871,0.015299308554139204,-0.07867413957958336,-0.08790948379760069,-0.11883397128981674,-0.12071617618039965
0.798,-0.05740207195618141,-0.01772473365239705,0.03967729050774037,0.03748670118736914,-0.04962113667670356,0.009919381789433534,0.06133695191708903,0.017807295078354865,-0.06807425741929209,-0.07891806677731371,-0.10989842691753521,-0.11135831438670556
0.8,-0.07272701872979628,-0.021893715489323576,0.05082205519238607,0.047104478922477176,-0.06211273423272838,0.013756395462060308,0.06524305484004912,0.017201772132082935,-0.05841376376682061,-0.070111518644998,-0.10240092727719476,-0.102484780849277
0.802,-0.0436964377218996,-0.01652733215038826,0.027432841507203338,0.03044807306967123,-0.03547735503520122,0.005115967197321885,0.060051251107692195,0.00995768839409921,-0.05997795171458746,-0.06996665870785639,-0.10300158296298094,-0.10227463303436017
0.804,0.0017980055802133727,-0.011354221428486463,-0.01270741896304753,0.005786845599880813,0.007003812087768165,-0.01269987055301426,0.05034075356733878,0.001863171121101338,-0.07045963393011795,-0.0757783558381094,-0.10801622274755186,-0.10758543134813589
0.806,0.011762060990951756,-0.014016907685859158,-0.025599019691495667,0.0022531366470953263,0.01773263518252752,-0.021335125542747854,0.04826379829020575,0.0031204492591161005,-0.07639924373127677,-0.07664688351647685,-0.10751601731115487,-0.1075811001891555
0.808,-0.026240570028521905,-0.025422248262153932,0.0004681433855103607,0.026658646759672874,-0.014480464481648518,-0.014545424901617495,0.05549564789389141,0.013268614626338809,-0.07371265000527098,-0.07167739264908544,-0.10145904961771154,-0.10112047292216482
0.81,-0.07358214884220945,-0.03975462110771818,0.03323025864532132,0.057241860635128074,-0.05386689290271153,-0.0049086157188997295,0.06203998710938042,0.021557476775256577,-0.07179062338856433,-0.07040097076962842,-0.09919038614716853,-0.09761173198109008
0.812,-0.08511005961293625,-0.045058898444183225,0.03969508861166436,0.06565318414932005,-0.06226196816306723,-0.0032371660350406176,0.06124723797639348,0.021167838868883532,-0.07747787495946146,-0.0764131471825887,-0.10454494783205337,-0.10228704730607555
0.814,-0.05625285967964837,-0.036167624196056555,0.02003411315186773,0.04707614317268014,-0.03860184950478774,-0.007921634396736689,0.05558242707103092,0.015195010487522434,-0.0870152164598349,-0.08338422445569017,-0.11254465961763993,-0.11116587561533937
0.816,-0.0275409368075845,-0.027550018869841382,-0.00012189416961137746,0.028853740753463877,-0.015710858275901393,-0.013948581636851184,0.04959980820337566,0.009342491237735681,-0.093480827383481,-0.08635391263253654,-0.11862364735111865,-0.11867300254254247
0.818,-0.03631845314218194,-0.03297534045550525,0.002987224831180947,0.036354975761464604,-0.02266523082626571,-0.015696071399094597,0.047940239160890276,0.007996041898049666,-0.09151825434512928,-0.08391272129532894,-0.11962414457305974,-0.11976633387126628
0.82,-0.059736387978042996,-0.03343778555804102,0.02596120462254675,0.048699910986026516,-0.04538226945456647,-0.004637926249582617,0.056774038410917715,0.015989917132319308,-0.07795990417934236,-0.07270572975281711,-0.11046831164008639,-0.10916388225074966
0.822,-0.033049452482526866,0.0014688361748494672,0.03446857025094155,0.018269791845078556,-0.034821239704058246,0.016943108054875207,0.07398213462228989,0.03160603877588161,-0.058886769898528646,-0.05537575310204138,-0.09363319859861144,-0.09114966904375567
0.824,0.054616098689201475,0.05784425242488112,0.0034041443782491217,-0.053620080476145415,0.025696070720915495,0.02902601103485323,0.08426954234179698,0.041794327851146784,-0.04909753733806984,-0.0464834640778921,-0.08422665504239003,-0.08198682664882104
0.826,0.1257526916269046,0.08301356458712261,-0.042499667329117224,-0.10188449596751611,0.08414411187788519,0.018170590657304083,0.07711915703395071,0.03694544858616225,-0.05573364773631557,-0.05586082867469205,-0.09262150555788966,-0.09110722532425104
0.828,0.10760053932793147,0.05041701905071858,-0.05688527788803291,-0.07681054568066567,0.08123128536914717,-0.004794539386842724,0.060108482715029075,0.023316632524869648,-0.07118718364287493,-0.0755231729336104,-0.11137971254761447,-0.11004930926020702
0.83,0.01990201123972851,-0.01245043164379608,-0.032002656858660966,-0.0020408005067606124,0.023954495653942046,-0.02246524759994753,0.046328929121003955,0.012622071238371115,-0.08480640962835301,-0.09101852013143008,-0.12706145178683056,-0.125524285445377
0.832,-0.05580382961321067,-0.05766867502880888,-0.0016285444348156097,0.05784746361852335,-0.029468241940755417,-0.02916872236050461,0.04077834204070756,0.009433303709713412,-0.09165975685097555,-0.09550375862825862,-0.13402721022830205,-0.13223749721023717
0.834,-0.06627692325861279,-0.05906963074152383,0.00721201748642987,0.06333153863836956,-0.038973412504632154,-0.026095120310821746,0.04260623657104823,0.013191396469713026,-0.09084250714533083,-0.09040955237221893,-0.13292427933974316,-0.13118991214783482
0.836,-0.02371017163486704,-0.024795498989315136,-0.0012280473829785967,0.024539285766522298,-0.012831271831635504,-0.014111798306754752,0.05005103037154428,0.02283506626666484,-0.08303273983949587,-0.0801239883087736,-0.1249754101620793,-0.1239978570302423
0.838,0.029173864884918008,0.017964219252485192,-0.01140879865767094,-0.023485552174871197,0.01963755408630794,0.0023965820239499535,0.05976051644701451,0.03508456613852877,-0.07072786442536151,-0.06835897582564132,-0.11211457019573742,-0.11219510158725504
0.84,0.05718538671477355,0.040368694721125704,-0.01711383368076804,-0.048374197294263066,0.037029135698064694,0.01186377752311833,0.06500061776848001,0.04271781073195356,-0.060041333581296645,-0.059554542822257056,-0.10067472216581523,-0.10112985610064025
0.842,0.037799913491636174,0.025003232005573695,-0.013167918342118508,-0.03021319849500357,0.025070945514415632,0.006761090389273004,0.06162952456653565,0.04219639572943552,-0.056253987623324855,-0.058036174559113446,-0.09745564646604844,-0.09718183996293378
0.844,-0.03365195455890347,-0.017163386379844915,0.016241426713830914,0.027071709917278763,-0.02588569049891041,-8.01097785612815e-05,0.05834311451687601,0.04332718585731066,-0.053658973220422145,-0.05910979759734985,-0.09757515723396183,-0.09610479939522402
0.846,-0.122184886099534,-0.05064795203375732,0.0715387369326127,0.08783815458562903,-0.09785931350654986,0.010022592446648902,0.06711773375129719,0.0571981933699991,-0.04358242939798723,-0.05296448124693078,-0.08984981334187708,-0.08794597522530637
0.848,-0.1572807085730006,-0.05201459098222302,0.10539593100616168,0.10584154565921741,-0.13225136258852138,0.02590761762797743,0.07929466852619044,0.0729551165280609,-0.035635365506130105,-0.04522386210205569,-0.08044686667461876,-0.07940860720378612
0.85,-0.09697024261109347,-0.032362652609836694,0.06467617924475258,0.06624611091079664,-0.08217762758560591,0.015359358501959387,0.07247775525903662,0.06739182813697625,-0.048895038454580896,-0.05426779064195458,-0.08973080684076065,-0.08994155796887178
0.852,0.014338857819252015,-0.015264132143133458,-0.029637837644546444,0.0025066436693954317,0.019842207297329467,-0.023405280744295272,0.04583829376230208,0.040252648890147985,-0.07945715413177995,-0.08097532422041716,-0.11875742225157548,-0.11940099520773154
0.854,0.08416815261766133,-0.007485463729861362,-0.09170757806737534,-0.03629316206049179,0.08531011371474283,-0.05077939468074355,0.026300570725844206,0.01995582916368148,-0.09886884006195822,-0.1007954184719156,-0.14080966395666347,-0.14103249099529686
0.856,0.059854033756014946,-0.0024133215440183655,-0.06227449909969279,-0.02693764753012974,0.05849756632260152,-0.03352989050372913,0.036014800442424146,0.031088309165681886,-0.0862054556214753,-0.09114151303101273,-0.13168553187473198,-0.13156344207653445
0.858,-0.03325715692255541,0.0017189447307421743,0.035001987152747265,0.01720072612905362,-0.03625842419640669,0.0170567020370953,0.06831384688606598,0.06722844095583617,-0.04914004713997414,-0.056261661551644596,-0.09547794146935351,-0.09590266014354402
0.86,-0.11243227181747383,0.00127749646818095,0.11372602879972081,0.05654684878413242,-0.11462094432659023,0.05558611238451251,0.09424210921823603,0.0958631992087196,-0.01744293695619192,-0.025774068990277677,-0.061667281354670256,-0.06331856793104361
0.862,-0.1008407368774145,-0.003429913702837516,0.09740448252401539,0.052630239824450496,-0.1002247544235264,0.0445400541184336,0.08803676890648805,0.08888161075500663,-0.01856272393406829,-0.028566910009443384,-0.059828751560320734,-0.062184181430422404
0.864,-0.004540213474637741,-0.008053808608072371,-0.0035254906610359482,0.006416023140954833,-0.0015910606903404177,-0.007960204198396308,0.053239496113859086,0.052001582104451535,-0.050718735773336986,-0.06179575392714803,-0.08964785212845276,-0.09163776796550951
0.866,0.08577269376255132,-0.010024400941244719,-0.09579931646861749,-0.03795948089520758,0.08930660981964467,-0.054438678149190525,0.021857043270116453,0.019957543211601453,-0.08249965111096833,-0.09194632544788701,-0.1194017967696156,-0.12097445138406888
0.868,0.09345053249507797,-0.009646952250839806,-0.10307011560605567,-0.041782806464161056,0.09637291176130232,-0.05781276918823916,0.020389134490172805,0.0196156931605804,-0.08634495602228141,-0.09268970954016305,-0.12174973823148826,-0.12373816410418614
0.87,0.03861260965770064,-0.006188835193603845,-0.04466632349292825,-0.015252745744154573,0.03975508794244097,-0.02723422137692791,0.042307754819237264,0.04470642528357735,-0.06616784001941275,-0.07150543412159475,-0.10254840856314557,-0.10494971877304814
0.872,-0.00022470004614301854,0.001157913683550403,0.0017088875439109459,0.0015725208169675461,-0.0026556634852645837,-0.0002501009674415903,0.06018897969874288,0.06840127018483724,-0.046980636754463075,-0.054055137499569236,-0.0876595020643291,-0.08872147177242624
0.874,0.012565305898932637,0.008194123573952586,-0.003973140518113633,-0.008041094250233513,0.006426227879955078,0.001037600867709575,0.0582239996801042,0.07329031874610308,-0.044613356505731255,-0.05328720993044576,-0.0903916231329086,-0.08828925149372555
0.876,0.04363347220882377,0.010758197878445935,-0.0327516776883096,-0.02580791590852559,0.03604939136745542,-0.011779722199007758,0.044629284442290654,0.06464479049244183,-0.05224556017207717,-0.06071920655181959,-0.10048010653537971,-0.09623395495483769
0.878,0.05415234560526521,0.012730168764306356,-0.041796077213038775,-0.03338340570142437,0.04613988650310951,-0.015383779616034843,0.03551883559455818,0.057572985433419044,-0.054421256508079024,-0.06201982947724492,-0.10186472234958781,-0.09890674906862708
0.88,0.04465745326382947,0.01863648482566674,-0.026741742196526048,-0.03205646664851344,0.03484142242914397,-0.004661399680037218,0.03651335013392658,0.058912949055595944,-0.046393716820193796,-0.05338749046923681,-0.09181799349562067,-0.09193781254278525
0.882,0.03401751796510064,0.02359483631394863,-0.011200368506824621,-0.02853895212358535,0.022633291078791227,0.005938551308527807,0.042191096283760936,0.06457830829966171,-0.03541183981401239,-0.04198750884905954,-0.07919185114195941,-0.08079567287914402
0.884,0.02890549519912391,0.020432516516845443,-0.009151775150497745,-0.023212982929639334,0.019331322759275363,0.004890862664765647,0.046102619304989996,0.0682364878265437,-0.029192993973519196,-0.035560098672164295,-0.07115253215637023,-0.07192163854511888
0.886,0.0259248944088514,0.011266645571698602,-0.015134347950348577,-0.01619913469377276,0.02064139512581195,-0.004039837849804711,0.04621982833852355,0.06799096389298619,-0.029844527224023466,-0.03572616190233138,-0.06820460030247529,-0.06761812737215826
0.888,0.023493759102591237,0.003546631494404274,-0.020089444566825536,-0.010935365725810439,0.02147171128592372,-0.01147942265837991,0.043409566995965376,0.06678301611057261,-0.03519124202577075,-0.039596498000479055,-0.0686153630349609,-0.06731302252727028
0.89,0.021434311750540933,-0.000679796072392666,-0.021886854282275752,-0.008374567646960998,0.020858436812470026,-0.014514926764130008,0.03911402568750561,0.06761785218050265,-0.04085633747257383,-0.04358055203287958,-0.07117228582625144,-0.0694834239878078
0.892,0.020564888889351596,-0.003970320873001532,-0.02407054550922133,-0.007086825879618784,0.021409886007431114,-0.016349518132435972,0.03455025488636457,0.06928878925175297,-0.04358651823387209,-0.045374551116850015,-0.07400116046543966,-0.07232406295565366
0.894,0.02245242238086355,-0.006741509382708234,-0.02874770656594612,-0.007085576918183541,0.025189570169309988,-0.01884959539154571,0.03032978085407723,0.06939490564791888,-0.04377993120943381,-0.04444743342384851,-0.07394837072377435,-0.07351127081756234
0.896,0.023393265816446837,-0.007474611793484218,-0.030672756681987743,-0.007196983198293908,0.02718468738101659,-0.01942424367658779,0.02687835683045472,0.06942326393924825,-0.04236495465074882,-0.04061601003600136,-0.06766255170432604,-0.06933805393444564
0.898,0.020921699755116388,-0.004653450381421749,-0.025620908714137563,-0.007145521165995592,0.0232372096857031,-0.015926660571081278,0.024822285153847625,0.0721906930481091,-0.038415529013053416,-0.032991406200948196,-0.0545451630292225,-0.057243841968299396
0.9,0.024384332369422116,0.003594603346502846,-0.020791828544338874,-0.012892205452043127,0.021517326613326754,-0.010720448791768632,0.024437397882956936,0.07694851033267582,-0.03255582709385806,-0.022334679322072372,-0.038791434694470585,-0.04047554672752315
0.902,0.037236008336879026,0.015324476869133054,-0.02161862611697263,-0.02550045295342096,0.027402506182834546,-0.006043551230060847,0.0263294819913397,0.08211873490382465,-0.02693152045954238,-0.011671673574571037,-0.02500820216945109,-0.025265025068176693
0.904,0.035725642099831915,0.020033990311794474,-0.015215947384009687,-0.02759991284867824,0.023606208241340906,0.0003007690576068248,0.03199369470240241,0.08926349059276607,-0.020552051735632224,-0.002189626639648184,-0.013162584825089809,-0.013065833709634541
0.906,-0.004145343852517948,0.004597783625863213,0.009020837119075115,6.256478249748042e-05,-0.007503866836716923,0.006356023721420511,0.03886665006474882,0.09729689647708151,-0.013624362860058194,0.005018398520931745,-0.005256059227655605,-0.004621976737043787
0.908,-0.0567804772988384,-0.028752115135084674,0.027841917854354192,0.043846280260816446,-0.04294387420640811,3.9896969228791855e-05,0.03734102381988492,0.09788945464280646,-0.014516439220817247,0.002814035385793492,-0.012431977670897189,-0.009649868583028468
0.91,-0.05732983984773339,-0.05022784328577932,0.006469954004591818,0.055769331167205165,-0.03338452002376041,-0.021915995304147402,0.022890944241318545,0.08784314838270808,-0.027915286116377547,-0.012972068275089656,-0.03925045469291099,-0.03444695788648085
0.912,0.02105610582844706,-0.0281310876004631,-0.05003141132568475,0.005731980005104614,0.033330064483726746,-0.04056048382817417,0.006569170581559923,0.0786160416924008,-0.04142120355546476,-0.030277067756209447,-0.06646930501017104,-0.06245914981576015
0.914,0.1219804881801523,0.024742940247167642,-0.0979902024752215,-0.07155384713659059,0.10843963354356681,-0.03925326409153121,0.001645922566901662,0.08146677133718593,-0.039542134620464325,-0.03196520132099511,-0.06946091017200988,-0.06863350587827276
0.916,0.16120344606314474,0.05900504609304954,-0.10268924231923394,-0.10866691423665868,0.13197772710581782,-0.02444923254089718,0.007485633208737361,0.09315631104142254,-0.02229737270350183,-0.015594071520857433,-0.04690759805038719,-0.04888268052656078
0.918,0.12102912898974057,0.05173418246436897,-0.06954495844606023,-0.08522064230516578,0.09607104244465887,-0.010396678911016184,0.014304550344927927,0.10360322378449256,-0.00133054898482649,0.006527317774902775,-0.017891278940366077,-0.02069341477911908
0.92,0.06485388543603443,0.031018127182996718,-0.03391785845262653,-0.047155361439429604,0.04916759846929091,-0.001835611561140653,0.015722155430485385,0.10836637578943231,0.012926350164453962,0.020824501842968326,0.0004835441010444069,-0.0015230262805192478
0.922,0.053378719269793796,0.03148237016395663,-0.02187119123352127,-0.04203996342504129,0.03559872739580657,0.004334406209701645,0.01388784311205255,0.11136933746692412,0.019219613740692938,0.024710988812558173,0.006859361894900864,0.006143011872628455
0.924,0.07640961740101322,0.0511159843711523,-0.025239398477249823,-0.06340121040707024,0.04789650888610754,0.011316063801606584,0.014582456994169631,0.11846998342819835,0.023972146554274362,0.02667825867618471,0.011903165298123705,0.011529791714846884
0.926,0.08665844935511144,0.06319976222494268,-0.023439204707982386,-0.0739088097283102,0.05264952884999263,0.017411716361321158,0.017369413102407995,0.1287497649255451,0.029869048335497143,0.03249077901143111,0.022163276182501194,0.020361525394412872
0.928,0.07257147744632098,0.05606077578408966,-0.01655023057335358,-0.06222548006672002,0.04314661306603914,0.017551072296178517,0.015468296969340782,0.13521324312380076,0.03136602893889296,0.037231468667664615,0.031070315407392805,0.027379382075439006
