time,I,II,III,aVR,aVL,aVF,V1,V2,V3,V4,V5,V6
0.0,0.0005265508965231401,0.00010969810344232086,-0.00043879241376928345,-0.0003290943103269626,0.00043879241376928345,-0.00021939620688464173,-0.00043879241376928345,0.004168527930808193,0.0034225808274004105,0.0007459471034077819,-0.0008556452068501026,-0.00021939620688464173
0.002,0.0035903707844943448,0.0006565788272343878,-0.0030651077227068346,-0.0021891326885878047,0.0030651077227068346,-0.0015325538613534173,-0.0030651077227068346,0.02944761767604189,0.02401753834055563,0.0053203812320439395,-0.005867261955836006,-0.001751950068238059
0.004,0.011120621747619248,0.0018564915066171907,-0.00961348892163703,-0.006663235967435705,0.009701247404390887,-0.0046970463573761945,-0.00961348892163703,0.09362697554758193,0.07586118862288786,0.01721890620090198,-0.01819942267340014,-0.006427056804925789
0.006,0.021464406900258682,0.0037552780466866987,-0.01826304983539705,-0.012875833154040991,0.018898011000626883,-0.00837621779736605,-0.017955895145758554,0.1793598034551592,0.1444981292979336,0.03429801047780827,-0.03413769226000121,-0.014145407940321821
0.008,0.030604073961940655,0.006741026644898243,-0.024446007048357987,-0.01885449304497687,0.026521960218820733,-0.009951108038558566,-0.022519827849347845,0.23762258383856466,0.19071729306006469,0.04934121233291309,-0.04384208720305791,-0.020507820444766497
0.01,0.03636732342529303,0.010651222727086983,-0.02613497207513504,-0.02327042808309903,0.0302068255503686,-0.009108744551581187,-0.02102584217409639,0.24574895157612942,0.19709020178698572,0.05895598130007151,-0.041551246948287594,-0.020569625410576553
0.012,0.03833565239408322,0.013628825214022741,-0.024947887010197685,-0.025061432984215665,0.0303551322425273,-0.007939220486047302,-0.017633979258363096,0.23118890830108713,0.1858184404394113,0.0661279847945382,-0.030957083225867144,-0.015597709698326594
0.014,0.03666796043766825,0.014039886945850772,-0.022888543002098007,-0.023866278035897436,0.028252531770746395,-0.0075132213620303515,-0.016985591572188454,0.2282259775704762,0.1839242296560318,0.07336378975045395,-0.020258500048389052,-0.011940349371544689
0.016,0.03333808066617932,0.012964786086252456,-0.020849488495922403,-0.021463613350967487,0.025597189704040322,-0.006786047859716074,-0.018001102978468367,0.24123907806199382,0.19440122507066313,0.07901280333289583,-0.01495875410668959,-0.012823436843042057
0.018,0.03126765439697534,0.012803014251339846,-0.01917211825470362,-0.020462704082867756,0.02401603103587613,-0.004717854935096071,-0.016346196458715646,0.2562299904830615,0.20542702438984783,0.08104938195827777,-0.01489065483600368,-0.015508841621821185
0.02,0.03068491309670452,0.012904271222736062,-0.01853134412799248,-0.020634774182049953,0.023795911258419768,-0.002905310521960688,-0.011093883752683763,0.26569473209908556,0.2103887565131111,0.08053900032314533,-0.016783729983654096,-0.016544890924419495
0.022,0.028722443282891395,0.00911401704561191,-0.020036272270349223,-0.018392984914639435,0.02388953435977032,-0.004970971525472486,-0.00554314127900106,0.2740395754499357,0.21284020105013096,0.08058678462615189,-0.01852754597648192,-0.01597140273442822
0.024,0.025042862098033716,0.0011738877069375194,-0.023695049579311976,-0.012899654534574244,0.023878691017269128,-0.01122968686537815,-0.0019061842044260909,0.28909430308925826,0.21996977118179642,0.08466222566664106,-0.018954225910873118,-0.015514932262610658
0.026,0.025380196239031278,-0.00293553019485458,-0.027725056518589156,-0.01045703432961972,0.025680574613324396,-0.016222721027387817,0.001616015328427957,0.3135813264523738,0.2359257925817733,0.09540174713829391,-0.015284161904824334,-0.015186872160331724
0.028,0.03516107037229063,0.004426189347538371,-0.03019267826776307,-0.018010248191039514,0.03159017708740731,-0.014487940365748297,0.007511941914580187,0.34239197644805874,0.25968250181461516,0.11251232016451106,-0.005155012860033587,-0.01258830639696825
0.03,0.051070366499060334,0.020605759106313803,-0.030136006929797104,-0.033638991539135875,0.04000720271830525,-0.006573868195783317,0.014358572798223555,0.3673960524546768,0.2866322309665035,0.13254342799384447,0.009508377361415857,-0.004980906453909659
0.032,0.06287223434444597,0.03499344503069342,-0.027549884469658222,-0.04713838097331574,0.045438039617951544,0.0020077721273567134,0.017259619303915532,0.3836606562930669,0.31036974094309755,0.15081060633893983,0.02396287834148016,0.006538897938749094
0.034,0.06402399294492012,0.039916108570012813,-0.02362893770239192,-0.05062923994440801,0.04434595842848329,0.006543913141786048,0.013842086876562978,0.39148422852286807,0.3253106864433372,0.16373858153788803,0.03532427249869669,0.01647800971018156
0.036,0.058070600963706205,0.03765536809824748,-0.019948945934701548,-0.046532403179798704,0.039060647422759276,0.007439398244535812,0.008252947615660401,0.3963181665448305,0.33173375860833515,0.17177577670066477,0.04382435689327389,0.02187523893577876
0.038,0.053084767379210675,0.035793360621776356,-0.01709203310766832,-0.04276911617140236,0.03450008151725101,0.008114748166102949,0.006609836813312967,0.40538680349133677,0.33662487988383594,0.1787984070640575,0.05033793199477902,0.02564604316221986
0.04,0.052426404394459475,0.03741293668703044,-0.015096990355618524,-0.0427457687641238,0.032906320030917265,0.009783142836731911,0.010381891204377226,0.42109364679746075,0.3464150140548099,0.18667534708302597,0.05449755991226093,0.030151206235561816
0.042,0.05324093693735629,0.03923434807362351,-0.014152429646486255,-0.04369120718274373,0.03271112720180775,0.01092714245051998,0.01713316034938426,0.44006495910581667,0.36114024473126904,0.19405694400986273,0.05606033305375548,0.033454275820800364
0.044,0.05178765647000192,0.0378324887517721,-0.013986940154274267,-0.04247959806261812,0.031348339142365095,0.010532364194235295,0.025435140787040587,0.4595703365461017,0.3778805813165348,0.20218461980730126,0.05777200802317011,0.034255714436044686
0.046,0.04836922067622437,0.03394890552885329,-0.014336835395880477,-0.03974094775436245,0.029040033798585413,0.009060412477684143,0.03563831044382353,0.48054546061480014,0.3964661076589412,0.21619580521629334,0.06440033047417372,0.035404876071529125
0.048,0.047493901074647085,0.031002932988682563,-0.016312889907796592,-0.038767291314240525,0.02945951639300078,0.007161668213994079,0.046469031096551434,0.5032390784469346,0.4183583987495657,0.2380733042904924,0.07724584925016344,0.04028231334001042
0.05,0.05303075702397101,0.03181455492493344,-0.020899641694764697,-0.04209544322154174,0.035327745241840146,0.005476059257660905,0.053960264142497175,0.5246868026156766,0.4421287547148329,0.2634000095016739,0.0924290746939414,0.04878898476917599
0.052,0.0636736871647362,0.037208710875802554,-0.026051004604052845,-0.049556778851770775,0.04434673581865971,0.005371745570181049,0.054766884382716256,0.5420234395595804,0.4632966962593212,0.28642992029191205,0.10646081293184091,0.058627032593821654
0.054,0.07482721901489693,0.04649594492443432,-0.027953099399233128,-0.059176719291689044,0.051432263592018565,0.008508103181803629,0.049325877296109696,0.5551862871796508,0.478555815145595,0.3044980762645942,0.12003554703838225,0.06869124570046557
0.056,0.0836838616417359,0.05790209467594345,-0.025467502509403134,-0.0691150045740405,0.054128932947088926,0.014973003110370663,0.0414740758386438,0.5662460184750222,0.48890946932489104,0.31800316655893895,0.1345707377089279,0.07981425099567235
0.058,0.08962066485905676,0.06809055344561661,-0.0212425912852257,-0.07752577951782184,0.0539294081276405,0.022144117890280108,0.03501706213208554,0.5770997604826678,0.4972517916623983,0.32827052976312454,0.14797581064470383,0.09195707916383755
0.06,0.09209613138887364,0.07374905363143706,-0.01817840749448089,-0.08213106580512568,0.05312710920924069,0.026860974753090697,0.03145136439302572,0.5872029793553173,0.5041133569275836,0.3353822495309911,0.1560407745722341,0.10223292941663284
0.062,0.09217446915459339,0.07599699159780977,-0.016295000699063825,-0.0832849423220885,0.05266730166544929,0.029196015904673637,0.031587088323184305,0.5946391777194081,0.5092415623660832,0.33936973331431103,0.15761101736499683,0.10821010350585482
0.064,0.09292120985425104,0.08019146676725805,-0.013148787216350804,-0.08515201421747139,0.05215001752119601,0.032478953197383455,0.035813775029710296,0.5991886025293335,0.5145734305785271,0.3427717900094763,0.1568633350423454,0.11103947938443083
0.066,0.09496419785066283,0.08878028544441235,-0.006643069173624594,-0.09011517702438178,0.050075518477174265,0.039035395552582085,0.04140163850488759,0.601664359736116,0.5211708423673279,0.3487161471685578,0.15987535419285342,0.11329704669069832
0.068,0.0957428514452166,0.0981198415624491,0.002293679447137808,-0.09549758175636124,0.045592357957501536,0.04745220270335333,0.04371592174408598,0.6013041583149193,0.5266436748196911,0.357281663534046,0.1702117748494546,0.11646130591168749
0.07,0.09500371524295462,0.1046707607948612,0.01019232534243516,-0.09880654809886998,0.04073379722817197,0.054920071045834615,0.040399034540607386,0.5971916710822935,0.5284729638913394,0.3660176918396172,0.18838957645660198,0.12055779892291123
0.072,0.09676932401063791,0.11028282557370861,0.014418858055429112,-0.10227803673928039,0.03934388931728883,0.06066405367760462,0.03185062193240944,0.5907339236389344,0.5270693964326172,0.37263529152900354,0.21338330724451635,0.12488014335841394
0.074,0.10413768919470717,0.11849629354123563,0.015082359983409375,-0.10950988554296141,0.04328283243212966,0.06556032460495821,0.01940921196501982,0.5837345206455886,0.524797610177197,0.3760775217465808,0.24183890669312197,0.1299706266031283
0.076,0.11448518230310965,0.12883458941802597,0.014497593807566938,-0.11991461410214335,0.049638452160873335,0.07021507536180195,0.004916412885106729,0.5765596331717144,0.5233308251353649,0.3771601650527113,0.26765818125944185,0.13762808313157807
0.078,0.12145948603549594,0.13772353274646268,0.015885991681602717,-0.1286336270346556,0.05245626008281427,0.07500555953229567,-0.009918730657465286,0.5697668868049851,0.5216807273301634,0.3782022791665328,0.2862811324097729,0.14793821761276432
0.08,0.12164271047700634,0.14296453743427429,0.020660815300895714,-0.13184115154592974,0.04901944931855335,0.08004035553382557,-0.025044749598226005,0.5639914732345973,0.5174912394949243,0.3796353445565912,0.2978676549830118,0.1582056341835608
0.082,0.11866873053934188,0.14568812634266018,0.02628445549731476,-0.13141118922336836,0.04368428550695102,0.08439731250911023,-0.04120090455646025,0.5587903729262589,0.5111298680906479,0.37948450152825025,0.3045824794999329,0.16511110109984345
0.084,0.11927151859887516,0.14871691459698058,0.02888148720343303,-0.1327681800184696,0.042859068242959354,0.08715030953913648,-0.05740063628090764,0.554641855655463,0.5064452117923358,0.3781516326470106,0.3082904134199945,0.16705843393760444
0.086,0.12555241954303448,0.15338334884995158,0.0276476881035757,-0.13820212188022307,0.04740535046417978,0.08884018369349492,-0.07172831660835606,0.5532065841641404,0.5064628948476823,0.3791684748859986,0.3116121921739831,0.16559811764694307
0.088,0.13414406503792003,0.15878275283105983,0.02477063155224901,-0.14532068388047967,0.05347636422766151,0.09064733590360423,-0.08379255411842344,0.5536205467404856,0.5104798588764544,0.3844438072971047,0.317397649979977,0.16522193490978024
0.09,0.1414245174229011,0.16364428307572082,0.022384606104958835,-0.1512711859980751,0.058316039325356436,0.09262497678456212,-0.09368784769474975,0.5519231304087512,0.5154865744195406,0.39233794926928317,0.32645005964626483,0.16955501937281248
0.092,0.14595796547150422,0.16719621486924346,0.021255789331372156,-0.15510755574949445,0.06137392651758144,0.09375812768270195,-0.1001913052136936,0.5443422745294669,0.5176220334595237,0.39883108184675076,0.3370667281107675,0.17686666779032684
0.094,0.1478277093487941,0.1688794733561982,0.020973512321419537,-0.1570971930721297,0.06271140367278769,0.09359978433955923,-0.10242954589699077,0.5289256249186672,0.5124862443190202,0.3987931461539179,0.3455560832999607,0.18199637920106726
0.096,0.14803928026066604,0.16873870438615554,0.020652195386859085,-0.1578777638559056,0.06304344949119824,0.09303216296891914,-0.10149342829512348,0.5070386015848531,0.4979706349496432,0.38961996628021844,0.3477899400171966,0.1829242922474483
0.098,0.14825570038387242,0.16818255734977708,0.019946465170653047,-0.15837806565491705,0.06367946467141881,0.09319448118257265,-0.09862350187805792,0.48493796112392934,0.47735525253427114,0.37465195664516354,0.34345827064148016,0.18227898726769345
0.1,0.1497480816995364,0.16863039940587807,0.018917305664930363,-0.15917832331737214,0.0652891536237533,0.09374232789557804,-0.09320891872326081,0.46881256188751097,0.4565514694138701,0.35963289950029775,0.3370005162607579,0.1825278471010763
0.102,0.15106439625592927,0.16864388891772403,0.017585520929650475,-0.15874758752472376,0.0666209232815336,0.09283814164485812,-0.08409803868414903,0.45757033859778107,0.4385007372598687,0.3462028723707438,0.33109930367295876,0.18215318585708182
0.104,0.14813704515692683,0.16507893776136837,0.01692570390645476,-0.1542721350201267,0.06494396531437376,0.08978256247629803,-0.07274466011334936,0.4448379656243856,0.4219721789530146,0.33177496753766017,0.3229460143359837,0.17710039276377187
0.106,0.1388213750534555,0.1575301428476091,0.018675812558566183,-0.14538838090804965,0.0589295878953651,0.08630381777312628,-0.06351317121010724,0.4261886476850026,0.4042135442233918,0.31399959399182525,0.3098951065471333,0.16575396605420278
0.108,0.12603703225230123,0.1489056933993836,0.02271897767250966,-0.13503936665593783,0.05059141278472823,0.08412700854680105,-0.059649074171190794,0.4014404968446932,0.38356973479973844,0.2930697981354297,0.2941721987911181,0.15141675572720353
0.11,0.11458219261678507,0.1421071709999595,0.027073959953862713,-0.12633653007486798,0.0429572560009196,0.08330877419110212,-0.060190442911875405,0.37326582221967286,0.36048589769584116,0.27124637462615764,0.2791693933198895,0.13833620263449925
0.112,0.1062556931049748,0.1382157019027076,0.03121172071978346,-0.12031476565306637,0.03673789940434496,0.08371757931335812,-0.06188227729993495,0.344864846069623,0.33605325514567475,0.2505815165048709,0.26542578649982734,0.1268077394583367
0.114,0.10022383686959817,0.1371525849916998,0.03624722057518194,-0.11672380725541409,0.030974890834054726,0.08585456718964887,-0.06242748244232256,0.31663383037099535,0.31010540643979606,0.2307415326060086,0.2525640010402402,0.11529561447101784
0.116,0.09598888662137046,0.1378346662174224,0.041613349693371625,-0.11487294471655632,0.02586218210544268,0.08898452351289547,-0.06110587817847366,0.2866520534064223,0.28211365281112727,0.21022465019705153,0.24109352704969045,0.10527302383264074
0.118,0.09307951570581559,0.1373807901743926,0.04447336591702981,-0.11309605602516547,0.02283601279511292,0.09010213025294969,-0.05771646426970258,0.25557489962936863,0.2529721020837956,0.1885514713483378,0.23062123854304556,0.09927855942211339
0.12,0.08997296823110265,0.13270426421504083,0.042942003624242095,-0.10950148055130514,0.02220284120937107,0.08662254907661428,-0.05174337139233007,0.22754512734429438,0.22468586000842175,0.1656565371279091,0.21921850390769482,0.09608925029897614
0.122,0.08594338280338659,0.12415922869161759,0.03823340235240268,-0.10412509710466857,0.022572761524526707,0.07946193988655392,-0.043033885464098656,0.20567322025706028,0.19932726435815187,0.14159771706556515,0.2049325786476957,0.09167411195773692
0.124,0.08230245280987489,0.11575243998118684,0.03334673857027997,-0.09895482461626175,0.022800364849116163,0.07228288803086126,-0.033518031626913504,0.18906587107679074,0.17822161888682067,0.11853606870716432,0.18730734007268646,0.08372294626923722
0.126,0.07974007724537573,0.1104438289839974,0.030622641269857063,-0.09503195212525899,0.022588866943612385,0.06789704866486479,-0.0266188686450577,0.17347690368281304,0.16110657616295596,0.09987204362601687,0.1686789911656104,0.07406838324181154
0.128,0.07591863263174761,0.1065545541535142,0.03053215014612616,-0.09044525523087947,0.021153303485943735,0.06580831010007472,-0.024045145185813892,0.1540592925173197,0.1461871237085536,0.08569114385208852,0.15280687001008242,0.06627261513605126
0.13,0.06806028763260812,0.1004952349176119,0.03215282278836429,-0.08262339521268375,0.017329762107412935,0.0637008445809617,-0.02468443839659309,0.1289137209257215,0.1308063176348804,0.07199226535042337,0.14087588755931074,0.059891328542204116
0.132,0.05715534322404383,0.09194385870467858,0.03437253026831915,-0.07234823800433282,0.01123746712363744,0.0608164540722017,-0.026663442109258646,0.10001906631953933,0.11246479634361907,0.0556703830162014,0.13117027718896887,0.05018197811120318
0.134,0.0474554568818609,0.08391400241771804,0.03618147431383696,-0.06342275200011095,0.004831465709918884,0.058310055514604706,-0.028643492657773925,0.07090495444195456,0.090703733942354,0.03787812684811681,0.12260356222244964,0.03604734721960572
0.136,0.0409630338227289,0.0776880905483895,0.03673684014415618,-0.05725164639804575,-4.8846517205472365e-05,0.05648218519669103,-0.029780814916660903,0.04454667102256895,0.0677720781858219,0.021455438994180658,0.11489891376966666,0.023308047801991312
0.138,0.0341791889970473,0.07075366543595575,0.03674732678098776,-0.050348660179842866,-0.004403422820982875,0.05404631478818108,-0.03018621246624244,0.022456590615371832,0.04612476619801283,0.006731822748492654,0.10613673009316558,0.01645457012491962
0.14,0.023953570730410097,0.06208170667138732,0.03833268909206201,-0.04058051875659889,-0.010389552561013699,0.05088993166556839,-0.030578783448797175,0.0044374939681665546,0.026127033802680402,-0.008185760136040192,0.09419426378931402,0.013046949107547515
0.142,0.014214493679182542,0.05539003823318853,0.041458829400838774,-0.03233096718579966,-0.01647042661316891,0.04859498028094095,-0.030614933250607424,-0.009805955703765716,0.008021963273694054,-0.023057434370481515,0.08026989318287775,0.009722330352940343
0.144,0.010900620547596601,0.05340907128719571,0.042848182263887244,-0.03033919366493737,-0.018393026304661192,0.04732501883731638,-0.028565579134474998,-0.01878493410782791,-0.00548516034733359,-0.034048034580778534,0.06875339968042468,0.006969931118239422
0.146,0.013674510497972444,0.05402967732071222,0.0404739845757161,-0.0328955454452894,-0.015152254656145179,0.04569386224352169,-0.02301047399439605,-0.021394450122491217,-0.011874478285320851,-0.03832636716666563,0.06344379899926367,0.005261639901082412
0.148,0.01770034692032942,0.054410139680047584,0.03638721993311583,-0.03528461268022797,-0.010393635011126208,0.043553484142233034,-0.014790525596951534,-0.021054554067381208,-0.013300947456575483,-0.038044666523519705,0.06352138083148898,0.002643206869316322
0.15,0.01953045932032711,0.05320583214322181,0.033124497337108864,-0.03496721673496129,-0.007898149774524873,0.041335846707932195,-0.007689622764314552,-0.024435587356358618,-0.015535469276314887,-0.037897544319600296,0.06375790898156408,-0.0017478474987934985
0.152,0.0186338562694352,0.04896175303487276,0.030022815034036015,-0.031601116374770276,-0.007579157767542812,0.0378681241964193,-0.006143636179412556,-0.03526724851271633,-0.022455426469798596,-0.040929287067203245,0.0600255456081971,-0.0056711637222236246
0.154,0.015839566248157275,0.041181744842324425,0.02555373189668069,-0.026138385212402335,-0.007031782322836362,0.03202381460101473,-0.010819026736710471,-0.05110291884210352,-0.03301444720654657,-0.047548306289127255,0.053317161575422975,-0.0066619216193566245
0.156,0.011858811625880098,0.03190483509903997,0.02070503261476733,-0.02038353741186538,-0.005892634096485474,0.025055937707379124,-0.017320796266197876,-0.06606577181979084,-0.043467693751102855,-0.05583547351539354,0.047205630825584974,-0.005022704233557313
0.158,0.007301034672253435,0.023792937802738418,0.01731374664587418,-0.015503751904583403,-0.005952318623390072,0.01903468980028805,-0.02072151896133986,-0.07632307452446034,-0.05204704015982155,-0.06323723876520139,0.042738958722812526,-0.0029513677772140257
0.16,0.0029850357038316185,0.018118231291380925,0.015739741714085046,-0.011378737405450996,-0.007903639318676185,0.014918437248894544,-0.020077629871181422,-0.08251479911954245,-0.06012825411364087,-0.06972466958124979,0.037420205090051895,-0.0003308696034406154
0.162,-0.00015076848277556187,0.015465460862526913,0.01577281965295281,-0.008240330785636048,-0.010262923938265278,0.013438231058776175,-0.01689957272788851,-0.08625763894425356,-0.06761514416139519,-0.07678405571323219,0.02958438017431137,0.007734554695897431
0.164,-0.0004970054522537004,0.016187470322483136,0.01651667271617875,-0.00774828834978735,-0.010392028081625537,0.014831488253711752,-0.011857749938871917,-0.08716164659537502,-0.07103934801455182,-0.08338423922017896,0.021884411779659874,0.025561999290016593
0.166,0.0029845133996283775,0.018547814200803932,0.015395871396132944,-0.010410390338594843,-0.006652429707064641,0.016646318645871554,-0.0057893110776567214,-0.08582793261298875,-0.06927681908995306,-0.08740059841117973,0.017668356727691903,0.04923774703483312
0.168,0.007504805814627789,0.018039459075636397,0.010535426279020361,-0.01259394865969364,-0.0009045076186986336,0.014701602850959897,-0.0015395945598217769,-0.0863496595402148,-0.0667351925042177,-0.09017938185519947,0.015015961356359844,0.06827683254017816
0.17,0.008295700603134577,0.011471646709059997,0.003264351641934166,-0.009632534417950412,0.003062837546889076,0.007396303894157966,-0.0019891723383892177,-0.09244373415708,-0.06872297838403264,-0.09512263160620463,0.008991243453077506,0.07425688192862102
0.172,0.004814502818188283,0.001689749852607206,-0.003082667622151805,-0.0022353486108664666,0.003903930060125165,-0.0018759341288249552,-0.006615695164273207,-0.10274187875244326,-0.07678679209681905,-0.10257270653915634,-7.188724199135898e-05,0.06688976718346434
0.174,0.00032423263528649836,-0.0054038403947590215,-0.005755678246704955,0.004479304202022836,0.0026726684170889315,-0.007687398707717398,-0.010919079480594654,-0.11214092228777792,-0.08817014544017121,-0.10975007320691328,-0.006388492186144605,0.05344443554922489
0.176,-0.0038295421088827847,-0.008700362683897435,-0.0049287608121746495,0.00842983156104718,4.057415716214206e-05,-0.008615116906322573,-0.010573348074574693,-0.1171650014091301,-0.09826849139770169,-0.115271888102336,-0.007841170962720294,0.04094247533152225
0.178,-0.008419902403100392,-0.012702664143019475,-0.004416225343162217,0.012434068566231842,-0.0030506248970995683,-0.009163056139182797,-0.006415108921894714,-0.11877040930811955,-0.10526439422267436,-0.12097570691265347,-0.009032462290904389,0.028899258857865862
0.18,-0.01341794826537394,-0.021196550976695174,-0.00806548736113417,0.019274047073132836,-0.0044965093658681735,-0.014593962180017779,-0.0029303989390650985,-0.12009906759651783,-0.11166138403932381,-0.12914262748510225,-0.013912447679541999,0.012854568620700077
0.182,-0.01863726006013681,-0.03361318717120227,-0.015235229699141534,0.02868163223402533,-0.003561998936882871,-0.025152101561389882,-0.0015604038902659312,-0.12206372729304509,-0.11903432691326232,-0.13919757387602125,-0.021032178089870388,-0.006931138108361595
0.184,-0.024333808373995434,-0.046514473506208825,-0.021960878875616336,0.03828759232883763,-0.0020390101504260557,-0.03636414484253405,0.0012065063391622538,-0.12210538655265747,-0.12438874278008238,-0.14753935865480836,-0.027504416294860022,-0.024856750912004122
0.186,-0.029315258127011776,-0.056129545966786765,-0.02591531039513849,0.04511128377607503,-0.0014736910251444304,-0.04367504383472107,0.008181711760073481,-0.11799185877118279,-0.12440171687766045,-0.15065641045269035,-0.032995705391373455,-0.03656714569302053
0.188,-0.030693254753922587,-0.06011897118290942,-0.02825333514953677,0.04691334091265351,-0.0009255799589708099,-0.04594259077833488,0.017178033203459692,-0.11145602222007525,-0.11977090403588848,-0.14807482185291465,-0.03781352071918173,-0.042239847550029096
0.19,-0.027341070258577158,-0.05915399399561413,-0.030940034196512985,0.04434749809243438,0.0012873689114297716,-0.04559285936813545,0.023693906410616736,-0.106969847599493,-0.11465170630586502,-0.1428059162723381,-0.04073221807692368,-0.045017942501538975
0.192,-0.022532436725160303,-0.05695801944946389,-0.03392652043062322,0.04130008883038893,0.00463917658171858,-0.0459438519624414,0.025620733820409077,-0.10756203231130959,-0.11404897841298657,-0.13986046291912677,-0.041276152712996284,-0.04926370311370924
0.194,-0.02075066152951213,-0.05709776581148998,-0.03588919749293878,0.04106142578980047,0.006940078891948989,-0.04802661967523905,0.024892651958656378,-0.11253123043466831,-0.11989139006247346,-0.1429236581940238,-0.04160997290827902,-0.058086322660995116
0.196,-0.022965833011843635,-0.06020177761623175,-0.0367246288218721,0.043556772312759576,0.00707257931936892,-0.05072660313821684,0.025079504474924318,-0.11908870411503794,-0.12913810584812313,-0.15128720917004104,-0.04414739017055246,-0.07078854643738385
0.198,-0.026818129371773095,-0.06517037581753317,-0.03805374122866651,0.04735062780709578,0.005907871690967646,-0.05375265143411368,0.02699362455341195,-0.12476521774399321,-0.13767025875018754,-0.1611193860301784,-0.04898295846220161,-0.08442303051167697
0.2,-0.02958141644454318,-0.07106019257939958,-0.04152938691071548,0.051509124602151755,0.0053919110845216025,-0.05815759328430493,0.028363346543900225,-0.12796992327596135,-0.14460440078477288,-0.1698841268670434,-0.05554641431430729,-0.09775777180688107
0.202,-0.029705926950204898,-0.07680393525460996,-0.04728630676227436,0.05484281833875794,0.007255075945284894,-0.0639865972400222,0.02824313075501804,-0.1282455180334672,-0.1508707466322724,-0.17783620412437176,-0.06527448237360285,-0.1121245670592112
0.204,-0.026779976282818793,-0.08069518508111355,-0.053987809489992274,0.055702334471526505,0.011918953960422848,-0.06951400963442902,0.02848862003372938,-0.12625815447912056,-0.15525943911926504,-0.1847785115181951,-0.07861437279841561,-0.12797809669719
0.206,-0.02224607533692773,-0.08135218335413186,-0.05904124656361154,0.05385756270229838,0.017374022441993844,-0.07241286932268924,0.03048248087394499,-0.1222992050944186,-0.15465779812393549,-0.18790782416679316,-0.09012570453016165,-0.14216310869843155
0.208,-0.019973669226091145,-0.07917222254043209,-0.05912770359069028,0.05163248299550999,0.019410000451359568,-0.07104656065937899,0.033676334264881,-0.11567223034291818,-0.14802704147775747,-0.18490343983266735,-0.0925257595778683,-0.15071500635750154
0.21,-0.022572543007891143,-0.07567021667042577,-0.053098716753621114,0.05113522022895304,0.015498715875470992,-0.06578168787752707,0.03741859477263964,-0.10675064902650067,-0.13822019447578532,-0.17726033046982137,-0.08596189623514909,-0.15351592485635754
0.212,-0.02769832935971883,-0.07128861014180907,-0.043607356583723236,0.051273522650474086,0.00784964448758642,-0.05876611922738558,0.0416991529346589,-0.09806201302682732,-0.12931877498613983,-0.1685747444745476,-0.07781784301266227,-0.15360454375818028
0.214,-0.03099581439989385,-0.06556114952488372,-0.034430161537302675,0.049603661925668875,0.000866162315714381,-0.05180489846052836,0.0465785261860503,-0.09165856471253549,-0.12249703873321972,-0.16080778935901138,-0.07313125224888285,-0.15186075480383598
0.216,-0.03078789400413691,-0.059022642773239375,-0.027763383617809494,0.045773805386009773,-0.00276488659689362,-0.04554043197837095,0.05162188395838245,-0.08710655294294446,-0.11581277172004187,-0.15363237840242042,-0.07037074270472589,-0.14574019823586867
0.218,-0.028927958193838477,-0.05342900951855865,-0.023735133015715355,0.04195482364424433,-0.0036848060597659943,-0.04051803862929646,0.0548684186141423,-0.08358732637670202,-0.1089486751421309,-0.14708855104860982,-0.06697281450363994,-0.1355225477423359
0.22,-0.028799161681769426,-0.050216111101594914,-0.02073810344106779,0.040597262360499174,-0.005031264122146343,-0.03717800111500966,0.054387929917477866,-0.08162769954789097,-0.10507334263616326,-0.14331318068207552,-0.06379799401103975,-0.12780146261968311
0.222,-0.031323013080899596,-0.048715928341858804,-0.0171933258454657,0.0413571371806128,-0.008478484726849903,-0.03474887046583416,0.05231689337850191,-0.08099201102855348,-0.10559818153210054,-0.14406892024202367,-0.06301244686343534,-0.1286543901859353
0.224,-0.03281618002199472,-0.04645447840958471,-0.013945448753669232,0.04071389403847963,-0.011252493644175228,-0.0319819596029872,0.053247981875604804,-0.07904458971730344,-0.10669685272584285,-0.14737419170284025,-0.06481998428801779,-0.1362501183149736
0.226,-0.02979027634473396,-0.042470949140444775,-0.013214638626807147,0.036673922705451674,-0.009880891511439154,-0.029173091440543298,0.05744772277944513,-0.0734882019890354,-0.10404541978115583,-0.14881968472969564,-0.06714421071423293,-0.1435983753010297
0.228,-0.025116452960004306,-0.03914636019555403,-0.014466038789979568,0.032514458949568587,-0.00636230232517717,-0.02770832136681045,0.06038576817510626,-0.06591525412410298,-0.09806706304031691,-0.14636865459223608,-0.06812400431423248,-0.1470375129913257
0.23,-0.024542700559338923,-0.03856797524367064,-0.014199852063104682,0.032221471200661975,-0.00614147665605082,-0.027308212398808797,0.05968756963452139,-0.06030856554411011,-0.09179007621066584,-0.1417218129191111,-0.0681243825893082,-0.14876541772686083
0.232,-0.027661123560305288,-0.03839538469982739,-0.010783097047032886,0.03395417827545897,-0.009977073470913747,-0.025560869687599613,0.0581607212652195,-0.058027677832333625,-0.08614001358023185,-0.13687750723143816,-0.06777102478920066,-0.15098791562123504
0.234,-0.028940435453477444,-0.03517900989325886,-0.006448682021187292,0.03324582821336654,-0.013453911006795749,-0.021420914197298475,0.05900226325041386,-0.05682594408349695,-0.08018542248490593,-0.1321804834839148,-0.06600530994631518,-0.15167565473856004
0.236,-0.027208508238802796,-0.03085307918274853,-0.0040484140253371804,0.03083506304157795,-0.014202693496590367,-0.01768165025447902,0.061646906738754094,-0.05483068753394291,-0.07430034540701223,-0.127889330477705,-0.06266216352807472,-0.14779257791016773
0.238,-0.026898174985511763,-0.030670345312619585,-0.004079545838045337,0.03134043716885526,-0.01400867894437533,-0.017820626294004382,0.06380965008419533,-0.052507006103886984,-0.07077343703822317,-0.12544853111309176,-0.06030390034616787,-0.14038202549334364
0.24,-0.030087595327417452,-0.03533796918883394,-0.005259610025529415,0.03558139472552185,-0.014331836532057768,-0.02152759518572515,0.06530018778602506,-0.05046053157138031,-0.07106685379747305,-0.12633272473192278,-0.06092214868874759,-0.1348156023629558
0.242,-0.033063353944452825,-0.040335074405284554,-0.007114704771826102,0.03931238816179431,-0.013797910575406459,-0.02568613801126805,0.06796511333918351,-0.04743320738670673,-0.07258864873507692,-0.12915846076893175,-0.06299184990519965,-0.1349959558904774
0.244,-0.03168202946474388,-0.04262311831840892,-0.010853613046135406,0.03920414438991394,-0.01053441795213031,-0.028680624807912117,0.07254260335969974,-0.040707648635049526,-0.06962622075351677,-0.1292463784198441,-0.06351868248218183,-0.13841214460913107
0.246,-0.0268931694945001,-0.043541283135750994,-0.016688779245955628,0.036690158048665635,-0.005470578736308004,-0.03112804191114413,0.07756538456160747,-0.028904941243068506,-0.059192220137484805,-0.12330634030806027,-0.061607984265973234,-0.13979319629831805
0.248,-0.023324164090835507,-0.04483417835890704,-0.021577042730635508,0.03529422192277881,-0.0022081266030031374,-0.0330262086802752,0.08113891177902383,-0.01528764211697507,-0.04474273810165812,-0.11339739695211326,-0.058929340057333565,-0.13810303086524156
0.25,-0.023971698926978827,-0.046033816078259765,-0.022072321461933185,0.03639700298548136,-0.0031658803950806464,-0.033249518307813565,0.08180614536156833,-0.006033134303795739,-0.032576683346104404,-0.10445329530438073,-0.05703418839154912,-0.1365492487975957
0.252,-0.02740955117355217,-0.04611344045908175,-0.01867233524852549,0.038364586650364164,-0.006784018243086271,-0.03173206875857916,0.07890948642105762,-0.0037183041983084105,-0.025732422671595458,-0.09895851601343467,-0.055049353839932126,-0.13660069151486298
0.254,-0.029457810593556618,-0.04413047597127054,-0.014673967604712092,0.038200383264686416,-0.009559625367486325,-0.029329711304942534,0.07419514895847912,-0.005108710719457633,-0.022650632745530357,-0.09535776564667989,-0.05094141622295631,-0.1348734213458964
0.256,-0.02747048809884297,-0.03935762842964922,-0.012025799827795778,0.0342620292121067,-0.009666040754487302,-0.026346705763194114,0.07130073693241695,-0.0058800920252396575,-0.02085174571834965,-0.09155869574465932,-0.04497009313165918,-0.12723962270651734
0.258,-0.023417310544318923,-0.033974843153019525,-0.010899714861154833,0.02907899128633319,-0.007883755991412314,-0.023731213453755104,0.07243527965635604,-0.004718654735552448,-0.020077313920720773,-0.0887433549265724,-0.04041629366441515,-0.11521102154971984
0.26,-0.022433640823196432,-0.033106103315900505,-0.011098111779130077,0.028195821261602493,-0.006814646970270529,-0.02374092744770817,0.07729335665875774,-0.0027454451862729107,-0.02117935193812811,-0.09003851387480302,-0.04035665624380281,-0.105824319134756
0.262,-0.02719725788719915,-0.03872159440985302,-0.01177327548941151,0.03374406671967273,-0.008696299114156605,-0.026821129387394956,0.08493381182819046,-0.0007332718823288948,-0.023270007328796073,-0.09534032987702387,-0.044944110595497605,-0.10366776301230725
0.264,-0.03352343885885027,-0.045503825610142275,-0.01194989904870489,0.040478985762485556,-0.012019306738105575,-0.02993052724044599,0.09469089398038566,0.0027864913926253804,-0.02335492974809671,-0.09947467486363512,-0.05145200502156822,-0.10543983066274527
0.266,-0.03426635019886673,-0.046268667042769766,-0.011857823387716971,0.04124431589731559,-0.01269888076809193,-0.030014209110875774,0.1056030482851861,0.009768269686583834,-0.018800742721194974,-0.0970714817709943,-0.05534860020449013,-0.10517737242216525
0.268,-0.028876894805645016,-0.04141625935167817,-0.012457458872001934,0.03630663972572861,-0.009970850651586457,-0.028008698487664338,0.11564030780613956,0.018508040053887266,-0.010299874134699861,-0.08846926232709199,-0.05326165872964716,-0.10203919802740952
0.27,-0.02496598084108806,-0.039631723807112454,-0.014581398161053269,0.033878153941894855,-0.007244910783702201,-0.0283459367578522,0.12138890743005858,0.02389214251555393,-0.0023322300034141936,-0.07931928528745463,-0.047110722757432034,-0.09980192794686872
0.272,-0.028192379361505895,-0.04670132491335899,-0.01823657312854098,0.03930400303525952,-0.006800923033165485,-0.03353390864251817,0.12027637906692167,0.02312456270314014,0.0007185879045355905,-0.07450033493028706,-0.042380346827557355,-0.10068194953280789
0.274,-0.03484166056367556,-0.05659320645691342,-0.021329987649702908,0.04718255054889763,-0.007706601559645129,-0.03954277303964981,0.11392143207377152,0.018646212911618908,-0.0010381040297465648,-0.07378812430339013,-0.04100753720899311,-0.1020160117808781
0.276,-0.03723811409920017,-0.05821677972185729,-0.020693735521345166,0.04818379165640658,-0.008727887007509599,-0.03966835183415811,0.10810644768816435,0.014983625607466538,-0.0039941878161353535,-0.07385695325600078,-0.039747615729105394,-0.09956358124353858
0.278,-0.03353791130641236,-0.049109300906639265,-0.015582456047814268,0.0409563274816519,-0.010159631210114536,-0.032835081104498565,0.10881642258373542,0.014610293047380065,-0.005575286012741945,-0.07290889358601184,-0.03582358594488456,-0.09286904375742178
0.28,-0.02928571493994305,-0.037730731967132246,-0.008599856219728528,0.033079321562901894,-0.012699522977786728,-0.024437496837148687,0.1163126855312766,0.015676487946179717,-0.006279489212797702,-0.07250397475114251,-0.03124541790353795,-0.08521400882721436
0.282,-0.0303485003852087,-0.03313087238110826,-0.0028578714575471943,0.03170911435951004,-0.01618100403799093,-0.019623951294210643,0.12378038581060338,0.013751368369338225,-0.00810123544328628,-0.0751640155233275,-0.030716884897655602,-0.0793970846926757
0.284,-0.03632894423997199,-0.03598202880779537,0.00039211265882247847,0.03642177083257103,-0.019540384408707392,-0.018936893894412547,0.12576245055616436,0.007737709007947274,-0.011706466789587274,-0.07999135048383196,-0.035237640146057896,-0.07553059943579432
0.286,-0.0419566567611341,-0.040015138206945404,0.0020041939876152205,0.04148740007811247,-0.02182945103999759,-0.019696265602060826,0.12505969147695903,0.001247103258270864,-0.01525976589448281,-0.08254588110619691,-0.03962786646234701,-0.0720731092742463
0.288,-0.04405513346974301,-0.03982969648811027,0.0042310955391631905,0.04303170295433448,-0.023537742774959913,-0.019035338885482523,0.12647145706571045,-0.0034493092877732065,-0.016748984645691755,-0.08076569710594138,-0.03860497983266472,-0.06832712884056624
0.29,-0.04443228873627531,-0.03588769633713075,0.008513242511624,0.04194333679088857,-0.026015535629694327,-0.01595478650346695,0.12738222699666515,-0.008438715705301903,-0.017160974916876594,-0.07808872030629421,-0.033430024249461295,-0.0659727803305903
0.292,-0.04570784977629481,-0.032079160962373454,0.013632568395063351,0.040565456353341765,-0.0293180825519552,-0.011574970108367513,0.12046365195849397,-0.01623677907185911,-0.01974198743895222,-0.07865223739943686,-0.02974695571537332,-0.06679020425139183
0.294,-0.0469596208682712,-0.029681055144745352,0.01741834460165036,0.03892824310560867,-0.03178729468999245,-0.007279159140399616,0.10441029948623441,-0.026584671671704637,-0.026054018118201964,-0.08210375176812282,-0.029996154263996988,-0.06845283265591659
0.296,-0.04528117619146533,-0.026717953675758813,0.018904532935503884,0.03581813207561418,-0.03190698090140192,-0.0037901438924846267,0.08533722091476909,-0.0377956750046201,-0.03472996908864622,-0.0853549119165508,-0.031992229059325555,-0.0661301162647845
0.298,-0.040579197239245225,-0.02281667473874281,0.018209084142815135,0.032111160163635646,-0.029981842593858714,-0.001971953499130813,0.06715495373493445,-0.04840633742371845,-0.04356276777546788,-0.08744752718341525,-0.034283174396389796,-0.05957643323839772
0.3,-0.035732890661502544,-0.019336141400866296,0.016776989107652747,0.02935025875361584,-0.02770559522112377,-0.00149309958434695,0.04771324138271607,-0.0561549476859816,-0.04992242956770877,-0.0896682779768982,-0.03657981336162913,-0.05316342833425237
0.302,-0.03215264417851233,-0.015406111837684304,0.017044017189666236,0.026352621685707827,-0.026290853408257413,0.0003218430281262389,0.025462897835734834,-0.05782261024124318,-0.05070515441372565,-0.09157490326730279,-0.03599734730519359,-0.048116928566234216
0.304,-0.028437607564264607,-0.00974729217901581,0.018968699644431347,0.021472415111750617,-0.02517763284946956,0.004420181871708826,0.0043328783846826365,-0.05247625749244116,-0.04538893560661731,-0.09024105952291687,-0.030254787951193567,-0.04143035482656623
0.306,-0.023055657772780007,-0.004750690173531919,0.01850037032391318,0.016041278660486137,-0.02216165017605872,0.006822785916661884,-0.009826032349021931,-0.043904751397529015,-0.03778016087127357,-0.0845507768184663,-0.022747320623296742,-0.03315438295708679
0.308,-0.015865773929675184,-0.003087783088517727,0.012799057526816295,0.011828917921245106,-0.01557086908894466,0.004002562970965673,-0.015631915935226365,-0.038264372401741756,-0.03263211762488254,-0.07779445189422621,-0.018623004715911665,-0.028555431292338593
0.31,-0.007774876011431026,-0.002332606282613006,0.005351503315353749,0.0076543772393591735,-0.00721782613604215,-0.00071627347506591,-0.016764166840415224,-0.0387807163424454,-0.031254614748269155,-0.07367281864454826,-0.018316220769499986,-0.030317965844417837
0.312,-0.0009512853374385359,0.001209294193416941,0.002098528900182776,0.0022142514082444872,-0.0017375452098561247,-0.0013583857964959466,-0.016694838351085494,-0.04318079065548983,-0.031583549450273495,-0.07185892416508012,-0.018774363261690324,-0.033254422798700806
0.314,0.0017597517274139717,0.005101844406258394,0.003358898556845864,-0.0018048352557703587,-0.0015904407166190133,0.0016229221227579474,-0.015992273583498137,-0.047482048792244116,-0.03259458893990948,-0.07044720585464422,-0.01861320649252189,-0.03141492026086567
0.316,-0.00026560062705578745,0.0036766207648916225,0.00398399948112144,-0.0006855695951430007,-0.00425389591498299,0.002277140536506143,-0.014331778671078689,-0.050907583945137676,-0.03596727887203377,-0.06991721051776568,-0.01870243166871727,-0.026305959293015935
0.318,-0.004509541328951832,-0.002628585460611933,0.0018921080408531709,0.004510907433063027,-0.006197294083058259,-0.0011629475589924575,-0.012195606085662584,-0.05452529183108521,-0.04181904789867171,-0.07154804130612799,-0.019111945253543906,-0.02329196974578184
0.32,-0.008203660603543321,-0.007102510938596242,0.0010838211167465543,0.008862433327073899,-0.007293036210119801,-0.0035807940695692132,-0.010798683999597056,-0.05746823502632749,-0.04694265252273694,-0.07492633598031695,-0.018960875196760284,-0.024170590522454863
0.322,-0.010034007845365456,-0.005765432336252057,0.004254214842226511,0.009346246164744118,-0.008780167690001233,-0.0011631428231319444,-0.010828649367944499,-0.0578494808215321,-0.049351570679814175,-0.07879256761546125,-0.019019255874245418,-0.027003056588833507
0.324,-0.009185179757017641,-0.0011181472245608973,0.008069611795372276,0.006765042039327563,-0.009741194042343915,0.0034120812858438807,-0.010911727377104094,-0.05543724253059567,-0.05027832718432171,-0.08152098424494551,-0.021147493033696875,-0.029637427711975767
0.326,-0.005679744864794252,0.0031994184161168973,0.008888225671064414,0.0030018749876621165,-0.008709300254833168,0.00622804750739433,-0.008997985064510532,-0.051817106405204004,-0.050761072404684957,-0.08112340978643826,-0.024598593644590737,-0.030640198107919136
0.328,-0.0021900187739774648,0.006284136646153274,0.008477076591175348,-0.00029550981764081465,-0.007121601874365923,0.007466385856508308,-0.005638451284676483,-0.04936316656775035,-0.05032247307293352,-0.07767539809999341,-0.02599236931147995,-0.029038212472319556
0.33,-0.0021142514502569976,0.00847058078988303,0.01058128286281273,-0.0015399713618304402,-0.007877418190256193,0.009171073718169413,-0.0035467583299390415,-0.04952948790291834,-0.04912938020167306,-0.0740111935060176,-0.023809684063391564,-0.025462793389292956
0.332,-0.004637483197211113,0.010323231992826953,0.014957425960054607,-0.00126504353427052,-0.010666845031610576,0.011677464844332746,-0.004009155546288395,-0.05159316968765599,-0.04849154819837679,-0.07169977314042092,-0.01997305626312346,-0.022090645542989975
0.334,-0.00557112271565857,0.011990296646999445,0.017561785215133883,-0.0018736228698905226,-0.012081704510186914,0.013362094382654684,-0.006075646386858841,-0.05453722927485792,-0.049470476535534366,-0.06964915707482887,-0.016961391377881305,-0.020013392002650798
0.336,-0.0035851016654332955,0.011611276529927583,0.015198347914003405,-0.003117048337161773,-0.010338621463163557,0.01192715248378925,-0.008850742225662992,-0.058905888631928895,-0.05238265617531155,-0.06840394273363655,-0.0162223681544065,-0.018522803119763124
0.338,-0.0015532858220745952,0.007489069337299145,0.009043096337162123,-0.0020063696464627263,-0.00701238949714717,0.00692304911745518,-0.012249654313827145,-0.06471459400215923,-0.05681278409016778,-0.0709531107872752,-0.018190408857903788,-0.017275997311474268
0.34,-0.002003536290101163,0.001955563445046022,0.003958378841630257,0.0018840792601502211,-0.004690256503938155,0.0014775851882021347,-0.015703867546936486,-0.06983601790121081,-0.06130061394291943,-0.07783066266562401,-0.021513674749933796,-0.016833669080462757
0.342,-0.004570466111954011,-0.00045140633034998305,0.004118310967400015,0.0053231271783466365,-0.005061531204260719,-0.00016695589056546663,-0.017742009432412564,-0.07214508726454047,-0.06375575976005529,-0.08557534094475655,-0.023864928177815204,-0.01711936927126609
0.344,-0.007972402904667759,0.001034015166044085,0.009006453805041307,0.00647076696015696,-0.008478225517245329,0.0027481009600547777,-0.017194940228875848,-0.0708954369515722,-0.06287421855982812,-0.09013193846658638,-0.024390162424076114,-0.017250892917206235
0.346,-0.011615424573823136,0.0019510502186547351,0.013566900506469451,0.007373248344573076,-0.013239827382586214,0.006096929852359895,-0.015000846543607517,-0.06627456708647617,-0.05933119241940779,-0.08987809813370772,-0.024025822947964934,-0.017294507415294813
0.348,-0.014565994772179045,-0.0011471641237197794,0.013419014491625322,0.009808759070926307,-0.016175004126186686,0.005484102056509359,-0.013923161304329098,-0.06036486307868572,-0.05533335597768178,-0.08634994711378612,-0.02371649328077227,-0.018342190232048198
0.35,-0.01594687698772672,-0.005630200497189564,0.010316531982024727,0.012312153696337164,-0.016231150136804585,0.0019891575397563608,-0.014928076937106842,-0.05691208823719034,-0.05263612498184271,-0.08190381958296991,-0.02319700917201527,-0.019565494134439934
0.352,-0.016369914700427212,-0.006539094692418636,0.009830650655328899,0.012886226633220857,-0.01576968224075716,0.0006420627366390127,-0.015765024774511385,-0.05799579805133737,-0.05164126030618785,-0.0771505128422182,-0.021387644883300968,-0.01767174522973612
0.354,-0.016654083252006083,-0.002705603060414319,0.013926538540456685,0.011319034187648935,-0.016868842645012157,0.0037875522212981578,-0.014993632970864685,-0.06261699830367537,-0.052587760482247024,-0.07277078235240203,-0.01817276988848337,-0.011264210002117078
0.356,-0.01687835421317603,0.002773409008167689,0.019498599285062916,0.008825425652402987,-0.019247293591766874,0.009148260974386618,-0.014340634653079028,-0.06856715443283627,-0.05591395868743793,-0.07120739058747522,-0.015499716023202846,-0.003224396115784074
0.358,-0.01772141491299421,0.005977147497422631,0.02323987237454485,0.007646165623506341,-0.022014424111758257,0.013422181794413913,-0.015306138426491776,-0.07384684374804856,-0.06088248213533406,-0.07364715787267512,-0.015461594503033358,0.0027139516133950848
0.36,-0.020386581105892247,0.0050006814064287655,0.024637209723606952,0.009697571088123124,-0.02476616132281032,0.01494520372296265,-0.01673304010655684,-0.07705259307219905,-0.06539813530061009,-0.07844407336789652,-0.017857965583382488,0.005509942668328845
0.362,-0.024664804978887647,0.0011729800436638153,0.025159601073039158,0.014059119318126652,-0.027219766273718096,0.014099726112724253,-0.016602842392514965,-0.07732778677096248,-0.06727458635725658,-0.08325668608825967,-0.020898858132198397,0.006761993878930241
0.364,-0.028343938224486564,-0.0017436106571639585,0.026370457735583115,0.017040420021506204,-0.029069107025385607,0.012874231423359844,-0.01387642643437493,-0.07371351449564477,-0.06510172517905752,-0.08549126452923649,-0.022992369102072807,0.009049212045641648
0.366,-0.029728531192909344,-0.0015614877052807458,0.02833853307393943,0.01662605825962036,-0.030381185211470804,0.012663792849334707,-0.0095594595264335,-0.06599563465001135,-0.05937937794078875,-0.08292531641123281,-0.0233448044964921,0.013226987566374509
0.368,-0.030060769222647082,-0.0005341305363507978,0.029735661756843848,0.015416416124573487,-0.031643251040755084,0.012653577651851456,-0.006775630855222293,-0.05700317836673936,-0.05317416024251569,-0.07694174705216157,-0.02240777596722484,0.016343144025269117
0.37,-0.03100292232822767,-0.0012891351306571338,0.02973086747191657,0.01619574060984922,-0.03263026741368725,0.012047318614800913,-0.0075430003685797815,-0.051635100486644596,-0.049880306450966604,-0.07162355747035533,-0.02155131660610347,0.014694963988254442
0.372,-0.030816504289572146,-0.0018044960195204502,0.028887511903556158,0.016821675184572376,-0.031956776891617085,0.01216349629336766,-0.01019235303355852,-0.05230672173857471,-0.04998360181870865,-0.06850188140849635,-0.021360187739648633,0.009655091570187985
0.374,-0.026440249248355852,0.0015092488329143837,0.02775960180343003,0.013439617790370924,-0.02871998041743091,0.014190394368609676,-0.011977646447224337,-0.0569652068114327,-0.050958825640114565,-0.06597099466772254,-0.020728776668886836,0.007388643436061663
0.376,-0.019032389927880186,0.0070663565974440935,0.025798776270183427,0.0071860711485398415,-0.023919327846271037,0.016387432290037435,-0.012372174525746979,-0.06162679264688518,-0.05062339372919477,-0.06345335621636282,-0.018556162955007536,0.01110196447449871
0.378,-0.01437402223045509,0.00866272420874079,0.0226810075902103,0.0039109940298318645,-0.019989057586994936,0.015593519866997514,-0.012258335858540208,-0.06331582786351146,-0.04967933686817546,-0.06264538211522458,-0.016031917713492518,0.016533539163397393
0.38,-0.016325976805784376,0.003520197890734395,0.019750385888963475,0.006942280134928101,-0.01907851240236031,0.01124107394007706,-0.0116173572019324,-0.061337220768649184,-0.04995248552178297,-0.06470733771275784,-0.015537861753706231,0.018483712274617127
0.382,-0.02207555291851418,-0.0038516893411979884,0.018708822656019752,0.013059994318475076,-0.021186413809408063,0.006266217037762383,-0.009544682470571143,-0.05758551246045671,-0.05134294486583291,-0.06844482712042693,-0.017725207159209506,0.018193592996766945
0.384,-0.026020928033311283,-0.007826177666826086,0.019230071699942845,0.017041477281131517,-0.023918658019886557,0.0035390836265463996,-0.0065231360356869765,-0.055124980897465745,-0.05243767839268651,-0.07192350103484384,-0.021814697402818422,0.018765746713116545
0.386,-0.02659471987174327,-0.00894666899679746,0.01885324860540283,0.01811706313366817,-0.02467682392873593,0.0023729663488142156,-0.005553251388322982,-0.055454454036071556,-0.0533781712341962,-0.07487314497268555,-0.02750901778460186,0.017499869010167014
0.388,-0.02689335255458487,-0.01227813150420105,0.015558924445109831,0.019922015702390446,-0.02319562990704593,-0.00041954830591991814,-0.009112970664645049,-0.05764488441698528,-0.05559984025066102,-0.07812054371932396,-0.03417734050050692,0.009920831842974136
0.39,-0.029291148185084697,-0.01941204903835213,0.01033132120177917,0.02461691573698335,-0.021457840875985755,-0.005876049556851477,-0.014924426130383276,-0.059584627912433734,-0.05835115290895455,-0.08060621769434716,-0.03936389100163758,-0.001414145767616613
0.392,-0.03219808204274041,-0.025706356530531035,0.00652787183581312,0.029501602906978227,-0.021113192794077494,-0.01082066618963364,-0.01767027997005225,-0.05969937618579302,-0.05860736155842762,-0.07959096565162856,-0.040518346995220215,-0.008588106801163774
0.394,-0.03293299634534428,-0.026585129504245145,0.006317017246368099,0.03067227238114845,-0.021752413551886493,-0.01168799934738354,-0.015836366494780534,-0.05892476627216958,-0.05591542238503901,-0.07516131653081472,-0.03826525829059537,-0.007728372041103834
0.396,-0.031506483978265803,-0.023478482050798763,0.008265188199809596,0.028365093749455072,-0.02195640239160429,-0.009099363548948008,-0.013303672997837886,-0.06007325686454528,-0.05430082187014803,-0.07154037562441729,-0.036467082620602116,-0.0026780960915615236
0.398,-0.03046453418637331,-0.02189615733248041,0.009025845582247406,0.026885865155949113,-0.021293016775693816,-0.007258732706680004,-0.013378145768344075,-0.06350197412331157,-0.057365525293377274,-0.07264167569232143,-0.03847951873721003,-0.00024591579051411644
0.4,-0.031473072124433836,-0.02538629284622164,0.0064054056743811285,0.02939253422062074,-0.02013598758003941,-0.009655878710855166,-0.014750264575002881,-0.06514264151612814,-0.06267526216668995,-0.07820555445240272,-0.04390591890860689,-0.003959619518929909
0.402,-0.03299111420198862,-0.033197921766506266,-0.00022094796328992166,0.034749811593373627,-0.01791261735913094,-0.01671861725831285,-0.013113970241074606,-0.05923428800247142,-0.06231912059721334,-0.08356215928322905,-0.04927496492345174,-0.011591272462029482
0.404,-0.033488401758942396,-0.043690202645628236,-0.010375995849688577,0.04099330112411353,-0.013944112495185814,-0.02718243678636255,-0.0043120180313108965,-0.0404098449905899,-0.049025611799734525,-0.0824666663664593,-0.051987927259946574,-0.018507021662666757
0.406,-0.03562221680743334,-0.05723484327820146,-0.021695573578810686,0.04917799957256447,-0.009941281020785194,-0.03972422814522615,0.012146771405665436,-0.005634386186163772,-0.020985325269531136,-0.07234315582055874,-0.05304016669860001,-0.023596334056025445
0.408,-0.04296860098877029,-0.07306731900861832,-0.030068478136281544,0.060286651331992534,-0.009036291557617253,-0.0519024846337157,0.03099746081367588,0.04054451348476306,0.019116883670297433,-0.05506956213019763,-0.05402574300822031,-0.02975958604381785
0.41,-0.053736566637008196,-0.08517390786488338,-0.031498605838084094,0.07048174173777513,-0.012476835667277367,-0.05879035143228579,0.04539069064582153,0.08650904415673807,0.06911607963477757,-0.028676481420426198,-0.05121557740722261,-0.03767799552327419
0.412,-0.0620373049969381,-0.08636562529530373,-0.024650373411043855,0.07421213781145417,-0.018908748193226122,-0.05616293247459774,0.05352488536217245,0.12570584887247677,0.13096549156732878,0.01773838157351647,-0.03508087544130867,-0.04163917743417013
0.414,-0.06477187559180107,-0.0774078006952032,-0.013115983442260436,0.07141169080926468,-0.02589545628476642,-0.04623631088813784,0.05812159436184549,0.16484114143926354,0.2086384371770632,0.09458092447245964,0.0028629918088540272,-0.033603098939298144
0.416,-0.06255284804965988,-0.06722189474965985,-0.005075791137238339,0.0664993668355868,-0.029677824611097147,-0.03750087687479591,0.060793513436511376,0.21668553417816633,0.3038715139743812,0.20108167657548365,0.06459771546393772,-0.009800665791138741
0.418,-0.052577971632607017,-0.06180133705073943,-0.009515248628761871,0.05957583416052916,-0.023361712885352305,-0.03735582714884766,0.06103383280691828,0.2892687216327011,0.4156470039295174,0.3292018565227808,0.14774230264115226,0.0291966385213109
0.42,-0.025990306591614994,-0.05669198270518757,-0.03096292749795588,0.04345290201864105,0.0006476724781936229,-0.045764682080751504,0.05998765268047764,0.3854011292044566,0.5431349737429556,0.4740082571036144,0.24982093751867798,0.0827377434830216
0.422,0.022693311594275737,-0.04229447349979035,-0.06517806121231005,0.011504972491792165,0.04271498751453945,-0.05572972446743794,0.06273637658123922,0.5122426548706399,0.6921132974590622,0.6391558202443558,0.36972118365873097,0.15035524401964667
0.424,0.08645563306440407,-0.014271972312721887,-0.10075557223551755,-0.034230743861022705,0.09283294377928784,-0.0594791665810893,0.07649117270098178,0.6868172970043256,0.8798626390966396,0.8368385457030263,0.5086787063675382,0.22915035794515531
0.426,0.15193372926512466,0.02302932804072699,-0.12879778848268347,-0.08526882798477901,0.13957366679726912,-0.05477081776882027,0.1038599672910839,0.9181008256716657,1.1207546431255098,1.0758513608444165,0.668829448051206,0.3149748679934169
0.428,0.21325789397059236,0.062340969234401473,-0.15074464287101114,-0.1357194629004826,0.18090654574768206,-0.04566410073939675,0.13456312834709883,1.168717359095983,1.391090649076182,1.3380272821245283,0.8446843479229461,0.4056379956951537
0.43,0.27402025385677264,0.099856552606132,-0.17398067018776264,-0.1856347873554973,0.2226210940767798,-0.03789433335934439,0.14656020006855972,1.3373050619776312,1.6096142348479405,1.5679337714359751,1.0150891796575854,0.4990056028642454
0.432,0.3357986385682057,0.1364997297577643,-0.199244184005952,-0.23563070158403154,0.26605108889181744,-0.03217871636965541,0.12167271699007497,1.3051327013182374,1.6732779351093006,1.6971157693043517,1.149029572365755,0.5879208836555636
0.434,0.38957925673932825,0.1762347596083149,-0.21352412243999982,-0.2822533544496334,0.30007147406330303,-0.020103178808900068,0.06315608703304439,1.0308875386750096,1.5347265035001667,1.6871993689177336,1.2214561369167445,0.6609371100373104
0.436,0.41987899140838963,0.22148827601229734,-0.19865599237196246,-0.31887590380223274,0.3076250053123798,0.009750487487041505,-0.0017759005688602455,0.6073264056117953,1.250362522252566,1.5522381763117954,1.221773179858559,0.7078958264054815
0.438,0.4138700603504113,0.2640732442382819,-0.14990247449522992,-0.33600397883700744,0.27997692012808695,0.05619019411518893,-0.035409765974723256,0.20654576350656403,0.9417743351776465,1.339743186134779,1.1493275061716866,0.7197255951458403
0.44,0.36273868603163084,0.2814308575839898,-0.08124895739724856,-0.3189782845947882,0.22013621718406906,0.09985412901444984,-0.008173027429745754,-0.058580405989029534,0.690874069860099,1.0859712477103218,1.0039468236284537,0.6829136937053969
0.442,0.2570812365482505,0.25527205847802703,-0.001839880962822631,-0.25404686143567623,0.12818029492492236,0.12592063199564746,0.08400445993328859,-0.23596589211878105,0.45755599716203105,0.7824140077931283,0.781674629563426,0.5837967260082658
0.444,0.09298860350895186,0.20030789404717605,0.10699895464951584,-0.14589797147399575,-0.007676619875105156,0.15166161049316115,0.21106667057892775,-0.48846048588203994,0.10737427585012614,0.3850887971870063,0.48159563885138,0.4249638187223773
0.446,-0.10833059727352225,0.15798145608794792,0.26583842476740366,-0.02499533261459584,-0.18772533331021998,0.20949361639926892,0.3216782233162649,-0.9289781117112066,-0.45777414010599754,-0.136295552860428,0.11832931245381245,0.23216233401656658
0.448,-0.29554893479587935,0.15118189917853558,0.44644681987387663,0.07194998238095553,-0.3720858521093042,0.297083881336755,0.37377659099135024,-1.5000115897974267,-1.180671030166704,-0.7428018563895267,-0.26909239789780454,0.040530886050207
0.45,-0.41888464522135704,0.1588593229012611,0.5777837374049231,0.13036521655883787,-0.49977580218456374,0.36751790337841567,0.3578152351331641,-2.018549038109907,-1.858858597886607,-1.3105492777222287,-0.6184296201382031,-0.12285433438745925
0.452,-0.46969586138412367,0.14181905465465885,0.6116829630899965,0.16504634398518644,-0.5421591742101995,0.37619928807863195,0.2974818922365181,-2.327465261145546,-2.2861092875816436,-1.6917018991895039,-0.86575563391153,-0.24512425042108518
0.454,-0.4800182985308353,0.08131895240476997,0.5614034142033123,0.2009565930560018,-0.5220332749641291,0.3201904787883793,0.23234551751499957,-2.3944136706325945,-2.395949099965454,-1.8183078408250786,-0.9834019050441833,-0.32613025855156347
0.456,-0.4847987609411922,-0.012139579791535581,0.47260232347837616,0.25023078207319066,-0.47983821396133036,0.22831797380723876,0.18992456903207425,-2.289167187033553,-2.2781235225453274,-1.7480161566869268,-1.0000471003688218,-0.37648160396943003
0.458,-0.4940460307199563,-0.11703957419248853,0.3769652459734291,0.3074162804965685,-0.4366691244232383,0.1282296129553178,0.16491881049031568,-2.107297766164439,-2.0791879231055588,-1.604996153666208,-0.975491901837391,-0.4134796813768038
0.46,-0.49768262305646405,-0.2181780467797769,0.2796583088056012,0.36010917114752694,-0.39032329394654125,0.030111731120935632,0.12859541141018943,-1.920607085566512,-1.8989607297599256,-1.4826328477662853,-0.9523523356993084,-0.44949375509362033
0.462,-0.4839007023074345,-0.3069445868289751,0.17744938970304117,0.3979488304942883,-0.3330044591596999,-0.0644587541792056,0.05996088224736292,-1.7661375110915722,-1.7608519634446236,-1.399662769233088,-0.9341586365675592,-0.4804105607373922
0.464,-0.45131039263281797,-0.3735331112398666,0.07854354080957993,0.4150683410854143,-0.2675850401714369,-0.1471670686510039,-0.03214098480871522,-1.6505669996377297,-1.6459856609142314,-1.3283973287403006,-0.9044449813163145,-0.4915321553127505
0.466,-0.4108039809640352,-0.41014856550446205,0.001300546395424125,0.41293372779525045,-0.2085703621890238,-0.20446502915730153,-0.11251833141403093,-1.556512559126024,-1.533924122379274,-1.2440837273111678,-0.8547426942992734,-0.4774633422560893
0.468,-0.3755263175365583,-0.42204641891629574,-0.04643569312825787,0.4008003893306,-0.16663720403291418,-0.2343838410881156,-0.14681140178830232,-1.4555947016762725,-1.415797530175819,-1.1457105202985096,-0.7921928232098651,-0.44961010354648856
0.47,-0.34686048560947785,-0.423973803339859,-0.07761291840458465,0.38692649780018873,-0.13622604225352625,-0.25075182623400816,-0.1323568270472367,-1.3307624081209612,-1.2902907795521918,-1.044614073810367,-0.7289201557793544,-0.4216867308015006
0.472,-0.31472389082399155,-0.42356616853160584,-0.10946651775866308,0.37050641298359,-0.10406959388443389,-0.26631957303691395,-0.1020069040417721,-1.1884657651467365,-1.1592336345045418,-0.9466530534098114,-0.6688007005238243,-0.3946362908609839
0.474,-0.272542744749178,-0.415016823969807,-0.14274279379743807,0.34561214237386256,-0.06674368855519373,-0.2786416518956761,-0.09339549324440524,-1.0445731734807817,-1.0233329103378086,-0.8467443369817319,-0.6038065895970933,-0.3591401037739371
0.476,-0.22640869071923736,-0.3881757014526231,-0.16164094655440944,0.30982623544023563,-0.03479181818393305,-0.2746802513146048,-0.11387353061097641,-0.9047002643846506,-0.8811804087929602,-0.7371807713388373,-0.5250172296579889,-0.3095723501394313
0.478,-0.1876549010786768,-0.3409000831912243,-0.1530439713589546,0.26701625480009633,-0.019875351508205536,-0.2469642815630313,-0.13724597047270334,-0.7657809988132098,-0.7369383982570362,-0.6204570347593303,-0.4371539508484219,-0.25288679950565107
0.48,-0.16020022428357716,-0.2840047748482168,-0.12376911402322927,0.2243329819168289,-0.020519696768945328,-0.20448057543070103,-0.13418343635502308,-0.6282770777970751,-0.6040545092635291,-0.5110041804232867,-0.35610582630219606,-0.2020755871989799
0.482,-0.139203697808462,-0.233448881511244,-0.09433467021093768,0.18786523170073144,-0.02435886706961447,-0.16505662836340512,-0.10201292198785361,-0.49860869808061037,-0.4943267645508954,-0.4215124516925076,-0.29193426677746703,-0.16248001092840866
0.484,-0.1204743489173987,-0.1966130109536487,-0.07620064655744217,0.15983679886798385,-0.023785619321162015,-0.13742398112689644,-0.06262133209986474,-0.38492736129633986,-0.40759597729258856,-0.35199807581412274,-0.24195839061938942,-0.1301809403742124
0.486,-0.1048102235541616,-0.16863041243849672,-0.06380137371582972,0.1383102340909556,-0.022126219899677144,-0.11647592067679902,-0.036031101528882496,-0.29224980316395965,-0.3356822670074114,-0.29475963115764137,-0.20001977526051307,-0.10168055689249539
0.488,-0.0930358442303337,-0.14184339936321153,-0.048764899109467956,0.11934203164678817,-0.023960488800152932,-0.09518414471209746,-0.023005730323266794,-0.21767177170755017,-0.2712899331982668,-0.24422531839626696,-0.1641990777230722,-0.076796169166303
0.49,-0.08294284832113036,-0.11427245175006265,-0.03134143745487024,0.10020892115747809,-0.027642372357776012,-0.07326511412135249,-0.01234403377080006,-0.1532103484678877,-0.21180273788080473,-0.19918867913283328,-0.13454295816665993,-0.05420363614590662
0.492,-0.07181127633128097,-0.08883771052914524,-0.0171761813368551,0.08120662448806305,-0.028598736794953745,-0.054431416591593874,0.002571371058414874,-0.09594169928825769,-0.15961556614121655,-0.1603506227211831,-0.10955052491164688,-0.03275428981506835
0.494,-0.059118819775789457,-0.06939195539984544,-0.01061486620365402,0.06500462419324804,-0.024757893254571985,-0.04192813829356205,0.018510205517927904,-0.05097016341420428,-0.11978707684777064,-0.1293333845038979,-0.08774195627639036,-0.015622388840843321
0.496,-0.047336279986160856,-0.058125969904341684,-0.011209072774963805,0.054362741447714615,-0.01847759091820969,-0.036346383024117676,0.02965928886264351,-0.02331407269434812,-0.09456782211285475,-0.10828212813779316,-0.07059918973518994,-0.006786835797687324
0.498,-0.040607258027432876,-0.053874670033726396,-0.013513604343699566,0.04994870642444529,-0.014825979580744142,-0.03456440718213539,0.03390574939136861,-0.011026844536634085,-0.08056190306816007,-0.09754633125901505,-0.06085564664385479,-0.00486949057180755
0.5,-0.0408156880237977,-0.05269916340007767,-0.01185509548220102,0.049735282123785106,-0.016672830532355645,-0.032408236659921465,0.03251066308071006,-0.007009449984221336,-0.07187186445312051,-0.09328377885595836,-0.05705342369074498,-0.004155768318990968
0.502,-0.044855903507526655,-0.05092180494456102,-0.0059239136802210985,0.05022403619552842,-0.021595771041287983,-0.028736654326548202,0.028695113295981504,-0.005285327925257944,-0.06479226558690461,-0.08947966377905593,-0.05348862520458817,-0.0007167535086891572
0.504,-0.04807846417583656,-0.04795095061642583,0.00018743303712791,0.0494406840502089,-0.025318046504507915,-0.025254747620849893,0.02599737504857883,-0.004792861667983141,-0.059712588973543944,-0.08390789291169781,-0.047735030849696145,0.00434164519219382
0.506,-0.049111993859240456,-0.04565882083350946,0.0034075472372752935,0.048261816605530944,-0.026424967512826206,-0.023187841723128797,0.025204176994490905,-0.006476184297051914,-0.058442317558981896,-0.07901861934565393,-0.0432033042150648,0.00800372976200935
0.508,-0.04823467343027234,-0.04373696093447812,0.004465273424828857,0.0467095793481796,-0.025897320517376116,-0.021149234598886027,0.02435248470611743,-0.007817665885915853,-0.05913549810464603,-0.07535102876057573,-0.04176301968695165,0.010458014542844887
0.51,-0.044529250028211766,-0.03806590877275797,0.00659319500327211,0.042019639424504075,-0.024969781096507826,-0.01624287039723013,0.022116121475628223,-0.004275056423745266,-0.05638146681942596,-0.0697844388422815,-0.03992575254211715,0.014729488730528817
0.512,-0.038747619613900997,-0.02717050699878147,0.011933358343715271,0.0339399704698953,-0.025187525642908964,-0.007894833902617124,0.01871788762585578,0.0040048074637473174,-0.04780920390955953,-0.061841728333393874,-0.03474660675094846,0.021607999144698957
0.514,-0.034925427826959815,-0.016960876895097735,0.01842366047549051,0.027545614296831306,-0.027556148361852696,-1.0846190293755699e-05,0.012910150397567903,0.011568824770063595,-0.03746014187715007,-0.05509970890621434,-0.02846302945861951,0.028005154753960378
0.516,-0.03494076465811101,-0.013862854554228185,0.02145601085914724,0.026385717987432566,-0.030180550219311063,0.0027241190618517994,0.00041631850353544006,0.01476103671059869,-0.03085754218860576,-0.051322027963723725,-0.025288518671866128,0.03078370280013543
0.518,-0.034740168313218446,-0.01585775789509065,0.019193972015772102,0.026767953398088098,-0.029214975329926823,0.0005537015312656003,-0.021551042461278914,0.01574360863028842,-0.029018909285056925,-0.04818587027351398,-0.02583061968367786,0.030247925710067458
0.52,-0.02972463109940088,-0.015629776404946116,0.014501966291894292,0.02324834302379678,-0.023516731379824077,-0.0017459219572344819,-0.048387646351786655,0.017926637081026577,-0.02869580502571617,-0.043040914710462584,-0.026157523713716813,0.029537063780404684
0.522,-0.021065513813850852,-0.01040359484222646,0.011187794465131974,0.01617918337541543,-0.016414289497505567,-0.0008559670125159034,-0.07079910206507345,0.021361669915095163,-0.02693769363233515,-0.036276947631850666,-0.022513233255985594,0.03133402725142325
0.524,-0.013456153027169897,-0.00419454106904181,0.009708154745678852,0.009993776251072773,-0.01158473695815949,0.0017551224758810152,-0.08474882604961463,0.025253372014714583,-0.023781601087241443,-0.030902828609225715,-0.01591438155893541,0.03488884595402934
0.526,-0.009426212205393155,-0.002163190602391489,0.007427500682022678,0.0075251269438556265,-0.009067293439476197,0.002186626848222582,-0.09408198455787145,0.031449330952212924,-0.020633976977132144,-0.028999114541321355,-0.010687979430372798,0.036677132154803546
0.528,-0.008298451647387059,-0.005333957013767242,0.002875062882078086,0.008451607284947623,-0.0067551789534374875,-0.0014402443381275939,-0.10151799237279897,0.042078110240946646,-0.01719959970597013,-0.028634753515084342,-0.008902799421648372,0.03530578148435211
0.53,-0.008441708602922872,-0.009822587512740613,-0.0015105242112984597,0.010563795791345393,-0.004252254611151261,-0.0065246992626488715,-0.10328538097039451,0.05564932795238863,-0.01124603446271748,-0.025895151538842417,-0.00855705705338898,0.034146583816734154
0.532,-0.007994906961788607,-0.010455540691786043,-0.002481452101351202,0.010738738747907648,-0.0027540668594176563,-0.008335431325835483,-0.09623156289998747,0.0686784465898952,-0.0016084857399708808,-0.019496860954447207,-0.007092362728747595,0.03674013892036171
0.534,-0.004160464218444972,-0.005346426399929107,-0.0011280270876252775,0.006125924873581284,-0.0014020146699563027,-0.0053812422748982375,-0.08494533090730927,0.08018642530501252,0.009771944302945267,-0.010934328090951653,-0.004047638442079623,0.04171050061633614
0.536,0.004203079206670843,0.002894388497142983,-0.0012696269656745276,-0.0029504167932045944,0.0020616909914009172,-0.000727626905355866,-0.07771551964727288,0.09119606777066153,0.019367722071321796,-0.0018969575694564205,-0.0008345147823772327,0.04457480163262444
0.538,0.01318919844685153,0.010096911314725121,-0.0031048554521462047,-0.011836378847537715,0.006568778956777293,0.0025607004131586748,-0.07786730578235238,0.10060323730187623,0.025118478069887096,0.005777170288092303,0.0005721105714074328,0.043343043653793364
0.54,0.017939612562709175,0.014321475707502451,-0.003645325346853785,-0.01625131279614939,0.008788507410969077,0.004419109279709806,-0.08139144001180167,0.10592133909184318,0.02768476693534019,0.010127283421556436,0.00017551244042004726,0.04106862755777321
0.542,0.01878548388618649,0.0167333825399676,-0.0020582334450826656,-0.017046029575403937,0.008339728736685,0.0061425432460658486,-0.08254943619940153,0.10819291024827342,0.02891904790930142,0.010978061305354649,0.0009798104400511871,0.04236563384210289
0.544,0.018345953152676415,0.018784881632499986,0.00045081808645388655,-0.017322126049476066,0.006997689635203745,0.008353077061182247,-0.08066458353553838,0.11171957663839308,0.029994401224833767,0.010185254985394385,0.005121555024577287,0.047423884892817694
0.546,0.016045180341234158,0.019052695882727004,0.003016535096992951,-0.016762824147116887,0.00497220893081877,0.009915876840670579,-0.07982052782168346,0.11817410547465897,0.031299561790909695,0.009834049494811748,0.01033981439039622,0.05120315880238464
0.548,0.010815213350293295,0.015229337446147045,0.0044119442431699695,-0.013116751084082985,0.0021588494155550223,0.008812043362547749,-0.08186905663309224,0.1250022268135725,0.03354987472024602,0.01117892066392649,0.013025417711095279,0.049753781226176144
0.55,0.0051472654007871654,0.009118657784338367,0.003965429888834251,-0.007591918632613787,-7.161033109096947e-05,0.005679200627995939,-0.08334375798755682,0.13032213902934556,0.03809424602335954,0.014029966745937553,0.012754314911453669,0.04511334266100961
0.552,0.0019822336939599623,0.005100079828954846,0.0031161879876564352,-0.0037278269569406787,-0.0009358634126137731,0.003605985128300293,-0.08116255069468925,0.13542964317891726,0.04483791312906626,0.01614968473802979,0.011436573197626157,0.04121946674888437
0.554,0.001516574392854289,0.004400831928289644,0.0028867193624299375,-0.002750714877888341,-0.001040708330792798,0.003380619998815103,-0.07756369129590832,0.14141023280005,0.05117223591611328,0.015572726004050538,0.010357861087580807,0.03801685027602724
0.556,0.0033832169402639644,0.005802167455199556,0.00242103126461788,-0.004034837515901336,-0.000545091008997018,0.003558985706462771,-0.07669373894739985,0.14676970954247254,0.05565752635263728,0.014414562448813997,0.010014356105556819,0.033992555394402484
0.558,0.008183586638975749,0.009251179216574153,0.0010453033484296402,-0.007525814818005505,0.001463478164269085,0.004147219623823192,-0.07901590480312079,0.1505373392119039,0.060860673439174395,0.017643390337232334,0.011462402562853264,0.031153998451750875
0.56,0.01517484036069965,0.014244772408719356,-0.0010626862217760055,-0.012666674275037499,0.0056231133093186635,0.005538813339782175,-0.08145862712212493,0.15519913263503687,0.06929200687950389,0.02734027724502001,0.01613163054335935,0.03306486377066487
0.562,0.020210230941763926,0.01758683010517161,-0.0029512512523831615,-0.0165391039781278,0.01004333246327607,0.006407748069261466,-0.08164344658998092,0.16362017952406063,0.07868337507128498,0.03975351110878157,0.023572741657933997,0.040199093603005595
0.564,0.018359735256817642,0.0161984480683105,-0.0025833876365323064,-0.015446311378668582,0.010409387658071208,0.005784536280660677,-0.07996127341951542,0.17453584829107494,0.0850168892560824,0.04840862529927934,0.03056306660376804,0.048960549712060875
0.566,0.00998176392811834,0.011272597840036381,0.001035769746421485,-0.009358839536053685,0.004892999266260691,0.004908226615757523,-0.07803173489324748,0.18401806332991008,0.08865879628118299,0.05017521645415816,0.034147096664819215,0.05384822320717547
0.568,0.002206195896566924,0.00819504117294264,0.006036410498548111,-0.0038531233796552443,-0.0023733694522123224,0.006046019417127933,-0.07649773362998961,0.19130071283746927,0.09387524639460207,0.04831650661901439,0.03464732724575612,0.05198560970236311
0.57,0.0015295954395852657,0.011214205377468098,0.009961439409705597,-0.004768384203142558,-0.005780440649968395,0.010221863491670258,-0.07457690147535566,0.2003645402451817,0.10299985393445316,0.049031919748522626,0.03467306012455973,0.047016689805249486
0.572,0.005899488299194444,0.01766894928778925,0.012159986747665876,-0.010380886751959487,-0.004951250038914425,0.015272547353138584,-0.07186656220489569,0.21396273436136712,0.11386241407385135,0.0551368881689396,0.03621909860416289,0.04547786714082301
0.574,0.007673522576990457,0.020629121086804293,0.01333217612165869,-0.01311813713294896,-0.004212995955018235,0.0174584058843589,-0.06957249287626895,0.22895165714739696,0.12326323270978598,0.0641361664751129,0.039346147478810455,0.04873330595596707
0.576,0.004358116439917363,0.019151801977863366,0.014992916248236118,-0.010588385801992665,-0.006399576502484978,0.016938482088634223,-0.06880972602613748,0.2408463028851529,0.13105524582441533,0.07249740166328306,0.04322006257257805,0.05287886729380326
0.578,0.002005034373659141,0.020425347192208735,0.01839247414338426,-0.009387384312564867,-0.009533341061645299,0.01843022317664889,-0.0692219257567769,0.2500423410367765,0.1390719744464445,0.07969319302879659,0.047641557602052305,0.055682763257141284
0.58,0.007056335806587558,0.029085888515103596,0.02191330082430768,-0.015718880571024513,-0.009349757734116395,0.02413714400490112,-0.06998362042379716,0.2597996318481283,0.14750473516813098,0.08712950285997287,0.052991876250782666,0.05841396914550648
0.582,0.017964193350056307,0.040268982853869977,0.022278804853835044,-0.026954718102179028,-0.00451152484278487,0.030004874081934807,-0.07048190282017565,0.27100016377548336,0.15535998514636398,0.09567155469852888,0.05907345356252922,0.06212002459216165
0.584,0.026124331305358878,0.045496140763863824,0.019562394351909696,-0.034450234716329915,0.0008727288275505026,0.031085033298766787,-0.06970335897913973,0.28259065012940554,0.1634336472874208,0.1055997286798294,0.06500767043944562,0.06607470645589748
0.586,0.02538885505759435,0.0419565044638065,0.01709220059066026,-0.03289648218612764,0.001860921344400137,0.027480995946693655,-0.06627750241940106,0.29519956089593086,0.17409191138016736,0.11701943510039242,0.0703909519456874,0.0693463978038181
0.588,0.01933450056699927,0.034666350677246265,0.01623610290309235,-0.025802897962990873,-0.0007049595842868443,0.023342630138447173,-0.06059134346867787,0.31104709577972933,0.18855053680145364,0.12894625868534587,0.0752092985091901,0.0720506652312668
0.59,0.015972596107002846,0.030049020084241304,0.015211914370059199,-0.020860029776415365,-0.001773479656784293,0.021507129351824795,-0.05611242075644391,0.33045074019702736,0.20539923309263317,0.13897530119501358,0.07869502756498736,0.07432128618989992
0.592,0.01748764830839266,0.028823661139658965,0.012413607780124162,-0.020932612734611805,0.0008265950562787927,0.020527112357476538,-0.05589554533729866,0.3503513630356395,0.22176004267283528,0.1453638972054927,0.0803520318442095,0.07479120228954095
0.594,0.020088986507352576,0.027203629351994073,0.00782455934784287,-0.022544407245716797,0.005034012812734361,0.01720104954805361,-0.05846016166133633,0.367718932457185,0.2360133249212839,0.14951086788519438,0.08189472460734577,0.07234256572463767
0.596,0.02142015035805624,0.02361526048216472,0.0022989839910424288,-0.022396653108488054,0.008834800829773927,0.01129752645640411,-0.059622601346250505,0.38403154214167656,0.2495681774881164,0.15540630109474937,0.08616124893405712,0.06931785139430323
0.598,0.022844517154820367,0.020715434491637857,-0.002615245953241678,-0.02148618934858792,0.012077974861275062,0.006326490538620845,-0.0575235084665089,0.403579229972912,0.2653703190956141,0.1663433098605194,0.0943256025308102,0.07032720242799845
0.6,0.026492839469433174,0.02135948223646569,-0.005853417464435635,-0.022849674485981207,0.015529409566795827,0.005322578867149617,-0.05408101566415524,0.42667713455148554,0.28366292985035935,0.18201504112730554,0.10535787069736398,0.07733153840553085
0.602,0.033528079546474875,0.02548477697920208,-0.008547329310619148,-0.028025608820295055,0.020312204376025433,0.007471670189881845,-0.051688142497618016,0.44859813393576464,0.30099514489168894,0.19865508673120427,0.11745183160646674,0.08773421319852043
0.604,0.042823704455453436,0.030354633817254905,-0.012565552078129885,-0.03529806820637923,0.026600366928389695,0.009374783745426472,-0.05012604896282099,0.46645093233285606,0.3153074427694555,0.21240121863398,0.1284523707424773,0.09723689839006924
0.606,0.050237296816693436,0.032565905817797176,-0.017520536340219717,-0.04059455964102478,0.032445244751307695,0.008597126975382766,-0.04796871566057785,0.4828583540104453,0.3285033420132062,0.22230313921427988,0.13572142509021357,0.10319792288352986
0.608,0.052134528617074384,0.031140764805166213,-0.02087132980696138,-0.04131492463351788,0.03531457646196722,0.005876176216597062,-0.0451533482222028,0.5012537773612156,0.3423910259912563,0.23017472447413004,0.1381224495090359,0.10625041372801666
0.61,0.049305556984723595,0.028464772880176896,-0.020856413593830565,-0.038677684657600374,0.034496143439330475,0.0037793582516130113,-0.042348744895445496,0.520693185098576,0.3563354666541405,0.2383976610461653,0.13806278907167016,0.10898679634377635
0.612,0.04570309126618039,0.02691718725854974,-0.018835264968434632,-0.035686534538336215,0.031740598882919295,0.0031074160543571403,-0.0398850687845244,0.5376138986778907,0.36955569723654796,0.24765976482969215,0.1396912334062196,0.11171972516642832
0.614,0.04492206894096126,0.026159769627127676,-0.01863463054483733,-0.03453051554947099,0.030352194591858797,0.0018984735556450234,-0.03822631369290701,0.5517874869915631,0.3827154706739871,0.256665440830979,0.14532711674652454,0.1119326652112974
0.616,0.048283302674403325,0.025082743017756138,-0.02271554958383602,-0.0359232426250197,0.03296317874038543,-0.0013487267935978228,-0.03742835406260617,0.5674089418117771,0.39717740544588914,0.2644174525157752,0.15424216406922153,0.10971756382545446
0.618,0.05459076486780496,0.02455233186509572,-0.02926203252823079,-0.039322118836795684,0.0392375632152249,-0.005073585361464556,-0.03637900482578103,0.5868553530536976,0.4134050159789899,0.27229136865570913,0.16421217624986212,0.10975914849638052
0.62,0.06165800783447486,0.0263539025812485,-0.034627693917682015,-0.04380373313551984,0.04647728043255142,-0.006655691974713243,-0.034187784647614065,0.6063332502813875,0.42972327728378595,0.2828094813926977,0.1735805846642193,0.11560602074590551
0.622,0.06735618151168565,0.02952484489192555,-0.03761667212373075,-0.047955851658666095,0.05203316670337464,-0.006153677828532765,-0.0316922960198236,0.6204305881836872,0.4433553059238795,0.2960502481824552,0.18164274817491338,0.12508520688092992
0.624,0.06888873779729426,0.02937498800376767,-0.03971346834296884,-0.04849886382688865,0.054330561811548064,-0.006855537917931502,-0.03037375566482231,0.6294942839629657,0.45336291237865783,0.3089021098460713,0.18843372438752146,0.13349364197571575
0.626,0.06524940363359549,0.022933058555355757,-0.04267333019165696,-0.04328817861867347,0.053729536263373325,-0.011560690186636118,-0.03010767546191747,0.6393408596987564,0.46161049257323755,0.31885760410281966,0.1950411788998315,0.13903307753446398
0.628,0.06121915358043816,0.014678924560517854,-0.0470320240668073,-0.03668517101728914,0.05332166641886262,-0.018476358081442386,-0.029190497122153145,0.6530409999967565,0.4702086298171661,0.3264391301015363,0.20214819493488584,0.14326465937568003
0.63,0.06269536166601425,0.011880795875972324,-0.051615331019786784,-0.03549098528422233,0.05583120081442174,-0.02269869651008751,-0.026753427284900003,0.6664329397476295,0.478778210939338,0.33285039817780443,0.20805962968340713,0.1479203731907912
0.632,0.06790081591888295,0.014966840686371104,-0.054037487570340416,-0.0394857669212217,0.059373074571397476,-0.022077841313711353,-0.02416399755435611,0.6742661760736127,0.48513514238343114,0.33772986572825037,0.21102390584140682,0.1526609434159958
0.634,0.07010595397590966,0.018565091865505153,-0.052681058164128595,-0.04294821809263987,0.05991537722751826,-0.018743065098920778,-0.0238656713595698,0.6774119028167781,0.48851105052837784,0.34089411203193476,0.21301811024478232,0.15588637196125324
0.636,0.06840616928492069,0.020733991765177904,-0.04855014883276778,-0.044197320597461696,0.05763564257103883,-0.014893133862471765,-0.027554479769082426,0.6799360284860274,0.4905080915012755,0.3439682841141025,0.2176137250785966,0.15735246097543598
0.638,0.06956676696331085,0.024836132741299068,-0.04517924871259795,-0.047278011775608815,0.05739411898863646,-0.010973468326687955,-0.03512774493465255,0.6820389667344489,0.4925436299720907,0.34846469513222783,0.22504625148179155,0.15899218575711527
0.64,0.07877676005865922,0.032498547102164196,-0.04632374106738831,-0.054803988183764696,0.06295005336625102,-0.008152964806137942,-0.04429848220826768,0.6811391440241095,0.4945053264469607,0.35438339784099054,0.23300912839495505,0.1633304249198217
0.642,0.0924600147617421,0.04025611861909929,-0.05208064328658122,-0.06385971073250386,0.07236580271687874,-0.008067282500630437,-0.051776538357284206,0.6776019549432285,0.4962401972964745,0.3610933393733064,0.2405575092442628,0.17142524499299341
0.644,0.10235254052144813,0.045200828885613095,-0.05720613678982515,-0.07038319881570108,0.07947050018630229,-0.008947437772043888,-0.0556883466045712,0.6747924027004437,0.49828715355939024,0.3678696333216879,0.24830603968230225,0.1816070537873805
0.646,0.10470770295808854,0.04921564253343724,-0.05599435996042198,-0.07416946287588048,0.07986601205511915,-0.0064583073378090125,-0.05631947745024452,0.6749157766105138,0.5009238677873541,0.37452861079539357,0.256596222328537,0.19097095559455687
0.648,0.1027673247830902,0.05447493880798435,-0.04923517534867236,-0.07709624135721808,0.07525733107288428,1.5790651162984735e-05,-0.0551965760866956,0.677079009148482,0.5037587678609151,0.3816317204721787,0.2647089532292917,0.19875959673461865
0.65,0.10160279276460304,0.0597337487675618,-0.04289256619454576,-0.07975617953551516,0.07099496631855416,0.006505185721178297,-0.05425888472405575,0.6788267250033639,0.5063376297630563,0.38902099572668924,0.2709323512543795,0.20671634379892426
0.652,0.10318693359901412,0.06417342199390587,-0.039641541339606796,-0.0825385361440477,0.06965540816566453,0.011033754449125095,-0.054321709592205406,0.6787622767482212,0.5084863000652692,0.3956674389306331,0.27477172115249365,0.21591098654828675
0.654,0.10684671188366757,0.07053097737494067,-0.03635651808321302,-0.08742217683826004,0.06964489084767601,0.016327284397265784,-0.05448581016209424,0.6768218379625631,0.5097948319059791,0.40104985849689584,0.2792698937471093,0.22544806932591502
0.656,0.11265150373695056,0.08164288463738707,-0.030623797827479475,-0.09619323199225557,0.06991873473706207,0.024872258117925494,-0.05470700614089179,0.672117852308493,0.509154110193131,0.40507055482861104,0.2872633751993353,0.2344575894705081
0.658,0.12101158577279289,0.09568609180008991,-0.02471699236202792,-0.10736409047319213,0.07163893958651034,0.034722818196593924,-0.056723937388627,0.6628372239381489,0.5054105273861755,0.4075916312388902,0.2959201646432766,0.24272654838295823
0.66,0.12898928431159898,0.10655981866126064,-0.021723330439349167,-0.11615384093830662,0.07459013129311039,0.04145191253570543,-0.060955073151969213,0.6486653619592032,0.49803427928761,0.4079351110929071,0.2998018375590602,0.24888936093607142
0.662,0.13143976394041768,0.10940646501029747,-0.021454882600627487,-0.11832691421611019,0.07602437512598867,0.042767096613679285,-0.06553151713097857,0.6308600023722385,0.4862765288701751,0.4032283187343191,0.2973888914589787,0.2506399671373963
0.664,0.12728504315818617,0.10564268134795865,-0.021436604169852415,-0.11442653792932465,0.07410062709318434,0.04053511489427181,-0.06884885057195544,0.6105616887087588,0.4689082215455021,0.39006795483539985,0.29077602790089596,0.24778630259562123
0.666,0.12115830587365226,0.10129087461870741,-0.020018472381499456,-0.10942569024979436,0.07002721430780719,0.038656145896383665,-0.07041206156198575,0.5893848629260674,0.4467627825565002,0.36997610369842443,0.28210360374521204,0.2430778312253275
0.668,0.11690828193080846,0.09973023597229948,-0.01750705315142339,-0.10674913600349396,0.065828797700347,0.03906881036209856,-0.06960346501138583,0.569516720870834,0.4238527454295627,0.34901247093548377,0.2722599366284679,0.23877885227091117
0.67,0.11275280532964635,0.09893944497607657,-0.014296392058848322,-0.10448028136498047,0.06149849113017206,0.04070159763764186,-0.06591103626830101,0.5506307577658828,0.4030103114310959,0.3303332765817888,0.26031663389535625,0.23397338819407507
0.672,0.10554433585515356,0.09656238898414518,-0.009650992720241646,-0.0997571917220702,0.055808044147097315,0.0421037170134971,-0.060056037267292986,0.5293603152194531,0.38247172702541504,0.3119495805720271,0.24498305171671103,0.22678698356308805
0.674,0.09676368888159556,0.0932929607038107,-0.0040966563675214115,-0.09371926517657432,0.049387797908747186,0.04278683142198552,-0.053046089810884434,0.5044815036579491,0.35962355486301023,0.2925412731431963,0.2287190448177897,0.2179506574757958
0.676,0.09085825684940836,0.09058181562819376,-0.00052502195326284,-0.08945242296892976,0.044959775419429276,0.04243887298095941,-0.04514659133469532,0.47960271913355396,0.33514350238497476,0.27383404585540794,0.21690007452645046,0.20998399567799098
0.678,0.08880618361331942,0.08805236235392995,-0.0006196343690344652,-0.08722183674205186,0.043658553343216944,0.040808346469363606,-0.03774350768910716,0.4573977842894028,0.3108764923663428,0.2562489763310266,0.21046209855324036,0.2034026379107221
0.68,0.08651857885528641,0.08368210624142654,-0.002635073093053263,-0.08394529305070478,0.043146474817490704,0.03791188866147181,-0.03362956084459229,0.4345593655060329,0.2870231193681837,0.2373236109916394,0.20402576437239764,0.19643429400385717
0.682,0.0806199632433209,0.07643340966833563,-0.004152783378409204,-0.07760227840036597,0.04098304669081647,0.03414758180244561,-0.03302067968369276,0.40695835827425136,0.2635918892640325,0.2158463498733461,0.19347519372631153,0.18899604656017632
0.684,0.07241250425628795,0.06778822941026509,-0.004714705983691265,-0.06969979040683,0.03751206980848426,0.030284220144231527,-0.03230372578722872,0.37664695734849557,0.2414645912292089,0.1940524556644224,0.18042159882719197,0.18318605728035023
0.686,0.06408211100621258,0.05907722354797931,-0.005066783220453015,-0.061649189800602126,0.03370439192197688,0.026349540307951797,-0.02826323339833782,0.3490773721575229,0.22059201029909511,0.17456494478254045,0.16816342985144503,0.17870553982203505
0.688,0.054908028767068136,0.0493298202657446,-0.005558959246625937,-0.05206093129012838,0.02891917554006734,0.021354448883813073,-0.021389196000799648,0.32583336994571704,0.19956408040073967,0.15694371282852168,0.1573561109291974,0.1725100010794807
0.69,0.04343210103020502,0.038055942318105114,-0.005333339010809189,-0.039950820958303684,0.022308355881165948,0.015537602550941608,-0.014894571300382008,0.30391974783339737,0.17773238861983495,0.13818396674180464,0.14583839395447723,0.16326092191061053
0.692,0.03135835179946699,0.028381175758935267,-0.002967211372022453,-0.028382921998194578,0.014957062053923357,0.011453196967956157,-0.010958848277460655,0.2810257988860733,0.15648217418386448,0.11683399010640681,0.1317377949996225,0.15212305375722712
0.694,0.02386790352907316,0.024957877312149945,0.0010713913591683956,-0.02280809449495823,0.009944517398736051,0.01135999715517628,-0.00803161339375677,0.25845677580735393,0.13749981564877353,0.09568637095524078,0.11646930372436735,0.14095470950972272
0.696,0.024627887092046986,0.0285138703028172,0.003871676081380368,-0.025205930282390158,0.009572953992686081,0.014496622106313386,-0.003350096009299995,0.23786288515699122,0.11979692637934622,0.07854802387151781,0.10257739925231991,0.1319379770335896
0.698,0.03062690469588073,0.033766227463025274,0.0031426287993676716,-0.030775718266318,0.012587260248244766,0.01745819095509282,0.002798425586229807,0.2174335059623462,0.10014206034383454,0.06536297973781921,0.09036438899042736,0.12641651082537525
0.7,0.034226398033422166,0.03345892152466762,-0.0007580908553017284,-0.03182731765849418,0.015383475178564867,0.016467531969929172,0.008223530496419046,0.19461465672322104,0.07768156819549774,0.05278537175241067,0.0795215648334924,0.1236360885696611
0.702,0.03017877660284316,0.02409197380441754,-0.006084124176961363,-0.024467270281727002,0.01542433445395405,0.009724670314250738,0.012860627119561442,0.17098441933743858,0.05603240568825187,0.03851952199029396,0.07032085565644614,0.12182167135051283
0.704,0.019349192042067722,0.008003271263288264,-0.011371702859156615,-0.01088333309356459,0.012684265497506161,-0.0012811505260187954,0.018071408012875403,0.150265114566427,0.038579851597109346,0.023192329510047675,0.06103063432896502,0.11898376101143364
0.706,0.0066610922657025,-0.008845863043223174,-0.01564156817160835,0.0034178079424131355,0.008711118765973882,-0.012619999430675476,0.02333639541347424,0.13294315537582121,0.023817093957289422,0.008764575509618042,0.04896328014153522,0.11300453412283414
0.708,-0.0025440850225073005,-0.020304167502850502,-0.01808697948139023,0.0130798999932704,0.005448421613730357,-0.020143428213390366,0.026901318106977597,0.11696545208961655,0.008462492762421883,-0.0034313283687314898,0.035318185328808566,0.10404742029718851
0.71,-0.0053648282638785036,-0.02352328248707632,-0.01860095039644125,0.015614330280824535,0.004522669049331583,-0.02198051525722846,0.027942450625971425,0.10236373890320156,-0.006620561977782655,-0.013422613935458176,0.024595883393011577,0.09573062693977384
0.712,-0.003801169637248066,-0.021899065350180054,-0.018484058498165618,0.013787626446158087,0.005996675047174752,-0.020574879857413214,0.02636750018377384,0.09133357399401634,-0.0174256901894564,-0.02211300262384965,0.018978677738457243,0.09084304141992432
0.714,-0.002988159422424866,-0.0220709645833079,-0.019407277059585688,0.013461293080316437,0.007939629295136518,-0.020794578023405896,0.02318254770752264,0.08417085996234393,-0.02269819260142648,-0.029930917473186693,0.016559807744631748,0.08835864384304165
0.716,-0.005016271242042145,-0.025671192293952278,-0.02106379972934083,0.016520655919420677,0.008269185078296729,-0.023960734612138875,0.02175305631635091,0.07780502842483142,-0.025716426428648787,-0.03644525980025701,0.014471676460452916,0.08674011696355541
0.718,-0.007650547292296083,-0.027756075783901824,-0.02062520350002222,0.019083954057123393,0.006240431643826122,-0.025765129411354105,0.025065791211428136,0.06855928239324786,-0.03094365249453932,-0.041978867162661644,0.011136682493740382,0.08628066169833275
0.72,-0.009588647922346276,-0.024810402634008945,-0.015664371783458194,0.018406712605740623,0.002083543449160554,-0.022176519380007743,0.03047734771799044,0.054750202564583385,-0.04069868675022707,-0.04851977386747261,0.005833229693612267,0.0866745371162947
0.722,-0.012312315149829594,-0.01969538891064974,-0.007549061442358873,0.016879642012709004,-0.003289945962201102,-0.015104524359693377,0.03127042393003028,0.03684194604702823,-0.054258799975694695,-0.05768395824324565,-0.0017918691223135432,0.08600888699591318
0.724,-0.016195415160781733,-0.01694402514785772,-0.0006620411371928269,0.017229583331790872,-0.008187120993275347,-0.009784764798344808,0.025310661795126876,0.017303384728803297,-0.0690561307674443,-0.06820813614849218,-0.011015984404782995,0.08307898712646769
0.726,-0.019252031132244128,-0.017336506582226484,0.002044625666556244,0.01874683903801923,-0.011130832980182524,-0.0085842870066517,0.017739699442660847,-0.0001426721920892932,-0.08308668281608547,-0.07723330223978046,-0.019975456618998105,0.07839259214410475
0.728,-0.020796783798584018,-0.0192161509732562,0.0015808139948257013,0.020402484953118933,-0.012434847624258389,-0.009830213657776856,0.013522243173845625,-0.013336874103329906,-0.09603881649246288,-0.08410618828857198,-0.02726068347838778,0.07346996115341108
0.73,-0.02262382618064146,-0.021496729620885766,0.000960704399994097,0.02293784920844559,-0.013818065278625096,-0.011027045008448077,0.01190873548416576,-0.022718190485259637,-0.10744278638596305,-0.09056336467064777,-0.032987345263151995,0.07017723158944254
0.732,-0.026003322350257253,-0.023081114530585322,0.0027087086434497438,0.02610892828047963,-0.016539094630407546,-0.010492374722953973,0.009210575721733687,-0.029587101826451,-0.11580858069441118,-0.09758928768513811,-0.03800643623787332,0.06847913521575408
0.734,-0.029939002683539898,-0.022305015429340182,0.007703993434445522,0.027787847512164957,-0.020430487404281505,-0.0073803537998552915,0.002792689079922951,-0.035863102395294215,-0.12147145720918331,-0.10449206398260669,-0.042785988965087764,0.06541740141796283
0.736,-0.03173065416307053,-0.019335625097143802,0.013069803277103413,0.02681553811793336,-0.023244193915482426,-0.003499597841557037,-0.00860272283412075,-0.043613796237179495,-0.12729394107138078,-0.11001349988065759,-0.04696330986643801,0.05976621417532186
0.738,-0.029181650415564874,-0.016887215846178586,0.013463392183708685,0.024328812310548325,-0.02182281399754162,-0.002929336831570419,-0.02500052487698249,-0.052361435938697555,-0.13465072293074787,-0.11310942586415713,-0.04945485514719441,0.05549582298214175
0.74,-0.023326338935860596,-0.01627993624268627,0.008160414432527715,0.021724095353575223,-0.0162440371172409,-0.006333659936686845,-0.04399580444735241,-0.059368092022843155,-0.14147706141342495,-0.1139262475278456,-0.049304626972875895,0.05720827692417384
0.742,-0.017589621717362176,-0.015377354949445256,0.0027730925265209896,0.018968458562586825,-0.010622535414069715,-0.009193638237158285,-0.06165219678337277,-0.06330852416849504,-0.145144522523183,-0.1139290442225988,-0.04710148141419359,0.06448311603057967
0.744,-0.014305656963875833,-0.013028730571305304,0.0012536927671853327,0.01598152943727915,-0.008184471088436049,-0.008652976421134488,-0.07598155613137868,-0.06504076892207077,-0.14557589362057072,-0.11434492595801665,-0.04551936037050613,0.07221829774530687
0.746,-0.013381503938091146,-0.012233901236161136,0.0008866104859067261,0.014191314377570636,-0.00786490633820195,-0.007767005785678339,-0.08743597661670452,-0.06539034115056316,-0.14552123317497503,-0.11544378993637218,-0.047134405569317764,0.07525412434078718
0.748,-0.013877312785517364,-0.01564505544482108,-0.002005969474541765,0.015235139816455332,-0.007259601885141554,-0.01000553806516259,-0.0953448025525811,-0.06497765072935437,-0.14796027570616685,-0.1172733518255234,-0.05163208409159361,0.07293368467231413
0.75,-0.015336701111167635,-0.020282660909265858,-0.005204692127188628,0.018336695493650794,-0.006923591312557208,-0.013134043072875232,-0.09719620711936411,-0.06508922638635614,-0.15290731355263817,-0.11982097695801613,-0.05686535733900438,0.06859554895801491
0.752,-0.01612552200987759,-0.020048013375228123,-0.004256762488930689,0.01943705639407144,-0.008143812581824847,-0.012360584388122762,-0.09292381942600149,-0.06593897656938125,-0.15744105641216807,-0.1226830221278275,-0.061510301646168414,0.06423335963194651
0.754,-0.012667298330197118,-0.0132796633706591,-0.0008627519005686858,0.014668833303454462,-0.008131173357861905,-0.00775388363331274,-0.08655118704343306,-0.06539182367630994,-0.15859236379345665,-0.12514723146907072,-0.06439588333895548,0.059151635803126185
0.756,-0.004053534921922463,-0.004820187514576142,-0.0007861954094824015,0.005551239883313297,-0.003463635394688313,-0.003930629843919977,-0.08154572656667854,-0.061814432950975946,-0.15552508972934095,-0.1263492526965048,-0.0634878784826422,0.054726955535005076
0.758,0.00420885838713109,-0.00022671495015045442,-0.004314059723813309,-0.0014174291788151114,0.002815086072895577,-0.003370131489041796,-0.07787106572361403,-0.05724683171284012,-0.15052654503720742,-0.12619643555800547,-0.0586112922831408,0.05430618302289304
0.76,0.005259155130164948,-0.0011828328322258672,-0.006365719751535316,-0.0012245945231755576,0.004381106260657707,-0.004882521004347299,-0.07540340436087016,-0.055618342938992545,-0.14792677488135642,-0.12630576284465528,-0.053263723378950516,0.05658549642931582
0.762,-0.0005727871710604394,-0.0057251204982102025,-0.005179001882745025,0.004526819598290671,0.0009396130528998264,-0.006932087954633766,-0.07571570547266585,-0.05761088571571863,-0.14940979821997083,-0.12733351165687923,-0.050829983773546215,0.056511623160721905
0.764,-0.0063847125689371845,-0.009565749735438061,-0.0032352883130208694,0.009589867198510689,-0.00250813105782359,-0.007964400519593642,-0.07825935940248722,-0.05945778773116471,-0.15151840549011467,-0.12620993489040716,-0.05068234401137994,0.053811056057969826
0.766,-0.00750577396552613,-0.008723978972835028,-0.0012299501934234466,0.009724075810918291,-0.0038008153754163125,-0.006053386782944106,-0.07920207616351166,-0.05752995969045713,-0.15013272561247426,-0.1204450043683417,-0.050275789889440564,0.05319660652987162
0.768,-0.004788552582672929,-0.0030088324519453816,0.0018035665767010222,0.005512064608954977,-0.004246935429206714,-0.0014788670681508242,-0.07592314384522135,-0.051528046953904755,-0.1449965331534079,-0.113060825301167,-0.049069727767640306,0.05660187251209071
0.77,-0.0011787298978335455,0.0038845512640781924,0.005081079049379923,2.7072676981831407e-05,-0.00446917718196261,0.003063709364776535,-0.06995205865344499,-0.043489663775202275,-0.13861474654431577,-0.10887749682122626,-0.048540254724449734,0.06053333452317706
0.772,-0.000537639147956303,0.007567254895423052,0.008100400460136553,-0.0025993431576925535,-0.005483681176905967,0.005889300667076075,-0.06537219796453582,-0.0367567704391275,-0.1335038784852586,-0.1087588129547946,-0.050209738775288094,0.059726788656968496
0.774,-0.006393174010349696,0.006115257088329672,0.01249657880921093,0.0010921655407556826,-0.009866641880954149,0.007438446223409365,-0.06544119851861982,-0.03433131036378688,-0.1307042735472976,-0.11027167656762112,-0.054383209577312,0.05184964020549743
0.776,-0.01686292214372811,0.001709560854840502,0.01854733426694697,0.009257845346770537,-0.01750442836752068,0.0086878951202122,-0.0691344108976929,-0.03516048167725523,-0.12859931545542064,-0.1109078853121811,-0.058988497722520884,0.040719575418069184
0.778,-0.024342059781868524,-0.0010450319464548204,0.023170646384006725,0.014901751772285417,-0.02367906471594951,0.010145595971980725,-0.07145390927434948,-0.03426053502982099,-0.12386976563721602,-0.10930048436983643,-0.0607006530052009,0.03377379280650089
0.78,-0.023589020559316408,7.734634758798762e-05,0.02334305572258529,0.01383801988120952,-0.02412754537035539,0.011249205287602348,-0.0695142744528985,-0.02890842681300707,-0.11554027828089015,-0.10600220780038937,-0.059104327660375586,0.03409161016496783
0.782,-0.01695388451403717,0.003024721184157292,0.019555269868350607,0.008911521462205299,-0.019583373266838715,0.010820595875455651,-0.06583431767711957,-0.021844170149478124,-0.10644286258036975,-0.1032092503613582,-0.05748341028980489,0.0375159091846763
0.784,-0.010001265431045325,0.005561338412994559,0.015304472472125779,0.00443307824804179,-0.014083043871429453,0.009436180265844984,-0.0636183110781398,-0.016556986519489888,-0.09924876577585212,-0.10167821295074986,-0.05822979846889859,0.039264835141354856
0.786,-0.005097532695561098,0.008820567263750955,0.013964874306469602,0.00047097723270351073,-0.010555471329274325,0.009974577006938991,-0.062407439302622894,-0.012209641643393615,-0.09303813748671846,-0.09872955600963801,-0.05956915786825795,0.03973926902550095
0.788,-0.0009112527594751273,0.014625397492440063,0.0158147758037549,-0.005071444243420038,-0.00896694970794867,0.014104482824459696,-0.059888700673214244,-0.0048971200195272605,-0.08470054908000187,-0.09099003307298109,-0.05775791347879975,0.04212634528520921
0.79,0.0034667292122749866,0.021434182299375274,0.01835902952179058,-0.011488688778580154,-0.008125193144146087,0.019675781049183994,-0.0561206874612484,0.006719998214584774,-0.07334369358788984,-0.07933554652003554,-0.05237704096320739,0.0465089572431639
0.792,0.006545575381512495,0.026242914487469942,0.020073711276307363,-0.015806370948823166,-0.008040123489215767,0.023584762170764086,-0.054707601289476895,0.01855734401022855,-0.06266903176886168,-0.06980333982461175,-0.04758784111917906,0.048859150060287175
0.794,0.006905127672953538,0.029001798786613485,0.022295230315711612,-0.01720808593858432,-0.00969917515230026,0.025724909512199044,-0.05835908422829202,0.025916502498741577,-0.0565401388930039,-0.06710648778589758,-0.0459743755889176,0.04713788373813238
0.796,0.004664818856021134,0.03123128074782914,0.02653841458184306,-0.016950502651711965,-0.01331262475901096,0.027700933567845885,-0.06389884258060294,0.02953283194181669,-0.05308756155373015,-0.06843296813815881,-0.044662985354396625,0.044696079087339434
0.798,0.00011479502687842185,0.03206126263664906,0.0318085429071967,-0.014922791196495418,-0.017801311602544768,0.02948851264769774,-0.06507542381222985,0.033572004457137844,-0.04743309476498591,-0.06745656506521422,-0.040597983600315246,0.044084978378099555
0.8,-0.006399594398459699,0.029626581166236288,0.035847176824856254,-0.010347706801533043,-0.021978888063380206,0.029978041306762244,-0.060829492982063395,0.03963749867758209,-0.03878080517876979,-0.06269769959206957,-0.03519508023237973,0.042789917796332726
0.802,-0.0129879331651721,0.025163333016050626,0.03786114628460963,-0.005084682994959622,-0.025457606502227698,0.029398823374436462,-0.056450663392258675,0.04610068403219933,-0.030294156933634468,-0.05725110122076197,-0.030947797257038306,0.03897003041969713
0.804,-0.015956773483564373,0.023021104577484276,0.03859900340810678,-0.0032862439361350457,-0.02761619591550052,0.029285256637638868,-0.05485643894515384,0.05184048209750498,-0.02344209046104985,-0.05190494610319522,-0.027290578671907522,0.035715456245693424
0.806,-0.012856838625919225,0.02589450827833422,0.03849672610151025,-0.006849651450741634,-0.027050383414736395,0.03040829150635425,-0.052440449048837,0.05796376392762817,-0.016497807036282224,-0.043907662615395276,-0.02211407594946285,0.03653659751757157
0.808,-0.006150969523198772,0.03125435243864718,0.03740771981130929,-0.012648780486997694,-0.023785148392035303,0.03180616729798604,-0.046325135074753866,0.06619951282608517,-0.007914174348489325,-0.03216636331510374,-0.014771954250132495,0.04126065981427626
0.81,-0.000856435660685391,0.03434368793792512,0.035334302539159985,-0.016267047806903665,-0.020077404249409892,0.032006189385320453,-0.039645165295962216,0.0765005912588934,0.0014839553563407726,-0.01965371990647579,-0.00664059372392134,0.047449595090646626
0.812,0.0012579619208838155,0.033136938068326995,0.031971265496078316,-0.01657971193303761,-0.01742936778338383,0.030206906750325852,-0.03667730902332037,0.08602523881134329,0.009557672550085224,-0.010607498128492382,-0.0006490149508381121,0.05188686341535457
0.814,0.00215323888960405,0.028911443334495877,0.026875070713766786,-0.015078595204590364,-0.014974920446021714,0.02645923316332765,-0.037049230889348965,0.09154241224805837,0.015238401862345867,-0.006551883770149335,0.0009547261399739882,0.05203885680651831
0.816,0.00395678863639381,0.024381255619481845,0.02082754309222883,-0.01364965118009087,-0.011404677737922024,0.02193026552307963,-0.03728069782446317,0.09335944860621898,0.019567673854801727,-0.004806321018436782,-0.00014834391985649002,0.04930383628605684
0.818,0.007030756898095052,0.02183524012875114,0.015569333947932263,-0.013597134100087116,-0.006799181125220342,0.018441208077013792,-0.036234820207566826,0.09459845286479766,0.023653768623345103,-0.001837720633798924,-9.667917272491627e-05,0.047650222418159756
0.82,0.010009489764546835,0.02141905799370013,0.01224585609656364,-0.014582391246666111,-0.0027387992313712244,0.01685183643242186,-0.03647423053974497,0.09622586438564723,0.02631499482482077,0.0020642037590744063,0.0019511929367198994,0.04820984374554197
0.822,0.011230223512635952,0.02120699803057426,0.010550753929388677,-0.014783850991036164,-0.0008800160459965581,0.016145408376901097,-0.039717876682316265,0.09572180424031855,0.02554152634619072,0.0033433630254215475,0.003381729184431196,0.049238315362601696
0.824,0.010639146622543602,0.019230206508280487,0.008835547660682307,-0.013047530054020855,-0.0008246959002501639,0.014355211083936512,-0.04357152745942902,0.09123668628193173,0.02157208167533768,-0.000281824260665561,0.0018606190110481682,0.049263872246813556
0.826,0.009587687962679137,0.015278422167264051,0.005724984429114027,-0.010304222268003928,-0.0003863773358057614,0.010588661505271577,-0.04507936148090353,0.08463851484677311,0.01695258446949405,-0.007500424752078565,-0.0025619150501169853,0.04679183943514023
0.828,0.00875392330857772,0.010810085092356411,0.002011165403427895,-0.008162824615658761,0.0012975779503003669,0.005962159700502602,-0.045123984132458154,0.07972994013181317,0.014072403803128714,-0.015069581701894603,-0.007964738386144971,0.040698584433149027
0.83,0.0074191602366022995,0.007558275451184061,0.00010149782545463864,-0.006725906109899911,0.0023904433398881943,0.002575707617701661,-0.045817835424977256,0.07845385217392294,0.013130779347375068,-0.020397336793030598,-0.012447495890348546,0.03272575647474636
0.832,0.004943692270569169,0.006079856571006518,0.0011354382555296054,-0.00477569334990075,0.0010242036100359573,0.001712397088211875,-0.04610026815083992,0.07926217272816906,0.01244892958443752,-0.02249017412896307,-0.015539762109432469,0.02625939948987671
0.834,0.0019470339172225305,0.004725394698786304,0.0027958408183934927,-0.0015175360826213701,-0.001771050945723903,0.0021125218031617897,-0.044060105455066424,0.07953935812043306,0.010953139587176215,-0.022184835881653438,-0.017479514616197723,0.022808795208016652
0.836,-0.0005655429190387041,0.0009548681284485187,0.0015291956505814133,0.0026646676754018615,-0.003283890691373933,0.0006461385656775088,-0.04095795078244259,0.0790036059307148,0.00938946766145646,-0.02189012062463414,-0.01810904828303199,0.021651704699094505
0.838,-0.0030246455353151076,-0.005628519533200591,-0.0026307864856699565,0.007082558775750824,-0.003011842947549111,-0.0040497430509457534,-0.039262433114160646,0.0789337402709543,0.008346326124544697,-0.023646681663978007,-0.01737817236664056,0.021313717354150847
0.84,-0.006531174821543016,-0.013226882218146795,-0.006834067400481726,0.011711927187689064,-0.0026250808498211567,-0.010414962601704972,-0.0393622242613207,0.0786216182053493,0.006573386408838088,-0.027567827880767098,-0.016698587033947474,0.019977305801227325
0.842,-0.00946364328023166,-0.020122987990285834,-0.010987419149442299,0.016208448044826754,-0.0015914017533386062,-0.016793272821475583,-0.040581957860899805,0.07563035886684287,0.002764035198768408,-0.03227527138167148,-0.0189971234468064,0.0164619348878355
0.844,-0.008545801861097525,-0.025387614938375994,-0.01726090497209555,0.01905481741630942,0.0025831995644486606,-0.02280421315178722,-0.04234068720885245,0.07028018811861882,-0.0018125473555366508,-0.0355581796843285,-0.025652061279821677,0.011604097669109727
0.846,-0.004798373798738048,-0.029067377515014686,-0.0245225142216336,0.019790409886826493,0.008753887014041995,-0.028198915453442032,-0.04296816683221774,0.0662888736030467,-0.0045152524725433785,-0.035854040653451436,-0.03363612044684525,0.006699590088102305
0.848,-0.003867635926127997,-0.03261933698467036,-0.02872697482794605,0.020770845381920956,0.01189591407335579,-0.03243216221441779,-0.040669290814683,0.06468943831700788,-0.005433899994792623,-0.035338431852864144,-0.03904902329429491,0.0011061975853520682
0.85,-0.009118189430836594,-0.037728081393240645,-0.028443715233569505,0.02474408977725279,0.009497563016939638,-0.03531640390130911,-0.03625384602115916,0.06164230664861858,-0.007814191702176686,-0.03906124253255666,-0.04295212283514032,-0.0065051966854089704
0.852,-0.0176369831745458,-0.04427575129941988,-0.02644446437185783,0.03145240107015383,0.004470436497413247,-0.037388564840635276,-0.03244744828567237,0.055486747276516056,-0.01333169264143309,-0.04805810975910525,-0.049031259512975794,-0.015305509715774112
0.854,-0.023377519607813927,-0.04995599787539203,-0.026296446869115957,0.03748386340992574,0.0014404376193493929,-0.039370523151139536,-0.030852077948437976,0.049960480158479564,-0.019847153998245246,-0.05694180623452772,-0.056689352797435026,-0.02262280946062419
0.856,-0.022388842010288675,-0.05189381976733309,-0.029138312087445165,0.038964565423816204,0.0026926627283684174,-0.04110693020684679,-0.03099517011970921,0.047512834671650336,-0.024725539207873546,-0.060977521263447,-0.06150506185970467,-0.026817966704580275
0.858,-0.015340147214475013,-0.048847260012121044,-0.03325390965435754,0.03453894257854881,0.0075406711621346465,-0.041525076045563894,-0.031903526643958804,0.04590227782212404,-0.026907653235889208,-0.060872814251870466,-0.06120686401927032,-0.02819773129177728
0.86,-0.006387599437308756,-0.04263038934019291,-0.03623920308902361,0.026635874579498415,0.013640463541010246,-0.040265476242029925,-0.0339519950667234,0.042690781721050834,-0.026040231577962203,-0.05944518313907792,-0.05778231738106515,-0.02764767409985547
0.862,0.0004205678410445407,-0.0368104911844976,-0.03736160602362059,0.01940609411036824,0.018435974332209296,-0.038432851065264076,-0.03801801158177321,0.03817112085959465,-0.022944830829487176,-0.05802366015733599,-0.05443785820245749,-0.025659313301507395
0.864,0.003920988677369314,-0.03264249407394954,-0.036635363624510454,0.014771631739515697,0.02001754372420082,-0.0364404954497086,-0.04243079798973754,0.03434862959891895,-0.019577979911003848,-0.056088503645477884,-0.05207025610287181,-0.022169052164802562
0.866,0.005291231827151035,-0.027664308218421,-0.032921864278755,0.011300499650633044,0.017860090164870463,-0.032457555576493415,-0.043511214877557575,0.03334589469340653,-0.01690930406695884,-0.052680196959589635,-0.049345333620427735,-0.017956309026547945
0.868,0.006044039076533121,-0.02026804340815669,-0.026256884217528604,0.00726968252996704,0.013887619278518634,-0.025500139805519323,-0.040205760282395905,0.03555065116716906,-0.014487166247688775,-0.0483794661998653,-0.04519910901929784,-0.015525563660965727
0.87,0.006915701067477411,-0.013855016221541658,-0.020740403686540027,0.0037376275188581165,0.011672655039816243,-0.019113169187366413,-0.035636863638550925,0.03878595268359145,-0.011999752360905492,-0.04490267998536893,-0.039675525804554176,-0.0160116604748369
0.872,0.007806907388675277,-0.012884275223123595,-0.020585839556767606,0.0030560741880345087,0.012842230038656482,-0.017928307387109304,-0.03366852208156176,0.040361769168146946,-0.009899607311940456,-0.04268259724108336,-0.03340663741441788,-0.017486079545563797
0.874,0.008452917997491552,-0.01573419592705475,-0.023876668374416973,0.004600543320067866,0.015203632227563515,-0.020625296492899042,-0.03559888525571719,0.039684000011903114,-0.00869799176955221,-0.04049216391196776,-0.027443771928343436,-0.018372187297341535
0.876,0.008709465214513223,-0.01645968318747975,-0.024740495507717664,0.0050625426221170755,0.015514127813938124,-0.021381110736594034,-0.04000674791684327,0.03781697695042821,-0.008727703206535653,-0.03772745009319999,-0.022678565183292202,-0.01890012524202606
0.878,0.008589036029291364,-0.012876558106362554,-0.02119790877804137,0.0031103120735891626,0.01318648700487121,-0.018005817492897497,-0.04437418882854523,0.03506848070180305,-0.010461976050276517,-0.03562948493618712,-0.018973666010011145,-0.018497126223226096
0.88,0.009148760995715053,-0.007823636644931102,-0.016995570442137183,5.313160730471077e-05,0.010909215931904845,-0.01364164444441697,-0.04661447677954044,0.030486980523336604,-0.01352852706993206,-0.035506367333973166,-0.015332746529759113,-0.015575873647631756
0.882,0.012136616358418404,-0.0038734859644500314,-0.016183270826127652,-0.003472234671978015,0.011899748740446123,-0.011400722940955815,-0.04669309787281723,0.023852562114290474,-0.016079538168675987,-0.036907578464896486,-0.011822726151051986,-0.010250177571039446
0.884,0.017451555256715413,-0.0010558170049656487,-0.018683923225209544,-0.007718701229076849,0.01627051110360448,-0.011207440278327556,-0.047014678602280244,0.017075771315597718,-0.01711561077385635,-0.038209321097613234,-0.010941065263164422,-0.004571539544666206
0.886,0.021985874017141343,0.0006260747406475809,-0.021508699228168508,-0.011074088405375649,0.020530685457215012,-0.011677514497323377,-0.049220445014397346,0.012411914961066042,-0.01828997868317484,-0.038720695041448344,-0.014614080721358955,-0.0007810998282619813
0.888,0.021820012405765248,-0.0005528578993739109,-0.022408964879799317,-0.010192025858782804,0.021081510398976495,-0.012568433161388608,-0.05134999305497474,0.009391251970185895,-0.021625435073598966,-0.03958526741565629,-0.020621745822699652,-0.0009487007214656546
0.89,0.016006617179824167,-0.0051690309109433865,-0.021005731318233644,-0.004266910453554687,0.01749262192354076,-0.01399135866957852,-0.050563360025972705,0.0055141166447639275,-0.026552294909156084,-0.041711012624776264,-0.025386186839476892,-0.006000512584837888
0.892,0.008541258357957094,-0.009724053797314848,-0.018014832585889713,0.0024809834438428296,0.012397249407982716,-0.014703644194078574,-0.04743478039848081,0.000221300631046326,-0.030719868626592043,-0.04456802177649736,-0.028779264340327567,-0.014090312154428325
0.894,0.005153814301092568,-0.009998398553597193,-0.015048324396903604,0.004793528904782792,0.009014682979636694,-0.013322259084421934,-0.045041170872655134,-0.00446608654849579,-0.03304099119802758,-0.048127854940148554,-0.032676508354088356,-0.022061466615015537
0.896,0.007348474085590984,-0.006479018471051758,-0.013901074263822241,0.0021055761259224474,0.0086955516169168,-0.010736217106658565,-0.04466515676506744,-0.007558339946739972,-0.03446090449879628,-0.052765343235060005,-0.03659854640047955,-0.028206102242474367
0.898,0.011666849741020759,-0.0033459157395302704,-0.015108959827251424,-0.0019336138729918126,0.01066023226371997,-0.009550740731882924,-0.04497986917590418,-0.010321101078663686,-0.03568688990998158,-0.056829556660486114,-0.03817486121437641,-0.032354662558242396
0.9,0.014885695333864255,-0.002898979449171303,-0.017771652807856173,-0.004621559239926515,0.013771460071429247,-0.010962404359607169,-0.04517998038517392,-0.013053403287589907,-0.035562301421328664,-0.05772872029754313,-0.03654228193716712,-0.034428940240282736
0.902,0.01674742387701785,-0.0039514483997158435,-0.020519820627595976,-0.005872449044905623,0.01731301927752637,-0.013547860996334373,-0.046143523985816115,-0.013788356652394664,-0.032827955945784026,-0.05542674802420415,-0.03276368806780187,-0.03392398290903644
0.904,0.017820755728823186,-0.004607544330752551,-0.022072976728136618,-0.006161837964385548,0.020064956818528646,-0.015083018049375483,-0.048131460607273316,-0.011860247911187836,-0.028512771268459615,-0.05228073642992221,-0.028126844843449558,-0.030441381298342562
0.906,0.017853588055692517,-0.003816545893598171,-0.021260102354648477,-0.005958269311685213,0.020307612550750264,-0.01417737099649504,-0.04962876525488038,-0.009808657029543954,-0.024912395654906796,-0.04950563680714124,-0.023623865613831795,-0.024729844462057986
0.908,0.01626350401104883,-0.001722257245458081,-0.017751433342883694,-0.005705849391291156,0.017375539184446696,-0.010973160425733569,-0.04908292517699486,-0.009676199402570064,-0.02298070766662498,-0.04625868866343573,-0.020028549027222408,-0.01915285263134621
0.91,0.013153598087635467,-0.0004507733811269066,-0.013611387910557193,-0.004780823340009124,0.012870498353253998,-0.007812864515324838,-0.04687255631324099,-0.010418669281876996,-0.022341362434111688,-0.04294759146831888,-0.017923682734720135,-0.016834928173285232
0.912,0.0100163970223568,-0.0027356505170265796,-0.012756526955090433,-0.0021535927820726794,0.010017710656325679,-0.008095814929130465,-0.04559454976538442,-0.011257696418417767,-0.023198928449138217,-0.04308602154128536,-0.01808413501006292,-0.020701926530272467
0.914,0.008799423240106291,-0.008253862139404313,-0.016760574647883508,0.001361052531995182,0.011013704620933715,-0.012635924042256372,-0.047449297259895155,-0.013820186980858807,-0.02635610690181877,-0.04919524137456765,-0.020909035568236065,-0.03135356326154253
0.916,0.009960160834777122,-0.012953792528026104,-0.022294283127279428,0.0032554059763866034,0.014787464969715714,-0.018043111568427465,-0.05029345520005656,-0.01852697504304952,-0.031213674284900912,-0.0580576136767643,-0.025704700468171273,-0.043776494243309316
0.918,0.011843527348934185,-0.01397926383597765,-0.02503484989942509,0.0028336828969599526,0.017998458224570902,-0.02066854501904936,-0.04917056223993245,-0.022993612255654793,-0.035587703188082166,-0.06396791132585976,-0.031773877149350614,-0.05062386852050041
0.92,0.011863910914426928,-0.013592719930823486,-0.024577838465600747,0.0028562850765560047,0.018248148084830308,-0.020883395086173415,-0.04283718851043366,-0.02547129825671481,-0.03803944016568049,-0.06566247764277902,-0.038499593752769276,-0.050994371878863354
0.922,0.008952814741734524,-0.015525616958172794,-0.02349291888457465,0.0057443005294706365,0.016133825790611737,-0.02144228632403838,-0.034641375357225605,-0.026334504440301935,-0.038937680643682075,-0.06566122458332456,-0.043389519949280746,-0.04988606077172252
0.924,0.005442820106110897,-0.019168549751087453,-0.023555224405155516,0.009550369339780212,0.014398335539417636,-0.023147676096988104,-0.027177755416100107,-0.025893804908398068,-0.038840023274130143,-0.06449927100143159,-0.04295294250193379,-0.04894013667470562
0.926,0.005618172847208948,-0.02011678100365983,-0.024693063931778652,0.009577760081990004,0.015319199660245052,-0.024026125112139102,-0.020249560333230134,-0.0233555871515119,-0.036761240263257756,-0.06003052513982601,-0.036579282749471184,-0.04520867242975193
0.928,0.011284629566861184,-0.015671982598179424,-0.025964526021646842,0.0038255073874038266,0.0186439580834062,-0.02211419288436793,-0.013389647860260702,-0.01864972579424546,-0.03109239636970419,-0.05191961840934396,-0.027656048366135937,-0.038660248516803594
0.93,0.018736440909748048,-0.008375980052344575,-0.026161015383971694,-0.0039005404930445293,0.02157775702473156,-0.017999454949906183,-0.007932903424338812,-0.013503993884937279,-0.022594479042024527,-0.043791090314978284,-0.02059480863949335,-0.03384854877407113
0.932,0.021424560025397936,-0.0037436030733994,-0.02433019530500884,-0.007388349496306181,0.021097391737838672,-0.01431767412097592,-0.006112634472278343,-0.009154720634825565,-0.014791160385784867,-0.039362758396431906,-0.017225728294632526,-0.03347744260043705
