time,I,II,III,aVR,aVL,aVF,V1,V2,V3,V4,V5,V6
0.0,-0.0010750414137347445,-0.00021939620688464173,0.0008556452068501026,0.000636248999965461,-0.0009653433102924235,0.0003290943103269626,0.00021939620688464173,-0.0009653433102924235,-0.000636248999965461,-0.0010750414137347445,0.00021939620688464173,-0.0013821961033732427
0.002,-0.007816668610270243,-0.001642251964795738,0.0061963562661629685,0.004663802404809551,-0.007072331300281998,0.002298830792030126,0.0014228557579110963,-0.005887591783104933,-0.0045541043013672304,-0.0073998158171894235,0.001642251964795738,-0.009457632740330351
0.004,-0.023789876264009125,-0.0051342289777259395,0.018765023431041597,0.014287373280550046,-0.02171527638524292,0.006661626174016168,0.0036016751163725227,-0.015699266464846276,-0.014925232073935046,-0.023203623720414835,0.005024530874283619,-0.029210346317577067
0.006,-0.03732783280158637,-0.007844510235779718,0.029679425860306276,0.022309211027770507,-0.03475948785202384,0.010156602697286393,0.003454618568042023,-0.02500522532862487,-0.030240734406546264,-0.04487888167014669,0.007495086098183829,-0.05516491653991015
0.008,-0.026056551134323654,-0.0027032853582637795,0.02344845193249155,0.014077468570291697,-0.02680663204722403,0.008847404371178036,-0.002649772205668916,-0.028958956350568308,-0.042729866074547256,-0.06163833855503499,0.003979652188522261,-0.07403446503698093
0.01,0.007981437505311394,0.012935331790143492,0.0047868297398229905,-0.01065668954650574,-0.0005721853904332747,0.007050250905521458,-0.010026782138142468,-0.02952574460851305,-0.043765145664333,-0.06528855738131027,-0.003064675215593891,-0.07844477372592493
0.012,0.02802184964555403,0.029354282154668846,0.001051218377608099,-0.02844688130402382,0.0118576948836192,0.013497275625257023,-0.006809529795420003,-0.029583860023589637,-0.03131002526453688,-0.05530369776878167,-0.00214813776177012,-0.07005543315298188
0.014,0.009988429730980552,0.03266062889194809,0.022530136393737982,-0.020126152668640266,-0.007221581817263187,0.02569107118372091,0.010441664139545146,-0.02978049242921279,-0.01249316936312485,-0.03792687021352031,0.011479783280128974,-0.055079258784164524
0.016,-0.020246418607555775,0.021924388206061768,0.04214401156532109,0.0012565233442278982,-0.03178524060908389,0.02960167695038901,0.029702526003483685,-0.031557101517660224,0.0021934604660598703,-0.02286070120140368,0.02697765159022759,-0.04290658456184571
0.018,-0.02125946177588792,0.011165312457771281,0.03231607694884865,0.006934199195584792,-0.02764390636251906,0.019078107967451657,0.03804350999014603,-0.03448038524953272,0.0060662257624783745,-0.016058541597102367,0.03237779937393762,-0.04057393688900857
0.02,0.008072148488745452,0.011876604073989057,0.0035663024450383026,-0.00921708671541812,0.0007419597341074375,0.005342584697712624,0.035901315775486387,-0.03186708121134241,0.001124295986022606,-0.014406969188707167,0.030081538219839433,-0.044470349407845736
0.022,0.03070279556554678,0.020457778265113087,-0.010590944764975716,-0.025389432042051997,0.01896266738269333,0.0030748190966610398,0.03201761130667679,-0.015263094447565689,0.0010109850741394128,-0.00980760560630603,0.0316504586379104,-0.04347748213416977
0.024,0.022749537592366215,0.026939689810049385,0.0036895751294261244,-0.024017774359414795,0.008407862505172163,0.014043907238543714,0.03045588417080627,0.012559000156136911,0.018293205762237138,0.0003860047812717336,0.04143455129720538,-0.0332836080058222
0.026,0.002596478318583956,0.02840387864864216,0.025263665002709344,-0.013678918916508397,-0.012007368021369343,0.026039113548118737,0.02787035326433414,0.032686819643603746,0.04409589896544604,0.009074125748886424,0.051415501345016976,-0.02267452783120735
0.028,0.0010897806245149355,0.027548838125648012,0.026170748658156728,-0.011936986727318301,-0.013327985543667683,0.025953079317643336,0.0220332629185676,0.02971731888937725,0.05784619151476897,0.00970681962876206,0.054048135498498066,-0.02031813317811746
0.03,0.016627804703323826,0.02539085523033796,0.008828920155369905,-0.01849432962271598,0.003044616086375819,0.015406720273635752,0.01816517096031266,0.01531108609399707,0.05671829217475312,0.007487018342177065,0.05401241133470383,-0.02116505020889759
0.032,0.020417306809787764,0.022174152042807482,0.0019441916178758868,-0.01882344818761331,0.008666571214962601,0.009695107699258831,0.02357907922686084,0.017983773621817346,0.055857439997083924,0.012992395912603164,0.06089124646371386,-0.014713605785013153
0.034,1.3194652558541379e-05,0.020335063197390996,0.020385734011333263,-0.007825576598461035,-0.010672996818230652,0.018162806129902113,0.037606087844867575,0.04794230001548086,0.06414361907118367,0.027212266604965455,0.07474242288784624,-0.0015430901270391418
0.036,-0.022248046314418547,0.022271654305169475,0.04445155603549167,0.002037132512457653,-0.03433638589807818,0.031670789196984406,0.0491415842844824,0.08303497780141067,0.0739739798465383,0.03922241467164236,0.0847005368054366,0.006963474752774212
0.038,-0.014807145225763048,0.02737164465409135,0.042111262772763385,-0.004805946695672378,-0.030254174073036526,0.03317591275594049,0.045880971061007976,0.09277143357354294,0.07180851928684849,0.03879940549577784,0.08092853406161134,0.00271899737547008
0.04,0.024942225417880385,0.031976504622184744,0.0070386962206167355,-0.027582286875565784,0.006473830013825362,0.01792018271968524,0.027651946628147638,0.07072693885040406,0.055268297572585064,0.028033128529325695,0.06630853485398591,-0.010409670468750288
0.042,0.06439403416273336,0.032397771795066775,-0.03195746640108924,-0.04768699243959508,0.045338703425355585,-0.0010338182358903452,0.007158122784234633,0.038922073844003896,0.03639960710720338,0.017447925920383692,0.05357363135169491,-0.022143765392774458
0.044,0.07472277577869445,0.02848318569534838,-0.046223459924230645,-0.050577784638918113,0.05758181393729571,-0.009648671495737652,-0.005126202873629531,0.022558514710062094,0.02409338302721036,0.01232499577278053,0.05000282799228021,-0.02708721421830429
0.046,0.061154272312371284,0.02347522474746414,-0.03769248996972893,-0.040875673323316944,0.0467803405985949,-0.007760104463586189,-0.010382819571520574,0.02789696861470258,0.014760298606508702,0.009022933222197238,0.051377824999944116,-0.027251481025185063
0.048,0.04382905137546223,0.020986239292713506,-0.022858028096945995,-0.030632253631686417,0.03133191086000047,-0.0018034694306588665,-0.014332232119553931,0.04267780503444644,0.004284259283176307,0.0036921554945222616,0.051643965732076726,-0.025918538624735383
0.05,0.032038410033796316,0.02124520111300051,-0.010793141731430776,-0.024430971300800866,0.02023457930263933,0.004124278145853325,-0.019419792822413646,0.04681400848760013,-0.005716101508593769,-0.003546760952662233,0.049253806420244524,-0.02506694972323483
0.052,0.025620610413809683,0.01948939719584333,-0.006122878582180454,-0.019845542080968948,0.015167315694512342,0.005440547619896755,-0.02433490066639336,0.02720581625614834,-0.013281010031431945,-0.011469400061333438,0.044352737837035396,-0.026927212331629712
0.054,0.022529005787341943,0.01209979153810556,-0.01042527016984146,-0.014439220192806851,0.01560562632391025,-0.00046340154876003996,-0.025720116075991065,-0.00669912271924184,-0.01730396233656973,-0.018122963871978082,0.03772411158580328,-0.03251256555038448
0.056,0.023696404171585878,0.004194150492954254,-0.019504918136215122,-0.01155307526734794,0.02036463751458392,-0.00876537688806799,-0.023226029216347366,-0.029442759359143634,-0.01705610312803236,-0.02194728995352682,0.03085958161661587,-0.040325513464188036
0.058,0.03397483017574294,0.005081598792070389,-0.028896656393655504,-0.018151804677047474,0.03031069693362216,-0.01248595411997886,-0.022004146143876104,-0.02777844361801434,-0.013506825048400933,-0.024404378091965353,0.024735739653088375,-0.048077971503122596
0.06,0.04908717764659165,0.015846659536187028,-0.03324070001134169,-0.03200246043532771,0.04060344804221841,-0.008672473773621734,-0.02406499367690934,-0.01288819551423496,-0.008115149418546196,-0.02588178685369705,0.022136989181541052,-0.05193638937921368
0.062,0.04997351799004758,0.026518033814299475,-0.02347564157673919,-0.037890064628019374,0.03642957787834101,0.0018762365511884147,-0.022822656269914775,-0.0029700544945371614,-0.002949145317132472,-0.021932402234581688,0.027738106215773568,-0.0463288812258084
0.064,0.026421438154171518,0.02702953237108752,0.00047772900208000574,-0.025750206501012868,0.012206893475053934,0.014118396424159997,-0.0131376354832639,-0.005128313597363519,-0.0026449150759777435,-0.010597502368532095,0.04016559431215658,-0.03142524568532857
0.066,-0.0032724295827009377,0.017360993335803217,0.02030548529409676,-0.005509725214635856,-0.013227427313307328,0.019017875664753502,-0.0008818319589121682,-0.016318934166920065,-0.010994097565482183,0.00011394794348754432,0.048749416765855674,-0.01831079843321361
0.068,-0.011803384635900999,0.005336066345450714,0.016716079332677932,0.0047638406424975474,-0.015698545248885122,0.010816154089287622,0.003340854393296286,-0.030178464888572495,-0.023565399854647867,-0.0006824105983203029,0.04441716521833733,-0.019040075426463597
0.07,0.004002497168799336,-0.001891287273582119,-0.006149408210948762,0.00012292484319303116,0.0044609449931842585,-0.004908595082981812,-0.002718044075890729,-0.03931263200504732,-0.02854647211404019,-0.01302089092609039,0.03078285659693286,-0.03250689266870073
0.072,0.019829825065190848,-0.002948846410375707,-0.022752619447200022,-0.00752402663770371,0.02154655911025287,-0.01439722476993544,-0.01022479192761485,-0.04021367419324198,-0.020771310425638775,-0.025538711579058498,0.01948483606819639,-0.046199934440634555
0.074,0.01187369462771605,-0.001834266076035223,-0.013539998303390841,-0.004163658965390995,0.01310887665100763,-0.00937586426121758,-0.00936821223255443,-0.0371968742779337,-0.011724152646320034,-0.029092616659314566,0.017080021980715763,-0.05065024587465274
0.076,-0.016089073995832526,-0.0023676198324080674,0.013893947457494293,0.010030350117212176,-0.015146336731463117,0.004398943730891861,0.0001728067689142597,-0.03633886307792398,-0.0170579678817602,-0.025510266241546526,0.020365448239870052,-0.047003593977418205
0.078,-0.03702870916455725,-0.001547175053839003,0.03563133697909324,0.02006621385483268,-0.0371511048783084,0.01578822858828517,0.009193199955623893,-0.03879777785511858,-0.03453119843192618,-0.022080995397391893,0.02230042255337553,-0.04232962008242962
0.08,-0.03308833115904412,0.007728829118044303,0.040833960834306085,0.01384014486669216,-0.03809175555464523,0.022666294928063085,0.00922869705669709,-0.041661228065783776,-0.043013330249957064,-0.022113781400857378,0.019842420005441928,-0.04162444471127972
0.082,-0.015548893240813403,0.023406710206840806,0.03865514183789184,-0.00200206592658592,-0.02834079475179232,0.029283629752635255,0.002449858151137552,-0.04111477209621139,-0.026232142521854133,-0.023057717364849517,0.016397043055271444,-0.04373197413281165
0.084,-0.007504601779423459,0.03064871205355036,0.03757433967462799,-0.009189192565384554,-0.024150226161015326,0.03290886379024066,-0.0016105556866917363,-0.03572763717460176,0.007228522114246518,-0.02230132194562604,0.01643136133024266,-0.04481589781720681
0.086,-0.01580059983291406,0.01911413815751231,0.03436537025262408,0.0004909220360432642,-0.027335811998992838,0.026185926715385156,0.0013153013276727989,-0.028922878399409966,0.02917452163918936,-0.022416378541445688,0.018253902477737016,-0.045770782746516844
0.088,-0.027351660035705796,-0.003614728674066813,0.023423797232763884,0.017219417312944615,-0.028079418838681994,0.00952674283582626,0.00585045604603655,-0.027489043518097053,0.017741634451883374,-0.028832356825110445,0.01492133924242017,-0.05241977665195229
0.09,-0.028222944292125064,-0.023029553191314743,0.004988416953576456,0.027226503069104922,-0.01926163082349133,-0.009690573465394436,0.005009437076324781,-0.03685779714199459,-0.019637595874216304,-0.04280687267721153,0.0029693603308751297,-0.06644519907891028
0.092,-0.021690463073297077,-0.03388574530815097,-0.012462974270884216,0.02919307892092638,-0.007004058946391237,-0.02443319908149888,-0.0008146197916397986,-0.054466226203462906,-0.052365038306616624,-0.05801451792989616,-0.01189902194130891,-0.07967839753123114
0.094,-0.026850595231140376,-0.03934595227499499,-0.012757577430560801,0.03406324737653138,-0.009323233458167995,-0.027757781892821236,-0.0035850947874465455,-0.06658597001068775,-0.05771803045837523,-0.06502871218962601,-0.019471106272918842,-0.08140205849498888
0.096,-0.05435811195471343,-0.04068414839160701,0.013516013080701834,0.04847462749559623,-0.036261311729914626,-0.014975269427625832,0.00250984890368442,-0.05990457663474897,-0.0430133067193484,-0.061356504632066954,-0.016218512601265167,-0.07170054065742394
0.098,-0.08515730061320546,-0.03546709002738109,0.0496180168040351,0.06206767442598369,-0.06954527473829077,0.00656600165393126,0.012398729182803497,-0.04022132386227089,-0.03502286766729704,-0.05560895122210965,-0.010224623917190907,-0.06409130841179879
0.1,-0.08844025405622241,-0.02509872647518687,0.0634819893013448,0.05923138673592979,-0.07747665546713899,0.019100873955146327,0.016849537598920977,-0.02840906591543603,-0.046661499022978274,-0.0567172055996209,-0.011087511589009696,-0.07000174691249282
0.102,-0.06266652787069457,-0.017231074897358086,0.04602612117861198,0.04208280295481243,-0.05505746691768682,0.01383886545251282,0.01595712044250276,-0.032998154273112985,-0.06257005593051776,-0.0615986291188753,-0.01683123134757124,-0.08253838187533419
0.104,-0.03977048686070412,-0.018241087239055948,0.02237817647152024,0.030358143463186375,-0.03151432657743656,0.0008978520808414352,0.017585009134273764,-0.04014766196799869,-0.06418033686581981,-0.0605242154383755,-0.01769715771064606,-0.08507726212017691
0.106,-0.04300962755230724,-0.02680020361954123,0.01666267564025093,0.03613267340398293,-0.03073883723263635,-0.006220819827703481,0.023840538903779514,-0.03614758971343481,-0.054243174031453414,-0.052183318440197454,-0.011462672013468202,-0.07540643790174899
0.108,-0.05823742697900999,-0.03506861530064623,0.02291285388986378,0.04831206434077849,-0.042000380517099666,-0.006887782268094189,0.027690775303509094,-0.02929283156931262,-0.048216675738401986,-0.046380079384043225,-0.007212211985671096,-0.0698095814727866
0.11,-0.05664002518362833,-0.03512891486854474,0.020993602939550025,0.04762379652630618,-0.040272806892919406,-0.008177100042918129,0.023077362129320208,-0.04075163314385558,-0.0540122393347424,-0.05202998427146873,-0.013518376148450688,-0.08150624739305086
0.112,-0.03584459154983586,-0.027148632353994326,0.008500787292003265,0.03261197007617291,-0.023525456497984827,-0.011485395233954742,0.01347567145693566,-0.07290590469239268,-0.06462663924855762,-0.06590461767835362,-0.02715724783879942,-0.10283170869256623
0.114,-0.024237673964242114,-0.020823014381647704,0.003586610029372889,0.022861107946982796,-0.015401321289445097,-0.011456176848855396,0.00887937133699438,-0.09747101835270168,-0.0664805134557422,-0.07526952944107897,-0.035599592197112874,-0.11358865620972922
0.116,-0.04091534579777457,-0.024195125066291047,0.016913331963108375,0.032789999480820085,-0.030356122966001126,-0.005967329111004243,0.014128086222419088,-0.08776167240214441,-0.055787217686968336,-0.07260033058966389,-0.03145609912386153,-0.10568789385097514
0.118,-0.06776758778930515,-0.03366493182001808,0.03410471869063207,0.05166058356782959,-0.0517880043927634,-0.001071662953673342,0.022684741365127607,-0.05610750960188328,-0.04464029362463658,-0.06420103692256814,-0.021368754228249694,-0.09199971223637417
0.12,-0.0755741429555488,-0.0404374182870742,0.03503299716649775,0.059553753809430024,-0.055619007443787054,-0.0036200396157711427,0.025156200551697195,-0.04186688591303571,-0.046787630484768326,-0.06132206233754937,-0.01728121197969419,-0.08845279045249779
0.122,-0.06097369164280692,-0.04177905207379145,0.019143722261170535,0.05282735288758538,-0.04060486606827336,-0.01278959075000674,0.020350850942342572,-0.06232684426048864,-0.05959975676278853,-0.06738171208931035,-0.023017079769405688,-0.0960571593367543
0.124,-0.04243852636611175,-0.04026672329915781,0.0021819750219762507,0.04261554711686417,-0.023450831467411826,-0.02135214867345463,0.01390530599527925,-0.09359866337656161,-0.06637739870731742,-0.07693324082009262,-0.032927847967490424,-0.10425079814157757
0.126,-0.03608990818648248,-0.03689989225982823,-0.0008762640758244169,0.03797382181068721,-0.018878453197195402,-0.02166808262692492,0.01076105371963673,-0.10489525462889232,-0.05831442108946607,-0.08223124524752971,-0.039125792335876396,-0.10498095170988925
0.128,-0.04507921777073908,-0.030320085375696686,0.014566102725842701,0.03920371294011308,-0.03092927497959852,-0.010592233603277813,0.012453485509619841,-0.09415488490060821,-0.04747756811953579,-0.07893926132709678,-0.0373482201213028,-0.09967051225177119
0.13,-0.06017584255610024,-0.021631747870164843,0.0384268662460897,0.04182713604541006,-0.0504802670281811,0.006121675456405058,0.017031958386445067,-0.0815600264904483,-0.052145128066438055,-0.07022943977318633,-0.02996384590465704,-0.09554659506632317
0.132,-0.06813127102841025,-0.016145179016547564,0.052140951814156004,0.04248039202240058,-0.06135859785766152,0.016348100044018078,0.019891144145706603,-0.07976282078864838,-0.0727879919515209,-0.06535822567226153,-0.024569747407483654,-0.09714284063494352
0.134,-0.06536979968520787,-0.0181123211475871,0.047544891362802155,0.041993881017951366,-0.05746006320413046,0.01359764127022222,0.01797375995333236,-0.0805970085214925,-0.08903210566079803,-0.06992006152065519,-0.026388619127639967,-0.1015467802481694
0.136,-0.060255719411355595,-0.02527540143172304,0.035110061993218825,0.04310704744402665,-0.04881444718730267,0.0037379257380544266,0.013046418359673653,-0.07126524073102809,-0.081445623591009,-0.07900564097695058,-0.03264729842206946,-0.10324908242535452
0.138,-0.06240835647531532,-0.03149327071649684,0.030833717494087993,0.047175336052340706,-0.04858317435840458,-0.0022874306744224437,0.010256542114490197,-0.05572164339571265,-0.054164888706043884,-0.08252058409074828,-0.036154547617476614,-0.10119223425739284
0.14,-0.07442010454700274,-0.03443925481966411,0.03986683301716444,0.054388392778470566,-0.0598960770563642,2.449048426678667e-05,0.013734330508962006,-0.049084269960106,-0.032914375671315596,-0.07594121444950461,-0.03297933619886829,-0.09788839934483512
0.142,-0.08892051267503712,-0.03649428236499946,0.05241304900047188,0.06252284125944238,-0.07328858128270332,0.005440033949285124,0.021708039521344733,-0.05563046739255536,-0.03537701711536333,-0.06569272241571544,-0.026944848943232087,-0.09563748421768381
0.144,-0.09463474999015732,-0.0378268947337052,0.0568632797488214,0.06625051211115036,-0.07748004541038575,0.007898019784848963,0.028478303796701625,-0.06503379785031155,-0.048457984321925066,-0.06240135499325667,-0.02597756978688254,-0.09557109303040341
0.146,-0.09123378631459743,-0.035801475868347164,0.05546621368531984,0.06412946021179274,-0.07442457590825424,0.008933282411586547,0.0334580080308089,-0.06509570404315329,-0.04958294641385823,-0.06819520044758445,-0.032558202888190085,-0.09754667589450276
0.148,-0.08860573224858156,-0.03238634876597722,0.05620547945241911,0.06176147743662571,-0.07352790188958486,0.011191974726119163,0.04187161702249535,-0.05209246242696469,-0.0412880725122173,-0.07642184181983334,-0.04216990853453265,-0.10243300759309194
0.15,-0.09144157303449933,-0.034165542237879,0.05727284845122108,0.06419529108465298,-0.07554891944212203,0.010918150386564955,0.05651483357233952,-0.03287956932712123,-0.04107974755510225,-0.08348371713683328,-0.05218494196139934,-0.11360679043906978
0.152,-0.1008232510539779,-0.04358048971943478,0.05734771367405632,0.07313241255278198,-0.07974812221463135,0.0064424956849669385,0.07745970919345513,-0.011403406260444532,-0.049518394114418815,-0.09204976586026839,-0.06523526954248429,-0.13212165718256053
0.154,-0.12184903283528507,-0.05574961658593001,0.06630710921372536,0.08954987778642234,-0.09422221650787665,0.004817676203857887,0.10668503697767641,0.021400011404537515,-0.05254992609804289,-0.10324056241257523,-0.08283037604581392,-0.15374408912631035
0.156,-0.15147546024655295,-0.06466176525275091,0.08691683032284078,0.10952351858174864,-0.11965494270421509,0.010323582369224793,0.14353549028927604,0.0657481332382229,-0.043741470733766684,-0.11416674172258527,-0.10163215120912553,-0.1735176997182112
0.158,-0.17215910193932277,-0.06874518774283551,0.10324432245946484,0.12273409504789946,-0.13878583122572047,0.016096494084907466,0.17972931009022247,0.09991169184964546,-0.02963965504107547,-0.12193906560801372,-0.11627470443856902,-0.188682757004876
0.16,-0.1706464491156458,-0.06734780439229783,0.10301188573990418,0.12121568460172139,-0.13777512480464252,0.01657466880987838,0.20660177256010773,0.11385468287833649,-0.017686620647987237,-0.12133278295626822,-0.12006825192914516,-0.19484922381165262
0.162,-0.15037358779421398,-0.05291386959896578,0.09733832570557223,0.1032374735516419,-0.12413132913521205,0.02100916606763075,0.22384439270243237,0.13212019989096568,0.002344637370087439,-0.0986226824318921,-0.10188183822899055,-0.18199173842114247
0.164,-0.11817928116501898,-0.01425160427408681,0.10403461702523377,0.06762612404532313,-0.11126533130836577,0.04364780521466627,0.2362893162458747,0.18517411992427954,0.0601159863279003,-0.03789904136253469,-0.049412592302854594,-0.1383936157690196
0.166,-0.07047742550060625,0.0469683914742895,0.11768832680759454,0.013462859321234751,-0.09476938312261443,0.0809644373028263,0.24412847633287538,0.2766432850706827,0.170208520676944,0.06257442593660084,0.03963846680370774,-0.061661844162888495
0.168,0.0015287971623909394,0.11299157378595412,0.1118000465577637,-0.055513738623289954,-0.05619781448494953,0.11121201917416386,0.23835237537887882,0.38282133616057856,0.3050149682112036,0.18892076159582066,0.15526748218782715,0.038377152877884034
0.17,0.10434835788617007,0.17697107595776693,0.07298984838281962,-0.1393540736318143,0.014667601581765603,0.12438644668718112,0.20353890350887321,0.47234203939117886,0.42775621403201136,0.33278129546584184,0.2918000367759476,0.15639765129823502
0.172,0.24392448677051656,0.26149019452657013,0.017767198983029257,-0.25179967363878564,0.11216344968958153,0.13956361010795415,0.12358503926019027,0.5264841656762914,0.5371022215794272,0.5042171596068431,0.4607998249225885,0.30582475962019656
0.174,0.41920907638421046,0.38861366803168707,-0.030737609403858723,-0.4028992356723582,0.22388721794357053,0.1789900167751187,-0.008327963398433723,0.5422701943367151,0.6513723976082542,0.7098732645114285,0.6711240586248001,0.4976321410961369
0.176,0.6061785617651024,0.5416026997163814,-0.06504645176304429,-0.5725262698647318,0.3342206336014464,0.23826849373681055,-0.1747865032031005,0.5230983087791002,0.7699406391784798,0.9254151627311183,0.8977054012398652,0.7066365584784502
0.178,0.7614101115516403,0.6782040643975625,-0.08381950830267434,-0.7185540449203084,0.42122525243221415,0.2972035931609987,-0.33387124660288875,0.4793866644212654,0.87719652090268,1.1096747562120357,1.09186657551291,0.8838086963959483
0.18,0.8528273273151814,0.7746789047075415,-0.07869689586276334,-0.8132241665241025,0.4646622135898542,0.3478127659625704,-0.4504727645492397,0.42941907335793783,0.9673957411736441,1.24499080413415,1.2278289383740986,1.0055277291239397
0.182,0.8783496941601525,0.8397025699033217,-0.0389952042046939,-0.8591029229996318,0.4574176007211704,0.3993889211199357,-0.5265870318579899,0.38304685022462504,1.0427629883587235,1.3440695207274553,1.3200848599508854,1.0889785966741796
0.184,0.8496023376614705,0.8859866776027648,0.03627949633139936,-0.8677013706751451,0.40454403639999753,0.459276076830357,-0.5872383905620411,0.3268993496160266,1.0870973141876028,1.4092217450508924,1.3828176524921902,1.1517368989498813
0.186,0.7776485138778797,0.8965338160280328,0.11895002286396465,-0.8362408348358402,0.32660818254633,0.5059038783269239,-0.6441962671981127,0.2319981151449729,1.0515231813398638,1.39366925381548,1.3815054965076703,1.168222453998053
0.188,0.6779214541292153,0.8279420290790486,0.1501060254775136,-0.7513703916879686,0.26179370668017504,0.48802138734135403,-0.6861468814291484,0.08090634832410493,0.8832177215845456,1.2244779130366559,1.248154646408504,1.0812863173782497
0.19,0.5631864662063023,0.6600700595144207,0.09689677079802651,-0.6096717311872616,0.23260149229529076,0.3777846801804447,-0.6940907887903757,-0.1081396937723066,0.5838623308475619,0.8860946514564192,0.9614133834833606,0.8673027911156453
0.192,0.4347403484252359,0.43959830963009955,0.004820468866742684,-0.43497476175530136,0.21563452801700625,0.2206115285124539,-0.6594145760483503,-0.29313710410548305,0.23265311283323414,0.4701377591705499,0.5965304613144319,0.5807252575879475
0.194,0.2999616019787353,0.25153880232518633,-0.04844793582893055,-0.2734367025650793,0.1749614294985581,0.09880204251132023,-0.5969161841412021,-0.44942971156913464,-0.0711278853826381,0.11104985336009325,0.27084030315003976,0.31522436054676917
0.196,0.18278836614874305,0.14333410913887826,-0.03944619124607685,-0.16095570879382548,0.11124396570194937,0.049070952830188794,-0.5370193611039973,-0.5807576244423776,-0.28755799776650753,-0.12337926951007894,0.04836808791865478,0.1252573539138376
0.198,0.10085232944430551,0.0966208885638286,-0.004214002430278839,-0.09717002111030325,0.052130583855641024,0.04417690646345434,-0.49412271543422026,-0.6841388631989243,-0.4371933170628268,-0.2545922634314846,-0.08267603976954921,0.0035223723348939934
0.2,0.045491992415334255,0.07014435451383737,0.024656294495843056,-0.05677554127820356,0.009725088130750585,0.04591806313609857,-0.45053616453776296,-0.7299620835911382,-0.5318223837368045,-0.32328060507528517,-0.15505662891677552,-0.074194450864764
0.202,-0.0022878359773125375,0.043281509431700955,0.04558366549609361,-0.019744941144103977,-0.025120474901870325,0.04236741315824846,-0.3827133460564031,-0.6920691715103358,-0.5456736395514193,-0.33848510419062317,-0.18026023010522563,-0.1135757848688821
0.204,-0.04092138222163032,0.01739027978706049,0.058415258588853686,0.012381948685494035,-0.05159461294183892,0.03485331248314117,-0.295321739544155,-0.5845777744498414,-0.468843897438215,-0.3016952499591751,-0.16375664079595087,-0.11661453963030913
0.206,-0.050116753270575375,0.0003973718542313704,0.05071162557738839,0.025546665514400574,-0.052652442420656864,0.022349238398936655,-0.21659612176736182,-0.4551781918112282,-0.3507659102942835,-0.24030752393335703,-0.12865196929774392,-0.10204087043444901
0.208,-0.024405360628288072,-0.00282330616098086,0.02168106112500665,0.014651077545547937,-0.024624564849010717,0.00714737412116862,-0.16475164095223976,-0.3449856674070784,-0.2590275026442917,-0.18987120110542197,-0.10167395042317837,-0.0924714200844425
0.21,0.011624175732318736,0.003587556342836042,-0.008202621783092508,-0.006297210165791272,0.009475839360635181,-0.003298939755676838,-0.1317407738732431,-0.2631841743436573,-0.2115193704172158,-0.16062749360242182,-0.08856374254767153,-0.09312947476498373
0.212,0.02371583283685982,0.00872197890027938,-0.015276645639038331,-0.014965834985734342,0.019568154073884972,-0.0034376680186407257,-0.09868508199537845,-0.19716530471969693,-0.17611914282112553,-0.13865651126517897,-0.07731024045228556,-0.09340368736799981
0.214,-0.0002573279084259881,0.006464806170980456,0.006600677801025919,-0.0018141087237655124,-0.003930186304052677,0.006309027109956254,-0.05815735706362768,-0.1388057082543016,-0.1291737898835126,-0.11180891731160053,-0.059667313282045095,-0.0848689478694935
0.216,-0.037881354132981646,0.00045802947191104636,0.03842218865379568,0.020311992631402716,-0.03961169429046689,0.018365625119533362,-0.019084715351576277,-0.09470312406339926,-0.082476758749407,-0.08525208893023785,-0.04180756596791654,-0.07262926331307505
0.218,-0.05786903542556551,-0.0031246485108978846,0.05485456713220493,0.03197988238165096,-0.0583505900725253,0.02379611389422056,0.006723230911104784,-0.06850889768793032,-0.05316139432025827,-0.07253556575021772,-0.03490616536952803,-0.06836695747189159
0.22,-0.055380079688157384,-0.0033823620034891524,0.05200828240428944,0.02993196371645931,-0.055590428286294256,0.021924705804652524,0.01707573511143558,-0.04913635595126097,-0.04340851088634898,-0.0774985538827709,-0.04099227819724832,-0.07636438326851643
0.222,-0.04892754037088308,-0.004792069487264612,0.04408089022951358,0.026589867216860515,-0.04776611799941569,0.017838834504739404,0.01747232911586185,-0.02837759596623071,-0.05173650218425923,-0.09075963466321087,-0.05248370782910095,-0.09076134685738323
0.224,-0.05020765663113958,-0.010292031614032316,0.039905492394704714,0.030361747677147066,-0.045405100148932925,0.013760568557754751,0.013975110927468195,-0.011414514322428411,-0.07324138872709174,-0.10144657672123972,-0.06226529092343674,-0.10368744058028401
0.226,-0.05468588080269522,-0.01693761394843242,0.03789390073092158,0.03711745044249776,-0.04608596613420613,0.009656177777040828,0.011494537224940832,-0.003023436590726424,-0.09153802476639063,-0.10571441062158263,-0.06823716321934842,-0.11100693443811857
0.228,-0.05542178781843666,-0.021230890358421066,0.034542637056578916,0.04026558767797386,-0.045124963260062156,0.005773113871946894,0.013175294981179628,-0.0056397366146757385,-0.09224415679296426,-0.10536678703829078,-0.07036537504172523,-0.11177011077314264
0.23,-0.05239918580064603,-0.023681021714873136,0.02912264470650096,0.03955957771832415,-0.041993483555965515,0.0019493982513673791,0.018140460973676303,-0.0256591138276283,-0.08009103028478035,-0.1037981519274449,-0.06943634656503815,-0.10723227035101521
0.232,-0.05221599305422208,-0.02553171083400211,0.02677512440759299,0.03972839582631609,-0.041838930277512024,1.700335384218041e-05,0.02348549895619479,-0.05618762796496144,-0.0717401117527943,-0.10285030566878191,-0.06766610351962572,-0.10135508181256792
0.234,-0.060001601806455473,-0.026521548822490033,0.03301003738289069,0.04416162901862649,-0.04930877641216335,0.0027213316889924694,0.02785211439832583,-0.07063103514513498,-0.07681195846081551,-0.1021877334039965,-0.06742423375786781,-0.0998294970313664
0.236,-0.06919718891655234,-0.0260852112925454,0.04235011184082108,0.04935453795924835,-0.05824720231914706,0.007602020309262683,0.030517801880201853,-0.05640430747459035,-0.08890634030081616,-0.10185084670127799,-0.07002708274870281,-0.10571675798904896
0.238,-0.07070800250484197,-0.02421699777745171,0.04606050147618394,0.04987237483186539,-0.06023304163304528,0.010048455182030703,0.032376646542550964,-0.03188618504094647,-0.09039649763885751,-0.10174900650298424,-0.07415738814134225,-0.11420751279082178
0.24,-0.07246672147601507,-0.022325296393023202,0.05022816650244719,0.049622406630746456,-0.06302263714385634,0.012432852125647029,0.038553115766901444,-0.017522488039670017,-0.07173620805696543,-0.0986491410456421,-0.07460043494593888,-0.11522962985823057
0.242,-0.0906835366894856,-0.02224233916517067,0.06846349560947546,0.057868622900233556,-0.08175060521444531,0.02120317145686118,0.05159495104792789,-0.01557374111309403,-0.04939737480009653,-0.09001021909732479,-0.06706890651801756,-0.10505855708639984
0.244,-0.11982101735983348,-0.023691722838681047,0.09556300966605237,0.07238218713556824,-0.11050862051938017,0.03398924107199193,0.0633771649060141,-0.020988153497929492,-0.050902405362063995,-0.08055838154218867,-0.05558372956243052,-0.09215255693329023
0.246,-0.13263421728648006,-0.024672516853781377,0.10712570461304469,0.07879788071692509,-0.12288047994823474,0.039080048863067464,0.06328872396932402,-0.02920774509982925,-0.07901172676340736,-0.07838037039557375,-0.04980724596011835,-0.08776140858943463
0.248,-0.11670094939466273,-0.023616744981127855,0.0926744385595262,0.07012423107598673,-0.10727728642871699,0.03214071793611979,0.05289743084590065,-0.03372046732349361,-0.10605302964325361,-0.08430959620438876,-0.05306790657515519,-0.09293313633999811
0.25,-0.0921590442834405,-0.02028240686280128,0.07204478953663294,0.0564855814707726,-0.08395678034022021,0.024008342113772986,0.043722717380386356,-0.02996152147386539,-0.10791455708372229,-0.09108228112958897,-0.05874978533076781,-0.09925096378412133
0.252,-0.08552020104913845,-0.01758385622565394,0.06826322825742388,0.052671543011594574,-0.07823097243617944,0.024735789584924794,0.042201029775985,-0.023010746523150837,-0.09144255601561828,-0.09297089982626079,-0.06035241051094352,-0.10061165510112596
0.254,-0.09872028897423378,-0.021949667090390174,0.07696689008353559,0.062243755330182976,-0.08911958981594806,0.02785595871602755,0.04477697451594411,-0.025189085815539858,-0.0801907363799587,-0.09121116979631441,-0.058916721106463905,-0.09814066752045697
0.256,-0.11064744032346953,-0.03563976296976165,0.0752032279272925,0.0747988512871893,-0.09409785702258043,0.020120096851085324,0.046296743412043935,-0.040251064148776834,-0.08155155775347969,-0.09022924562056235,-0.059354556262076676,-0.09551726971623314
0.258,-0.10525018798077172,-0.050336575160954154,0.055237540008079684,0.07812175609087277,-0.08081507806400415,0.002338743516918153,0.04603936035247669,-0.05463716062169565,-0.08361249495396164,-0.09242316504676178,-0.06449934633878868,-0.09574694001975745
0.26,-0.09012672731644725,-0.05538743522154884,0.03501911290891851,0.07190915856781202,-0.062391806861925594,-0.010454509587099267,0.04536677868756972,-0.05196432347517099,-0.08083551440312098,-0.09714094858333154,-0.07308072864749757,-0.09992855105908295
0.262,-0.08256001146192914,-0.049289463808446884,0.03328822206357985,0.06519844008319871,-0.05762533453479268,-0.008083840106895486,0.044580211920531625,-0.032350976963780864,-0.08035990194352426,-0.10192576868780956,-0.08049277667986053,-0.1050761432327923
0.264,-0.08659179459806839,-0.038508912654650236,0.04782371947980158,0.06311847001785534,-0.06776488892369605,0.00470696239458062,0.04334322541526265,-0.012318608201311134,-0.08188525834189561,-0.10342172365197203,-0.08199821129936916,-0.10666980203796994
0.266,-0.09227603564297092,-0.030457512664464885,0.06140085944543157,0.06319889227272073,-0.07852344991942455,0.01534878255497245,0.04190837547523223,-0.00557644590197361,-0.07628999514423673,-0.0998292682984362,-0.07692756231186491,-0.10421717808858319
0.268,-0.09100198059925192,-0.02972248053807311,0.06088032585148075,0.06245174255813904,-0.07777079288326998,0.014967421919770848,0.04102840017703598,-0.010884355499340909,-0.06713587083545008,-0.09374630966004789,-0.06925171474932067,-0.10045873395383428
0.27,-0.08490376198174453,-0.035383278898124315,0.04932526780145436,0.06175097724891227,-0.06785188626470096,0.0055810639550511135,0.04094121405574515,-0.022926714480576958,-0.06847611389332971,-0.0899242637312845,-0.06384814137849353,-0.09693086415341125
0.272,-0.08146940411855591,-0.04156069640076382,0.03995079461530956,0.06272075672179114,-0.060448996491401154,-0.0030150971991343457,0.04062836708653352,-0.03876552334703225,-0.07935852728418429,-0.09038436312558878,-0.06329785186170166,-0.09407359283204367
0.274,-0.08294548121332483,-0.04308504230342229,0.04000324451386817,0.06397189187107306,-0.061485592234039016,-0.0039473235251116495,0.03878452826212158,-0.04929982318927175,-0.08421105373523471,-0.09361310035198045,-0.06716869272508963,-0.09333490209712221
0.276,-0.08449702991849131,-0.038972144135143855,0.045698554230850404,0.062186657036046235,-0.06606694862675198,0.0017964426239240904,0.03589431285225417,-0.04742981163347558,-0.07852861964443983,-0.09690959373514947,-0.072859840850635,-0.09604029745888028
0.278,-0.08010750370755423,-0.03211270226587675,0.04827971173685965,0.0560333304450815,-0.06561161574571614,0.007617486710970598,0.03384345689453462,-0.0433502047055252,-0.07437224359037509,-0.09908330196682895,-0.07883890757138054,-0.10251071164906583
0.28,-0.06909946387885152,-0.028228279218920776,0.04125047980080243,0.04880753549932911,-0.056459853949982486,0.006055270646669319,0.03351995471500723,-0.049871238325545804,-0.07978180950363303,-0.10160336929406984,-0.08605895302309166,-0.1128259038383487
0.282,-0.05853645911743484,-0.03059868326145496,0.02819544050488707,0.04585307275059386,-0.04460858410335983,-0.0027663251724700678,0.035270498257541846,-0.06033148525761436,-0.08731526514063274,-0.1049737402367418,-0.09295208619995704,-0.12348799592337234
0.284,-0.05625091651086939,-0.03447551080913449,0.02177423228701235,0.047726210783920746,-0.040643588711785875,-0.008666198109844297,0.03923191134295475,-0.05807972005018085,-0.08756327857842094,-0.10610889257085132,-0.094214432674474,-0.1261390059055246
0.286,-0.061284040022086414,-0.03296461303887173,0.02818417180132446,0.049312026119576705,-0.046819071285979466,-0.004222402997669869,0.04237845066617759,-0.04112283018123883,-0.08339804998152997,-0.10361730917015907,-0.08939856614184655,-0.11727645587873742
0.288,-0.06615461588180954,-0.028532016125008698,0.03755106775460855,0.04833572406924103,-0.05374712926923249,0.003610298567698919,0.04121321063889497,-0.026740824060048025,-0.08285062732356498,-0.10077423565316718,-0.08480349003372661,-0.10418113321842391
0.29,-0.0665265685348832,-0.03033677488975499,0.036226205373579276,0.04877471043384664,-0.0524868101399462,0.002283420830914544,0.038881582542836364,-0.030305235570710222,-0.08494090041467617,-0.09952626206035496,-0.08334247038229148,-0.09589287964664797
0.292,-0.06280345391766042,-0.039063758980945607,0.023796009647958583,0.05184559042933524,-0.04403201126067597,-0.008876098952497559,0.041695221233880864,-0.045391650759676334,-0.08102327182090274,-0.09793019819460226,-0.08171202204492152,-0.09534464381435744
0.294,-0.05592269531435865,-0.04475520848734787,0.011174901006424355,0.05182724754246974,-0.034683728427532416,-0.01863695983712496,0.04927380792008033,-0.05394416967959893,-0.06978723513654789,-0.09509680294374936,-0.07843767628245994,-0.10080612026147581
0.296,-0.04727181709567343,-0.04169905971229978,0.005523777330633309,0.04547261896442683,-0.02782372635031748,-0.019817180936211227,0.054471933472869334,-0.04978405749813854,-0.06401098243008108,-0.09377483113082652,-0.07688873658132055,-0.10796851825530152
0.298,-0.03908735831379666,-0.03451115224987423,0.00442793057348877,0.03697706328885337,-0.022841555301857414,-0.01598909623903352,0.05113315372096942,-0.041200563663801856,-0.07527619720306743,-0.09812225701751087,-0.08143260928930492,-0.11334074173922452
0.3,-0.03281937133979046,-0.028911633165659024,0.0035869560570080125,0.031269870474466714,-0.019162614563790967,-0.012955224466000403,0.04010466916790799,-0.03848369835476467,-0.09715834719838014,-0.10892698743434415,-0.09303148530162769,-0.11810268354391015
0.302,-0.03153369592325629,-0.026485112479881952,0.0046383968556391935,0.030514013168208107,-0.019802019497688922,-0.011435308873868863,0.030396106866292738,-0.04430069705824308,-0.11229464526834687,-0.11894315855495018,-0.10460900099737279,-0.12256910511359906
0.304,-0.040565194523078406,-0.027283730183323324,0.01302823360128999,0.03615171966095244,-0.02930711709892114,-0.008649517130594723,0.031762222018786576,-0.05003034457867656,-0.1114250360624774,-0.11811029738766887,-0.10474705448147828,-0.1210407242049083
0.306,-0.058453189320376554,-0.030044117969245148,0.02845101155825302,0.046485804144528124,-0.04579332205849527,-0.003141117462701088,0.042790569889142684,-0.04526134818119597,-0.09978343613647973,-0.1071528987347966,-0.09271841094433042,-0.11190111412666928
0.308,-0.072766428887817,-0.030932076567276045,0.042107494744909234,0.054057429439919744,-0.05897555295853151,0.0034866339430555055,0.05173865051792541,-0.033244827196896726,-0.08818237047239498,-0.09799825655841013,-0.08166303489217502,-0.10421474865502928
0.31,-0.07353766399088647,-0.026452780077888524,0.047476718228265005,0.05222593217455196,-0.061399785006386216,0.009433728276202681,0.05162739445792415,-0.026093481066635196,-0.08164345439714127,-0.0980500786448257,-0.08085441025767429,-0.10431095696656356
0.312,-0.06666818222667044,-0.01795633574294602,0.04909106119738236,0.04410144789007525,-0.05835533144465975,0.015260146487158658,0.047988087640923334,-0.024605681821677407,-0.07708978341016444,-0.10263728696913099,-0.08464616264069404,-0.10550862841601757
0.314,-0.06619232505797318,-0.011446947149862682,0.05494515411893695,0.03980762028910118,-0.060640376075918656,0.02148937337942694,0.05015775801583819,-0.018157800094527058,-0.06956412514880704,-0.1034620644913051,-0.08274873896892995,-0.09881013394932603
0.316,-0.07529270126124105,-0.013286225388533081,0.06197745863134748,0.044710617437438274,-0.06838774071312133,0.023817446731533014,0.06008206678767463,-0.005300361178475712,-0.058041378200759684,-0.09756245165013279,-0.07311896369234518,-0.08612795787242071
0.318,-0.08194690278284128,-0.025793333454525752,0.05603645680610013,0.054273778199666015,-0.06865943849618827,0.01444763807287487,0.07086475482728959,0.0022329494736948678,-0.04910178856353032,-0.08874825578933711,-0.06252071955703734,-0.07755882312358102
0.32,-0.0749201462514778,-0.042712784165837916,0.03215966989880768,0.059790864248879166,-0.05350408159580748,-0.006085974993829927,0.07394358542939714,-0.0037720392340626547,-0.0554461388880348,-0.084213914652125,-0.05941467171859424,-0.07975512824233072
0.322,-0.05996171687610933,-0.050868032986045406,0.00915353354414521,0.0572067409731792,-0.035394929892934135,-0.02198890512189209,0.06748366690119406,-0.019580895347068673,-0.0792202468447485,-0.08776561081735974,-0.066389648874944,-0.08952316891833484
0.324,-0.053619702833459314,-0.04342681457802606,0.010390171017346852,0.0507217076610601,-0.03401534078745335,-0.017938260888344056,0.05769706577190993,-0.03420616703597402,-0.09976003653678964,-0.09524430308351403,-0.07721257388388,-0.09764341993580833
0.326,-0.060055929499713535,-0.030029186869076945,0.03048620573242487,0.047116451850435476,-0.04782809248454304,-0.0012227818233743843,0.050717996455163616,-0.03831831495784471,-0.09537832714282067,-0.0998297612835202,-0.08356454755047807,-0.09921627263999495
0.328,-0.06370152412201555,-0.0266923475685978,0.03773567172671229,0.04705919175322238,-0.052755837253925554,0.004000719037185469,0.04574090766230764,-0.03291234299107759,-0.07250466668835025,-0.10039951966231724,-0.08450780432991568,-0.0982879268742869
0.33,-0.04984749553173778,-0.03549354098943534,0.015020466238439053,0.04443042347538011,-0.03364364098833791,-0.012234666834433746,0.03966867405970573,-0.027103131192952188,-0.05731639692477275,-0.10056245251290767,-0.08492617170684204,-0.09978254799609242
0.332,-0.024348863901554885,-0.04328958527792182,-0.018703589704190546,0.03557833223067879,-0.0037149459339168604,-0.03363307197256182,0.034986361460299834,-0.026389874400372403,-0.061598234469151567,-0.10171883195347282,-0.0862978716936769,-0.10120644420643755
0.334,-0.008489089266267862,-0.042165461964280934,-0.0338380306367645,0.02719871817320582,0.011614081085175436,-0.0408072430899902,0.03763967392357713,-0.02586987204018253,-0.06998825575935405,-0.10084872728879637,-0.08438948884417499,-0.09685048178456514
0.336,-0.016462262814667363,-0.03851216804224613,-0.022258195055303163,0.02938688194443252,0.0014431954471805777,-0.03256148936490876,0.04812028333311639,-0.016644439032433508,-0.06507209121430232,-0.09525259721276937,-0.0766942900643797,-0.0876796851442269
0.338,-0.0349156093672507,-0.039100286955685216,-0.004206772072827559,0.0386591959700151,-0.017217025342380187,-0.02266923019230002,0.05763492565490439,-0.001810157033603627,-0.05437463151349786,-0.08906839363193758,-0.07012625933276123,-0.08328098584643541
0.34,-0.03190191317757283,-0.04071933768080974,-0.00873960227699312,0.037457706039121234,-0.013431773255892171,-0.024797189431960524,0.05531879345845903,0.002363832191734373,-0.059333898667081074,-0.0914502459562841,-0.07631882499779305,-0.09197710243619098
0.342,-0.0015424418672663246,-0.03780073606633167,-0.03635156770880385,0.020123438836605213,0.01607415201489619,-0.03708536877525488,0.042075235684739844,-0.009633002105161501,-0.08166128331754721,-0.10307666341198354,-0.09418895104570005,-0.10806107363970437
0.344,0.017199996889915154,-0.03188466500557023,-0.04956865096010221,0.007129314475328815,0.03248306748935025,-0.04146619608156371,0.03380051341233933,-0.021574864439618913,-0.09610729378569936,-0.10966799321821241,-0.10450133475414011,-0.11306576874770351
0.346,-0.007709642955558887,-0.02875850487123913,-0.021843529465025224,0.017766438341669133,0.006072617845207347,-0.026847049036968496,0.04300663316360834,-0.016654435949339824,-0.08098499104380771,-0.09835498880122419,-0.09228760574971327,-0.09585527590638512
0.348,-0.05358008738853956,-0.03024830385409371,0.02264607894681906,0.04168265235134578,-0.03953168273322369,-0.0058842293991127476,0.06097849437887039,0.004215733711728524,-0.046894902247093084,-0.07606100244201132,-0.0674667278571621,-0.0681638643564644
0.35,-0.07621342766636521,-0.03259821945133961,0.04340606775973117,0.054612202290162434,-0.0616560730670383,0.0029260434331949813,0.06873825972687113,0.0261887306447133,-0.02636037704620091,-0.061236520236526974,-0.05172834817267382,-0.051827498874951854
0.352,-0.06716188358910574,-0.03222158923812805,0.03512578279187843,0.050407462680299664,-0.0532407805218132,-0.0010775853738442893,0.06132298563475824,0.03324104941504657,-0.036560614589413634,-0.06119592833949307,-0.052205726318655575,-0.05394033234310336
0.354,-0.05061480126795908,-0.030111341394088362,0.02070785802411836,0.041803752373505865,-0.037792271127124036,-0.00651949275605539,0.05020237903673245,0.021236919943586074,-0.06173178489478138,-0.06743357007848272,-0.0588997963845957,-0.06364090796588039
0.356,-0.043870113299347396,-0.02842579575539285,0.015451550427061094,0.03834191846319076,-0.03168936978510283,-0.0070734424244469725,0.046473251730408435,0.002381447229815181,-0.07472098414013954,-0.06960628235999311,-0.06146202849280804,-0.06894293837001413
0.358,-0.045494757533157036,-0.026477463480800736,0.01891255788234865,0.03832319502249053,-0.03394382386218465,-0.003512781143956628,0.051310204102905994,-0.006491050928566184,-0.06555535072848544,-0.06529857255166434,-0.05837610433406696,-0.06684322470859964
0.36,-0.05044067890482997,-0.023367953914424113,0.027040416983266768,0.03865784353937099,-0.03980371955617485,0.0019387173551701862,0.05930676517132954,-0.00029013200762275856,-0.04453374920199506,-0.05842128115120336,-0.0533313308391354,-0.060373014931361324
0.362,-0.05442120504015176,-0.019586615135260395,0.03499661340245197,0.03835797788042415,-0.04495041818151421,0.0068212496061603066,0.06339410943532625,0.010563755642913652,-0.029377508102339835,-0.05477887775799506,-0.05071746251684512,-0.05517160982694388
0.364,-0.0479165323758023,-0.014592016486165068,0.03369605376902668,0.03308088961938881,-0.04086365877103688,0.007808860817095817,0.05850115943893939,0.01243611734590981,-0.03273699412750259,-0.058048295657406664,-0.05343021480156204,-0.05672358508598115
0.366,-0.027854657721388832,-0.008158918588100968,0.0201226764473614,0.020455142981943845,-0.02475223371208686,0.0044149170558913505,0.04744848368422143,0.005432624200964648,-0.05001546657643566,-0.06476933862823014,-0.05893636136112112,-0.06288860337771472
0.368,-0.012312725232314956,-0.0037040582048349937,0.008864165573099202,0.010148347572741518,-0.012223067729502482,0.002087677110651181,0.04143147528361817,0.005049139328339317,-0.05997112297151171,-0.06499349482720916,-0.058603292936481435,-0.06229833405258171
0.37,-0.02157834772899548,-0.005241747254863899,0.016429385786408263,0.014477110274106593,-0.021095843088032144,0.0058521414616119335,0.04743426792449867,0.021916485259472783,-0.04797731551750694,-0.05409464710893144,-0.04739350805939128,-0.048020086647893014
0.372,-0.04743877394100169,-0.010987259698404403,0.03666093009976829,0.0294212337325188,-0.04435734871880264,0.012545943605878027,0.058161068310855255,0.045486249916920546,-0.02566277012684943,-0.04116116680423078,-0.0329620722983409,-0.029107818987480872
0.374,-0.05985108974554962,-0.01463717780301372,0.04571442843691294,0.03731442264331332,-0.05510220972167544,0.013867777056022048,0.06096558856498235,0.05512930509086795,-0.017363257366860303,-0.03897804033196794,-0.028202896363585736,-0.021310022733353907
0.376,-0.04296148264711614,-0.012777542311822782,0.030814521515729946,0.02836577864622975,-0.03865838056755685,0.006596625348113539,0.052943081264500494,0.04350680703481368,-0.027893620585111877,-0.048443400060780475,-0.03585873045673622,-0.028856880401536937
0.378,-0.01169744310764941,-0.0066469772525246905,0.005499174210866421,0.010236862204411022,-0.009540144301631033,-0.002346335903508423,0.04266681843708736,0.02539333609805801,-0.03676261231761246,-0.0577585133229099,-0.046007288854544484,-0.04101271676344824
0.38,0.007545653284689857,0.0010720481364391917,-0.006364730990183788,-0.0029591947019774537,0.006100788912721569,-0.003302720436319678,0.03943521085012593,0.023626235660079983,-0.028264219340747042,-0.05566754970491874,-0.047861449796114494,-0.045776153339516165
0.382,0.004200380660449206,0.007825888447453825,0.0035080981282630706,-0.004886608915039799,-0.001467711756911726,0.005005805901612119,0.043516560431709504,0.045790129607960854,-0.008753142195054424,-0.0426951624936304,-0.040167767094022325,-0.04123598356893503
0.384,-0.009660737970526013,0.012375142051321758,0.021901127839094918,-0.000820665997025215,-0.018585756888063177,0.015199582841707318,0.04741881979684201,0.07584075219246615,0.011222150949961773,-0.028789223415860127,-0.029958185469868517,-0.0320538554023833
0.386,-0.015472361985947689,0.015344611114951905,0.030688126248352907,0.00012355525003409168,-0.02585860877580486,0.02013054339223871,0.044898667253232195,0.08780847035494703,0.027572475037788414,-0.02201268186394717,-0.024015753591613266,-0.022188014217437338
0.388,-0.00748857920862785,0.017196355484692307,0.024417399924657326,-0.004691295722469167,-0.017837058261802933,0.018606674590533896,0.03617934553145672,0.06770216199850194,0.03315885666644692,-0.022228701615449684,-0.023042302230136882,-0.014764610171784136
0.39,0.006229328022014784,0.017200965342481528,0.010598265020007729,-0.010912452680014232,-0.0032689632080130995,0.013420400814043276,0.025465189117482582,0.027108917953000782,0.02197851905545655,-0.024998981330784986,-0.023287940381752872,-0.012313596291412729
0.392,0.017218259778286532,0.01581266615540718,-0.0015490719199992295,-0.015073080319982383,0.008380527191236956,0.007829554654167912,0.01710165409299734,-0.0031838106671917923,0.0018302825610939499,-0.026848289356967845,-0.021694576244628467,-0.012881541723533774
0.394,0.02398750220141903,0.015425317708228768,-0.008233050813559585,-0.01790768822233326,0.014564532439415556,0.004243115004729115,0.01405619978825803,0.0005039889984273542,-0.012580012816030847,-0.025468021977927448,-0.017751208104974193,-0.010881744966810632
0.396,0.028668864454419647,0.01686127742718482,-0.011218187147097346,-0.020678609152168483,0.017675591195766942,0.0027516035208608593,0.015672568401127233,0.02903468095153284,-0.0155339696441092,-0.020490704971221994,-0.012613679224666314,-0.005492571777554626
0.398,0.032790885769854256,0.018685840524530938,-0.013642366737935147,-0.023483404437637696,0.020564559299163877,0.0017478580364522418,0.017017499393953587,0.04734424859781769,-0.011986734140331174,-0.015606341824473147,-0.008851104153598448,-0.0025382641056468235
0.4,0.035399470143857886,0.021788519506482744,-0.013348805607469242,-0.02666466888854073,0.022100478843089452,0.0028806837368316263,0.014865233299639874,0.03618739093709543,-0.007752153997554212,-0.014296914922428804,-0.00794762291330453,-0.003375927287693722
0.402,0.032239470525638865,0.030386495886112044,-0.0016582844184085043,-0.030042144333331116,0.01580771132263294,0.012654040024958261,0.012413325380646406,0.017394028905402377,-0.005374429614832109,-0.01360122551488667,-0.0067437180795007975,0.00036969501930986693
0.404,0.021832134240114084,0.044714755245819,0.022936110555058453,-0.032308155115900475,-0.0004605746821505686,0.03210758223386493,0.01382509552101988,0.02322926617420306,-0.006606163395735792,-0.008014858423975904,-0.0010127083312569585,0.014216816912461561
0.406,0.013151035598399379,0.055947388778834505,0.04251848930018218,-0.033165624709375306,-0.01402568613316299,0.04755583602390075,0.017189583850274578,0.0513923493621274,-0.009914188450800497,0.001460296544751466,0.00750927835759258,0.030313300302119574
0.408,0.01765599323071704,0.056585701038011166,0.03845766434555472,-0.03495864056550556,-0.009927856602778054,0.04538707268520694,0.016242977747869623,0.06843486098217492,-0.010477051809222343,0.007925783004828987,0.012816412777393408,0.03636830431439443
0.41,0.0343900513387379,0.05328215217710678,0.018721497875613773,-0.04138451962557787,0.007807017351088819,0.03317822860938441,0.007232922954632586,0.05234326443913694,-0.010148117997396287,0.007384155674122551,0.012495282738366812,0.030551854396463917
0.412,0.05112581982356612,0.05775616764216826,0.007117994572401599,-0.05275705062049343,0.02147342070745534,0.029611979050715134,-0.006628401094103573,0.01854689140294101,-0.016335875701950265,0.002724104250189258,0.009898916697054056,0.023097478902172456
0.414,0.0591733735994592,0.06881925285818982,0.010580417717041771,-0.06370300854709056,0.02331856546052274,0.03775775363622581,-0.01728182587711168,0.0033397764796968786,-0.026214866137648493,-0.0004906766430718807,0.009150139011123807,0.024645907659310733
0.416,0.061849210023155715,0.07482231511217263,0.01373156013130007,-0.0689094101806823,0.02256890121821351,0.04317799408173718,-0.019373212129499322,0.023500414613627615,-0.028147013308657255,0.0002780367247992899,0.010542170361885381,0.03507995819361568
0.418,0.06580278995796239,0.0702674468572764,0.0046575130217279635,-0.0682422173987827,0.02845618133634261,0.03648201702774415,-0.01465567373102562,0.05501815381628777,-0.021064695687523078,0.0034860565940676384,0.011735322609192253,0.04532966491840825
0.42,0.06982422531507092,0.0625760982311443,-0.00736014950290382,-0.06524461645150367,0.03622348605345974,0.026476127816819944,-0.0087824286013434,0.06117842310611285,-0.01697541358952909,0.006704038892545796,0.012099537147719074,0.04902057412229034
0.422,0.0713392308103955,0.06287693444610894,-0.008346451669020871,-0.06526771289047385,0.03821951704657941,0.026260972639688483,-0.006601529208938231,0.03933516209622688,-0.02225983145562903,0.008778621704183101,0.013292405374554596,0.04787689753450829
0.424,0.07701575362631173,0.07274897733847435,-0.003823417783068881,-0.07306909775432151,0.040134651148116846,0.033616848042067424,-0.009750980219905378,0.0236622013114703,-0.026261694347535454,0.009464895880736178,0.015968596307745643,0.04608290580212448
0.426,0.09469576516120139,0.0839759979965903,-0.010342208371170192,-0.0881768675915938,0.05283722009246748,0.03577602569806366,-0.016109041161634755,0.04037636603113879,-0.01575323103517146,0.009016099232913164,0.018432944615937263,0.045043317077344366
0.428,0.11980320880220488,0.09071029303726308,-0.029093279502623567,-0.10455410309940599,0.07410309354087206,0.029302331176200014,-0.02235480306973271,0.07441877932013095,0.0020493333915073417,0.008166103689613428,0.018930082339135214,0.045160984548760934
0.43,0.13979396297980737,0.09427492008260084,-0.045839629820286734,-0.11608647696127228,0.09160714862991183,0.02236745044130358,-0.027220550663509393,0.0882364641605986,0.005153396256327976,0.007617019456160553,0.017925483172681025,0.047629783433425235
0.432,0.1490678239938041,0.09589873103351874,-0.05360612562801914,-0.12096829258760657,0.1002336012828861,0.01943946391583936,-0.031195517401992737,0.06818436459433914,-0.013609178286641668,0.007128952664944029,0.01718536523665463,0.05115873151485067
0.434,0.1500249955305148,0.09351773161928399,-0.056882193719106605,-0.12002950689016016,0.1032079437516675,0.017139310728205816,-0.03362925972386399,0.038628676922760716,-0.037879219074845434,0.00658289760441869,0.018062834129962055,0.052262776506238375
0.436,0.1432290019882094,0.08804172804468587,-0.055360363665858885,-0.11399625781816373,0.09964690468593347,0.015437919543490424,-0.032206814332453114,0.027288563932973953,-0.04826331576775931,0.007713827978662178,0.021075477875018216,0.05158895012626646
0.438,0.12857801301208985,0.08549117860217183,-0.04304741542067552,-0.1053664606311936,0.08609231031658446,0.019868408806950694,-0.026889538287921164,0.03411099374886209,-0.03852351367919935,0.011416796215913549,0.024907521877497285,0.05357290941240682
0.44,0.11154850689082253,0.0892251525662763,-0.022215835784398275,-0.09856264567512196,0.06682877494026006,0.03139257000364337,-0.021614198776994255,0.04372012261275049,-0.014091269274842708,0.01553439733325446,0.027366124489812634,0.05964667209588789
0.442,0.09894966619547794,0.0956177875289901,-0.003294444326490164,-0.09554616136587538,0.05088230196386509,0.043922056275733874,-0.019809933620205927,0.05029061312099887,0.012464859346228672,0.018693488784106174,0.028848119770103996,0.06763413360233284
0.444,0.09438619418454675,0.09985134358171298,0.005427575615465762,-0.09553847733063513,0.04396626374402351,0.05117613902630869,-0.021300703986529997,0.05610431093226316,0.025625058617865657,0.02181560819542358,0.03126354234806127,0.0751603259744667
0.446,0.09890882396671899,0.10121697474832062,0.002291821528533872,-0.09820112916248748,0.046946592335285954,0.051379076673539095,-0.023853411492614576,0.06163914086910207,0.01820595745264275,0.02465286797959806,0.0341841998750478,0.07976814377559245
0.448,0.10624927107002538,0.1020015187322839,-0.0041145978320848795,-0.10175196352921005,0.05259965367305755,0.04930907418745362,-0.024219768123728065,0.069757634520215,0.0016308262107921716,0.026748306977003644,0.037026738812934876,0.08037748055389933
0.45,0.10172195258614122,0.10482507895336422,0.0034521581158636905,-0.1009388230308551,0.045813950202453185,0.05453515455264269,-0.018643387229382538,0.08583828781819161,-0.0010095114637243745,0.031097973898079008,0.04258422329063756,0.08097026261771628
0.452,0.07901766381099888,0.10993403099350504,0.031326350707596214,-0.09282659230400916,0.02064177938927941,0.07045983300750287,-0.006001166636594415,0.10591782060309414,0.021247255887585095,0.04073170406517932,0.05255297800141434,0.08739167727321001
0.454,0.053903320487303924,0.11283413056309803,0.05904770998185106,-0.0822034717051478,-0.005233825896965889,0.08534496696861688,0.00860988179249109,0.11556930972495671,0.051177869006382194,0.05187076070686091,0.0612743985834239,0.09755686903175033
0.456,0.04855641322583161,0.10868578495051655,0.059767702198702456,-0.07733390566325177,-0.0076552499461057045,0.08392474225095439,0.01602064837331491,0.10552224345950648,0.06050128458055957,0.05560228409916442,0.05950079280639436,0.09966772013825775
0.458,0.06429851753287535,0.09949375961634031,0.034626740770573046,-0.08064517810041456,0.013534319707256189,0.06730308701401122,0.012586203716294889,0.08260986129207863,0.04395838900856277,0.04807337915454645,0.045614603564737496,0.08637188936946999
0.46,0.07936615614996739,0.09111170189865439,0.01143142160494881,-0.08469245052814656,0.03335700744607644,0.051389665943726,0.0057392243429206175,0.06250071991805728,0.024435471291748584,0.035805112958764304,0.029269901476556524,0.06739313875406208
0.462,0.07327523221297677,0.08546103198555775,0.012259869747103112,-0.07939828668053361,0.029939653930781095,0.048161433973792946,0.005342260142912497,0.05513753172816343,0.02328300071311574,0.02905718737075174,0.02143784656022166,0.05911717921870843
0.464,0.04942797898103747,0.08036929770671408,0.03114208839477962,-0.06456966515531262,0.007929241580530124,0.05457895760780228,0.01217788581795237,0.05874192043549228,0.03727224830688684,0.031508575371625894,0.02327393913382579,0.0635517760431232
0.466,0.03376742037729722,0.0740064367276376,0.040302465974332506,-0.052744776786275024,-0.005066589579718082,0.05648252901617347,0.018216646609388702,0.06439189143202963,0.045921530031547,0.036634499606542414,0.026163941525769445,0.06663972100835873
0.468,0.04696789467996571,0.06763280919423274,0.020589046967172717,-0.055840602482070775,0.011291590857283118,0.04408399957196137,0.01641159225362117,0.06402362528710875,0.03658899278898118,0.035205407721100576,0.02190889138132312,0.05798314997962845
0.47,0.07581030729502923,0.06411918937453658,-0.011739926248338136,-0.06873420904855138,0.04197200291192556,0.02573977769281661,0.010153500178485183,0.056303709190117394,0.024195606573378534,0.028170498844173355,0.012984902413891167,0.04480714471142625
0.472,0.08487831120198398,0.06359174403408512,-0.021148047442759135,-0.07300859180420605,0.05120179261693398,0.019636993505922504,0.010824203619443404,0.04669617722358208,0.0365804054098803,0.026456431216778337,0.009401232245292369,0.040861554682446136
0.474,0.0635216056225311,0.06338681397202983,0.00023451963853612248,-0.06163218201153801,0.029707523077444075,0.029959338023938995,0.022101809640239636,0.0399590823568514,0.0708135964403622,0.03372729784348348,0.012857558655465541,0.046299105216276136
0.476,0.040382689797837115,0.061990599260193006,0.022046591037666985,-0.048899441571354924,0.00721311212450316,0.04117552186811431,0.03370251801079118,0.03510399868555729,0.08887397067968933,0.03929143920167601,0.012642308797979175,0.04855356325725643
0.478,0.039639244582672956,0.0595253250188729,0.020126458206157907,-0.04781710070814572,0.008207476600485352,0.039719909572713215,0.036598606472113215,0.032026666621532945,0.07061302227950433,0.03417685172174653,0.0022613101187573498,0.040846687459330844
0.48,0.04871050204569653,0.05607021213399462,0.00731802793453344,-0.051682681079869106,0.01984873348345594,0.030725697924576374,0.03445124838170771,0.036269277582074995,0.04138858110856808,0.023545649293267693,-0.010973151675253074,0.028819177950746285
0.482,0.04276018187535928,0.051713800022243336,0.0088084495992612,-0.046905588411044245,0.01654023034689286,0.027626875945191143,0.03496685237668826,0.05065815434594149,0.03559690840191158,0.018276492408482333,-0.0170224335693565,0.020439343146274803
0.484,0.019927583506693592,0.04518172514475066,0.025199961283306413,-0.031755988558892605,-0.003180533881378273,0.03196867617726391,0.039036296006929004,0.06746050356105958,0.052964060946608646,0.021605286519389703,-0.014898125679286556,0.01776664341078655
0.486,0.0006278243667159711,0.032916168992061255,0.032338447253246826,-0.015491797045379181,-0.016572521790164357,0.030373418284402282,0.04130358323796707,0.07250067776338802,0.06121787123592229,0.02610159804923169,-0.012411329718256568,0.016786620689510864
0.488,0.0008382350823722552,0.015860584241272103,0.015075734270816755,-0.006864089161368262,-0.007639175915414003,0.014267271254480721,0.03752205291798564,0.057885645472138945,0.03871890800066294,0.022890207424192812,-0.01707152518146775,0.012070415422689518
0.49,0.015007850388922214,0.004643512569270384,-0.010365793461764555,-0.008177348477771896,0.012371963065030803,-0.004183662865024887,0.030446017934658204,0.0343020360329418,0.00366737725450311,0.01345733264688617,-0.027128886945366637,0.0030732089779345606
0.492,0.02542464249374377,0.008266945723643638,-0.017187374839114658,-0.015216432866368482,0.020458357103312296,-0.006452510093443059,0.027476178564671824,0.02378374017870038,-0.008095194877047964,0.007391403223651521,-0.03480567234279805,-0.005411899486250629
0.494,0.02188448805841906,0.019874677084124368,-0.0020231901221668645,-0.01961607684063694,0.009926551906316607,0.006903928121483911,0.03229674602843076,0.0324971780683389,0.014074347322667335,0.008919553108593995,-0.03712957617926568,-0.009276921642566598
0.496,0.008461476040004015,0.02312314769302051,0.014671458249243787,-0.014891033344448268,-0.005774992275442374,0.017356485116085625,0.04127082084440865,0.04238190090524779,0.0464077064823805,0.012876364607810506,-0.037367281315818526,-0.008881886076730485
0.498,-0.0063685126764054766,0.011309497069843475,0.017689978802763243,-0.00158200790740386,-0.013960462782238755,0.013228217534827412,0.048745021365377846,0.037378007959558195,0.060382606353016774,0.013736338326443203,-0.03811640241303544,-0.007498725052482702
0.5,-0.018568193054863312,-0.0066691039427872936,0.011921405087001463,0.013742784854235943,-0.01584341059156997,0.0015313604938586717,0.05330053261664362,0.026411300735906473,0.053415223069296476,0.011998527444709025,-0.03932928762652649,-0.008159229199802599
0.502,-0.02534143520132933,-0.018863153458119588,0.006603246396096435,0.023514199160416364,-0.0161115217597369,-0.006911891619901403,0.05672119941811323,0.03143785819820576,0.0465656391256308,0.010190784565592088,-0.041448045425012445,-0.011622954123670185
0.504,-0.022656845810483286,-0.02353966674172603,-0.0005586405834579036,0.02473802718974013,-0.011887214823862912,-0.012918941945395987,0.05880637659383569,0.0550625370418188,0.05383420397856031,0.007269097719674455,-0.04615406176821887,-0.016797822942515833
0.506,-0.01209009159462125,-0.027792394377745,-0.015277778612771945,0.021558831940089906,-0.00019619968735512045,-0.02302658924913111,0.05702423718443984,0.07020504345437846,0.06369759806969198,0.0006015935550216526,-0.053854634023631165,-0.02309663164062561
0.508,-0.005632790034791353,-0.03553974775285487,-0.029648733052594183,0.021891357966600293,0.009855700647892514,-0.03430009523565965,0.05161392014381699,0.05247632320784973,0.05551836546421501,-0.008006273197562185,-0.06139088970074934,-0.0301200140437968
0.51,-0.014577581975656645,-0.04157246838221145,-0.026998385455470432,0.029130564874245646,0.004420885547660429,-0.035323696645523525,0.04682780078846445,0.015301394237342492,0.026404026257994175,-0.012916674039961412,-0.06453721978720779,-0.03494134076421357
0.512,-0.032049009944732094,-0.038797165341375485,-0.006763988806397355,0.036703865094198956,-0.013853177012720408,-0.02317922560331241,0.04498510756770687,-0.006157292921209092,-0.004753320739298817,-0.012828599724096033,-0.0645073231117203,-0.03505669556634847
0.514,-0.037666978051915205,-0.028021835403136932,0.00990857180915672,0.03473771159274676,-0.024812385838790314,-0.009654413547024919,0.04321924638656398,-0.0015151917168439047,-0.01884431383876872,-0.01386819926359105,-0.06791040074369536,-0.03430189870300987
0.516,-0.022103044797576514,-0.018224172935533592,0.0043479753321578425,0.022444997478153723,-0.01453759969439725,-0.007981506526534479,0.03849567491551137,0.006491319385711285,-0.015224962824414424,-0.021588298877677145,-0.07779063120393119,-0.039513266888532156
0.518,0.0020375985878696374,-0.01740822216582596,-0.019133263330388714,0.00974315488925217,0.008845520935460502,-0.01912553962814232,0.032797214701952536,-0.0016505709544393909,-0.005842448263106648,-0.03340406364766064,-0.08922281115103019,-0.05069717775826529
0.52,0.012861016620167727,-0.024904031901427575,-0.03778847600902408,0.007569287582851448,0.023213541698645826,-0.03179854374552547,0.03201899196502071,-0.01798812647485236,0.0004213212948305479,-0.04095682497967828,-0.09472005103937223,-0.0590244955413922
0.522,-0.0004757130302620705,-0.034524461607288115,-0.03422443704416289,0.018748645280659924,0.014535134662229825,-0.03525028845536774,0.03975951337128349,-0.023909082204329676,0.003009752916000064,-0.03852951117711867,-0.09112567812183729,-0.05701074415248862
0.524,-0.025838277219225457,-0.04172243881779278,-0.015962878631796795,0.03500947143957528,-0.0071725282421338885,-0.0308683794111915,0.05083580337698193,-0.01792595079304763,0.006275848263355463,-0.029868423398426346,-0.08328381214806178,-0.048894981519018874
0.526,-0.04022607994876077,-0.043967813327424804,-0.0036867138561513415,0.043430453105201786,-0.02009223102498641,-0.026608540277861973,0.0548201314460582,-0.014104414492052457,0.012779014878798182,-0.025170405251863006,-0.08098708041054688,-0.04541872276832296
0.528,-0.036972165694569084,-0.03985099278128988,-0.0028097100399699726,0.039959036503353466,-0.018563097090808736,-0.02389866674428216,0.04866861942385177,-0.018264561242727118,0.017424719782693242,-0.029415872358640537,-0.08865833918319602,-0.04899938297860499
0.53,-0.0295066840736094,-0.03233235316577848,-0.0028222935598877963,0.03269485723753261,-0.014916142407360014,-0.019450044527293504,0.03950465533824142,-0.022553512324505285,0.01131668833108934,-0.038364077161891545,-0.10049274125842693,-0.052327036458704915
0.532,-0.02722193622790396,-0.028231346105309914,-0.0010453646981789001,0.0294146778334297,-0.015159011734283688,-0.01603739460970606,0.034228335427018454,-0.022378404125294404,-0.005625693323085004,-0.04622570330111036,-0.1081370546995639,-0.05141392010114695
0.534,-0.02396576645493958,-0.030652976389449395,-0.0066842837534464485,0.028529936701628532,-0.011134015530868398,-0.020026296299374382,0.03306497018566507,-0.02416232694155626,-0.020835041599431097,-0.050833057530655555,-0.10946905489081728,-0.05103626819145966
0.536,-0.01272355392231631,-0.033843002749286095,-0.020977612349538256,0.024029139745139753,0.001753060933249109,-0.02901775810160961,0.032709389825663425,-0.03375823003288306,-0.023112216119331452,-0.05273336354121398,-0.10845683711140754,-0.05591220122045831
0.538,0.0008667525592566809,-0.030410312395240204,-0.030934251463257897,0.015437528500652269,0.014195850853380309,-0.032677454632253786,0.03141556006151624,-0.043238251819897884,-0.01436233559041759,-0.053745180505945296,-0.1088519275672019,-0.06369292783851917
0.54,0.004287854026194236,-0.023582729507078785,-0.027446366454322,0.010747596314702703,0.015090342079425138,-0.027861737964705105,0.030520842406294393,-0.03844047334158191,-0.002999500990484079,-0.05455666736685232,-0.11004706009843505,-0.06882003001782154
0.542,-0.007273192123853185,-0.02344096090419814,-0.015919858381252212,0.017006382639986918,0.00434625091992038,-0.021996257431407897,0.03214814046017477,-0.021494020558113662,0.004047294090914803,-0.0532553872559578,-0.10926792969914045,-0.06807854510161705
0.544,-0.025549676393626135,-0.02952534656296271,-0.004005867581987614,0.02921171098305314,-0.010514382814762323,-0.018623532669195565,0.03623368694502919,-0.01011004480671195,0.0002939062519241726,-0.04889145260068355,-0.10619044929574056,-0.06174322300222158
0.546,-0.03424840681324831,-0.030673754886852016,0.0034308584404240065,0.03357702121197684,-0.019140474876796924,-0.015094586797585836,0.03956565889234681,-0.011631669346754903,-0.015629040490189716,-0.045093975409450544,-0.10421361408809479,-0.05377380164822984
0.548,-0.020368579234296316,-0.025865450399230355,-0.005556661292832706,0.023635132902430463,-0.008787665309221065,-0.01738086877289431,0.03848665165883764,-0.015874688340155905,-0.03312577262858103,-0.04655624409521789,-0.10636913659117829,-0.049237927255134054
0.55,0.007932556759682676,-0.027674136301286296,-0.035560020058972026,0.010264074692898802,0.01955935255514215,-0.03381745681165831,0.03392067170726418,-0.015566335832585118,-0.03832495923115495,-0.05213755153680449,-0.11036039691545996,-0.048269487398880526
0.552,0.01954773656727283,-0.03897263126021241,-0.05846555951868237,0.010681745141859869,0.03694482656827142,-0.051010001456212525,0.032091866885293516,-0.017422206582253606,-0.02686430024421347,-0.05411921874257713,-0.11020578477938824,-0.045619650698294795
0.554,-0.006702145626248069,-0.04642708605094277,-0.03972384468735737,0.02859192911589048,0.015003592039800505,-0.04462465975918901,0.038273443179626165,-0.027233627171276028,-0.0061067600246403455,-0.04630888998227006,-0.10323531322690054,-0.03796779015036485
0.556,-0.0539136416911571,-0.043006136548904575,0.010878269065958639,0.05127686503262434,-0.034070784545841004,-0.01652316899974078,0.05046236425545815,-0.036823723729904494,0.007878543606678895,-0.032820381562139525,-0.09362934000683344,-0.028770832942240903
0.558,-0.08469186084878448,-0.036924694020329565,0.04775260645408196,0.06342715294329326,-0.06887147351813372,0.005372037630556618,0.060300169433039084,-0.036113203589612806,0.002325495133233921,-0.025322992191153654,-0.0885865733453811,-0.024986702851992983
0.56,-0.07717197664123818,-0.03535995963863964,0.04182099817674394,0.057836148645131195,-0.06282815631366315,0.0024340767026624277,0.06033450075750321,-0.027548525292171284,-0.01780114892819453,-0.030090365843287652,-0.09167995103010636,-0.031052205389174924
0.562,-0.03786779834277665,-0.03629140939573635,0.0015886179133314767,0.03783881771200115,-0.022743795875332398,-0.019267206396838904,0.05051106531771468,-0.019277590916735338,-0.03610813069530754,-0.041498015554233623,-0.10021096054842941,-0.04530916299831598
0.564,0.0066064789125850855,-0.03739614042235148,-0.044001679296000136,0.01647615289228083,0.02327492518800844,-0.042824748099113005,0.03804840347519975,-0.014706382807506836,-0.041742192479858324,-0.04924310868030587,-0.1082653520746626,-0.059966794592990987
0.566,0.026064433028943464,-0.04024328175401253,-0.06631393848775627,0.009035270782933254,0.04521543594125008,-0.054539772329238026,0.031101177139619657,-0.013708807340640226,-0.03374605992844411,-0.048178930957927246,-0.11151571834222296,-0.06581846987095255
0.568,0.009083256484481383,-0.04353509663257295,-0.052621838588202935,0.019181848201542284,0.03062775391769557,-0.04840761023935566,0.03248490151820471,-0.014728632270023754,-0.01724885448613626,-0.040528679115022594,-0.10952862709920126,-0.059358877818737665
0.57,-0.02609530105377273,-0.04145941968264132,-0.015384326690573153,0.034829847433976296,-0.005345341318835306,-0.02868382768661192,0.03930459643477269,-0.01304131098479452,0.0001532502174237645,-0.03218495098293932,-0.10465107219363978,-0.04584735820055938
0.572,-0.050769709040251826,-0.03258884770979314,0.018030335090449694,0.04238411304363952,-0.03472869572309422,-0.008246268979223367,0.04743584733716251,-0.0027143615007323638,0.013826654950191808,-0.027637467092173136,-0.09927490528747306,-0.03432935563831761
0.574,-0.05470670664264585,-0.02376605722728872,0.030482273213394452,0.04082869317513769,-0.04375241681586003,0.0018815883094899873,0.054360860881014855,0.014249969632465047,0.025975764715015313,-0.026776890911526963,-0.09461776084096556,-0.028901170909126285
0.576,-0.0483669825270495,-0.022136733883242898,0.02547890630782062,0.037760629285791596,-0.039042236625171804,0.00040997611625044205,0.05742357147731359,0.022584496363416764,0.03904437914349732,-0.02764320422845475,-0.09251864267631967,-0.027261614951620505
0.578,-0.04188415165973696,-0.027499776492693587,0.013705403994767487,0.03688757895207737,-0.03034495342080607,-0.007785058562883065,0.053024915053859346,0.007755220385018232,0.046168949638829906,-0.031052032556309856,-0.09595145071951618,-0.02780183393845671
0.58,-0.03546960081985497,-0.03335087299676093,0.0018891857072932813,0.03544705580819907,-0.02073470541095565,-0.01662232870419397,0.04130383433790861,-0.023611007271551257,0.03777668090628158,-0.03781475326697882,-0.10453135036550851,-0.03192363806699801
0.582,-0.028926165119789262,-0.03339872521105262,-0.004300484364108508,0.03133970402407796,-0.0134258742049709,-0.020020083950574044,0.029607045311266147,-0.047510412329912134,0.016110300529563356,-0.0437316596925566,-0.11203090027365163,-0.03815124599541704
0.584,-0.025521952135165143,-0.027137189494243815,-0.0014280527785784777,0.026356108904323574,-0.012826280436888554,-0.015895178760934575,0.026656973206291578,-0.04719732377900915,-0.005940238508543262,-0.04344094613902955,-0.11281338050607098,-0.041173715268418155
0.586,-0.02769824360465036,-0.020153662385375918,0.007430074162953761,0.02429333890816812,-0.019098969831700664,-0.008387131061520812,0.0338785074791685,-0.0258729428843298,-0.016839034913744104,-0.0367838134616634,-0.10796198053376457,-0.0378458751351883
0.588,-0.03741283021274218,-0.01849171890535285,0.018490950597866884,0.028880693137496655,-0.030570004834327546,-0.0019405636491057075,0.04455040980790306,0.0019956893813844745,-0.012650009063900198,-0.027999375343035395,-0.10207654722437098,-0.029716033690534525
0.59,-0.05155515358011712,-0.02041888150056361,0.0306332066094028,0.03730317679806947,-0.04391549362207963,0.0037763246183973092,0.04937785518410336,0.021753757657752167,0.0011295200271100444,-0.022390545233870116,-0.09892181971634799,-0.021957863307973523
0.592,-0.05903981361996639,-0.016800838593490294,0.04187969690240276,0.0392219063925899,-0.05225103722907463,0.011678399853926331,0.044533953479502744,0.024737364109497107,0.013143281251284378,-0.022857919186767425,-0.10023846008153645,-0.019823560256824954
0.594,-0.056641722736511906,-0.0056746290193425775,0.05071030404661348,0.03242047815038582,-0.05404777391066524,0.021435576413844103,0.037688899598045944,0.014313004136984152,0.018202031189586812,-0.025048381277951434,-0.10257509161996307,-0.021463786769288284
0.596,-0.05534760512465153,0.00025602791958780687,0.055333264175901106,0.02909426193836927,-0.05505282687627034,0.02613751626594235,0.040261084678120854,0.0032572044002470678,0.019710736040032432,-0.021185902278125533,-0.09955339738500887,-0.019604693342123163
0.598,-0.05917522732832417,-0.008962671873245858,0.05002073826112844,0.0359610480112522,-0.054755404689240894,0.018822140077953,0.05057430845676497,-0.0010445573398112878,0.018243094455996423,-0.012968264235823085,-0.09287771065279277,-0.014564090567305132
0.6,-0.056991163306312646,-0.02367660938978784,0.033433608317727084,0.0424083301010542,-0.046249147637819524,0.003716119153210004,0.054972797531333585,-0.003589566972912997,0.010046594917785926,-0.011031271015026569,-0.09217944143505614,-0.015482462773371354
0.602,-0.0452582149239001,-0.027640998836441676,0.01814851933644882,0.03871421322096039,-0.03315237783971589,-0.005746221491909602,0.04865969727998058,-0.010142835224970967,-0.002697287979610529,-0.017610815711988893,-0.0994323125776504,-0.02467166482003901
0.604,-0.038078257760501125,-0.020743282989013283,0.018024687590873244,0.03174180009992701,-0.0293344363079487,-0.0030274152116449484,0.042106417254038575,-0.015681126065462066,-0.009485542378607638,-0.022381663833759176,-0.10515148314844217,-0.032425707343029714
0.606,-0.043690887739313,-0.015907930376597185,0.028141052503201983,0.031695138707512734,-0.03716900145492804,0.0037865446595012012,0.043037401503481156,-0.0110637505741723,-0.001901532115398122,-0.01934862981856681,-0.10348167349515121,-0.031769939012941444
0.608,-0.04913593898884951,-0.018431146513219646,0.03059777332303472,0.03488074091929566,-0.04157094176682969,0.003928944964654213,0.04587926210350818,-1.7469993718355965e-05,0.014625050554438837,-0.0149273224970732,-0.09961987291946722,-0.02742470063642117
0.61,-0.03852370118679956,-0.02060203210689999,0.01780788175101051,0.03001853096671114,-0.03013368759868743,-0.002828324846930186,0.0436885487053645,0.0008493773068846978,0.023322058268297165,-0.015843257367402382,-0.09986756561528448,-0.025547113226783814
0.612,-0.015287387997244998,-0.015475412327032458,9.114050129233785e-05,0.015688503406016078,-0.009083494913867406,-0.008717681077281074,0.039340719005386444,-0.011686465241096467,0.014818675774682256,-0.019313670589360312,-0.10276097980077403,-0.024174407016274494
0.614,-0.0002862874374157363,-0.007418994149712955,-0.006600816830902839,0.004499408196841735,0.002694682966145767,-0.00839247886478454,0.040195048156037874,-0.015398328951939771,0.000364582647685078,-0.018329910832883368,-0.10215416101959332,-0.018743832182581088
0.616,-0.009415507540609961,-0.007083343251165507,0.002797687745739336,0.009365129926239207,-0.006206463698832165,-0.004338008923050695,0.04784888432064063,0.0052117699360491685,-0.001662376804780129,-0.011172094834711207,-0.0958440388401184,-0.010859950268723082
0.618,-0.03432221951806419,-0.018328446114792507,0.016251242183186836,0.027599174390825126,-0.025602846056272475,-0.003718132177227844,0.056554780531852596,0.03175650081967873,0.010080270332431453,-0.003524097890598785,-0.0892897580335942,-0.007154102035301866
0.62,-0.05012907940280938,-0.032592306795389187,0.0175102978521118,0.04240837829531507,-0.03436502436824883,-0.009949675738854526,0.060420584796272214,0.03811691104606862,0.020838513527882643,-0.001874323636163216,-0.08921329278317877,-0.010530035474312546
0.622,-0.0441656824042616,-0.038927026916613705,0.004888252352669369,0.042402825098545684,-0.025285868240758617,-0.018871430989154652,0.06012230862619592,0.025912044419516483,0.022552166998098803,-0.0055185269506362825,-0.09480645278012532,-0.015446390714202762
0.624,-0.030238383133814144,-0.037082957090637816,-0.0073297324689666115,0.03490183242508846,-0.012642901849993407,-0.023775797028866272,0.06023154326319241,0.012521538028302737,0.02365058312877798,-0.00777775323107642,-0.09954161618471448,-0.014850632119817804
0.626,-0.028396853625642798,-0.034450973320606426,-0.006334223351106812,0.033569454935746104,-0.012682204766227423,-0.021780155175837465,0.06157075231976256,0.0027465312663224367,0.033373780014091234,-0.0051610030587011585,-0.10039760166105886,-0.009677221675870467
0.628,-0.03836133295995497,-0.034093463420784224,0.004312870498273615,0.03901797680967163,-0.023073577950394886,-0.015942031511919034,0.061218090437374355,-0.006098561622146702,0.04354534091973622,-0.0006810417123889249,-0.09960290486098825,-0.0062035599848275615
0.63,-0.044972277650027564,-0.033424824481020056,0.011715782294531567,0.04172482234957812,-0.02960715698731489,-0.011658266911207745,0.059553681792204945,-0.010707011817495178,0.04059239415297114,0.0023811474160428604,-0.09842522546211291,-0.005434852898363601
0.632,-0.042880957353124596,-0.029850562946935492,0.013094194616890516,0.03797883467133543,-0.028647723658635944,-0.009076880109660283,0.06141374121075461,-0.008818278004757239,0.033405597732931405,0.005108839309556897,-0.09536108245489208,-0.001795146569909473
0.634,-0.03983765880898921,-0.02325221761535957,0.016505497549323185,0.03252601796022323,-0.02895932525312491,-0.0037682477933348463,0.06789637618575317,-0.00220842867069627,0.04149538134539558,0.008642278042555669,-0.09136282165118098,0.005875059021287468
0.636,-0.03799774060144934,-0.017240804795181707,0.02056321305100167,0.028703312908115237,-0.03104373562754111,0.0016445612122268733,0.07197145315530629,0.008359011585008836,0.05923963808927902,0.008646290974333797,-0.09193703415923174,0.008870017896793592
0.638,-0.02905172855775625,-0.01700319461929317,0.011722555262621203,0.024391578357712877,-0.02279698293463125,-0.002804665821932495,0.0676992252978958,0.018325426903156736,0.06585324559894895,0.0005979180487743266,-0.10005165483651261,0.0006651867303169786
0.64,-0.012055000933041264,-0.02243833095741914,-0.0107713475228082,0.018585994293420192,-0.0023012663420884302,-0.017536584565648994,0.05951854993019135,0.018917766471727385,0.05909045782592241,-0.010956835841190173,-0.11043912967400935,-0.011607823978172277
0.642,0.0007423357712772757,-0.02738307731169483,-0.028387160725984188,0.01472554615237241,0.014455973161982216,-0.02969955667668828,0.05495740572796988,0.00842596602189534,0.04837322538601403,-0.017146361244179488,-0.11658479766110862,-0.017207921609255352
0.644,0.0026307150643082,-0.02735468764333043,-0.03008044626861699,0.014198133695610769,0.01694500898057791,-0.031134047142011914,0.053240047867655745,-0.004981965803636716,0.03495884727280313,-0.017168859901680534,-0.11925851069895256,-0.017283790395101136
0.646,-0.002136911049771185,-0.023560658709587318,-0.021488049877967,0.014929114277352728,0.00944261896623376,-0.02518060894059156,0.05045388848005801,-0.010863874018161947,0.022097192696969033,-0.01604926216442369,-0.12102222273912998,-0.018662687162584107
0.648,-0.015083567957353921,-0.01988102373248985,-0.004807982712706282,0.01915159731139728,-0.006637804472733449,-0.014908105572219712,0.050037823211715494,-0.001115199277773783,0.021082206855676296,-0.013050182920827241,-0.11793508680919061,-0.018754934879211788
0.65,-0.03798154985405652,-0.018770644014823864,0.019492495611898548,0.029232421280755462,-0.030567829553148778,-0.0017906369084229748,0.05595391499596709,0.022848468152639027,0.02957105458592779,-0.005568169779936458,-0.10771879644654495,-0.012199356266553153
0.652,-0.0512912112835662,-0.01895344762391678,0.03300315961899637,0.03535081541963737,-0.043360127991605525,0.0055154054217500656,0.06114175896703992,0.04163918662499779,0.02619818709241189,-0.0007512555395637352,-0.10045406765475702,-0.0062375325378473375
0.654,-0.03453422850437434,-0.018359053926394513,0.01690962433571306,0.02672197516962309,-0.026580668485350567,-0.0017276744465409488,0.05678228406860777,0.03529439394678469,0.003296039296498368,-0.006667243882127986,-0.10616461977952849,-0.01104041835486135
0.656,-0.004602628076463589,-0.018607706832633873,-0.01371046417837529,0.012579579338938116,0.003029402876463322,-0.017251811508042666,0.04773868988822921,0.01275273541239175,-0.01580922278829474,-0.016482286699339717,-0.11727854037302238,-0.021135490809590155
0.658,0.002625099964646209,-0.022019474451404765,-0.02493162620317771,0.011344456714985712,0.011294727552754196,-0.025330590677561236,0.0457536125706817,0.00199700090843975,-0.00932358412859561,-0.01713495548870359,-0.11918517465790765,-0.023515148736502095
0.66,-0.018726973294758587,-0.02632456386507669,-0.008020195812490962,0.024168142152670852,-0.007992480800242454,-0.019968064383927633,0.052363013773107134,0.013271465257918384,0.013459719603356932,-0.00819215525903746,-0.11193267936535876,-0.016805921832548018
0.662,-0.044602615005733585,-0.026815762525323455,0.017777429257195006,0.0367518336632379,-0.033315951862426446,-0.007670823667157059,0.05950305875781354,0.03131907421025125,0.029545822541095706,0.00012743201547046033,-0.10672653723269067,-0.009224335848439317
0.664,-0.05853647100907578,-0.02296499179226449,0.03605776197215618,0.04136805517245665,-0.049157314488129086,0.003999308091854164,0.06239723795294485,0.038419458465048295,0.030103041744889644,0.0020337430398711504,-0.10745724039964466,-0.005177221955790864
0.666,-0.06159671469896791,-0.020198607962091435,0.04197777828269653,0.041995079270453234,-0.05375853770257926,0.009389129713612674,0.06140680182308982,0.03015391969744472,0.02184373870578122,-0.0009922304755601407,-0.1099196101665591,-0.004184369626501384
0.668,-0.05553520222212593,-0.023385884971666722,0.032374779087720934,0.041649445615359194,-0.04580457070494893,0.003559478512693668,0.05577448985478201,0.01323385221662754,0.015580017452209364,-0.007127737834584322,-0.11363175892655786,-0.006526571042730415
0.67,-0.040510197488329805,-0.030271542868364344,0.009992702662537144,0.0380461077727033,-0.02665352891166856,-0.011142254333201467,0.04608143685171034,-0.0017426345519235113,0.017583258857646587,-0.014482487900440561,-0.12137511516247292,-0.011527945929120825
0.672,-0.02451285724500314,-0.034501755863621864,-0.010500406650073403,0.03141213457833382,-0.008174519189071269,-0.02352505669056194,0.038320135849041266,-0.010054012074819988,0.024362340703215864,-0.01912582278615089,-0.1310279679524507,-0.015450315598378101
0.674,-0.018487736546643648,-0.03337211369450225,-0.015340107582708172,0.026719542308235866,-0.0029071260191643024,-0.02500648707817397,0.037552371013592975,-0.01740237336960981,0.026498487110086427,-0.01929718942277604,-0.13679977644767166,-0.016840324623798107
0.676,-0.022484822619698138,-0.02918568983329819,-0.006896975100756198,0.02611263328493369,-0.009161932224747439,-0.01825962954103672,0.04177268029522222,-0.026734306010938142,0.019934197309450886,-0.017927551517476718,-0.13635142410239448,-0.018815293604695915
0.678,-0.024026241887409507,-0.02522270816710579,-0.0012233256808552465,0.024956248331171032,-0.012217059353300511,-0.013274930595119257,0.045264622794595685,-0.027745596650567632,0.011101040500030069,-0.018970469250485927,-0.13350640766430485,-0.023004278511088563
0.68,-0.01165326859748622,-0.023446773043021566,-0.011860671788129464,0.018113978411545467,-1.008655287006532e-05,-0.01791527466194484,0.044043121172035585,-0.012940213359355935,0.009454856462931366,-0.023729173584980712,-0.13514830626845192,-0.02692352838803404
0.682,0.008978659520043899,-0.024243654216478516,-0.033293206604646595,0.008454416924428382,0.0209748431317831,-0.029668322500833007,0.03909282540944665,0.004906363428546064,0.01428622177359649,-0.029429538612912632,-0.14354763096781997,-0.027885078092010632
0.684,0.016407178551252986,-0.026118658254656174,-0.04241429068833287,0.005716272052703478,0.028372997603678257,-0.0358998170909463,0.0370439606858287,0.007868832964699547,0.01393201746129684,-0.029959891066092734,-0.15132466033901812,-0.02478483989825778
0.686,-0.0007833341236783082,-0.02676570937669026,-0.025740842205791422,0.014291346845360837,0.010646164136856344,-0.028126162465008177,0.043092257213515825,-0.0014569521200364722,0.003314026705696946,-0.02194328017900123,-0.14966919417920044,-0.018376102064302745
0.688,-0.027394530816108868,-0.026169594416172073,0.0013560096401045096,0.027029998477644656,-0.016326124407099997,-0.013979006809933055,0.05251280571387585,-0.006186750893571097,-0.00768328356906341,-0.010912786583472259,-0.1405111478717641,-0.011970094150794575
0.69,-0.04148967729002107,-0.027191461396674825,0.014242369625833086,0.03487750421540951,-0.029561663352932175,-0.007644236429263722,0.05540858772579634,-0.0018673651530287975,-0.009332083875374233,-0.006510621092813287,-0.13367533314656982,-0.008795767392555085
0.692,-0.039462138995003525,-0.03192288087264084,0.007458644898181289,0.036696729213157975,-0.024977629514309086,-0.01317359971927498,0.04874433026312044,-0.002528696434426334,-0.002149299095575192,-0.011446606998747952,-0.1344488708809452,-0.00901802983874358
0.694,-0.03202458111206338,-0.039674585459602854,-0.007540302972268207,0.03695657397861947,-0.013832249416614517,-0.0245376503098007,0.03835294349758288,-0.019925660942882194,0.008397641862597475,-0.019755688133810134,-0.13967650553877142,-0.011057394693014042
0.696,-0.025402727713594073,-0.0473417333788664,-0.021566439456060807,0.03750443180014624,-0.00361808783202144,-0.035530876640463546,0.031343094401237365,-0.04310957589823204,0.012611775321143671,-0.02553286903329403,-0.1442973198448379,-0.01489664628560649
0.698,-0.018015286105741702,-0.04929641717182849,-0.030824929598197142,0.03511049877880988,0.005156610034028527,-0.04128994616758718,0.030010011202700398,-0.04738683524403102,-0.0001285059000625779,-0.02869659122609125,-0.14756715200422826,-0.022325621401851587
0.7,-0.013269466131971787,-0.041606978563316056,-0.02809041476499922,0.02913316945229376,0.007239644660552967,-0.0361019418235097,0.03217199013703171,-0.027263955019645236,-0.024958457386489094,-0.030905967376641464,-0.15121731635753857,-0.03170223823750837
0.702,-0.020505286912669948,-0.02956363070673707,-0.009106363516636112,0.02643634868123202,-0.005138355567636954,-0.020529654380644826,0.036166209140181343,-0.0054311644208350765,-0.04007839569106232,-0.030356689064698638,-0.15374198672660674,-0.034855974767491735
0.704,-0.0380846896500778,-0.02451738884435803,0.013415426025126236,0.03201787554866272,-0.025649170887214304,-0.006871603002426474,0.042860543438740475,-0.0018652392938216778,-0.032008945894880986,-0.024607836916818143,-0.151377229623137,-0.025462497544753965
0.706,-0.050782911316188166,-0.029926979111962463,0.020802001225345083,0.040432300947451594,-0.036953761853778216,-0.006387338842115842,0.051517515100686424,-0.010308163545545083,-0.010113088670051881,-0.015547626680407059,-0.14450610564912864,-0.008625957674490578
0.708,-0.04972221654772658,-0.03751416255825893,0.012261934958969831,0.04340979575048935,-0.03298918339862556,-0.014955116458937252,0.05777786721186885,-0.012746550857610651,0.010009522401199261,-0.007957269671663509,-0.1384512552941623,0.003931083146211337
0.71,-0.04202563764385844,-0.03911216459162385,0.002968527406001646,0.04042843861734289,-0.024094244239787378,-0.020132888992995694,0.05768250279926623,-0.006762380328023146,0.023475635286038472,-0.005542885580352691,-0.1376724861801013,0.006063519203845696
0.712,-0.03785012052267495,-0.03603267891150144,0.00181472163507357,0.03697193345823549,-0.020298779227394308,-0.01804673860455752,0.05150464243782591,-0.007147440741285925,0.02991522531048766,-0.009421432166621474,-0.141995978683045,0.0009223744943925867
0.714,-0.038839915967267546,-0.03568990544434109,0.0031188176134031684,0.03740559535730739,-0.020996552327533426,-0.016265247344678123,0.04353175955594026,-0.021018712021528812,0.024409188456980598,-0.017553271353573104,-0.14815473524814435,-0.005218576349960028
0.716,-0.042265805736900246,-0.041806063684002866,0.00044632928166874933,0.04244368243970138,-0.022336208960932868,-0.02074338538100828,0.039301750810521306,-0.03697925870233321,0.005920732464278771,-0.02521760547511881,-0.15250145019218986,-0.009606928313448027
0.718,-0.0464309618367226,-0.049955864175515244,-0.003514305131755327,0.049305971272922494,-0.023968252133082787,-0.027470503949291854,0.04136034758201092,-0.042868729781193125,-0.014360885805559739,-0.02817715275929691,-0.15313364755732353,-0.013323392862278547
0.72,-0.048090222497416436,-0.0543200698183546,-0.006239412344556462,0.05310550121954562,-0.024226792168132835,-0.031292431731174186,0.04610071401316188,-0.03785110472604344,-0.025152527116314313,-0.026225045073317223,-0.15204985941850682,-0.017340944769204322
0.722,-0.04352257122576461,-0.0555730464429253,-0.012203602908466617,0.051587004240673945,-0.01868212141426886,-0.03468999777909397,0.04772977765644866,-0.024670093152483016,-0.028329034002136468,-0.022620791845400345,-0.15294553258377383,-0.020286761223297863
0.724,-0.03579347745441026,-0.05767722368821789,-0.02234917225747138,0.04826734667993515,-0.008915025437232502,-0.04060932422160499,0.04644279673258854,-0.006695341995097481,-0.029315255887484046,-0.020015208834271377,-0.1552624241342956,-0.020162443633175136
0.726,-0.03361053618999352,-0.058830887445401416,-0.025973640988204507,0.047346771160697826,-0.00521685661447643,-0.042903100080325864,0.04700809254537905,0.0054195479842999925,-0.025894069040262296,-0.018973701869865852,-0.15535543344980798,-0.01803057399141578
0.728,-0.0383129431034197,-0.05263401204568707,-0.014997123057957024,0.04665652906639849,-0.01266179526661876,-0.034197232551950126,0.04872465119846653,0.0005029171162409746,-0.01852777889875,-0.019781528270816043,-0.1537741207074865,-0.018539614736347795
0.73,-0.039540913005914,-0.04062056810793454,-0.0013067411768018335,0.04141402036419665,-0.020203302009917958,-0.02130077168686323,0.04583993229219155,-0.01646159239299284,-0.016593708340516333,-0.021994924002917735,-0.15433488415233249,-0.023441751918618768
0.732,-0.0318356155344799,-0.03394719057150232,-0.0019399180900232917,0.03406473722024614,-0.016380276273762512,-0.01852297490546389,0.03907294243136342,-0.027071938609391756,-0.024217700110749932,-0.02279700208445316,-0.15665463992106654,-0.026451069946995913
0.734,-0.025349041244162516,-0.03791059574627335,-0.012353970651186987,0.03238516941112996,-0.00820521711417033,-0.026131586740608535,0.03601980162848536,-0.022952574696028613,-0.034120559822505114,-0.020250682143402105,-0.15714087261707582,-0.021410625073562888
0.736,-0.028714163493659062,-0.04558177220909098,-0.016851307221709504,0.037683396419455145,-0.007694733574459838,-0.032234982858155445,0.03852190759241192,-0.018249618617765875,-0.03813203937501537,-0.01793364968736952,-0.1566319492306913,-0.013571729103558715
0.738,-0.0332239926271111,-0.05024969586712005,-0.017127846557756756,0.042713870723785685,-0.009871872122013532,-0.03401948256499224,0.04015036143005719,-0.030646646579289477,-0.0317228113662327,-0.021384533621053047,-0.1604002739920935,-0.013683624048541667
0.74,-0.027664778236984967,-0.05489156814335551,-0.027306687564877606,0.04314641352489585,-0.002252585712447384,-0.04065992161264149,0.03765171627935072,-0.054208050033097095,-0.011930275315352451,-0.02954741684018752,-0.1700520613786176,-0.02209708949388833
0.742,-0.020365919747488758,-0.0647392365974828,-0.04447711210011694,0.04477374976753666,0.009887857800388727,-0.05407645354110076,0.03612819091973837,-0.06345308566548315,0.015845872940266004,-0.03395585723301416,-0.1789588248628659,-0.02685643942948231
0.744,-0.0305459236743198,-0.07508580393625834,-0.0448226780212268,0.05422456150505687,0.005484687768098162,-0.05991676729930958,0.04112863300115197,-0.04402315657435478,0.03256410210723313,-0.02783157836215036,-0.17776920061428939,-0.018045325941919065
0.746,-0.05553846023994295,-0.07518644264095921,-0.020042336550887767,0.06559056142416554,-0.0184770493689712,-0.04810872607457016,0.04982180952891416,-0.010032308636970454,0.02358908162088328,-0.015289732845519186,-0.16629117113557865,-0.0008578104429475025
0.748,-0.06404043575281744,-0.06455787600299377,-0.0006849152966203851,0.06436203779851424,-0.03178613887516255,-0.033386999751606666,0.052237932746700896,0.011102497764440975,0.0006837746384092472,-0.009072553661081171,-0.15710278011421694,0.007908369376250203
0.75,-0.03865336981656269,-0.055099389255020254,-0.016215919618573084,0.0479450767612581,-0.011431797446489804,-0.03639811975588974,0.043289512130099385,0.009266423879118486,-0.011086430541767112,-0.015511632370708548,-0.1606504739385536,-0.00032468029548726144
0.752,-0.008426174059411009,-0.05515190327404291,-0.04632636639463281,0.033933078562989126,0.018218848809007118,-0.0514059592394424,0.03137282570651988,0.0026582018011199,-0.005566273441301307,-0.025550813201192075,-0.17064733698910206,-0.01432827395835346
0.754,-0.01072238616940723,-0.06050148102042426,-0.0494362710113366,0.038124639629190646,0.01837082274075026,-0.05596797079126661,0.028281109464224102,0.011580003967041662,5.1633859744780724e-05,-0.027195625377933092,-0.17376784363210573,-0.01908162390930087
0.756,-0.03655688871920514,-0.0631619532109833,-0.026289839346028812,0.052257351435519794,-0.0059103260309782465,-0.04640834745681244,0.0328827753901236,0.025885514033279423,-0.010995988503485923,-0.0219456536350833,-0.16904083355799748,-0.015603446242040827
0.758,-0.047088329920692715,-0.061920629923124,-0.014531271583462853,0.056830816506453184,-0.016881176851091563,-0.04025748688520192,0.03421288916352167,0.01590815980673038,-0.03590700608953613,-0.020677166370743492,-0.16679303665982964,-0.014817778495788064
0.76,-0.029422530286861686,-0.06194790207652227,-0.03231345569789221,0.04813088922340788,0.0005381539953776784,-0.04879048217494372,0.028658205407599727,-0.021705707652462394,-0.05496102549127348,-0.027006082355716575,-0.17194867373914133,-0.019777954828120323
0.762,-0.00579227695693303,-0.0680053627742346,-0.06209955984875851,0.03941470604697733,0.02656178623584817,-0.06595803876051554,0.02354795770353731,-0.053256496978261875,-0.052112544967965836,-0.03347629130640462,-0.17891223918399457,-0.023825674134426805
0.764,0.0013462091703871208,-0.07792736488006109,-0.07932684356733181,0.040529285479670135,0.03808988567500809,-0.07902769819434916,0.024328454878106462,-0.0519397065260612,-0.03184320785133191,-0.033339453861417866,-0.1817613488742264,-0.02147469728718537
0.766,-0.007563589932766087,-0.0821367805719087,-0.07496948845705617,0.046514962059730595,0.031211429615811623,-0.07905980703576294,0.02772229351777661,-0.02835192108688173,-0.011551680305132732,-0.028553125976019427,-0.18116046972178365,-0.01441651751864146
0.768,-0.015084365711738991,-0.07376746482367291,-0.059327104447869004,0.04570944042357528,0.019841455798444926,-0.06743702135821944,0.028328076751343655,-0.009335818248925825,-0.0031155755829704803,-0.025313476381905713,-0.18098276646785635,-0.009219259905047308
0.77,-0.007520247000705225,-0.05810980919285232,-0.05097869473248653,0.034113418701410436,0.01990245768308597,-0.0553732827227558,0.025198323724565385,-0.008112460223251579,-0.0073519895897831205,-0.026959279414481365,-0.18300620160496053,-0.011336879287311818
0.772,0.00624908013753226,-0.04692635200441408,-0.05298984352239969,0.02150372233962072,0.028376561801525212,-0.0501576763358164,0.021484787754732053,-0.020434367724428845,-0.018203868341304608,-0.03162019231027483,-0.1852510526571414,-0.018587786451980184
0.774,0.0028046796431362648,-0.04600777552825676,-0.04839017639371783,0.02215024556181737,0.024831466491911074,-0.04695700743621486,0.021068316568520096,-0.03376605972912964,-0.027817131266393555,-0.03413014451987996,-0.1843159911622753,-0.021981393202288434
0.776,-0.021726958707966627,-0.05226033825631306,-0.030490948575332168,0.03710648116155206,0.0034358045927807774,-0.04156488126682015,0.024900934022952924,-0.03684843040697116,-0.03191937994030811,-0.0311195173159933,-0.17967765858348025,-0.016289368742880672
0.778,-0.04387621200596659,-0.0592958905223692,-0.015988553716963706,0.05214132965158768,-0.015705513315579615,-0.038871061609953315,0.029582531245092525,-0.028052684594273503,-0.03143297686542034,-0.025205821745356974,-0.17499096880848386,-0.006877777139741719
0.78,-0.04577126967493248,-0.06225521723804751,-0.017298693529561412,0.0555348760511139,-0.016413757158467514,-0.041881878062186635,0.029999559493726836,-0.015631944534279282,-0.029711723658893997,-0.023219746989815104,-0.1749821979896505,-0.004246858115517292
0.782,-0.03356044293182845,-0.060821112870270096,-0.02775731544198108,0.049362693639376724,-0.004295041509848373,-0.0466948778171931,0.02435273518046407,-0.009832321184927894,-0.03033460560328802,-0.029252210057137056,-0.18105611030794397,-0.012844854596024262
0.784,-0.02327086014700187,-0.06005277560150794,-0.036829219825644785,0.043778751557822224,0.006789016997885909,-0.050550806528934865,0.01767641640376489,-0.015036313037960092,-0.03322978083606405,-0.03887235109197138,-0.18883726684308452,-0.02442387666779871
0.786,-0.024864501924046278,-0.06463433648229056,-0.039715490755276354,0.046201978947780456,0.008201942157704055,-0.053588039934918716,0.017926564649901514,-0.026764507768504926,-0.03052321145947636,-0.04217917725361913,-0.19127391537684849,-0.025341205928084885
0.788,-0.03539638162592483,-0.07166004368884916,-0.03635952638458668,0.054287157406605134,0.0009318496375429051,-0.054868597815840886,0.025922036595515268,-0.036681557853081505,-0.016007436392579566,-0.03495566320538447,-0.18595671695740948,-0.013409146129223781
0.79,-0.042546505210778664,-0.07309533707141941,-0.03071233554771252,0.058680179745907314,-0.006369624617120809,-0.0528009437891443,0.03294786739671477,-0.04200072962698509,0.000443591218496148,-0.024219063865421404,-0.17791122904956405,-0.0012852085935815326
0.792,-0.03742496619528002,-0.06632571696280332,-0.029057535127499923,0.05355088478632763,-0.005607655702161803,-0.04891145241441523,0.031301706306885606,-0.047285575816352295,0.002254017944396849,-0.01996350182456084,-0.1745389156401765,-3.5548173043199553e-05
0.794,-0.021819737525776848,-0.05858928212797516,-0.03702780812832222,0.04238095082876198,0.005358235848905636,-0.04907028387002701,0.022949608081840104,-0.05553766019182258,-0.011161905743570321,-0.02442668266414822,-0.17916116402159066,-0.00756530519088334
0.796,-0.00733650077220237,-0.0582616873544149,-0.051298273989157914,0.03480446234915429,0.01945767177593245,-0.05594700319892427,0.016286806007843057,-0.05960678346751655,-0.02321414637023139,-0.030955165732723958,-0.18788850715832672,-0.014938392916431752
0.798,-0.008679541032688512,-0.0647955612411566,-0.05638529972502539,0.038470729753365455,0.021852312386751734,-0.06207755857410502,0.017625478899423733,-0.047817803925674085,-0.019589584281256015,-0.03132463485041978,-0.1923077930707605,-0.015930059869103296
0.8,-0.02699928294059412,-0.07038536291285323,-0.043416150877146446,0.05015357368674042,0.007047536172305606,-0.058907919905583875,0.025144947352533028,-0.021494679293143935,-0.0023500563091825902,-0.02473080148867027,-0.18865355188269642,-0.010005673247997008
0.802,-0.04333396459269066,-0.07007762247904979,-0.026737949077847097,0.05755795462123265,-0.00892596438594098,-0.050194055946196206,0.030244284804363284,0.0012643290326346613,0.014127036913390149,-0.019084282428426833,-0.18280138573674196,-0.0022381711165842468
0.804,-0.04011882440345059,-0.06801113486983561,-0.02814227014227199,0.054402574465486596,-0.006487858072898443,-0.04873604099754644,0.0264550610238309,0.005842828813654417,0.01679891520609086,-0.021515515142741855,-0.18261171569450643,-0.00022183917437157568
0.806,-0.022740817243349542,-0.0713243388557409,-0.04904065513681815,0.04777450216218132,0.012356465725118341,-0.059902399115844523,0.016377964378300854,-0.000692273690285689,0.004132104925443804,-0.029856668984002455,-0.18849117524755163,-0.006335507602534748
0.808,-0.012358407935376084,-0.0789184713701019,-0.06687424827445927,0.04743371030267296,0.02571857769087093,-0.0728898620969318,0.008962627604388752,0.000684185258389616,-0.011945288812343045,-0.03560166858430507,-0.1944411478521533,-0.013966350616195439
0.81,-0.02293571040760159,-0.08225397348023156,-0.05928020502496268,0.05495493460824299,0.01604135373314386,-0.07211049155882095,0.01075214394819817,0.011801468937581393,-0.015069084608556767,-0.033491216044478106,-0.19542136237338045,-0.015110341402763176
0.812,-0.045962132215496554,-0.07657977067466912,-0.030313237861101582,0.06342318166888768,-0.009549691289497463,-0.05613993133421144,0.019832468378658322,0.01216546044854517,-0.0006941294231739886,-0.026533742110002968,-0.19161287276143166,-0.009440095009733489
0.814,-0.05787969971476338,-0.06523690469347111,-0.006948324063133407,0.06347644065654867,-0.025997517072596003,-0.03910879913453196,0.028430631723487653,-0.007348108751836531,0.01755256216241062,-0.021407926484008893,-0.1869252499199872,-0.002571521590791456
0.816,-0.04893025282240218,-0.05491231880039255,-0.005611748363557717,0.05387299800173411,-0.021394617757514063,-0.03244394135908518,0.031546220352149316,-0.026920008918286942,0.022518590995030317,-0.020127318056574594,-0.18426305230680995,0.001863866277362335
0.818,-0.03586853907326088,-0.050455819414561835,-0.014401049688319704,0.045013344163783456,-0.010665367027268538,-0.03345369017867621,0.030872699209543206,-0.0266137143135889,0.013497371804831461,-0.019186803020318742,-0.1832435634528592,0.003751733314282887
0.82,-0.036313076082533015,-0.051878703247759964,-0.01557431957134638,0.04569946378354108,-0.010871655680969448,-0.034370499546716504,0.02983675153741972,-0.012709765600701767,0.0042016588844635844,-0.016389658028650837,-0.18312583357165535,0.002535116786646592
0.822,-0.04527720344728736,-0.05535525006345151,-0.010079163091390307,0.051821383823562765,-0.01840252857098878,-0.03408705031070914,0.02916392523228981,-0.004279714887196851,0.0021246949347929734,-0.013690503494982093,-0.1846809183258604,-0.0014627390156744682
0.824,-0.047784916239892734,-0.05759279170612867,-0.009633481798200694,0.05406257237839505,-0.0201112891582781,-0.03604807239935845,0.028890416748546855,-0.006759360883810213,0.002666151067310347,-0.012818016078927928,-0.1871643714881256,-0.003354936206993585
0.826,-0.04032854438470724,-0.05723101805019336,-0.016639743206375634,0.049827303821939055,-0.013268241163258327,-0.03984932719892682,0.030082852909183878,-0.011110093855865347,0.0031064728537589965,-0.012279956606321796,-0.18738887410593552,0.0016640284795380138
0.828,-0.027575418482485972,-0.05264909749833929,-0.024872306582013143,0.04105346794250685,-0.0029103407010895575,-0.04148500423972718,0.031942199398807394,-0.01374651740553024,0.007530248358561211,-0.010189564962779965,-0.18432403988708193,0.010574305310704935
0.83,-0.009391598184451925,-0.04294738214070046,-0.03341418443053622,0.027511348640756304,0.01087639458703761,-0.04063311062343063,0.03079335173960971,-0.022095128059449957,0.016973425460434878,-0.008168436852514716,-0.1815636981347022,0.015153044320436715
0.832,0.01267917970193567,-0.03135769439089174,-0.04390165202228628,0.011352107319748717,0.027807358447586757,-0.040128395932244335,0.025811114826615467,-0.03720368007801521,0.025764268232293695,-0.009058682035103249,-0.182227164215078,0.013179506707595236
0.834,0.024056905688133283,-0.02276678019089417,-0.04664614732046245,0.001994470652478065,0.035250901461288085,-0.037401241200870364,0.023481114662595517,-0.043513891118970985,0.030625916813194678,-0.009939807167456504,-0.1828302350225817,0.01227198656050714
0.836,0.01349821385893047,-0.018396361233703258,-0.031574710125280236,0.005434982868805822,0.02242904971241275,-0.02769485728946819,0.030336543531915887,-0.027819534084653277,0.03515076584865046,-0.004011269676986149,-0.1772503142708364,0.01920282114392891
0.838,-0.0027842860264505635,-0.016701792555520508,-0.013407365652239848,0.012552785004661771,0.005126939008673496,-0.01752362845625601,0.042849681873389625,-0.0004865574536664336,0.04023303655557308,0.007869508789663374,-0.1669546832130137,0.02956211087719763
0.84,0.0014343757559481863,-0.016051162577735405,-0.016910133336719098,0.009307587116147504,0.009086034709498795,-0.01849206805113358,0.05261941438541952,0.019062782394430593,0.041095727156256194,0.016830800864491905,-0.15976148109180396,0.034585595779399625
0.842,0.02251724765861276,-0.013804834755210077,-0.03590521673650282,-0.003570584304264308,0.029094779524832443,-0.026249925409531475,0.058725400665206734,0.029140121653202594,0.03861032807729837,0.019540498155986637,-0.15807146695348911,0.03437542516346749
0.844,0.03272348518831854,-0.007242429341316528,-0.03984228736164309,-0.012899613060208192,0.03569795142103316,-0.024474781142740674,0.06499998985770596,0.039965228016608484,0.039798448025983806,0.021682962144969523,-0.1573181893935425,0.03493321870815297
0.846,0.02392394127005324,0.002633221331583664,-0.021383726631825695,-0.013333744652152214,0.021639369022041558,-0.010401176948433254,0.06964962446268436,0.05327564475099843,0.04592935693096796,0.027312597974217024,-0.15512016098233322,0.03611605231465458
0.848,0.015418150864920288,0.01029813813188566,-0.005229208273087931,-0.011734139303305158,0.009527158797414559,0.0008489049488438682,0.06874468470327828,0.06487558244609744,0.05192054396669212,0.03479717371424275,-0.1527094553675236,0.03378007467202916
0.85,0.020325268507519974,0.009341485108841826,-0.011014836775981127,-0.012602714417911075,0.01527519402395895,-0.00321814005140308,0.06443453936737062,0.07292193386512942,0.05435344124858941,0.04146355659650604,-0.15053531914010057,0.02932749025634932
0.852,0.033315402729178434,-0.0016805226036776966,-0.03507486235402042,-0.013721620229518443,0.03337594153313504,-0.02081723551558449,0.05949415102171582,0.07029344534665417,0.05343192410887391,0.04391734486877117,-0.15050472144955862,0.026401079369783528
0.854,0.04684380473489481,-0.015046864796330358,-0.06216612040164541,-0.01484312029455971,0.0524656626309512,-0.040412502118957694,0.05102912811110001,0.04960843038002329,0.053205371773411884,0.039171257732529656,-0.15595514851602613,0.02419327884328006
0.856,0.053907543821627504,-0.019142211031136797,-0.07335489554812709,-0.016934517819144998,0.06069870470376561,-0.04743872118832342,0.03861552360148268,0.025594365013848618,0.06251575753997711,0.032244783085586884,-0.16299646470357698,0.0226306481183859
0.858,0.04522536175334079,-0.011483948899608935,-0.05666030348055562,-0.01611457418887879,0.04816712253285391,-0.03520302592687398,0.03044547815627796,0.02611144673548174,0.08732318473829982,0.03452367321533702,-0.16127504865431969,0.02619906813818068
0.86,0.025928789191832377,-0.001683618584761508,-0.02716749920227475,-0.010977842336354054,0.024651337525796155,-0.015711801863582182,0.03208740822828501,0.053850535777457506,0.1168930236371036,0.04784558634960786,-0.14932152892795061,0.03506891421338976
0.862,0.019045753933285326,0.0007111970946922994,-0.017922366730232096,-0.009034481987549312,0.017579949528194003,-0.009595691276411897,0.03599574782507414,0.07948482815736319,0.12633781454306978,0.05860641646846168,-0.13946918000180833,0.040600415879453705
0.864,0.034659515597484966,-0.004087238272814217,-0.038702194540512186,-0.014986037725643607,0.03654969743629682,-0.021782719460287668,0.03143937373451386,0.07652610420535048,0.10440266977052794,0.055309721456305944,-0.1414419853042958,0.03683416974492502
0.866,0.056589330076998734,-0.008806965835951926,-0.06559079297811848,-0.02339594688756664,0.061329131728302885,-0.03760495238482702,0.019280983765856786,0.049580099264211246,0.07244658609515432,0.043962341437574104,-0.14999314848909318,0.029213212942020554
0.868,0.06970769515669412,-0.007326636683042353,-0.07715902218170778,-0.02984406575491896,0.07357208222380601,-0.043493688311356256,0.009134269479185478,0.02571641069306272,0.06388381927026056,0.03827738351962926,-0.15406631948105373,0.02667286497789073
0.87,0.07575575631036367,0.0002288740964153954,-0.07550586515163028,-0.036301111056147084,0.07529987085916551,-0.03960491696921423,0.0067382142456564285,0.024742036107929983,0.08597580501532404,0.042701063659697364,-0.15007082997989135,0.03170561242498268
0.872,0.07759577281703968,0.00891791257192911,-0.06874281561564685,-0.04215282583814491,0.07226735712302351,-0.03189763751670911,0.01041889813516014,0.04416138709528529,0.10985693301892617,0.05242939866829439,-0.14152080238007236,0.041479766484613025
0.874,0.06983118927013393,0.01423560994209878,-0.05603519525258317,-0.041564558696842294,0.061734131329324156,-0.02271070254256492,0.016940213591792104,0.06832042231690925,0.10640739316696883,0.06298763183678707,-0.13074354517763195,0.05285584503728006
0.876,0.05175094606493336,0.015250631869711354,-0.03728922411379121,-0.03312199475827587,0.043473042293425725,-0.012801030068452625,0.024037136207650384,0.08012263874665505,0.08218758551300259,0.07108861542245744,-0.11454975102300956,0.061514136588890406
0.878,0.03716433434782959,0.012070190227809013,-0.025801288332256703,-0.024227501679206145,0.03086992767047153,-0.008297651657225256,0.027130842729925175,0.06812918863875647,0.06144590292406465,0.06992908651829313,-0.0869468887521901,0.06039984938157678
0.88,0.04143141969505186,0.0025617177519136934,-0.03909221839165464,-0.021892984530152853,0.04009146520589906,-0.01876044607361472,0.020963298406605407,0.03484761239033942,0.052409652204320104,0.05426969297436772,-0.047600860498826635,0.046907585790485054
0.882,0.06190103298852146,-0.014451771422262397,-0.07616200593804702,-0.023851588951386817,0.06906942516350727,-0.04495348169620607,0.007328097019534335,-0.003128600904998664,0.05357417263196121,0.0307361486913853,-0.008838189671141911,0.02938578596705869
0.884,0.07801903507479137,-0.034536399073825406,-0.11234120127043427,-0.021469585979618802,0.09509588527699099,-0.0732143343662257,-0.004337965030456067,-0.028487500027253837,0.0632513705225798,0.013889370984326441,0.012288565171917178,0.01932254052994265
0.886,0.07374172015022738,-0.04940344830158502,-0.12313613607455749,-0.01086629942034571,0.09815595932927582,-0.08720189511719505,-0.007592460528513936,-0.036878780789846945,0.06648640477325922,0.009682897073059913,0.011357700026415443,0.018517281760153707
0.888,0.05640551668000184,-0.05375281957052336,-0.11026757986983292,0.0009529444653689723,0.08311159216825659,-0.08423328986412205,-0.005631277471475793,-0.03550804589040655,0.04663944962427781,0.010652542047546705,0.000340688278509036,0.019257775171478714
0.89,0.04362768224612652,-0.05118121207273016,-0.09486627691897702,0.006311153877816607,0.06915251905239113,-0.07557003082496806,-0.0037001705894019413,-0.02972054406828995,0.016120079963071098,0.009660699991420602,-0.005311501642519607,0.016529339313894997
0.892,0.03729086990390468,-0.05008920513523451,-0.0873484049080129,0.008453807133023674,0.06201700586357018,-0.07031048133113281,-0.0014080724522592474,-0.020477400007165126,0.00437901804963101,0.008489494951420666,-1.005245941733808e-05,0.013598370855466637
0.894,0.025909565969021046,-0.05273687797128205,-0.07862209422253855,0.014794894554551095,0.05164122005289403,-0.06602547801575676,0.003336581452669659,-0.014293509068364841,0.01759668869292188,0.010160543526815231,0.009874472765308298,0.014309889989331647
0.896,0.006509656986973407,-0.0552311897493368,-0.061845379230951986,0.025536345029801358,0.033578840463089905,-0.05866866184649374,0.009803155506383577,-0.019161778805403637,0.03450226693664769,0.012518971399116327,0.01512705163414303,0.017048848513221804
0.898,-0.00928299710863742,-0.05662501090782587,-0.04758297861877125,0.03456650515640441,0.018741293251486726,-0.05308615986770827,0.015976979315668282,-0.030898931458737136,0.035582290919666484,0.011019248441308582,0.012022311293898535,0.0176635159835038
0.9,-0.011982011774776636,-0.05955875664345193,-0.04781683202044806,0.037820678883316854,0.01757086302327118,-0.055446431899705544,0.019973630547464788,-0.03770014767060076,0.02034938174450945,0.0032924063053294964,0.0022968515916846513,0.01410949210575855
0.902,-0.010565454305496052,-0.06504009006173961,-0.05460703164684292,0.03971729758068121,0.021824300696988916,-0.061660910400376245,0.021541515662106044,-0.03565493834009386,0.00217562139423624,-0.007304110915992974,-0.008976361941196494,0.008432079183870109
0.904,-0.022483806198979543,-0.07309664638840589,-0.05063456757258155,0.04944938273430059,0.01418669269291472,-0.06354986455593337,0.023524960749932183,-0.03104997822089125,-0.006597946344532079,-0.01334678472804864,-0.015685751697192385,0.0042655207192939405
0.906,-0.04816656803727719,-0.08462380896539831,-0.03641686589153037,0.06831647569603963,-0.005833571590877967,-0.06221288409890629,0.02766940999958266,-0.029794343387459097,-0.006518542870983856,-0.011992805730267474,-0.01596590671198984,0.0016456968631579246
0.908,-0.06733940790675898,-0.0979292851197785,-0.03068775031804592,0.08492252852380665,-0.019126648533570146,-0.06598037198291601,0.03016218041635388,-0.029982172690096467,-0.005844963982757474,-0.00921076234122667,-0.014553120051345717,-0.00294781102228454
0.91,-0.06283110925936758,-0.10794481188159642,-0.045574934081524826,0.08739658300976844,-0.010394663083538688,-0.07838799320150411,0.02667434610966728,-0.026909119115030015,-0.00699708981197594,-0.012651862219774306,-0.017408369680594428,-0.01107515276496465
0.912,-0.03741731795598599,-0.11176651341360425,-0.07499897627052914,0.07592039827696885,0.017063530362956873,-0.09515163903622716,0.019575765319022494,-0.024053024414628654,-0.008754878382552669,-0.023270867661447946,-0.02569425507005442,-0.020817409502380473
0.914,-0.006227575320578159,-0.1111326535068541,-0.10527033828373368,0.05983012145905588,0.04883215859631422,-0.11009716891959838,0.015186328233258514,-0.03053490943186248,-0.013644084599907605,-0.035450341034959046,-0.036171156201331316,-0.02951723210011645
0.916,0.015625308367581792,-0.10996483544177235,-0.12550605989685804,0.04898951956984998,0.07063559920502407,-0.11954959405925089,0.015998824122862746,-0.04440446074993606,-0.0185632739062025,-0.04279210559974521,-0.044932027451205746,-0.03455176799889927
0.918,0.01983419955219891,-0.11224814047455114,-0.1318446589369732,0.048994892057814654,0.07549618406340988,-0.12372673969984804,0.018527866157837896,-0.054289300567082525,-0.013356457522128813,-0.0436969485972225,-0.05026629476172585,-0.03592693002410125
0.92,0.009869752764047807,-0.11946622059076246,-0.1292577488300115,0.05795720067080919,0.06813085157118154,-0.12595689793975304,0.01752730930313297,-0.060286228687642246,-0.0015220146337566794,-0.042648141138004636,-0.05376944054010343,-0.03867601381756769
0.922,-0.0032828343456060894,-0.1277468314605744,-0.12455261481479006,0.0679835502503913,0.058599328928043384,-0.12780161357843126,0.011838585539062713,-0.0707622941389014,0.000948796409599809,-0.044858829463261286,-0.05787218044011656,-0.045960023698263734
0.924,-0.012343619697770349,-0.1302105476863254,-0.11795205570044434,0.07246441306957765,0.05114628144981638,-0.12609459527467096,0.006509311945738225,-0.080425021357462,-0.005813678372547618,-0.04970365970269894,-0.0619021832794975,-0.053381734832745026
0.926,-0.01810703133008857,-0.12468246173125158,-0.1065682605008628,0.07177168993399047,0.043274845457664954,-0.11809573504530295,0.007872875867109311,-0.07670831288539597,-0.004209552016290419,-0.05104576525561992,-0.06251736396321629,-0.054786367003215534
0.928,-0.025075494769306816,-0.11640665687155505,-0.09128145249740227,0.07135813852381401,0.03226719896838383,-0.10644285196657122,0.015770756072203865,-0.06394705382626517,0.010806681032525772,-0.0445501667002542,-0.05821684005121393,-0.048724420949939874
