time,I,II,III,aVR,aVL,aVF,V1,V2,V3,V4,V5,V6
0.0,-0.0005265508965231401,0.0022378413102233452,0.00278633182743495,-0.0008556452068501026,-0.0017112904137002052,0.002457237517107987,0.011452481999378298,0.016169500447398094,0.008666150171943348,0.007920203068535565,0.0013821961033732427,0.00021939620688464173
0.002,-0.0024056312673172795,0.016597392696097276,0.019134339728861433,-0.007052001473013072,-0.011098274911706552,0.017493697557485234,0.08010900966609069,0.11283952147830453,0.05989962852349451,0.05446954918800826,0.008711685636922569,0.0005672105510609937
0.004,-0.003612717620407041,0.0558817285937462,0.05982186527409976,-0.02581702490405467,-0.032590688148840835,0.05677061775316296,0.2516783377854032,0.3531616955213209,0.1853123019009641,0.1672174206659431,0.023363414189009987,-0.0016293378394980221
0.006,-0.0012887781196564768,0.11385302154300644,0.11554246525835264,-0.05529899417816477,-0.05985527319528839,0.1129315431881199,0.47402505413799434,0.6609052101071703,0.3420896308046668,0.3052582201657381,0.03457503576139846,-0.009203416873010002
0.008,-0.0027471696557116536,0.15905581143675634,0.1619272059983902,-0.07649056280789969,-0.08412287656895706,0.15867915719277703,0.6104062857086578,0.8418868884081774,0.42946464373107546,0.3779771613637048,0.032364288362441714,-0.014899921153579325
0.01,-0.023670064118336262,0.16695557285403262,0.19027254445228475,-0.07007515998416457,-0.10877121151543384,0.17733764350055417,0.601013299620959,0.8149354607627634,0.4114405635964802,0.35874156635369375,0.028582881573895127,-0.0015160790818763109
0.012,-0.06690982473664545,0.14713392172903814,0.21347534464262669,-0.039524543738049006,-0.14150167925096083,0.17953248183707024,0.5287434645574113,0.7017830483524674,0.3564786765699024,0.3150117662254415,0.043529600360747524,0.038016088589984225
0.014,-0.11276996452443573,0.12676521325278878,0.23921642139563867,-0.007298552176157023,-0.17651971352383847,0.18220006206699968,0.49647916878134324,0.6483762433305437,0.33827679561926277,0.31202626622480173,0.07601998945970734,0.08808834505680638
0.016,-0.13526180798455562,0.1199838028624001,0.2553174142272542,0.007520248278941445,-0.19549642394403732,0.18621485844455946,0.5159308254695403,0.6701055169792425,0.3572225896550995,0.34442364747592735,0.10588167058957547,0.12430419792926845
0.018,-0.12450455084616996,0.12223662032948387,0.24694338610485506,0.0021603348142268516,-0.18630026080969264,0.1823424755689094,0.5372268322494018,0.6989197394692374,0.3704107840118846,0.36783816669840647,0.11661395552585181,0.13139755712946935
0.02,-0.09448616471622863,0.12418885841205075,0.21874039997686087,-0.012857146169246542,-0.15760637767307462,0.16903203656065893,0.5318776637916088,0.6970230143872044,0.35823483654484534,0.3594493188224054,0.1050075851434992,0.10564858238384948
0.022,-0.07132355317214495,0.12182566932158329,0.19307348676849312,-0.023457757371189315,-0.1332991572175927,0.15559216150497893,0.5154098300068358,0.6843195992448576,0.34091173367069016,0.33654716305717725,0.0816480848108079,0.052271361715445004
0.024,-0.07334953204723983,0.11545851000815227,0.18873630534165262,-0.020219859677742695,-0.13224345864539364,0.150678988186201,0.5086689882581713,0.689356343008054,0.3401520337095574,0.3263551942370546,0.06586163204895527,-0.011620160739795729
0.026,-0.09927232961959298,0.1069772083410428,0.20625619769577105,-0.003430324944105198,-0.15415166008679276,0.15478599300205104,0.5073990689527096,0.7082647312091155,0.3473767538411339,0.33140378320465985,0.07012794185713324,-0.058042478008768286
0.028,-0.1324662203533657,0.1008641936502743,0.23337258587413118,0.01670959693553426,-0.1842613637834852,0.1645778765186661,0.4955563970350877,0.7129448234237493,0.3401716329862036,0.3326401394838928,0.08825630024903514,-0.06580317723677177
0.03,-0.1560235961354181,0.1025705639731975,0.25858872741488337,0.02805833445366846,-0.2081894458972945,0.17811908565398626,0.4696126261242361,0.6834135604272318,0.3132926865037976,0.3160687941010724,0.10087568607429495,-0.04142508447356584
0.032,-0.16126547620823004,0.11300656922953986,0.2741256198268493,0.02510814120365986,-0.2179043387916592,0.1921566142066018,0.4369632057051877,0.623472856500335,0.2778787964829095,0.284490611340604,0.09146785188568347,-0.013383073900764294
0.034,-0.14531531829831867,0.12625812934838837,0.27122981026451776,0.009948236387364714,-0.20805072378786485,0.1983759764908771,0.40139245889224107,0.5540128683938628,0.24266024667281758,0.24989891662595204,0.05870893827933821,-0.001710169022499681
0.036,-0.11771434757458452,0.13379605476340067,0.25108829609669525,-0.007503965969196322,-0.18429681621456867,0.19221485275522843,0.36627164780472726,0.5015788740570891,0.21196950377875604,0.22501169828121048,0.017943560516305537,0.0006440870431011095
0.038,-0.11024171505518232,0.1318724221334126,0.24186768461434682,-0.009697789479022417,-0.17632990780060814,0.18622211322919544,0.3471406764769576,0.4877962896724628,0.1951808387741784,0.21970776609716725,-0.006651119040839394,0.015210114589312956
0.04,-0.1444498456465267,0.123236453600154,0.2677160410509944,0.011977357598660966,-0.2065214619556996,0.19461816304512886,0.3569576474321666,0.5140535224556996,0.19982627584305157,0.23258229367887914,-0.0005260699937378246,0.04839737073773347
0.042,-0.17949753495211146,0.11102694614780388,0.29066726139483734,0.03544816387808264,-0.2355731705784311,0.1999116233734471,0.375454035263713,0.5503814786570754,0.2124336867105131,0.24266197425854893,0.021129590867071085,0.0746508294849993
0.044,-0.1460322768978913,0.0969796042897579,0.24304949637748313,0.02553129843115343,-0.1953710415889549,0.16882164710215664,0.3614725031847033,0.5539866006868606,0.20580316766793638,0.22680298845051625,0.024361642519623635,0.05866844764930032
0.046,-0.04946416981541896,0.08628650193248183,0.13557312350250264,-0.017455747729053943,-0.0938081011368543,0.1096245160550334,0.3042505866891211,0.5115048866002092,0.17394067621725204,0.19089143776113845,-0.0017803130478465084,-0.00020167645490349077
0.048,0.02272760142799318,0.08510293954608891,0.061993449584899524,-0.052647421499626305,-0.020962983291827293,0.07243738403681645,0.23873639466416371,0.45210795684938143,0.14000456524390992,0.16462260204718956,-0.029310668554142733,-0.05972021629075589
0.05,0.014941065879770218,0.09086304622414354,0.07552014045451542,-0.051151561106702305,-0.031098134397985304,0.08212410170793469,0.20209205422207088,0.4093915890981235,0.12192517910695393,0.16151899607240877,-0.027548747368172016,-0.07956124349461555
0.052,-0.030871439653046933,0.09235116597507824,0.12312739436496652,-0.029112057323680874,-0.07707685183246873,0.10646551272813494,0.192371900302753,0.38333498573283803,0.10894474794968778,0.16236926539501387,-0.003359869373332003,-0.06421292622583599
0.054,-0.04176804399116173,0.0825503064346682,0.1246640003234599,-0.019559457467296995,-0.08287378592612629,0.10230432441330618,0.18107449918609417,0.3513684600243091,0.08274804400928698,0.14488710231809193,0.008848206188964682,-0.05023827126839517
0.056,-0.009520946674861508,0.06665997155983819,0.0766091142334176,-0.028065135839184654,-0.04300699966538403,0.07049781120782926,0.15639998608270675,0.30746420364048915,0.04941889685024878,0.11639037084363067,-0.006165452032771716,-0.05536596674878534
0.058,0.005566370154754708,0.05465468275515256,0.04906749906321919,-0.028823044148259744,-0.022541143936175255,0.05068042235005936,0.13698733080889822,0.27475732148866694,0.034205326816258985,0.10343273089572347,-0.026750485996328347,-0.059432106182981184
0.06,-0.04192314532300797,0.05110030553035226,0.09252808980243621,-0.002345684496201975,-0.06863145106555515,0.07034194520861423,0.14194344548159457,0.2773479801307199,0.046915277469674645,0.11431927087481385,-0.029026494716373696,-0.04102183237203721
0.062,-0.12037745993710273,0.05449769379418244,0.17442357328021313,0.035212512237352174,-0.1485917707746284,0.11286379302101242,0.1617987941776796,0.30818563704983165,0.0657230767139245,0.12643588234507927,-0.020477131176405747,-0.013332271644715232
0.064,-0.15391852509838166,0.05966268742671381,0.2135449781904531,0.048818421201679126,-0.1844588055136923,0.1352860020195656,0.16616681478494605,0.33047683550930007,0.05736451383226322,0.11105985589060528,-0.027611418055912565,-0.012610008405329092
0.066,-0.10699247725073108,0.05861484293418231,0.16582713961377954,0.02575262651763473,-0.1374738081916157,0.11134708283175339,0.13680738202480808,0.31272994779761676,0.012181426298235758,0.06517002833271858,-0.06006847183823794,-0.05674076370858004
0.068,-0.024102798721745623,0.04600728979732053,0.07024232966732218,-0.008867718180624169,-0.04920798090108343,0.0573674696043004,0.09023249759578658,0.26197596624028274,-0.03933705796555802,0.019713770797488348,-0.09581861009250515,-0.11941703022266423
0.07,0.021667075067760895,0.02541066605271716,0.003690441061144476,-0.021112127884086427,0.006593104549173355,0.01322114676469056,0.06000728772907931,0.21344492360185435,-0.05768134453529661,0.009531444264830513,-0.1042432793619339,-0.15210933765887885
0.072,0.008246916446003972,0.00583463802257546,-0.0024876214741833855,-0.004987240567077222,0.0036584330531497415,-0.0005998799802551619,0.055333200731084296,0.18664896775803322,-0.045959791814907884,0.03169947887140108,-0.08150337155769857,-0.13424538890842413
0.074,-0.032135748633490134,-0.007197403248996998,0.02505181423333949,0.021162007988958353,-0.029509826646976045,0.006356415337991548,0.05635401755818368,0.17171557357932274,-0.0418112864845046,0.05260114221956975,-0.05029536282280531,-0.08839894633669867
0.076,-0.06855144404333527,-0.014299442840328717,0.05462381459346388,0.04296088980127114,-0.06256837093108161,0.01857007402454113,0.05082446885147071,0.15916959927049507,-0.05684398799281782,0.05519374426674023,-0.02826093822624504,-0.04962592072442046
0.078,-0.08543715872424205,-0.01950665454249213,0.06638404451159112,0.05460040924593543,-0.07767424394920323,0.023360177200615815,0.045433372237383925,0.1536270837047572,-0.06727316842164593,0.0483330742314208,-0.021347471488521407,-0.04476935155839971
0.08,-0.06963152335955654,-0.027284181738164236,0.04259345043900129,0.0510163037765678,-0.05833664983564159,0.008152852795147186,0.042788939596640006,0.15847236384783223,-0.06235581644437286,0.03774351879702376,-0.0378798401630309,-0.0893040326381179
0.082,-0.0353003469344509,-0.0373378958060661,-0.0020626620662337696,0.03853368617013439,-0.01826676157803254,-0.020036348039870193,0.038962399311471885,0.1716492608768494,-0.05627762761801387,0.024208441637854208,-0.07558919610752653,-0.16648739929954323
0.084,-0.028593716350372084,-0.041368165628832713,-0.012793994612726128,0.036151746175419074,-0.008598475888999375,-0.028591479875414452,0.038043819902832676,0.18821392693056485,-0.05616033862182562,0.0176255324546801,-0.10923576875317105,-0.22192808787566878
0.086,-0.06609913845819006,-0.03208695155354538,0.03428563746382402,0.04947348224024927,-0.050882673173340026,-0.00074494085909035,0.043583697716849557,0.19483984579152874,-0.05587094840294257,0.023039312880040064,-0.1196595839537494,-0.2139606900379288
0.088,-0.10825108500688616,-0.016829942604264438,0.09189705796621538,0.0633466722735613,-0.10174471203020712,0.036189363352623516,0.04662934641667144,0.18027099784071324,-0.05601228502667007,0.02931662679808667,-0.11497313620982362,-0.15694729159656282
0.09,-0.11996746144331735,-0.01322731248073477,0.10705049129906369,0.06872616716835904,-0.11583423280166273,0.046173434510693355,0.03953702470930833,0.15411938401200267,-0.0608697160672468,0.030563495825370875,-0.10606073946410909,-0.09361285586483267
0.092,-0.1132098323207976,-0.027438162028795725,0.08574346728467261,0.07340049837745856,-0.10146734897760762,0.028692296630372115,0.02741617431594943,0.13577140715804015,-0.06173095621004843,0.03910030205177529,-0.0876358488757455,-0.04450556261384586
0.094,-0.10845477645220017,-0.04528718548382158,0.06299083029228537,0.07991063409269411,-0.08702759929912068,0.008237250128831431,0.01560273977354803,0.12822774924970534,-0.04803983792966678,0.06320716611532427,-0.05538580716687443,-0.003273336004223506
0.096,-0.09468561727933328,-0.05030968273064945,0.04429931148212575,0.07497798573427142,-0.07027294764010994,-0.0042404241828682574,-0.0007426526416358706,0.1182961771293869,-0.030281196078977418,0.08827667939054298,-0.021063769583314098,0.03350941469626869
0.098,-0.05543467710005096,-0.04230086846314871,0.013190413479826243,0.050683835515887524,-0.034603628478870434,-0.016480493522822767,-0.026207136656179218,0.09867621279909154,-0.03075926764452068,0.09227146699085813,-0.003169055154001018,0.052572388035714616
0.1,-0.007933414005433244,-0.03181041402147713,-0.023808268460610973,0.020881081477290717,0.00790421887616424,-0.029805952359219595,-0.05214759517022841,0.07964113432339291,-0.054141755478639315,0.07084826949168552,-0.010533480287901782,0.04263874422784499
0.102,0.013850662734186545,-0.025440524023051032,-0.039288860503009955,0.006235224335315445,0.02598340217545329,-0.033759748720302116,-0.06320306993977964,0.07654573568864943,-0.08303596993686961,0.037922604588363606,-0.03610590887747858,0.013607143097694467
0.104,-0.00013031608895406493,-0.02524856913903841,-0.025154498691821906,0.013576972434140033,0.010730570178426492,-0.0259033560088368,-0.054026775860153135,0.09053987383785946,-0.09918651735796546,0.00935527638322211,-0.0634165278032851,-0.012904785482617297
0.106,-0.03326249517641121,-0.03397054938431596,-0.0007266339440196825,0.03574815793474884,-0.018911500499287803,-0.017691629260576217,-0.03172158864409829,0.10907862065795958,-0.09725609032079098,-0.004249897332637066,-0.07664997266386821,-0.02406461701073642
0.108,-0.06365588072893263,-0.0502958004593492,0.013392906470587274,0.05971633269713931,-0.04115614088809293,-0.01888349754301893,-0.0069714176757911805,0.12014246987013409,-0.08466307997084976,0.00041877929061297225,-0.06942959590122706,-0.022189235493963556
0.11,-0.07305751696333661,-0.06461227944543327,0.008569946170586118,0.0707189807833677,-0.04286004999857451,-0.02885471217189517,0.007876575409508941,0.11505997508326263,-0.07793067240591181,0.01222965452105434,-0.0520199615633801,-0.020857347619127525
0.112,-0.05042848825784539,-0.0684433782277785,-0.017817404053732985,0.06007741788583783,-0.017729690537185854,-0.044171613415462045,0.0003919949195078025,0.08683717316294327,-0.09246840403411567,0.010396779455267867,-0.0448107693417944,-0.034559209261102994
0.114,-0.002401045093725296,-0.06481847911188877,-0.06232995383897909,0.034324874770649064,0.028779859010135928,-0.06430905183099504,-0.028429236344500296,0.04175517902851614,-0.12491812469492677,-0.011457043302699664,-0.056127710392059674,-0.06100788899290747
0.116,0.04435061731540014,-0.06262502723265195,-0.10714714410432617,0.011255030367025702,0.07445346277843194,-0.08536766653411718,-0.05716225126203602,0.006345393197963114,-0.14765422121756072,-0.031724106999906555,-0.07223241443703568,-0.07705482108102132
0.118,0.059233469993916626,-0.06463687447735753,-0.12417141130558323,0.005905504430568642,0.0905251870158622,-0.0954099609710355,-0.06331505364162161,0.0073378122544696025,-0.13467437186098322,-0.0236040772772887,-0.07625816474196392,-0.06428068031617726
0.12,0.030217901164429902,-0.06750701342248247,-0.09799487604846081,0.02163251156116284,0.06339190019824092,-0.08460239640002397,-0.04778027906141505,0.044214495923886724,-0.09455086532355014,0.010222207595171305,-0.07046236880061929,-0.03504985815724075
0.122,-0.023142746490971203,-0.06854488262490398,-0.04575585715582484,0.04801546058464562,0.010596282853705716,-0.058944944891880485,-0.03246667828330188,0.08803835162848145,-0.06237855321037819,0.03877926365368807,-0.07163777069492244,-0.0233746094982185
0.124,-0.06067422868028469,-0.06656799275061978,-0.006404756104851296,0.06526564474190935,-0.02859285082914165,-0.03717886972656049,-0.036840778890160165,0.10701696622866945,-0.05897773041329648,0.039097647778126236,-0.08770095667385369,-0.054407408038776243
0.126,-0.05774270166521797,-0.060498860055026124,-0.0030976441841711125,0.06032603391394463,-0.029390117520930955,-0.0317148472862112,-0.060451948122788236,0.09258716297217341,-0.07466863066386673,0.01816395766243342,-0.10654803347700544,-0.12527572071475057
0.128,-0.03056895191035304,-0.05117336861577833,-0.020465547097229513,0.04131828580388083,-0.007061958627663292,-0.03634060780808283,-0.08477064831320574,0.06187014865399729,-0.09331128224445091,-0.00525907719487295,-0.11114571315722302,-0.20494339070452947
0.13,-0.015127560254291834,-0.04200220454463671,-0.026500582836633837,0.028478730673247344,0.003789786747485864,-0.03602104295676664,-0.09191790981538428,0.03442542242982611,-0.1153012851319141,-0.027801346938725605,-0.10221296322850057,-0.2538005500615438
0.132,-0.022769156330345926,-0.036335750427288045,-0.013478194423190292,0.029844049341138428,-0.006792044376986513,-0.02716209060094773,-0.08413605354075603,0.012115521629933351,-0.14988064167541118,-0.05773336297418208,-0.09891882004621233,-0.2569973102687558
0.134,-0.03056188929972887,-0.03596533204252116,-0.0057044594221235525,0.034438065993286686,-0.014664047909436505,-0.022758649203721837,-0.07922431703803996,-0.011509423426218718,-0.19235460778711622,-0.0892588286163972,-0.11404133877746812,-0.2357973784822329
0.136,-0.019022550802155393,-0.041812583800185446,-0.023047482805343338,0.03198928986950992,0.0003146310927196619,-0.03422420854874847,-0.08327427350317003,-0.02986853155907518,-0.21711305049972668,-0.09716270397503159,-0.13443329502283297,-0.21789671529324298
0.138,0.0009268326134591327,-0.053790329276902575,-0.05455191522169448,0.027523397217623622,0.026801401476108263,-0.05623784524471506,-0.08095174573421311,-0.024942086429072214,-0.19983983285010506,-0.06588857500127046,-0.13658723200166328,-0.21023384449918514
0.14,0.013567419152768177,-0.06993488679940647,-0.08301322369951925,0.028412390716727298,0.04760528307299564,-0.07852625123426932,-0.06104215579478796,0.009175870151292531,-0.14923225399630427,-0.01616673158512598,-0.11958392020022415,-0.2093777271927847
0.142,0.02558945459494762,-0.0860459778765275,-0.11116006609543459,0.030002071988203517,0.06719427637196738,-0.1003238449165529,-0.03526635069304438,0.05401027007723853,-0.10516508432897831,0.012026539188694707,-0.10654186906718097,-0.21599285062615303
0.144,0.04072060711245768,-0.09710470147705551,-0.1376125000636724,0.02816035227263559,0.0871553081796573,-0.11903661062463282,-0.020900024508663576,0.0837555188406543,-0.09481927377674308,0.0035960858094653218,-0.11144278045142521,-0.2250311782875594
0.146,0.03462942832519953,-0.10066199134992054,-0.13537697839857152,0.0333984470809479,0.08256548665605516,-0.11977610062980325,-0.018972963315889147,0.08981560040361503,-0.10220050155817771,-0.016763203790711893,-0.11978285416658215,-0.21971846035178483
0.148,-0.008641960932655407,-0.09752360201334324,-0.08902009415686456,0.053784605658906,0.03804986428637794,-0.09443189651671921,-0.01976095481582574,0.0820497030921417,-0.0956460807790229,-0.016840758447394282,-0.10803653098489395,-0.1902339621131573
0.15,-0.061010569484872386,-0.08935226144730361,-0.028272148282726665,0.07633897869621958,-0.018062005950728655,-0.05876856178679963,-0.021347539351676034,0.06871911328675491,-0.07528850753981382,0.004647684092829712,-0.07525707449615475,-0.15109051181441557
0.152,-0.08628407530935611,-0.07854057747564001,0.007873555299700945,0.08433443669783293,-0.048865009587450936,-0.034496807614719335,-0.032139650200502926,0.04493755645629599,-0.07222664690080913,0.0192192683345921,-0.04659477506796305,-0.1288400148076818
0.154,-0.08577745228958097,-0.06791153921022008,0.017687296084672087,0.07938616501563235,-0.05397970453029777,-0.02448135083255296,-0.055516804165430894,0.005807681040816647,-0.1025029153517939,0.005223134590591962,-0.0443386067788868,-0.1342489591297998
0.156,-0.08133477719605232,-0.05655511216865614,0.024298912551837467,0.07136609445835687,-0.05532601246499752,-0.016348954385934113,-0.08203756647580879,-0.03684373733652496,-0.14373058152908585,-0.02753324966875364,-0.06567443580188886,-0.15612094437005275
0.158,-0.07988464321797177,-0.0394678868833446,0.04004826506861562,0.0614152070087099,-0.06242173587474982,-0.0007848425458042246,-0.0997170464295108,-0.0610619892964637,-0.16366351339954013,-0.052899188321642865,-0.09306974973621138,-0.18110054896667083
0.16,-0.07683462422557039,-0.01695989054716487,0.059875206561267394,0.04829573354026372,-0.07055516614167567,0.01996386793976729,-0.10288968788816516,-0.05395104864842273,-0.15419501767591226,-0.05589382710286977,-0.11331920620665191,-0.2059559635336381
0.162,-0.07680601465790787,-0.0031583190514889647,0.07386453492671119,0.0418111429195751,-0.07709148178767032,0.03400327789905243,-0.08880132944612738,-0.016120262202079697,-0.12679305656723333,-0.03682827318450282,-0.11849353773790405,-0.2264876060076555
0.164,-0.09316884030784409,-0.017406284827568848,0.07599451174158842,0.05758520456947735,-0.08585167964007769,0.0284866380057562,-0.05642757960008771,0.04329016702707108,-0.09108218112153474,-0.0015874349225047783,-0.10185726805712404,-0.22795017843448265
0.166,-0.12705442923940158,-0.06115145168577466,0.06617548793625729,0.09605697265169125,-0.09763903382326745,0.0022417104114874496,-0.01606585002121012,0.10276809654458607,-0.0541344656694258,0.0374736267885197,-0.06699334973138943,-0.19972921010176692
0.168,-0.15306879054301697,-0.10657568993426651,0.046834691943639095,0.13084869058125828,-0.1011070491803484,-0.030091023010884784,0.008282184138288884,0.13014531920683156,-0.029922632557723018,0.05949875720103408,-0.035164765659371794,-0.1561155049184067
0.17,-0.13913603288624468,-0.1181284633228727,0.021253980634123863,0.1289344888644428,-0.08164357884042689,-0.04915143665295418,-0.0003178347485758219,0.10657405139815958,-0.033493598254933005,0.04931409568743486,-0.029159823029417515,-0.12604561627536778
0.172,-0.08666423620724778,-0.08878731922955668,-0.0021310030711413357,0.08775254072124335,-0.043764560169711524,-0.046691033234006245,-0.03046321937603993,0.04834609521309278,-0.06461068892525279,0.015177111425580937,-0.046648047445094175,-0.11693210305166994
0.174,-0.03316920453211699,-0.0467521570319839,-0.013836126289809328,0.03995280075243299,-0.01104397848077084,-0.031699400934203766,-0.05297839320359783,-0.004803467706897805,-0.10139221709612867,-0.014507301307121388,-0.06013130480815846,-0.10653584726662658
0.176,-0.008658925371347326,-0.022559360160980063,-0.01430127723470467,0.01586326849344856,0.0012732708620922144,-0.019791226750316724,-0.05201702841046028,-0.024651198391229333,-0.11776495529762145,-0.017990940623837496,-0.050300270914478036,-0.0805064076863598
0.178,-0.011920646792230054,-0.018794835115714618,-0.007268596027840428,0.016372001386939235,-0.004136230567310887,-0.014269789877554109,-0.03802422252852134,-0.013200857980446408,-0.11063705950959778,-0.0025470049281140377,-0.03055555398566221,-0.059135955360428476
0.18,-0.02899199442052154,-0.016494531933358998,0.012295345188345814,0.02457855534836249,-0.02206975264460393,-0.003165132602927772,-0.02995946833185198,0.011090777987881393,-0.09898764558137281,0.006409282434691361,-0.029269328508372258,-0.07324937302315233
0.182,-0.0426689765202299,-0.00148072257587157,0.04122444318282589,0.02402599513463902,-0.04242376564177945,0.01887631177712857,-0.03374143626012044,0.03288973333645948,-0.09495384319198945,-0.0038091876103409673,-0.05538173210490631,-0.12660759529604848
0.184,-0.02568003173139713,0.02325553851077075,0.04903544614410208,0.0027092421105551438,-0.0373548061578573,0.03503660961159855,-0.042821012816792736,0.04374275309606465,-0.09357895258826483,-0.023381291109517272,-0.0928732636162212,-0.1916610276565589
0.186,0.03444681160108898,0.04461047894283003,0.010056436636163043,-0.03832338704525642,0.01170310598261259,0.026153097625060143,-0.048838676633264834,0.04296129094404159,-0.08975441496277999,-0.037065988613968065,-0.12275610384825641,-0.23241617295370648
0.188,0.10138928344132811,0.05063842404600003,-0.05122892761723628,-0.07491112059232605,0.07506217739302339,-0.001437394624445872,-0.04472534092349736,0.03986429805013798,-0.08428258690324221,-0.0369174104220826,-0.13664647365236482,-0.22822415225960854
0.19,0.12524324915370613,0.039943674379164566,-0.08596300699471784,-0.08176098114304294,0.1041787756281788,-0.024456172618832338,-0.029559470578500002,0.041416316989404324,-0.07645594446044505,-0.02220001684513054,-0.1338964592503096,-0.1871792062055539
0.192,0.1146378441483782,0.025256377309915857,-0.08973141929180824,-0.06939684644295069,0.10110858512827595,-0.03444125398896977,-0.015350906544490062,0.038116825094983674,-0.06796370229476231,-0.001504173955514974,-0.12006601039956458,-0.139091771113048
0.194,0.12452839138474676,0.021016490951832844,-0.1033164751938304,-0.072337120925738,0.11320794856151999,-0.04366133292664756,-0.016311768976835703,0.017974498616670578,-0.06718105097145502,0.009753069170059301,-0.1041461188714396,-0.10623334420767006
0.196,0.16530742148215674,0.027019286194899874,-0.13800304142957312,-0.09590409324139008,0.15115407911665302,-0.0570881941830847,-0.027779577428160583,-0.008913138302569495,-0.07617049800674104,0.005964653600390545,-0.0877015208273792,-0.08317821680044782
0.198,0.1792421909825106,0.03446622259836869,-0.1450593691181263,-0.10683536093490671,0.1618619403091126,-0.05542347361611972,-0.02749207476506188,-0.017514141966297296,-0.08344922342109061,-0.0022597223138458087,-0.06599486973967748,-0.0547462648819805
0.2,0.12612391488918637,0.04416924271848754,-0.08286535125949471,-0.08493499996038517,0.10438299972308016,-0.018934356141480806,-0.0034064358247489833,0.0023853389642903996,-0.08086254752157268,-0.005885686972839076,-0.04423933879677576,-0.024566220993834556
0.202,0.039867094331410224,0.06303444924657077,0.02219171899355618,-0.05029218350898545,0.008564535708429345,0.04216758491591718,0.027509955303574706,0.03576322628211296,-0.07534811908342949,-0.008428730418565464,-0.03560443347236475,-0.009941692435908107
0.204,-0.02330173835998408,0.08414266710495834,0.10687993237233301,-0.028064514807322395,-0.06608308426385896,0.09399073932460185,0.035869994264174386,0.05858403965422501,-0.07544439173980502,-0.013762658219490798,-0.0397021482168874,-0.01593305843228288
0.206,-0.04652045424780205,0.08789045494232069,0.13424637440132736,-0.017785812188519844,-0.09230746915851128,0.10951275999489586,0.01346858895695702,0.0583325714707672,-0.07898282033925572,-0.01781705072959363,-0.041363885113527274,-0.031136749289800876
0.208,-0.04313163978227911,0.06795275294987263,0.11108338525282999,-0.009877189434452822,-0.0793400883284298,0.08857734244080696,-0.016908999694909808,0.04107233804105864,-0.07973697670347811,-0.017421222416323552,-0.03324114224136222,-0.04547755023198118
0.21,-0.026321644615460733,0.04413372666021505,0.07047278116359673,-0.007133019075286616,-0.05005385442285924,0.05635975732412876,-0.028866003391379038,0.020338582184153617,-0.07774299371870852,-0.016854406204306817,-0.025149455098799088,-0.0582532778667003
0.212,-0.006193623873989414,0.04178597563591824,0.0480078654803866,-0.016602884798147647,-0.02818231151822802,0.04329454156290743,-0.024337273459954626,0.0007695793246002454,-0.08028725023472458,-0.0220714540000905,-0.029651767744553328,-0.06970760954861917
0.214,0.0083238136373901,0.06586640083694399,0.05767472499248026,-0.03609633424616945,-0.025873703947947312,0.0601349850274468,-0.02944966383502285,-0.022277942688820454,-0.09244562667076177,-0.03272722730461594,-0.04746709704487523,-0.07633163673338732
0.216,0.01634243666773708,0.10237773352689869,0.08636235015202577,-0.058399931844724674,-0.036417497113406826,0.09387692078297655,-0.056649686538151084,-0.04696561029926669,-0.1042269776635409,-0.03922336564837708,-0.0670102040678293,-0.07464628912607488
0.218,0.020022762005154793,0.13473832530867255,0.115137505118419,-0.07656616979668716,-0.04865051116431463,0.12569555117231565,-0.08168076205635494,-0.057367904802468256,-0.09599351614000841,-0.029203589031362803,-0.07528207855948024,-0.0642167489817952
0.22,0.013455250260327538,0.14883251912315704,0.13561038288017785,-0.08039996447685202,-0.061847379524187784,0.14319220411562159,-0.07169674926130008,-0.0375938340033421,-0.06544206332051586,-0.0038979652292821013,-0.07145984441558195,-0.05064887289903558
0.222,-0.004805730040754952,0.1366410428828238,0.14131172804620992,-0.06488162000724511,-0.074107918851622,0.13929995561007147,-0.030654347143994516,0.007267949610468208,-0.03548453636678731,0.017244273512645087,-0.06710196833732726,-0.04451101028376671
0.224,-0.00952194062860056,0.10862631952461184,0.1178066328167499,-0.04796162736014899,-0.06539056828139718,0.11298486209277654,0.0007297112229871258,0.04584049473344909,-0.0277233977743944,0.016172480758222474,-0.0708259394234687,-0.050892513092001324
0.226,0.03325087727463509,0.09076674478519713,0.05735761106281998,-0.05991548215150007,-0.014361366681162384,0.0738041349915315,-0.010538780385554,0.04130479753829101,-0.046612137720690304,-0.008181855879919663,-0.08031469743168705,-0.06487008865534659
0.228,0.11510523079090211,0.09905840892677083,-0.015855640676921474,-0.10470564931371862,0.0630086016136431,0.04138989317478457,-0.05847299319453975,-0.014122679168395238,-0.08886404063941836,-0.04563185847300198,-0.08923797853337408,-0.0794552664282461
0.23,0.17641891619562677,0.12410904704465457,-0.05210366735893394,-0.14780806272467711,0.11214314995431075,0.035415495494648466,-0.11110033335733399,-0.0879901675919758,-0.14186069577438096,-0.08084235521832213,-0.0915693835350921,-0.08893562048786915
0.232,0.16303724738714864,0.14335392960551704,-0.019866528477907697,-0.15092131032258282,0.089908564924694,0.06070840878146585,-0.14217186513332855,-0.1368810600496706,-0.17501652325554015,-0.0932076555695743,-0.07942826711697719,-0.08465799852463725
0.234,0.07277231826382458,0.14139004875927627,0.0682362489884873,-0.10533300356093905,0.0010281517236208938,0.10391434074167227,-0.1449220716298143,-0.14059352640555445,-0.15998831371902317,-0.06747397032340442,-0.04667725010703887,-0.056956527662398344
0.236,-0.05535360969330749,0.1185404804165701,0.17397265503005774,-0.030423045948456875,-0.11596065435804832,0.1458986596261073,-0.12730452858243987,-0.10873433422979979,-0.10492526838599893,-0.012651706081030969,0.0007395847407155727,-0.005420446875973876
0.238,-0.16445658002277574,0.08655718158379373,0.2518099180642053,0.04003113925115336,-0.20941566056410887,0.16888642686407518,-0.10689701458313203,-0.0704177291438067,-0.05479730591883916,0.035533768298260285,0.04040248770157656,0.05144258728068788
0.24,-0.19732142170936695,0.05747866912418783,0.25580020736260356,0.07161380631020277,-0.2274406394622029,0.15557885194854074,-0.10306857077703895,-0.05536509694696277,-0.049079919465455014,0.04225515586361501,0.04677811347151468,0.08144449539833275
0.242,-0.14076035171274467,0.03446788385854041,0.17575037244849956,0.05567863961736526,-0.15869305182246343,0.10332711938540845,-0.11782683641550534,-0.0665106476809621,-0.07976905645792914,0.009668326929094258,0.01722740269053552,0.06652067040198126
0.244,-0.05893561374383628,0.013753300216745167,0.07254593528032502,0.025292378536486856,-0.06619600144151243,0.041727168705795174,-0.12498005960824678,-0.07338394030619672,-0.10084381554145835,-0.022645732680830966,-0.01875618911209732,0.025987211763839224
0.246,-0.03641520692129616,-0.0071916186311443975,0.028763309723207044,0.023697490368549897,-0.033339125124996705,0.010409817896464934,-0.09744822126184856,-0.04955026164899431,-0.0876866330073045,-0.025024706304440186,-0.029544099390429162,-0.003725117447887647
0.248,-0.07312140805452123,-0.027803541059681323,0.045015345846017796,0.05133433492160824,-0.05988845365253549,0.008564033676593188,-0.05176604369243243,-0.01675913166943455,-0.07441996460958325,-0.019400851244564185,-0.021593046510821827,-0.014889008195961428
0.25,-0.0795641143758964,-0.04676203792184663,0.032828278418429266,0.06350727200311486,-0.0569596064586327,-0.007751310388353288,-0.040898882904986195,-0.030385518315687386,-0.11055223753962203,-0.053019363241675596,-0.03319321315599895,-0.035255384622620047
0.252,-0.0012179770785206996,-0.060742431646743096,-0.0593600835814594,0.031138749885072453,0.02803973050497604,-0.061591426780301044,-0.08772179675690958,-0.10808862998105936,-0.18889600871533513,-0.1288505348375011,-0.08088392371125273,-0.08290057354347592
0.254,0.09770925237729347,-0.06549965787708238,-0.16316173289759117,-0.016072202920601217,0.12882715825634622,-0.1157877807086328,-0.14895373035053952,-0.1933832998057344,-0.24678389455653874,-0.1891600846105536,-0.1298250087688563,-0.1337264289196157
0.256,0.11125437814669226,-0.06304830750115666,-0.17448740292638687,-0.02394852560572481,0.14075093225110566,-0.11965353527957122,-0.16410456151236233,-0.21342421589847377,-0.2400055072100274,-0.18229989297825208,-0.1347439688924231,-0.1492620543745779
0.258,0.021228305484776087,-0.061500754511928137,-0.08311922079057775,0.02083802856814096,0.04985840385211997,-0.07299602221552103,-0.12530765630574722,-0.16110903741275628,-0.1885749607841206,-0.12363470428730122,-0.09938843018045741,-0.12704257851818662
0.26,-0.08354527014666357,-0.06244371518650544,0.02067786057117299,0.07441195891549933,-0.05410529894876927,-0.022139086316244738,-0.0816162776832649,-0.09617307577414837,-0.14329364348790194,-0.07172331187960744,-0.07238036413011541,-0.10443610966207108
0.262,-0.10539505353220491,-0.057308671192463405,0.0478644055359433,0.08331864386229194,-0.07770431961723001,-0.006959279104567078,-0.08055189632315357,-0.07176452339955977,-0.13063034608951138,-0.061876332371808784,-0.08764002062647558,-0.113574299104343
0.264,-0.03347332342018517,-0.044213696814688994,-0.01069809378168425,0.0410704743769425,-0.011499970960772599,-0.030155686079592334,-0.11949502552972041,-0.08510659907719066,-0.14172273936637336,-0.08325912159710615,-0.13144774735470027,-0.1492469112024147
0.266,0.0574216184386768,-0.03855361740894882,-0.09583981061507003,-0.007356345750936482,0.07668964590396142,-0.06919426254091218,-0.15541372058299457,-0.10130857683335165,-0.15686036834518674,-0.10756748327309004,-0.16714681932945308,-0.18094788752546515
0.268,0.08635112131882382,-0.055514192836992944,-0.1417941678876167,-0.013832832466701181,0.11358171379432808,-0.09949353645563982,-0.15236969646507295,-0.10248771943624856,-0.1662396463715083,-0.11976758483232569,-0.17285473055693515,-0.18238161692499838
0.27,0.03613328442687714,-0.08815706589886846,-0.12420619526809194,0.02734952422666722,0.07929826927187894,-0.1068701516341331,-0.11337625241810081,-0.10112916721956026,-0.1722852988555032,-0.12371049738287199,-0.1538992789249259,-0.15038363545590974
0.272,-0.04483285695478028,-0.11516945763380183,-0.07005844789139655,0.08171256188503939,0.011882387408853546,-0.09439788389395674,-0.06979442096379306,-0.11336776539827025,-0.17774957312016032,-0.1273352967460217,-0.13042090538930948,-0.10574759140432413
0.274,-0.09653077644120672,-0.12808830800275028,-0.03113310908397679,0.11436144966060714,-0.0333158235548766,-0.08242121233958942,-0.04728284105453332,-0.1324655448039663,-0.176898675475853,-0.1272350600519254,-0.11657883369491195,-0.07590130084822443
0.276,-0.10065858707184439,-0.13732876057547105,-0.036387029797451724,0.12046967695289071,-0.0330927243125089,-0.08951115870588489,-0.045366949658496615,-0.1359291970134539,-0.1642165065724721,-0.11309937265978763,-0.11019646922609515,-0.07125882764595239
0.278,-0.08760776724720234,-0.15215024579950265,-0.06457790094718745,0.1201287521152709,-0.012936386869053287,-0.11001537267383729,-0.045953328220404766,-0.11295532632824869,-0.14433070422553668,-0.08413299092729888,-0.09940877658248141,-0.07727323378052453
0.28,-0.09690127871594759,-0.16888742375504737,-0.0722724792740864,0.13252904164700852,-0.013783777566347105,-0.12167027267783287,-0.03565816148573879,-0.07392662585371157,-0.12513965021811913,-0.05270319202932864,-0.07721213455799852,-0.07339699151274452
0.282,-0.12741904727892753,-0.1782978240251874,-0.05130240187416723,0.15322005389058413,-0.03902358801752578,-0.11643613504253425,-0.022001994288798697,-0.03973288461414882,-0.11183510839949963,-0.036855197298343544,-0.054541065605810415,-0.06219693045432885
0.284,-0.1324620931715158,-0.1743820947804528,-0.04242803857489898,0.15507696933890747,-0.04521730064400934,-0.11085477513596972,-0.02885036442846606,-0.03267737200945641,-0.11440121049873764,-0.05295502799096141,-0.05634764995693815,-0.07071318041299222
0.286,-0.07844186105966859,-0.15902048667062754,-0.08109925474610624,0.12087751755515903,0.0016509173605145362,-0.12240949247576297,-0.06789145806887695,-0.06488035450296475,-0.1438462878412949,-0.10182648354551242,-0.0927444181907109,-0.1141206865831729
0.288,0.0049793838504689466,-0.14347474624462,-0.14886788242457602,0.07078970955502907,0.07714473688520167,-0.14757369571701007,-0.11717578388860782,-0.12280629776892955,-0.1926012388183161,-0.1591221298595254,-0.14105781552721394,-0.17054813223249954
0.29,0.05574167302808621,-0.1391449908244119,-0.19515914308391316,0.04248281831317443,0.124940025643499,-0.1676807550342841,-0.141615645726826,-0.17315884750319113,-0.23493091125580384,-0.1937994766961755,-0.16934920595941286,-0.20576495766977673
0.292,0.04753793882164109,-0.14297873452167062,-0.19079494167344968,0.04844952136919567,0.11766264465552562,-0.16702505407957224,-0.13226493889236374,-0.19241000586970974,-0.25118012300788883,-0.1957538438604833,-0.16781829489670028,-0.21031602058672394
0.294,0.007083274688786002,-0.14039924781215843,-0.14792815097546344,0.06781423124033652,0.07539460077667083,-0.14418100162552275,-0.11139645515126856,-0.18641691965713691,-0.24120959483046936,-0.17802977858568247,-0.14999819858705915,-0.19803683936337677
0.296,-0.025995700770734195,-0.12608619178849637,-0.10065282683690567,0.07717322104717993,0.035331962478482866,-0.1135023060629336,-0.10063620094202975,-0.1773793803550085,-0.218797410557975,-0.1592209524929471,-0.1343934567493333,-0.18020140129563292
0.298,-0.03965872612662824,-0.1122237826402922,-0.0729864426650318,0.07635156520717963,0.014958189598807963,-0.09333287583837711,-0.0970349591186366,-0.17243772133503954,-0.19849717822759216,-0.14695976384251758,-0.12848444222845248,-0.15707084963701487
0.3,-0.051376594035522194,-0.11289688529759992,-0.06153217049154109,0.08192253149786742,0.003272209424988011,-0.08879781514060232,-0.08394402412251133,-0.1541837836421739,-0.17980341982028253,-0.13241381672538505,-0.12435430268773802,-0.12836609067526353
0.302,-0.07729922927910421,-0.1286612746347165,-0.05091484606937946,0.10290614420255123,-0.015169275522631987,-0.09177633307885395,-0.05714203403352719,-0.11029683290895291,-0.14835762617417603,-0.10399237198921314,-0.11089446590623565,-0.10045955116131056
0.304,-0.1081648995763291,-0.14917906915760706,-0.04033818318339008,0.12941271257810066,-0.03572669209527968,-0.09646263937322504,-0.03078744242936651,-0.059286024535037514,-0.10442289374200985,-0.06964620684393719,-0.09070333866268693,-0.08474134955256021
0.306,-0.12272536480432064,-0.1642399229831551,-0.040918982727120815,0.1453428225225747,-0.042348111904845685,-0.10383080334480045,-0.01837543358725139,-0.03168714892354855,-0.07622649211066804,-0.05387962248189061,-0.07635151399842455,-0.0899046551086927
0.308,-0.11524406789345411,-0.16827111573851394,-0.05268783276506777,0.14456923742526256,-0.032275193555198825,-0.11170648623365331,-0.018899449407973033,-0.03798094884817337,-0.08709483860599994,-0.06722688132073643,-0.0712516849156718,-0.11308859198145488
0.31,-0.09606705429368123,-0.1588001309142736,-0.06267975612731737,0.13034089620265932,-0.017318598882379382,-0.11251283562890925,-0.027531596452849354,-0.06872725388016615,-0.12464936131971278,-0.09315908916463354,-0.06900330612717978,-0.14294587474116638
0.312,-0.07507414469580045,-0.13795903671090148,-0.0630904605765568,0.10832075840924421,-0.006838301260534528,-0.10303860848877822,-0.047312687154527716,-0.11254918625020116,-0.15874590446953432,-0.11055646342889401,-0.07027694938923748,-0.17195163062396632
0.314,-0.059688792712522,-0.11785396466229076,-0.0585665806778134,0.08894571544019339,-0.002402791385412208,-0.09111391369926575,-0.0753034726321123,-0.15662155268238304,-0.17388522502883896,-0.11436423540009284,-0.08244345173632599,-0.19594068869526443
0.316,-0.05855963477243359,-0.1168157118178673,-0.058681198054375,0.0869450886274618,-0.002776763852521117,-0.09052307762526807,-0.08982827716262663,-0.17833196699373993,-0.17167464893333015,-0.10942176872997425,-0.10251273649995571,-0.20201438677747036
0.318,-0.07191756223147436,-0.1395415367576779,-0.06784317278740923,0.10539816550180837,-0.004877052550359896,-0.10614170652425121,-0.0736752307673025,-0.15941803514996408,-0.15597596570745237,-0.09833871050973357,-0.11810054536974947,-0.1749928406059894
0.32,-0.08336173783689008,-0.16429832107987816,-0.0808921351602864,0.12463082969162942,-0.003034994120521895,-0.1248144027535126,-0.03828560786854938,-0.10866613903474849,-0.12890697458464312,-0.08394313820831031,-0.12698336002310912,-0.12410724639896425
0.322,-0.07189459375535562,-0.16247699162842988,-0.090447077553361,0.11860396807757888,0.0086429430840445,-0.12835724971899398,-0.0015747983606996929,-0.04933593954940788,-0.09522982605622507,-0.07435633107244267,-0.13958669650537425,-0.08495410988906396
0.324,-0.03622245292033349,-0.13063045846216667,-0.09435990862507802,0.08437341430087901,0.028956537581546125,-0.11368380167100951,0.04782282795909247,0.01760744664619146,-0.05522474540654852,-0.07247523452850997,-0.15709008034377536,-0.07966642575839376
0.326,-0.00020213700924777726,-0.09368147610776818,-0.09352697822239162,0.04699619500848303,0.046372883452516285,-0.09409460446087164,0.13913304381823013,0.11716306532835788,0.0087749959190075,-0.05981974270370493,-0.1579985225917719,-0.08823121419505732
0.328,0.02051675731479397,-0.07578626790931331,-0.09637387209505399,0.027440715591745407,0.05766618238176873,-0.08668672800701831,0.26898537352403507,0.256611750900164,0.11800149607625668,-0.005992107106887828,-0.11771306982470353,-0.07690659527137343
0.33,0.04447156476466146,-0.07638990916759095,-0.1209905454424865,0.016436858772880647,0.08176942825743112,-0.10018095689939141,0.38067496244801113,0.3902463276975157,0.26105649183904633,0.09549255722731197,-0.04170022114853377,-0.045519175533716386
0.332,0.08792573543314729,-0.08036517227961341,-0.1685907153022524,-0.002410063554910973,0.12773257539436284,-0.12664135883801622,0.41079257022210347,0.45350415140514955,0.3968193678859855,0.2152548696649359,0.035216470742997136,-0.022977476311973
0.334,0.12425613590294518,-0.08489498414273361,-0.20953982307778568,-0.017933574810747453,0.16672829798863578,-0.14934114550959587,0.34930389063912737,0.43777025819490095,0.5043690187028138,0.324112546063855,0.08921855620717041,-0.020395471370171735
0.336,0.11897204757662587,-0.10287049097143304,-0.2219760986335835,-0.006360078782823484,0.16965301998362697,-0.16412974823041096,0.23926436797299241,0.4050223935619049,0.6078485538700097,0.42643488427558646,0.13213510277787094,-0.015780666821990478
0.338,0.08370530500186239,-0.1369862623103879,-0.22034945518954085,0.028384564846994143,0.14985257865669613,-0.17984658785589364,0.12418024567983381,0.41483203199741,0.7402868603932646,0.5439627430712125,0.18826605530144983,0.014043706950431152
0.34,0.06002355204148728,-0.16483229350935386,-0.22428759423604125,0.05432078057477095,0.13908302242334608,-0.19524873557669933,0.008488450011799218,0.455906909372655,0.8955139377449858,0.675045050159728,0.25999096729097254,0.06858480357316742
0.342,0.06496042274189137,-0.16213160763327977,-0.22676735455075817,0.05031391682816907,0.14282908981247155,-0.19498730453821067,-0.12907888989264266,0.4654020201214304,1.0300208102286186,0.7878593437495924,0.3278573861969663,0.13314003044698053
0.344,0.08387841293146499,-0.12978634061283803,-0.21371170802876865,0.02418475752709277,0.1464006379114719,-0.17243533130023225,-0.29943151170286314,0.3988769338799773,1.110512346531962,0.8594974180317089,0.3793051126973063,0.19771757556250505
0.346,0.10935967365831031,-0.08285672750705347,-0.19228914106595316,-0.012169004199472602,0.1493689893716419,-0.13842820918612866,-0.5053367090080715,0.2526198199331972,1.1371057817992247,0.9020416811520368,0.4234218689992065,0.26339365908922363
0.348,0.15177950425741346,-0.024079432277662786,-0.17559936117503597,-0.06232296165825465,0.1632161445700858,-0.1009809963685612,-0.7699999237077336,0.023800604074786118,1.1033329983437519,0.9285375777019458,0.4725051625750177,0.3372400943731255
0.35,0.2071118028583435,0.0546236070567117,-0.15201196823695934,-0.1288945691768157,0.17959436706702192,-0.050230411710422994,-1.1160063008821441,-0.3091322348745936,0.9564130841795109,0.9047274419280663,0.5169565381765916,0.41904003219189656
0.352,0.24398139755295128,0.15171859162776377,-0.09208752070435013,-0.1960389864296586,0.16770341429691885,0.028374531351508178,-1.50010523799078,-0.7455146481182504,0.6344346484575741,0.764680737875005,0.5267133645281381,0.48971456553666226
0.354,0.2361354559003692,0.25345378581863875,0.016806020481555016,-0.2435815839086982,0.10848000450664236,0.13454522929708626,-1.8200209529500162,-1.2304186047287275,0.14004677719647643,0.48005977168933645,0.4779707693835859,0.5224475315486997
0.356,0.19470524998417432,0.3470355346387729,0.15126062026618026,-0.2702306950018803,0.020213106012223894,0.2494990426704675,-2.029023769643586,-1.6916343139957315,-0.4469903934654748,0.09908046373711635,0.37651299471125027,0.5118294230573378
0.358,0.15919145117506528,0.41632702564678076,0.2560716754982913,-0.2875932937733908,-0.04930519774046071,0.33675960248294873,-2.201071209690835,-2.0922306678282174,-1.0230921658059837,-0.2858804728672687,0.2552267093501991,0.48164525927521545
0.36,0.16416008065866705,0.42753937704941797,0.2629193105084003,-0.296019617613075,-0.04951191350824515,0.3451371822917084,-2.4206390121076,-2.4233389873371,-1.5118001505568202,-0.6081055578004487,0.14472660512529947,0.4532125517948363
0.362,0.2149199708148412,0.3495487169538535,0.13492305936569637,-0.28243064092300135,0.03971791670301999,0.24111468127780214,-2.635404784274045,-2.655545761770929,-1.8714447126117335,-0.8650770182298375,0.04413964158032071,0.41532979936573267
0.364,0.2823099909035297,0.19812102469418102,-0.08366116328020512,-0.24023681252481985,0.18199999911224665,0.05542044223748121,-2.688590890221083,-2.7244361362062843,-2.069446399383446,-1.0764847036845766,-0.06580856526063038,0.34415285779773963
0.366,0.32247248905531156,0.035866524904341154,-0.28655372109094107,-0.17901039590294424,0.30325087601197287,-0.12711586295859356,-2.4966592562677725,-2.5864939997060974,-2.078554344194102,-1.2184901571946745,-0.17962019936527057,0.24712935007720666
0.368,0.31382640216872854,-0.08386017105708153,-0.3981936935328895,-0.1143999458102296,0.3551729587574205,-0.24231620530154402,-2.143853402957801,-2.291037196858117,-1.9232902110816632,-1.2463078357786,-0.265310643172641,0.16106970467612222
0.37,0.27326168006010687,-0.1545416056305272,-0.42829751702307395,-0.057776869107486445,0.3503941331762493,-0.2923622395183664,-1.7943283716521312,-1.968751642840232,-1.7015276463047286,-1.1748133382246722,-0.3103932400603053,0.10697905856202158
0.372,0.22948896722428727,-0.19192780915318977,-0.42146700898294204,-0.015971762424290062,0.3248958593069418,-0.30774448604857746,-1.5449771750759433,-1.7279983965075754,-1.5163809813632632,-1.0789995694620762,-0.3370250413544746,0.07221233862231914
0.374,0.18891279141234935,-0.19764684517697415,-0.38630167745075855,0.007774807531955957,0.2865017940506628,-0.2934296270341933,-1.3748340117304172,-1.5752197208999466,-1.3916049700885134,-1.0087553776100857,-0.3646192527262168,0.03875678111881279
0.376,0.142987578248591,-0.1632175552825631,-0.30592633042396256,0.013172836142755755,0.2232612120329589,-0.23626923948516187,-1.2125421874622864,-1.4434028443586655,-1.2769173696793081,-0.9456827329839992,-0.3842181221130455,0.006975072330522635
0.378,0.1007933928104907,-0.09831153246268035,-0.1988322096621407,0.001124331228416622,0.14883952226857447,-0.1500188132387802,-1.0241771784296774,-1.2765763676616804,-1.1290069917182093,-0.8531323644953359,-0.379499129134159,-0.015440250982819046
0.38,0.08984459400145733,-0.03920242131975868,-0.12873073628566592,-0.023234915441028178,0.10819398361311507,-0.08495280403201415,-0.8348359873109665,-1.0768315817841247,-0.9627243701225684,-0.7367187054721034,-0.35574418225523113,-0.032569339332370204
0.382,0.12191067942727955,-0.02014369888478355,-0.14184209014360766,-0.04866260528359422,0.13043558183387155,-0.08181823177373015,-0.6857944946535895,-0.8849818473142357,-0.8195911111751897,-0.6353551708215266,-0.33427859150453887,-0.0555253658100035
0.384,0.17144876831308908,-0.03998070925770144,-0.211538793123832,-0.06364867864188485,0.19022545306515945,-0.12674523926385795,-0.583571175711402,-0.7296654797130018,-0.7117144264007417,-0.568301626954743,-0.32438717205478024,-0.08410236806145363
0.386,0.1940434623740544,-0.06984378135444005,-0.26432606733253305,-0.060807646861785025,0.22857155632006718,-0.16820453860653053,-0.4934975193298884,-0.6002983227444378,-0.6147599534287913,-0.5130220905734131,-0.31199621333997596,-0.10250609412363791
0.388,0.16614416835841678,-0.09049341569419078,-0.2571110358635637,-0.03739265431367826,0.21114334550243719,-0.17482942122003356,-0.3815881804553786,-0.4715370481903916,-0.5043183013982574,-0.43555387308230964,-0.27668439543309153,-0.09289723005422294
0.39,0.10467739063575424,-0.10675919779576822,-0.2115380155129908,0.0013945176535872276,0.15696408125382483,-0.15990802383423205,-0.2523645936179055,-0.3452513223809491,-0.3837100729333791,-0.33038819285621474,-0.21497929990943113,-0.052161504144324126
0.392,0.04678355830133829,-0.12800799787117217,-0.1743879668502441,0.041643451416789615,0.10911629477689008,-0.15182672806947292,-0.13845630297207,-0.25012416133503307,-0.27783786436092484,-0.22371339122020115,-0.14451099799178382,0.003825704168501083
0.394,0.015606376760017028,-0.15093079435318646,-0.165956704637567,0.06944504028200567,0.09003989214995876,-0.1594847985571103,-0.06301499108301127,-0.20143038346257827,-0.20738338520074595,-0.1440652635971773,-0.08751241950964171,0.05369561292832936
0.396,0.010913790619613905,-0.164608807581388,-0.17520354639134214,0.07889869514704403,0.09326529456415282,-0.17171815405882998,-0.024426575187864494,-0.18367472596515538,-0.17256873043522716,-0.1014620414684928,-0.056116965040241266,0.0844938778299648
0.398,0.023128521469785855,-0.16316466980231623,-0.18625059896152557,0.07165422181483173,0.10488412940272022,-0.17689982469711635,-0.009266409658671237,-0.17214670993177653,-0.15988214623778566,-0.09068079086068084,-0.05196192629156912,0.0912519489140765
0.4,0.04060599227289412,-0.15090841718360848,-0.19136355467631505,0.05604602703155363,0.11518100584002774,-0.1731228481447534,-0.0031734515290075776,-0.15115183775668273,-0.1553053403836067,-0.09822301689105578,-0.06807860229980157,0.07655002201852602
0.402,0.04739308583593143,-0.1389139692462996,-0.185807511532905,0.04632384054503057,0.11477728660890112,-0.16410235395400405,0.008333630429612895,-0.11442522555197085,-0.1467295930862178,-0.10550337263753079,-0.08780220182262934,0.0573785010437557
0.404,0.031155586483463935,-0.13655283038459542,-0.1670684322526279,0.05358539453657272,0.0969466389725107,-0.1534557284629678,0.0342557396042602,-0.06504903847583629,-0.12489590986585504,-0.09842342615113449,-0.0926960982218998,0.05760097401030289
0.406,-0.0017982226970461159,-0.14414113467405137,-0.14203195837802393,0.0743044488786025,0.06823306088137669,-0.14436755320232714,0.06845309285528707,-0.01650241779237751,-0.09213785749273935,-0.07745900046995052,-0.07782219206363594,0.08414001530473528
0.408,-0.028279324644544006,-0.15339392054375786,-0.1254741381980031,0.09212692090709577,0.047249914573659554,-0.14005354083268598,0.0932395417922476,0.013310616334288955,-0.06378343194746561,-0.054689867263093106,-0.05441945807701803,0.11960244353396471
0.41,-0.03279672002869375,-0.15571127258159115,-0.12381700279402984,0.09504210521589258,0.044452498107529284,-0.14007409079253286,0.09785889831422075,0.01303109431638845,-0.05312618612991943,-0.04091813685097787,-0.03532548525875599,0.14354177879786398
0.412,-0.027070568975064425,-0.1507046466154306,-0.12455731459684416,0.08929179330268208,0.04735403068955296,-0.13837777877288684,0.09022447502168739,-0.01249136871073115,-0.05730169101597627,-0.03538052099043763,-0.021627890927446006,0.15498155712655004
0.414,-0.03569316607902008,-0.14589038038459762,-0.1107453561941686,0.09115562683812883,0.03549127900323419,-0.12985462294543643,0.08942621065055296,-0.04165891194982516,-0.06094419865492084,-0.027706492872253352,-0.004715115175963344,0.16894165597611838
0.416,-0.05929389795585203,-0.14709360227083906,-0.0879653019032096,0.10349928635520061,0.012098295532872548,-0.11952256039246945,0.1060419403367936,-0.052477545803573535,-0.053998588772682266,-0.01371426774559982,0.019042525023277232,0.19177396290509846
0.418,-0.06212539363557932,-0.1513185998674342,-0.08910493425157452,0.10678470396126821,0.011757372864967149,-0.12209194223588353,0.12680857735737364,-0.04291014781927356,-0.043958070864482446,-0.007171935151510961,0.036654300042417674,0.208077824040753
0.42,-0.013852935383120392,-0.15160639842145573,-0.13753677325225935,0.08280685731871919,0.060792623249020114,-0.1461931014770985,0.1278201657728085,-0.027016490262953025,-0.04498679857748838,-0.02472603965237235,0.029932980874444275,0.2003311532975525
0.422,0.05849640551018175,-0.14630575703548357,-0.20468806128711473,0.0446600057896738,0.130757836824832,-0.17701211287082744,0.10841185180852957,-0.01147689923420316,-0.055501407601400266,-0.05814895313169817,0.0022913498728791663,0.17643049888998968
0.424,0.08931832788205939,-0.1390657590822681,-0.2285460425018389,0.026524433464543258,0.1577449618034866,-0.18496593050170046,0.0946898785394402,0.009601274808895806,-0.05749363395669482,-0.07643799958955046,-0.019530068278318134,0.16390409508123518
0.426,0.05351557148286392,-0.13238312632601346,-0.18618511094758203,0.041382149587210884,0.11811423294379132,-0.15961086638400804,0.10351728218350807,0.03544016204594561,-0.04231529030047338,-0.061692420190021996,-0.017829072137428934,0.1754666951628956
0.428,-0.003966523715795844,-0.12684581338703455,-0.12300472914105506,0.06715418064871148,0.05742302714627488,-0.12459871132157674,0.12291822256792864,0.051409273801519204,-0.024625236271303367,-0.029797284032230018,-0.004504613826909201,0.1939625471797441
0.43,-0.02657282317260647,-0.12330147856278281,-0.096646146652169,0.0767976844924365,0.0329459810289218,-0.10990610022188221,0.13324512921410164,0.045723977478428046,-0.023036666830399923,-0.008841037097544375,-0.002853930668699876,0.19503668476257763
0.432,-0.002840297804228776,-0.12073215317073337,-0.11780170671542865,0.06425009936507695,0.05569613808357161,-0.12017980450593609,0.13001209162651037,0.021613172097601555,-0.037251133699976735,-0.008608759450528407,-0.02073428307684299,0.17303273468509245
0.434,0.04122011257982701,-0.11602753394827454,-0.15736731973533152,0.04030692736851096,0.09788803170556257,-0.13838003676658192,0.12126461404929606,-0.00731116938784251,-0.05042154058792484,-0.01743281176666745,-0.04764253119176131,0.14165474698863453
0.436,0.07906876576045539,-0.1081285770986943,-0.1875798511938555,0.017128158058280843,0.13227108983994282,-0.1493938676641149,0.1146550608507712,-0.026235327301044425,-0.04766615760717654,-0.021219639230697147,-0.07103835156499647,0.11696459816975503
0.438,0.10357603740099938,-0.09845208291629519,-0.20248362332233236,-0.0008357319298378196,0.15221115389112663,-0.15115261029475213,0.11206930703528559,-0.0269724968805859,-0.029257353241815217,-0.018545336782873796,-0.08884728954582466,0.10350479126761956
0.44,0.11870725154023515,-0.08779794191990851,-0.2067684727661165,-0.014373176837105673,0.16165617738684265,-0.1473574053105698,0.11336143097711726,-0.010259296713945251,-0.007112483031525602,-0.016869505066507858,-0.1049451947970799,0.09716256852409369
0.442,0.12125632499949046,-0.07585070917380535,-0.1971879622255428,-0.02156730022270889,0.15732258623103368,-0.13699090534959008,0.12080058051574721,0.01986919006736899,0.009898957286657552,-0.019618544492939066,-0.11747957052557993,0.09717380474883819
0.444,0.10316188813724096,-0.06190934466856949,-0.16527072812822177,-0.019228344979151653,0.13164719670059807,-0.11512594913322091,0.13550466580953632,0.057721335030116554,0.023139373175055263,-0.022604447268974263,-0.11897732097726012,0.10722183089220359
0.446,0.06746470682899128,-0.046563614848338826,-0.11455250426560472,-0.00937525086654437,0.08851835158686551,-0.08283264227117859,0.15353086335804683,0.09115673957618171,0.037436332117855686,-0.02017043390704114,-0.10564140221414829,0.12739754980422083
0.448,0.02566504562796683,-0.03717917498398895,-0.06363429510293518,0.0059247809748587555,0.04281347615546417,-0.05259537806665892,0.17228965111289601,0.10743465313988564,0.054575435922446715,-0.009039980707622521,-0.07904838970582645,0.1543947110601389
0.45,-0.011863322947895924,-0.046180048529298995,-0.035226206695701534,0.02851096836453154,0.010527397881800243,-0.042239477954595456,0.19265487505794215,0.10652270965236194,0.07349748123736907,0.011189324430176277,-0.043479189709530165,0.18529759287989236
0.452,-0.03357640438098228,-0.07307925959441898,-0.04035932316088997,0.05293411708688648,0.0025876809631908207,-0.05759391765681899,0.20864262757923324,0.09936995460221851,0.0900060439453415,0.03644268461896727,-0.008528568952793442,0.21412447452746908
0.454,-0.03495560758436458,-0.09534518395245603,-0.060948039538671395,0.06533052833747661,0.012329040369885823,-0.07865979505466102,0.21049899380147838,0.09487056200704574,0.09829226911291686,0.05966263730612376,0.013932940971325289,0.23277932551356584
0.456,-0.029351289675269912,-0.09157511932024762,-0.0623191852830618,0.06098480841798149,0.016076243403218993,-0.0772950759085683,0.20360007863874333,0.09515691997324215,0.09735062055281457,0.07475663474898346,0.020950638459835875,0.23971252503137258
0.458,-0.02583576565364327,-0.0676526321508345,-0.0415179049548671,0.04716479143840457,0.007677711236396205,-0.05487241168210206,0.20506460598287687,0.09999670807721509,0.09172406533917693,0.07609781303058041,0.01783665537585174,0.23868688213318962
0.46,-0.007678891457815632,-0.04723557215488104,-0.03908064970672581,0.027690694613824954,0.015327722847015245,-0.04356062887410028,0.2190431939752198,0.11127777623398379,0.08602181909475037,0.061038023640484114,0.007620885015133375,0.23073388924626986
0.462,0.032337355313654344,-0.04272742068348554,-0.07462994552105279,0.005642304200062813,0.05257931019792822,-0.059277799722761766,0.23604846981886485,0.1344236935862711,0.08684599702063021,0.04160479277524965,-0.004969361932531247,0.22008710237498305
0.464,0.05320243471248447,-0.04709472629589365,-0.09999308222574041,-0.0018124957104955087,0.07540853086900147,-0.07430295216675353,0.25326978758556645,0.173261825505204,0.10494762471947244,0.043135490801324256,-0.005119565168196609,0.22189155035532893
0.466,0.0180473665702292,-0.04931011024605278,-0.06709037391545604,0.017839485221124197,0.04144511351954511,-0.05913943498624995,0.27101451024921747,0.21652984158156505,0.13972155904820704,0.0745989266585271,0.015253292041709164,0.24401391811759196
0.468,-0.02998945090328374,-0.04662073516861913,-0.016348321838496167,0.04095927119849377,-0.008000922239435998,-0.03245307187591175,0.2761462372227059,0.23459030897536193,0.16678960653602898,0.10873428852551728,0.03787471657828621,0.2669565557147318
0.47,-0.013554853732206374,-0.041709564291449626,-0.028039571711838428,0.029999538777284705,0.005625813965215824,-0.035430677715395514,0.2555252665580888,0.2058932096126286,0.16018090877469784,0.11132632939865633,0.03746979703569059,0.2642151786512741
0.472,0.06711884910579388,-0.035728404379883935,-0.10302283341563882,-0.013965711277958521,0.08311964216400898,-0.0693314041965578,0.22116932115078147,0.14697601397966248,0.12520442042729552,0.0838043621279302,0.016051570635666892,0.2381394507088056
0.474,0.12845175813369228,-0.028028352501215034,-0.15668218466069142,-0.049031732638212394,0.14089785114348446,-0.09214721227921273,0.2033251108702694,0.10313044269334848,0.09660156851889981,0.06066689685630757,0.001354769043327554,0.21792118420999054
0.476,0.1045671064941529,-0.01920759164081829,-0.12367708229626634,-0.04173419461153407,0.11295017082504827,-0.07171628504564209,0.2206038243346953,0.10796613612470178,0.10465943415849753,0.07024040220861029,0.014526687455465172,0.22551798618864893
0.478,0.01952093065621531,-0.01062515288361373,-0.029842800635619768,-0.0034624865734922726,0.023577876298002676,-0.021187017990858207,0.2639603081455886,0.15670548940916484,0.14651903409219852,0.10737764246196646,0.04735732473586902,0.2531859474458397
0.48,-0.041658867616162235,-0.00282069390416559,0.039006624895535746,0.0234029171609695,-0.041482355499122575,0.01676589167765308,0.30695017621125587,0.21662140285891188,0.1904730239164229,0.14143330393521064,0.07092665505817558,0.2726256499856999
0.482,-0.02778384164632333,0.004505801667011394,0.03221847086001118,0.01316510023038726,-0.03073193122420809,0.01680108174839194,0.33023396488619633,0.26097252576548535,0.21113627875034902,0.14901831897280574,0.06707992974666757,0.26487590792311233
0.484,0.017227761075811393,0.012250778364508705,-0.0051071088741115375,-0.012795941277065341,0.01086792862605795,0.0014548676691199648,0.3391693117638459,0.29185477424019973,0.21744658216169835,0.13948768790806096,0.049833517945172774,0.2419584532296568
0.486,0.00998549118898085,0.019931969512605712,0.00992004060160703,-0.012961948432164404,-0.0005874243668522912,0.01216239120923099,0.353957107476173,0.32526771019364165,0.23590389989629099,0.1419396214751131,0.04833436546866092,0.23256385489867093
0.488,-0.05707413752679089,0.024650489507111538,0.0817824929619557,0.017953915345100633,-0.07085807351095968,0.050498081611485876,0.378463145295569,0.3566034408126778,0.2697456767766549,0.16572755356387947,0.0692624211788365,0.2450819164043422
0.49,-0.1023638505595018,0.025182211295797344,0.12758835903143265,0.04011985510316912,-0.11696923877275629,0.0745321131011561,0.39131177896716196,0.35855751362778737,0.29277296241165995,0.18779258558188275,0.08932226893290639,0.2583525507409992
0.492,-0.06635766998305963,0.02503347198248998,0.09137991503027906,0.02179073982350643,-0.08102607058584355,0.05713591261075828,0.3789239716735599,0.3203723559403188,0.28627187543354726,0.1860248749465353,0.08844389942408457,0.2534610537990895
0.494,0.018356811226015443,0.02862867917515663,0.01024344481162874,-0.02316636389585616,0.0020798356696493593,0.018409576431545154,0.3602214158356543,0.2706948677363805,0.2638183474825518,0.168512310682328,0.07392921595355384,0.23662336533357692
0.496,0.08349268332930666,0.03633968624515156,-0.0471823979852031,-0.060065706667790444,0.06395099460357542,-0.006657658843610731,0.3618802474101204,0.24934081596344893,0.2523588315109097,0.15833796174302184,0.0635861963509741,0.2221953193149239
0.498,0.09984069180344782,0.04519963502390719,-0.05476043222238636,-0.0720414422948072,0.07655136839598126,-0.006005119906896253,0.38561876760493646,0.2708150691778222,0.26361867962908087,0.16511046817929678,0.061773921936164315,0.21290299643902721
0.5,0.07840796070889172,0.05263653938909625,-0.026089066137207607,-0.06384495246257589,0.05150242864115688,0.011886518872110008,0.4166083626128081,0.32406126375875943,0.2920898397853566,0.18370786968619013,0.06335045371670545,0.20814622570263566
0.502,0.04069560398731118,0.05830184369057386,0.017181787675360487,-0.04731853911984758,0.010270267691490418,0.03591954460603067,0.4484138518352237,0.39049866172779185,0.32790607463585675,0.20703544956350778,0.06679930985151213,0.2128316277823253
0.504,0.009826719760942447,0.06462320254905013,0.054534726269336815,-0.03561639595049883,-0.0245004001684894,0.057832693551034944,0.48311971288919753,0.4511646309738389,0.3618814851400852,0.2279655885468526,0.0720418363016481,0.22571872579891533
0.506,0.005039427456106419,0.07476935907242385,0.06975364393166189,-0.03919128187695079,-0.03412241718320328,0.07133130301646819,0.5173058981634933,0.49016117132174575,0.3864210331355936,0.23940694119256828,0.07520101635605712,0.2338957058534357
0.508,0.02641019530888741,0.08761970835858676,0.06135776500964311,-0.05655935080928656,-0.018028678287018082,0.07410582118555008,0.5405197200378009,0.5030559672187375,0.40035808924704575,0.2420143588063573,0.07366509936170285,0.22799497438791938
0.51,0.055233408814808524,0.09797930298641164,0.04281135292046289,-0.07542272731539647,0.006316091806593799,0.06955858250211464,0.5459175626165294,0.49814557417062677,0.4095972858749004,0.2448265064821489,0.07095440607317305,0.21247918399381036
0.512,0.07492673963373178,0.10334163192847008,0.028368493827760338,-0.08691912960904956,0.022738838337104814,0.06421945444373914,0.5397198859433087,0.4879338696716978,0.419353561180655,0.25465474697765683,0.07295699685071032,0.19793758936269062
0.514,0.0842246217596044,0.10694233961675609,0.022659947184938765,-0.09316623750479155,0.02923872571688869,0.06298582100593304,0.5383038520222494,0.4829750756033176,0.4293490754920981,0.27023757750830496,0.0818622084878323,0.19095879599280383
0.516,0.09169003012801201,0.11407754600642366,0.022384855336716414,-0.10142172410021934,0.0329722896124307,0.06681172696230639,0.5526851018489044,0.490495620125445,0.43682021142111277,0.28517337700859097,0.09396669852173566,0.19016694799953568
0.518,0.1033903160961627,0.12742030552793682,0.02406009470327262,-0.11522737275328554,0.03861688570981113,0.07462277847359132,0.5786430579846354,0.514026629098927,0.44041844875734465,0.29283595318948896,0.10343477985743267,0.1893490145647111
0.52,0.11508078367252658,0.14407412764514094,0.02900917347232178,-0.12992748680779093,0.04259956720315808,0.0853725503754465,0.6064115624886115,0.5549192630863643,0.4430359354427653,0.2926215115303597,0.11041620104210981,0.187840263158647
0.522,0.1184845971767332,0.15648847161870758,0.0379950251313794,-0.13738741162394139,0.04006686216595103,0.09592440267470767,0.634409536463663,0.6106316757198076,0.4514556136815351,0.29186141158007006,0.12108635382389119,0.1927217695883578
0.524,0.11413933395796781,0.1605248042590965,0.0463726117287759,-0.13657613443615763,0.03357916700059313,0.1020514418318239,0.6655277263314022,0.6674484313730707,0.4688447748723801,0.2967241750192348,0.13546314737329526,0.20540786674957923
0.526,0.10786859588633782,0.16180963711222496,0.053917788870914654,-0.13384668311163633,0.02621853935865584,0.10629649623860019,0.6949847049149098,0.7041422515331767,0.489971057996344,0.30478032172575203,0.1442879958963575,0.21649246994714358
0.528,0.09797310575822668,0.16792254399079004,0.0698464513636073,-0.13192484207478916,0.012978414650126873,0.11709176764771652,0.7125878182449029,0.7108549652700342,0.5091196997561925,0.3114191609741544,0.14296210775293064,0.21947404885792907
0.53,0.07733153804997113,0.1778882463265303,0.10038631254821814,-0.1263588692583766,-0.012345912943261806,0.13739353933244292,0.7163488948614375,0.6975808608656998,0.5283199169091931,0.3178460648101442,0.13935160064268187,0.21946919570325807
0.532,0.041450293569718924,0.1863301167029033,0.14491426575246708,-0.11219045487055947,-0.05189614419202726,0.16406595143966787,0.7163048441904882,0.6825036940226956,0.5522468510832833,0.3287455400522016,0.14526962595771695,0.2259384103912731
0.534,-0.005740519146376089,0.19269231525609834,0.1989244559971958,-0.09146444298556221,-0.10207944867939206,0.19411162307325555,0.7225091412276226,0.6774474693878699,0.5780789005885614,0.34471354197685294,0.16394821481745203,0.24249421779848818
0.536,-0.040476826238748743,0.1996295936054627,0.24080979278301065,-0.07793651251429434,-0.14062477009658694,0.21816716654265247,0.7319817660759209,0.6808970591149385,0.5945120001625602,0.3569340976672376,0.1837783372252214,0.2618423000468575
0.538,-0.03301086928284214,0.20619964118554832,0.2395875229217663,-0.08596947773158777,-0.1372140713928571,0.22071375567617696,0.733522655968768,0.6846169804750768,0.5933776740903878,0.3531568790821504,0.18799767421098534,0.271222390389372
0.54,0.004952201792087282,0.20908507967051596,0.20402551131771532,-0.10705754720851324,-0.10165477429832576,0.20456579400569577,0.72637354753986,0.6898492168578597,0.5821479931288334,0.3343149171586901,0.1758293209459793,0.26817754536989674
0.542,0.019707337345320423,0.20977006271419074,0.18982921082999085,-0.11440799242964662,-0.08779367146517071,0.19811161722674894,0.7232117353353998,0.7070167671175085,0.577141394161134,0.3166830926269729,0.16439502584680715,0.2653484032216843
0.544,-0.016496952599539847,0.2144102932812416,0.23096442405151366,-0.09791875792893504,-0.12590897972793297,0.22117662003466632,0.7308392061007366,0.7357838775435713,0.5829253916240368,0.31219105057241564,0.16474646918294084,0.273987009595679
0.546,-0.07318984048290939,0.22481134946751913,0.2984508033731053,-0.07468251936761479,-0.18668000366671106,0.26010703602135077,0.7401429465681674,0.7581620153382892,0.5886390073548456,0.31799409343148155,0.16952586219432292,0.29117301240204513
0.548,-0.10451472230206092,0.23439821390671378,0.33957726455977666,-0.06415321234452091,-0.22201924110218646,0.28538280561669127,0.738225576999873,0.7545602520593544,0.5825620536293062,0.32510348850840803,0.16683846622418552,0.30549543397301104
0.55,-0.08828349539223665,0.23612265874712499,0.3251304501436244,-0.07316450979229236,-0.20709618393674653,0.27901393171748307,0.7189974201647412,0.7187815142032953,0.5594579551507451,0.3238587153898778,0.15268824299828268,0.305962334075141
0.552,-0.027026970498821426,0.2310087590511087,0.25883759585653016,-0.10092268130774963,-0.14459250260013592,0.24339321498077668,0.6819441423055926,0.658999522516221,0.5190201446961278,0.305658187138704,0.13033844102367786,0.28803003449771314
0.554,0.05598476592998822,0.22544253208443102,0.1702983314899754,-0.13956926239642256,-0.05964861683522894,0.19628095852784627,0.6331814307820032,0.5919133536879595,0.4675815890325147,0.27069389633064944,0.10791589032809425,0.26033118712007974
0.556,0.12256116255135126,0.22281291816069262,0.10086117426094973,-0.17187833609674927,0.008696669432252533,0.15988394265804434,0.5887673588301287,0.5367652326872744,0.41908751092536,0.23018552943824208,0.09457500393076984,0.24173677143006608
0.558,0.14282682686149742,0.2212793966000136,0.07860287250281217,-0.1814955583902615,0.031073106688488745,0.1478073298559893,0.5655273245939569,0.5094006185811578,0.3880905030305398,0.19754306661204227,0.09310226202917839,0.24379028137115274
0.56,0.11693296880105043,0.21769503570851448,0.1005604595771304,-0.16673761594538045,0.008104105630259097,0.15760944869347057,0.5657877504062263,0.5158307056403091,0.37972356276264013,0.18062616680174728,0.09841485275541136,0.25872920602617894
0.562,0.0683321959822348,0.21182318592470528,0.1431873150546335,-0.13967995334394584,-0.03745439221414447,0.176932640996753,0.577112648341725,0.5478295525612864,0.38637146273859263,0.1797624982187466,0.10451775123457875,0.2704550340947312
0.564,0.023835053287117255,0.20727846081493076,0.18309898119172135,-0.11566455270906072,-0.08059120729854072,0.19473196373281762,0.5833390418786796,0.58253296797143,0.39184313307439006,0.18655453634314634,0.10713781286161078,0.27154472747959035
0.566,0.006182045273631356,0.20751607339298042,0.20087355908131266,-0.10722763896206278,-0.0994119796998445,0.20299856162483115,0.5713267313496122,0.5893951223170774,0.379282038240701,0.18572219233368023,0.09926024057478716,0.26368112639063535
0.568,0.02522694782427109,0.21094681600363616,0.1851792590587984,-0.11811644648596899,-0.08229751404972174,0.1965396271328765,0.5374590503531067,0.5504446298827851,0.34451972709994205,0.16639082179920375,0.07553718523463727,0.25052446184002625
0.57,0.06426324878902907,0.21174561582545218,0.14705519834901656,-0.13742612847305896,-0.04323533989181995,0.17840785415443972,0.49280258943707095,0.4792155489470128,0.30447406065431143,0.13403115353754338,0.04399220404560953,0.23669411276283125
0.572,0.09318908057338306,0.20557595336414775,0.11223970850457417,-0.14857364786627641,-0.011151197364148093,0.1581728243840418,0.45345348305629907,0.40908346185066546,0.28102116915063835,0.10542764935720225,0.02201827722373116,0.22706005552257233
0.574,0.09839602010771262,0.19349461686137723,0.0951860905652971,-0.1452981090415992,-0.000255008228623367,0.14282754856496377,0.42643813166684097,0.36128006434899707,0.27563581242467505,0.09092654511023339,0.018570239224998158,0.22365806520892573
0.576,0.08647766705912169,0.1802887412971807,0.0939304702040374,-0.13265256653903168,-0.0055924473102376936,0.13463722649414056,0.4106058496564515,0.3343743841685679,0.2717884978472588,0.08658371922221535,0.027152296952514164,0.22497269890945762
0.578,0.06708271710519297,0.16991663096744541,0.10285089059813571,-0.11713098823425994,-0.0194692125653949,0.13396858163630088,0.4042444653418962,0.32056141831611457,0.2593555272654856,0.08294084889490534,0.03514204546606971,0.22691903562227056
0.58,0.04549762834477354,0.16309949386829423,0.11754767118355755,-0.10218943363724603,-0.03752393886514543,0.13887227145980535,0.4039103715170218,0.317750747354046,0.24272168488278148,0.07524256599180225,0.03574123617283385,0.22496339231375473
0.582,0.028276776439152954,0.15905651060437442,0.1307445480109664,-0.0913855324421948,-0.05285147376872052,0.14409477313669364,0.3996592787895868,0.32304463115681015,0.22625221082519867,0.06239198928829071,0.030488516658022984,0.2172235124057761
0.584,0.027886844061146682,0.15771994902899714,0.1298674239512031,-0.09110176070650985,-0.05269121750859425,0.14275050934950456,0.37827331947492865,0.32297990190632847,0.20469577863658994,0.04124194193013058,0.021579828955415964,0.20428067183131265
0.586,0.051887042101690095,0.15818412027437523,0.10643143730883635,-0.10406474314578064,-0.028948633713654456,0.13097661777659184,0.33475513382709154,0.2999386567037874,0.1719185254172647,0.009785004541783188,0.007572154919484608,0.18768679090557258
0.588,0.08465006704515793,0.15691584557611082,0.0724670638305394,-0.11995460726514744,0.004632636645529789,0.11379072364587275,0.2817359257753579,0.25143998713181326,0.1329462790916578,-0.02450917436269823,-0.008665221214284785,0.17296240614236996
0.59,0.09538743948905576,0.15145037154249813,0.056168917978865605,-0.12226489978445271,0.01855325325682301,0.10368024134463208,0.24185628125393901,0.19595971991802566,0.10148338918907351,-0.04719846707690392,-0.01562939184927262,0.16913547683306548
0.592,0.07425358101379637,0.14387478933421538,0.06957731655702144,-0.10792980901355705,0.001682035560017575,0.10701346092439466,0.225449754552152,0.1528565402807801,0.08516965213898474,-0.05112882598825271,-0.0061132911569158855,0.17850585520359594
0.594,0.04780332638385339,0.13419946615491513,0.0864445340806228,-0.09045808762037859,-0.019806823491816693,0.11056331290537641,0.22264558950152974,0.12412651266551177,0.07822820113256473,-0.0443008217896786,0.011942126849106085,0.1924119877818775
0.596,0.04704826570505657,0.11364541855028079,0.06690512359678764,-0.08022241329050085,-0.010592739407727234,0.09025732009178257,0.219822553226919,0.10363185068695181,0.07153573037757109,-0.04056747336757124,0.02543337416445176,0.20068980453164903
0.598,0.07044477506017417,0.0778400171236037,0.007734790261618947,-0.07374690224758973,0.03041806629502332,0.04233187088309819,0.2119157338867631,0.09259603388085058,0.06365227251329174,-0.046211865306478195,0.02916294101128408,0.19788910576983545
0.6,0.09207889690032686,0.0448097987676398,-0.04718773980332564,-0.06748665554137687,0.06863789567844457,-0.0024380959018742527,0.198959959167832,0.09575667818089571,0.0567912764316862,-0.05882060142125644,0.022598967843875377,0.18051796127503683
0.602,0.09672921183794551,0.04009462605542297,-0.056771977706108576,-0.06709606038028469,0.07580304550381615,-0.010582449128265312,0.18347460961625986,0.10993694795467551,0.0491285861958653,-0.07542003492396217,0.003613361121983239,0.14847050153879254
0.604,0.09018723758403278,0.061837158867173926,-0.028467188649802546,-0.07447204617874263,0.05846600425984297,0.013862872641763266,0.1696579849900935,0.12225177394972514,0.03822294291677745,-0.09528919087140701,-0.025450252238923905,0.1118678851753368
0.606,0.08186820701717328,0.08026588202188058,-0.0015867606602346087,-0.07929681509372624,0.04118467068337646,0.036776014523545085,0.15753208300763796,0.11886632202675787,0.026200786103891874,-0.11450944882041507,-0.052109174763956184,0.08857230857520013
0.608,0.07487071141711542,0.07472587911821145,-7.37508065677086e-05,-0.07295182576546269,0.037411353040730504,0.0354989026678455,0.1422531752894015,0.09548668023543572,0.01470285167483999,-0.12641340481781885,-0.06352587361130042,0.08773216637562718
0.61,0.06937132694011255,0.05438796011384797,-0.014957542551346023,-0.06012893900710605,0.04240542565453041,0.018240006179576922,0.1235069262174256,0.05856038244576966,0.0008701306575374013,-0.1298740609602141,-0.05866378794163138,0.09969351730308276
0.612,0.062255373940516924,0.03956687197958525,-0.022714795057682143,-0.04929394108286469,0.04253650020749197,0.006568940922781626,0.10904446629001682,0.019105165722838397,-0.015480557683615798,-0.12852145751162306,-0.04518912279892237,0.1093086920010484
0.614,0.05422741734511489,0.037227123997321844,-0.01702693601220166,-0.0442736231830793,0.03486692978570695,0.007817079742095976,0.10278876950582097,-0.014245915684684706,-0.029422806982052574,-0.12516659892946227,-0.031291523935310435,0.11194881878441117
0.616,0.06255699302290907,0.04056578013421537,-0.02198960806828801,-0.0501597861836722,0.040547708454257564,0.007233744272632721,0.09590139384045618,-0.03928003356711944,-0.03990766342992401,-0.12527331716333817,-0.025240058501105677,0.10856377926754937
0.618,0.09639644923373743,0.042606220987567014,-0.05377492964386996,-0.06793311489621938,0.07307604356481025,-0.007166009233456711,0.08075898576912842,-0.0521944417673297,-0.04881008619459589,-0.13373026816046726,-0.03158750195804378,0.09801240321875532
0.62,0.11986931778879577,0.04264777323155715,-0.07721511316602252,-0.07953585270962252,0.09684881880971041,-0.018784284891202586,0.06911232132539173,-0.03927522657814419,-0.04980163914072504,-0.1411814503759952,-0.04169552404484799,0.0842847580061458
0.622,0.08710985602338585,0.04274289192170871,-0.04437224004205123,-0.06314038292066577,0.06402191576662915,-0.002202366106239675,0.07918394492071941,0.004786769283759284,-0.0352065938412765,-0.1316692432829178,-0.03998737332011923,0.07693018014394663
0.624,0.016868568986075725,0.04285790091960481,0.026005242058322206,-0.028020200445465403,-0.006676261790496419,0.03372227417459233,0.10475064009282989,0.052937704843317716,-0.016433236652397206,-0.10978935092886638,-0.025505445928354843,0.07523503651484709
0.626,-0.015586661456412475,0.04031400799533091,0.05603198440841757,-0.010617139924904307,-0.03763874338344858,0.04799253895684792,0.11634032877481876,0.06337602252463308,-0.018812627235841803,-0.10116713530436854,-0.015153467649629505,0.06668522842764259
0.628,0.028727121572968663,0.032923841257533615,0.004505489131151026,-0.029264303421410322,0.011237175267844915,0.018017724261130633,0.09778497610109628,0.023891850607856226,-0.04851216390935745,-0.1195974231786653,-0.019362955309613628,0.04913110562082617
0.63,0.10472305331030064,0.022120424929491306,-0.08230976701643232,-0.06178986876360416,0.09285138688006057,-0.0318283402787825,0.0646658963796564,-0.03688706251914365,-0.08015072076247184,-0.14873665888679305,-0.02687441032846037,0.03907184098368534
0.632,0.1422747595268348,0.012302684834973817,-0.13004499768205885,-0.07539475168562168,0.13433875840870763,-0.060905424670085494,0.04048732758167254,-0.08314780782059239,-0.0875256561390827,-0.16242101430043895,-0.02160226857163943,0.048037884177903355
0.634,0.12496308543095665,0.00662963069996602,-0.11878309019419354,-0.06378419051417368,0.11875839174214632,-0.057374017009437075,0.030523338193337385,-0.10318426017615172,-0.07344405984842603,-0.1533854607472649,-0.004247009207741183,0.06399899173317586
0.636,0.0913248590066017,0.004828303646393913,-0.08689797064972295,-0.0461892763804962,0.08588032868445433,-0.041540694421656504,0.02805469896078249,-0.10474949733404795,-0.05718949309675251,-0.13640686497677496,0.011544830483205535,0.0672077489968088
0.638,0.07666229029453263,0.005354181836614342,-0.07134494754044086,-0.03937744770254977,0.07177663226655102,-0.03376397348108729,0.03241865663791798,-0.09382117281854384,-0.04555837914285024,-0.12864783075087696,0.01684553008715829,0.05438358303861918
0.64,0.0802495475617222,0.007172322369556152,-0.07288492022141087,-0.042193975107348854,0.07557865390182998,-0.03485262908390883,0.04715342431747824,-0.07011264453772373,-0.03206637275394457,-0.13329210432052097,0.012087963050656797,0.036439363841368776
0.642,0.08763373852673827,0.00860485203756151,-0.0789094554258573,-0.04649020414554439,0.08288546304696698,-0.038189188814321665,0.06555294767650184,-0.03874134734055114,-0.015923949412608024,-0.14158083656209317,-0.0013190495530038915,0.019339271134230448
0.644,0.09548247779180488,0.006939813585976116,-0.08856499684191503,-0.0496969179417619,0.09114822033247968,-0.04387128661999125,0.07212466003267608,-0.013716269364609849,-0.0061436204187710645,-0.14412268911364243,-0.022901071010864048,-0.0007436668916450214
0.646,0.10223813066214861,0.0010175044155200813,-0.10117536879990101,-0.05064902085052503,0.09973296242389121,-0.05224193014301352,0.062153728945748186,-0.007491396878064587,-0.009660027670624353,-0.1379274086874712,-0.04573340904066994,-0.02459815648785777
0.648,0.09932775457122589,-0.00711734675175112,-0.10611307289010366,-0.04547806452130542,0.10023649113895633,-0.057484733693318,0.047807240817446334,-0.02347023461585458,-0.025043498711123022,-0.12812890390946527,-0.05785969943848784,-0.043920037594297454
0.65,0.07633653460530421,-0.013986883093814675,-0.08973098007465294,-0.030310211363996833,0.08110500365217897,-0.05159656973146253,0.042044590792017784,-0.05425193755907875,-0.043021497385688084,-0.12093456820051716,-0.05254366311411407,-0.04879380177867359
0.652,0.010246091274408944,-0.01678525462407746,-0.02642054020534118,0.004484902322822972,0.01724978946260723,-0.02084099181943409,0.05252214259522598,-0.07694272184029786,-0.04549541940949532,-0.10799254741736042,-0.027063051206160996,-0.03087638428169461
0.654,-0.1205381177968553,-0.01480753747873136,0.106119812253888,0.06867249920384559,-0.11397047058907081,0.046251776561992766,0.08494009913950447,-0.06491567269742729,-0.01805264996221123,-0.0724996727260151,0.019480768136637572,0.012944010710588367
0.656,-0.2650911961622382,-0.010414372291552752,0.25476770167205615,0.13792833385065226,-0.2603267395496058,0.12242560964597729,0.12673359889839678,-0.025568549465888303,0.022619786403657523,-0.026146270031463165,0.0680908072011725,0.06273644914158052
0.658,-0.29832168689139377,-0.006775354870156085,0.2914526335230908,0.15196391475310767,-0.2950067563532193,0.14243479340768575,0.14021247242657411,-0.007546607781845906,0.032671129338534916,-0.015246516390459815,0.07560937616647916,0.07593160651534953
0.66,-0.16486457132692392,-0.004934440083901634,0.15983846219485562,0.08423787123372313,-0.1625606764361878,0.07729912974043526,0.10405735875726997,-0.04188619332550637,-0.006959948359743654,-0.0632472618658936,0.020195092953563275,0.032553101302838214
0.662,0.017823066140194545,-0.005415893494959473,-0.02326125232757421,-0.0063816258448347665,0.019480564795037354,-0.015246368468047083,0.05168872442253301,-0.09240996093595986,-0.05742314267762105,-0.1283525078808711,-0.05672861383759389,-0.02891845158775219
0.664,0.07642113358315078,-0.009836668669054718,-0.0863201736821065,-0.032849021976064846,0.07915880335674051,-0.04982801897348248,0.03747564423825664,-0.09643872281499566,-0.06370215266524269,-0.1486681916386904,-0.0869392735104932,-0.04835010725689478
0.666,-0.01636284614632157,-0.01731663384662627,-0.001127209674046223,0.0180180846033894,-0.010206593729991761,-0.011050204162803886,0.06884212815711113,-0.047560191164144,-0.02285058952481094,-0.11701465617416242,-0.05425586319408911,-0.014723236760788143
0.668,-0.12411198964550652,-0.022486500753409057,0.10153781382167644,0.07527741440311773,-0.11469593993124884,0.03838235585209726,0.10018240458313236,-0.004810378198541155,0.012948130275377357,-0.08266478889052392,-0.007747676478784826,0.025136365981247494
0.67,-0.12652196480384165,-0.021271693495345124,0.10552951394371955,0.07606675510772384,-0.11707443399809066,0.04156983327791714,0.09330911201900124,-0.017058400222775848,0.0013027763101505435,-0.08562389407295233,0.004807845301893752,0.029820676943534716
0.672,-0.04349230281188733,-0.016654141580098664,0.02746746230393457,0.03133607190057442,-0.036433661563199764,0.004788899867560107,0.05560994237581828,-0.07206999633931739,-0.04711185779689023,-0.11670525727133266,-0.013805262957656775,0.007204582789772658
0.674,0.031950147457543994,-0.015270980881481487,-0.04653726653947446,-0.008284950035507091,0.03817407412341274,-0.03198346836066251,0.017734878342658304,-0.1274204582074733,-0.09248789352061058,-0.1412875343102657,-0.031781299115477835,-0.012015874516528205
0.676,0.05151048432257158,-0.019748777423496622,-0.07075350539253596,-0.01605213717736379,0.06033079645264185,-0.046864675503604535,-8.775977103316166e-05,-0.15741614480388355,-0.1085772159838624,-0.13916558216558841,-0.03230545160015471,-0.017293137789593422
0.678,0.03654324091878358,-0.02654986001080533,-0.06280830357496046,-0.00445604962892802,0.048941958510981924,-0.04683329819966656,0.003308315474697428,-0.1592590251052014,-0.09724855924261332,-0.11806548796049349,-0.025792490681017355,-0.02100958649824724
0.68,0.0320056798460017,-0.030281743113420537,-0.062214172721726496,0.00017053151160782612,0.045696251609796894,-0.04862381362496855,0.016365296326878533,-0.14132561443754932,-0.07741066324110611,-0.10091960220123747,-0.029830148226361056,-0.03481265378661391
0.682,0.058451863248596116,-0.02916740565522975,-0.0878076716921297,-0.013671888317250214,0.0709995171092027,-0.06028315257822025,0.02479778874791397,-0.11835069403683972,-0.06468995051977561,-0.10279731106842792,-0.04626587712363137,-0.05592073570145782
0.684,0.09647717483207106,-0.026527483900756252,-0.12352921156756883,-0.033852304079217174,0.10803228062591312,-0.07579619095388107,0.022906692941950458,-0.10448679456696032,-0.05958982253804605,-0.11844453981572434,-0.06087324531397229,-0.07248227632485599
0.686,0.11211644828641393,-0.027064115166196754,-0.13995039694926312,-0.04081053054651316,0.12490251602324721,-0.0837712648154345,0.016420170491733492,-0.10432049572750575,-0.055770299068621264,-0.13262332057010506,-0.062296162391478956,-0.07605411128729675
0.688,0.09749456170698699,-0.03147924353296559,-0.1296283261090706,-0.03098137563285928,0.11292446625356743,-0.08102466898978908,0.010248754875250619,-0.11518370358528975,-0.05391711166421354,-0.13857651087368755,-0.0543133911378156,-0.06852813664955314
0.69,0.08010580266127569,-0.03500143052452631,-0.11531498080114098,-0.02083584300365488,0.09661234090035287,-0.07603737989050531,-0.0010186865972781787,-0.13563836746161745,-0.060428077406116734,-0.14167504328368574,-0.048046545433524025,-0.05912133724045288
0.692,0.08342761615106037,-0.03301503239937709,-0.11627312341881142,-0.023886338073343866,0.09800605950431643,-0.07607593319658855,-0.019435049312059954,-0.16367641354818535,-0.07494596649425576,-0.14587164856571957,-0.04614593201376994,-0.05401854510810194
0.694,0.0885136903946215,-0.027269563898882576,-0.11558711111608279,-0.02929116299116702,0.10020553388234832,-0.07362515139471705,-0.02820520801154656,-0.1880579309814329,-0.0858522089346514,-0.14361106906920035,-0.038961274597771746,-0.04899981742450867
0.696,0.05944086733033906,-0.023124485412202682,-0.08255335648483868,-0.016567111592334954,0.06966582642107173,-0.05538031330138847,-0.009466464848997852,-0.1924574304919537,-0.08248401468193202,-0.12691235503291062,-0.019577925517917965,-0.03771010601370843
0.698,-0.000703225459328331,-0.02210011235243026,-0.021494861614597113,0.013057435811399069,0.009197007603268957,-0.023676099175872885,0.02718297334944203,-0.17176907802579494,-0.06882325454638967,-0.10239809016256078,0.0015153923531454584,-0.025724024782129998
0.7,-0.055614456186196946,-0.020425689454693818,0.03513514338852547,0.039498095676795686,-0.04670113430367037,0.006555123210605048,0.05713647719647658,-0.13423878148065174,-0.054558843680227544,-0.08117768551595274,0.008888067072053755,-0.023474467592176692
0.702,-0.09112339349755687,-0.013632448735318074,0.0774963215777341,0.0539210790754253,-0.0854374980574964,0.03146282991849454,0.07651841410518873,-0.08764181312585155,-0.036516218760179374,-0.06149019646238578,0.006710377693227671,-0.027094565085033852
0.704,-0.11673943365909896,-0.0006935044289398958,0.11595677263027278,0.06080025011804623,-0.11721654066236918,0.05653665446994896,0.09610695766418864,-0.04099997653405533,-0.009836663181473188,-0.0411850184556732,0.010590886414308137,-0.025668171223386767
0.706,-0.11867997941045234,0.01532210937025185,0.13367991675358876,0.054060312661272286,-0.12725312220258003,0.07260935735997116,0.10698511473905634,-0.016181567547096577,0.007957194667788898,-0.03580775393906847,0.017739854201251473,-0.023925556358936787
0.708,-0.07153346602547746,0.02939888543182628,0.10048927092112592,0.022712574064307656,-0.08761081163680003,0.06270566507805081,0.08924514196856799,-0.03177351801596609,-0.0062517721981926976,-0.05869167709666308,0.010871497795283565,-0.03487445031700939
0.71,0.004885535199268891,0.0379684322145899,0.032814719558127196,-0.02090433012360797,-0.015938215810276053,0.033320940326001386,0.05053388979789112,-0.07585781887511177,-0.04410272221394158,-0.09378856317367869,-0.009941188102282086,-0.0547398532001205
0.712,0.05229046256899634,0.04156636463496367,-0.010671347990909345,-0.046432302362973576,0.029534451797847392,0.013787981193173263,0.024472863492305357,-0.1142986663421566,-0.07123719589982933,-0.11018941575784448,-0.022221445333898176,-0.06515179659680592
0.714,0.03708321476808347,0.0447166747368073,0.007941860572912334,-0.03927512750679095,0.012914530466286742,0.02484799623357054,0.03262169817288468,-0.12498295836767068,-0.06617340731969962,-0.09534751855934465,-0.009010951610549987,-0.05586554409314377
0.716,-0.017991935236096226,0.052057374370304645,0.07057292194495664,-0.014618468091017422,-0.045701540366686694,0.059549977033214775,0.06380940333595855,-0.11346729611028171,-0.0392440621969257,-0.06383760898020219,0.020768691759441283,-0.03465528514806297
0.718,-0.05407489158820197,0.06329062670681068,0.11806510471868567,-0.002507434423237024,-0.08727270736498327,0.08856273534975513,0.08811973845650728,-0.09964868419653078,-0.018658147361483485,-0.04276244115748559,0.03978410661712308,-0.01999846554902273
0.72,-0.021793211812454787,0.07446455487940139,0.09687652972616306,-0.024941701819609675,-0.06007728872428599,0.08374248945671152,0.08630135166656176,-0.09762057485272752,-0.023387807410188702,-0.050720008998841624,0.025683960620848514,-0.027175750981306812
0.722,0.07072509008889408,0.08559597773047177,0.015099528644521475,-0.07707654411075575,0.027482468347936283,0.04926973075890323,0.06683656946682436,-0.10411692972349777,-0.04375954090081457,-0.08083412381116346,-0.01804431888461376,-0.05510059778113017
0.724,0.1514406460246263,0.10183517331347473,-0.04974527258840721,-0.12533474166193084,0.09994091522901191,0.02591557033560899,0.05347099401974195,-0.10252118593636751,-0.049843393451653374,-0.10422464194404349,-0.06186304890128926,-0.0850511972583523
0.726,0.1517336195592383,0.12539484128477196,-0.02653199635294228,-0.13685172867002818,0.08743620336221934,0.049571794968826736,0.05732254821430893,-0.08436318641561055,-0.025287364498766004,-0.09815898592255726,-0.07689821601290313,-0.09644555813288007
0.728,0.08520252513605359,0.1503497858820084,0.065120454789763,-0.11592950753162976,0.007464761087271559,0.10734561188161346,0.06711119046825986,-0.06520823415248259,0.012112341556927175,-0.07021900069990838,-0.0629243867790988,-0.08536949523271993
0.73,0.034044460076410925,0.16420013965193608,0.1302449725206166,-0.09741995157215257,-0.05057030828241119,0.14621267484451575,0.06700098563580305,-0.06904043208142603,0.030921590769847636,-0.048275958184400405,-0.043340458905188395,-0.06554530895084554
0.732,0.0528313800546193,0.15331055886339937,0.10053673128397907,-0.10144533001597132,-0.025274802779385392,0.12585976876839902,0.05528761886835855,-0.09865912821858894,0.021190260703676828,-0.047285199538069,-0.034168260842068025,-0.05116516994328275
0.734,0.11366700221971762,0.11541153713046381,0.0017238325112557888,-0.1128618329861961,0.05555834243103749,0.05796236850056808,0.0411549171457934,-0.1321600790130045,-0.0010976812005646334,-0.05595627404349789,-0.030275990052514735,-0.04440164077868217
0.736,0.15589252084585042,0.07163864125359198,-0.08429502317472405,-0.1119626383075063,0.11960563285655673,-0.006497138525955363,0.030111793027826805,-0.14896725424714724,-0.01982702811680772,-0.0594762188122257,-0.023254799182882396,-0.04149271565275442
0.738,0.15845762457195564,0.05501378533905662,-0.10345221032490043,-0.10465222953966496,0.12954132972621116,-0.02452717704667792,0.020451216179978682,-0.14787306121825722,-0.033633847503333765,-0.06019110525158528,-0.016979487343547674,-0.04230668309384879
0.74,0.13811451361537325,0.07809926138879564,-0.05999682333431491,-0.10572163810024557,0.0972860717618522,0.007918710071745175,0.013446575121948566,-0.13553583616848636,-0.04379736609027163,-0.06476148179963702,-0.01760920308244131,-0.04711704648214001
0.742,0.10328558096961703,0.11950638451356374,0.016234167687303395,-0.10905441438000818,0.04269286880987609,0.06588152992424613,0.01850040719027799,-0.11120329726507795,-0.04358870584492052,-0.0658819349689073,-0.018666628492472952,-0.04923570637140447
0.744,0.05256655010286006,0.14766551313561316,0.09507335074600848,-0.09823576456821978,-0.020847235906213315,0.11924294207914918,0.03911194711801349,-0.07501607625421691,-0.029265994971997323,-0.05545310698789536,-0.008631593925966219,-0.04081594449517303
0.746,0.008875653369182628,0.1507146528985666,0.14169863759617543,-0.07841557521240362,-0.06584198121913515,0.14443620042947847,0.05789839095285305,-0.043484096864998115,-0.01247464615053252,-0.04710657698687912,0.008466770879603118,-0.026487450696550657
0.748,0.00859402975686246,0.1396503859179162,0.13072662071717384,-0.07303145319381732,-0.061458516913925454,0.13355260299709112,0.05070974839413472,-0.04101797132278684,-0.010358722484993185,-0.06292512218843886,0.014593621754672603,-0.020335240504136317
0.75,0.049786905130703156,0.13040684742918857,0.08022310692161004,-0.08922538836503456,-0.016543919893709035,0.1035524389432836,0.016638211956907015,-0.07468594990054993,-0.026908959673409477,-0.09846563983490084,0.003798359566634404,-0.02545092825150356
0.752,0.0864745765543653,0.13050029408740493,0.04390458619594677,-0.10771532221798387,0.01987888082206468,0.0853382943366876,-0.02068333360697515,-0.1268167751925951,-0.05211698356257311,-0.12087557758747149,-0.00712903569886175,-0.02765051294121561
0.754,0.08560993591908315,0.13935647754157124,0.054077081926803626,-0.11134944880519754,0.014869453714035447,0.0947002082297651,-0.04301742163971984,-0.17252909955684986,-0.0744284544892367,-0.10732536859683563,-0.0016259058453449717,-0.015268847914190618
0.756,0.06536163517620792,0.15312221578458723,0.08819568582732898,-0.10750487524559307,-0.011920266440277837,0.11838865979222261,-0.054433807997245544,-0.1979616893963699,-0.08611457498178025,-0.07402448634893806,0.013289125804902865,0.003814264390983566
0.758,0.06268985693547023,0.16724968261140824,0.10455055115071368,-0.11316131805586159,-0.021435654266428936,0.1334826659240202,-0.06508875478425741,-0.20229038453971213,-0.08169259413194525,-0.057319161062444744,0.01855432478482569,0.012519633845996539
0.76,0.07870174528783125,0.1762270300763272,0.09703166493066606,-0.1262003140383907,-0.009761889874349405,0.13421010969465766,-0.07194419763909497,-0.18966747525180405,-0.06085791227063452,-0.06960492558920513,0.011800324589791002,0.006825620458156199
0.762,0.08077161300654667,0.17323630313650892,0.09200764517320904,-0.12613210374552683,-0.00614277508847013,0.1301084835549951,-0.06656844106948949,-0.16669603522852153,-0.03370249797187744,-0.08864867222520686,0.00699824386232774,-0.002607213002322703
0.764,0.05510947031911107,0.15484614491867138,0.09969688022021879,-0.10395379988904843,-0.022751806450983573,0.12451585590340936,-0.05539082332426496,-0.14527136465064902,-0.016537051392415545,-0.09142457123427324,0.009194469144456253,-0.008353726773019777
0.766,0.028754022157779554,0.12653114157501602,0.09799822047198863,-0.07633106656991114,-0.0351155396919278,0.10951761830212078,-0.05798454329439355,-0.13957333224884771,-0.020946021030553076,-0.08138189153586747,0.008751925672685592,-0.013157659181549621
0.768,0.033764803758187564,0.0985745350696995,0.06494452738973601,-0.06495586479760841,-0.016144991519998358,0.07955895963278568,-0.08364737426702752,-0.1578214389360153,-0.04815188412666425,-0.07702235926559232,-0.0010550992862102206,-0.01961813583416496
0.77,0.0628066821659839,0.07563001290676379,0.012770701764207358,-0.06843813165385075,0.024288643098598756,0.04256745087110334,-0.1175732210269022,-0.19351900548309497,-0.08592629075426939,-0.08348755801661423,-0.012491307133189865,-0.022980040465686122
0.772,0.06697179974506391,0.054205761821268475,-0.012864466046337501,-0.06003991682247679,0.03883755427104849,0.018863688991384176,-0.1334590900105657,-0.22260288634110273,-0.10954531560228856,-0.08539031575743687,-0.010509807438160355,-0.016717231824934894
0.774,0.010379856166057001,0.03125658474016734,0.02085805023639756,-0.020143061107116986,-0.006800461310662129,0.023470222033765673,-0.11835581521223881,-0.21955036656201946,-0.10043977236886652,-0.07209528097099178,0.009615095359920419,-0.00236616956552637
0.776,-0.07575420939206717,0.010180713783444649,0.08597954547376749,0.033482714518506956,-0.08299374938423036,0.04496475618738281,-0.08224978068856427,-0.18311285387382434,-0.06560607158841791,-0.05821267783064232,0.03583167451387022,0.008792105756855514
0.778,-0.12111635619330381,-0.005336090173119887,0.11581176374935939,0.06362383639210778,-0.12095053423256212,0.052325236936921975,-0.04626615076264128,-0.13606816785616493,-0.027612532088658867,-0.06567586003464793,0.05318400620836519,0.00423132977657362
0.78,-0.0935982262837772,-0.018011131785698766,0.07557780697298322,0.05593574342881863,-0.08673058471451546,0.026649394327673513,-0.027476385273058273,-0.097383653340527,-0.003001545456300558,-0.09825503113215382,0.057201176835291204,-0.018802078734898354
0.782,-0.02070514498106479,-0.03238940259045776,-0.011705875057827133,0.026719585635421386,-0.0055626825373973135,-0.023193643452921985,-0.028073620906038373,-0.0735481786435949,-0.004624815591317336,-0.14770144742881458,0.05088050665903124,-0.04951771034529802
0.784,0.05147098401064248,-0.04854504729390495,-0.1000212882874796,-0.0009530199505253694,0.07571431190068559,-0.07474568038149605,-0.03492698507046975,-0.07612049721235804,-0.049646726934794876,-0.20791481620002938,0.03685873705223516,-0.0728076489015256
0.786,0.09122874446681255,-0.06405089263220713,-0.15527035190023813,-0.012417254477518501,0.12330512031528983,-0.11018330780234266,-0.0373442503493093,-0.11381172483906904,-0.13593830339436389,-0.26472073396663526,0.01966053662112621,-0.08102083007773678
0.788,0.08764706541017946,-0.07691218071977113,-0.16455194251088323,-0.0033257480548683173,0.12539233710927128,-0.12185775024482354,-0.03762077916486767,-0.16312486299077958,-0.2178341123150196,-0.2871863472587143,0.010605111443926032,-0.07403549795988006
0.79,0.051648574270313816,-0.08398765478376857,-0.13563780759990432,0.01881020753342777,0.09241456647906737,-0.11151938201591215,-0.037360519721737755,-0.18247280376107666,-0.237331739356071,-0.25192961964001365,0.01977295930347085,-0.05532209021489019
0.792,0.007552486556118964,-0.08340546189143401,-0.09096268815768097,0.04059447848394381,0.04840863722933841,-0.08924924362426516,-0.0320552348298673,-0.1614438095792479,-0.181863918707136,-0.17228975484883297,0.042384482779274965,-0.03529180277117182
0.794,-0.02704548209584414,-0.08222084053177506,-0.05517676091547422,0.05693435892274116,0.013718065308951616,-0.07093459006977,-0.02423218418447954,-0.129642581015508,-0.09495050811607977,-0.09220980777026576,0.05712871153035866,-0.030715198572711187
0.796,-0.04551582965037056,-0.09286229848637237,-0.047344552166877094,0.07097015218901528,8.17233735323419e-05,-0.07218465575337955,-0.023582922514828755,-0.11723393005703658,-0.03605238203395748,-0.05401385567341383,0.039489247793917395,-0.051769040096493746
0.798,-0.038819119040884274,-0.1154820258484834,-0.07668316555853107,0.07836815314224639,0.01687947862946357,-0.09768476623662267,-0.03251504710490438,-0.12750749456848298,-0.038733227369722636,-0.07013663289595579,-0.014143826852902153,-0.09130833937878348
0.8,0.0008101100248044265,-0.13213947741978568,-0.13308114630634782,0.06636643646465931,0.0641335711229708,-0.13396745884009598,-0.043330209429840415,-0.1441300180339449,-0.09139405091676496,-0.11447066307256107,-0.0741693831984712,-0.12951612612702898
0.802,0.06248079945733725,-0.12722852616371336,-0.19003777808690167,0.032736867150623426,0.12358218549287225,-0.16053567299780117,-0.04977434808277537,-0.15109209265788015,-0.14731250676511343,-0.1436428020832447,-0.1079975038292618,-0.15197233627202494
0.804,0.11872039073319939,-0.1085549746857947,-0.22767639196251627,-0.004671293009566554,0.1710699203932283,-0.17095730041748497,-0.05453347104227332,-0.14666686744212748,-0.16363257658746494,-0.13610871551687187,-0.11983136727153962,-0.16324559949439144
0.806,0.1436613560274251,-0.09950561069631535,-0.24329080008438747,-0.021211980307417853,0.19197741050225742,-0.1745140838194862,-0.06117151430424843,-0.1397674522586147,-0.13483443369814002,-0.10691093769572525,-0.13530477589273768,-0.1742773004281458
0.808,0.12910302351577024,-0.1128491317883745,-0.24159867878294516,-0.006929304473779665,0.18443426326502677,-0.17956602900644653,-0.0636976777808349,-0.13711760237259038,-0.0901109667712574,-0.08511375982608156,-0.15719512456960372,-0.18090765283911595
0.81,0.09260322520123296,-0.13896916553887523,-0.23100401917247648,0.02403023531935164,0.16107952865285716,-0.18626957280584125,-0.05556934961062432,-0.14263700742338878,-0.0655566190860319,-0.0855606676739424,-0.16669702834587438,-0.17194440809136033
0.812,0.06438652191297053,-0.15835320260889335,-0.2224211921502897,0.04712026419969773,0.14232188863898287,-0.19123423234306844,-0.04532158551926235,-0.15974988575550356,-0.07328593240510678,-0.09985598273634827,-0.15803020152455083,-0.15287504088514786
0.814,0.05756412837934475,-0.16103834221957566,-0.21869630408826746,0.051812920682732556,0.13641691703811298,-0.19092061169263444,-0.04795122761840472,-0.1832380300055267,-0.0934430400689455,-0.11022025663481429,-0.1442556721013693,-0.14232406618415314
0.816,0.05903151855941977,-0.15276485765899545,-0.2121298278877739,0.047933456651613505,0.13339118688006296,-0.18358890292137814,-0.06268242010453368,-0.1994371529633335,-0.1030219551899504,-0.11171771769380888,-0.1352918873099016,-0.14765142565056671
0.818,0.047673365016137524,-0.1435524595924694,-0.19161853338872026,0.050095733329075576,0.11753673375849384,-0.16815885264419322,-0.07152154096431156,-0.19717653474318184,-0.10155273866298048,-0.11243056768292348,-0.12814659976634782,-0.1567694636286659
0.82,0.009560959674781253,-0.13589519981044623,-0.14580303048501037,0.06536239925705045,0.07618788448348807,-0.14062958599130868,-0.059589599158452126,-0.17116018229747956,-0.09745064446207753,-0.11146211765844699,-0.11601845159919438,-0.15365942315353243
0.822,-0.04927172834680625,-0.12834082169472832,-0.07925294557416795,0.09027306610719806,0.013961425839227024,-0.10352026290387815,-0.032858591114780664,-0.12677569995848528,-0.09101153037219,-0.09805832389419444,-0.10057229389656358,-0.13891778618779463
0.824,-0.09289764854028276,-0.12388013784244668,-0.03096349780959659,0.10938792381510927,-0.03224682226465624,-0.07817159605147014,-0.015558939025777967,-0.08622329571138519,-0.08350462469834427,-0.07770492463885972,-0.09392808706388073,-0.13242691512614455
0.826,-0.08646236505102273,-0.127556656640385,-0.04099065113129416,0.10788800163797818,-0.024667414598987917,-0.0864076493739568,-0.024318169991405583,-0.07100834963202107,-0.08137210769556412,-0.072131806517431,-0.10295071891170413,-0.14760047151172748
0.828,-0.0470653497400433,-0.1396048122037507,-0.09249273403805743,0.09407934101134077,0.0205289647017022,-0.11885910301429001,-0.045282299851740225,-0.07938406218866781,-0.08716589647340459,-0.08668610760950818,-0.1136552875818413,-0.16693826980944212
0.83,-0.030150380535696658,-0.15438537120751775,-0.12426600994402386,0.09319414701487999,0.04533623230119807,-0.14166189581017102,-0.05147764282855225,-0.09625387145167043,-0.10193530415548514,-0.10248300320128408,-0.10365714729130092,-0.1598462501240677
0.832,-0.055093823939244384,-0.16398358052143594,-0.1089299669184707,0.11106844027651082,0.025845193028405503,-0.13762649203461658,-0.04039525455389789,-0.1131826411914978,-0.12679967757966926,-0.10293323978170427,-0.07031875668326609,-0.12508637826916472
0.834,-0.07853121861091214,-0.16423012883516397,-0.08570157571267872,0.12305367564370634,0.0026393632704869653,-0.12530364430300625,-0.03245749548877221,-0.12446488020256659,-0.15170285310784762,-0.09029870526633967,-0.03534529195207459,-0.09750894503385062
0.836,-0.05472344215413234,-0.15789303501512256,-0.1031490720798229,0.10735532581610718,0.0227737123406875,-0.1310310644573974,-0.038201430326542614,-0.12350157274597624,-0.16066270292264495,-0.07939836835883199,-0.022454805144527638,-0.10629149934204653
0.838,0.01144260969072209,-0.1486733929302873,-0.16010474817278453,0.06940285538363918,0.08377847437268941,-0.1556092553895532,-0.05234183905236206,-0.11904528201267606,-0.15434411773050105,-0.08551154193457537,-0.03942587970452239,-0.14265139042252792
0.84,0.08018231569519554,-0.13541144922840692,-0.21559956906022373,0.02928360160710114,0.14586522905618035,-0.1770167624747826,-0.0703245532081616,-0.13177442223103095,-0.14876409328279522,-0.11378563184664833,-0.07569792920499015,-0.17709561899751097
0.842,0.10937069973387412,-0.11949901167698909,-0.22887861877535276,0.007866979781969548,0.16751176972616078,-0.17525465578256288,-0.08703459063603868,-0.15994582135110144,-0.1470140270261062,-0.15186742611833215,-0.10605766049093893,-0.19145575493268882
0.844,0.07541248991627014,-0.11429723664441271,-0.18971081381888205,0.022266289767731123,0.13134732015608339,-0.15228624322392084,-0.08953753332909727,-0.17371029457408874,-0.13034440249355422,-0.17507202521163642,-0.10714729570828416,-0.18471293338321218
0.846,-0.0024779232423648334,-0.13456108391249022,-0.132078819959979,0.07000816554674309,0.06393939706707201,-0.13311277534384441,-0.06785387169171304,-0.153634534868324,-0.08664915765448093,-0.16831701849970185,-0.08151043679014436,-0.16250135250932055
0.848,-0.07159006176066599,-0.17379360953588086,-0.10220088138223535,0.12258905066200747,0.01483518961817578,-0.1381268465936521,-0.029053178291423988,-0.11141662929846453,-0.03282577535645026,-0.14177288131737492,-0.05309481958337045,-0.132922036929943
0.85,-0.09870981537560922,-0.20419557960592127,-0.10546491981045401,0.15086450069970858,0.002968378100028432,-0.15615456655749815,0.007244580146859924,-0.07079029646524307,0.0027880966017747263,-0.1190416097392964,-0.03768831668468745,-0.10856189103949992
0.852,-0.08802181889011562,-0.2057964607534259,-0.11764530429448469,0.1470844820728919,0.01393760922666595,-0.16431397582677193,0.03249355114960762,-0.04300558427735974,0.013258995076909042,-0.11532012737895114,-0.032905182191683244,-0.10249155011495138
0.854,-0.04300286971357745,-0.18708117842492777,-0.1437512368558075,0.1159871920006397,0.04905480229500672,-0.16823876879698713,0.0652034335669405,-0.01465534343974236,0.023645872227991256,-0.12829854194372167,-0.03233700376229309,-0.1171440532027105
0.856,0.043264407348137905,-0.1705259978243978,-0.21338882587351543,0.06445555141890888,0.1272358062604848,-0.1937612902131568,0.1328876439121126,0.04132925156383985,0.06762567125324645,-0.1413698873820062,-0.03469115702808958,-0.14059731567372954
0.858,0.1414921906716734,-0.1645477692916272,-0.30591510914720693,0.0119359077178086,0.22342970057226255,-0.2358840857495197,0.235992313105448,0.13529721895143976,0.15517996231413872,-0.12860046830067193,-0.03596781455749569,-0.15473207010866016
0.86,0.17334820351044444,-0.15873991733413956,-0.33241947340484107,-0.006718928216189192,0.2532151266380681,-0.24610596776791058,0.33258999199053974,0.2509074131135635,0.27205475390379585,-0.059140604959155914,-0.01995540900410254,-0.14562817679408935
0.862,0.09118703031364267,-0.14563399367838523,-0.23725854699231913,0.02837513617320804,0.16425713532244357,-0.1927727834346365,0.362490251204375,0.35732835265371926,0.39769932622856297,0.07895118776570938,0.02589658750907917,-0.1142190169495771
0.864,-0.040058713945508036,-0.13561191493775834,-0.09552269844126927,0.08906916939467364,0.026796546982017267,-0.11757515414159397,0.29446902676670866,0.4159607195405972,0.504376711344844,0.24257866410048343,0.08213293323247713,-0.07992944167543625
0.866,-0.09062581770831829,-0.143294241050894,-0.05204250817575619,0.11757335740625754,-0.020978243639560322,-0.09951525214510505,0.15127640151731306,0.40152362857910623,0.5651716583067378,0.3538308689899208,0.1127297338603433,-0.06109015767643009
0.868,-0.008552937491653836,-0.16660375233612407,-0.1572435549896482,0.0877495184188232,0.07250373847037654,-0.1631050886833827,-0.016025296690856835,0.33067187009784266,0.5879790134050867,0.38557280190489385,0.11767908955452216,-0.04975215431498938
0.87,0.12538683239910237,-0.18706863714487276,-0.31186187976634955,0.03157931801642223,0.21682926361216961,-0.25035354280434735,-0.17494310937944899,0.24167327602234667,0.6153754775454287,0.3972178881910834,0.13686258183030295,-0.02205700871126415
0.872,0.19758226419436228,-0.1872831042666567,-0.3845040370278765,-0.0033789416370759986,0.28920418531670605,-0.28722055537500973,-0.3264055532848017,0.14946698494298438,0.6776975862271417,0.4615012925194562,0.1925292214446999,0.026598233533908635
0.874,0.18214139238444133,-0.16094794499762716,-0.3428493246312023,-0.008583009872884005,0.26054769106164255,-0.25386541420260544,-0.48572826606315694,0.04244419168959974,0.7665801580675342,0.5863027268974361,0.2634714562525215,0.07847735038189226
0.876,0.1517949406156941,-0.10601055784078173,-0.2577742410088322,-0.021580335101881492,0.20264568938659902,-0.18393349745999563,-0.6799071828689454,-0.10352745015557932,0.8435125763525897,0.7198468039295065,0.3220635799217746,0.12440075759247292
0.878,0.18712543971846352,-0.018531340099850198,-0.20597446427843247,-0.0835827013984383,0.19415104223935764,-0.11376323499810576,-0.9556595289236254,-0.3277150642711246,0.846127543734533,0.7935911600489262,0.3607669484759266,0.17038563324870637
0.88,0.2860024401950644,0.09866039076646578,-0.18784565878018683,-0.19143801776261218,0.23433082434127248,-0.04571370442593227,-1.3344892303882276,-0.6648450301251841,0.7030833945851038,0.7505285170204954,0.375675293316004,0.21270856736719243
0.882,0.3694673790393457,0.22808377225761903,-0.14166874182828804,-0.29741043549848534,0.2530291345098746,0.04173827108197486,-1.7561580120247293,-1.1006805600449283,0.3783359509450881,0.569088922626181,0.35565596834055635,0.23307776984868728
0.884,0.37173931785607595,0.3468715345480864,-0.024715986359418393,-0.35782186501976404,0.19619110461948794,0.15886213651577957,-2.126915954916766,-1.5705298381674353,-0.09719167138739362,0.27667605258243533,0.29918955797377944,0.22489256004538516
0.886,0.30732127140944737,0.438398204709704,0.1314549736602956,-0.37138278053753077,0.08676210465630346,0.2825148332349879,-2.4240181171681536,-2.0135003385061854,-0.6468730395609825,-0.06962378850911369,0.22350172006222796,0.20828734663690968
0.888,0.2427980374974248,0.4873912410496284,0.24476011001493578,-0.3632657613113416,-0.0014197737556862786,0.36434386564018945,-2.6866724161853477,-2.405771961228964,-1.190925507241816,-0.41407928779101755,0.15090367022672302,0.20994240815124118
0.89,0.21417673000490522,0.47258000835073183,0.2581745550839995,-0.3411461263357462,-0.022197570137056498,0.36449151038555316,-2.903640799654998,-2.7279904722388792,-1.665847306626497,-0.7179097781237915,0.09326586548154993,0.23119700936726606
0.892,0.20091576743493983,0.381014592692058,0.1797491306430597,-0.28890800734446737,0.01017624950967674,0.27990119316961315,-2.9820416665839495,-2.924303323977148,-2.019976120760703,-0.9649621867576548,0.04249466386931709,0.24123676827579466
0.894,0.182687904725247,0.2328599843064885,0.05005248978205001,-0.2063744207485246,0.06538961615710645,0.14109018383316915,-2.848377563742329,-2.926095583780647,-2.2045161970001534,-1.1513901995587605,-0.025138792554172076,0.2054209796466306
0.896,0.1655274079548752,0.07995323516325394,-0.08545412240630988,-0.12185523386611774,0.12395523303463188,-0.0032038435237699545,-2.534696477533883,-2.7234992343589948,-2.1884307690770575,-1.2605285261322248,-0.11875233924325118,0.1223625375814222
0.898,0.14198114115896351,-0.02920044616218956,-0.17103269767822418,-0.055546029742620774,0.1547264478558058,-0.10114729314437829,-2.152761211713514,-2.397334379820736,-2.0046526364176542,-1.274073050748568,-0.2142439767693693,0.026322260583199142
0.9,0.09732827524277633,-0.08094850258448767,-0.1781471931225443,-0.007070959965961694,0.13645016948808306,-0.13141558062509667,-1.8156786541355145,-2.067028491821291,-1.7640988080615092,-1.2210253956678776,-0.2875811073792214,-0.052970662690325625
0.902,0.056040606780839664,-0.09345382935884906,-0.1492366154064389,0.020041108778475137,0.10232395932954072,-0.12353932455618578,-1.5777472037706588,-1.8059338390496644,-1.577097397637744,-1.1695230657617073,-0.3476931682604139,-0.118704653287413
0.904,0.05131741324749767,-0.08935449048075166,-0.14025989437612985,0.020255255216407034,0.09598546251451441,-0.11670883277934967,-1.4141982714096226,-1.606529752849656,-1.4535809529670485,-1.14488267713556,-0.4080582694632763,-0.1840704235481348
0.906,0.0671512427503359,-0.07534681738519936,-0.14208891231894819,0.004924632367043291,0.10430994956853346,-0.11031757128111838,-1.259990235062711,-1.4219499836000746,-1.317601455048694,-1.1009307080886657,-0.4482844638516277,-0.24021868593961274
0.908,0.06598503722026529,-0.048820152485976716,-0.1144970022432126,-0.00828617394694568,0.08898837238201558,-0.08318641834396492,-1.0776465493157255,-1.2283052402022674,-1.1232836497294902,-0.9949753652754427,-0.4357818023603623,-0.2649741310340531
0.91,0.04147616845932078,-0.0189044012244784,-0.06023367327094747,-0.011303539275303193,0.04902093471744252,-0.04107056010080377,-0.8796666763843187,-1.03888238476706,-0.9123064346155654,-0.8453952507452209,-0.3740009406312385,-0.25111335783476296
0.912,0.009633477450194154,-0.007571136817849133,-0.01735451941579505,-0.0009097116972648007,0.011576833791521489,-0.01388405902886999,-0.6975964877738361,-0.8736588346028482,-0.7489528778339333,-0.6955645299697575,-0.30455598036649173,-0.21206053397371477
0.914,-0.017250808560820282,-0.027243102001152316,-0.010402281848162375,0.02289200706797057,-0.0050495860408149434,-0.020017426384020737,-0.5488297760836269,-0.7335415502348619,-0.641692154193406,-0.5626253008478564,-0.26064348604548015,-0.16799182610366356
0.916,-0.030228824375346717,-0.06864182003278396,-0.03875357712688232,0.05074491885623607,0.0032530499393045643,-0.054566355477589416,-0.4278713301223931,-0.6020965301021292,-0.5471144201154347,-0.44106717697006126,-0.2347415243808756,-0.1356004356550183
0.918,-0.024978400086200985,-0.11158720515375549,-0.08663783640219166,0.06994062772028573,0.030592832098651896,-0.09985155349200382,-0.31947499141782754,-0.4671010843802733,-0.42951945849848217,-0.33135980819773797,-0.19932188207525553,-0.12205503320485693
0.92,-0.010406299972376699,-0.1400122791426219,-0.12942105292866218,0.07640629553268123,0.05981043691012511,-0.13553373849027678,-0.21813584240550654,-0.3385401162874542,-0.3010040855513745,-0.25018223640296994,-0.14552271237163553,-0.11997411540428464
0.922,-0.004291352821000141,-0.1495973419965324,-0.1450954445106691,0.07712046557935627,0.0704920470869874,-0.1482539164904118,-0.13214279137510626,-0.23486978085280158,-0.19872461256827012,-0.2095265719769608,-0.08952720800504704,-0.11498548399127034
0.924,-0.024295461115649005,-0.14730150869078112,-0.12284695880811798,0.0853962709513812,0.04821602021374408,-0.13625274246912938,-0.06890923765054234,-0.15374616496336013,-0.13164086004858205,-0.18618556019104207,-0.049271883754990344,-0.09978760380856562
0.926,-0.07678555153992393,-0.14259889013717492,-0.06579078464369134,0.10979030183146818,-0.007978078873692947,-0.1058015838176514,-0.023882764936006367,-0.08011504362064839,-0.07886047575909438,-0.13840703540107707,-0.027406374332416803,-0.07552771648343841
0.928,-0.13689766164693887,-0.13931945750212413,-0.002625677882966744,0.1393623165686462,-0.07023920342853834,-0.07244405504203774,0.010384765479012356,-0.02066998212839718,-0.037853923669637524,-0.06368784946751603,-0.01488258330408078,-0.04823062878859157
0.93,-0.1547903213008559,-0.13809203152368751,0.01634006150525715,0.14839583835491535,-0.08810398934281427,-0.06138806905825939,0.030003566186067476,-0.0008208270791835444,-0.03180016986178566,-0.007135552095851899,-0.0042486537087942046,-0.030382330373598512
0.932,-0.10433332963933638,-0.14035580864406277,-0.03629319766737534,0.12375944525838317,-0.0354471137398735,-0.08804963423067305,0.024643932147538065,-0.02899920043169107,-0.06719398243678791,-0.005508040554710311,0.0008305546451809631,-0.03418449671725819
0.934,-0.01180539553213497,-0.144349881892806,-0.13243216026944774,0.07819074681461151,0.05956697927912747,-0.13839764746688715,-0.0036530228174358617,-0.08411527123384285,-0.11667086850747722,-0.04996716832346397,-0.008767644356862133,-0.05848085908798678
0.936,0.07264832187142428,-0.14460175024185878,-0.21666214637788403,0.03538206409922944,0.1437461317099724,-0.18153992677644223,-0.033819128747352094,-0.13261025525111786,-0.14150792382188035,-0.1019445094137419,-0.03251692478142211,-0.09090640920178639
0.938,0.11262503667387656,-0.1396965882015656,-0.2516335687575805,0.013567125784233804,0.18066906258879545,-0.19722946672841943,-0.03971960412227734,-0.14745780197225905,-0.11882656346465402,-0.1280400029179066,-0.057715943009841085,-0.12272264970147757
0.94,0.09711927827486674,-0.13473298762924815,-0.23163352154865152,0.020290620895905186,0.16278699500861138,-0.1850640746067825,-0.011375186912036976,-0.12042517868010488,-0.05910140699759023,-0.12268568200925369,-0.072016880812276,-0.15330707397237045
0.942,0.039757306851935695,-0.13418822992817633,-0.1742981504186691,0.049857584784202845,0.10605087300702425,-0.15633500752268825,0.03602046838965977,-0.06502973842616765,0.0009400520602882894,-0.10358578437821493,-0.07280066157445987,-0.1784538485381557
0.944,-0.025454348920907085,-0.1354004334942971,-0.11041450174156783,0.08309134239917391,0.04229769077346649,-0.12488009322243915,0.07638592709830504,-0.006892167379300431,0.03089439358633116,-0.08796218312720927,-0.06711311144132784,-0.18653315463818781
0.946,-0.05568259926106615,-0.13364955053796837,-0.07818015161770664,0.09636699448381394,0.01110862418944767,-0.10713035181950548,0.09342454965715458,0.02782737111436462,0.024054861978329,-0.08219879145736023,-0.06878339491789041,-0.1779914436354727
0.948,-0.029202226234516862,-0.1335310273339319,-0.10436714388004172,0.08213821788365387,0.0364613983133544,-0.11928123013526347,0.08533935881691036,0.024396226980924106,-0.01204491714346252,-0.09026894603081383,-0.08674646171447317,-0.17208895108670239
